
 $NMID
 id='ANONYMOUS ', fmtdat='(2E16.6)'
 volume=1.0
 tramp=1.0
 $END
   3.156330e+03  -1.937572e+02
   2.003645e+03   1.594376e+03
   9.073919e+01   1.651849e+03
  -1.079783e+03   1.088300e+03
  -8.039317e+02   1.891385e+02
   1.208293e+02  -2.593440e+02
   4.578556e+02   1.292768e+02
   8.192876e+01   5.211756e+02
  -3.888158e+02   5.175931e+02
  -6.170248e+02   9.436379e+01
  -3.673202e+02  -4.464141e+02
  -1.930869e+01  -5.582990e+02
   2.438868e+02  -1.443085e+02
   1.903622e+02   3.670088e+02
  -1.325572e+02   4.168034e+02
  -3.954644e+02   7.201944e+01
  -2.260021e+02  -4.936809e+02
   1.081953e+02  -5.346889e+02
   3.856857e+02  -2.571003e+02
   4.005343e+02   1.430121e+02
   1.207019e+02   3.090293e+02
  -1.025582e+02   1.922720e+02
  -2.373159e+01   7.772960e+01
   1.550813e+02   7.051742e+01
   2.203533e+02   2.528696e+02
  -1.914111e+01   3.479785e+02
  -4.031880e+02   1.148760e+02
  -5.779614e+02  -1.278526e+02
  -1.450334e+02  -3.035977e+02
   2.799111e+02  -1.803166e+02
   4.829330e+02   1.420431e+02
   1.491113e+02   3.195172e+02
  -2.377035e+02   3.064972e+02
  -3.895745e+02   6.895966e+01
  -2.512443e+02  -1.480567e+02
  -2.219509e+01  -2.685555e+02
  -9.511334e+00  -1.491816e+02
  -3.100687e+01   9.954830e+01
  -1.528375e+02   9.431055e+01
  -1.765912e+02  -1.607695e+02
   7.247337e+00  -3.863882e+02
   1.957431e+02  -3.098135e+02
   2.428873e+02   2.082552e+01
   2.388955e+01   2.586301e+02
  -1.529947e+02   1.115042e+02
  -1.696957e+02  -3.040035e+02
   9.378334e+01  -3.502754e+02
   3.984413e+02  -7.149530e+01
   4.492182e+02   3.737368e+02
   1.261255e+02   4.614479e+02
  -3.083176e+02   2.576771e+02
  -5.274562e+02  -2.751099e+01
  -3.185052e+02  -2.032300e+02
   4.183845e+01  -2.110037e+02
   2.309137e+02  -9.357171e+01
   2.218321e+02  -2.477868e+01
  -7.873799e+00   3.985615e+00
  -5.195151e+01  -7.414130e+01
   1.170805e+02  -2.802123e+01
   2.369220e+02   4.529677e+01
   1.291517e+02   1.840060e+02
  -1.777445e+02   2.283548e+02
  -3.196117e+02   1.495450e+02
  -2.487658e+02  -1.006145e+02
   1.305171e+01  -3.218330e+02
   2.474970e+02  -3.637607e+02
   3.357145e+02  -1.602833e+02
   2.342174e+02   1.670473e+02
   5.541567e+01   3.052126e+02
   9.326151e-02   2.654814e+02
  -3.084056e+01   1.915969e+02
  -4.470218e+01   1.391761e+02
  -1.462420e+02   1.197080e+02
  -2.378671e+02   3.821056e+01
  -2.602867e+02  -1.398786e+02
  -6.718851e+01  -2.548888e+02
   7.638570e+01  -1.872655e+02
   1.940462e+02   4.867877e+01
   1.412143e+02   2.627149e+02
  -4.562396e+01   2.515090e+02
  -2.043136e+02   7.898134e+01
  -2.881897e+02  -1.105696e+02
  -1.742752e+02  -2.654298e+02
   1.788100e+00  -2.312784e+02
   1.422503e+02  -1.304026e+02
   1.152973e+02  -1.018359e+02
   1.234112e+02  -6.518524e+01
   2.819104e+02  -6.084163e+01
   4.455943e+02   9.303366e+01
   3.132648e+02   2.355817e+02
  -4.634558e+01   4.218451e+02
  -2.825370e+02   3.675827e+02
  -4.197623e+02   1.695063e+02
  -2.655427e+02  -1.151541e+02
  -1.854504e+00  -2.209784e+02
   7.640005e+01  -1.709880e+02
   9.489506e+00  -2.637119e+01
  -9.765134e+01   3.243280e+01
  -1.398366e+02  -4.973576e+01
  -1.592770e+01  -1.318840e+02
   9.517638e+01  -1.062206e+02
   9.002237e+01   5.569432e+01
  -3.931798e+01   1.241883e+02
  -1.580111e+02  -4.387655e+01
  -1.697823e+02  -2.187247e+02
   3.237136e+00  -3.476338e+02
   2.391435e+02  -2.051260e+02
   3.551389e+02   6.206968e+01
   2.218541e+02   2.650222e+02
   5.786604e+01   2.230361e+02
  -1.258852e+02   1.400978e+02
  -1.255960e+02   1.255989e+01
  -1.534928e+01  -4.590457e+00
   4.747819e+01   1.885728e+01
  -1.307003e+01   1.247778e+02
  -1.203954e+02   5.526183e+01
  -1.300569e+02  -3.799439e+01
  -3.073466e+01  -6.652678e+01
   8.154023e+01   1.316846e+01
   5.642239e+01   8.418069e+01
  -1.477663e+02   8.476441e+01
  -2.642529e+02  -4.149373e+01
  -2.435205e+02  -1.372350e+02
  -1.466221e+01  -2.371516e+02
   1.801739e+02  -2.335146e+02
   1.994224e+02  -8.491176e+01
   1.507568e+02   6.209810e+01
  -3.634832e+01   6.055504e+01
  -4.123216e+01  -1.824617e+00
   4.550662e+01  -8.996226e+01
   1.675993e+02  -4.918202e+01
   1.631612e+02   1.055498e+02
   2.274761e+01   1.796628e+02
  -6.068797e+01   1.043312e+02
  -9.824459e+01  -2.541086e+01
  -2.290149e+01  -3.544013e+01
   7.864350e+01   1.056745e+01
   4.876939e+01   1.003314e+02
  -7.057861e+01   8.942294e+01
  -1.975276e+02   3.738650e+01
  -1.674666e+02  -1.321607e+02
  -1.035161e+01  -2.049349e+02
   1.171490e+02  -1.172843e+02
   1.220184e+02   2.108492e+01
   1.688295e+01   9.608468e+01
  -3.369989e+01   8.853009e+01
  -7.843824e+01   2.428308e+01
  -1.497520e+01  -2.992581e+01
   4.927584e+01  -9.316648e+00
  -3.338824e+01   2.996655e+01
  -8.225693e+01   2.057669e+01
  -1.075680e+02  -7.579397e+01
  -4.176214e+01  -1.988501e+02
   1.367327e+02  -1.416413e+02
   2.309405e+02  -4.072991e+00
   2.047048e+02   1.353378e+02
   3.169349e+01   2.030530e+02
  -1.014620e+02   1.595139e+02
  -1.155213e+02   1.906592e+01
  -9.378052e+01  -5.607233e+01
  -1.683854e+01  -5.108018e+01
  -4.567181e+01   1.949351e+00
  -6.531362e+01   3.367134e+01
  -6.054607e+01  -3.040120e+01
   3.162897e+01  -9.197739e+01
   9.374840e+01  -1.828426e+01
   8.318230e+01   3.243532e+01
   3.521108e+00   1.398643e+02
  -1.553400e+02   6.752599e+01
  -1.680625e+02  -6.931787e+01
  -7.513465e+01  -2.111626e+02
   1.030120e+02  -1.944881e+02
   2.781926e+02  -7.219925e+01
   2.286720e+02   7.443444e+01
   7.193133e+01   1.807943e+02
  -4.479203e+01   1.316522e+02
  -1.146230e+02   8.604779e+01
  -7.974044e+01   6.702927e+01
  -5.158112e+01   8.516335e+01
  -1.179790e+02   7.540717e+01
  -1.650842e+02   1.110380e+01
  -8.816691e+01  -1.131002e+02
  -3.006930e+01  -1.589637e+02
   8.969161e+01  -1.456083e+02
   1.573315e+02  -6.537460e+00
   1.116508e+02   1.253631e+02
   6.119028e+01   1.443444e+02
  -4.181272e+01   9.247493e+01
  -4.608274e+01   4.363515e-01
  -7.537102e+00  -4.747638e+01
   4.099669e+01  -2.959360e+01
  -3.226816e+01  -1.145444e+01
  -7.310098e+01  -3.922170e+00
  -6.683771e+01  -4.252275e+01
   6.658092e+01  -1.761773e+01
   1.258808e+02   2.178524e+01
   8.853726e+01   5.087864e+01
   2.635561e+00   7.606747e+01
  -1.232930e+02   7.206918e+01
  -1.330687e+02   4.721230e+01
  -1.182820e+01  -2.877095e+01
   3.446004e+01  -4.015332e+01
   4.944738e+01   1.665081e+01
   7.074963e+00   6.748396e+01
  -1.450809e+01   3.516571e+01
  -5.318996e+01   2.001397e+00
  -5.243069e+01  -3.136111e+01
  -5.514931e+01  -3.035927e+01
  -3.731714e+01  -6.326495e+00
  -8.445833e+01   2.327649e+01
  -3.691109e+01  -6.135953e+01
   8.162908e+00  -1.254898e+02
   1.182041e+02  -1.261766e+02
   1.224522e+02  -3.724140e+01
   1.027664e+02   9.340797e+01
   3.030187e+00   1.402520e+02
  -7.674687e+01   6.886984e+01
  -7.596704e+01  -8.372740e-01
   4.472643e+01  -2.374585e+00
   1.052421e+02   8.769560e+00
   5.010430e+01   5.395449e+01
  -6.898876e+01   7.936682e+01
  -1.639876e+02   3.509039e+01
  -1.262757e+02  -3.963060e+01
  -5.081327e+01  -8.903233e+01
   2.932266e+01  -6.799219e+01
   2.348941e+01  -4.417594e+00
  -4.309501e+01   1.954847e+01
  -8.254445e+01  -2.685785e+01
  -4.301173e+01  -1.189069e+02
   3.953304e+01  -1.212905e+02
   1.093457e+02  -5.635820e+01
   1.455020e+02   6.192726e+01
   2.001535e+01   1.449905e+02
  -3.929974e+01   1.188546e+02
  -9.382349e+01  -9.871658e+00
  -4.185078e+01  -1.202758e+02
   1.751268e+01  -5.718473e+01
   2.803128e+01  -1.045214e+01
   2.621882e+01   1.903675e+01
  -4.994290e-01   1.569649e+01
   5.612752e+00  -1.190706e+01
   4.086531e+01  -9.927535e+00
   3.336394e+01   1.066991e+02
   1.788049e-01   9.318199e+01
  -6.724826e+01   2.965993e+01
  -1.580795e+02  -4.967545e+01
  -1.173571e+02  -6.690101e+01
  -4.018935e+01  -5.572311e+01
   8.233275e+01  -3.079231e+01
   9.406331e+01   1.989669e+01
   1.364000e+01   1.829455e+01
  -2.307589e+01   2.805682e+01
  -2.210800e+01  -9.530220e+00
   2.854098e+01   1.239126e+01
   2.081382e+01   5.660870e+00
  -4.289331e+01   1.271077e+01
  -7.509591e+01  -1.975583e+01
  -3.012560e+01  -1.042246e+02
   6.288387e+01  -1.181478e+02
   1.442754e+02  -6.559578e+01
   1.516691e+02   1.588159e+01
   4.031269e+01   1.420975e+02
  -6.538083e+01   1.303941e+02
  -7.665111e+01   5.136887e+01
  -4.653488e+01   1.047220e+00
  -2.527765e+01  -5.504986e+01
  -9.070509e+00  -4.426756e+01
   1.633757e+00   3.291565e+00
  -5.763701e+01  -5.293536e+01
  -2.193561e+01  -9.246264e+01
   2.172869e+01  -9.729603e+01
   7.660599e+01  -7.441885e-01
   8.367259e+01   9.023455e+01
  -1.497716e-01   9.080086e+01
  -8.646894e+01   5.449677e+01
  -1.164500e+02  -4.123515e+01
  -6.521054e+01  -1.021138e+02
   5.659764e+01  -7.809246e+01
   9.911420e+01  -1.173503e+01
   5.967294e+01   5.032801e+01
  -4.430969e+01   3.414435e+01
  -2.288984e+01   5.225904e+00
   3.602334e+00  -4.066228e+01
   6.067143e+01  -3.993381e+01
   3.972774e+01   2.063806e+01
  -7.076402e+01   9.130342e+01
  -1.091230e+02   5.135292e+01
  -7.975217e+01  -7.992239e+00
   1.140827e+01  -9.394281e+01
   5.193780e+01  -9.456317e+01
   3.778855e+01  -1.318905e+01
  -3.337336e+00   3.338136e+01
  -4.155214e+00   3.638269e+01
  -4.789821e+01  -5.056174e+00
  -2.497849e+01  -4.963172e+01
  -9.283289e+00  -1.228181e+01
   4.063008e+01  -4.074203e+00
   1.504398e+01   5.127222e+00
  -6.550531e+00   8.741978e+00
  -3.491829e+00  -1.961741e+01
  -3.600990e+00  -4.001378e+01
   1.475152e+01   3.558134e+01
  -1.076449e+01   4.224910e+01
  -2.448137e+01   8.618189e+00
  -2.386496e+01  -3.934014e+01
  -1.939839e+00  -2.149864e+01
   3.668964e+01  -1.336414e+01
   3.383220e+01   2.695072e+01
   1.568218e+00   5.625475e+01
  -1.645561e+01   3.393074e+01
  -1.123590e+02  -3.678465e+01
  -6.704941e+01  -3.944643e+01
   2.292059e+01  -4.667935e+01
   4.230951e+01  -1.287846e+01
   1.116393e+01   1.127954e+01
  -2.984994e+01  -1.329671e+01
  -2.043499e+01  -3.278735e+00
   9.366314e+00   1.009457e+01
   7.387036e+01  -2.189556e+01
