
 $NMID
 id='ANONYMOUS ', fmtdat='(2E16.6)'
 volume=1.0
 tramp=1.0
 $END
   2.288773e+03   2.204132e+02
   1.735075e+03   1.078178e+03
   9.830929e+01   1.622607e+03
  -7.451936e+02   1.093206e+03
  -7.641352e+02   3.859714e+02
  -1.973700e+02  -4.843272e+00
   1.065962e+02   1.826363e+01
  -3.074217e+01   2.597811e+02
  -2.337321e+02   4.143850e+02
  -4.065894e+02   9.947876e+01
  -3.436113e+02  -3.600604e+02
  -7.010303e+01  -5.025939e+02
   2.048689e+02  -1.639785e+02
   2.523109e+02   2.569172e+02
  -4.986884e+01   4.275101e+02
  -2.358632e+02   1.188832e+02
  -2.677612e+02  -3.361211e+02
   3.634841e+01  -4.882816e+02
   3.094958e+02  -2.288977e+02
   3.500629e+02   5.347509e+01
   1.028843e+02   2.565977e+02
  -6.770336e+01   1.999431e+02
   2.435430e-01   1.404075e+01
   1.683380e+02   1.072626e+02
   2.053596e+02   2.106628e+02
  -4.392544e+01   2.834526e+02
  -4.003031e+02   1.451796e+02
  -4.575080e+02  -1.165562e+02
  -9.792633e+01  -2.321933e+02
   2.442594e+02  -1.378503e+02
   3.521851e+02   1.191219e+02
   1.154765e+02   2.027554e+02
  -1.673468e+02   2.335174e+02
  -3.242873e+02   1.142900e+02
  -2.276200e+02  -5.509383e+01
  -7.297803e+01  -1.736685e+02
  -2.558295e+01  -1.399818e+02
  -4.970665e+01   5.432166e+01
  -1.280040e+02   3.641799e+01
  -9.686928e+01  -1.262439e+02
  -6.057432e+01  -3.629137e+02
   1.470601e+02  -3.487149e+02
   2.396787e+02  -5.695237e+01
   1.294739e+02   2.126255e+02
  -5.611850e+01   1.072182e+02
  -1.429406e+02  -1.694966e+02
   8.813706e+01  -2.460653e+02
   3.085609e+02  -8.994177e+01
   3.623582e+02   2.393842e+02
   1.094953e+02   4.118750e+02
  -1.932441e+02   1.906195e+02
  -3.415361e+02  -2.727168e+01
  -2.760635e+02  -1.676692e+02
  -1.498102e+01  -1.523619e+02
   1.980001e+02  -8.302146e+01
   1.820552e+02  -5.417359e+01
   4.079364e+01   9.101096e+00
  -2.619627e+00   9.774650e+00
   7.209103e+01  -2.173796e+01
   1.577087e+02   1.372953e+01
   8.964644e+01   1.415210e+02
  -1.164216e+02   1.694473e+02
  -2.330903e+02   9.547225e+01
  -2.257196e+02  -7.115302e+01
   2.831857e+01  -2.612761e+02
   2.284005e+02  -3.194580e+02
   3.263235e+02  -1.437659e+02
   2.034863e+02   1.079772e+02
   4.531263e+01   3.181684e+02
  -1.949141e+01   2.719524e+02
  -8.369103e+00   1.319529e+02
  -3.332001e+01   1.033390e+02
  -1.399105e+02   9.108350e+01
  -2.039183e+02   3.238004e+01
  -2.031871e+02  -9.923144e+01
  -6.656355e+01  -2.185155e+02
   7.797304e+01  -8.168322e+01
   1.174814e+02   6.880329e+01
   8.796612e+01   1.967011e+02
  -2.353193e+01   1.416487e+02
  -1.777116e+02   3.374015e+01
  -2.094687e+02  -1.598533e+02
  -1.167829e+02  -2.282965e+02
   3.484044e+01  -2.053183e+02
   8.007033e+01  -1.202843e+02
   1.569193e+02  -8.991322e+01
   1.449446e+02  -5.767762e+01
   2.247468e+02   3.114311e+00
   3.196832e+02   4.692854e+01
   2.245552e+02   2.643773e+02
  -3.544900e+01   3.120742e+02
  -2.907370e+02   2.636757e+02
  -3.328353e+02   1.186029e+02
  -2.121240e+02  -7.409538e+01
  -4.902651e+01  -1.772195e+02
   6.341452e+01  -1.602883e+02
  -3.651711e+01  -8.353259e+00
  -8.811981e+01   7.964194e+00
  -7.574245e+01  -3.888008e+01
  -8.971239e+00  -1.053725e+02
   6.686318e+01  -4.445449e+01
   5.774004e+01   3.936191e+01
  -1.172756e+01   7.535230e+01
  -1.060002e+02  -2.099558e+01
  -8.978735e+01  -1.490896e+02
   2.528576e+01  -2.551187e+02
   1.965861e+02  -1.557246e+02
   2.909992e+02   4.282728e+01
   1.889436e+02   2.014942e+02
   4.308241e+01   2.333254e+02
  -1.122057e+02   1.031140e+02
  -1.211543e+02   1.054294e+00
  -2.144735e+01   1.744274e+01
   2.982112e+01   2.295782e+01
   8.069119e+00   6.243502e+01
  -7.253065e+01   5.496058e+01
  -1.304165e+02  -4.088811e+01
  -2.413581e+01  -3.936058e+01
   4.365659e+01   2.821103e+01
   5.025801e+01   5.817029e+01
  -1.157070e+02   2.873040e+01
  -2.381889e+02  -3.360673e+01
  -1.781848e+02  -1.167120e+02
  -5.189855e+00  -2.072712e+02
   1.616273e+02  -1.764609e+02
   2.144822e+02  -8.327198e+01
   1.038327e+02   3.304342e+01
  -2.337080e+01   7.889484e+01
  -3.508950e+01   1.027880e+01
  -9.653327e+00  -6.987276e+01
   9.926878e+01  -3.445644e+01
   1.499883e+02   4.781771e+01
   1.805022e+01   1.244447e+02
  -1.375290e+01   1.308644e+02
  -8.577188e+01   3.331947e+01
  -2.236665e+01  -2.602325e+01
   5.203218e+01   2.593576e+01
   1.591990e+01   9.449406e+01
  -1.012698e+02   1.139418e+02
  -1.591833e+02  -1.833296e+00
  -1.465621e+02  -7.659415e+01
  -1.398586e+01  -1.609017e+02
   8.229316e+01  -1.199661e+02
   1.056672e+02  -3.291881e+01
   7.763628e+00   5.028110e+01
  -4.425622e+01   7.978835e+01
  -7.220466e+01   2.959890e+01
   3.373082e+01  -2.593201e+01
   2.949251e+01  -3.557231e+01
   3.455925e+00   3.929682e+01
  -7.053791e+01  -1.476843e+00
  -1.282712e+02  -7.451117e+01
   3.678824e+00  -1.538658e+02
   1.129673e+02  -1.105921e+02
   1.684936e+02  -2.483976e+00
   1.539133e+02   1.298729e+02
   7.064075e+01   2.076896e+02
  -5.447080e+01   1.039370e+02
  -1.127180e+02   5.070008e+00
  -8.399841e+01  -4.609096e+01
  -3.057146e+01  -3.859384e+01
  -1.551535e+01  -8.046600e+00
  -7.222907e+01   1.578476e+01
  -5.626790e+01  -2.273138e+01
   1.391093e+01  -9.128397e+01
   8.792796e+01  -7.246296e+01
   1.078940e+02   3.368105e+01
   1.756824e+01   1.150695e+02
  -1.395905e+02   6.805120e+01
  -1.530550e+02  -8.220254e+01
  -7.343647e+01  -1.461577e+02
   1.141624e+02  -1.821470e+02
   2.121349e+02  -7.990468e+01
   1.929661e+02   5.920212e+01
   5.205631e+01   1.148716e+02
  -3.026226e+01   1.169761e+02
  -8.176033e+01   6.554831e+01
  -4.468272e+01   8.680534e+01
  -4.912127e+01   9.649202e+01
  -4.684796e+01   6.023721e+01
  -1.059239e+02  -6.672411e+00
  -5.357334e+01  -9.273318e+01
  -3.737024e+01  -1.436991e+02
   1.099953e+02  -1.527720e+02
   1.475516e+02  -3.546403e+01
   1.328798e+02   6.215108e+01
   3.028233e+01   1.225144e+02
  -6.308475e+01   6.394854e+01
  -6.786609e+01  -1.649762e+01
   2.080313e+01  -3.866223e+01
   3.367570e+01  -5.580272e+01
  -3.334278e+01   1.084402e+01
  -7.732001e+01  -1.019993e+01
  -5.893145e+01  -2.430843e+01
   5.985026e+01  -5.709297e+01
   1.477827e+02   1.989616e+01
   1.238872e+02   4.167315e+01
   1.479848e+01   9.004508e+01
  -1.130684e+02   9.327386e+01
  -1.033941e+02  -1.175094e+01
  -3.469008e+01  -4.797445e+01
   3.601464e+01  -3.772209e+01
   6.257675e+01   7.506152e+00
   8.966446e+00   4.575724e+00
  -8.718960e+00   4.813761e+01
  -4.110520e+01  -1.573599e+01
  -5.271202e+01  -4.200618e+01
  -5.139582e+01  -1.940043e+01
  -2.313895e+01   2.939271e+01
  -4.030351e+01  -1.484704e+01
  -3.931021e+01  -6.033822e+01
   3.845905e+01  -1.354650e+02
   9.510916e+01  -1.247205e+02
   1.685950e+02  -4.567280e+01
   1.281037e+02   7.059346e+01
  -8.151690e+00   1.149218e+02
  -6.913341e+01   5.718010e+01
  -5.585608e+01   7.981898e+00
   4.601491e+01   1.468556e+01
   8.630871e+01   2.441043e+01
   4.225227e+01   9.172171e+01
  -6.176211e+01   7.571567e+01
  -1.380717e+02   2.083212e+01
  -1.140037e+02  -6.325809e+00
  -3.266058e+01  -6.724979e+01
   6.421604e+01  -3.328552e+01
   4.757107e+01   3.300546e+01
  -3.849759e+01   2.952187e+01
  -7.502526e+01  -1.275586e+01
  -5.433123e+01  -8.888619e+01
   4.796815e+01  -1.067469e+02
   9.911397e+01  -7.092454e+01
   1.174501e+02   7.961115e+01
   2.562624e+01   1.777256e+02
  -1.575123e+01   1.464739e+02
  -7.642538e+01  -1.689727e+01
  -4.203863e+01  -8.793202e+01
   1.093335e+01  -5.324958e+01
   5.646862e+01   6.534618e+00
   1.360002e+01   1.053458e+01
  -9.722452e+00  -4.873541e-01
  -1.229607e+01  -1.708806e+01
   3.882921e+01  -2.681180e+01
   5.255172e+01   4.626713e+01
   4.763618e+01   1.263159e+02
  -5.308493e+01   4.086776e+01
  -1.249581e+02  -3.510406e+01
  -1.163878e+02  -5.623229e+01
  -5.539713e+01  -4.527199e+01
   5.193243e+01  -3.343367e+01
   5.994973e+01   7.956716e+00
   8.936089e-01  -1.318998e+01
  -2.262757e+01   3.277865e+01
  -2.750498e+00  -1.879209e+01
   1.054258e+01   7.476796e+00
  -7.411261e+00  -9.565153e+00
  -6.312577e+01   4.351516e+01
  -6.931827e+01  -1.350734e+01
  -3.430446e+01  -6.578995e+01
   7.604572e+01  -1.096103e+02
   1.181254e+02  -6.916086e+01
   1.339462e+02   3.972562e+01
   4.265792e+01   1.337133e+02
  -4.219745e+01   1.269465e+02
  -8.877970e+01   7.382426e+01
  -5.749780e+01  -2.449642e+01
  -1.406285e+01  -2.823591e+01
  -5.489043e+00  -5.602028e+00
  -3.380991e+01   2.016567e+00
  -3.048875e+01  -3.078530e+01
  -1.980073e+01  -1.055558e+02
   1.969916e+01  -7.840181e+01
   4.628908e+01   2.222337e+01
   7.299583e+01   9.983845e+01
   1.043861e+01   7.105122e+01
  -7.371770e+01   2.703866e+01
  -1.114114e+02  -6.341275e+01
  -2.419853e+01  -5.794332e+01
   7.198680e+01  -6.163636e+01
   8.941609e+01  -1.656661e+01
   4.210603e+01   4.949673e+01
  -2.254376e+01   2.607248e+01
  -3.220333e+01   2.874188e+01
   1.921503e+01  -3.498563e+01
   3.855265e+01  -6.755718e+00
   1.100181e+01   2.452316e+01
  -7.413905e+01   7.159861e+01
  -1.173785e+02   6.636962e+01
  -7.420076e+01  -2.100345e+01
   5.638594e+00  -4.665076e+01
   6.868323e+01  -7.652390e+01
   5.339407e+01   7.422786e+00
   5.025498e+01   6.429536e+01
  -2.257878e+01   4.103710e+01
  -4.107678e+00   2.533216e+01
  -2.881708e+01  -3.431760e+01
  -3.803269e+00  -5.715461e+01
   5.631655e+01   7.147989e+00
   4.165192e+01   9.671652e-01
   1.104325e+01  -2.007467e+00
   1.186772e+01  -2.001840e+01
  -1.058285e+01  -3.271801e+01
   1.380412e+01   4.972402e+01
   2.158408e+01   6.334678e+01
  -2.553500e+01  -3.932019e+00
  -5.756777e+01  -3.221108e+01
  -1.569027e+01  -6.149310e+01
  -7.505868e+00  -1.581562e+01
   7.275849e+01   2.598194e-01
   3.655718e+01   1.339339e+01
  -3.425697e+01   2.567219e+01
  -7.773510e+01  -2.352962e+01
  -4.253153e+01  -1.390975e+01
   1.797748e+01  -2.418357e+01
   3.794658e+01  -2.437930e+01
   4.431690e+01  -1.401190e+01
  -1.257779e+01   1.776975e+01
  -2.583577e+01   1.186009e+00
   8.668665e+00  -1.915354e+01
   6.433418e+01  -3.022863e+01
