
 $NMID
 id='ANONYMOUS ', fmtdat='(2E16.6)'
 volume=1.0
 tramp=1.0
 $END
  -2.044367e+03  -1.221802e+02
  -1.788762e+03  -1.163035e+03
  -4.611922e+02  -1.355701e+03
   7.081878e+02  -1.170321e+03
   8.177649e+02  -3.339769e+02
   2.476340e+02  -1.682720e+01
  -5.084312e+01   4.203772e+01
  -9.117971e+00  -1.405833e+02
   1.994141e+02  -3.607741e+02
   3.012624e+02  -8.946752e+01
   2.455620e+02   3.587389e+02
   2.660468e+01   3.685647e+02
  -9.433069e+01   1.220631e+02
  -9.261882e+01  -2.520763e+02
   7.246599e+01  -3.575448e+02
   1.759561e+02  -5.749947e+01
   1.970432e+02   2.513289e+02
  -5.055588e+01   4.314052e+02
  -2.642670e+02   2.342553e+02
  -2.645098e+02  -2.884742e+01
  -1.300003e+02  -2.245434e+02
   1.717528e+01  -1.706484e+02
   2.741520e+01  -7.856685e+01
  -1.511638e+02  -1.372091e+02
  -1.358903e+02  -2.446229e+02
   9.477005e+01  -1.741256e+02
   3.626960e+02  -1.805309e+01
   4.038467e+02   1.586091e+02
   1.176244e+02   1.745936e+02
  -1.619001e+02   1.529823e+01
  -2.641284e+02  -1.086287e+02
  -9.697315e+01  -1.986260e+02
   1.589012e+02  -1.792038e+02
   2.446921e+02  -1.047062e+02
   2.267579e+02   6.810388e+01
   7.221653e+01   1.472679e+02
   7.394946e+01   1.480750e+02
   4.527363e+01   7.460590e+00
   1.056266e+02  -7.659728e+01
   3.928916e+01   1.130723e+02
  -9.710039e+00   2.688861e+02
  -1.489925e+02   2.352365e+02
  -8.883826e+01  -5.397872e+00
  -5.217934e+01  -1.261494e+02
   4.697771e+01  -1.469986e+01
   3.624989e+01   1.487496e+02
  -9.325047e+01   1.790156e+02
  -2.568944e+02   2.698462e+01
  -2.551237e+02  -2.507320e+02
  -6.535502e+01  -3.580519e+02
   1.900728e+02  -1.068936e+02
   3.322725e+02   3.822055e+01
   1.716508e+02   1.210342e+02
  -3.483520e+01   1.372098e+02
  -1.587064e+02   5.246794e+01
  -1.884182e+02   2.320838e+01
  -5.757059e+01   8.320470e+00
  -5.448845e+00   1.181103e+01
  -6.127720e+01  -9.436416e+00
  -1.638662e+02  -2.428288e+01
  -1.032189e+02  -1.204769e+02
   1.195966e+02  -1.442291e+02
   2.275401e+02  -1.102765e+02
   1.528872e+02   1.054569e+02
  -3.146305e+01   2.364078e+02
  -1.896276e+02   2.362811e+02
  -2.860535e+02   1.081729e+02
  -1.023560e+02  -9.152615e+01
  -1.405853e+01  -2.479290e+02
  -2.213300e+00  -2.561978e+02
   8.662745e+00  -1.308403e+02
   2.758999e+01  -1.083556e+02
   1.244420e+02  -8.867253e+01
   2.009858e+02   4.292282e+01
   1.325117e+02   1.275792e+02
   3.077428e+01   1.777954e+02
  -1.243189e+02   9.408917e+01
  -9.277635e+01  -5.898336e+01
  -6.752013e+01  -1.597161e+02
   1.205836e+01  -1.700212e+02
   1.637068e+02  -2.731879e+01
   1.834320e+02   1.356810e+02
   1.236516e+02   2.109586e+02
  -2.256719e+01   1.468448e+02
  -1.118696e+02   1.291534e+02
  -1.219274e+02   7.985195e+01
  -1.428959e+02   3.377557e+01
  -2.079764e+02  -3.072947e+00
  -3.049203e+02  -9.061119e+01
  -2.043704e+02  -1.943621e+02
   4.631949e+00  -3.038571e+02
   2.682126e+02  -2.558884e+02
   3.389015e+02  -1.336459e+02
   1.954235e+02   9.513983e+01
  -3.800719e+00   1.698455e+02
  -7.611625e+01   1.182482e+02
   1.479142e+01   1.547826e+01
   1.278657e+02  -5.795419e+00
   5.178898e+01   2.454010e+01
  -9.340917e+00   9.349597e+01
  -1.044192e+02   7.356551e+01
  -4.757269e+01  -3.401729e+01
   4.184396e+01  -4.736114e+01
   1.230019e+02   6.297907e+00
   3.700493e+01   1.708531e+02
  -4.685856e+01   2.096444e+02
  -1.889155e+02   1.229585e+02
  -2.344158e+02  -7.650226e+01
  -2.175993e+02  -2.273295e+02
  -5.275593e+01  -2.064556e+02
   1.015452e+02  -9.946415e+01
   1.192259e+02  -2.263237e+01
   3.106630e+01  -8.354568e+00
  -1.955842e+01  -3.471318e+01
   2.004247e+01  -4.863091e+01
   1.077433e+02  -3.770391e+01
   9.336338e+01   3.709706e+01
   1.282740e+01   3.022847e+01
  -5.594611e+01  -3.977000e+01
  -1.207018e+01  -6.720357e+01
   1.435704e+02  -2.415584e+01
   2.061955e+02   3.324430e+01
   1.795307e+02   1.286811e+02
   1.929915e+01   1.880916e+02
  -1.410271e+02   1.423212e+02
  -1.672784e+02   4.012094e+01
  -8.868851e+01  -2.268343e+00
   2.448021e+01  -2.636991e+01
   3.339588e+01  -2.093620e+01
  -2.459107e+01   3.971923e+01
  -1.134601e+02   2.843343e+01
  -1.475072e+02  -4.664034e+01
  -1.551346e+01  -1.033794e+02
   5.107804e+01  -8.719541e+01
   9.274673e+01  -1.935062e+01
   2.875862e+01   2.496341e+00
  -3.510727e+01  -6.594122e+00
  -2.512771e+01  -6.060150e+01
   6.676219e+01  -9.496368e+01
   1.689913e+02  -5.185077e+00
   1.315593e+02   1.122530e+02
  -5.060187e+00   1.452029e+02
  -1.046900e+02   1.298797e+02
  -1.015148e+02   2.335504e+00
  -2.528246e+01  -5.246910e+01
   5.285876e+01  -9.326819e+01
   5.675595e+01  -6.331080e+00
  -7.488956e+00   3.160063e+01
  -2.535495e+01  -1.224721e+01
   1.125350e+01   1.459282e+01
   5.942012e+01  -9.616447e+00
   6.873599e+01   8.664433e+01
  -3.276862e+01   1.201384e+02
  -1.067810e+02   8.692174e+01
  -1.556431e+02  -5.341815e+01
  -1.105652e+02  -1.287134e+02
   2.094066e+00  -1.615899e+02
   6.154522e+01  -8.458451e+01
   6.692408e+01  -1.962662e+01
   7.261891e+01   1.994386e+01
   2.359811e+01   1.512491e+01
   4.452902e+01   1.289839e+00
   4.893059e+01  -6.294598e+00
   1.550669e+01   4.787776e+01
  -6.516974e+01   6.481343e+01
  -8.114121e+01   3.378594e+01
  -8.714777e+01  -4.900536e+01
   3.237265e+01  -1.163071e+02
   1.064413e+02  -6.647622e+01
   1.309654e+02   9.776853e+01
   5.005346e+01   2.064397e+02
  -1.292174e+02   1.222488e+02
  -1.679184e+02   5.932490e+01
  -1.810786e+02  -9.477754e+01
  -8.684146e+01  -9.977738e+01
   3.099672e+01  -1.182309e+02
   8.380744e+01  -1.469971e+01
   4.144757e+01  -4.147543e+01
   5.121531e+01  -7.833702e+01
   4.404398e+01  -6.040128e+01
   5.758294e+01   2.058214e+01
   5.331576e+01   1.261575e+02
  -2.008506e+01   1.320109e+02
  -6.615168e+01   1.196777e+02
  -1.390408e+02  -3.376811e+00
  -3.980284e+01  -8.220436e+01
   3.299969e+01  -9.729851e+01
   3.842703e+01  -7.876004e+01
   3.987514e+01   1.945686e+01
   5.624151e+00   4.812586e+01
   2.882626e+00   1.771585e+01
   5.983485e+01   4.354223e+00
   5.587991e+01   1.007657e+01
   1.715174e+01   1.153069e+00
  -5.837760e+01   2.243511e+01
  -1.093930e+02  -5.056874e+01
  -9.856183e+01  -5.470254e+01
  -8.569450e+00  -6.035682e+01
   1.014710e+02  -3.633267e+01
   1.008631e+02   2.628653e+01
  -7.031800e+00   1.963274e+01
  -3.588046e+01   8.993041e+00
  -6.575918e+01  -1.101393e+01
   1.313182e+01  -3.891207e+01
   1.098482e+01  -1.938109e+01
   3.325134e+01   2.230869e+01
   2.204214e+01   5.836598e+00
   4.980571e+01   2.775802e+01
   3.708810e+01   4.782833e+00
   3.172067e+01   1.903533e+01
   3.055236e+01   3.550958e+01
  -2.827590e+01   1.071498e+02
  -7.434287e+01   1.165110e+02
  -1.000492e+02  -3.829528e+00
  -8.974585e+01  -8.682667e+01
   1.605192e+01  -8.942307e+01
   8.118087e+01  -4.820015e+01
   3.553444e+01   7.380958e+00
  -1.307813e+01   4.499746e+00
  -1.028761e+02  -6.565927e+01
  -2.029905e+01  -6.998918e+01
   7.947612e+01  -7.925427e+01
   1.186804e+02  -1.521661e-01
   9.694093e+01   2.084345e+01
   2.818665e+01   5.967706e+01
  -3.850154e+01   2.371853e+01
  -4.045957e+00  -1.312673e+01
   2.402496e+01  -3.136951e+01
   5.291606e+01   3.390672e+01
   3.709998e+00   8.792870e+01
  -6.328425e+01   7.001141e+01
  -8.050604e+01   2.747444e+01
  -6.309865e+01  -7.137846e+01
  -8.651442e+00  -1.416308e+02
   6.023596e+01  -5.140169e+01
   4.365546e+01   2.225090e+01
   5.714679e+01   7.158460e+01
   8.411353e+00   4.179936e+01
  -5.645797e+01   2.196039e+01
  -3.942784e+01  -1.177318e+01
  -3.737571e+01   2.794663e+00
  -4.818475e+00   9.277204e-01
  -1.216017e+01  -4.056170e+01
  -4.224589e+01  -7.474296e+01
  -5.118968e+01  -8.087129e+01
   5.388472e+01  -7.539334e+00
   8.915865e+01   6.113076e+01
   8.293192e+01   7.381271e+01
  -2.777493e+00   3.265783e+01
  -4.368427e+01  -3.557047e+01
  -9.494631e+00   9.583612e+00
  -6.513426e+00   4.304011e+01
   2.539608e+00  -3.372963e+01
  -4.386510e+00   1.523630e+01
  -9.732902e+00  -1.866439e+01
  -3.221157e+00   7.656656e+00
   4.165150e+01  -1.229332e+01
   6.299711e+01   5.221405e+01
   1.107621e+01   5.253433e+01
  -4.100374e+01   8.360937e+01
  -1.151709e+02   9.427870e+01
  -1.071709e+02  -4.750313e+01
  -1.627280e+00  -1.428209e+02
   7.414979e+01  -9.619423e+01
   5.179724e+01  -7.914987e+01
   3.034363e+01   4.034898e+00
   5.914614e+01   3.375240e+01
   2.345528e+01   3.543938e+00
   9.768259e+00   3.884468e-01
  -1.954159e+00   4.186084e+01
   3.008215e+01   8.244800e+01
   3.357552e+00   7.538742e+01
  -3.527265e+01   1.427342e+01
  -5.328453e+01  -6.408760e+01
  -3.853754e+01  -1.028796e+02
   4.497469e+01  -5.467957e+01
   6.341796e+01   4.603725e+01
   3.692430e+01   6.245965e+01
  -4.059982e+01   3.877281e+01
  -6.326147e+01   1.806508e+01
  -4.881869e+01  -4.758535e+01
   2.686742e+01  -5.390972e+01
   2.555438e+01  -1.695727e+01
  -1.110491e+01   1.470586e+01
  -3.928645e+01   9.285079e+00
  -2.572356e+01   1.251508e+00
   5.281844e+01  -1.341549e+01
   3.463609e+01  -9.293369e+00
   4.691753e+01  -6.745813e+00
   3.778310e+00   6.488934e+01
  -3.241251e+01   6.088251e+01
  -2.791149e+01   6.882986e+00
  -2.116806e+01  -1.910294e+01
   3.432098e+01  -4.555089e+01
   1.847918e+01   1.490936e+01
   1.451287e+01   3.368534e+01
  -4.659641e+00   2.726886e+01
  -3.876178e+01  -8.000486e+00
  -4.554564e+01  -4.121329e+01
  -2.866656e+01  -3.577621e+01
  -1.138020e+01   9.928309e+00
   3.793929e+01   2.928190e+01
   1.792803e+01  -4.611407e+01
  -1.283086e+01  -1.630153e+01
   7.288744e+00  -2.035506e+01
   2.473447e+01   3.538908e+01
  -1.661531e+01   6.501972e+01
  -2.995273e+01   3.243798e+01
  -4.518983e+01   7.260987e+00
  -3.745002e+01  -7.724247e+00
   4.582988e+01  -4.407842e+01
   9.527545e+01   6.382862e-01
   5.503264e+01   2.250692e+01
  -3.242135e+01   3.425105e+01
  -3.239063e+01   4.878732e+01
  -2.801649e+01   4.087163e+00
   2.082474e-01  -8.870218e+00
   1.467412e+01  -2.170950e+01
  -2.592520e+01   1.880439e+01
  -6.806857e+01   1.188441e+01
