
 $NMID
 id='ANONYMOUS ', fmtdat='(2E16.6)'
 volume=1.0
 tramp=1.0
 $END
  -2.164426e+03   3.371532e+02
  -1.741491e+03  -8.131982e+02
  -1.786611e+02  -1.047449e+03
   5.906142e+02  -8.270024e+02
   5.990996e+02  -2.896194e+02
   1.375338e+02   1.506059e+02
  -2.255593e+02   1.326798e+01
  -5.996450e+01  -3.773667e+02
   2.594164e+02  -4.484179e+02
   4.650853e+02  -1.373168e+02
   3.235737e+02   2.652465e+02
   7.834118e+01   4.405554e+02
  -1.311984e+02   1.724039e+02
  -2.558277e+02  -1.956298e+02
   2.244168e+01  -3.146442e+02
   2.425539e+02  -9.752109e+01
   2.657145e+02   3.806719e+02
  -1.355141e+01   4.599930e+02
  -3.038850e+02   2.591677e+02
  -3.716696e+02  -9.524384e+01
  -1.327119e+02  -2.941115e+02
   9.926915e+01  -1.721213e+02
   4.236116e+01  -7.613820e+01
  -1.418838e+02  -9.516806e+01
  -1.905183e+02  -1.839894e+02
   1.827836e+01  -2.232185e+02
   3.150207e+02  -6.297477e+01
   4.069013e+02   7.247709e+01
   1.213803e+02   1.534717e+02
  -2.079220e+02   1.222718e+02
  -3.633920e+02  -5.656408e+01
  -1.299201e+02  -1.835441e+02
   1.490880e+02  -1.886229e+02
   2.723129e+02  -8.603316e+01
   2.164469e+02   9.019414e+01
   8.041017e+01   1.792254e+02
   1.549248e+01   8.764825e+01
   5.283939e+01  -6.639280e+01
   9.226372e+01  -6.075606e+01
   7.359521e+01   1.090458e+02
  -3.883525e+01   2.989527e+02
  -1.250506e+02   2.099719e+02
  -1.474228e+02   2.152836e+01
  -1.135944e+02  -1.378554e+02
   8.904402e+01  -7.567973e+01
   1.620138e+02   1.529742e+02
  -1.238726e+01   2.551541e+02
  -2.932525e+02   1.179624e+02
  -3.557013e+02  -2.060590e+02
  -1.303110e+02  -3.010357e+02
   1.920414e+02  -2.349404e+02
   3.733240e+02  -8.498374e-01
   2.295370e+02   7.180825e+01
   6.065889e+01   1.551793e+02
  -1.839019e+02   1.040282e+02
  -1.627529e+02   4.626979e+01
  -2.861507e+01   3.500360e+01
  -2.370611e+00  -8.827440e-01
  -2.618846e+01   2.755121e+00
  -1.385314e+02   9.015439e+00
  -1.216500e+02  -5.405412e+01
   7.638130e+01  -2.095744e+02
   2.619289e+02  -1.348086e+02
   2.392692e+02   7.811794e+01
   2.579263e+01   2.626959e+02
  -1.708300e+02   2.779704e+02
  -2.321812e+02   1.535898e+02
  -1.933896e+02  -1.168944e+02
  -6.938952e+01  -2.022161e+02
  -2.194587e+01  -2.047417e+02
  -1.236378e+01  -1.444819e+02
   2.240599e+01  -1.050657e+02
   1.674757e+02  -9.572804e+01
   2.175419e+02  -4.681224e+01
   2.010935e+02   8.559467e+01
   4.622203e+01   1.858227e+02
  -8.361480e+01   1.452366e+02
  -1.539084e+02  -3.427936e+01
  -1.053336e+02  -1.780985e+02
   3.754564e+01  -1.962379e+02
   1.641788e+02  -7.745249e+01
   2.153973e+02   2.893495e+01
   1.353912e+02   1.357843e+02
  -3.363835e+01   1.226174e+02
  -1.152266e+02   1.399929e+02
  -9.004927e+01   8.173417e+01
  -1.113416e+02   1.037348e+02
  -2.384345e+02   5.607185e+01
  -3.992246e+02  -6.935218e+01
  -2.344926e+02  -2.297633e+02
  -2.850209e+01  -3.629623e+02
   3.351138e+02  -2.903835e+02
   3.569787e+02  -1.223609e+02
   2.044449e+02   6.379919e+01
   4.151457e+01   1.702657e+02
  -2.447798e+01   1.172595e+02
  -2.589225e+01   2.734189e+01
   8.924004e+01  -1.532816e+01
   3.447217e+01   3.381758e+01
   1.938482e+01   7.928773e+01
  -3.082754e+01   7.889051e+01
  -8.953153e+01  -4.309507e+01
   1.573359e+01  -8.231311e+01
   1.319420e+02  -7.224733e+00
   1.123682e+02   1.491726e+02
  -1.738489e+01   2.237037e+02
  -1.509530e+02   1.336818e+02
  -2.838959e+02  -5.560200e+01
  -2.144919e+02  -1.503064e+02
  -4.038917e+01  -1.899195e+02
   9.285131e+01  -9.644880e+01
   9.644294e+01  -2.488373e+01
   2.701642e+01   2.453210e+01
  -4.469359e+01  -2.050313e+01
  -1.931880e+01  -8.694079e+01
   1.029474e+02  -6.477767e+01
   1.050907e+02  -4.237373e+01
   2.133558e+01   4.262084e+01
  -6.424672e+01   1.666640e+01
  -8.677561e+00  -5.532822e+01
   9.772351e+01  -6.202951e+01
   1.827724e+02   1.004275e+00
   1.586296e+02   1.356642e+02
  -1.274035e+01   1.981521e+02
  -1.716388e+02   1.782059e+02
  -1.304368e+02   7.931811e+01
  -8.238064e+01  -1.499230e+01
   4.125284e+01  -5.045843e+01
   3.799624e+01   1.100836e+00
  -6.144480e+01   5.772835e+01
  -1.010679e+02   1.041043e+01
  -1.109726e+02  -5.226657e+01
  -5.338495e+01  -1.183403e+02
   2.815388e+01  -9.931043e+01
   8.491198e+01  -2.047319e+01
   2.293381e+01   2.589120e+01
  -4.896784e+01  -3.284850e+01
  -1.257381e+01  -1.172446e+02
   8.150869e+01  -6.918576e+01
   1.402609e+02  -3.062298e+01
   1.347171e+02   1.173570e+02
   8.440913e+00   1.446042e+02
  -8.541429e+01   1.102596e+02
  -1.168691e+02   4.179899e+01
  -5.528982e+01  -3.775039e+01
   6.118363e+00  -7.748301e+01
   3.710444e+01  -1.720435e+00
   7.605836e-01   1.380291e+01
  -7.863916e+00  -1.114724e+01
  -4.450077e+00  -9.095795e+00
   6.721660e+01  -3.710139e+01
   9.654963e+01   6.203073e+01
   3.100634e+01   1.626770e+02
  -1.093293e+02   1.229357e+02
  -1.653187e+02   2.816812e+00
  -1.427403e+02  -1.441819e+02
  -3.659249e+01  -1.467980e+02
   6.968112e+01  -1.151947e+02
   9.710763e+01  -4.118689e+00
   4.520879e+01   2.513335e+01
   1.940024e+01   3.425291e+01
   4.529570e+01  -1.025363e+01
   4.721541e+01   2.131202e+01
   7.395787e+01   4.289852e+01
  -2.476329e+01   9.314316e+01
  -1.139803e+02   8.137887e+01
  -1.256260e+02  -4.451163e+01
   2.036351e+01  -8.650789e+01
   9.040568e+01  -6.897786e+01
   1.658775e+02   3.138434e+00
   5.431628e+01   1.416216e+02
  -5.983918e+01   1.420219e+02
  -1.787159e+02   9.175968e+01
  -1.822093e+02  -2.108818e+01
  -3.095169e+01  -9.963632e+01
  -3.348667e+00  -8.447235e+01
   4.004443e+01  -4.380302e+01
   5.079928e+01  -5.285982e+01
  -2.578684e+00  -9.225037e+01
   4.059654e+01  -5.848122e+01
   1.044878e+02  -6.902460e+00
   1.013497e+02   9.644842e+01
   4.985098e+01   1.732050e+02
  -7.556360e+01   9.865756e+01
  -1.353713e+02   1.789699e+01
  -8.064970e+01  -8.961823e+01
   2.037798e+01  -1.357481e+02
   5.551643e+01  -6.076087e+01
   3.372110e+01   2.601207e+01
  -8.637412e+00   6.245697e+01
  -2.933119e+01   1.281429e+01
  -1.196333e+01  -8.315497e+00
   8.328065e+01   3.485087e+00
   2.199542e+01   4.510073e+01
  -5.988234e+01   1.713349e+01
  -1.075708e+02   1.740128e+01
  -8.590309e+01  -8.235417e+01
   2.644789e+00  -7.203608e+01
   8.724657e+01  -6.719130e+01
   1.082446e+02  -3.824174e+00
   3.895046e+01   4.184850e+01
  -3.950345e+01   3.826821e+01
  -7.636182e+01  -3.309381e+01
  -2.546070e+01  -5.730434e+01
   2.715236e+01  -4.073316e+01
   4.835238e+01   3.056813e+01
   5.576969e+01  -5.350813e+00
   1.023579e+01   1.115632e+01
   4.646449e+01  -6.017453e+00
   5.116793e+01   2.233356e+00
  -7.847966e-01   3.726349e+01
   8.654153e-01   8.877269e+01
  -1.086083e+02   1.120876e+02
  -1.176308e+02   2.077291e+01
  -1.302877e+02  -7.859453e+01
   5.289383e-01  -1.008695e+02
   6.572497e+01  -7.823367e+01
   4.649676e+01  -2.381192e+01
  -4.750502e+01   6.515989e+01
  -1.069334e+02  -1.882079e+01
  -6.506301e+01  -4.451242e+01
   5.610011e+01  -1.158830e+02
   1.346273e+02  -5.761349e+01
   9.649338e+01   2.709075e+01
   3.448368e+01   6.168320e+01
  -3.074277e+01   4.732285e+00
  -3.994328e+01   2.910196e+00
   1.065556e+01  -2.917634e+01
   7.157096e+01   2.784824e+01
   3.600576e+01   1.123630e+02
  -3.149650e+01   9.549934e+01
  -8.989841e+01   4.681372e+01
  -9.073075e+01  -5.991220e+01
  -2.737688e+01  -1.338796e+02
   5.670630e+01  -1.015688e+02
   3.540327e+01  -1.012087e+01
   3.347497e+01   8.834480e+01
  -2.004409e+01   8.679358e+01
  -4.106797e+01   1.773288e+01
  -3.287194e+01  -1.899524e+01
  -1.309096e+01   6.770147e+00
   2.195614e+01   1.405270e+01
  -5.280142e+01  -3.189394e+01
  -4.826129e+01  -6.963559e+01
  -4.820704e+00  -4.313316e+01
   2.841129e+01  -2.467182e+01
   1.083769e+02   2.879197e+01
   7.736178e+01   3.032712e+01
   2.679592e+01   2.525389e+01
  -5.721627e+01   3.305150e+01
  -4.503384e+01  -4.848258e-01
   1.053676e+01  -1.640051e+01
   3.820650e+01  -3.642186e+01
  -1.441617e+01   1.430166e+01
  -2.939027e+01   3.442986e+00
  -2.148267e+01   8.067126e+00
   2.453409e+01  -1.076330e+01
   7.097280e+01  -5.216352e+00
   6.170892e+00   6.850282e+01
  -6.268630e+01   1.128446e+02
  -1.291004e+02   6.949616e+01
  -1.200220e+02  -3.797999e+01
  -5.590244e+01  -1.142950e+02
   2.967970e+01  -1.342970e+02
   8.533286e+01  -6.842633e+01
   3.641602e+01   5.393927e+00
   2.406590e+01   4.485682e+01
  -1.877998e+01   1.285250e+01
   9.049475e+00   2.167372e+01
   5.854533e+01   6.889334e+00
   1.864164e+01   4.558804e+01
  -1.345826e+01   5.635336e+01
  -6.061592e+01  -5.126926e+00
  -5.988829e+01  -5.390624e+01
  -3.399728e+01  -7.637813e+01
   4.058452e+01  -3.187328e+01
   1.013214e+02   4.093506e+01
   5.461672e+01   6.255339e+01
  -5.519579e+01   5.440090e+01
  -5.914608e+01  -6.717232e+00
  -4.724453e+01  -3.001203e+01
   2.701157e+01  -5.494074e+01
   2.804011e+01  -1.551769e+01
  -3.672195e+01  -9.146093e+00
  -3.921993e+01   1.570506e+01
  -1.965581e+01  -4.025403e+01
   3.858934e+01  -5.907895e+01
   1.015661e+02  -5.470724e+01
   4.730401e+01   1.088036e+01
   4.703264e+00   5.011951e+01
  -3.185850e+01   7.309513e+01
  -4.422417e+01   1.875929e+01
  -7.138093e+00  -3.519733e+01
   6.123770e+00  -3.017655e+01
   3.416281e+01   1.138838e+01
   1.972258e+01   2.887295e+01
  -8.622998e+00   9.786210e+00
  -4.180400e+01  -8.152228e+00
  -2.508582e+01  -1.403656e+01
   9.116342e-01  -1.556817e+01
  -1.569050e+01   2.327558e+00
  -2.171577e+01  -9.354944e+00
   1.114474e+01  -3.564953e+01
  -3.262309e+00  -4.796808e+01
   1.167174e+01  -5.376363e+01
   5.669940e+01   2.924725e+01
   3.719278e+01   6.779929e+01
  -2.289331e+01   3.766042e+01
  -3.416069e+01  -1.320940e+01
  -1.116851e+01  -2.334645e+01
   3.638442e+01  -1.736468e+01
   4.570698e+01   2.858691e+01
   1.311128e+01   5.023293e+01
  -3.548869e+01   3.318748e+01
  -6.330823e+01   2.457291e+01
  -4.379647e+01  -9.344108e+00
   2.312053e+01   1.372815e+00
   4.281843e+01  -1.830903e+01
  -2.376688e+01   4.880692e+00
  -4.065452e+01   8.490198e+00
