
 $NMID
 id='ANONYMOUS ', fmtdat='(2E16.6)'
 volume=1.0
 tramp=1.0
 $END
   1.635870e+03  -4.916574e+02
   1.264586e+03   2.471218e+02
   4.083643e+02   8.862196e+02
  -4.560144e+02   1.087953e+03
  -5.639516e+02   3.334456e+02
  -2.473167e+02  -7.469742e+01
   1.037283e+02  -8.614754e+01
   1.936775e+02   2.428861e+02
  -4.857009e+01   3.646569e+02
  -3.016811e+02   2.086295e+02
  -3.665130e+02  -1.874505e+02
  -1.328341e+02  -3.493361e+02
   1.631550e+02  -1.485189e+02
   1.916404e+02   1.492840e+02
  -6.899586e+00   2.941998e+02
  -2.289067e+02   1.004828e+02
  -2.129850e+02  -2.124206e+02
   4.708830e+01  -3.438594e+02
   2.784664e+02  -2.060346e+02
   2.783589e+02   9.396064e+01
   9.945509e+01   1.774154e+02
  -4.048282e+01   1.346444e+02
   7.641185e+00   6.355754e+01
   1.121647e+02   5.432591e+01
   1.295798e+02   1.297237e+02
  -1.117111e+01   1.700133e+02
  -2.077212e+02   6.328032e+01
  -2.161504e+02  -5.998611e+01
  -1.457137e+02  -8.358862e+01
   1.059440e+02  -7.807389e+01
   2.005696e+02   2.702690e+01
   6.493941e+01   1.814466e+02
  -1.185608e+02   1.701810e+02
  -2.193682e+02   4.409136e+01
  -1.800697e+02  -7.109199e+01
  -7.820160e+01  -1.185432e+02
  -5.164854e+01  -8.175807e+01
  -8.595769e+01   4.204575e+01
  -5.478721e+01   7.613530e+01
  -6.505431e+01  -5.297271e+01
  -1.285488e+00  -1.308316e+02
   1.615642e+01  -1.888474e+02
   8.582764e+01  -4.961097e+01
   7.740356e+01   1.035280e+02
  -3.440771e+01   4.382250e+01
  -1.171911e+02  -1.014577e+02
  -1.839711e+01  -1.400297e+02
   1.938793e+02  -6.917792e+01
   2.618252e+02   1.225653e+02
   1.585879e+02   2.204822e+02
  -1.500765e+02   1.653152e+02
  -3.433134e+02  -1.400241e+00
  -1.707336e+02  -1.023425e+02
  -2.930150e+01  -1.128499e+02
   9.055580e+01  -1.231543e+02
   1.032323e+02  -6.313566e+01
   2.569389e+01  -4.099337e+00
  -3.656771e+01   1.980348e+01
   1.184631e+01  -2.436984e+01
   1.035014e+02  -1.831597e+01
   9.387431e+01   9.789370e+01
  -5.687775e+01   1.654296e+02
  -2.158849e+02   1.387463e+02
  -1.737001e+02  -1.021307e+02
   1.014797e+01  -2.286705e+02
   1.579229e+02  -2.045340e+02
   2.216984e+02  -1.089819e+02
   1.751064e+02   8.353806e+01
   2.841136e+01   1.565739e+02
   8.898969e-01   1.243391e+02
  -2.483439e+01   9.322724e+01
  -1.193267e+01   8.822671e+01
  -1.007624e+02   1.071058e+02
  -1.265417e+02   1.052340e+01
  -1.518805e+02  -4.537586e+01
  -3.084537e+01  -1.463453e+02
   8.324711e+01  -1.021769e+02
   1.301595e+02  -9.418822e+00
   8.451772e+01   1.415524e+02
  -2.709634e+01   1.482231e+02
  -1.558658e+02   1.003293e+01
  -1.841398e+02  -7.046410e+01
  -1.276775e+02  -1.427719e+02
   1.542595e+01  -1.454558e+02
   6.029449e+01  -7.370300e+01
   3.006848e+01  -6.541476e+01
   1.042576e+02  -4.459276e+01
   1.518139e+02  -5.321073e+01
   2.435631e+02   6.881643e+01
   1.498950e+02   1.730596e+02
   3.921613e+01   2.738661e+02
  -1.765972e+02   2.675463e+02
  -3.132971e+02   1.022715e+02
  -1.054063e+02  -8.356821e+01
   4.806143e+00  -1.408428e+02
   2.260840e+01  -8.756071e+01
  -1.982659e+01  -5.320779e+00
  -6.481912e+01   3.677871e+01
  -6.717278e+01  -1.295914e+01
  -2.014391e+01  -6.960179e+01
   3.276371e+01  -4.077491e+01
   2.916546e+01  -9.742467e+00
  -5.033492e+00   7.110081e+01
  -1.051624e+02   1.904374e+01
  -1.384264e+02  -1.064123e+02
  -1.718581e+01  -1.933225e+02
   1.362229e+02  -1.432850e+02
   1.675116e+02   1.179470e+01
   1.650296e+02   1.673739e+02
   1.900929e+01   1.405688e+02
  -9.561567e+01   7.626630e+01
  -6.496234e+01   3.769756e+00
  -2.310001e+01   2.673830e+01
   6.726567e+01   4.505572e+01
  -2.630251e+01   6.868986e+01
  -8.465719e+01   4.293697e+01
  -5.443397e+01  -8.690839e+00
   9.341512e-01  -5.051028e+01
   5.661291e+01  -1.145770e+01
   9.914755e+00   7.707515e+01
  -7.864528e+01   5.772158e+01
  -1.947973e+02  -2.479318e+01
  -2.039698e+02  -9.174859e+01
  -1.939737e+01  -2.026557e+02
   9.191545e+01  -1.245420e+02
   1.064668e+02  -7.708400e+01
   6.755845e+01   3.706391e+01
  -5.170988e-01   3.653790e+01
  -1.452552e+01  -1.520765e+01
   6.179067e+01  -1.920069e+01
   8.983939e+01  -1.704182e+01
   8.044599e+01   1.360972e+01
   4.352828e+01   8.803950e+01
  -5.584788e+01   5.242240e+01
  -4.833037e+01  -2.778108e+00
  -1.849610e+00  -9.264282e+00
   1.723827e+01   3.749052e+01
   1.376989e+01   5.450004e+01
  -3.786870e+01   8.694715e+01
  -1.033659e+02   3.124245e+01
  -1.232001e+02  -8.020814e+01
  -5.031887e+01  -1.157590e+02
   6.094791e+01  -7.996456e+01
   1.256124e+02  -1.050359e+01
   5.783137e+01   1.079413e+01
  -9.141580e+00   5.697554e+01
  -2.139288e+01   1.283047e+01
   1.146189e+01  -6.524553e+00
   9.306913e+00  -1.183479e+01
   1.667118e+01  -5.984397e+00
  -5.695776e+01   2.573552e+01
  -6.262129e+01  -5.282975e+01
  -1.541035e+01  -1.122052e+02
   5.637650e+01  -1.222952e+02
   1.570321e+02  -2.920625e+01
   1.038426e+02   6.852385e+01
   1.194631e+00   1.221975e+02
  -6.184690e+01   6.079497e+01
  -7.583333e+01   1.007422e+01
  -4.329805e+01  -2.763911e+01
  -1.163769e+01  -3.743321e+01
  -3.691201e+01  -1.061177e+00
  -4.170283e+01   2.427992e+01
  -1.426776e+01  -2.344628e+01
   3.212502e+01  -8.493402e+01
   4.829819e+01  -9.416232e+00
   8.334030e+01   2.529780e+01
  -3.419146e+01   8.233558e+01
  -6.511204e+01   6.686948e+01
  -1.209853e+02  -4.728433e+01
  -5.356405e+01  -1.198167e+02
   3.646710e+01  -1.011378e+02
   1.344708e+02  -8.162111e+01
   1.633300e+02   2.372737e+01
   3.305698e+01   1.053933e+02
  -3.812995e+01   7.994072e+01
  -4.895758e+01   3.547509e+01
  -4.720789e+01   4.048793e+01
  -1.298228e+01   4.862120e+01
  -4.082663e+01   4.198992e+01
  -7.750653e+01   3.451604e+01
  -9.893389e+01  -7.443067e+01
  -4.896568e+01  -1.280393e+02
   3.473080e+01  -6.732249e+01
   6.824909e+01  -4.268063e+01
   5.063231e+01   5.053454e+01
   1.305901e+01   1.000665e+02
  -5.592098e+01   2.129315e+01
  -1.468980e+01  -2.036723e+01
   4.250400e+01  -2.960104e+01
   3.456026e+01  -3.931520e+00
  -9.057066e-01   2.187146e+01
  -8.067592e+01   1.798872e+01
  -4.239209e+01  -1.929245e+01
   5.249625e+01  -2.942329e+01
   1.020085e+02  -4.347854e+01
   5.034677e+01   4.153004e+01
  -3.265089e+00   4.807343e+01
  -4.152204e+01   3.606758e+00
  -7.714928e+01  -6.723769e+00
   6.734601e+00  -5.612609e+01
   2.714304e+01  -2.028256e+01
   5.845106e+01  -1.497336e+00
   2.270486e+01   5.115272e+01
   1.071934e+01   5.912352e+01
  -7.620801e+01   1.842779e+01
  -5.047714e-01  -3.585006e+01
  -2.901520e+01  -7.123709e+00
   1.347606e+00   2.362649e+01
  -7.216971e+01   1.530416e+01
  -2.693780e+01  -3.795179e+01
  -9.689227e+00  -6.916090e+01
   5.727531e+01  -1.063274e+02
   6.686227e+01  -5.031534e+00
   4.582199e+01   4.949200e+01
  -1.201050e+01   6.061998e+01
  -2.725568e+01   6.778831e+01
  -2.684835e+01  -1.497673e+01
   6.136186e+01  -2.298768e+01
   5.727877e+01  -4.733051e+00
   3.477380e+01   4.559294e+01
  -2.748046e+01   6.579411e+01
  -8.483064e+01   2.602596e+01
  -7.135032e+01  -5.803726e+00
  -2.874035e+01  -3.485421e+01
   4.620648e+01  -2.154463e+01
   2.767141e+01   3.706998e+00
  -3.661811e+01   2.468015e+01
  -4.675173e+01  -2.253855e+01
  -4.779236e+01  -6.319930e+01
   3.130888e+01  -1.013580e+02
   4.714174e+01  -4.357692e+01
   1.033781e+02   2.654888e+01
   2.549862e+01   1.042926e+02
  -1.690170e+01   9.018302e+01
  -4.275116e+01  -1.055144e+01
  -3.824297e+01  -5.529919e+01
  -1.427709e+00  -8.307847e+01
   3.345610e+01  -4.553351e+00
   2.739586e+01  -7.428128e-01
   5.137238e+00  -1.826862e+01
   1.948293e+01  -6.144588e-01
   4.137894e+01   2.586661e+01
   2.589450e+01   6.848005e+01
   7.040842e+00   3.728279e+01
  -3.498371e+01   2.273521e+01
  -8.238464e+01   6.492397e+00
  -7.905078e+01  -1.680394e+01
  -3.028580e+01  -5.349520e+01
   2.370680e+01  -3.295200e+01
   4.101437e+01  -3.406392e+00
  -9.580833e+00   1.475172e+01
  -3.268438e+01  -9.059961e+00
   1.250095e+00  -1.113462e+01
   1.780019e+01   1.105009e-01
  -1.305837e+01   7.946965e-01
  -9.217466e+00  -3.493067e+00
  -5.181711e+01  -3.415202e+00
   8.183340e+00  -3.254271e+01
   6.860240e+01  -7.499070e+01
   6.973431e+01  -3.095292e+01
   7.108336e+01   7.405450e+00
   2.440504e+01   9.887809e+01
  -1.951070e+01   7.049899e+01
  -9.855947e+01   1.525415e+01
  -4.572698e+01   1.376551e+01
  -1.827289e+01  -3.025936e+01
   1.044993e+01  -1.024584e+00
  -1.255650e+01  -2.756109e+01
  -1.936525e+01  -2.176255e+01
   5.882776e+00  -4.511442e+01
   1.782803e+01  -5.063839e+01
   6.167491e+01   2.942369e+01
   5.094573e+01   1.994338e+01
   2.803276e+01   4.178728e+01
  -4.638470e+01   3.439841e+01
  -4.996640e+01  -8.085170e+00
  -3.385476e+01  -4.996263e+01
   3.454630e+01  -5.611436e+01
   7.567757e+01  -2.408786e+01
   3.382816e+01   4.050082e+01
  -3.318554e+01   3.143250e+01
  -3.748499e+01   2.657494e+01
   2.374325e+01  -2.128402e+01
   3.195971e+01  -6.261433e+01
   3.544014e+01  -3.749288e+00
  -2.305866e+01   5.575414e+01
  -6.198346e+01   2.184208e+01
  -5.072078e+01  -1.866152e+01
  -1.302656e+01  -2.998832e+01
  -4.394781e+00  -6.952435e+01
   2.504026e+01   2.273707e+00
   1.367813e+01   2.798256e+01
  -3.105681e+01   2.815900e+01
   1.526695e+01   2.109456e+00
   1.581392e+00  -3.613101e+01
  -2.599534e+01  -5.355534e+01
   2.822669e+01   1.864435e+00
   4.234496e+01  -5.107707e+00
   1.528424e+01   8.750803e+00
  -2.795122e+00  -7.923659e+00
  -6.360267e+00  -2.300453e+00
   6.399749e+00   2.121260e+01
   3.244331e+01   1.760279e+01
  -1.624983e+01   8.923074e+00
  -2.064332e+01  -4.796437e+01
  -2.454273e+01  -1.626888e+01
   1.520141e+01  -1.462881e+01
   4.039706e+01   4.860424e+01
  -7.306539e+00   3.629078e+01
  -1.479216e+01  -8.774672e+00
  -4.249395e+01  -1.482399e+01
  -4.385526e+01   1.160320e+01
   3.003154e+01  -2.932626e+01
   5.921310e+01  -2.993747e+01
   2.303267e+01   1.355304e+01
  -1.480789e+01   5.589598e+00
  -5.989461e+00   1.077641e+01
   2.711782e+01   1.199956e+01
   2.748056e+01  -2.268940e+01
