
 $NMID
 id='ANONYMOUS ', fmtdat='(2E16.6)'
 volume=1.0
 tramp=1.0
 $END
  -1.142649e+03  -9.301394e+01
  -8.408850e+02  -7.547930e+02
   3.187586e+01  -4.897716e+02
   4.413830e+02  -3.564136e+02
   2.472024e+02   8.871273e+00
   8.963766e+01  -1.616758e+01
   1.168146e+01  -4.902420e+01
   4.905174e+01  -1.040620e+02
   1.326249e+02  -1.548058e+02
   2.445418e+02   1.457723e+00
   9.803078e+01   1.629616e+02
  -2.660824e+01   1.737541e+02
  -1.468220e+02   4.182207e+01
  -1.001740e+02  -1.260464e+02
   5.931166e+01  -1.639186e+02
   1.011064e+02   2.215217e+01
   6.753779e+01   1.120772e+02
  -5.158463e+01   1.452035e+02
  -1.531135e+02   9.707130e+01
  -8.078999e+01  -5.560382e+01
  -3.398662e+01  -8.856432e+01
   5.390640e+01  -5.206028e+01
   2.185110e+01  -4.969197e+01
  -7.955511e+01  -3.414783e+01
  -9.125417e+01  -1.098912e+02
   2.180495e+01  -8.713469e+01
   1.922894e+02  -8.148289e+01
   1.724991e+02   2.179081e+01
   6.524818e+01   1.342407e+02
  -1.221685e+02   2.746403e+01
  -1.319269e+02  -1.052044e+02
  -3.865367e+01  -1.419441e+02
   9.064859e+01  -1.221527e+02
   1.199365e+02  -2.489227e+01
   3.141648e+01   4.814900e+01
   3.163887e+01   8.765544e+01
  -1.091167e+01   5.018531e+01
   3.468046e+01  -3.821452e+01
   3.910431e+01  -6.119589e+01
   5.531750e+01   3.906351e+01
  -1.435540e+01   1.703018e+02
  -8.327130e+01   1.789422e+02
  -1.137972e+02   9.448838e+00
  -4.233290e+01  -7.709723e+01
  -1.316570e+01  -4.096303e+00
   1.907843e+01   8.950627e+01
  -5.826483e+01   9.025590e+01
  -7.075269e+01  -5.460211e+01
  -6.225056e+01  -1.588527e+02
   3.537126e+01  -1.667367e+02
   7.765453e+01  -4.327779e+01
   1.383235e+02   5.174826e+01
   1.073705e+02   1.022562e+02
  -1.023027e+01   6.775613e+01
  -4.493159e+01   1.223703e+01
  -2.485159e+01   2.380029e+01
  -2.822613e+00  -2.382574e-01
   3.461188e+00  -1.787296e+01
  -5.369069e+01  -8.127291e+00
  -6.795419e+01  -1.819538e+01
  -1.598833e+01  -6.909859e+01
   7.019899e+01  -6.204586e+01
   9.210903e+01  -7.077513e+00
   4.552336e+01   4.573771e+01
   1.013321e+01   1.064623e+02
  -6.590462e+01   1.144905e+02
  -1.153951e+02   3.548518e+01
  -5.287201e+01  -7.379542e+01
  -1.143553e+01  -7.737816e+01
   3.476826e+01  -9.430629e+01
   4.255662e+00  -4.985916e+01
  -6.055735e+00  -1.157714e+01
   4.970562e+01  -5.536809e+01
   5.816368e+01   1.727900e+01
   4.707970e+01   4.581323e+01
  -3.267553e+01   7.158247e+01
  -1.429507e+01   5.135099e+01
  -2.539648e+01  -3.565689e+01
  -2.877058e+01  -5.494620e+01
   5.430973e+01  -7.757485e+01
   1.041409e+02   8.603302e+00
   5.662012e+01   5.500636e+01
   1.969386e+00   8.639159e+01
  -2.212069e+01   6.889314e+01
  -5.255926e+01   6.391169e+01
  -6.390096e+01   3.748374e+01
  -2.697306e+01  -1.997367e+01
  -8.963964e+01  -9.402906e+00
  -1.278254e+02  -5.774190e+01
  -1.267441e+02  -8.644792e+01
  -1.104994e+01  -1.148206e+02
   1.248037e+02  -1.260048e+02
   1.355941e+02  -4.779647e+01
   7.086976e+01   3.598238e+01
   6.104401e+00   8.874881e+01
  -1.117766e+00   5.719408e+01
  -1.782662e+01   8.378655e+00
   5.703464e+01  -7.102690e+00
   5.273074e+01   2.459532e+01
   1.980742e+01   2.455160e+01
  -5.610495e+01   3.955052e+01
  -4.727504e+01  -1.410401e+01
   4.505616e+00  -1.978457e+01
   4.276490e+01  -3.818994e+00
   4.033627e+01   5.125547e+01
  -9.503345e+00   9.404758e+01
  -3.874425e+01   3.274713e+01
  -9.649275e+01  -5.066532e+01
  -7.047540e+01  -8.898805e+01
   2.800089e+01  -5.738659e+01
   4.980151e+01  -5.143424e+01
   3.013812e+01   8.724516e+00
   3.562381e+01   1.292073e+01
   3.048816e+00  -1.530431e+01
   7.421578e+00  -9.824481e+00
  -1.242437e+01  -2.958847e+00
   4.020307e+01   1.911224e+01
  -9.775031e+00   2.137923e+01
  -4.720640e+01  -4.780200e+00
  -8.743119e+00  -1.555087e+01
   5.894459e+01  -1.288923e+01
   6.319023e+01   1.710565e+00
   7.137117e+01   6.664432e+01
   1.941122e+01   6.048855e+01
  -6.004525e+01   6.120762e+01
  -9.196763e+01   4.481473e+01
  -3.146107e+01  -2.890308e+01
   3.722083e+01   2.440422e+00
   1.903583e+01   1.674717e+01
  -2.332799e+00   5.209682e+01
  -8.170467e+01   2.225802e+01
  -7.807528e+01  -5.079987e+01
  -1.034615e+01  -5.212105e+01
   2.928434e+00  -5.276521e+01
   2.385726e+01  -1.608533e+01
   3.443870e+01   1.883014e+01
  -6.462317e+00   5.850666e+00
  -5.163893e+00  -2.084558e+01
   3.632362e+01  -1.667483e+01
   5.176084e+01  -2.985212e+00
   6.752287e+01   2.344593e+01
   1.194373e+01   5.857780e+01
  -3.049214e+01   3.130057e+01
  -3.238608e+01  -5.488170e+00
  -7.936588e+00  -3.030361e+01
   6.577991e+01  -1.782588e+01
   1.962368e+01   8.199954e+00
   1.855229e+01   1.753791e+01
   2.185732e+00  -8.298176e+00
  -2.689987e+01  -7.744874e+00
  -2.664919e+00   6.412023e+00
   2.796343e+01   3.885830e+01
  -2.089424e+01   5.748224e+01
  -4.843933e+01   3.041341e+01
  -7.953401e+01  -3.089263e+01
  -3.849838e+01  -5.098161e+01
  -2.911950e+01  -5.185745e+01
   5.107687e+01  -5.805351e+01
   4.726760e+01  -2.186838e+01
   2.544708e+01   3.960018e+00
   2.131887e+01  -1.095718e+00
   2.520094e+01  -1.479959e+01
   3.725868e+01   8.596740e+00
   1.014672e+01   5.687226e-01
  -1.901873e+00   1.995840e+01
  -8.395143e+00  -2.193838e+01
  -3.680159e+01  -1.853193e+01
   1.110898e+01  -2.555567e+01
   3.098606e+01  -4.387044e+01
   8.429730e+01   7.573998e+01
   2.331634e+01   9.762656e+01
  -4.132416e+01   4.879024e+01
  -9.686721e+01  -5.597908e+00
  -5.926920e+01  -5.809239e+01
  -2.091046e+01  -9.487131e+01
   3.286981e+01  -2.974983e+01
   4.551757e+01   2.042702e+01
   9.715784e+00  -2.691994e+01
  -2.254537e+01   2.964117e+00
   1.605247e+01  -3.200559e+01
   7.077847e+00   9.897091e-01
   1.108149e+01   6.205450e+01
   1.525643e+01   7.675707e+01
  -4.696498e+01   3.114297e+01
  -5.380532e+01  -2.868448e+01
  -8.118974e+00  -4.888402e+01
   4.186808e+01  -2.650847e+01
   3.516622e+01   1.693125e+01
   4.581601e+01   1.648018e+01
  -1.307482e+00   1.331535e+01
   7.772324e+00   2.908493e+01
  -1.994699e+00   6.103523e+00
   2.541916e+01  -1.766031e+00
   2.494569e+01   5.753570e+00
  -3.587606e+01  -1.730568e+01
  -3.498306e+01   7.987112e+00
  -4.144474e+01  -3.064057e+01
   1.015227e+01  -3.488518e+01
   6.019878e+01  -1.939542e+01
   3.183778e+01   2.333231e+01
   3.560391e+01   2.227235e+01
  -2.179873e+00   7.820060e+00
  -2.555411e+01  -1.339198e+01
   4.245899e-01  -3.260876e+01
   1.089414e+01   5.788609e+00
   5.931162e+01   1.151287e+01
  -1.436920e+01   2.861683e+01
  -5.318015e-02   1.540254e+01
   1.914903e+01  -2.527817e+01
  -2.421874e+00   2.081966e+00
   2.321370e+01  -2.922061e+01
  -4.144991e+00   5.733800e+01
  -4.433052e+01   6.274112e+01
  -2.343027e+01   9.254335e+00
  -5.962869e+01  -1.314403e+01
  -2.693225e+01  -3.055087e+01
   3.762967e+01  -1.311723e+01
  -1.840449e+01   5.523709e+00
  -3.750958e+01   2.007740e+01
  -4.792793e+01  -3.990504e+01
  -1.933201e+01  -3.976058e+01
   2.490637e+01  -2.038082e+01
   6.090616e+01  -2.462338e+01
   5.258769e+01   4.326895e+01
   2.040794e-01   1.793259e+01
  -4.575849e+01   1.421350e+01
  -1.486001e+01   1.872829e+01
   4.179119e+00  -6.731275e+00
   7.780008e+00  -7.189880e-01
   6.992122e+00   3.013771e+01
  -5.171183e+01   1.423011e+01
  -5.838369e+01   7.165539e+00
  -8.553331e+00  -3.309056e+01
   7.489536e+00  -6.516421e+01
   2.272312e+01  -7.334000e+00
   6.226702e+01   9.462526e+00
   1.500412e+01   4.202488e+01
   2.274608e+01   5.892793e+01
  -2.111335e+01   2.635049e+01
  -3.193558e+01  -2.422655e+01
   1.174530e+01  -3.843733e+01
   1.239106e+01  -6.763210e+00
  -2.810477e+01  -1.501541e+01
  -2.691117e+01  -3.215051e+01
   1.608719e+00  -3.799735e+01
   2.799068e+01  -4.377119e+00
   2.754149e+01   2.398435e+01
   5.945946e+01   3.917884e+01
   2.444665e+01   1.710761e+00
  -2.514104e+01   3.708733e+01
  -5.105072e+01   9.695563e+00
   1.256478e+00  -9.381243e+00
   9.781125e+00  -1.197165e+01
   1.210409e+01   6.398548e+00
   2.635084e+00   7.304531e+00
  -1.816050e+01   1.376132e+01
   3.537929e+00   2.331495e+01
   2.347073e+00   2.175044e+01
   1.136486e+01   1.726375e+01
  -4.403685e+01   2.482083e+01
  -5.765466e+01   4.454868e+01
  -2.862986e+01  -3.934753e+01
  -2.644766e+01  -3.834279e+01
  -1.152380e+01  -4.258645e+01
   3.248826e+01  -6.140266e+01
   7.334682e+01   4.017915e+00
   2.656117e+01  -8.372831e+00
   1.437798e+01   1.792359e+01
   1.824945e+01   1.705120e+01
   5.305594e+00   1.282776e+01
  -1.345209e+00   4.047123e+01
  -3.530702e+00   1.186013e+01
  -2.157436e-01  -1.742320e+01
   4.910362e-01  -2.413826e+01
   1.545893e+01  -3.737981e+01
   5.686447e+00  -1.369689e+01
   2.045490e+01  -6.676721e+00
   1.961728e+01   1.203790e+01
  -3.751531e+00   1.579510e+01
  -3.799349e+01   2.390035e+01
  -2.549106e+01  -2.312525e+01
   4.837204e+00  -3.682693e+01
   2.332265e+01  -4.582759e+01
   2.144668e+01  -3.446602e+01
  -2.506197e+01   2.199088e+00
  -2.463721e+01   1.693015e+01
   1.170605e+01  -1.749649e+01
   3.089700e+01  -2.388428e+01
   4.632558e+01   7.433863e+00
   7.085303e+00   2.929297e+01
   2.367106e+00   1.526183e+01
  -1.711458e+01   1.111241e+01
  -7.099698e+00  -1.305270e+01
   1.320717e+00   5.449960e+00
   3.633630e+01  -7.816811e+00
   1.314711e+01   2.164630e+01
  -1.045198e+01   1.295089e+01
   3.038322e+00  -2.212711e-01
  -3.200916e+01  -8.543346e+00
   1.232986e+01  -7.820679e+00
   1.356976e+01  -1.395886e+01
   9.145926e+00  -7.590210e-01
   1.758660e+00   2.991495e+00
   1.633755e+01   1.477852e+01
  -3.901204e+01  -1.884589e+01
   3.752029e+01  -5.417955e+00
   4.451694e+01   8.099261e+00
   3.427392e+00   3.763886e+01
   4.912832e+00   8.741193e+00
  -1.271863e+00  -2.738329e+01
   2.306100e+01  -2.686790e+01
   3.727817e+01  -3.269014e+01
   2.078680e+01  -4.467226e-01
  -6.923397e+00   3.538093e+01
  -2.322432e+01   2.184178e+01
  -7.823499e+00  -2.247291e+01
  -1.028565e+01  -4.611643e+01
  -3.623906e+00  -1.893196e+01
  -3.121323e+01   1.811394e+01
  -1.683859e+00  -2.122177e+01
