
 $NMID
 id='ANONYMOUS ', fmtdat='(2E16.6)'
 volume=1.0
 tramp=1.0
 $END
   1.128313e+03   4.851895e+02
   7.669145e+02   6.865975e+02
   4.813728e+01   7.155909e+02
  -4.341365e+02   3.762475e+02
  -3.673030e+02   8.850893e+01
  -1.013969e+02   3.487386e+01
   1.354099e+02   2.281050e+01
   3.856295e+00   1.919461e+02
  -1.814063e+02   2.035447e+02
  -2.138073e+02   8.067453e+01
  -1.008996e+02  -9.926629e+01
   2.474014e+01  -2.286456e+02
   1.580832e+02  -5.911424e+01
   6.634566e+01   1.706250e+02
   1.056904e+01   2.015192e+02
  -1.625301e+02  -8.036391e+00
  -1.089214e+02  -2.243724e+02
   4.153387e+01  -2.594879e+02
   2.206247e+02  -1.182859e+02
   1.957020e+02   8.077688e+01
   8.404690e+01   1.673529e+02
  -5.517530e+01   1.216175e+02
  -7.574380e+01   4.192188e+01
   7.400751e+01   1.888271e+00
   1.065916e+02   8.785051e+01
   1.763073e+01   1.382708e+02
  -2.109810e+02   8.056815e+01
  -2.622129e+02  -1.127618e+02
  -6.041103e+01  -1.573847e+02
   1.662412e+02  -1.248161e+02
   2.408714e+02   6.060384e+01
   1.106682e+02   1.629098e+02
  -9.382669e+01   1.415697e+02
  -1.451497e+02   8.521255e+01
  -1.435897e+02  -5.479714e+01
  -3.752788e+01  -1.465830e+02
   8.818851e+00  -7.453761e+01
  -7.931918e+00   3.207466e+01
  -8.021833e+01   1.281380e+02
  -8.931357e+01  -6.560817e+01
  -3.706728e+00  -2.410488e+02
   6.965614e+01  -2.820276e+02
   1.703478e+02  -5.324989e+01
  -7.671730e+00   9.154389e+01
  -7.316918e+01   5.840359e+01
  -8.471171e+01  -1.028252e+02
   4.524973e+01  -1.502025e+02
   1.970140e+02  -1.329375e+01
   1.317644e+02   1.397598e+02
   4.668348e+01   1.811596e+02
  -1.105957e+02   1.201195e+02
  -2.073551e+02  -3.879004e+01
  -1.035029e+02  -1.483748e+02
   3.987087e+01  -1.160431e+02
   1.508986e+02  -2.565793e+01
   9.498517e+01   6.519611e+01
   1.063769e+01   5.392473e+01
   8.044473e-01  -1.342962e+01
   5.418927e+01  -3.638108e+00
   8.212215e+01   1.185728e+01
   6.342654e+01   9.838380e+01
  -6.309573e+01   1.035787e+02
  -1.709943e+02   3.435616e+01
  -1.089430e+02  -6.106124e+01
  -3.368651e+01  -1.108754e+02
   1.580563e+02  -1.300297e+02
   1.737525e+02  -4.688515e+01
   1.027990e+02   6.762171e+01
  -4.321790e+00   1.549720e+02
  -3.556171e+00   1.533570e+02
   1.345023e+01   6.467606e+01
  -1.437135e+01   2.166205e+01
  -5.179851e+01   3.527912e+01
  -5.931569e+01   2.693030e+01
  -8.457499e+01  -4.036285e+01
  -3.005238e+01  -1.051382e+02
   1.599092e+01  -8.910072e+01
   4.909374e+01   4.474311e+01
  -5.088485e+00   1.101051e+02
  -2.976063e+01   1.188544e+02
  -1.110940e+02   3.135044e+01
  -1.168501e+02  -6.574632e+01
  -4.963712e+01  -1.206857e+02
   5.248596e+01  -8.987880e+01
   4.881643e+01  -6.293073e+01
   4.614329e+01  -3.099576e+01
   6.477752e+01  -3.120007e+01
   1.135649e+02   4.023892e+00
   1.592775e+02   3.332664e+01
   1.250747e+02   1.218531e+02
  -1.831219e+01   1.485783e+02
  -1.628874e+02   1.514261e+02
  -1.551878e+02   6.374011e+01
  -1.519338e+02  -5.712349e+01
  -9.190864e+00  -1.061758e+02
   5.766447e+01  -8.748175e+01
   2.343757e+01   1.937395e+01
  -7.346596e+01   2.996601e+01
  -9.805406e+01  -1.081795e+01
  -9.374873e+00  -7.151162e+01
   1.085352e+02  -5.624736e+01
   6.677473e+01   2.500533e+01
  -1.935254e+01   5.426314e+01
  -6.844612e+01  -9.569245e+00
  -7.872131e+01  -1.141456e+02
   3.029576e+01  -1.414490e+02
   1.147745e+02  -8.405898e+01
   1.335436e+02   4.679449e+01
   1.315581e+02   1.507084e+02
  -7.560351e+00   9.927008e+01
  -1.025429e+02   6.970689e+01
  -6.215851e+01  -1.497446e+01
  -1.522221e+01  -4.260521e+01
   3.162841e+01   1.826745e+01
  -1.378638e+01   1.060982e+02
  -4.487907e+01   2.011503e+01
  -9.857140e+01  -3.663734e+01
   7.934315e+00  -4.879478e+01
   6.527453e+01  -3.560912e+01
   3.308372e+01   7.547705e+01
  -8.813007e+01   5.962061e+01
  -1.631733e+02   6.698462e+00
  -1.011422e+02  -1.127661e+02
  -1.159174e+01  -1.285866e+02
   8.612047e+01  -6.959718e+01
   1.037375e+02   3.386609e+00
   7.730335e+01   4.519068e+01
  -5.477713e+01   3.098060e+01
  -2.363509e+01  -3.109737e+01
   1.451932e+01  -3.538723e+01
   1.150945e+02  -1.862758e+01
   9.440868e+01   5.066380e+01
  -7.267946e+00   7.483348e+01
  -4.802907e+01   4.538523e+01
  -7.017513e+01  -4.983634e+00
  -2.783552e+01  -2.801864e+01
   2.354224e+01   2.653157e+01
  -1.505282e+01   5.533568e+01
  -4.431046e+01   4.547125e+01
  -8.110295e+01   1.882784e+01
  -6.345729e+01  -6.250602e+01
  -1.627531e+01  -9.576524e+01
   3.816644e+01  -8.056490e+01
   9.140542e+01   1.038499e+01
   3.003978e+01   5.367489e+01
  -7.497746e+01   2.944599e+01
  -3.104102e+01  -2.031380e+01
   2.306350e+00  -1.447852e+01
   2.154058e+01  -9.536227e+00
   7.643367e+00   1.236021e+01
  -3.300065e+01  -1.231863e+00
  -3.618186e+01  -5.453950e+01
  -9.148921e+00  -1.002419e+02
   5.415458e+01  -8.785181e+01
   1.049765e+02  -3.961190e+01
   6.043989e+01   9.045911e+01
  -2.844319e+01   1.014388e+02
  -4.964201e+01   8.428390e+01
  -4.243132e+01  -5.627060e+00
  -4.206308e+01  -4.789341e+01
  -1.523476e+01   3.271812e+00
  -1.215063e+01   3.076458e+01
  -3.332179e+01   5.524750e+00
  -5.171063e+01  -1.140250e+01
   1.229491e+01  -6.104980e+01
   4.008965e+01  -2.079087e+01
   7.381802e+01   2.181445e+01
   6.435870e+00   4.085885e+01
  -4.355654e+01   2.327499e+01
  -1.087590e+02  -4.258636e+01
  -3.476799e+00  -1.054180e+02
   8.103208e+01  -7.173771e+01
   9.389975e+01  -1.775079e+01
   9.261707e+01   7.093254e+01
   3.091517e+01   1.094096e+02
  -5.183164e+01   4.364594e+01
  -3.959850e+01   1.198115e+01
  -1.872041e+01   1.696117e+01
  -3.095975e+01   1.413402e+01
  -2.085728e+01   1.485660e+01
  -3.147964e+01   1.225161e+01
  -6.234627e+01  -7.308188e+01
  -5.731537e+00  -1.292026e+02
   4.993240e+01  -7.545089e+01
   6.410418e+01  -1.022752e+01
   6.734742e+01   5.651357e+01
   2.877851e+01   5.801448e+01
  -3.993393e+01   1.125304e+01
  -3.976751e+01   2.966311e+00
  -1.382461e+01  -3.153404e+01
   1.155094e+00  -3.648815e+00
   1.531542e+01  -1.178780e+01
  -5.778595e+01   1.420919e+00
  -2.479685e+01   1.830763e+00
   1.905740e+01  -1.865533e+01
   6.901928e+01  -8.712705e+00
   5.259714e+01   3.918690e+01
  -6.821818e+00   5.684661e+01
  -7.408671e+01   3.540236e+01
  -5.375274e+01  -1.047647e+01
  -2.184366e+01  -1.193912e+01
   3.021591e+01  -8.623203e+00
   3.771760e+01   2.895023e+01
  -1.853766e+01   2.813323e+01
  -1.112520e+01   3.954457e+01
  -3.525456e+01  -3.485460e-01
  -3.397139e+01  -7.448141e+01
   7.732596e+00  -2.942941e+01
  -1.901579e+01  -1.462761e+01
  -2.943336e+01   7.665938e+00
  -3.044517e+01   2.386693e+01
  -1.869367e+01  -6.464198e+01
   3.242623e+01  -5.397318e+01
   8.493135e+01  -3.585183e+01
   8.156701e+01   5.166533e+01
   2.610779e+01   4.969524e+01
  -3.731389e+01   1.632582e+01
  -1.496243e+01  -2.368619e+01
   3.289858e+01  -9.753065e+00
   4.402318e+01   3.815660e+01
   5.637449e+01   8.169614e+01
  -5.804089e+01   1.943611e+01
  -1.123277e+02   5.429010e+00
  -6.184016e+01  -3.517943e+01
  -1.709989e+01  -4.652154e+01
   3.410292e+01  -4.501013e+01
   4.107478e+01   1.098353e+01
   3.444942e+00   1.913469e+01
  -2.210380e+01  -2.643452e+00
  -3.219513e+01  -4.425926e+01
   2.389683e+01  -7.411273e+01
   6.702071e+01  -1.914088e+01
   5.998436e+01   3.344471e+01
   2.117181e+01   8.356171e+01
  -1.912001e+00   5.177347e+01
  -9.128940e+01   5.815859e+00
  -2.974285e+01  -5.715908e+01
   1.439220e+01  -6.651862e+01
   5.209866e+01  -3.629627e+01
   1.749089e+01   6.770932e+00
   4.557602e+01   1.012651e+01
  -2.299585e+01   1.044987e+00
  -4.559642e+00   3.675285e+01
  -2.302940e+01   5.090172e+01
   1.648123e+00   4.774331e+01
  -3.013570e+01   5.101218e+01
  -4.438569e+01  -5.064675e+01
  -6.341054e+01  -1.148750e+01
   1.210408e+00  -2.820776e+01
   4.638967e+01   5.065586e+00
   4.608627e+01   2.669002e+00
   1.461588e+01   1.741388e+01
  -4.358084e+01   2.430546e+01
   2.581954e+00   7.925318e-01
   1.469501e+01  -1.137589e+01
   6.314645e+00   7.151883e+00
  -3.396738e+01  -2.546634e+00
  -3.265306e+01  -3.236527e+01
  -4.017154e+00  -3.065486e+01
   9.748161e+01  -6.062473e+01
   1.034138e+02  -3.475749e+01
   5.973967e+01   1.190899e+01
   1.943539e+01   6.518669e+01
  -1.829117e+01   9.024338e+01
  -2.103042e+01   2.584019e+01
  -4.615083e+01   6.038504e+00
   1.595680e+01  -2.227432e+01
  -1.119687e+01   8.858926e+00
  -3.483465e+01  -1.939474e+00
  -2.524694e+01  -1.324549e+01
   1.379685e+01  -8.073163e+01
   1.543712e+01  -2.908467e+01
   3.798062e+01   8.229993e+00
   1.435138e+01   6.723175e+01
   1.450468e+00   3.038237e+01
  -2.096703e+01   2.418540e+01
  -2.264963e+01  -3.988460e+01
   1.598891e+01  -4.775078e+01
   4.356505e+01  -1.123385e-01
   5.261115e+01  -8.512562e+00
   5.202443e+00   2.592684e+01
  -9.451867e+00   3.012780e+01
  -2.394261e+01  -2.081997e+01
  -3.498253e+01   3.535631e+00
   3.832884e+01   1.766400e+01
   2.445339e+01  -8.728520e+00
   1.179937e+01   1.100066e+01
  -3.448260e+01   1.090381e+01
  -5.046390e+01   6.201191e+00
   3.938057e+00   1.242896e+00
   2.814425e+01  -3.524708e+01
   3.731555e+01  -5.598496e+00
   1.631812e+01   1.501538e+01
  -5.135890e+01   4.598788e+01
  -3.006663e+01  -8.837962e+00
  -3.519568e+01  -2.429039e+01
  -1.549032e+01  -3.372390e+01
   2.567692e+01   1.075958e+01
   4.891196e+00   7.081749e+00
   5.042210e+00   1.105574e+01
   2.308679e+01  -1.748039e+01
  -1.074621e+01  -5.859008e-02
   8.916478e+00   2.422287e+01
   1.577052e+00   4.219770e+00
   2.887844e+00   1.150850e-01
  -1.066597e+01  -1.425877e+01
  -8.752401e+00  -4.525333e+01
   1.500982e+01  -1.395511e+01
   2.038933e+01   2.573893e+01
   1.203186e+01   5.171792e+01
  -1.132314e+00   5.281600e+01
  -4.441274e+00  -8.594943e+00
  -4.130786e+01   1.368873e+01
   1.026621e+00  -1.994375e+01
   1.874943e+01  -1.689713e+01
  -1.891913e-01   1.385558e+01
  -2.220832e+01   4.665897e+00
   7.820007e+00   1.048421e+01
   2.361065e+01  -2.977846e+01
   4.308950e+01  -4.843006e+01
