
 $NMID
 id='ANONYMOUS ', fmtdat='(2E16.6)'
 volume=1.0
 tramp=1.0
 $END
  -2.615479e+03   8.965195e+01
  -1.424685e+03  -1.494965e+03
   1.204635e+02  -1.653732e+03
   1.149796e+03  -8.120725e+02
   7.384087e+02  -3.602529e+00
  -5.287525e+01   2.875878e+02
  -3.475074e+02  -1.686942e+02
   6.997141e+00  -5.544198e+02
   3.949989e+02  -4.548712e+02
   5.469730e+02  -4.928768e+00
   3.422711e+02   4.297916e+02
  -3.870233e+01   5.464440e+02
  -2.790439e+02   1.405502e+02
  -2.291329e+02  -3.234921e+02
   9.371122e+01  -4.518671e+02
   3.590767e+02  -4.105616e+01
   2.823663e+02   3.768321e+02
  -1.361805e+02   4.287786e+02
  -3.399885e+02   1.919585e+02
  -3.506141e+02  -1.812115e+02
  -7.144622e+01  -2.704057e+02
   1.353552e+02  -2.148995e+02
   1.360958e+02  -2.955794e+01
  -6.955996e+01  -3.669901e+01
  -2.243927e+02  -1.497955e+02
  -8.221392e+01  -3.019897e+02
   3.275609e+02  -1.850733e+02
   5.235663e+02   7.954141e+01
   1.741572e+02   2.259222e+02
  -2.635384e+02   2.002521e+02
  -4.060620e+02  -1.702107e+01
  -1.363484e+02  -3.044048e+02
   2.390107e+02  -2.967142e+02
   3.651431e+02  -1.033319e+02
   2.367562e+02   1.473209e+02
   5.507754e+01   2.612111e+02
  -4.744784e+01   1.438133e+02
  -1.642115e+01  -9.406833e+01
   1.226799e+02  -1.419330e+02
   1.911877e+02   6.404420e+01
   3.822913e+01   3.924488e+02
  -2.660804e+02   3.759240e+02
  -2.970298e+02  -3.336410e+01
  -8.421455e+01  -2.699982e+02
   1.603680e+02  -1.349690e+02
   1.378158e+02   1.554453e+02
  -6.143345e+01   3.022238e+02
  -3.317084e+02   4.820060e+01
  -3.286905e+02  -2.406998e+02
  -1.320371e+02  -3.469595e+02
   2.002801e+02  -2.255094e+02
   3.889901e+02   8.053178e+00
   2.764910e+02   2.389840e+02
  -3.683048e+01   1.831748e+02
  -2.074550e+02   2.820478e+01
  -1.447495e+02  -6.187834e+01
   2.866156e+01  -3.306546e+01
   6.523943e+01   7.332196e+01
  -7.873315e+01   7.236699e+01
  -1.815973e+02  -5.157241e+01
  -1.072174e+02  -1.727554e+02
   1.260686e+02  -1.489135e+02
   2.198749e+02  -5.402245e+01
   1.707121e+02   9.812493e+01
  -3.440658e+01   2.014576e+02
  -2.157579e+02   2.418724e+02
  -2.594680e+02   1.243441e+02
  -1.937925e+02  -1.291892e+02
  -7.343161e+01  -2.857290e+02
   4.847897e+01  -2.455581e+02
   5.868039e+01  -1.657065e+02
   1.785474e+01  -5.595660e+01
   7.731786e+01  -4.600744e+01
   1.846458e+02  -2.454592e+01
   1.507013e+02   7.698242e+01
   9.457377e+01   1.664209e+02
  -4.898942e+01   1.557523e+02
  -1.430198e+02  -1.103401e+01
  -1.394588e+02  -1.513971e+02
   4.006380e+00  -1.856644e+02
   1.670429e+02  -5.063872e+01
   2.423766e+02   1.132539e+02
   1.646821e+02   2.299333e+02
  -5.111852e+01   2.269586e+02
  -1.484725e+02   1.482733e+02
  -1.312776e+02   4.455377e+01
  -9.245555e+01   4.161172e+01
  -1.662930e+02   3.340406e+01
  -3.096337e+02  -8.001103e+01
  -2.309927e+02  -2.367316e+02
  -1.640376e+01  -3.109630e+02
   3.122467e+02  -2.579458e+02
   3.754073e+02  -1.213994e+02
   2.494817e+02   6.970750e+01
   1.828003e+01   1.941776e+02
  -8.659812e+01   1.641667e+02
  -5.000565e+01   3.010503e+01
   5.302589e+01  -4.170596e+01
   1.121987e+02   3.766514e+01
   1.708453e+01   1.290435e+02
  -9.653510e+01   7.966075e+01
  -9.243667e+01  -3.151916e+01
   1.537692e+01  -9.657983e+01
   1.105748e+02   4.788679e-01
   8.975727e+01   1.768193e+02
  -5.714936e+01   2.607310e+02
  -1.818501e+02   1.339747e+02
  -2.541082e+02  -3.182150e+01
  -2.181845e+02  -1.488695e+02
  -2.357663e+01  -2.198509e+02
   7.258789e+01  -1.178816e+02
   1.120566e+02  -3.235209e+00
   2.074081e+01   2.144117e+01
  -3.946379e+01  -2.523446e+01
   3.985807e+01  -1.139211e+02
   9.128979e+01  -2.989501e+01
   1.247941e+02  -1.437853e+00
   4.208992e+01   2.264258e+01
  -3.777047e+01  -1.087533e+01
  -3.328671e+01  -7.113838e+01
   1.044294e+02  -6.937827e+01
   2.151381e+02  -4.621041e+00
   1.866391e+02   1.342253e+02
   5.018195e+01   2.160259e+02
  -1.564122e+02   1.754157e+02
  -1.728843e+02   9.740681e+01
  -1.337945e+02  -5.813697e+01
   2.258016e+01  -4.659735e+01
   5.322547e+01   1.030371e+01
  -1.827738e+01   4.130737e+01
  -1.465086e+02   2.584933e+01
  -1.588954e+02  -8.182828e+01
  -4.330825e+01  -1.922208e+02
   5.784859e+01  -1.428586e+02
   1.186784e+02   6.096437e+00
   6.200440e+01   7.163660e+01
  -2.085138e+01  -5.366506e+00
  -2.157553e+01  -9.978083e+01
   6.280889e+01  -4.135867e+01
   1.567117e+02  -5.958422e-02
   1.310767e+02   9.984360e+01
   5.928134e+00   1.470484e+02
  -1.310218e+02   1.312278e+02
  -1.221747e+02  -3.577064e+00
  -2.560607e+01  -6.342241e+01
   2.488564e+01  -5.997491e+01
   3.430965e+01  -2.083493e+01
  -2.962115e+01   3.356410e+01
  -4.074444e+01  -1.688334e+01
  -1.990511e+01  -7.194575e+00
   4.898444e+01   2.101189e+01
   8.099525e+01   4.467699e+01
   2.704798e+01   1.250850e+02
  -7.010487e+01   8.693714e+01
  -2.070815e+02   3.878769e+01
  -1.367879e+02  -1.358848e+02
  -4.211752e+01  -2.044274e+02
   7.817587e+01  -1.553299e+02
   9.665642e+01  -2.331758e+01
   7.930280e+01   3.792083e+01
   2.898064e+01   2.656101e+01
   2.361489e+01  -2.509189e+00
   5.479935e+01   6.908392e+00
   5.097418e+01   5.301848e+01
  -2.164806e+01   6.834387e+01
  -8.996350e+01   5.096242e+01
  -7.789814e+01  -4.575990e+01
  -1.405613e+01  -7.959231e+01
   1.080628e+02  -8.045637e+01
   1.604968e+02   3.890579e+01
   3.273167e+01   1.379135e+02
  -8.875416e+01   1.720128e+02
  -2.182416e+02   9.976096e+01
  -1.985121e+02  -7.547949e+01
  -9.630501e+01  -1.300670e+02
   3.346957e+00  -1.300266e+02
   6.386006e+01  -7.507025e+01
   6.561777e+01  -4.492038e+01
   7.311984e+01  -9.890989e+01
   8.292596e+01  -5.757892e+01
   1.179525e+02   2.618116e+01
   9.686170e+01   1.461438e+02
  -5.532817e+00   1.755636e+02
  -9.370353e+01   1.397909e+02
  -9.371571e+01  -5.461414e+00
  -1.052209e+02  -1.100434e+02
  -3.756489e+00  -1.294317e+02
   6.403687e+01  -6.934315e+01
   4.957019e+01  -1.361978e+01
   3.460484e+01   3.668316e+01
  -3.883333e+01   2.940524e+01
   2.225598e+01   3.850290e+01
   7.078470e+01   1.978760e+01
   9.040939e+00   3.781641e+01
  -4.334795e+01   2.693825e+01
  -1.129509e+02  -3.147682e+00
  -1.001756e+02  -5.179488e+01
  -4.816492e+00  -6.847582e+01
   9.247173e+01  -4.363716e+01
   9.870104e+01   8.829343e+00
   3.874208e+01   4.544180e+01
  -3.577217e+01   2.993378e+01
  -2.436384e+01  -4.177690e+00
  -1.761047e+01  -7.308997e+01
   3.699138e+01  -7.334229e+01
   7.316999e+01  -7.083387e+00
   2.633559e+01   6.314408e+01
   6.327850e+01   4.348450e+01
   3.522681e+01   1.227378e+01
   3.775513e+01   1.005156e+01
   1.744611e+01   4.533549e+01
  -1.157420e+01   1.282670e+02
  -1.023547e+02   8.351036e+01
  -1.172776e+02   3.645158e+01
  -1.015737e+02  -7.563588e+01
   2.099235e+01  -1.165509e+02
   7.769327e+01  -3.762977e+01
   3.749010e+01   2.191387e+01
  -5.318083e+01  -1.231329e+01
  -8.318819e+01  -6.613991e+01
  -2.734194e+01  -6.696933e+01
   6.114439e+01  -7.745738e+01
   8.783499e+01   7.221930e-01
   1.004324e+02   4.810876e+01
   2.325828e+01   8.214994e+01
  -3.974879e+01   2.453547e+01
  -1.811378e+01  -1.551754e+01
   3.260581e+01   5.303961e+00
   2.624067e+01   3.546055e+01
   3.786608e+01   7.566196e+01
  -8.053191e+01   9.556109e+01
  -1.191886e+02   1.450877e+01
  -6.175546e+01  -5.360775e+01
  -3.439757e+00  -1.243049e+02
   5.284165e+01  -8.159686e+01
   6.422243e+01   1.606312e+01
   3.901710e+01   9.546863e+01
  -3.987701e+00   6.067493e+01
  -2.343697e+01   2.415810e+00
  -3.502546e+01   1.208331e+01
  -3.850771e+01  -2.088504e+01
   6.228518e+00   2.517166e+01
  -1.527262e+01  -2.289651e+01
  -5.796329e+01  -3.912187e+01
  -1.174042e-01  -6.799185e+01
   4.064315e+01  -2.399503e+01
   1.140155e+02   4.835013e+01
   8.582071e+01   1.116810e+01
   1.834769e+01   4.947190e+01
  -3.195818e+01   3.521825e+01
  -8.923510e+01  -1.209410e+01
  -2.879049e+00   4.758349e+00
   2.990997e+01   2.820273e+00
   3.142724e+00  -2.600069e+01
  -3.477884e+01   1.973672e+01
   3.255424e+01  -1.319246e+01
   6.592603e+01   3.394699e+00
   6.612932e+01   6.596462e+00
   3.209205e+01   8.171691e+01
  -7.925171e+01   9.774086e+01
  -1.695114e+02   5.589759e+01
  -1.098910e+02  -7.610804e+01
  -8.006653e+00  -1.120562e+02
   5.459373e+01  -1.050476e+02
   6.017520e+01  -4.072386e+01
   7.163674e+01   2.086240e+01
   3.093351e+01   4.171682e+00
   1.232854e+01   9.067216e+00
   2.020746e+01  -7.628847e+00
   1.407611e+01   4.025109e+01
  -5.583697e+00   5.453152e+01
  -3.210059e+01   1.936378e+01
  -5.015119e+01  -4.749627e+01
  -4.554697e+01  -1.219926e+02
   3.153267e+01  -9.260691e+01
   6.944926e+01  -1.195227e+01
   4.324809e+01   9.195030e+01
   2.441141e+01   7.294385e+01
  -4.942226e+01   3.108410e+01
  -8.516671e+01  -3.408043e-01
  -2.461811e+01  -6.455779e+01
   1.857948e+01  -2.506616e+01
   5.462223e+00  -1.775725e+01
  -1.410992e+01  -1.873621e+00
  -1.138726e+01   5.005956e+00
  -2.830522e+01  -7.469528e+00
   5.295189e+01  -7.382846e+01
   7.933095e+01  -6.140309e+00
   2.619879e+01  -4.015061e+00
  -1.950301e+01   6.886834e+01
  -5.168015e+01   5.718877e+01
  -4.228078e+01   1.958756e+01
  -8.292072e+00  -5.080266e+01
  -1.213334e+01  -2.892850e+01
   2.571962e+01   1.028635e+01
   5.101457e+01   1.438108e+01
  -3.456069e+01   2.692549e+01
  -5.030332e+01  -5.420525e+01
  -3.748766e+01  -6.105664e+00
  -1.343524e+01  -2.469213e+00
   3.723309e+01  -1.009304e+01
   1.097878e+01  -6.129696e+00
  -6.327021e+00  -9.222903e+00
   1.211381e+01  -2.203075e+01
   2.999081e+01  -1.994784e+01
  -6.129850e+00   2.604217e+01
   8.893167e+00   3.362801e+01
  -1.359573e+01   3.042755e+01
  -4.618364e+01  -3.080025e+01
   4.712967e+00  -7.150733e+01
   7.703824e+00  -2.635614e+01
   2.216059e+01  -1.652760e+00
   4.902033e+01   2.669799e+01
  -1.095344e+01   2.233467e+01
  -3.478896e+01  -3.786177e+00
   1.775192e+01   9.630467e+00
   1.577461e+01   1.291250e+01
  -6.488713e+00   5.338378e+00
  -1.284472e+01   1.559473e+01
  -7.359860e+01   1.260202e+01
