
 $NMID
 id='ANONYMOUS ', fmtdat='(2E16.6)'
 volume=1.0
 tramp=1.0
 $END
   2.128877e+03  -4.289024e+02
   1.318514e+03   8.087808e+02
   2.734856e+02   9.717956e+02
  -5.313885e+02   8.241758e+02
  -5.438756e+02   4.149029e+02
  -2.356071e+02  -5.721622e+01
   2.676086e+02  -3.043718e+01
   7.490181e+01   3.058858e+02
  -1.684606e+02   3.832414e+02
  -4.236375e+02   6.030549e+01
  -2.986865e+02  -2.876012e+02
  -3.182895e+01  -3.822929e+02
   1.246909e+02  -1.250550e+02
   1.712665e+02   2.071340e+02
  -3.419694e+01   3.004973e+02
  -2.176984e+02   8.102914e+01
  -2.750272e+02  -2.743608e+02
   5.167582e-01  -4.250137e+02
   2.897332e+02  -2.549650e+02
   3.154152e+02   9.953914e+01
   8.951621e+01   2.637755e+02
  -7.572625e+01   1.532983e+02
   4.872581e+00   6.374581e+01
   1.239066e+02   1.054811e+02
   1.444469e+02   2.450562e+02
  -2.314013e+01   2.022675e+02
  -3.264082e+02   5.520862e+01
  -3.447304e+02  -1.063054e+02
  -1.129591e+02  -1.673166e+02
   2.077986e+02  -1.028134e+02
   2.992618e+02   5.410882e+01
   1.100921e+02   2.460138e+02
  -1.875763e+02   2.140481e+02
  -2.961303e+02   7.678505e+01
  -1.891844e+02  -1.019605e+02
  -1.055364e+02  -1.749820e+02
  -3.750998e+01  -6.711244e+01
  -7.245174e+01   4.618291e+01
  -1.335398e+02   1.892569e+01
  -5.588693e+01  -1.345627e+02
   9.423003e+01  -2.631068e+02
   1.502605e+02  -1.415160e+02
   1.058279e+02  -5.937397e+00
   7.188671e+01   1.424820e+02
  -8.476547e+01   2.650239e+01
  -9.262582e+01  -1.369243e+02
   1.169757e+02  -2.553791e+02
   3.065080e+02  -1.027657e+02
   3.730303e+02   2.110833e+02
   1.617494e+02   3.173212e+02
  -1.972895e+02   2.060218e+02
  -3.087090e+02   8.494643e+00
  -2.337311e+02  -1.265044e+02
  -1.196736e+01  -1.314101e+02
   1.740972e+02  -6.830217e+01
   1.463084e+02  -4.884446e+01
   5.412879e-01   4.767304e+00
  -4.244043e+01  -5.716745e+00
   3.282980e+01  -3.876433e+01
   1.138088e+02  -3.190293e+01
   1.026418e+02   8.411730e+01
  -7.850430e+01   2.336707e+02
  -2.660062e+02   1.335249e+02
  -2.067868e+02  -8.589892e+01
  -3.711063e+00  -2.736381e+02
   1.597659e+02  -2.673406e+02
   2.263419e+02  -1.285070e+02
   1.545363e+02   9.051629e+01
   9.458557e+01   1.681557e+02
   3.308951e+01   1.782120e+02
   1.198822e+01   1.388740e+02
  -3.829436e+01   1.420436e+02
  -1.589593e+02   7.993363e+01
  -1.918121e+02   4.048964e+01
  -2.000573e+02  -9.233380e+01
  -5.419364e+01  -1.587614e+02
   5.840604e+01  -1.382916e+02
   1.037018e+02   2.153110e+01
   1.008487e+02   1.530814e+02
  -5.096839e+01   1.493815e+02
  -1.616250e+02   9.905619e+00
  -2.333474e+02  -6.971034e+01
  -1.083473e+02  -1.331138e+02
   3.387715e+01  -1.191055e+02
   9.709317e+01  -1.523953e+02
   6.737361e+01  -9.200709e+01
   7.729329e+01  -8.973402e+01
   2.318855e+02  -6.456780e+01
   3.207269e+02   9.678092e+01
   2.400415e+02   2.367402e+02
   8.739023e+00   3.410886e+02
  -2.299216e+02   2.643017e+02
  -2.861060e+02   9.879593e+01
  -1.892012e+02  -8.447702e+01
  -5.567238e+00  -1.710439e+02
   5.520275e+01  -1.442898e+02
  -2.793620e+01  -4.962041e+01
  -9.582405e+01   2.080401e+01
  -5.329479e+01  -4.285054e+01
  -2.755544e+01  -1.151240e+02
   7.235612e+01  -3.854559e+01
   2.089726e+01   1.490828e+01
  -4.114645e+01   7.223474e+01
  -1.055504e+02   4.947609e+01
  -1.037048e+02  -1.164887e+02
   6.491448e+00  -2.179843e+02
   1.950946e+02  -1.877214e+02
   2.840993e+02   3.776404e+01
   2.141641e+02   2.092607e+02
   2.765114e+01   1.702184e+02
  -6.675093e+01   7.474952e+01
  -1.087904e+02   9.669509e+00
  -2.792474e+01  -5.247252e-01
   2.774170e+01   5.025143e+01
   2.888587e+00   7.415052e+01
  -8.611223e+01   6.428005e+01
  -8.202683e+01  -1.814435e+01
  -3.435795e+01  -1.217881e+01
   8.429089e+01   4.358724e+00
   4.746508e+01   3.871907e+01
  -1.243565e+02   1.238058e+02
  -2.215886e+02   1.811080e+01
  -1.587462e+02  -1.386455e+02
  -2.439945e+01  -1.843013e+02
   1.378731e+02  -1.784653e+02
   1.304692e+02  -5.305118e+01
   5.945539e+01   7.792311e+00
  -1.939141e+01  -3.980738e-01
  -2.554017e+01  -6.415783e+00
   4.497818e+01  -4.640057e+01
   1.254261e+02  -1.510501e+01
   1.251122e+02   7.048433e+01
   5.423649e+01   9.814507e+01
  -5.495272e+01   8.546765e+01
  -8.440268e+01   2.503597e+01
   5.308082e+00  -3.089150e+01
   3.992660e+01   1.375215e+01
   3.867865e+00   8.639779e+01
  -9.617659e+01   8.337668e+01
  -1.946503e+02   3.487144e+01
  -1.303841e+02  -1.540255e+02
  -1.026740e+01  -1.645715e+02
   7.057413e+01  -1.301978e+02
   1.044016e+02   1.871312e+01
   4.829010e+01   5.815472e+01
  -4.633374e+01   5.552371e+01
  -4.904044e+01  -6.785342e+00
   3.702715e+01  -1.253610e+01
   5.642055e+01   1.776442e+01
  -1.257400e+01   3.187400e+01
  -6.438977e+01   2.191497e+01
  -1.129509e+02  -6.336148e+01
  -8.185608e+00  -1.555266e+02
   9.977323e+01  -1.306219e+02
   1.896775e+02   3.105704e+01
   1.450094e+02   1.148100e+02
   2.247192e+01   1.584512e+02
  -7.534224e+01   1.048500e+02
  -9.335457e+01  -8.150585e+00
  -4.357292e+01  -3.572876e+01
   8.011236e+00  -3.490350e+01
  -4.029251e+01   4.301059e+01
  -7.287413e+01  -2.161082e+01
  -5.880546e+01  -6.929299e+01
   2.881481e+01  -1.089329e+02
   9.659461e+01  -5.828636e+01
   1.149168e+02   4.197971e+01
  -1.204365e+01   1.063233e+02
  -1.141684e+02   3.716836e+01
  -1.454197e+02  -2.784600e+01
  -7.419639e+01  -1.602241e+02
   7.052470e+01  -1.325212e+02
   1.888967e+02  -4.641691e+01
   1.506469e+02   5.723410e+01
   5.383755e+01   1.069624e+02
  -3.883082e+01   8.502320e+01
  -3.392743e+01   3.282816e+01
  -5.557565e+01   4.813959e+01
  -1.102269e+00   1.044144e+02
  -9.043290e+01   7.002220e+01
  -1.210828e+02   4.848045e+00
  -8.840171e+01  -1.262782e+02
   4.363442e+00  -1.506340e+02
   9.022749e+01  -1.236580e+02
   1.261767e+02  -1.435593e-01
   6.935325e+01   5.126208e+01
  -2.817997e+01   8.741728e+01
  -8.217239e+01   5.478432e+01
  -2.823772e+01   8.814116e+00
  -5.977180e+00  -4.140605e+01
   3.313382e+01  -3.464650e+01
  -2.804529e+01   5.507748e+01
  -8.401873e+01  -1.064009e+01
  -2.935864e+01  -4.203386e+01
   3.277384e+01  -1.693723e+01
   1.041716e+02  -2.929324e+01
   9.324774e+01   7.066294e+01
  -1.573132e+01   8.074332e+01
  -1.342631e+02   6.323352e+01
  -1.081211e+02  -1.255384e+01
  -4.949321e+01  -4.186873e+01
   2.884521e+01  -5.440720e+01
   7.837030e+01   1.504962e+01
   1.785532e+01   7.055469e+01
  -1.604723e+01   5.172544e+01
  -4.942022e+01   1.215596e+01
  -5.049877e+01  -3.828307e+01
  -5.391578e+01  -6.688419e+00
  -5.007527e+01   1.475417e+01
  -6.284816e+01   1.321094e+01
  -2.687290e+01  -6.393359e+01
   8.754638e+00  -1.282926e+02
   5.986877e+01  -1.236983e+02
   1.239601e+02  -4.668936e+00
   1.247466e+02   8.546663e+01
  -1.599245e+01   9.668677e+01
  -6.560920e+01   5.213291e+01
  -3.206884e+01  -1.025117e+00
   2.683454e+01  -4.184801e+01
   1.039266e+02   2.027642e+01
   4.959557e+01   9.216109e+01
  -2.927802e+01   8.761792e+01
  -1.032347e+02   4.930549e+01
  -1.089802e+02  -1.505483e+01
  -3.260845e+01  -5.145141e+01
   3.694852e+01  -3.729691e+01
   5.127898e+01   4.299548e+01
  -5.161963e+00   3.066856e+01
  -7.163997e+01  -4.648296e+01
  -3.813196e+01  -7.919311e+01
   5.378097e+01  -1.420411e+02
   9.180945e+01  -6.226506e+01
   9.851712e+01   7.672630e+01
   3.770052e+01   1.192774e+02
  -5.401287e+01   9.632403e+01
  -6.765866e+01  -9.967457e+00
  -3.128909e+01  -7.653187e+01
   1.581062e+01  -6.855458e+01
   5.818761e+01   1.107834e+01
   1.797812e+01   4.620832e+01
   2.583738e+01   3.265760e+00
  -1.121647e+00   4.286916e+01
   3.875213e+01  -1.463660e+00
   3.950393e+01   4.395971e+01
   2.934129e+01   3.950228e+01
  -3.500945e+01   3.017529e+01
  -1.176184e+02  -2.428734e+01
  -6.345093e+01  -3.610209e+01
  -7.792414e+00  -4.663559e+01
   2.835918e+01   2.670107e+00
   4.346831e+01   8.343588e+00
  -1.239593e+01   3.082745e+01
  -3.279947e+01   3.505848e+01
  -1.912930e+01   1.779278e+00
   2.012948e+01   1.579656e+00
  -1.164102e+01   5.285152e+00
  -2.987655e+01  -7.836046e+00
  -9.121237e+01  -8.912088e+00
  -1.903779e+01  -4.798329e+01
   6.137834e+01  -9.686586e+01
   1.306555e+02  -1.073642e+02
   1.007550e+02   7.938818e+01
   3.746884e+01   8.481577e+01
  -3.252609e+01   9.350884e+01
  -1.022582e+02   5.328042e+01
  -4.847578e+01  -1.358042e+01
  -8.088426e-02  -1.845185e+01
   1.093915e+01  -1.625347e+01
  -4.029868e+01  -1.057478e+01
  -1.776406e+01  -5.005656e+01
   4.457758e+01  -4.655756e+01
   1.224377e+01  -7.173849e+01
   6.915407e+01   1.559187e+01
   7.184450e+01   8.484635e+01
   1.693776e+01   5.396026e+01
  -6.055555e+01   1.680988e+01
  -9.831937e+01  -2.826047e+01
  -3.712713e+01  -6.447522e+01
   2.861205e+01  -6.055789e+01
   9.110524e+01  -3.056176e+00
   2.870842e+01   6.097921e+01
  -3.446929e+01   5.034658e+01
  -2.253849e+01   1.513523e+01
   3.576652e+00  -1.211937e+01
   5.498225e+01  -4.088617e+01
   1.627186e+01   2.801922e+01
  -5.524040e+01   7.196074e+01
  -8.857795e+01   5.015066e+01
  -4.089994e+01  -2.634841e+01
  -5.885003e+00  -3.857064e+01
   1.939299e+01  -7.699904e+01
   3.935982e+01  -2.799825e+01
   1.006405e+01   4.273797e+01
   4.279221e-01   5.402185e+01
  -2.037511e+01   2.388418e+01
  -3.687673e+01  -4.122263e+01
  -3.311701e+01  -1.106731e+01
   1.318016e+01  -2.631430e+00
   7.010789e+01   2.209128e+01
   9.146844e+00   1.251476e+01
   1.440205e+00  -1.746220e+01
   2.006638e+01   5.021845e+00
   2.238525e+01   5.100540e+01
   1.518557e+01   4.038643e+01
  -3.970661e+00   2.870983e+01
  -3.148672e+01  -9.207198e+00
  -4.889367e+01  -7.637839e+01
   1.102981e+01  -3.933083e+00
   3.601374e+01  -1.025059e+00
   3.924481e+01   5.106750e+01
  -3.887666e+01   6.824203e+00
  -8.573118e+01  -2.216318e+01
  -3.768705e+01  -4.075975e+01
   5.931117e+01  -4.837979e+01
   5.210296e+01  -1.109560e+01
   4.338102e+01  -5.098731e+00
  -1.828599e+01   4.687872e+01
  -2.186733e+01   2.784619e+01
   1.114839e+01  -2.906208e+01
   5.205503e+01  -2.278373e+01
