
 $NMID
 id='ANONYMOUS ', fmtdat='(2E16.6)'
 volume=1.0
 tramp=1.0
 $END
   6.725322e+02   1.331251e+02
   5.611067e+02   1.461467e+02
   3.638980e+02   4.013319e+02
  -2.347364e+01   5.642286e+02
  -1.549866e+02   3.925863e+02
  -9.089999e+01  -2.003038e+01
   9.723311e+01   3.128499e+01
   2.921943e+01   5.023961e+01
  -3.412748e+01   1.555322e+02
  -1.011329e+02   7.534660e+01
  -8.764531e+01  -6.714737e+01
  -3.577535e+01  -9.075985e+01
  -3.795624e+01  -6.048486e+01
   6.110703e+01   7.120221e+01
   2.413959e+01   9.545866e+01
  -5.250185e+01   4.269062e+01
  -5.709346e+01  -8.487612e+01
   4.743139e+00  -1.104285e+02
   1.285324e+01  -4.024391e+01
   9.601534e+01  -1.083532e+01
   3.062046e+01   5.324493e+01
   4.363484e+00  -7.605978e-01
   2.855465e+01  -4.854407e+00
   1.125825e+02   4.933565e+01
   8.313624e+01   9.689561e+01
  -3.767330e+01   6.240821e+01
  -6.114667e+01  -1.904530e+00
  -1.293540e+02  -3.281147e+01
  -1.968386e+01   2.389764e+01
   5.107721e+01   4.626652e+01
   1.191332e+00   3.443574e+01
   1.763573e+01   6.417051e+01
  -2.246582e+01   4.416141e+01
  -4.978212e+01   2.020574e+01
  -6.789360e+01   5.884181e+00
  -2.533969e+01   1.529995e+01
  -6.970862e+00   5.095455e+00
  -6.297536e+01  -1.281165e+00
   2.086568e+00  -6.420040e+01
  -2.798431e+01  -3.469679e+01
   7.512037e+01  -5.597047e+01
  -6.823232e+01  -3.240689e+01
   6.583416e+01  -5.426261e+01
   1.260661e+01   2.633434e+00
  -9.319094e+00  -1.425745e+01
  -3.036560e+01  -8.175070e+01
   6.826017e+00  -7.611902e+01
   5.852660e+01   8.952662e+00
   1.441978e+02   1.123500e+02
   4.764572e+01   6.452543e+01
  -4.315826e+01   2.617071e+01
  -6.870798e+01   1.374965e+00
  -1.241836e+02  -4.108204e+01
  -3.612259e+01  -1.903584e+01
   6.929383e+01  -3.779100e+01
  -1.251172e+01  -3.040868e+01
   2.566861e+01  -5.008895e+01
   3.695559e+01   2.330502e+00
   1.921079e-01  -7.955051e+00
   6.731256e+01   3.329284e+00
   1.907747e+01   2.578216e+00
  -1.060173e+01   3.072784e+01
  -9.726777e+01   4.355744e+01
  -7.010024e+01  -3.441643e+01
  -1.299083e+01  -1.173651e+02
   8.619968e+01  -7.636601e+01
   1.348648e+02  -7.817969e+01
   7.375104e+01   3.655902e+01
   2.597117e+01   7.746204e+01
  -7.503710e+00   7.624586e+01
   2.749038e+01   5.152033e+01
  -2.470628e+01   2.831990e+01
  -2.148299e+01   7.033385e+01
  -6.394294e+01   2.813482e+01
  -3.791200e+01  -6.996139e+01
  -1.299151e+01  -4.355725e+01
   3.406615e+01  -5.092133e+01
   5.812917e+01   2.759697e+01
   1.649971e+01   7.204588e+01
  -1.486251e+01   3.835223e+01
  -3.579281e+01  -2.073330e+00
  -9.324745e+01  -4.427104e+01
  -2.220582e+01  -7.234838e+01
   7.361068e+00  -4.545188e+01
  -2.620314e+00   8.026746e+00
   1.320958e+00  -3.561914e+01
   3.022712e+01   1.633971e+00
   4.373905e+01   2.745597e+00
   8.608030e+01   5.312653e+01
   7.362378e+01   5.915129e+01
  -1.367212e+01   9.303057e+01
  -9.929053e+01   6.743988e+01
  -7.042778e+01   1.737753e+01
  -2.947924e+01  -5.353544e+00
   2.339600e+01  -1.431320e+01
   1.929866e+01  -2.977143e+01
  -1.814146e+01   3.015387e+01
  -5.088140e+01  -2.653371e+01
  -1.797112e+01  -1.828145e+01
   1.037905e+01  -3.004015e+01
   1.120177e+01  -2.822370e+01
   3.160661e+01   2.681910e+01
  -6.231761e-01   1.560267e+01
  -3.120693e+01   1.426200e+01
  -1.877917e+01   1.054470e+00
  -2.159054e+01  -8.573475e+01
   1.355146e+01  -4.891918e+01
   5.950021e+01  -1.539761e+01
   7.006080e+01   2.905716e+01
   1.794778e+01   6.308517e+01
  -1.406005e+01   2.369741e+01
  -1.073580e+01  -2.837613e+01
   7.907980e-01  -1.176034e+00
   1.803686e+01   6.685562e+00
   1.842946e+01   4.464277e+01
  -1.784604e+01   8.850141e+00
  -5.571971e+01  -5.984546e+00
   2.833551e+00   3.574497e+00
   1.165702e+01   6.259485e+00
  -8.395270e+00   3.849396e+00
  -3.002416e+01   2.670671e+01
  -8.830365e+01  -1.225341e+01
  -4.796894e+01  -7.439397e+01
   1.074308e+01  -6.284813e+01
   6.050176e+01  -2.060080e+01
   6.815038e+01  -2.116979e+01
   3.025167e+01   4.246084e+01
  -2.499503e+01   1.153075e+01
   3.694325e+00   3.137570e+01
   2.036043e+01  -2.268709e+01
   1.169259e+01  -6.946505e+00
   3.758876e+01  -1.757935e+01
   1.555642e+01   6.867188e+00
  -4.222994e+01   3.055482e+01
  -1.461832e+00   3.491186e+00
  -1.961521e+01  -1.510746e+01
   4.444131e+01   1.440699e+00
  -9.852969e+00   1.924919e+01
  -4.304163e+01   2.013457e+01
  -2.965468e+01  -2.990362e+01
  -5.325457e+01  -4.278114e+01
   2.071850e+01  -6.432529e+01
   5.274062e+01  -2.241008e+01
   2.466686e+01   1.682557e+01
   5.067604e+01  -2.363953e+01
   4.689826e+00   3.868992e+00
   1.698005e+00  -1.302104e+01
  -2.191408e+00   1.839607e+01
   4.522379e+00   1.996015e-01
  -1.793723e+01  -4.442216e+00
  -1.076230e+00   1.598061e+00
  -4.156977e+00  -3.929364e+01
  -2.496381e+01  -3.264024e+01
   6.180813e+01  -6.789484e+01
   2.836641e+01  -8.455974e+00
   5.430789e+01   4.714307e+01
   9.508227e+00   4.460147e+01
   4.084450e+00   2.899376e+01
  -1.093701e+01   2.355100e+00
  -1.779164e+01  -3.253346e+01
  -1.645288e+01  -3.087066e+01
   4.273076e+00  -5.245958e+00
  -2.616413e+01  -6.662762e+00
  -1.239279e+01  -2.627980e+01
   4.591250e+00  -1.206198e+01
   3.659217e+01  -1.136327e+01
   4.350417e+01  -7.874873e+00
  -7.682860e+00   2.125871e+01
  -1.062244e+01   1.836338e+01
  -3.287625e+01  -1.522548e+01
  -3.886308e+00  -4.062861e+01
   4.299383e+01  -2.346716e+01
   7.056201e+01  -2.716241e+01
   4.870141e+01   5.831228e+00
   9.422929e+00   3.012136e+01
  -2.820462e+01   4.892485e+01
  -3.693687e+01   3.924623e+01
  -1.582442e+01   2.716967e+01
  -2.211791e+01   3.783937e+01
  -3.802893e+00  -2.281515e+01
  -3.231363e+01  -1.671687e+01
  -7.537033e+00   3.362538e+00
   2.138145e+00  -1.179796e+01
   4.410264e+01  -3.726088e+01
   9.361930e+00  -1.120899e+01
   5.024898e+01  -5.403209e+00
  -9.117234e+00  -6.817736e+00
  -1.343159e+01   1.039059e+01
  -1.576662e+01   2.398987e+01
   2.081140e+01   5.159684e+00
   5.154595e+00  -6.412349e+00
   1.851675e+00  -6.854106e+00
  -2.714046e+01   1.565126e+01
  -2.187700e+01  -5.854662e+00
   2.889609e+01  -1.991637e+00
   4.445492e+01  -1.201742e+01
   4.749077e+01   2.361807e+01
  -4.609048e-01   1.371862e+01
  -9.604361e+00   2.962505e+01
  -2.202677e+01   1.602776e+01
  -2.754826e+01  -2.838227e+01
   4.075834e+00  -2.670514e+01
   1.361487e+01  -1.639264e+01
   2.604003e+01   3.704202e+01
  -8.281985e+00   2.628337e+01
  -3.697027e+01   2.190153e+01
  -2.398340e+01   2.576894e+00
  -4.057597e+01   1.421057e+01
   4.132889e-01  -2.400669e+01
  -2.007738e+01   1.400301e+00
   2.584837e+01  -3.964260e+01
   2.866567e+01  -1.925423e+01
   4.098533e+01  -2.882248e+01
   5.646561e+01   3.316005e+01
   1.020810e+01   2.611429e+01
  -2.028530e+01   4.486148e+01
  -5.141257e+01   1.820100e+01
  -1.022093e+01   1.933238e+01
   1.779199e+01  -1.240910e+01
   1.308566e+01  -1.488908e+01
   1.428765e+01   3.173438e+01
  -2.407032e+01   2.650826e+01
  -1.185376e+01   3.134511e+01
  -1.889438e+01  -1.022492e+01
  -2.898502e+01  -4.601609e+00
  -2.349951e+01  -3.575642e+01
   1.218530e+01  -2.420078e+01
  -1.131689e+00   7.172939e-02
  -9.936422e+00  -1.254361e+01
   9.035943e+00  -2.937788e+01
   3.454999e+01  -1.971905e+01
   1.668433e+01  -2.721013e+01
   1.905344e+01   1.976268e+01
   2.520238e+01   1.196521e+01
   1.373222e+01   1.532219e+01
  -2.452628e+01  -1.075112e+01
  -2.111835e+01   1.222616e+01
   2.874911e-01  -6.836478e+00
  -6.401421e+00  -7.780520e+00
  -2.768110e+00  -1.502148e+01
   8.362249e+00   4.985247e+00
  -5.427225e+00  -1.478356e+01
   8.798901e+00  -2.737004e+00
   2.956134e+01   4.014043e+00
  -2.969586e+01   2.494771e+01
  -4.343607e+01   6.966417e+00
  -2.640609e+00  -3.880864e-01
   2.561723e+01  -1.349389e+01
  -1.074326e+00  -1.575514e+01
   7.974125e+00  -1.876278e+01
  -6.186003e+00  -5.517450e+01
  -9.039767e+00  -4.209464e+00
  -2.655471e+00   2.262071e+01
   5.133681e+00   9.864542e+00
   2.708753e+01  -1.879026e+01
   1.559446e+01  -1.781572e+00
  -3.170179e+01  -8.624018e+00
  -4.058972e+01  -1.950684e+00
   6.827957e-01   3.738568e+00
   3.784219e+01  -1.409166e+01
   5.021164e+01   1.460767e+01
   3.335665e+01  -7.118034e+00
  -3.034717e+00   4.209396e+01
  -1.376297e+01   3.297562e+01
  -8.877487e+00  -6.020200e-01
  -1.679409e+01  -3.492566e+01
   2.343715e+01  -2.655036e+01
   1.744594e+01  -5.603849e+00
  -3.703381e+00  -3.219750e+00
  -2.215727e+01  -8.673405e+00
   3.189765e+01  -5.201226e+00
   2.534441e+00  -1.914710e+01
   3.877200e+00   7.556845e-01
   1.148472e+01   1.777998e+01
   1.863935e+01   4.456569e+01
   2.639757e-01   1.289324e+01
  -1.214115e+01  -1.601538e+01
  -2.897313e+01  -2.162092e+01
   1.518469e+01  -2.364422e+01
   2.677675e+01   1.304807e+00
   2.192831e+01   2.146660e+01
  -2.080591e+01   2.943600e+01
   1.397933e+01   3.830808e+00
   4.394866e+01   1.326323e+01
   1.276102e+01  -5.286148e+00
   3.813772e+00  -2.079319e+01
  -1.748263e+01   1.877473e+01
  -6.460067e+01   1.380208e+01
   1.186516e+01  -5.463793e+00
   2.462130e+00  -2.062206e+01
  -1.752510e+01  -2.948684e+01
   4.985464e+00  -1.133381e+01
   4.275938e+01   1.836791e+00
   8.778463e-01   8.966403e+00
   3.460883e+00  -6.880305e+00
  -3.817974e+01   1.328149e+00
   7.386826e+00   8.347603e+00
   1.815413e+01   7.915756e+00
   1.903523e+01  -3.814244e+01
  -8.470808e+00  -1.130042e+01
  -3.007650e+01  -3.102453e+01
  -2.110181e+01   3.541947e+00
  -1.259029e+01  -1.371768e+00
  -2.009022e+00   2.069995e+01
  -4.084898e+00   1.158085e+01
  -2.038985e+01   2.347863e+01
  -9.910840e+00  -1.566200e+01
  -8.566899e+00  -1.647412e+01
   1.572329e+01   1.958905e+01
   3.189083e+01   8.748340e+00
  -1.506382e+01   1.656858e+00
  -9.724748e+00  -9.082159e+00
  -8.255498e+00   1.192921e+01
   1.697091e+01  -1.917795e+01
   1.179178e+01  -1.890772e+01
  -1.348989e+01  -2.684030e+00
   1.836265e+00   1.183979e+01
   1.541396e+01   2.486550e+01
  -1.410563e+01  -1.509122e+01
   2.137619e+00  -3.424801e+01
