
 $NMID
 id='ANONYMOUS ', fmtdat='(2E16.6)'
 volume=1.0
 tramp=1.0
 $END
   1.133162e+03   3.609449e+02
   6.393081e+02   6.366269e+02
  -9.688062e+01   4.496000e+02
  -4.737949e+02   1.983432e+02
  -2.553856e+02   4.487008e+01
   1.492201e+01  -7.013295e+00
   3.108791e+01   1.126359e+02
  -7.668422e+01   1.103285e+02
  -1.345709e+02   1.320100e+02
  -1.648525e+02   6.380482e+00
  -1.424761e+02  -1.379251e+02
   6.125574e+01  -1.470761e+02
   1.164952e+02  -6.252522e+01
   9.224438e+01   1.246503e+02
  -3.629626e+01   1.777196e+02
  -1.235097e+02  -9.543847e+00
   3.521522e+01  -1.971555e+02
   5.495118e+01  -1.709179e+02
   1.333891e+02  -2.812864e+01
   1.348523e+02   5.619497e+01
   6.168021e+01   7.873225e+01
  -3.805035e+01   6.342232e+01
  -1.495327e+01  -2.442786e-01
   4.790611e+01   6.282601e+00
   9.998035e+01   7.447358e+01
   6.676108e+00   9.760920e+01
  -1.238018e+02   8.536423e+01
  -1.887185e+02  -7.191771e+01
  -4.575988e+01  -1.216170e+02
   1.254274e+02  -4.357404e+01
   1.627236e+02   1.409483e+02
   3.452083e+01   1.296017e+02
  -1.167155e+02   1.250767e+02
  -1.429603e+02   4.348799e+01
  -6.376816e+01  -6.623232e+01
  -2.122216e+01  -8.249832e+01
  -7.878594e-01  -3.079580e+01
  -1.607422e+01   5.690236e+01
  -7.017853e+01   3.783090e+01
  -1.511011e+01  -3.986857e+01
   1.650330e+00  -1.371514e+02
   1.050334e+02  -1.736693e+02
   8.945854e+01   2.641637e+01
   8.172739e+01   8.999887e+01
  -2.889195e+01   4.798581e+01
  -3.316510e+01  -8.351452e+01
  -5.851234e+00  -1.028311e+02
   6.293297e+01  -1.749713e+01
   4.526611e+01   9.715588e+01
   1.630945e+01   1.389510e+02
  -5.968724e+01   5.135458e+01
  -1.091667e+02  -2.593681e+01
  -9.232068e+01  -1.205861e+02
   1.974870e+00  -6.756775e+01
   6.184895e+01  -1.713204e+01
   6.366961e+01  -4.158948e+01
   2.961488e+01   3.367561e+00
   7.772005e+00   4.540454e+00
   3.286044e+01   1.247074e+01
   8.156376e+01   2.705914e+01
   2.064982e+01  -2.523971e+00
  -2.587828e+01   4.620060e+01
  -1.085748e+02  -2.755079e+00
  -3.361376e+01  -3.321897e+01
   3.825783e+00  -5.216278e+01
   6.723282e+01  -6.494512e+01
   8.614146e+01  -3.648871e+01
   7.549007e+01   4.107307e+01
   1.936048e+01   6.486457e+01
  -4.450323e+01   1.390727e+02
  -1.340314e+01   3.355913e+01
  -4.677916e+00   4.349756e+01
  -3.868771e+01   6.018267e+01
  -3.164130e+01  -4.654302e-01
  -5.344574e+01  -5.911934e+01
  -4.827812e+00  -8.008338e+01
   2.848389e+01  -7.072184e+01
   4.483601e+01   2.827634e+01
   4.464483e+01   1.176532e+01
  -3.250791e+01   7.176902e+01
  -9.712235e+01  -8.851226e-01
  -6.942477e+01  -5.289781e+01
  -2.613193e+01  -5.521581e+01
   1.263184e+01  -4.770709e+01
   4.454235e+01  -3.550970e+01
   3.216531e+01  -1.838019e+01
   3.641512e+01  -7.971976e-01
   8.793112e+01   2.711082e+01
   1.091853e+02   6.846430e+01
   1.128458e+02   3.591259e+01
   2.126539e+01   1.096597e+02
  -1.327385e+02   1.289188e+02
  -1.366561e+02   5.473040e+01
  -9.097932e+01  -6.902974e+01
  -9.736413e+00  -5.656141e+01
   4.517586e+01  -6.220063e+01
   7.306984e+00  -9.378247e+00
  -5.711632e+01   5.008689e+00
  -6.454473e+01  -3.642707e+01
  -5.798450e+00  -7.723648e+01
   6.074398e+01  -5.313607e+01
   4.931912e+01   2.777839e+01
  -8.494740e+00   3.913655e+01
  -2.670620e+01   3.582997e+01
  -2.548957e+01  -4.071254e+01
  -7.149012e+00  -7.983796e+01
   6.167254e+01  -4.382335e+01
   8.906734e+01   3.548140e+01
   5.586293e+01   7.530398e+01
   2.849842e+01   8.812093e+01
  -2.909598e+01   4.159078e+01
  -7.180610e+01  -1.148237e+01
  -2.213738e+01  -1.401475e+01
   1.150336e+01   1.665836e+01
  -1.393482e+00   3.362400e+01
   2.543368e+00   4.481394e+00
  -4.760102e+01  -2.564895e+01
  -6.304436e+00  -5.058188e+00
   4.300549e+01   7.509518e+00
  -2.272041e+00   7.081792e+00
  -1.561968e+01   4.030637e+01
  -7.747280e+01   8.126490e-01
  -8.893364e+01  -5.732726e+01
  -6.744738e+00  -3.373126e+01
   6.106624e+01  -2.989989e+01
   5.366580e+01   1.623697e+01
   2.506227e+01   2.019809e+01
  -1.846703e+01   1.730114e+01
  -3.293926e+01  -1.577754e+01
   1.878611e+01  -2.795970e+01
   6.866128e+01  -2.188269e+01
   5.573574e+01   3.729608e+01
   1.485517e+01   7.162201e+01
  -4.993539e+01   5.429126e+01
  -5.006673e+01  -2.698153e+00
  -2.046595e+01  -2.881867e+01
   3.317840e+01   6.582640e+00
   1.526133e+01   1.456132e+00
  -4.331012e+01   3.963403e+01
  -3.436522e+01  -1.074523e+01
  -2.603538e+01  -3.593573e+01
   1.946107e+01  -5.677765e+01
   3.704356e+01  -7.707855e+01
   2.313507e+01   4.502407e+00
   2.186401e+01   1.115977e+01
  -3.532037e+01   3.906890e+01
  -1.731793e+00  -1.219678e+01
   5.406318e+00  -6.068520e+00
   1.895663e+01  -1.912188e+01
  -2.090060e+01  -1.065240e+01
  -2.153170e+01   6.641924e-01
  -1.549913e+01  -4.976916e+01
  -4.298629e+00  -2.921005e+01
   7.645629e+01  -6.522313e+01
   5.188320e+01   7.799379e+00
   5.754517e+01   5.244229e+01
   1.479702e+01   7.141420e+01
  -2.409863e+01   1.488001e+01
  -4.280334e+01   2.076331e+01
  -4.795923e+00   8.053676e+00
   1.145616e+01   3.757755e-01
  -6.187666e+00   5.589769e+00
  -2.469380e+01   2.239870e+01
  -2.433823e+01  -1.465843e+01
   1.870443e+01  -4.106529e+01
   2.687887e+01  -1.487617e+01
   4.499081e+01   2.297877e+01
  -1.449458e+00   1.763709e+01
  -2.667742e+01   2.279348e+01
  -3.423193e+01  -3.309409e+01
  -9.902156e+00  -6.471176e+01
   1.026421e+01  -7.254980e+01
   6.101560e+01   4.245809e+00
   3.940677e+01   3.052418e+01
   1.450458e+01   3.999263e+01
   6.905961e+00   2.099111e+01
  -1.303208e+01  -7.877714e+00
  -2.061594e+01   3.297865e+01
  -6.985237e+00   1.973444e+01
   1.119582e+01   5.408616e+00
  -1.164266e+01  -3.770462e+01
  -1.312529e+01  -4.122356e+01
  -5.024959e+00  -7.644043e+01
   5.579289e+01  -4.563092e+01
   1.234026e+01   3.450376e+01
   3.102767e+01   5.451011e+01
  -1.321839e+01   3.930880e+01
   9.857080e+00   2.682948e+01
  -1.063870e+01   1.682154e+01
  -6.942239e-01  -1.683211e+01
   4.910123e+00  -3.199423e+01
   1.762838e+01  -2.166690e+01
   1.944007e+01  -7.648447e+00
  -1.924838e+01  -5.324584e+00
   2.943551e+01   6.573745e+00
   4.328613e+01   1.188939e+01
   1.953607e+01   1.369984e+01
   2.348104e+01   5.190363e+01
  -2.849899e+00   3.105218e+01
  -5.064527e+01  -7.772009e+00
  -2.315375e+01  -1.999189e+01
  -1.034405e+01  -2.312942e+01
   1.550846e+00  -2.505220e+00
  -3.773041e+00   2.238764e+01
   1.977912e+01  -6.058891e+00
  -3.075645e+01  -5.807693e+00
   1.690251e+01   4.954142e+00
  -2.619806e+01  -3.494309e+01
  -1.710656e+01   5.834060e+00
  -6.405528e+00  -3.043139e+01
   1.858573e+01  -1.302266e+01
   3.116911e+00  -4.196495e+01
   3.665910e+01  -4.137575e+01
   5.847403e+01   1.643293e+01
   2.832630e+01   5.560541e-01
   1.323514e+01   4.124677e+01
  -2.418515e+01   1.240250e+01
   4.131039e+00  -2.715422e+00
   3.622491e+00  -7.055589e+00
   2.933826e+01   5.746286e+01
  -1.826464e+01   1.826525e+01
  -5.156480e+01   1.467347e+01
  -8.556735e+01   2.472146e+01
  -3.061444e+01  -2.720460e+01
   3.039014e+00  -3.993296e+01
   2.161361e+01  -3.522135e+01
   3.900627e+01  -2.043924e+01
   3.598929e+00   4.828786e+00
   1.196576e+01  -1.006801e+01
  -1.656894e+01  -6.047399e+00
   7.250338e+00  -2.592019e+01
   2.822847e+01  -1.459102e+00
   3.381473e+01   2.722967e+01
   3.423721e+00   3.325858e+01
  -3.786162e+01   1.543439e+01
  -2.540643e+01  -8.118704e+00
  -3.600784e+01  -4.956290e+01
  -1.314903e+01  -6.712524e+01
   1.123914e+01  -1.116240e+01
   4.668482e+00  -3.901836e+00
  -1.344386e+01   1.339985e-01
  -3.302057e+01   2.360488e+01
   6.985618e-02   3.318104e-01
  -1.521037e+01   8.817804e+00
   2.363923e+01   6.289978e+01
  -1.441487e+01   2.042879e+01
  -3.702789e+01  -7.219559e+00
  -4.170101e+01  -2.420415e+01
   1.306290e+01  -1.293695e+01
   1.300168e+01  -2.208342e+01
   3.662677e+00  -2.682039e+01
  -3.929193e+00  -1.411483e+01
  -2.142941e+01   2.082549e+01
  -1.507181e+01  -2.103288e+01
   1.441620e+01  -1.730823e+01
   1.501600e+01   1.332061e+01
  -2.148908e+01   6.040510e+00
  -2.273847e+01   8.879759e+00
  -4.388359e+00  -9.469716e+00
   1.846637e+01  -4.852325e+01
   2.606495e+01  -2.780054e+01
   2.006640e+01  -1.374136e+01
   1.251075e+01   4.086006e+01
  -4.461423e+01   6.301537e+01
  -1.838229e+01   3.642116e+01
  -2.358924e+01  -1.804924e+01
  -2.694691e+01   5.145294e+00
   2.190546e+01  -1.371210e+00
  -3.316622e+00  -4.433318e+00
   1.958385e+01  -1.044278e+01
   1.044770e+01  -4.579746e+01
   2.479781e+00  -2.837256e+01
   2.163044e+01   1.392131e+01
   3.314134e+00   4.437593e+01
  -1.238377e+01   3.827961e+01
  -5.050348e+00   3.691711e+00
   5.751187e+00  -2.370247e+01
  -4.205089e+01  -2.191546e+01
   1.795130e+01  -6.555846e+00
   3.659911e+01   2.426063e+01
   1.861498e+01   8.300251e+00
  -4.148164e+00   3.359499e+01
  -3.504409e+01   3.368016e+00
  -4.136404e+00   3.627696e+01
  -2.154329e+00   1.523269e+01
   1.190075e+01  -2.163874e+01
   1.705750e+00   1.187743e+01
  -3.530201e+01  -9.850834e+00
  -7.288427e+00  -1.253259e+01
   7.734810e+00  -3.606810e+01
   2.903053e+01   2.799025e+00
  -4.619908e-01  -8.841663e+00
   1.762330e+01   1.125950e+01
  -2.425434e+01   2.168635e+00
  -5.105006e+00  -5.380472e+00
   6.043689e+00  -2.030035e+01
   5.990156e+00  -8.289233e+00
  -4.472557e+00   8.330843e+00
   1.326506e+01   2.079782e+01
   1.469951e+01   6.869836e-01
  -1.435472e+01  -1.340941e+01
  -2.700541e+01  -1.265387e+01
   2.266393e+01   2.153011e+01
   2.138875e+01   2.142105e+01
   1.744209e+01   3.516150e+00
  -3.487678e+00  -5.209569e+00
  -3.789243e+00  -3.632940e+00
   2.438395e-01  -2.516014e+01
   1.933398e+01  -1.815584e+01
   3.396292e+01   5.791665e+01
  -3.693586e+01   1.517047e+01
  -3.436551e+01   3.364592e+00
  -1.489122e+00  -2.422745e+00
   5.244279e+01  -9.651150e+00
   2.691751e-01  -1.358654e+01
   1.967126e+00  -1.233565e+01
  -4.003483e+00   3.868452e-01
  -1.178919e+01   7.647169e+00
  -7.072054e+00  -6.515230e+00
   1.304487e+01  -3.562068e+01
