
 $NMID
 id='ANONYMOUS ', fmtdat='(2E16.6)'
 volume=1.0
 tramp=1.0
 $END
  -3.223578e+03   3.067781e+02
  -2.055324e+03  -1.367884e+03
   4.708683e+01  -1.778332e+03
   1.323268e+03  -9.619568e+02
   6.983991e+02   8.221100e+01
  -1.826601e+02   2.652696e+02
  -5.621799e+02  -2.385871e+02
  -1.254516e+01  -6.356167e+02
   4.318264e+02  -5.740170e+02
   6.939670e+02  -3.206346e+01
   3.738793e+02   5.008998e+02
   7.945848e+00   5.445876e+02
  -3.070221e+02   1.526347e+02
  -1.907851e+02  -4.315351e+02
   1.226001e+02  -4.843664e+02
   4.554657e+02  -2.663457e+01
   2.524508e+02   4.692719e+02
  -1.828161e+02   5.365795e+02
  -4.341494e+02   2.277159e+02
  -3.260065e+02  -2.280704e+02
  -6.976816e+01  -3.584811e+02
   1.448165e+02  -1.947200e+02
   1.219483e+02  -4.766062e+01
  -1.596292e+02  -2.204412e+01
  -2.802893e+02  -2.201125e+02
  -4.735120e+01  -3.230126e+02
   3.930933e+02  -1.692033e+02
   6.083452e+02   1.360228e+02
   2.130864e+02   3.299494e+02
  -2.699026e+02   2.442271e+02
  -5.060213e+02  -2.127037e+01
  -2.028537e+02  -3.465144e+02
   2.201999e+02  -3.024244e+02
   3.767562e+02  -1.579467e+02
   3.021420e+02   1.631034e+02
   6.691837e+01   2.863407e+02
  -5.793825e+01   1.733329e+02
  -5.201295e+00  -1.119394e+02
   1.557271e+02  -2.065139e+02
   2.253211e+02   1.110186e+02
   3.841380e+01   4.576170e+02
  -1.754420e+02   4.184539e+02
  -3.101597e+02  -1.897425e+00
  -1.442521e+02  -3.173124e+02
   1.222351e+02  -1.242767e+02
   2.203460e+02   2.658437e+02
  -7.917876e+01   3.318756e+02
  -3.720001e+02   8.490326e+01
  -4.170797e+02  -2.697483e+02
  -1.842187e+02  -4.431790e+02
   2.356802e+02  -2.533327e+02
   4.193433e+02   1.020945e+02
   3.149259e+02   2.143932e+02
  -6.291897e+01   2.219036e+02
  -2.803278e+02  -5.895781e+00
  -2.091900e+02  -9.375969e+01
   1.433327e+01  -4.900589e+01
   7.218465e+01   6.564643e+01
  -8.537176e+01   8.917028e+01
  -1.625507e+02  -3.945240e+01
  -5.795740e+01  -1.654879e+02
   1.531261e+02  -2.015640e+02
   2.789872e+02  -1.142715e+02
   2.030915e+02   5.893543e+01
  -1.945792e+01   2.266703e+02
  -1.780106e+02   3.353940e+02
  -2.901806e+02   1.774077e+02
  -2.379728e+02  -1.172669e+02
  -7.402144e+01  -2.992287e+02
   4.538221e+01  -2.577074e+02
   5.033446e+01  -1.021898e+02
   2.174950e+01  -6.724362e+01
   9.259163e+01  -6.741697e+01
   2.141564e+02  -4.795903e+01
   2.220815e+02   9.593114e+01
   9.353394e+01   2.127713e+02
  -7.588489e+01   1.794752e+02
  -1.785818e+02  -3.236623e+01
  -1.391064e+02  -2.316604e+02
   3.263736e+01  -2.311907e+02
   2.021317e+02  -3.810121e+01
   3.043225e+02   1.376676e+02
   1.549562e+02   2.514606e+02
  -7.887398e+01   2.441630e+02
  -1.249639e+02   1.517089e+02
  -1.058912e+02   4.369052e+01
  -1.052911e+02   5.048565e+01
  -2.273777e+02   7.720775e+01
  -3.527666e+02  -1.029460e+02
  -2.658145e+02  -2.430842e+02
   3.160622e+00  -4.239389e+02
   3.536250e+02  -3.415575e+02
   3.885135e+02  -1.317663e+02
   2.614384e+02   9.088136e+01
   1.899258e+01   2.197535e+02
  -1.190370e+02   1.988024e+02
  -5.987419e+01   2.261742e+01
   8.002924e+01  -6.677045e+01
   1.425340e+02   1.613633e+01
   1.166127e+01   1.354272e+02
  -1.152222e+02   9.450647e+01
  -8.965048e+01  -9.383530e+00
   3.359722e+01  -1.451083e+02
   1.598860e+02  -2.876005e+00
   1.499346e+02   1.831984e+02
  -3.486294e+01   3.041205e+02
  -2.180693e+02   1.839508e+02
  -3.373570e+02  -5.433160e+01
  -2.984603e+02  -2.101443e+02
  -3.540051e+01  -2.511764e+02
   8.610344e+01  -1.566321e+02
   1.280225e+02  -5.751796e+00
   2.910899e+01   3.103249e+00
  -5.296297e+01  -3.159931e+01
  -2.836312e+01  -1.083318e+02
   1.312225e+02  -4.925872e+01
   1.243037e+02  -4.276877e+00
   4.399253e+01   2.087537e+01
  -4.868673e+01   3.515735e+01
  -1.481008e+01  -5.654359e+01
   1.106260e+02  -1.065296e+02
   2.108651e+02  -2.196410e+01
   2.002255e+02   1.051300e+02
   6.103430e+01   2.364463e+02
  -1.759614e+02   1.784273e+02
  -2.024679e+02   9.554254e+01
  -1.298745e+02  -4.402003e+01
   2.215081e+01  -7.089459e+01
   6.869877e+01   3.019130e+00
  -4.341369e+01   5.327255e+01
  -1.537253e+02   5.064806e+01
  -1.687981e+02  -9.885818e+01
  -6.024746e+01  -1.551133e+02
   4.155038e+01  -1.214406e+02
   1.124989e+02  -1.239325e+01
   3.716734e+01   2.367125e+01
  -4.303619e+01  -3.388361e+01
  -1.965677e+01  -1.041470e+02
   9.137719e+01  -1.015917e+02
   1.853022e+02  -1.351486e+01
   1.695130e+02   1.101375e+02
   1.450077e+01   2.152071e+02
  -1.221519e+02   1.236808e+02
  -1.480501e+02   2.074334e+01
  -6.933145e+01  -8.688338e+01
   5.894298e+01  -8.373280e+01
   6.164196e+01  -5.182682e+01
  -7.689667e+00   2.500322e+01
  -4.848993e+01  -8.648553e+00
  -5.982017e+00   3.500216e+00
   2.135056e+01  -1.043470e+01
   9.460283e+01   3.635865e+01
   1.567434e+01   1.301625e+02
  -1.492295e+02   1.490888e+02
  -2.051315e+02   6.507334e+00
  -1.480377e+02  -1.126200e+02
  -2.140762e+01  -1.733553e+02
   7.755267e+01  -1.534922e+02
   1.002930e+02  -3.497364e+01
   5.518742e+01   2.721833e+01
   2.174353e+01  -1.614950e+01
   2.168290e+01  -1.387773e+01
   5.138383e+01  -2.133831e+01
   2.469021e+01   5.010783e+01
  -5.043378e+01   9.822160e+01
  -7.262027e+01   4.857033e+01
  -8.966988e+01  -3.298846e+01
   2.137252e+01  -9.864764e+01
   1.264806e+02  -6.597671e+01
   1.655216e+02   6.013187e+01
   6.568267e+01   1.834162e+02
  -7.459276e+01   1.760220e+02
  -2.637422e+02   4.292803e+01
  -1.906249e+02  -8.149222e+01
  -7.224791e+01  -1.546298e+02
  -1.122752e+01  -1.443102e+02
   7.751347e+01  -7.686768e+01
   7.827278e+01  -9.033573e+01
   6.445222e+01  -6.260684e+01
   6.893440e+01  -5.918546e+01
   1.217040e+02   3.854699e+01
   9.182379e+01   1.585801e+02
   3.102027e+01   1.786127e+02
  -1.094402e+02   1.568122e+02
  -1.432075e+02   4.319960e+01
  -8.757194e+01  -7.281969e+01
  -2.407520e+01  -1.572036e+02
   6.857641e+01  -5.441367e+01
   3.454244e+01   6.003012e+00
   1.547687e+01   4.199463e+01
  -3.695770e+01   1.822714e+01
   2.693328e+01   1.777366e+01
   6.355136e+01   1.185935e+01
   4.239393e+01   5.785250e+01
  -9.731519e+01   5.347939e+01
  -1.575825e+02   1.445439e+01
  -1.187330e+02  -1.364656e+01
   3.625486e-01  -8.630839e+01
   1.130770e+02  -7.857977e+01
   1.257438e+02   1.239674e+01
   5.490474e+01   4.955211e+01
  -2.504721e+01   4.643673e+01
  -5.168344e+01   3.544203e+00
  -3.458044e+01  -5.170478e+01
   3.079539e+01  -6.733168e+01
   5.820564e+01  -4.113113e+00
   5.173019e+01   4.637989e+01
   4.894147e+01   2.318953e+01
   3.218160e+01   4.699122e+00
   6.898542e+01   6.551840e+00
   5.668275e+01   4.487687e+01
  -1.767701e+01   1.324485e+02
  -7.445889e+01   1.104347e+02
  -1.492649e+02   3.302529e+01
  -1.067836e+02  -3.857253e+01
   6.672884e+00  -1.197452e+02
   5.218865e+01  -4.666185e+01
   9.340504e+01   5.073026e-01
  -2.133956e+01  -1.054312e+01
  -1.057111e+02  -2.533692e+00
  -5.289854e+01  -8.859168e+01
   8.807141e+01  -7.366010e+01
   1.244417e+02  -6.076215e+01
   1.119999e+02   2.458336e+01
   3.111289e+01   6.446621e+01
  -3.417190e+01   6.308701e+01
  -6.581744e+01  -6.497000e+00
   5.366879e+01  -1.292835e+01
   5.791537e+01   8.873237e+00
   4.003772e+01   6.367480e+01
  -6.137283e+01   1.201315e+02
  -1.250858e+02   8.821236e+01
  -6.418271e+01  -5.618067e+01
  -4.046836e+01  -1.402609e+02
   7.123107e+01  -1.307511e+02
   7.352252e+01  -6.518633e+00
   6.822669e+01   1.093667e+02
   1.761297e+00   9.234721e+01
  -3.784629e+01   6.115529e-01
  -5.058403e+01  -3.798710e+01
  -6.464189e+00  -1.725728e+01
  -7.424257e+00   1.543201e+01
  -2.768564e+01  -3.807349e+01
  -5.644664e+01  -6.514796e+01
  -1.703848e+00  -1.113945e+02
   3.110295e+01  -3.677179e+01
   1.415105e+02   1.360912e+01
   1.167417e+02   3.554390e+01
   6.062940e+01   5.759335e+01
  -6.856086e+01   8.356221e+01
  -7.207830e+01  -7.087423e-01
  -1.221100e+01   1.249547e+01
   2.050404e+01  -1.304063e+01
   1.866963e+01   6.848625e+00
  -1.323842e+01  -2.091511e+01
   3.095429e+01  -2.811121e+01
   8.092053e+01   1.407526e+01
   8.797427e+01   2.127093e+01
   1.246305e+01   5.664464e+01
  -9.833767e+01   1.025794e+02
  -1.533073e+02   6.549915e+01
  -1.317201e+02  -7.487948e+01
   1.673696e+01  -1.645474e+02
   9.026536e+01  -1.113680e+02
   1.099289e+02  -6.330446e+01
   6.433830e+01  -1.671635e+00
   5.598427e+00   3.011549e+01
  -3.550583e+00  -4.191990e+00
   3.960932e-01  -1.087164e+01
   3.045701e+01   5.311997e+01
   1.740525e+01   7.329874e+01
  -8.385851e+00   6.833804e+01
  -7.448429e+01  -5.295668e+00
  -8.038538e+01  -7.249040e+01
   6.196146e+00  -9.302515e+01
   7.765798e+01  -4.076802e+00
   8.590103e+01   5.285643e+01
   2.843019e+01   5.912965e+01
  -3.381518e+01   6.754429e+01
  -1.084473e+02  -1.523422e-04
  -2.625437e+01  -5.986137e+01
   2.242712e+01  -6.787434e+01
   3.235142e+01  -1.360143e+01
   9.052725e+00   1.364998e+01
  -5.445594e+01   3.288075e+01
  -3.866990e+01  -1.037328e+01
   3.765152e+01  -6.401541e+01
   8.471153e+01  -6.629290e+01
   6.288097e+01  -2.286020e+01
   7.932113e+00   8.253351e+01
  -5.352803e+01   7.163365e+01
  -3.607566e+01   2.330714e+01
   6.778552e+00  -4.023219e+01
  -3.722885e+00  -3.841361e+01
   1.926882e+00  -1.686499e+01
   1.565540e+01   4.286680e+01
  -6.716572e+00   1.489391e+01
  -2.368771e+01   9.985096e+00
  -2.004469e+01   4.535735e+00
  -6.029614e+00  -1.070713e+01
  -4.765631e+00   1.073706e+01
   2.177778e+01   1.014672e+01
  -2.350157e+01  -1.943399e+01
  -5.751341e-01  -3.727325e+01
  -4.821900e+00   6.420560e+00
   1.221612e+01   4.510989e+01
   2.658801e+01   4.783263e+01
  -1.795475e+01   1.130088e+01
  -4.407489e+01  -1.891717e+01
  -5.305252e+00  -2.118999e+01
   4.847185e+01  -2.776553e+01
   8.683030e+01   3.160472e+01
   5.547789e+01   2.229156e+01
  -4.061233e+01   1.998298e+01
  -4.522113e+01   4.431862e+01
  -2.126470e+01  -8.325346e+00
   4.905899e+01  -1.576997e+01
   4.106386e+01   1.553403e+01
   6.372408e+00   3.208746e+01
  -4.748036e+01   7.753424e+00
