
 $NMID
 id='ANONYMOUS ', fmtdat='(2E16.6)'
 volume=1.0
 tramp=1.0
 $END
   1.138367e+03  -9.704135e+01
   7.482248e+02   1.345719e+02
   4.638337e+02   5.593904e+02
  -2.175868e+01   6.099808e+02
  -2.971717e+02   3.487664e+02
  -1.813774e+02   1.638333e+01
  -6.032505e+01  -4.427985e+01
   3.528451e+01   1.051894e+02
   2.067590e+01   1.544498e+02
  -9.050573e+01   2.593996e+01
  -1.006754e+02  -1.023592e+02
  -6.068835e+01  -9.112203e+01
  -3.526990e-01  -4.921243e+01
   3.489724e+01   9.941519e+01
   1.650745e+01   5.867619e+01
  -8.001733e+01   2.392216e+01
  -1.074927e+02  -1.391916e+02
  -5.647572e+01  -1.918082e+02
   8.645812e+01  -1.002356e+02
   1.078297e+02   2.308847e+01
   6.147978e+01   7.978134e+01
   1.936307e+01   4.341600e+01
   5.480749e+01   7.566867e+00
   9.456634e+01   9.862423e+01
   8.791246e+01   1.279255e+02
  -9.981611e+01   7.785127e+01
  -1.539861e+02  -7.439002e+00
  -1.315994e+02  -4.369757e+01
   3.131517e+01  -6.038267e+01
   9.461915e+01  -2.463919e+00
   1.497210e+02   1.239766e+02
   4.003733e+01   1.118225e+02
  -9.290366e+01   6.283477e+01
  -9.193438e+01  -9.064814e+00
  -6.248941e+01  -6.165281e+00
  -5.104275e+01  -6.862200e+01
  -7.264210e+01  -1.978228e+01
  -8.729097e+01  -7.700715e-01
  -2.645307e+01  -2.297687e+01
  -3.927746e+01  -6.540428e+01
   7.288899e+01  -4.529866e+01
   9.127317e+00  -6.029749e+01
  -1.317287e+01   2.586756e+01
  -2.869971e+01   3.682310e+01
  -1.114014e+01   3.010427e+01
  -1.449739e+01  -1.263185e+02
   4.314768e+01  -1.122523e+02
   9.630273e+01   3.150216e+01
   1.343553e+02   7.927706e+01
   1.015389e+02   1.505827e+02
  -5.505415e+01   4.936961e+01
  -1.352215e+02   2.937759e+01
  -9.615804e+01  -1.718183e+01
  -1.170237e+01  -4.567858e+01
   2.168265e+01  -1.512452e+01
   5.029556e+01  -2.751094e+01
   2.453718e+01  -3.007449e+01
  -1.140434e+01   1.972420e+01
   2.836622e+01   9.131246e+00
   4.009536e+01  -2.234308e+01
   2.475562e+01   2.101812e+01
  -4.348451e+01   6.521375e+01
  -1.342550e+02   1.977204e+01
  -9.578126e+01  -5.883798e+01
   3.100404e+01  -1.487513e+02
   1.119735e+02  -1.204503e+02
   1.405405e+02  -2.074060e+01
   9.812270e+01   7.446949e+01
   3.803020e+01   9.060726e+01
   3.947080e+01   1.155522e+02
   2.777791e+01   8.900150e+01
  -2.006093e+01   1.080472e+02
  -8.325869e+01   7.152774e+01
  -9.049424e+01   1.446671e+01
  -8.842228e+01  -5.723746e+01
   1.579052e+01  -7.561878e+01
   2.776404e+01  -5.729424e+01
   6.704516e+01   3.168281e+01
   4.101444e+01   9.514833e+01
  -4.125217e+01   9.599154e+01
  -7.024665e+01  -5.825502e+00
  -1.021218e+02  -7.271990e+01
  -1.019835e+01  -6.308658e+01
  -4.824761e+00  -3.227182e+01
   2.949650e+01  -3.758549e+01
   6.824146e+01  -4.452179e+01
   8.149532e+01  -4.491389e+00
   1.178310e+02  -2.878435e+01
   1.533133e+02   5.324779e+01
   1.148755e+02   1.213825e+02
  -4.529938e+01   1.593832e+02
  -1.265600e+02   1.408641e+02
  -1.677537e+02   2.713749e+01
  -7.377339e+01  -1.169738e+01
   3.185338e+01  -7.733429e+01
   1.290603e+01  -1.293997e+01
  -3.045701e+01   4.125720e+01
  -6.698322e+01   1.757127e+01
  -5.791480e+01  -3.775301e+01
   9.610051e+00  -7.061255e+01
   4.134118e+01  -5.251650e+01
   3.318997e+01   4.898218e+01
  -1.679094e+01   3.539385e+01
  -6.437826e+01   3.335160e+01
  -2.709392e+01  -3.590902e+01
  -2.219835e+01  -8.023632e+01
   8.974571e+01  -5.373665e+01
   1.082242e+02   4.338233e+01
   8.962321e+01   7.182048e+01
   8.627656e+00   4.989199e+01
  -2.060803e+01   5.667100e+01
  -3.294621e+01  -6.606121e+00
   1.763287e+00   4.597046e+01
  -5.232961e+00   4.191254e+01
  -5.196956e+01   2.187578e+01
  -5.742695e+01  -2.084118e+01
  -3.591934e+01  -2.434620e+01
   2.109075e+01  -6.071089e+00
   5.920936e+01   1.366863e+01
   1.117442e+00   1.143456e+01
  -1.062319e+02   4.123681e+01
  -1.093465e+02  -1.631509e+01
  -6.270295e+01  -3.392008e+01
   3.078303e+01  -7.768104e+01
   6.651618e+01  -3.947646e+01
   5.429187e+01  -7.229084e+01
   9.551463e+00   2.740287e+01
  -1.492404e+01  -1.884510e+00
   5.916018e-01   1.455604e+01
   1.823766e+01  -1.216679e+01
   5.933152e+01   1.440197e+01
   1.699902e+01   1.592155e+01
  -1.052673e+01   5.928930e+01
  -4.738601e+01   1.985760e+01
  -4.784785e+01  -1.682610e+01
  -1.438415e+01  -4.055104e+00
   1.030814e+00   1.868737e+01
  -1.116878e+01  -8.966599e+00
  -4.319865e+01   2.375295e+01
  -8.200476e+01  -2.021689e+01
  -4.683558e+01  -7.017668e+01
  -1.112117e+01  -5.481229e+01
   4.849165e+01  -6.756988e+01
   5.839020e+01   2.515652e+01
   7.213223e+00   3.824735e+01
  -2.292328e+01   2.407652e+01
  -2.794293e+01   1.495518e+01
   5.285728e+00  -2.384224e+01
   3.230378e+01  -1.575324e+01
   2.324506e+00  -5.750669e+00
  -1.652954e+01   2.304267e+01
  -2.700234e+01  -3.374595e+01
  -1.962481e+01  -6.277220e+01
   3.877899e+01  -4.082009e+01
   4.595990e+01   1.331002e+01
   9.475414e+01   1.927083e+01
   1.683273e+01   6.644572e+01
  -4.667324e+01   4.533600e+01
  -4.761651e+01  -8.949129e+00
  -1.942016e+01  -1.626204e+01
   7.216500e+00  -2.777996e+01
  -4.628765e+00   2.638365e+01
  -5.061098e+01   2.392793e+01
  -1.206606e+01  -2.602937e+01
   1.598158e+01  -4.606081e+01
   4.336841e+01  -2.476474e+01
   5.531651e+01   2.589902e+01
   6.104601e-01   5.916136e+01
  -5.407810e+01   2.978850e+01
  -8.799302e+01  -4.105134e+01
  -7.611255e+01  -7.595718e+01
   4.949709e+00  -3.661187e+01
   1.556434e+02  -3.287960e+01
   7.603705e+01   5.249636e+01
   3.619053e+01   5.476960e+01
  -3.571825e+01   5.806804e+01
  -3.099195e+01   3.261652e+01
  -4.916929e+00   2.878076e+01
  -2.998894e+01   1.334105e+01
  -4.646619e-01   4.165901e+01
  -4.436114e+01   7.968053e+00
  -5.420694e+01  -4.689360e+01
  -1.314151e+01  -6.228231e+01
   5.594481e+01  -6.440005e+01
   6.870259e+01  -3.278825e+01
   7.065302e+01   6.152963e+01
   1.753715e+01   6.014156e+01
  -2.395914e+01  -1.030180e+01
   4.377270e+00  -1.586436e+01
   2.436764e+01  -2.718217e+01
   7.250869e+00  -1.650290e+01
  -2.895672e+01   6.906058e+00
  -4.970031e+01  -9.432389e+00
  -4.425804e+01   5.568915e+00
   3.049768e+01   2.951106e+00
   6.182495e+01   1.618315e+01
   7.816686e+01   3.233019e+01
  -1.586033e+01   3.330998e+01
  -9.334629e+01   2.852843e+01
  -6.088192e+01   1.369781e+01
  -2.182038e+01  -1.051786e+01
   6.920838e+00  -2.626849e+01
   3.192695e+01   8.743426e+00
   2.769893e+01   2.613494e+01
  -1.796963e+01   2.381065e+01
  -3.692758e+01   3.367840e+00
  -4.894507e+01  -1.821518e+01
  -1.324540e+01  -4.338783e+01
   2.306400e+01  -1.598152e+01
  -5.901251e+01  -1.307689e+01
  -3.083401e+01  -4.125423e+01
   1.196787e+01  -4.608276e+01
   5.037502e+01  -4.462613e+01
   6.559631e+01   1.900816e+01
   4.397008e+01   3.484605e+01
   1.665145e+01   5.511636e+01
  -1.353949e+01   3.258531e+01
  -1.268689e+01  -1.027519e+01
   6.434886e+01  -3.554252e+01
   4.756085e+01   2.700667e+01
  -2.357402e+00   6.136540e+01
  -3.735170e+01   1.182088e+01
  -7.776678e+01  -6.954144e+00
  -5.325004e+01  -3.238259e+01
  -4.434312e+01  -2.118323e+01
   1.225603e+01  -1.897758e+01
  -7.923464e-01  -1.359275e+01
   2.310817e+01  -3.617014e+00
  -2.917470e+01   1.194784e+01
  -2.072321e+00  -3.808804e+01
   3.386477e+01  -4.916944e+01
   2.025107e+01  -1.528210e+01
   3.055948e+01   8.617089e+00
   2.666335e+01   5.872839e+01
   1.512339e+00   5.480464e+01
  -2.335237e+01  -2.259431e+01
  -2.841280e+01  -3.854981e+01
   2.642340e+01  -4.262859e+01
   1.507006e+01   5.371324e+00
  -3.518858e+00  -2.938934e+00
  -1.910044e+01   7.358618e+00
  -2.349400e+01  -1.550225e+01
   1.843889e+01   6.826348e+00
  -8.021689e+00   1.157956e+01
  -2.221640e+01   2.256030e+01
  -1.892240e+01   5.441950e+00
  -5.420323e+01   8.993970e+00
  -2.344025e+01   2.908306e+01
   1.223874e+00   6.771914e+00
  -2.166136e+01  -1.811357e+01
   2.777681e+01  -3.055363e+01
  -5.213918e+00   1.010670e+01
   3.162849e-01   1.146087e+01
  -1.168770e+01   2.455593e+01
   1.798657e+01   8.778757e+00
   3.320632e+01  -9.567007e+00
  -1.303339e+01  -1.585005e+01
  -2.492116e+01   1.325369e+01
  -5.195176e+00  -3.249558e+01
   2.107995e+01  -1.543347e+01
   4.865170e+01  -2.182895e+01
   5.522603e+01   2.655551e+01
   5.013673e+00   7.023154e+01
  -3.019464e+01   7.259640e+01
  -8.804624e+01   4.176316e+00
  -8.152187e+00  -1.455205e+01
  -2.474596e+00  -8.742537e+00
  -1.804264e+01  -1.085427e+01
   5.476292e+00  -3.414633e+00
  -8.465314e+00  -3.869489e+00
   3.225062e+01  -3.420423e+01
   2.226350e+01  -6.957393e+01
   3.499592e+01   2.281923e+01
   3.754082e+01   3.953643e+00
   1.502180e+01   4.979416e+01
   5.565368e+00   1.413310e+01
  -2.643571e+01  -1.681282e+01
  -3.585599e+01  -4.362546e+01
   1.074972e+01   6.238664e+00
   3.398343e+01  -2.973272e+00
   1.118644e+01   3.047740e+01
  -3.943747e+01   1.253115e+01
   1.958933e+00   1.989574e+01
   2.127685e+01  -3.090486e+00
   2.095933e+01  -2.223957e+01
  -1.107397e+01   3.687567e+01
  -1.103296e+01   3.423516e+01
  -3.705814e+01   3.975528e+01
  -7.409661e+00   7.936548e+00
   4.778948e+00  -3.008698e+01
   5.752433e-01  -3.594463e+01
   2.392035e+01  -1.734622e+01
   7.297736e+00   6.315236e+01
  -1.023161e+01   2.317975e+01
  -3.155484e+01  -1.635722e+00
  -9.205320e+00   2.833774e+00
   3.786534e+00  -8.562826e+00
   2.589832e+01   6.619870e+00
   1.591073e+01  -2.432009e+01
   6.398807e+00  -2.101038e+00
  -5.905945e+00  -3.748716e+00
  -3.955285e+00   2.398228e+01
   5.871267e+00   9.103939e+00
  -7.575987e+00   4.226679e+01
   1.089286e+01  -1.569926e+01
  -3.686868e+01  -7.443772e-01
  -5.108118e+00  -8.609507e+00
  -3.676342e+01  -4.995538e+01
   1.737266e+01   1.083060e+00
  -1.674889e+01  -7.496268e+00
  -2.715837e+01  -2.406544e+01
  -1.373818e+01   2.319363e-01
  -1.000577e+01  -1.517890e-01
  -5.958427e+00  -3.329096e+01
   1.267536e+01  -2.069675e+01
  -4.139412e+00  -4.887753e+01
   6.685217e+00   4.711050e+00
   5.526661e+00   8.963788e+00
  -3.874317e-01  -8.579974e-02
   3.251844e+00   1.444546e+01
