
 $NMID
 id='ANONYMOUS ', fmtdat='(2E16.6)'
 volume=1.0
 tramp=1.0
 $END
  -9.952706e+02  -8.040334e+01
  -5.172989e+02  -6.208622e+02
   3.149395e+02  -3.747864e+02
   4.045776e+02  -1.592090e+02
   2.113681e+02  -2.321665e+01
  -9.392340e+01  -9.520221e+01
  -4.500436e+01  -2.562734e+01
   5.377416e+01  -4.666711e+01
   9.222158e+01  -1.027684e+02
   1.592115e+02   2.230104e+01
   9.916589e+01   1.055585e+02
   1.432416e+01   1.464969e+02
  -9.976990e+01   8.091394e+01
  -1.077056e+02  -8.264997e+01
  -4.176658e+01  -1.597389e+02
   5.500833e+01  -2.270718e+00
   6.001665e+01   1.103730e+02
   5.003189e-01   1.034024e+02
  -7.907755e+01   3.220489e+01
  -9.561760e+01  -4.043906e+01
  -1.957300e+01  -6.016264e+01
   6.942593e+01  -9.943789e+01
   4.054278e+01  -4.490444e+01
  -1.220536e+01  -1.768362e+01
  -9.322723e+01  -6.311895e+01
  -1.732789e+01  -2.335858e+01
   5.875255e+01  -5.189892e+01
   1.552055e+02   3.089244e+01
   7.650370e+01   9.591139e+01
  -4.765343e+01   3.542659e+01
  -1.096502e+02  -2.241767e+01
  -6.129885e+01  -7.261973e+01
   6.033433e+01  -6.087214e+01
   4.548307e+01  -4.073515e+01
   4.363547e+01   1.221239e+01
   4.145440e+01   2.191695e+01
  -2.784271e+01   2.022987e+01
   9.709272e-01  -1.098337e+01
   2.436774e+01  -6.897490e+01
   4.875141e+01   4.824577e+01
  -9.997246e-01   9.945349e+01
  -1.373842e+02   1.218706e+02
  -9.671572e+01  -4.994002e+00
  -8.112195e+01  -6.074009e+01
  -1.935991e+01  -3.187415e+01
   3.683704e+01   3.513759e+01
   3.678507e-01   2.872577e+01
  -2.371240e+01  -3.409034e-01
  -7.997743e+01  -4.766778e+01
  -4.415860e+01  -5.562147e+01
   3.607907e+01   2.460838e+00
   7.771869e+01   2.431077e+01
   4.183727e+01   1.015663e+02
  -4.032135e+01   3.143093e+01
  -4.289830e+01   6.961831e+00
  -4.887820e+01   6.010580e+00
  -2.296160e+01  -4.077382e+01
   1.924559e+01  -2.433468e+00
  -3.615126e+01   4.740598e+00
  -4.820040e+01  -3.325044e+01
   1.065002e+01   1.292115e+01
   2.072428e+01  -3.244961e+01
   7.805694e+01  -2.120705e+01
   2.941664e+01   7.698626e-01
   1.405390e+01   4.839221e+01
  -4.238013e+01   6.400952e+01
  -5.100557e+01   4.550888e+01
  -4.046831e+01  -3.915899e+01
  -6.493887e+00  -3.370914e+01
   6.541524e+00  -9.780729e+01
   2.677136e+01  -2.521708e+01
  -1.658669e+01  -8.602057e+00
  -1.861265e+01   6.207513e+00
   7.333511e+01  -3.988663e+00
   1.486373e+01   4.974558e+00
   5.269003e+01   6.088485e+01
  -1.496512e+01   5.366229e+01
  -2.836898e+01   4.541138e+00
  -4.525722e+01  -6.910260e+01
  -1.383530e+01  -3.967683e+01
   4.562318e+01  -5.237315e+00
   6.184084e+01   3.215875e+01
   6.636257e+01   3.294452e+01
   5.432126e+00   4.461674e+01
  -2.768359e+01   4.974534e+01
  -2.283095e+01   5.460971e+01
  -4.034641e+01  -6.732821e+00
  -8.309431e+01   1.322453e+00
  -1.025940e+02  -3.890542e+01
  -5.725395e+01  -3.918369e+01
  -2.353793e+01  -6.920635e+01
   8.110186e+01  -1.187921e+02
   1.003997e+02  -6.557124e+01
   6.983801e+01   2.457573e+01
   4.494713e+00   1.061253e+01
  -3.533347e+01   3.947244e+01
  -7.431271e+00  -9.533357e+00
   3.211626e+01  -2.271689e+01
   2.975687e+01   8.139697e+00
  -2.499682e+01   9.521641e+00
  -4.367899e+01   2.033960e+01
  -3.679182e+01  -1.331483e+01
   2.371829e+01  -1.861997e+01
   5.866473e+00   1.283310e+01
   4.764379e+01   1.244015e+01
   9.640868e+00   4.622509e+01
   1.427045e+01   1.570102e+01
  -4.699368e+01  -4.488619e-01
  -7.366074e+01  -4.581471e+01
  -6.734016e+00  -5.371812e+01
   1.483131e+01  -6.376973e+01
   2.458683e+01  -1.873816e+01
   3.319981e+01  -1.277574e+01
   3.588299e+01   3.103917e+00
  -9.855275e+00  -4.029403e+01
  -5.962336e-01  -1.203452e+01
   1.670924e+01  -7.329091e+00
   1.282613e+01   9.984049e+00
  -2.733515e+01   1.254881e+01
   1.438609e+01   4.000273e+01
   5.334083e+01  -1.221087e+01
   4.012499e+01   1.116590e+01
   5.384633e+01   4.100111e+01
  -8.635117e+00   1.662053e+01
  -5.179040e+01   4.303903e+01
  -5.847834e+01   1.170935e+01
  -3.668767e+01  -2.702205e+01
  -7.414483e+00  -2.498626e+01
  -3.826125e+00  -9.181699e+00
  -8.149901e+00   1.434833e+01
  -4.707848e+01   1.214530e+01
  -3.027306e+01   6.361615e+00
  -2.863711e+01  -1.566509e+01
  -1.428113e+01  -3.605719e+01
   7.680581e+00  -1.948277e+01
   3.190071e+01   2.112186e+01
   8.352429e+00   1.478134e+01
   2.034309e+01   8.536722e+00
   1.155185e+01   2.898562e+00
   2.235444e+01  -1.042951e+01
   3.962202e+01   3.292933e+00
   1.586152e+01   3.655199e+01
   1.702300e+01   3.394548e+01
  -1.010318e+01   6.834206e+00
  -2.724819e+01  -3.118383e+01
  -1.096858e+01  -2.113952e+01
   6.353652e+00  -5.002628e+01
   6.652191e+00  -1.333158e-01
   1.230180e-01   7.536821e+00
  -1.914632e+01  -4.131230e+00
  -9.314030e+00   9.617414e+00
  -1.274980e+01   2.762484e+01
   2.515875e-01   2.171489e+01
  -2.327625e+01   2.266322e+01
  -4.312594e+01  -3.217751e+01
  -3.984307e+01  -2.374499e+01
  -4.220506e-02  -2.339215e+01
  -2.120347e+01  -6.156658e+01
   5.476056e+00  -5.143432e+01
   1.744265e+01   2.096641e+00
   1.660326e+01   2.194123e+01
  -4.994977e+00  -1.751124e+01
   1.766744e+01  -4.615525e+01
   2.861850e+01   2.980812e+00
  -2.678212e+01  -4.339274e-01
  -9.658089e+00   1.469791e+01
  -1.524581e+01   1.151871e+01
  -3.038801e+01  -3.451448e+01
   2.449598e+00   1.806910e+01
   2.438084e+01   1.567228e+01
   3.059288e+01   2.487402e+01
   1.370605e+01   3.097107e+01
  -2.733120e+01  -1.939591e+00
  -4.785214e+01   3.108866e+00
  -4.239769e+01  -2.117415e+01
  -8.560042e+00  -4.749944e+01
   3.057923e+01   1.764305e+00
   2.471600e+01  -3.172683e+01
  -3.104617e+01  -3.140251e+01
  -7.070827e+00  -2.963541e+01
  -1.445405e+01  -2.932252e+00
   6.387123e+00  -8.899404e+00
   3.362428e+01   2.008459e+01
  -1.808223e+01   2.523998e+01
  -1.415557e+01  -1.644260e+01
  -5.367673e+01  -5.502112e+00
   1.781635e+01  -2.556888e+01
   1.326940e+01  -2.942027e+01
   2.150220e+01   1.897993e+01
   2.909186e+00   2.997919e+01
   8.793598e+00  -1.020630e+01
   1.046942e+00   1.399396e+01
  -3.262890e+00  -1.316626e+01
   1.189489e+01   1.540093e+01
  -2.966461e+01  -8.522924e+00
  -4.452354e+01  -7.559721e-01
  -4.559466e+01  -1.057905e+01
  -2.422363e+01  -3.455863e+01
   1.473377e+01  -3.752789e+01
   2.977881e+01   1.792438e+01
   3.259896e+01   1.611600e+01
  -2.801290e+00   1.806754e+01
  -4.031585e+01   1.302533e+01
  -2.854169e+00  -2.378063e+01
   1.985009e+01   6.688796e+00
   3.239156e+01   4.145258e+01
   1.275906e+01   4.826230e+00
   3.779050e+01  -2.051646e+00
   4.765690e+01  -1.532389e+00
   1.627063e+01   3.929444e-01
  -9.632225e+00   2.135371e+01
  -2.889753e+01   6.432906e+00
  -1.197828e+01   4.549310e+01
  -1.825074e+01  -2.256768e+00
  -3.182163e+01  -7.852673e+00
  -1.975272e+01  -2.097015e+01
  -2.433961e+01  -1.771399e+00
  -9.981570e+00   1.449112e+01
  -1.041377e+01  -3.082985e+01
  -4.271428e+01  -3.151940e+01
  -2.217404e+00  -1.931702e+01
   3.629279e+01   1.929194e+00
   7.576134e+01   3.774588e+01
   2.431291e+01   1.638564e+01
  -2.431696e+01   1.887029e+01
  -3.571876e+01   2.942152e+01
  -2.386969e+01  -2.066320e+01
  -1.647531e+01  -1.101538e+01
   3.843916e+00  -2.009036e+01
  -2.557526e+00   1.880943e+01
  -2.894790e+01   2.630617e+01
  -1.355426e+00  -3.299758e+00
   1.671565e-01  -2.794342e+01
   1.409359e+01  -1.815089e+01
   3.375364e+01  -6.369247e+00
   3.006882e+01  -3.760094e+00
   2.887441e+01  -6.975255e+00
   7.258754e+00   3.115675e+01
   1.460795e+01   7.308181e+00
   7.496080e+00  -1.717590e+01
   7.983397e+00   4.485700e+00
  -1.158393e+01   1.226409e+01
  -8.624747e+00  -1.770765e+01
  -2.370105e+01   5.607010e+00
   2.903622e+00  -2.067345e+01
  -2.251864e+01  -2.782025e+01
   2.541410e+01  -1.423612e+00
   3.232283e+01   1.200097e+01
  -1.788867e+01   2.500912e+01
   3.902890e+00   1.896183e+01
  -2.234526e+01  -1.126068e+01
   1.300756e+01   2.362815e+00
  -7.567236e+00   2.002168e+01
   1.796944e+01   6.233046e+00
   7.925494e+00  -3.932618e-01
  -1.064083e+01   1.040626e+01
   2.248570e+01  -1.316067e+01
   2.459099e+01   1.325857e+01
   2.274175e+01   3.076241e+00
  -3.050535e+01   1.381424e+01
  -4.936992e+01   6.245886e+00
  -1.139148e+01   1.281477e+01
  -7.691667e+00  -1.113740e+00
  -2.304580e+00  -2.714436e+01
   3.534460e+00  -3.508011e+01
   1.533693e+01  -2.060838e+01
   2.023619e+01  -1.396610e+01
   1.872040e+01   1.522060e+00
   1.585604e+01  -3.590753e+01
   7.271430e-02   2.630429e+01
  -1.053879e+01   2.424833e+01
  -3.198060e+01   3.322925e+01
  -1.391232e+01  -2.131780e+00
   7.447354e+00  -2.764118e+01
   3.881597e+00  -4.944815e+00
   3.892294e+00   3.211295e+01
   1.295833e+01   5.687841e+00
   1.074918e+01   2.033097e+00
   1.028019e+01  -1.330472e+01
  -7.845604e+00   1.368746e+01
   1.999958e+01   7.676606e+00
   5.972083e-01  -7.718873e+00
   8.993584e+00   8.547968e+00
  -5.286076e+01  -1.475975e+01
  -9.982773e+00  -1.537441e+01
   2.825165e+01   9.011084e+00
  -1.360073e+01  -1.713624e+01
  -1.506116e+01   1.448033e+01
  -1.247364e+01   7.063901e+00
  -6.236524e+00   2.644707e+01
  -4.560803e+00   1.465989e+01
   8.419723e+00   1.810391e+00
   4.302429e+00   1.885630e+01
   9.417439e+00   8.057796e+00
   1.695819e+01   2.003233e+01
   1.867122e+01   6.150625e+00
   2.460896e+01  -7.441030e+00
  -2.169288e+01  -2.023652e+00
   6.058688e+00   1.430548e+01
  -1.225888e+01  -9.296658e+00
   8.988912e+00  -2.408829e+01
  -1.369665e+01  -2.612422e+01
   7.069270e+00   2.513386e+00
  -8.004038e+00  -9.748924e+00
  -6.666340e+00  -9.067865e+00
  -1.883900e+01  -1.799332e+01
   1.280270e+01  -6.935794e-01
   3.237930e+01  -6.413113e+00
  -5.075773e+00  -1.639910e+01
  -1.171156e-01  -9.780049e+00
   1.204719e+01  -1.732959e+01
  -4.870883e+00   3.622799e-01
   3.413741e+01   1.229208e+01
  -1.699316e+01   1.880307e+01
  -1.745895e+01   1.732124e+01
  -1.141762e+01  -2.321549e+01
   2.346791e+00  -9.105764e-01
  -6.801848e+00   1.032146e+00
   2.218840e+01   3.321640e+01
   6.001962e+00   1.157161e+01
