
 $NMID
 id='ANONYMOUS ', fmtdat='(2E16.6)'
 volume=1.0
 tramp=1.0
 $END
  -2.506587e+03  -1.615912e+02
  -1.195090e+03  -1.816013e+03
   6.430987e+02  -1.689089e+03
   1.238550e+03  -3.996456e+02
   5.439682e+02   5.103037e+02
  -3.735040e+02   4.499569e+02
  -6.567258e+02  -2.178825e+02
  -5.338423e+01  -7.064663e+02
   5.395511e+02  -5.075528e+02
   7.337240e+02   2.174223e+01
   3.473128e+02   6.230477e+02
  -2.061842e+02   6.006702e+02
  -4.629851e+02   7.787094e+01
  -2.618089e+02  -5.182174e+02
   2.321625e+02  -6.242245e+02
   4.848250e+02   4.419157e+01
   2.075691e+02   5.501775e+02
  -1.980638e+02   4.884083e+02
  -4.460172e+02   1.221612e+02
  -3.470630e+02  -2.709707e+02
  -9.376618e+00  -3.696976e+02
   2.040435e+02  -2.057182e+02
   2.093085e+02   2.674567e+01
  -4.436757e+01   1.353284e+02
  -3.453424e+02  -1.118830e+02
  -2.029942e+02  -3.485071e+02
   2.913341e+02  -2.597210e+02
   5.777398e+02   3.906716e+01
   3.065894e+02   3.923486e+02
  -2.420470e+02   3.496936e+02
  -5.204138e+02  -1.173663e+01
  -2.827425e+02  -3.733952e+02
   1.948230e+02  -4.165652e+02
   4.731821e+02  -1.900179e+02
   3.120702e+02   2.239340e+02
   1.541849e+01   3.842791e+02
  -1.519602e+02   2.188356e+02
  -1.676050e+02  -1.625895e+02
   1.069127e+02  -3.455478e+02
   3.117342e+02   6.567174e+01
   1.941538e+02   5.354915e+02
  -2.640160e+02   5.190035e+02
  -4.346570e+02  -3.705921e+00
  -2.213864e+02  -3.709244e+02
   1.888374e+02  -2.335569e+02
   3.017774e+02   2.046832e+02
  -1.058036e+01   3.879089e+02
  -3.750881e+02   8.965715e+01
  -4.471288e+02  -2.413394e+02
  -1.338228e+02  -4.139394e+02
   2.656540e+02  -2.667166e+02
   4.620793e+02   1.978006e+01
   2.526095e+02   2.488423e+02
  -9.787466e+01   2.596493e+02
  -3.018055e+02   6.137656e+01
  -2.024277e+02  -1.134990e+02
   6.510047e+01  -8.431647e+01
   7.925958e+01   7.527260e+01
  -8.758179e+01   1.437447e+02
  -2.112848e+02  -7.585624e+01
  -9.631310e+01  -1.946549e+02
   1.409684e+02  -1.366931e+02
   2.232933e+02  -4.509431e+01
   1.619845e+02   6.868392e+01
  -7.125524e-01   1.905217e+02
  -2.416862e+02   2.031514e+02
  -2.745735e+02   1.064579e+02
  -1.838100e+02  -1.059875e+02
  -3.078948e+00  -2.943050e+02
   1.268111e+02  -2.311434e+02
   7.366890e+01  -3.599350e+01
  -1.988798e+01   2.211182e+01
   1.259622e+01  -7.433935e+01
   1.327547e+02  -1.434432e+02
   1.939639e+02  -1.960662e+01
   9.159840e+01   1.714143e+02
  -5.246136e+01   1.842381e+02
  -1.460532e+02   2.338966e+01
  -1.225231e+02  -1.624023e+02
   7.066708e+00  -2.142543e+02
   1.404517e+02  -1.114410e+02
   2.360238e+02   1.048097e+02
   1.730059e+02   2.417827e+02
  -5.780364e+01   2.696285e+02
  -1.928678e+02   8.065625e+01
  -1.191594e+02  -3.200647e+01
  -9.232981e+01  -9.810574e+00
  -1.754354e+02   3.262215e+01
  -2.440341e+02  -8.052640e+01
  -2.065277e+02  -2.495058e+02
  -2.189651e+01  -2.754816e+02
   2.553691e+02  -3.006268e+02
   3.349377e+02  -1.093023e+02
   2.061761e+02   8.382801e+01
   6.503712e+01   1.995491e+02
  -1.025024e+02   1.471529e+02
  -5.840137e+01   1.142250e+01
   8.665241e+01  -7.555364e+01
   1.407843e+02   8.572717e+00
   5.084530e+01   1.527118e+02
  -1.218849e+02   8.573003e+01
  -1.348935e+02  -3.854221e+01
   2.987997e+01  -1.159764e+02
   1.087592e+02   1.894035e+01
   1.134587e+02   1.875858e+02
  -2.759375e+01   2.649835e+02
  -1.444703e+02   1.472115e+02
  -2.491980e+02  -4.610383e+01
  -1.499807e+02  -1.516240e+02
  -6.838343e+01  -1.831870e+02
   7.401813e+01  -7.835736e+01
   1.038109e+02  -9.671631e+00
   5.402582e+01   2.151732e+01
  -4.404585e+01  -4.219646e+01
  -6.193072e+00  -9.827238e+01
   1.011994e+02  -4.358342e+01
   1.118418e+02   8.295845e+00
   3.267882e+01   4.232347e+01
  -6.483960e+01   1.588051e+01
   5.863817e-01  -5.302912e+01
   1.253249e+02  -6.248316e+01
   1.684233e+02   5.080893e+01
   1.661752e+02   1.402414e+02
   5.796993e+01   1.869971e+02
  -1.209875e+02   1.648154e+02
  -1.897044e+02   9.654030e+01
  -1.543502e+02  -6.608593e+01
   8.302665e+00  -6.018590e+01
   5.064760e+01  -1.708660e+01
  -2.644370e+01   6.016758e+01
  -1.316608e+02   4.300461e+01
  -1.506273e+02  -6.893588e+01
  -5.439815e+01  -1.621884e+02
   6.918972e+01  -9.391467e+01
   1.077172e+02  -1.284799e+01
   6.399805e+01   7.996929e+01
  -3.486411e+01   2.924624e+01
  -1.300324e+01  -8.451521e+01
   3.835626e+01  -9.786205e+01
   1.594061e+02  -2.959142e+01
   1.754815e+02   8.781438e+01
  -1.109609e+01   1.447920e+02
  -1.063526e+02   1.431271e+02
  -1.257552e+02   3.078291e+01
  -1.808292e+01  -7.318747e+01
   5.054988e+01  -1.084955e+02
   6.141192e+01  -4.942919e+00
  -1.633551e+00   4.217116e+01
  -3.330381e+01   2.590541e+01
   1.642595e+00  -4.233523e+00
   2.492111e+01   3.234706e+01
   6.406745e+01   4.470966e+01
  -1.002586e+01   1.252593e+02
  -8.967545e+01   8.910079e+01
  -1.732860e+02   1.667597e+01
  -1.572053e+02  -9.879998e+01
  -7.539848e+00  -1.763783e+02
   9.006626e+01  -1.483387e+02
   1.113887e+02  -2.124867e+00
   6.991716e+01   5.195832e+01
   4.035653e+01   3.897265e+01
   1.109231e+01   4.740491e+00
   4.500817e+01  -6.526993e+00
   4.742027e+01   3.491594e+01
  -3.370977e+01   4.654964e+01
  -5.286709e+01   2.638106e+01
  -3.256696e+01  -8.902096e+00
  -1.057180e+00  -4.428499e+01
   9.289640e+01  -6.374357e+01
   1.092569e+02   2.575148e+01
   4.314020e+01   1.293357e+02
  -7.743683e+01   1.449035e+02
  -1.693923e+02   5.658396e+01
  -1.468657e+02  -7.136794e+01
  -7.044520e+01  -1.199476e+02
   2.361228e+01  -1.210647e+02
   9.676453e+01  -4.407277e+01
   4.715530e+01  -2.748169e+01
   2.247088e+01  -6.193815e+01
   5.544198e+01  -4.673975e+01
   7.539997e+01   9.971754e+00
   7.661741e+01   8.159674e+01
   3.603978e+01   1.268840e+02
  -8.564019e+01   9.909966e+01
  -1.329984e+02  -5.378236e-01
  -7.303052e+01  -9.548822e+01
  -8.956189e+00  -8.702432e+01
   6.302029e+01  -4.043321e+01
   5.642859e+01   2.667098e+00
   1.550294e+01   2.711011e+01
  -3.851025e+01   2.838349e+01
   9.868415e+00   3.555128e+01
   3.230856e+01   2.382266e+01
   1.317924e+01   4.732673e+01
  -3.109115e+01   1.423903e+01
  -9.497457e+01   1.847080e+01
  -9.285067e+01  -2.175613e+00
  -1.381689e+01  -5.841741e+01
   9.866177e+01  -4.877235e+01
   1.137013e+02  -2.147460e+01
   7.412142e+00   2.142758e+01
  -1.940320e+01   1.645996e+01
  -2.492215e+01  -1.217097e+01
   6.042214e+00  -7.609541e+01
   5.064602e+01  -4.534030e+01
   3.125176e+01   1.242865e+01
   3.147787e+01   5.186088e+01
   4.439100e+01   3.197442e+01
   6.096842e+01   3.953186e+01
   6.258702e+01  -2.165232e+01
   4.947403e+00   4.386967e+01
  -8.506053e+00   1.198875e+02
  -9.916954e+01   7.151594e+01
  -1.321804e+02   1.351436e+01
  -1.128347e+02  -8.626567e+01
  -1.413293e+01  -1.077784e+02
   5.798049e+01  -2.590014e+01
   4.721068e+01   8.166305e+00
  -1.001854e+01   1.995039e+01
  -1.036830e+02  -1.720704e+01
  -2.891755e+01  -4.434974e+01
   6.199566e+01  -4.446671e+01
   1.130127e+02  -1.634769e+01
   1.114649e+02   5.728361e+00
  -3.851125e+00   5.616382e+01
  -4.015021e+01   6.144821e+01
  -1.646118e+01  -3.284237e+00
   3.411037e+01   1.764767e-01
   6.595740e+01   2.150114e+01
   2.704441e+01   7.026863e+01
  -5.047690e+01   1.250014e+02
  -1.305420e+02   1.818831e+01
  -8.571503e+01  -6.833180e+01
   1.688820e+00  -1.341637e+02
   9.878372e+01  -9.390244e+01
   1.038160e+02  -1.382444e+01
   4.347254e+01   5.976479e+01
   1.246314e+01   1.008034e+02
  -1.272912e+01  -1.580763e+01
  -2.285894e+01  -3.284036e+01
  -1.710976e+01  -3.228307e+00
   1.008729e+01   9.578460e+00
  -1.396414e+01  -1.471104e+01
  -5.372889e+01  -5.790064e+01
  -2.392141e+01  -1.006715e+02
   3.865384e+01  -3.783646e+01
   1.081067e+02   3.957469e+01
   6.492929e+01   6.105679e+01
  -3.939591e+00   5.565429e+01
  -5.491408e+01   2.212650e+01
  -6.547588e+01  -5.199782e+00
  -2.578552e+01  -2.572689e+00
   4.758885e+01   2.382748e+01
   1.072815e+01  -7.320241e+00
  -2.115594e+01   3.350104e+01
  -5.989370e-01   2.466587e+01
   2.945160e+01   8.591417e+00
   5.777871e+01   4.522482e+01
   3.090929e+00   5.527745e+01
  -1.097626e+02   9.335287e+01
  -1.549600e+02   1.629003e+01
  -9.369000e+01  -4.675538e+01
  -4.427634e+00  -1.167599e+02
   5.612347e+01  -1.371198e+02
   5.038813e+01  -4.681884e+01
   7.888017e+01   2.085547e+01
   3.380678e+01  -5.933821e+00
  -6.596684e+00   2.908942e+00
   2.275091e+01   1.418306e+01
   3.563314e+01   5.865974e+01
   3.278204e+01   2.461712e+01
  -7.551564e+00   8.703293e+01
  -6.661155e+01  -1.082964e+01
  -4.814275e+01  -7.705835e+01
   1.480257e+00  -9.525711e+01
   3.985362e+01  -3.722005e+01
   4.771573e+01   4.383382e+01
   1.421015e+01   6.079268e+01
  -2.946878e+01   3.941097e+01
  -8.383879e+01  -7.401681e+00
  -7.890216e+00  -6.768510e+00
  -1.021770e+01  -4.776241e+01
   1.923224e+01   9.986195e-01
  -1.327912e+01  -1.056960e+01
  -5.438077e+01   2.222314e+01
  -2.988924e+01  -3.972791e+00
   4.032131e+01  -5.606956e+01
   5.165260e+01  -8.883786e+00
   4.671135e+01   5.611862e+00
  -7.334307e+00   5.607785e+01
  -3.711278e+01   4.604059e+01
  -4.992794e+01  -2.427087e+00
   1.724091e+01  -5.112583e+01
   4.072363e+00  -2.279195e+01
   4.343539e+01   1.927385e+00
   8.645558e+00   4.564202e+01
  -2.095727e+01   7.282118e+00
  -3.409941e+01  -3.281509e+01
  -1.068880e+01  -8.210564e+00
   9.766597e+00   9.436526e+00
   1.943074e+01   5.979585e+00
  -1.426526e+01  -1.749200e+01
   1.015293e+01  -4.171974e+01
   2.082078e+00  -1.753161e+00
   1.945210e+01  -1.736221e+00
   9.737290e+00   4.655904e+01
   2.045329e+01   3.867963e+01
  -1.183887e+01   4.917139e+01
  -3.822952e+01  -4.264854e+01
  -6.251445e+01  -8.015021e+01
   1.874091e+01  -2.594114e+01
   7.243724e+01  -2.284484e+01
   3.084795e+01  -8.800944e+00
  -3.646732e+01   2.208791e+01
  -3.346965e+01   2.794899e+01
  -4.490584e+01  -1.035172e+01
   8.619645e+00  -3.081266e+00
   2.417174e+01   9.132617e+00
  -1.428743e+01   2.111348e+01
  -3.821974e+01  -2.156622e+01
