
 $NMID
 id='ANONYMOUS ', fmtdat='(2E16.6)'
 volume=1.0
 tramp=1.0
 $END
  -3.494053e+03  -9.733661e+01
  -2.177936e+03  -2.114324e+03
   6.795858e+02  -2.463985e+03
   1.870170e+03  -6.135141e+02
   8.908495e+02   6.860563e+02
  -6.051934e+02   5.045826e+02
  -8.883322e+02  -3.444226e+02
  -4.492579e+01  -9.463467e+02
   7.457337e+02  -7.596332e+02
   9.471424e+02   7.702437e+01
   4.454378e+02   8.076410e+02
  -2.214590e+02   8.327704e+02
  -6.060200e+02   1.211657e+02
  -3.777884e+02  -6.276505e+02
   2.795514e+02  -7.386304e+02
   5.926439e+02  -4.239072e+00
   2.630311e+02   6.711474e+02
  -3.141014e+02   6.772132e+02
  -5.596176e+02   1.500277e+02
  -3.892318e+02  -3.219916e+02
   1.820810e+01  -4.762364e+02
   3.242368e+02  -2.410181e+02
   2.097461e+02   5.198313e+01
  -9.072954e+01   1.219357e+02
  -4.137712e+02  -1.241047e+02
  -1.627110e+02  -4.495292e+02
   4.354996e+02  -3.952842e+02
   7.626555e+02   7.048019e+01
   3.627926e+02   5.284660e+02
  -3.765578e+02   4.823608e+02
  -6.832866e+02   4.088752e+01
  -3.545825e+02  -4.692113e+02
   2.600476e+02  -5.351249e+02
   5.080670e+02  -1.822415e+02
   4.190013e+02   2.126402e+02
   7.042256e+01   4.469581e+02
  -2.758964e+02   2.551830e+02
  -1.553734e+02  -2.233977e+02
   1.712056e+02  -4.365954e+02
   4.015604e+02   4.286637e+01
   2.404229e+02   6.028002e+02
  -3.222112e+02   6.102304e+02
  -5.748421e+02  -9.792870e+00
  -2.644170e+02  -5.219855e+02
   2.769674e+02  -3.172414e+02
   3.553954e+02   2.604164e+02
  -3.303051e+00   4.787486e+02
  -4.599645e+02   1.446082e+02
  -5.387288e+02  -3.211006e+02
  -1.592992e+02  -5.403834e+02
   3.316408e+02  -3.086084e+02
   5.541515e+02   1.177449e+02
   3.209241e+02   3.102043e+02
  -1.104261e+02   2.931688e+02
  -3.464541e+02   1.919698e+01
  -1.850927e+02  -1.808539e+02
   1.228748e+02  -9.645820e+01
   1.229264e+02   1.611135e+02
  -1.520361e+02   1.775662e+02
  -3.204181e+02   5.805803e+00
  -1.533997e+02  -2.382623e+02
   1.560701e+02  -2.378254e+02
   2.955224e+02  -1.121840e+02
   2.038730e+02   8.716555e+01
  -2.097565e+00   2.209513e+02
  -1.809286e+02   3.094642e+02
  -3.109886e+02   2.023192e+02
  -2.663370e+02  -1.219727e+02
  -9.301044e+01  -3.880464e+02
   8.121518e+01  -2.815407e+02
   7.810341e+01  -1.134423e+02
   1.027791e+01  -5.999043e+00
   5.278132e+01  -2.910148e+01
   1.961250e+02  -1.382916e+02
   2.503227e+02   4.838846e+01
   1.645832e+02   2.333250e+02
  -1.089467e+01   2.547651e+02
  -2.032057e+02   2.843375e+01
  -1.989260e+02  -2.127048e+02
  -2.682227e+01  -2.605572e+02
   2.227231e+02  -7.905543e+01
   3.221265e+02   1.208220e+02
   1.366829e+02   2.821550e+02
  -1.167301e+02   2.683194e+02
  -1.843452e+02   1.194816e+02
  -1.415584e+02   3.995668e-01
  -8.018266e+01   5.381490e+01
  -2.172179e+02   7.294036e+01
  -3.740299e+02  -6.079223e+01
  -2.734672e+02  -2.600207e+02
  -7.344993e+00  -4.397171e+02
   3.135619e+02  -3.660974e+02
   4.520116e+02  -1.612258e+02
   3.353145e+02   1.368067e+02
   6.845749e+01   2.641748e+02
  -1.253795e+02   2.237634e+02
  -4.095834e+01   3.136383e+01
   9.209965e+01  -8.248215e+01
   1.545445e+02   6.502416e-01
   4.350278e+01   1.832872e+02
  -1.481920e+02   1.593656e+02
  -1.629836e+02  -2.680818e+01
   1.480041e+01  -1.809590e+02
   1.597374e+02  -4.171062e+01
   1.616984e+02   2.331085e+02
   1.235771e+01   2.951103e+02
  -2.325638e+02   2.051028e+02
  -2.905251e+02  -6.525589e+01
  -2.535317e+02  -1.844965e+02
  -3.621304e+01  -2.415603e+02
   1.107217e+02  -1.181916e+02
   1.547276e+02   1.403129e+01
   1.719766e+01   2.710379e+01
  -8.761320e+01  -4.266892e+01
  -1.069308e+01  -1.336996e+02
   1.385847e+02  -1.015714e+02
   1.552725e+02   1.602722e+01
   6.782431e+01   6.143185e+01
  -5.027573e+01   4.849281e+01
  -7.861126e+01  -7.664074e+01
   4.921346e+01  -9.408487e+01
   2.316904e+02  -1.876823e+01
   2.000936e+02   1.623527e+02
   4.788664e+01   2.292535e+02
  -1.480853e+02   2.101993e+02
  -2.876536e+02   1.106715e+02
  -1.514550e+02  -5.404909e+01
   9.037625e+00  -1.033287e+02
   7.628769e+01   5.412086e+00
  -1.174594e+01   9.159922e+01
  -1.998770e+02   5.341052e+01
  -2.081853e+02  -1.024430e+02
  -6.649703e+01  -2.348900e+02
   6.294406e+01  -1.597959e+02
   1.297789e+02  -5.441876e+01
   6.454212e+01   6.087838e+01
  -1.116153e+01   2.081246e+00
  -5.054605e+01  -7.963529e+01
   8.558588e+01  -1.240380e+02
   1.946367e+02  -4.611699e+01
   1.826242e+02   1.301931e+02
   2.904044e+01   1.577724e+02
  -1.888488e+02   1.530009e+02
  -1.820222e+02  -2.279474e+01
  -3.381878e+01  -9.404081e+01
   8.874883e+01  -8.495224e+01
   7.558637e+01  -2.287767e+01
   9.167426e-01   2.664486e+01
  -3.280176e+01   2.141072e+01
  -5.639111e+00  -2.542731e+00
   7.257349e+01  -1.034114e+01
   1.035618e+02   5.665434e+01
   4.636524e+01   1.613781e+02
  -1.023142e+02   1.616953e+02
  -1.946214e+02   5.175265e+01
  -1.758597e+02  -1.345952e+02
  -3.941601e+01  -2.431490e+02
   1.123810e+02  -1.628015e+02
   1.486255e+02  -3.941251e-01
   5.458011e+01   3.863147e+01
   5.454222e+01   3.024309e+01
   3.546764e+01  -1.397302e+01
   6.304655e+01   1.543591e+01
   7.781979e+01   2.118611e+01
  -1.803727e+01   7.394355e+01
  -1.033419e+02   2.910613e+01
  -7.871439e+01  -3.869370e+01
  -1.833773e+01  -7.491120e+01
   1.405535e+02  -6.146948e+01
   1.895830e+02   2.092209e+01
   8.229511e+01   1.350618e+02
  -5.813545e+01   1.996858e+02
  -2.293491e+02   3.949372e+01
  -2.397615e+02  -6.351921e+01
  -6.461068e+01  -1.897804e+02
   2.805755e+01  -1.263343e+02
   1.115779e+02  -8.298221e+01
   7.671354e+01  -4.505108e+01
   2.821925e+01  -5.685717e+01
   8.322609e+01  -6.603978e+01
   1.123662e+02   7.698658e+00
   1.039701e+02   1.285473e+02
   2.427299e+01   2.312840e+02
  -9.712851e+01   1.603381e+02
  -1.268111e+02   1.383355e+01
  -1.110140e+02  -8.811311e+01
   1.357805e+01  -1.458824e+02
   1.931555e+01  -8.588952e+01
   5.554530e+01  -1.065508e+01
   7.204522e+00   2.119928e+01
  -4.584205e+01   1.990523e+01
   2.560890e+01   1.791211e+01
   5.230885e+01   9.632634e+00
   6.375699e+01   4.410068e+01
  -6.261934e+01   2.345912e+01
  -1.313860e+02  -6.403118e+00
  -1.242355e+02  -5.911145e+01
  -2.105748e+01  -6.300489e+01
   9.564249e+01  -8.009539e+01
   1.219391e+02  -5.080647e+00
   3.995892e+01   2.769153e+01
  -3.771799e+01   3.390040e+01
  -7.754327e+01  -7.277154e+00
   3.486038e+00  -5.489685e+01
   5.023947e+01  -4.886703e+01
   6.223171e+01  -4.345943e+00
   4.406821e+01   6.568465e+01
   5.015640e+01   4.798071e+01
   5.809527e+00  -1.997981e+01
   3.835906e+01   4.546380e+00
   3.030324e+01   4.831578e+01
  -1.930434e+01   1.449299e+02
  -1.131373e+02   1.162103e+02
  -1.551802e+02   1.091153e+01
  -1.090670e+02  -6.945107e+01
  -6.095345e+00  -1.183714e+02
   8.022915e+01  -2.039059e+01
   5.129139e+01  -5.084079e+00
  -3.182574e+01   4.024977e+01
  -1.310028e+02  -4.706441e+01
  -4.338992e+01  -1.140088e+02
   9.335944e+01  -9.980918e+01
   1.687845e+02  -8.500319e+01
   1.471154e+02   4.243481e+01
   1.144220e+01   7.588340e+01
  -7.520466e+01   8.351031e+01
  -3.537671e+01  -1.142847e+01
   3.527205e+01   5.782639e+00
   8.711324e+01   3.428148e+01
   2.128167e+01   1.096021e+02
  -9.671388e+01   1.601023e+02
  -1.636121e+02   8.542345e+01
  -6.778155e+01  -4.475909e+01
   9.617783e+00  -1.322943e+02
   7.030084e+01  -1.119634e+02
   1.278752e+02  -6.544119e+00
   4.982954e+01   1.049080e+02
  -3.379564e+01   6.941654e+01
  -2.563280e+01  -1.349597e+00
  -4.467267e+01  -6.463738e+01
  -2.801991e+01  -3.701698e+00
  -8.796957e+00   2.764710e+01
  -2.317919e+01   6.261559e+00
  -6.312931e+01  -8.798165e+01
  -4.657281e+01  -7.792610e+01
   2.277221e+01  -4.715048e+01
   1.467367e+02   8.064629e+00
   1.505115e+02   4.846145e+01
   4.553925e+01   3.553524e+01
  -6.573033e+01   3.384306e+01
  -7.058432e+01  -1.526021e+01
  -9.445271e-01  -3.159025e+00
   4.104649e+01  -1.318917e+01
   2.831319e+01   1.629612e+01
  -1.440940e+01   1.605769e+01
   2.961570e+01  -1.959011e+01
   5.850184e+01   3.087419e+00
   6.952205e+01   3.166976e+01
   2.147179e+01   7.085217e+01
  -1.134615e+02   1.244938e+02
  -1.643239e+02   6.331091e+01
  -1.360135e+02  -9.293563e+01
  -1.327579e+01  -1.421604e+02
   7.379473e+01  -1.477544e+02
   8.960674e+01  -3.675444e+01
   3.264079e+01   1.057228e+01
   6.189196e+00   5.506893e-01
  -1.446766e+01   4.527617e+00
   1.617871e+01  -3.645338e+00
   3.294904e+01   6.824304e+01
   2.055020e+01   6.827226e+01
  -1.681255e+01   7.049833e+01
  -6.883108e+01  -3.394687e+01
  -6.088975e+01  -1.185288e+02
  -2.804231e+01  -1.378125e+02
   7.143511e+01  -1.493761e+01
   8.977050e+01   7.484671e+01
   3.709079e+01   9.672137e+01
  -8.706977e+01   4.288971e+01
  -1.152894e+02  -2.078833e+01
  -2.464594e+01  -3.079217e+01
   2.080303e+01  -5.011957e+01
   4.252154e+01  -2.465815e+01
  -4.040709e+01   2.574776e+01
  -6.724519e+01  -1.761094e+01
   3.170423e+00  -1.968401e+01
   9.054942e+01  -8.515276e+01
   1.088393e+02  -1.352879e+01
   3.119741e+01  -2.782770e-01
  -3.522510e+01   6.286028e+01
  -2.178747e+01   6.777610e+01
  -1.239500e+01  -1.353323e+01
   1.550895e+01  -5.321001e+01
  -6.060453e+00  -3.707245e+01
   2.430410e+00   1.412139e+01
   2.524745e+01   4.279707e+01
  -1.329327e+01   2.156086e+01
  -2.174777e+01  -2.547242e+01
  -2.802037e+01  -2.832011e+01
  -9.404580e+00   1.015882e+01
   7.998230e+00   7.116811e+00
   1.249958e+01   3.318357e+01
  -2.228605e+00  -2.917418e+01
   1.253865e+01  -2.767175e+01
   5.854132e+01  -4.555527e+00
   3.001301e+01   4.134589e+01
  -7.551187e+00   7.934979e+01
  -2.772948e+01   2.504205e+01
  -5.049238e+01  -3.306259e+01
  -2.966490e+01  -4.206324e+01
   3.547634e+01  -2.668959e+01
   4.792138e+01   1.840647e+01
   5.376650e+01   3.682289e+01
  -2.709944e+01   4.321532e+01
  -2.310547e+01  -1.437669e+00
  -3.525520e+01  -1.571161e+01
   4.535898e+00   3.469028e+01
   5.323280e+01   3.445787e+01
  -2.648075e+01   2.202747e+01
  -8.149889e+01   3.711428e+00
