
 $NMID
 id='ANONYMOUS ', fmtdat='(2E16.6)'
 volume=1.0
 tramp=1.0
 $END
  -6.740488e+02  -8.862598e+01
  -4.514420e+02  -2.051790e+02
   3.143170e+01  -7.286816e+02
   3.735492e+02  -2.935095e+02
   1.267414e+02  -1.390089e+01
  -5.457344e+01   1.800809e+00
   6.353741e+00  -8.449681e+01
   1.287945e+02  -1.441606e+02
   1.821775e+02  -9.945646e+01
   1.238820e+02   5.164859e+01
   4.472685e+01   1.145520e+02
   2.481727e+01   1.372728e+02
  -1.183996e+00   4.291539e+01
  -2.709826e+01  -3.900446e+01
   1.065136e+01  -5.244418e+01
   2.607507e+01  -2.309854e+01
   4.968974e+01  -7.591637e+00
  -3.032444e+01   1.448899e+02
  -6.263586e+01   2.458088e+01
  -9.317599e+01  -8.012925e+00
  -1.351133e+01  -6.676997e+01
  -8.534421e-01  -6.882383e+01
   8.315963e+00  -8.309123e+00
  -2.926550e+01  -2.323797e+01
  -6.522966e+01  -9.121492e+01
   2.694410e+01  -9.018814e+01
   5.516882e+01  -5.372953e+01
   1.177751e+02  -2.914131e+01
   7.162403e+01   6.232132e+01
  -4.733625e+01  -1.862251e+01
  -6.360200e+01  -7.117163e+01
   5.008642e-01  -8.472198e+01
   1.112939e+02  -9.440185e+01
   9.896455e+01  -2.131239e+01
   8.751138e+01   6.181017e+01
   1.145021e+01   5.183788e+01
  -4.647868e+00   3.871698e+01
   2.946296e+01  -4.816451e+01
   5.092411e+01  -8.031509e+01
   4.801763e+01   4.374541e+01
   5.935625e+01   9.456854e+01
  -5.999764e+01   9.126373e+01
  -3.075514e+01   7.163925e+00
  -6.697452e+01  -5.487284e+01
   1.144861e+01  -4.261197e+01
  -1.836794e+01   3.847585e+01
  -6.417444e+01   1.142819e+02
  -8.867649e+01  -9.246323e+00
  -1.502761e+02  -3.960830e+01
   1.956967e-01  -1.060068e+02
   9.561049e+01  -3.400113e+01
   1.221014e+02  -1.796299e+01
   7.649524e+01   2.393672e+01
   3.405230e+00   5.224145e+01
  -8.007010e+01   2.854414e+01
  -4.171673e+01   4.630514e+01
  -1.785432e+01   2.721428e+01
  -9.290237e+00   3.696666e+01
  -1.987008e+01  -1.276256e+01
  -5.859747e+01  -1.359053e+01
  -4.241668e+01   3.049257e+00
   2.476951e+01  -3.146973e+01
   6.992534e+01  -2.229925e+01
   5.349885e+01  -2.226562e+00
  -2.745483e+01   7.140457e+01
  -5.945524e+01   1.544469e+02
  -1.045886e+02   3.430800e+01
  -3.870891e+01  -6.161019e+01
  -1.327690e+01  -9.082236e+01
   2.075535e+01  -1.234548e+02
   2.777654e+01  -3.718804e+01
  -2.538041e+01  -2.669763e+01
   2.597821e+01  -1.673292e+01
   8.360285e+01   1.619396e+01
   6.024490e+01   3.755578e+01
   1.640616e+01   4.981784e+01
  -3.394710e+01   1.921990e+01
  -1.949394e+01  -3.293933e+01
  -4.781410e+01  -9.803086e+01
   1.259172e+01  -6.052498e+01
   5.587425e+01  -2.137493e+01
   6.696320e+01   6.464206e+01
   4.966116e+01   8.151524e+01
   4.893892e+00   5.010152e+01
  -2.803559e+01   2.808136e+01
  -1.168136e+01   3.158792e+01
  -3.448203e+01   3.327370e+01
  -7.181210e+01   3.400405e+01
  -8.215218e+01   8.474092e+00
  -9.233622e+01  -5.854320e+01
  -5.513431e+01  -7.892259e+01
   7.080524e+01  -1.025600e+02
   3.485314e+01  -5.033046e+01
   6.499028e+01   3.986138e+00
   2.055271e+01   2.906268e+01
   1.702788e+01   4.063824e+01
   2.841512e+01   3.685648e+01
   5.838802e+01  -2.318317e+01
   5.939296e+01   4.940267e+01
  -1.773794e+01   7.808202e+00
  -2.708423e+01   1.977402e+01
  -4.087450e+01   1.143985e+01
   2.464361e+01  -9.133627e+00
   4.910270e+01   1.582373e+01
   2.360481e+01   4.049986e+01
   3.235682e+00   9.240699e+01
  -2.890796e+01   5.956774e+01
  -4.569074e+01  -2.656406e+01
  -9.626638e+01  -7.156530e+01
   1.489039e+00  -2.303302e+01
   4.515407e+01  -1.751603e+01
   2.353449e+01  -1.799388e+01
   1.668823e+01  -1.754166e+01
  -6.461526e+00  -1.502662e+01
  -2.637908e+01  -3.677120e+01
   1.976612e+01   2.188906e+00
   4.259861e+01   1.564973e+01
   3.434436e+01  -2.719104e-02
  -1.044357e+01   9.627319e+00
  -1.237825e+01   1.884692e+01
   4.204373e+01  -1.091084e+01
   7.843584e+01  -1.529394e+01
   6.023945e+01   3.261713e+01
   1.673221e+01   3.470946e+01
  -4.229595e+01   6.447304e+01
  -5.353694e+01   6.961904e+01
  -2.604954e+01   2.592603e+01
  -5.319182e+00  -2.469236e+01
   3.333786e+01  -6.344672e+00
  -7.031855e+00   2.163716e+01
  -7.329681e+01   1.401386e+01
  -2.135667e+01   8.894721e+00
  -1.840622e+01  -4.915000e+01
   1.016333e+01  -6.998780e+01
   1.855637e+01   5.724490e+00
   1.690995e+01   1.144021e+01
   5.864799e+00  -3.642226e+01
   4.610427e+00  -4.654949e+00
   1.310606e+01  -5.814942e+00
   1.877948e+01   4.495339e+00
   3.954682e+01   5.877108e+01
   1.413205e+01   6.980642e+01
   2.550158e-01   2.553590e+01
  -2.318690e+01   1.552737e+01
  -4.341817e+01  -5.472551e+00
  -1.339812e+01  -5.736341e+00
  -1.175114e+00  -2.123865e+01
  -1.194201e+01   2.060271e+01
  -1.355835e+01   1.146894e+01
  -5.025405e+00   2.833792e+00
   7.913110e+00   3.438384e-01
   2.257325e+01   4.017069e+01
  -1.146110e+01   1.076216e+01
  -4.317705e+01   2.784823e+01
  -5.193599e+01  -3.296790e+01
  -3.143408e+01  -3.270222e+01
  -1.739859e+01  -3.581182e+01
   5.241164e+01   8.896007e+00
   1.502923e+01   1.808967e+01
  -2.567962e+00  -4.975295e+00
   3.138490e+00  -1.083917e+01
   2.185656e+01  -1.350225e+01
   3.239140e+01  -1.828440e+01
   1.313554e+01   2.359084e+01
  -6.084133e+00  -2.397031e+01
  -4.604353e+01   1.372518e+01
  -4.183530e+01  -2.637779e+00
   4.609780e+00  -1.873233e+01
   4.311381e+01  -1.729193e+01
   4.694872e+01   1.134862e+01
   1.430788e+01   4.931161e+01
  -3.991845e+01   6.642526e+01
  -8.258015e+01   1.715935e+01
  -5.534851e+01  -7.214237e+00
   6.864535e-01  -3.990321e+01
   4.115688e+01  -7.523701e+00
   6.185167e+01   4.935966e+00
   2.072898e+01  -1.844493e+00
  -7.527130e-01  -2.811764e+01
  -1.244393e+01  -2.716356e+01
   4.599210e+01  -1.443696e+01
   4.666595e+01   4.322401e+01
   1.504036e+01   3.399958e+01
  -5.235754e+01   6.739295e+01
  -1.802790e+01   1.456626e+01
  -6.354005e+00  -4.245889e+01
  -3.652390e+01  -2.984983e+01
   4.517026e+01  -3.672371e+01
   2.003715e+01   9.947291e+00
   8.241211e+00   2.531106e+01
  -2.333824e+01   2.488285e+00
  -1.866590e+00   2.136296e+01
   4.846004e+01  -2.121937e+01
  -8.083190e+00   1.685254e+01
  -3.754797e+01   5.420939e+00
  -5.651096e+01   2.099730e+01
  -2.496651e+01  -4.111385e+01
   6.983958e-02  -3.585167e+01
   4.053910e+01  -3.270933e+01
   4.058171e+01   2.239734e+01
  -9.102840e+00  -3.178903e+00
   9.397275e+00   2.544952e+01
  -1.537658e+01  -9.916903e+00
  -1.340683e+00   1.002700e+00
   3.541948e+01   4.746010e+00
   1.498251e+01  -5.499262e+00
   7.311425e+00   2.935358e+01
  -6.892347e+00   8.305162e-01
   5.144916e+00  -1.314222e+01
   3.023168e+01  -1.303328e+01
   2.927612e+01  -9.910880e+00
   8.516118e+00   4.020472e+01
  -4.064098e+01   7.452326e+00
  -6.665882e+01   7.560339e+00
  -3.958859e+01  -2.751210e+01
   6.633131e+00  -7.004000e+00
   3.838363e+01  -1.960387e+01
   1.446239e+01  -1.775124e+01
  -1.099185e+01  -5.294260e-02
  -2.685494e+01  -3.113043e+01
  -2.755730e+01  -3.795942e+01
   1.453364e+01   2.405599e+00
   5.637721e+01  -1.228745e+01
   6.480153e+00   8.042651e+00
   1.235258e+01   3.716131e+01
  -2.270221e+01   3.446900e+01
  -5.397205e+00   3.660283e+01
   6.046864e+00  -3.440146e+00
   1.596859e+01   1.174215e+01
  -1.366491e+01   2.425322e+01
  -4.614758e+01   2.326848e+01
  -3.094791e+01   4.254238e+00
  -9.485571e+00  -4.878602e+01
  -1.791114e+01  -8.160867e+01
   6.961586e+00  -5.718967e+01
  -8.671861e+00  -1.031805e+01
  -1.362280e+01   2.329626e+01
   3.026657e+01   2.026260e+01
   2.219983e+01  -2.117061e+01
   7.124707e+00  -4.027600e+00
   9.678269e+00   4.000514e+00
  -1.562715e+01  -1.380906e+01
  -1.509683e+01   6.153164e+00
  -5.060602e+01  -2.240953e+01
  -3.085126e+01  -9.674470e+00
  -1.200564e+01   1.375980e+01
   3.943774e+01  -6.765841e+00
   4.049917e+01  -1.229668e+01
  -2.589366e+01  -3.382890e+00
  -3.616676e+01   2.303916e+01
  -2.598814e+01   9.330503e+00
  -1.981516e+01  -1.078611e+01
   1.263699e+01   2.865706e+00
  -1.141040e+00  -5.103047e+00
  -1.516742e+01  -1.493510e+01
   9.189743e+00   1.353394e+01
   1.840287e+01  -1.440727e+01
   3.247489e+01  -1.580567e+00
   2.884190e+01  -6.296845e+00
  -1.700368e+01   2.391561e+01
  -4.047448e+01   3.082041e+01
  -2.892763e+01   2.189776e+00
  -2.053451e+01  -1.537352e+01
  -4.675854e+00  -1.348577e+01
   1.284678e+01  -3.970078e+01
   2.609744e+01   1.799022e+01
   7.931862e-01  -9.294243e+00
  -9.491283e+00  -5.205711e+00
  -6.054199e+00  -2.378675e+01
   1.823937e+01  -5.347750e-01
   1.615617e+01   1.010609e+01
  -2.304045e+01   4.352800e+01
  -2.727659e+01   1.379646e+01
  -5.335838e+00  -4.240733e+01
  -1.108894e+01  -8.255019e+00
   1.650061e+01   2.026228e+01
  -1.560567e+01   2.292898e+00
  -1.603963e+00   3.398803e+01
   3.324531e+01   2.708404e+01
  -1.705745e+01  -1.182555e+01
  -7.196137e+00  -8.545808e+00
  -1.886963e+01  -4.335555e+01
   1.746260e+01   5.251364e+00
  -1.600647e+01  -7.818972e+00
  -4.234101e+01   2.331652e+01
  -8.244144e-01   1.143587e+01
  -6.085337e+00  -3.099937e+01
   3.885001e+01  -1.094257e+00
   1.554760e+01   2.168115e+00
  -8.237980e-01   2.832053e+01
  -6.149138e+00   2.472843e+01
  -5.613339e+00   3.976777e+00
  -1.811434e+01  -2.942046e+01
  -7.794675e+00  -2.472536e+01
   4.096250e+01  -4.968954e+00
   2.460468e+01   1.345749e+01
   1.047970e+01   1.299667e+01
  -1.494747e+01   2.157748e+00
  -3.797708e+01   3.869670e+00
   1.803446e+01  -3.754371e-01
   3.792620e+01  -1.162723e+01
  -1.744831e+01  -2.051972e+00
   1.196299e+00   2.391779e-01
  -1.704084e+01  -2.300811e+01
  -7.682113e+00  -9.656252e+00
   3.208134e+01  -7.697015e-01
   6.545202e-01   1.574330e+01
  -5.846920e+00   2.152265e+01
  -1.721760e+01  -1.141050e+01
  -1.540270e+01  -1.525866e+01
   2.667902e+01  -1.989374e+01
   3.216591e+01   3.132034e-01
   2.943843e+01  -1.078782e+01
  -3.016223e+01   5.058457e+01
  -2.111030e+01   1.689067e+01
   6.190626e+00   2.614366e+01
   1.828598e+01  -9.591999e+00
   1.180308e+01   1.975800e+00
  -2.796092e+00   1.176403e+01
  -2.248785e+01  -9.421025e+00
