
 $NMID
 id='ANONYMOUS ', fmtdat='(2E16.6)'
 volume=1.0
 tramp=1.0
 $END
  -4.113223e+03   5.395648e+02
  -2.460702e+03  -2.403886e+03
   3.437627e+02  -2.320556e+03
   1.790487e+03  -1.187659e+03
   9.793727e+02   4.814997e+02
  -3.226028e+02   5.794080e+02
  -7.655081e+02  -2.880690e+02
  -5.296087e+01  -1.007850e+03
   7.389027e+02  -7.889277e+02
   8.644470e+02   7.689804e+01
   4.537158e+02   7.995197e+02
  -2.167638e+02   8.491067e+02
  -5.851933e+02   1.047793e+02
  -3.293632e+02  -7.103252e+02
   2.883568e+02  -7.104561e+02
   6.085888e+02  -3.868716e+00
   2.693285e+02   6.995162e+02
  -2.851544e+02   6.907833e+02
  -6.383866e+02   9.103247e+01
  -3.990545e+02  -3.112353e+02
  -3.094110e+00  -4.346821e+02
   2.439836e+02  -2.412746e+02
   1.996815e+02   3.779374e+01
  -1.800842e+02   7.732704e+01
  -3.704488e+02  -1.708049e+02
  -1.517577e+02  -4.388704e+02
   4.886952e+02  -3.473606e+02
   7.865002e+02   1.095501e+02
   3.981577e+02   5.558573e+02
  -4.029580e+02   4.667552e+02
  -7.546728e+02   8.525121e+00
  -2.859988e+02  -4.935221e+02
   2.261126e+02  -4.823394e+02
   5.274936e+02  -1.614902e+02
   3.461436e+02   2.558087e+02
   3.374175e+01   4.227292e+02
  -1.849122e+02   1.974859e+02
  -1.231926e+02  -2.104225e+02
   1.951278e+02  -3.575563e+02
   3.998921e+02   1.068440e+02
   2.298410e+02   5.942050e+02
  -2.876162e+02   6.124576e+02
  -5.149354e+02  -2.562281e+00
  -2.195595e+02  -5.554164e+02
   3.124480e+02  -2.623042e+02
   3.792557e+02   3.481837e+02
  -3.145188e+01   5.432127e+02
  -5.193646e+02   2.044874e+02
  -5.907971e+02  -3.463654e+02
  -1.822079e+02  -5.274422e+02
   3.755582e+02  -3.436125e+02
   6.292965e+02   1.456720e+02
   3.317782e+02   4.246429e+02
  -1.430932e+02   3.464888e+02
  -3.964604e+02   4.764969e+01
  -2.450048e+02  -1.678161e+02
   1.032295e+02  -1.154140e+02
   1.466239e+02   8.468879e+01
  -1.255338e+02   1.967937e+02
  -3.127704e+02  -4.929199e+01
  -1.182387e+02  -2.852868e+02
   1.685844e+02  -3.066076e+02
   3.461151e+02  -1.412186e+02
   2.532317e+02   1.103399e+02
  -1.578698e+01   2.466787e+02
  -2.287151e+02   3.523641e+02
  -3.142586e+02   1.544678e+02
  -2.844943e+02  -1.291035e+02
  -7.536919e+01  -4.092846e+02
   1.243374e+02  -3.393507e+02
   1.206251e+02  -8.492242e+01
   6.376981e+00  -2.729820e+01
   6.127975e+01  -6.429067e+01
   1.618704e+02  -1.049447e+02
   3.013033e+02   2.250694e+01
   1.303851e+02   2.472294e+02
  -8.688180e+01   2.333155e+02
  -2.714953e+02  -1.441737e+01
  -2.075259e+02  -1.824482e+02
  -8.214305e-01  -2.955265e+02
   2.570793e+02  -1.121359e+02
   3.379045e+02   1.442390e+02
   2.183769e+02   3.199717e+02
  -7.716525e+01   2.943942e+02
  -2.088443e+02   1.210716e+02
  -1.453594e+02   1.012623e+01
  -1.153179e+02   4.363628e+01
  -2.182396e+02   6.097505e+01
  -3.694092e+02  -6.871255e+01
  -2.850981e+02  -2.682051e+02
   1.243906e+01  -4.135886e+02
   3.916335e+02  -3.553509e+02
   4.427315e+02  -1.709492e+02
   3.436703e+02   1.324561e+02
   5.216944e+01   2.565390e+02
  -1.068073e+02   2.670662e+02
  -1.072571e+02  -1.923479e+01
   8.449664e+01  -8.554471e+01
   1.525392e+02  -5.336150e+00
   5.486710e+01   1.706047e+02
  -1.521100e+02   1.378064e+02
  -1.445904e+02  -4.402964e+01
   9.003511e-01  -1.682916e+02
   1.752568e+02  -5.007322e+01
   1.539521e+02   2.405415e+02
  -3.509277e+01   2.991185e+02
  -2.364634e+02   2.087481e+02
  -3.065838e+02  -5.711428e+01
  -2.587841e+02  -2.514183e+02
  -5.052216e+01  -2.722656e+02
   1.387157e+02  -1.448468e+02
   1.165349e+02  -4.789891e+00
   2.541779e+01   3.535275e+01
  -7.517975e+01  -4.704950e+01
  -1.333633e+01  -1.090212e+02
   1.317730e+02  -8.440340e+01
   1.637352e+02   2.172802e+01
   3.896305e+01   5.576541e+01
  -9.119058e+01   3.971907e+01
  -7.753873e+01  -7.112535e+01
   9.987463e+01  -9.899247e+01
   2.809211e+02  -2.907428e+01
   2.461063e+02   1.336877e+02
   4.441350e+01   2.422033e+02
  -2.182164e+02   2.415193e+02
  -2.598089e+02   1.094878e+02
  -1.580014e+02  -6.701052e+01
   2.817207e+00  -1.079311e+02
   7.941511e+01   2.754374e+01
  -4.205559e+01   1.148895e+02
  -1.842504e+02   7.394910e+01
  -1.923351e+02  -1.057720e+02
  -2.995045e+01  -2.143471e+02
   8.907655e+01  -1.526911e+02
   1.335143e+02  -3.603766e+01
   5.191063e+01   8.468608e+01
  -4.788737e+01  -4.721980e+00
  -4.099001e+01  -8.444127e+01
   4.905969e+01  -1.468550e+02
   2.061596e+02  -4.739730e+01
   2.039755e+02   9.340743e+01
   3.709126e+01   2.170742e+02
  -1.402490e+02   1.608934e+02
  -1.814969e+02  -2.749813e+01
  -4.822319e+01  -9.979053e+01
   8.226547e+01  -8.322003e+01
   6.371638e+01  -8.433450e+00
   7.759240e+00   5.687903e+01
  -3.502574e+01   7.085348e+00
  -3.358697e+00  -9.760750e+00
   8.095613e+01  -9.752377e+00
   8.650137e+01   7.939377e+01
   2.134496e+01   1.465680e+02
  -1.075083e+02   1.393441e+02
  -2.283820e+02   3.023423e+01
  -1.925980e+02  -1.241505e+02
  -3.205907e+01  -2.174938e+02
   1.044834e+02  -1.422870e+02
   1.511361e+02  -3.696541e+01
   7.019503e+01   5.804685e+01
   1.061909e+01   4.266319e+01
   4.279231e+01  -1.417490e+01
   5.516039e+01  -3.146193e+01
   6.789884e+01   7.640969e+01
  -2.442011e+01   8.392956e+01
  -9.600510e+01   7.533755e+01
  -1.047465e+02  -3.189652e+01
   2.879943e+00  -9.319809e+01
   1.104097e+02  -9.407907e+01
   1.957542e+02   3.783264e+01
   1.212467e+02   2.183526e+02
  -7.694256e+01   2.376436e+02
  -2.362081e+02   8.434518e+01
  -2.387822e+02  -5.144400e+01
  -1.101565e+02  -1.759555e+02
   3.595129e+01  -1.083272e+02
   9.512671e+01  -6.070706e+01
   6.460726e+01  -6.308412e+01
   6.031798e+01  -5.946589e+01
   5.492427e+01  -9.510022e+01
   1.117880e+02   8.159896e+00
   1.315714e+02   1.770057e+02
   2.538429e+01   2.130220e+02
  -8.541038e+01   1.578242e+02
  -1.129692e+02   2.569282e+01
  -1.040059e+02  -1.097319e+02
  -2.946953e+01  -1.638822e+02
   5.633246e+01  -8.882656e+01
   4.125343e+01  -4.516630e+00
  -1.125545e+01   6.363294e+00
  -2.009412e+01   5.370917e+01
   5.888115e+01   2.211387e+01
   3.678130e+01  -8.352994e+00
   5.750854e+01   5.242656e+01
  -4.522802e+01   4.077972e+01
  -1.225735e+02   4.175774e+01
  -1.190768e+02  -1.935181e+01
  -2.075594e+01  -1.026597e+02
   1.105240e+02  -7.466317e+01
   1.307477e+02   9.326400e+00
   4.490849e+01   7.220998e+01
  -4.622298e+01   7.393981e+01
  -8.865898e+01  -1.787642e+01
   2.017848e+00  -7.022733e+01
   4.030860e+01  -6.963516e+01
   7.612666e+01   5.904343e+00
   6.938272e+01   4.739927e+01
   5.778700e+01   3.477449e+01
   4.818480e+01   5.316875e+00
   6.523947e+01  -3.666224e+00
   2.851498e+01   2.055981e+01
  -1.280070e+01   1.158926e+02
  -8.377997e+01   1.356818e+02
  -1.888980e+02   5.148627e+01
  -1.393820e+02  -1.032858e+02
  -7.770244e-01  -1.438235e+02
   9.730429e+01  -3.362229e+01
   4.773254e+01   6.843971e+00
  -4.092402e+01   1.499784e+01
  -1.164209e+02  -2.704371e+01
  -8.697674e+01  -9.049605e+01
   5.790606e+01  -9.078472e+01
   1.667853e+02  -8.454726e+01
   1.695256e+02   1.638011e+01
   1.652355e+01   8.772750e+01
  -5.739014e+01   1.058094e+02
  -6.513219e+01   2.395624e+01
   4.457434e+01  -1.840188e+01
   9.197285e+01   2.043166e+01
   3.253726e+01   1.221877e+02
  -1.070086e+02   1.412071e+02
  -1.753121e+02   7.467209e+01
  -1.251414e+02  -9.986578e+01
   4.613001e+00  -1.992688e+02
   1.003990e+02  -1.222839e+02
   1.072135e+02   5.190889e+01
   6.229218e+01   1.163953e+02
  -1.084252e+01   1.056449e+02
  -7.157937e+01   5.052895e-01
  -7.691307e+01  -3.457767e+01
  -4.927786e+00  -1.253904e+01
  -1.994716e+01   3.068273e+01
  -7.807358e+00  -2.295777e+01
  -6.025286e+01  -8.705332e+01
  -3.238210e+01  -1.200750e+02
   6.166388e+01  -4.103972e+00
   1.566104e+02   4.905984e+01
   1.157061e+02   8.213285e+01
   2.982778e+01   7.222750e+01
  -8.005201e+01   4.139647e+01
  -1.013415e+02  -3.251191e-01
   1.352896e+00  -1.209732e+01
   3.406933e+01  -1.774743e+01
   2.138296e+01  -5.471101e+00
  -3.628866e+01  -2.867106e+00
   2.368947e+00  -6.898936e+00
   4.222510e+01  -9.917146e+00
   8.548647e+01   2.256667e+01
   4.190370e+00   8.686220e+01
  -7.768890e+01   8.864502e+01
  -2.117098e+02   4.876895e+01
  -1.297357e+02  -7.280200e+01
  -2.614179e+01  -1.350993e+02
   7.514268e+01  -1.359565e+02
   1.137154e+02  -5.678469e+01
   1.013100e+02   3.044323e+01
  -1.113039e+00   4.138897e+01
  -1.213409e+01   3.115803e+00
  -1.520318e+01   6.261920e+00
   5.101137e+01   8.432018e+00
   4.161240e+01   5.759498e+01
   7.027705e+00   7.976109e+01
  -7.289709e+01  -8.905467e+00
  -5.508971e+01  -1.098978e+02
  -7.853486e+00  -9.647198e+01
   8.486192e+01  -3.442448e+01
   8.895857e+01   8.598646e+01
   4.908827e+01   1.058792e+02
  -5.203408e+01   4.562073e+01
  -1.130160e+02   4.106434e+00
  -3.500014e+01  -4.464601e+01
   3.416130e+01  -9.608353e+01
   3.885831e+01  -2.579185e+01
  -3.648101e+01  -7.307644e+00
  -5.632482e+01   1.753581e+01
  -2.065558e+01   5.532782e+00
   9.392806e+01  -6.210058e+01
   1.102498e+02  -2.863074e+01
   6.658660e+01   3.058534e+00
  -8.268551e+00   6.308050e+01
  -5.297135e+00   8.227001e+01
  -6.329562e+01   1.479008e+01
  -1.813483e+01  -5.789776e+01
  -1.849362e+01  -3.283290e+01
   5.479779e+00  -1.207228e+00
   3.537487e+01   3.912933e+01
  -2.683084e+01   1.870637e+01
  -1.612606e+01  -1.261374e+01
  -1.939142e+01  -4.972536e+01
  -1.339351e+01  -1.775567e+01
  -8.577104e-01   1.950419e+01
   3.713556e+01  -6.467491e+00
  -4.782814e+00  -9.494674e+00
   1.733187e+01  -3.153827e+01
   3.192614e+01  -1.098206e+01
   4.032713e+01   2.717661e+01
   1.468164e+00   6.871499e+01
  -3.578922e+01   7.796819e+00
  -6.301182e+01  -4.773381e+01
   1.943053e+01  -5.815541e+01
   5.816283e+01  -3.965188e+01
   1.082885e+02   3.519737e+00
   2.320798e+01   5.999689e+01
  -2.579456e+01   3.315331e+01
  -7.489443e+01   4.672029e+01
  -1.186121e+01   1.208783e+01
   3.670140e+01   1.179844e+01
   3.105372e+01   2.622420e+01
   4.684251e-01   2.796101e+01
  -4.824233e+01   2.927628e+01
