
 $NMID
 id='ANONYMOUS ', fmtdat='(2E16.6)'
 volume=1.0
 tramp=1.0
 $END
  -2.466386e+03  -1.620233e+01
  -1.607467e+03  -8.841828e+02
  -9.998412e+01  -1.379185e+03
   6.189680e+02  -9.452204e+02
   6.319483e+02  -3.574224e+02
   1.967054e+02  -6.239709e+01
  -8.209047e+01  -2.997697e+01
   1.486205e+01  -2.511463e+02
   2.445656e+02  -3.340134e+02
   4.528736e+02  -1.192382e+02
   2.604845e+02   2.469466e+02
   6.716160e+01   3.634743e+02
  -1.119634e+02   1.192448e+02
  -1.475633e+02  -2.214317e+02
   6.433534e+01  -3.438753e+02
   2.570639e+02  -7.832861e+01
   2.712203e+02   3.130035e+02
  -4.457948e+01   4.258054e+02
  -2.800259e+02   1.938558e+02
  -2.919164e+02  -5.155613e+01
  -1.425840e+02  -2.674165e+02
   5.836063e+01  -2.021080e+02
   3.498574e+01  -1.189079e+02
  -1.493583e+02  -1.452265e+02
  -1.358376e+02  -2.671199e+02
   9.127373e+01  -2.317146e+02
   3.711285e+02  -5.600208e+01
   3.802447e+02   2.082120e+02
   1.044733e+02   2.508178e+02
  -2.424600e+02   4.160039e+01
  -3.748978e+02  -1.498064e+02
  -8.568364e+01  -2.658737e+02
   2.121766e+02  -1.712173e+02
   3.285274e+02  -1.071977e+02
   2.156457e+02   9.962925e+01
   6.206923e+01   2.105452e+02
   2.763501e-01   1.398155e+02
   8.011831e+01  -3.337676e+01
   1.144009e+02  -8.639843e+01
   9.635414e+01   1.529861e+02
  -3.609029e+01   2.753545e+02
  -1.419431e+02   2.388897e+02
  -1.403780e+02  -2.691991e+01
  -5.927098e+01  -1.840682e+02
   1.168683e+02  -2.134564e+01
   4.626259e+01   2.302351e+02
  -1.716657e+02   2.348788e+02
  -3.120776e+02  -1.257535e+01
  -2.886298e+02  -2.792638e+02
  -7.376813e+01  -3.555583e+02
   2.130419e+02  -1.768865e+02
   3.542365e+02   7.189452e+01
   2.369224e+02   1.450850e+02
  -1.074002e+01   1.207231e+02
  -1.483835e+02   6.793483e+01
  -1.866858e+02   2.001212e+01
  -5.498266e+01   3.079660e+01
  -2.101846e+01   1.512590e+01
  -7.953159e+01  -1.677684e+01
  -1.212541e+02  -8.025202e+01
  -4.088033e+01  -1.393574e+02
   1.203481e+02  -1.309267e+02
   2.292935e+02  -9.170619e+01
   1.805782e+02   8.115232e+01
  -5.632690e+01   2.485478e+02
  -2.374502e+02   2.384993e+02
  -2.700297e+02   6.613616e+01
  -1.560994e+02  -1.497849e+02
  -2.732154e+01  -2.353529e+02
   1.832169e+01  -2.287392e+02
  -5.068881e+01  -1.732683e+02
   2.059389e+01  -1.354254e+02
   1.492692e+02  -1.020074e+02
   2.258614e+02  -2.422333e+01
   1.796233e+02   1.518468e+02
   8.341807e+01   2.271600e+02
  -9.011605e+01   1.254646e+02
  -1.464624e+02  -6.889589e+01
  -5.304326e+01  -1.597380e+02
   6.548998e+01  -1.777212e+02
   1.939094e+02  -8.510797e+00
   1.817348e+02   1.676569e+02
   1.006073e+02   1.884091e+02
   8.376612e+00   1.506684e+02
  -1.185160e+02   1.092035e+02
  -1.167821e+02   9.735726e+01
  -1.304855e+02   7.516895e+01
  -2.781689e+02   1.165797e+01
  -3.453222e+02  -7.361032e+01
  -2.051477e+02  -2.548065e+02
   3.945271e+01  -3.695298e+02
   3.372735e+02  -2.462670e+02
   3.710200e+02  -7.635763e+01
   1.837481e+02   1.082221e+02
  -3.743922e+01   1.820155e+02
  -9.974315e+01   1.205532e+02
   5.490056e+00   2.217331e+01
   1.145105e+02  -4.577997e+00
   6.961693e+01   6.232985e+01
  -2.487501e+01   1.111047e+02
  -9.292657e+01   8.223789e+01
  -3.870169e+01  -4.287731e+01
   2.263811e+01  -8.417638e+01
   1.144855e+02   3.194901e+01
   1.090189e+02   1.828078e+02
  -3.833163e+01   2.568222e+02
  -2.013518e+02   1.610516e+02
  -3.220340e+02  -7.435374e+01
  -1.951053e+02  -2.081957e+02
  -1.454490e+01  -2.553101e+02
   1.086565e+02  -6.838343e+01
   9.939145e+01   3.178998e+01
   1.834564e+00   1.543364e-01
  -3.251994e+01  -9.018875e+01
   2.104560e+01  -9.585368e+01
   8.407494e+01  -4.742993e+01
   8.457504e+01   5.079095e+01
   6.994727e+00   4.191174e+01
  -7.429172e+01   2.629236e+00
  -4.404668e+01  -7.673105e+01
   1.436335e+02  -8.781029e+01
   2.560182e+02   2.744097e+00
   2.153304e+02   1.949807e+02
  -3.142252e+01   2.288374e+02
  -1.958252e+02   1.905255e+02
  -1.996944e+02   2.564154e+01
  -9.250510e+01  -6.269552e+01
   3.768594e+01  -4.994324e+01
   4.602254e+01   2.670112e+01
  -5.711590e+01   6.033114e+01
  -1.664511e+02   3.300343e+00
  -1.412373e+02  -1.030672e+02
  -1.412521e+01  -1.250630e+02
   6.124351e+01  -9.671411e+01
   6.896761e+01  -4.494594e+00
   7.652391e+00   4.050560e+01
  -7.437836e+01  -2.637174e+01
  -1.759692e+01  -1.004390e+02
   1.169025e+02  -8.755472e+01
   1.593869e+02   1.894766e+01
   1.120576e+02   1.202427e+02
  -1.781254e+01   1.731905e+02
  -1.498638e+02   1.191350e+02
  -1.621362e+02  -2.245676e+01
  -4.145511e+01  -2.850312e+01
   6.212692e+01  -8.425849e+01
   6.946387e+01  -2.287591e+01
   1.926162e+01   4.607920e+01
  -3.087254e+01   2.228932e+01
   5.005999e+01  -1.573121e+01
   6.077767e+01   3.263535e+01
   9.679670e+01   8.641137e+01
  -2.371852e+01   1.320246e+02
  -1.394435e+02   9.383978e+01
  -2.468419e+02  -1.089987e+01
  -1.222204e+02  -1.462888e+02
  -2.962543e+01  -1.701084e+02
   8.627398e+01  -1.195635e+02
   8.802978e+01  -4.936009e+01
   2.414333e+01   2.187424e+01
   5.131301e+01   1.431048e+01
   7.419429e+01   5.728998e-01
   7.637423e+01   6.203609e+00
   6.451261e+01   5.603297e+01
  -2.626456e+01   9.790891e+01
  -9.871141e+01   4.640132e+01
  -6.214653e+01  -5.380497e+01
   3.510385e+01  -8.267568e+01
   1.377922e+02  -4.291064e+01
   1.647175e+02   7.343775e+01
   7.483494e+01   1.881471e+02
  -1.027287e+02   1.540618e+02
  -2.359110e+02   3.970933e+01
  -1.605369e+02  -7.675937e+01
  -7.785358e+01  -1.360017e+02
   1.874909e+01  -1.019758e+02
   1.105456e+02  -8.745060e+01
   5.340398e+01  -6.776602e+01
   2.959110e+01  -8.056120e+01
   8.366133e+01  -4.466770e+01
   7.000570e+01   1.253740e+01
   7.902624e+01   1.165644e+02
   1.199085e+01   1.672826e+02
  -8.689378e+01   1.296831e+02
  -1.633267e+02  -6.265934e+00
  -7.234942e+01  -8.602026e+01
   1.143706e+01  -1.431807e+02
   7.779137e+01  -3.782115e+01
   7.529148e+01  -2.504972e+01
   2.617807e+01   4.333579e+01
  -3.007990e+01   3.472981e+01
   5.981076e+01  -2.719673e+00
   6.653689e+01   2.416289e+01
   3.147955e+01   2.297044e+01
  -5.627015e+01   2.091368e+01
  -1.239044e+02   2.473195e+00
  -8.753683e+01  -4.525756e+01
   2.960570e+01  -4.619112e+01
   7.795919e+01  -5.709121e+01
   1.161494e+02   1.726884e+01
   3.280770e+01   5.415351e+01
  -6.654295e+01   3.549885e+01
  -7.746574e+01  -5.069137e+01
  -3.187350e+00  -7.808626e+01
   6.213354e+01  -6.128088e+01
   2.197792e+01   4.932076e+00
   5.412857e+01   5.047053e+01
   5.409530e+01  -4.669325e+00
   7.675526e+01   3.794744e+01
   1.025428e+02   3.559036e+01
   2.018437e+01   1.113226e+02
  -6.760527e+01   1.199194e+02
  -9.292170e+01   9.718776e+01
  -1.205126e+02   2.015674e+01
  -1.154259e+02  -8.722406e+01
   3.243193e+00  -9.987257e+01
   4.890425e+01  -5.225465e+01
   4.895904e+01  -1.673748e+01
  -5.101875e+01   9.636448e+00
  -1.013539e+02  -3.234727e+01
  -7.948675e+01  -8.591127e+01
   1.265322e+02  -4.119538e+01
   1.872279e+02  -2.098088e+01
   1.181545e+02   4.062882e+01
   2.374569e+01   6.881309e+01
  -3.501806e+01   5.968484e+01
  -4.805505e+01   5.226743e+00
   4.969896e+01  -3.767028e+01
   9.591248e+01   2.852710e+01
   1.491418e+01   1.176262e+02
  -8.521006e+01   1.560034e+02
  -1.408516e+02   2.904842e+01
  -8.867016e+01  -8.633759e+01
   1.842976e+01  -1.593989e+02
   6.054546e+01  -1.095451e+02
   7.650712e+01   2.903221e+01
   3.151134e+01   1.140517e+02
  -2.561332e+01   9.150744e+01
  -6.784774e+01  -7.388496e+00
  -4.278398e+01  -2.884211e+01
  -2.932769e-01  -1.127164e+01
  -7.446815e+00   3.033874e+01
  -1.894753e+01  -4.626388e+01
  -5.926349e+01  -5.429409e+01
   9.767838e+00  -7.830689e+01
   5.081812e+01  -2.096848e+01
   1.179743e+02   4.405302e+01
   1.180834e+02   8.183671e+01
   9.539614e+00   4.141832e+01
  -7.103731e+01   1.645862e+01
  -6.737821e+01   9.493367e+00
  -2.593481e+01  -1.118485e+01
   2.492527e+01  -4.190779e+01
   2.218760e+01  -8.543602e+00
  -1.797675e+01   4.805627e+00
   1.219159e+01  -1.965689e+01
   7.125107e+01  -7.103394e+00
   5.242677e+01   4.746729e+01
   2.762104e+01   6.621122e+01
  -1.040156e+02   1.019739e+02
  -1.278870e+02   6.667342e+01
  -9.861679e+01  -5.130172e+01
  -2.299071e+01  -1.401852e+02
   6.961722e+01  -1.292812e+02
   1.020673e+02  -5.806609e+01
   8.436443e+01   1.895437e+01
   2.057849e+01   1.203213e+01
  -1.877177e+01   2.138954e+01
   1.272732e+01   2.269931e+01
  -1.110027e-01   4.286956e+01
   1.328200e+01   7.704622e+01
  -4.650161e+01   4.633525e+01
  -8.096206e+01  -1.968050e+01
  -5.264079e+01  -8.130110e+01
   1.451923e+01  -7.443264e+01
   5.643208e+01  -4.818890e+01
   9.813541e+01   6.266638e+01
   3.556850e+01   6.673302e+01
  -4.087760e+01   5.215930e+01
  -8.854597e+01  -3.316584e+00
  -2.261509e+01  -2.097652e+01
   2.688160e+01  -1.903470e+01
   4.535547e+01  -3.362586e+01
   3.390463e+00   6.813681e-01
  -5.992733e+01  -2.417502e+00
  -2.192533e+01  -1.640809e+01
   5.222826e+01  -5.440661e+01
   8.419336e+01  -2.286077e+01
   4.948527e+01  -4.249186e+00
  -3.696673e+01   8.474503e+01
  -5.514938e+01   5.337791e+01
  -4.618267e+01   5.032193e+00
   1.890605e+01  -4.183769e+01
   1.294581e+01  -3.425029e+01
   5.286090e+01   3.668165e+01
   2.570551e+01   3.063308e+01
  -7.550369e+00   2.326244e+01
  -2.372825e+01  -1.071653e+01
  -1.407407e+01  -3.873055e+01
  -1.795996e+01   3.202233e+01
   1.167975e+01   2.480379e+01
  -1.646322e+01  -3.820605e+00
  -2.092404e+01  -4.356887e+01
  -7.798943e+00  -4.674253e+01
   2.298017e+01  -9.817048e+00
   1.088622e+01   4.332275e+01
  -6.948493e+00   4.567702e+01
  -4.164035e+01   9.348528e+00
  -5.700312e+01  -1.967935e+01
  -1.720111e+01  -4.599250e+01
   6.265399e+01  -2.198822e+01
   6.359133e+01  -5.127635e-01
   4.232172e+01   1.183244e+01
  -1.923031e+01   5.887589e+01
  -7.432007e+01   3.721058e+01
  -1.482510e+01   5.294981e+00
   2.415194e+01  -2.736731e+01
   3.939956e+01  -8.420672e+00
  -1.776135e+01   7.629675e+00
  -4.473445e+01   3.879865e+01
