
 $NMID
 id='ANONYMOUS ', fmtdat='(2E16.6)'
 volume=1.0
 tramp=1.0
 $END
   2.383760e+03  -4.180906e+01
   1.969646e+03   1.279115e+03
   2.933594e+02   1.736362e+03
  -9.572546e+02   1.222827e+03
  -8.711448e+02   2.944698e+02
  -2.185260e+02  -5.637230e+01
   1.679033e+02  -1.374946e+01
   7.316555e+01   3.287712e+02
  -3.455112e+02   4.607512e+02
  -5.252992e+02   1.060834e+02
  -4.492474e+02  -4.061371e+02
  -6.759614e+01  -5.956477e+02
   2.394921e+02  -2.521002e+02
   2.452053e+02   3.050214e+02
  -4.143469e+01   4.721289e+02
  -3.094519e+02   1.286801e+02
  -3.032028e+02  -4.182624e+02
   6.904122e+01  -5.939191e+02
   4.810390e+02  -3.057075e+02
   4.387884e+02   1.254334e+02
   1.593178e+02   3.919394e+02
  -1.301609e+02   2.312012e+02
  -1.156891e+02   7.428136e+01
   1.629828e+02   5.912416e+01
   2.198572e+02   2.490639e+02
  -1.940923e+01   3.287913e+02
  -4.485284e+02   1.347404e+02
  -5.397768e+02  -1.448125e+02
  -1.780680e+02  -3.135364e+02
   2.427954e+02  -1.451172e+02
   4.153801e+02   1.097013e+02
   1.514865e+02   2.923595e+02
  -2.193085e+02   3.012207e+02
  -4.087474e+02   6.794235e+01
  -3.170570e+02  -1.002969e+02
  -7.291109e+01  -2.538450e+02
   1.890145e+01  -1.521585e+02
  -4.172619e+01   2.308087e+01
  -2.133121e+02   1.208478e+02
  -1.320835e+02  -1.695347e+02
   1.422792e+01  -4.355179e+02
   2.390058e+02  -3.313191e+02
   2.792012e+02   1.862981e+01
   8.565603e+01   2.682588e+02
  -1.446124e+02   1.164691e+02
  -1.511846e+02  -2.248058e+02
   1.155674e+02  -2.659131e+02
   4.044242e+02  -1.972324e+00
   3.687898e+02   3.234685e+02
   7.788863e+01   4.257328e+02
  -2.511996e+02   2.091097e+02
  -4.167883e+02  -1.163722e+02
  -2.462820e+02  -1.855868e+02
   2.821262e+01  -1.947568e+02
   2.421757e+02  -5.140910e+01
   1.413998e+02   2.847565e+01
   2.453094e+01  -1.421273e+01
  -6.228177e+01  -2.804336e+01
   1.010177e+02  -3.633663e+01
   1.882808e+02   1.919518e+01
   1.145471e+02   1.383945e+02
  -1.133535e+02   2.186784e+02
  -3.148348e+02   1.449865e+02
  -2.748119e+02  -9.327520e+01
   2.094890e+01  -3.044194e+02
   2.715009e+02  -3.574836e+02
   3.144998e+02  -1.741161e+02
   1.864839e+02   1.524677e+02
   1.297262e+01   3.229816e+02
  -4.939322e+01   2.679354e+02
   2.489531e+00   1.812074e+02
  -1.805825e+01   9.649725e+01
  -1.453211e+02   1.111801e+02
  -2.346445e+02   3.657645e+01
  -2.147440e+02  -1.532831e+02
  -3.636993e+01  -2.732004e+02
   1.044882e+02  -1.710063e+02
   1.585653e+02   4.127132e+01
   1.099123e+02   1.937560e+02
  -4.954643e+01   2.026991e+02
  -2.157424e+02   2.292089e+01
  -2.471067e+02  -1.564253e+02
  -1.105228e+02  -2.757388e+02
   3.687689e+01  -2.308611e+02
   1.256860e+02  -1.282740e+02
   1.078301e+02  -5.156376e+01
   1.568257e+02  -6.854349e+01
   2.151309e+02  -3.560869e+01
   3.405954e+02   1.236616e+02
   3.470086e+02   2.877090e+02
  -1.790031e+01   3.919570e+02
  -3.575715e+02   3.843094e+02
  -4.675369e+02   1.159564e+02
  -2.757586e+02  -1.538518e+02
   1.443639e+00  -2.251293e+02
   1.179419e+02  -1.515295e+02
   2.826533e+01  -5.383936e+01
  -9.704018e+01   9.592524e+00
  -1.062683e+02  -7.199203e+01
  -3.273741e+01  -1.235425e+02
   9.432965e+01  -7.552313e+01
   6.621788e+01   5.123322e+01
  -1.981730e+00   9.993706e+01
  -1.344720e+02  -2.635910e+01
  -1.248899e+02  -1.844754e+02
   8.640426e+00  -2.996295e+02
   2.107363e+02  -1.741858e+02
   3.313441e+02   7.405083e+01
   2.298574e+02   2.384600e+02
   3.730102e+01   2.627696e+02
  -1.396157e+02   1.329424e+02
  -1.486658e+02  -1.975852e+01
  -3.527479e+01  -4.054449e+01
   6.764416e+01   2.912556e+01
   9.396854e+00   7.900232e+01
  -9.780833e+01   8.079708e+01
  -1.324742e+02  -3.238938e+01
  -5.469908e+01  -4.525174e+01
   7.531220e+01  -1.089131e+01
   7.412448e+01   7.248325e+01
  -1.206588e+02   1.137736e+02
  -2.402551e+02  -3.638318e+01
  -2.366375e+02  -1.433895e+02
  -4.362523e+00  -2.643044e+02
   2.207672e+02  -1.834691e+02
   2.638144e+02  -8.040836e+01
   1.362427e+02   5.973638e+01
  -4.107452e+01   8.576788e+01
  -7.453715e+01  -2.083964e+01
   6.136861e+01  -1.108194e+02
   1.541065e+02   7.175793e+00
   1.746202e+02   8.951467e+01
   6.065268e+01   1.992832e+02
  -8.883481e+01   1.374707e+02
  -1.484192e+02   2.434946e+01
  -4.949026e+01  -3.446105e+01
   4.896921e+01   2.360870e+00
   3.054848e+01   1.100823e+02
  -8.590273e+01   1.222537e+02
  -1.618462e+02   1.230785e+01
  -1.488586e+02  -1.204943e+02
   1.479947e+01  -1.665458e+02
   1.371603e+02  -1.150844e+02
   1.797303e+02   8.956071e+00
   5.522253e+01   1.210867e+02
  -6.570207e+01   5.223307e+01
  -6.335852e+01  -8.483004e+00
   1.909845e+00  -3.999557e+01
   5.781714e+01  -1.243907e+01
   1.188253e+01   3.062847e+01
  -8.499209e+01  -2.256896e+01
  -1.210596e+02  -6.770099e+01
  -2.662374e+01  -1.464339e+02
   1.309322e+02  -1.426944e+02
   2.199561e+02   2.371448e+00
   1.433055e+02   1.391753e+02
   4.406086e+01   2.165225e+02
  -7.315523e+01   1.851459e+02
  -1.402345e+02   1.616655e+01
  -8.525619e+01  -2.188878e+01
  -5.160405e+01  -2.762017e+01
  -5.929387e+01  -2.169193e+01
  -7.794905e+01  -1.055991e+01
  -7.104003e+01  -4.682691e+01
   4.046552e+01  -9.418951e+01
   1.364076e+02  -7.153400e+01
   1.059094e+02   6.037122e+01
   5.318585e+00   1.385488e+02
  -1.783487e+02   4.879338e+01
  -1.884794e+02  -7.068205e+01
  -7.530432e+01  -1.881858e+02
   1.120729e+02  -1.930480e+02
   2.665109e+02  -6.441795e+01
   2.247325e+02   1.207995e+02
   8.617079e+01   1.826645e+02
  -2.373509e+00   1.424343e+02
  -7.627083e+01   9.180658e+01
  -9.278831e+01   6.166502e+01
  -6.430420e+01   7.415738e+01
  -8.890530e+01   9.564285e+01
  -1.229888e+02  -9.760988e+00
  -8.348066e+01  -1.345305e+02
  -7.153480e+01  -2.178723e+02
   9.388886e+01  -1.699981e+02
   1.636040e+02  -9.312162e+00
   1.263286e+02   1.539436e+02
  -2.136983e+00   1.323343e+02
  -6.185004e+01   6.833391e+01
  -7.364939e+01  -3.144444e+01
   9.274602e+00  -2.146524e+01
   4.376098e+01  -2.578424e+01
   5.689752e+00   3.574385e+00
  -7.200579e+01  -3.419842e+01
  -6.985780e+01  -4.553030e+01
   7.449608e+01  -4.932983e+01
   1.703057e+02   1.771239e+01
   1.328644e+02   8.790817e+01
  -3.473182e+00   7.216732e+01
  -1.442823e+02   7.595359e+01
  -1.475717e+02  -2.077373e+01
  -3.661786e+01  -4.991708e+01
   7.499686e+01  -2.945025e+01
   7.097810e+01   2.202004e+01
   8.764439e+00   7.032816e+01
  -3.960046e+01   7.259581e+01
  -5.682194e+01  -1.839442e+01
  -4.652682e+01  -3.106397e+01
  -3.319118e+01  -2.865849e+01
  -3.413269e+01   1.182939e+01
  -6.652301e+01   5.113059e+00
  -6.344089e+01  -3.756727e+01
   1.205793e+01  -1.299655e+02
   9.414101e+01  -1.184839e+02
   1.753310e+02   8.377827e+00
   1.411161e+02   8.542731e+01
  -1.290423e+01   1.347776e+02
  -8.781670e+01   6.153391e+01
  -5.521224e+01  -2.067914e+00
   4.848031e+01  -3.095924e+01
   1.263604e+02   2.676935e+01
   7.299576e+01   1.189977e+02
  -6.368057e+01   1.129318e+02
  -1.598974e+02   4.816906e+00
  -1.248818e+02  -5.688121e+01
  -4.075897e+01  -1.053849e+02
   8.789336e+01  -5.022935e+01
   6.063058e+01   3.029826e+01
  -4.085511e+01   4.724110e+01
  -1.095173e+02   1.514468e+01
  -3.614476e+01  -1.055128e+02
   6.986067e+01  -1.481751e+02
   1.756980e+02  -6.185180e+01
   1.072076e+02   9.370372e+01
   8.506357e+00   2.022166e+02
  -8.847380e+01   1.162611e+02
  -9.419052e+01  -2.258372e+01
  -5.295753e+01  -1.235943e+02
   9.371908e+00  -6.858771e+01
   6.809366e+01   7.681675e+00
   1.808195e+01   3.093954e+01
  -1.321016e+01   2.833571e+01
  -4.517526e+01  -2.889987e+01
   2.615212e+01   3.579232e+00
   2.200496e+01   6.151239e+01
   4.263340e+01   1.263571e+02
  -3.669384e+01   4.656971e+01
  -1.295761e+02  -5.512509e+01
  -1.126879e+02  -9.553630e+01
  -4.020156e+01  -5.824836e+01
   7.144434e+01  -2.562774e+01
   9.004715e+01  -1.720917e+00
   2.797303e+01   6.697571e+00
  -4.369830e+01   1.354336e+01
  -3.129234e+01   1.797098e+01
   8.723345e+00  -9.073918e+00
  -1.434267e+01  -1.773747e+01
  -5.054675e+01   1.139377e+01
  -9.526440e+01  -4.006310e+01
  -1.332147e+01  -7.263709e+01
   9.695234e+01  -1.033566e+02
   1.755732e+02  -6.070308e+01
   1.469776e+02   8.566498e+01
   5.808214e+01   1.628712e+02
  -9.127711e+01   1.613842e+02
  -8.943909e+01   7.066956e+01
  -4.891201e+01  -1.147688e+01
  -1.539411e+01  -4.036800e+01
  -2.475222e+01  -2.383468e+01
  -1.454902e+00  -4.106816e-01
  -1.902613e+01  -5.731026e+01
  -2.220995e+01  -8.448746e+01
   4.577425e+01  -7.913605e+01
   8.069823e+01   3.169880e+01
   7.176713e+01   8.825260e+01
   5.504904e+00   1.049055e+02
  -6.766278e+01   3.611141e+01
  -9.145404e+01  -4.378897e+01
  -5.561438e+01  -1.327054e+02
   6.749538e+01  -8.449656e+01
   1.018962e+02   1.101579e+01
   3.333997e+01   6.397352e+01
  -2.696849e+01   5.897444e+01
  -6.096420e+01   3.935541e+01
   1.134023e+01  -5.902923e+00
   6.093088e+01  -7.385068e+00
   2.833738e+01   2.222722e+01
  -4.478858e+01   7.752588e+01
  -1.033022e+02   3.663069e+01
  -4.387092e+01  -6.817911e+00
  -2.389424e+01  -8.440635e+01
   6.673810e+01  -9.270843e+01
   7.601228e+01  -2.900544e+00
   1.025212e+01   9.263790e+01
  -3.151940e+01   7.037944e+01
  -6.311176e+01   1.913724e+01
  -2.398555e+01  -5.130955e+01
   2.291932e+00  -3.476899e+01
   3.428589e+01  -1.398367e+01
   2.958250e+01   3.668527e+01
   2.999073e+01   3.141594e+00
  -3.111901e+01   2.197044e-01
  -3.159054e+01   1.065182e+01
   1.385312e+01  -4.702391e+00
   3.479691e+01   5.464821e+01
  -4.350233e+01   3.322005e+01
  -3.541506e+01  -1.477044e+01
  -3.235572e+01  -4.873192e+01
   3.020426e+01  -4.095566e+01
   7.724090e+01   4.921686e+01
   2.965990e+01   4.783342e+01
  -3.290567e+01   1.655233e+01
  -3.907302e+01  -1.584049e+00
  -6.758348e+01  -2.097915e+01
   1.127462e+01  -1.641854e+01
   4.064834e+01  -3.508180e+01
   1.658799e+01   6.303995e+00
  -1.744196e+01   1.222370e+01
  -5.715985e+01  -1.076805e+01
   8.696238e+00  -1.039318e+01
   8.981312e+01  -1.171325e+01
