
 $NMID
 id='ANONYMOUS ', fmtdat='(2E16.6)'
 volume=1.0
 tramp=1.0
 $END
   2.203020e+03  -1.376953e+02
   1.317730e+03   1.019997e+03
   2.476373e+02   1.637163e+03
  -7.385624e+02   1.095732e+03
  -6.705126e+02   2.549770e+02
  -1.373477e+02  -1.005927e+02
   2.009902e+02   1.411059e+01
   1.496608e+01   3.920602e+02
  -2.834729e+02   4.796033e+02
  -4.069719e+02   1.280612e+02
  -3.365606e+02  -2.927667e+02
  -6.855662e+01  -4.939590e+02
   1.686865e+02  -1.730019e+02
   1.870332e+02   1.972942e+02
  -7.101074e+00   3.835310e+02
  -2.611160e+02   8.124200e+01
  -2.544970e+02  -3.786752e+02
   3.875364e+01  -4.816516e+02
   3.091022e+02  -2.486028e+02
   3.633593e+02   1.001447e+02
   1.602692e+02   2.538507e+02
  -4.290401e+01   1.535559e+02
   1.654479e+01   8.011832e+01
   1.518254e+02   1.023576e+02
   1.982699e+02   2.663647e+02
  -3.302554e+01   2.487975e+02
  -2.971649e+02   9.883765e+01
  -4.007376e+02  -1.501980e+02
  -1.209365e+02  -2.382374e+02
   2.228614e+02  -1.193835e+02
   3.163666e+02   1.479903e+02
   1.199288e+02   2.151945e+02
  -1.726162e+02   2.052606e+02
  -3.155067e+02   1.029247e+02
  -2.382267e+02  -1.085254e+02
  -8.952746e+01  -2.084591e+02
  -4.404036e+01  -1.218674e+02
  -6.913864e+01   4.201389e+01
  -1.411601e+02   7.427617e+01
  -8.926500e+01  -9.799528e+01
   2.718993e+01  -3.265639e+02
   1.461797e+02  -2.919036e+02
   1.416816e+02  -5.567337e+01
   6.561931e+01   1.893818e+02
  -7.570444e+01   9.245233e+01
  -9.691677e+01  -2.024203e+02
   3.930559e+01  -2.669308e+02
   3.285969e+02  -7.030747e+01
   4.252468e+02   3.262643e+02
   1.801261e+02   3.811315e+02
  -1.964342e+02   2.180273e+02
  -3.681602e+02   2.506196e+01
  -2.530440e+02  -1.640025e+02
  -3.831595e+01  -1.154391e+02
   1.643989e+02  -8.928089e+01
   1.319744e+02  -2.110666e+01
   1.640881e+01  -1.341533e+01
  -5.663509e+01  -2.410504e+01
   7.159545e+01  -7.430471e+01
   1.869028e+02   3.121830e+01
   1.055044e+02   9.724953e+01
  -1.366335e+02   2.002348e+02
  -2.844046e+02   7.722849e+01
  -1.985237e+02  -7.080841e+01
   3.634841e+01  -2.308092e+02
   2.548695e+02  -2.943788e+02
   2.449774e+02  -7.785123e+01
   1.482938e+02   1.157290e+02
   1.151772e+01   2.775117e+02
   3.851406e+00   2.070703e+02
   3.170542e+00   1.278173e+02
  -3.006057e+01   1.050588e+02
  -8.725551e+01   9.760057e+01
  -1.703531e+02   7.018086e+01
  -1.753831e+02  -8.834865e+01
  -7.019810e+01  -1.750301e+02
   5.428859e+01  -1.260262e+02
   1.584428e+02   3.238593e+01
   1.053461e+02   1.755898e+02
  -7.070549e+01   1.783079e+02
  -1.639594e+02   2.584574e+01
  -1.921289e+02  -1.134191e+02
  -8.842499e+01  -2.119993e+02
   3.928337e+01  -1.743973e+02
   8.279070e+01  -1.311199e+02
   1.013792e+02  -7.644176e+01
   1.010498e+02  -8.323161e+01
   2.203534e+02  -4.967173e+01
   2.849846e+02   6.147854e+01
   2.529207e+02   1.800497e+02
  -1.886764e+01   3.444624e+02
  -2.385849e+02   3.080870e+02
  -2.573403e+02   1.491643e+02
  -2.077637e+02  -5.022363e+01
  -2.337713e+01  -1.404912e+02
   6.388967e+01  -1.245133e+02
  -5.402367e+00  -4.704584e+01
  -6.760372e+01   6.716468e+01
  -8.360714e+01  -1.774551e+01
   3.613606e+00  -8.979992e+01
   3.244522e+01  -5.778625e+01
   7.658454e+01   3.534870e+01
  -3.965951e+01   8.183886e+01
  -1.365986e+02  -4.373369e-01
  -1.183193e+02  -1.428988e+02
   1.634096e+01  -2.887035e+02
   1.800960e+02  -1.704898e+02
   2.458484e+02   6.550039e+01
   1.864656e+02   1.804743e+02
   3.570114e+01   1.886334e+02
  -1.204074e+02   9.265843e+01
  -5.804049e+01  -2.860061e+01
  -2.030132e+01   2.852886e+01
   3.407644e+01   4.059257e+01
  -6.623582e-01   7.781509e+01
  -1.001969e+02   6.083639e+01
  -1.045584e+02   5.655107e-01
  -2.770353e+01  -5.153518e+01
   7.179294e+01   7.188468e+00
   8.139181e+00   7.748185e+01
  -1.000736e+02   7.472079e+01
  -2.372236e+02  -2.601624e+01
  -1.788724e+02  -1.408045e+02
  -1.007249e+01  -1.823141e+02
   1.560582e+02  -1.937296e+02
   2.173037e+02  -1.027949e+02
   1.074737e+02   4.881655e+01
   4.734348e+00   8.855237e+01
  -2.412694e+01   3.316323e+01
   3.135973e+01  -3.723738e+01
   1.370430e+02  -1.802284e+01
   9.474918e+01   7.113338e+01
   4.030474e+01   1.115800e+02
  -6.292946e+01   8.081523e+01
  -1.076639e+02   4.609051e+00
  -1.119800e+01  -3.509211e+01
   5.676490e+01   7.748857e+00
   1.323116e+01   6.367137e+01
  -4.791040e+01   8.517465e+01
  -1.723900e+02   3.267069e+01
  -1.517358e+02  -1.144983e+02
  -2.013771e+00  -1.495366e+02
   8.971529e+01  -1.284068e+02
   1.149528e+02  -1.184803e+01
   5.327701e+01   4.447000e+01
  -6.115493e+01   4.782311e+01
  -7.563338e+01   5.186765e+01
   1.218655e+01  -6.680638e+00
   5.397416e+01   1.344682e+01
  -3.849716e+01   5.906660e+01
  -6.820472e+01  -1.645633e+01
  -8.738024e+01  -6.901736e+01
  -1.925007e+01  -1.186866e+02
   1.233352e+02  -1.097711e+02
   1.643046e+02  -1.702685e+01
   1.158819e+02   1.097761e+02
   3.247265e+01   1.513105e+02
  -7.284244e+01   1.119482e+02
  -9.027527e+01   1.496924e+01
  -6.186795e+01  -1.496347e+01
  -3.377276e+00  -1.123369e+01
  -5.159064e+01   2.858133e+01
  -6.841186e+01  -1.306404e+00
  -5.254262e+01  -3.260628e+01
   1.994881e+01  -5.467447e+01
   1.133531e+02  -5.873058e+01
   9.565867e+01   5.100571e+01
  -9.967581e+00   1.142600e+02
  -1.462393e+02   4.544397e+01
  -1.422636e+02  -3.491236e+01
  -6.364861e+01  -1.593508e+02
   1.152451e+02  -1.783210e+02
   2.255067e+02  -4.074494e+01
   1.612609e+02   7.606299e+01
   4.734242e+01   1.175235e+02
  -2.720283e+01   9.941154e+01
  -6.398345e+01   5.000764e+01
  -4.857145e+01   3.911356e+01
   5.975613e+00   9.129613e+01
  -6.173544e+01   6.149598e+01
  -1.146389e+02  -8.542272e+00
  -8.614160e+01  -1.070755e+02
  -1.109682e+00  -1.676896e+02
   6.195847e+01  -1.320558e+02
   1.071659e+02  -3.496152e+00
   8.053676e+01   7.445729e+01
   2.675608e+01   9.741510e+01
  -6.950386e+01   4.854408e+01
  -4.218502e+01  -2.692448e+01
   4.495549e+00  -4.890728e+01
   1.018318e+01  -2.801833e+01
   2.448820e+00   1.287138e+01
  -5.659084e+01  -3.309781e+00
  -4.096897e+01   3.307447e+00
   8.146895e+01  -4.426983e+01
   1.303386e+02  -3.496880e-01
   7.683006e+01   3.717958e+01
  -7.209489e+00   9.115443e+01
  -1.183729e+02   6.192911e+01
  -1.333356e+02   4.829346e+01
  -4.216463e+01  -1.321317e+01
   2.650095e+01  -2.603942e+01
   2.135863e+01   9.483022e+00
   5.170801e+01   4.913781e+01
  -5.022782e+01   7.189176e+01
  -5.452773e+01   5.912599e+00
  -5.121098e+01  -3.640063e+01
  -2.219262e+01  -4.428315e+01
  -3.997372e+01   1.553518e+01
  -6.977190e+01  -2.779978e+00
  -3.255532e+01  -4.506187e+01
   1.663572e+01  -1.449616e+02
   1.086638e+02  -8.633895e+01
   1.307609e+02  -1.308244e+01
   1.190190e+02   7.628731e+01
  -1.343742e+01   1.293677e+02
  -9.036060e+01   8.212885e+01
  -6.319275e+01  -9.691576e+00
   3.115171e+01  -7.589433e+00
   1.089493e+02   1.784918e+01
   6.872850e+01   8.042173e+01
  -6.901639e+01   7.370663e+01
  -1.762512e+02   2.027911e+01
  -1.179328e+02  -1.074807e+01
  -5.759468e+01  -7.464824e+01
   3.572314e+01  -2.803393e+01
   1.990156e+01   8.080025e+00
  -2.057190e+01   2.208778e+01
  -5.464728e+01  -1.811351e+01
  -3.443905e+01  -7.777390e+01
   2.534342e+01  -1.331874e+02
   1.152248e+02  -5.115097e+01
   1.033929e+02   6.028013e+01
   3.031762e+01   8.574919e+01
  -6.437002e+01   9.980843e+01
  -6.720502e+01  -1.849139e+01
  -1.014508e+01  -7.436765e+01
   2.299748e+00  -4.646123e+01
   1.066003e+01  -1.605956e+01
   1.879698e+01   1.287583e+01
   9.181737e+00  -2.806618e+01
  -2.220925e+00  -2.945017e+01
   4.735440e+01   1.181561e+01
   3.738397e+01   9.962837e+01
   2.327991e+01   6.785305e+01
  -6.941224e+01   5.812639e+01
  -1.012199e+02   9.672995e+00
  -7.751135e+01  -5.284073e+01
   1.222049e+01  -2.379133e+01
   5.150551e+01  -2.949100e+01
   6.720137e+01  -1.885052e+01
   2.153271e+01   2.768411e+01
  -4.974246e+01  -1.122284e+01
   5.222297e+00   2.367610e+00
   2.338823e+01  -1.268872e+01
  -2.547546e+01  -2.121221e+01
  -4.662417e+01   3.225675e+01
  -9.120341e+01  -7.228432e-01
  -3.353527e+01  -6.159252e+01
   7.730494e+01  -8.924467e+01
   1.309793e+02  -8.312404e+01
   1.393024e+02   3.000191e+01
   4.790450e+01   1.753717e+02
  -3.973591e+01   1.524400e+02
  -7.911314e+01   7.125862e+01
  -6.148443e+01  -3.434053e+01
  -3.235254e+01   1.783479e+01
  -2.501055e+01  -8.689602e+00
  -3.508125e+01   7.546605e+00
  -4.521129e+01  -3.436074e+01
  -1.927161e+01  -8.123458e+01
   1.978896e+01  -6.411887e+01
   4.548901e+01   2.778200e+01
   7.915162e+01   7.394961e+01
   1.288825e+01   5.670232e+01
  -8.242549e+01   1.248864e+01
  -1.001789e+02  -5.365006e+01
  -3.274515e+01  -4.385920e+01
   6.064229e+01  -5.412887e+01
   9.204567e+01   1.645014e+01
   7.376774e+01   1.801238e+01
   7.268997e+00   4.621641e+01
  -3.416536e+01   1.101634e+01
  -1.805737e+00  -2.439893e+01
   6.121995e+01  -2.570275e+01
   2.194640e+01   4.009897e+01
  -5.999159e+01   5.372919e+01
  -9.680150e+01   3.545606e+01
  -4.146417e+01  -4.350605e-01
   1.839592e+01  -6.097105e+01
   1.777191e+01  -5.356670e+01
   1.807578e+01  -8.907581e+00
   1.570329e-02   2.505444e+01
  -2.311511e+01   6.341594e+01
  -3.030265e+01   9.945403e-01
  -1.641014e+01  -4.080914e+01
  -2.511163e+00  -3.504613e+01
   2.455499e+01  -2.612193e+01
   4.453760e+01   2.248310e+01
  -6.695784e+00  -2.225177e+01
  -2.396021e+01  -2.242331e+01
   3.871194e+00   1.235592e+01
  -9.651786e+00   8.255392e+00
  -1.049154e+00   1.910431e+01
  -5.799343e-01   3.780338e+01
  -1.563222e+01  -3.182485e+00
  -2.780099e+01  -3.544735e+01
   5.048581e+01  -3.909150e+01
   2.946073e+01   2.598683e+01
   3.362442e+01   3.906239e+01
  -2.029290e+01   2.647052e+01
  -7.798386e+01  -2.159077e+00
  -5.667989e+01  -1.459055e+01
   3.415422e+01  -1.535312e+01
   4.315462e+01  -3.559028e+01
   9.308962e+00  -2.292107e+01
  -2.810972e+01   4.911173e+00
  -1.575826e+01  -6.174343e+00
  -6.210791e+00  -1.789380e+01
   6.924088e+01  -3.531511e+01
