
 $NMID
 id='ANONYMOUS ', fmtdat='(2E16.6)'
 volume=1.0
 tramp=1.0
 $END
  -1.745236e+03  -8.776872e+01
  -1.033547e+03  -7.833129e+02
  -4.777499e+00  -8.725715e+02
   6.933680e+02  -5.895961e+02
   4.800514e+02  -1.074922e+02
   6.972166e+01   1.225530e+02
  -1.619508e+02  -4.154577e+01
   1.214384e+01  -1.901706e+02
   2.289388e+02  -3.281833e+02
   3.169599e+02  -8.861757e+01
   2.958471e+02   2.786598e+02
   4.652089e+01   3.130726e+02
  -8.112620e+01   1.214363e+02
  -1.558575e+02  -1.377919e+02
  -2.350062e+01  -2.622892e+02
   1.539925e+02  -1.120443e+02
   1.877700e+02   1.790085e+02
  -5.192430e+01   2.908571e+02
  -1.662436e+02   2.109968e+02
  -2.280873e+02  -4.693820e+01
  -6.653492e+01  -1.409844e+02
   4.608251e+01  -1.525724e+02
   1.071828e+01  -9.775153e+01
  -5.784324e+01  -8.513257e+01
  -1.131070e+02  -1.575682e+02
   7.672610e+01  -1.617158e+02
   1.751532e+02  -2.404692e+01
   2.614721e+02   7.522467e+01
   5.799634e+01   1.212543e+02
  -1.126240e+02   4.533508e+01
  -2.183292e+02  -9.413476e+01
  -6.403826e+01  -1.529247e+02
   1.299073e+02  -1.351448e+02
   2.157310e+02  -1.803894e+01
   1.641776e+02   6.189041e+01
   3.620556e+01   1.093006e+02
   9.015428e+00   1.090170e+02
   2.142608e+01  -2.463264e+01
   1.506792e+01  -9.533827e+01
   5.806181e+01   3.032005e+01
   3.247606e+01   1.832938e+02
  -1.020445e+02   1.368829e+02
  -6.828513e+01   2.557126e+01
  -7.904641e+01  -7.020613e+01
   6.652725e+01  -7.424959e+01
   8.338868e+00   1.318013e+02
  -7.054432e+01   1.869503e+02
  -2.476148e+02   3.968220e+01
  -2.840524e+02  -1.682718e+02
  -9.440768e+01  -2.872983e+02
   1.510775e+02  -1.242977e+02
   2.563540e+02  -1.158879e+01
   2.387148e+02   1.319871e+02
   2.434580e+01   1.236925e+02
  -1.280373e+02   8.288340e+01
  -1.527453e+02   2.539760e+01
  -4.494596e+01   7.957494e-01
   3.466327e+01   6.369155e+00
  -2.780788e+01   1.714791e+01
  -1.396992e+02  -3.079642e+01
  -5.232625e+01  -1.121642e+02
   7.784151e+01  -1.911290e+02
   1.897467e+02  -6.656901e+01
   1.577796e+02   4.530643e+01
  -3.992103e+01   1.786138e+02
  -1.591826e+02   2.280388e+02
  -1.446976e+02   1.817629e+01
  -8.712121e+01  -6.935767e+01
  -2.952452e+01  -1.764742e+02
   1.943125e+01  -1.499134e+02
   3.395200e+00  -8.622257e+01
  -8.392162e+00  -7.062681e+01
   7.698620e+01  -6.258036e+01
   1.065673e+02  -3.143915e+01
   1.616400e+02   6.423377e+01
   6.926161e+01   1.365569e+02
  -2.178104e+01   9.874929e+01
  -6.348135e+01  -3.183594e+01
  -8.916566e+01  -1.279635e+02
   4.063225e+01  -1.332523e+02
   1.528252e+02  -2.336710e+01
   1.606466e+02   9.159248e+01
   1.004260e+02   1.788841e+02
   7.787440e+00   9.706301e+01
  -8.947190e+01   9.981261e+01
  -8.751243e+01   3.408776e+01
  -8.118727e+01   9.128678e+01
  -1.598334e+02   1.303364e+01
  -2.228359e+02  -1.570331e+01
  -1.929846e+02  -1.120924e+02
  -9.406181e+00  -2.345235e+02
   1.714358e+02  -1.911220e+02
   2.070813e+02  -1.591220e+02
   1.234653e+02   6.892489e+01
   3.854987e+01   1.080938e+02
  -3.618263e+01   6.397368e+01
   3.452048e+00   2.504044e+01
   6.389075e+01  -1.485228e+01
   8.072176e+01   3.054113e+01
   9.352990e+00   8.873567e+01
  -3.944382e+01   2.828388e+01
  -5.318915e+01   8.205703e+00
   2.831049e+01  -4.945630e+01
   1.150312e+02  -2.627324e+00
   6.959473e+01   9.063351e+01
  -8.744963e+00   1.716962e+02
  -9.710209e+01   1.178228e+02
  -2.120000e+02  -4.074572e+01
  -1.176407e+02  -1.053943e+02
  -2.357823e+01  -1.447638e+02
   9.867704e+01  -1.058805e+02
   5.481938e+01  -1.087907e+01
   7.889676e+00  -2.434346e+01
  -2.081722e+01  -3.994423e+01
   2.427192e+01  -4.596560e+01
   6.282109e+01  -3.221942e+01
   6.476168e+01   4.166023e+01
   3.327956e+01   1.704133e+01
  -1.812625e+01   4.930421e+00
   9.442899e+00  -5.473873e+01
   3.292999e+01  -2.630587e+01
   1.235555e+02  -2.235081e+01
   1.224756e+02   5.104263e+01
   8.728039e+00   1.120867e+02
  -1.083640e+02   9.266222e+01
  -1.368173e+02   7.052116e+01
  -5.181013e+01  -2.397710e+01
   2.322574e+01  -3.251197e+01
   4.727165e+01  -6.924089e+00
   1.165386e+01   5.282924e+01
  -1.046479e+02   4.286107e+01
  -7.071736e+01  -2.744823e+01
  -2.976292e+01  -8.131752e+01
   4.339638e+01  -3.716308e+01
   5.326524e+01   1.385498e+01
   3.743897e+01   1.660972e+01
  -2.100532e+01  -1.747189e+01
  -2.647467e+01  -7.252380e+01
   6.188600e+01  -8.006500e+01
   1.145278e+02  -1.805147e+01
   9.133639e+01   5.588500e+01
   1.608412e+01   1.226853e+02
  -5.714951e+01   8.678980e+01
  -1.058472e+02   1.261309e+01
  -1.995156e+01  -9.719397e-01
   2.204017e+01  -5.168091e+01
   4.002529e+01  -3.330891e+01
  -6.416519e+00   1.206302e+01
  -4.365379e+01   2.037556e+01
   1.401688e+01  -3.943011e+01
   5.311115e+01  -1.605063e+01
   6.106176e+01   4.342412e+01
   2.183832e+01   1.012381e+02
  -5.567099e+01   1.072055e+02
  -8.597252e+01   9.431152e+00
  -1.181412e+02  -6.737944e+01
  -2.373564e+01  -1.193211e+02
   7.108679e+01  -8.518926e+01
   8.413965e+01  -1.655552e+01
   2.221707e+01   1.882830e+01
   2.642934e+01   9.571980e+00
   6.689156e+00   6.286069e+00
   5.498982e+01  -1.957030e+01
   1.238616e+01   1.190061e+00
  -2.225186e+01   5.666699e+01
  -5.771430e+01   3.246858e+00
  -4.803889e+01  -2.875021e+01
   2.528962e+01  -9.708824e+01
   9.577719e+01  -4.579502e+01
   9.724789e+01   3.321377e+01
   1.232753e+01   1.102571e+02
  -5.331040e+01   1.364298e+02
  -1.232487e+02   3.070471e+01
  -1.257847e+02  -3.337484e+01
  -3.917356e+01  -9.003258e+01
   2.509411e+01  -7.632622e+01
   4.982329e+01  -3.542642e+01
   4.870259e+01  -1.066784e+01
   9.341024e+00  -5.694852e+01
   3.434632e+01  -7.043339e+01
   1.124286e+02   3.196277e+01
   5.818195e+01   1.054647e+02
  -2.252403e+01   1.481152e+02
  -4.566122e+01   1.024741e+02
  -8.034182e+01  -2.982269e+01
  -5.272086e+01  -8.310799e+01
   1.280143e+01  -6.188263e+01
   5.336501e+01  -3.987562e+01
   4.982351e+01   2.888669e+01
  -4.676904e+00   7.841599e+01
  -4.138411e+00   7.973302e+00
   1.566548e+01  -2.317249e+01
   5.111246e+01   2.683081e+00
  -8.747123e+00   1.436148e+01
  -6.342849e+01   4.452159e+00
  -6.687295e+01  -1.192291e+01
  -5.032410e+01  -1.961482e+01
   1.987427e+01  -5.714415e+01
   1.009502e+02  -6.667546e+01
   7.844160e+01   1.082779e+01
   2.781080e+01   2.181753e+01
  -6.137456e+00   3.007673e+01
  -4.838917e+01  -1.074728e+01
  -3.994401e+01  -4.619734e+01
  -4.843602e+00  -3.389872e+01
   1.376100e+01  -4.825764e+01
   1.211965e+01   2.432831e+01
   8.566373e+00   2.220209e+01
   9.333190e+00  -6.728370e+00
   3.763925e+01  -8.632566e+00
   4.343280e+01   2.679564e+01
  -2.740794e+01   6.946059e+01
  -3.731283e+01   4.622644e+01
  -9.792653e+01   1.892462e+01
  -7.572106e+01  -5.169720e+01
  -8.101990e+00  -6.293559e+01
   7.201480e+01  -3.604059e+01
   3.423604e+01  -6.409694e+00
  -4.839066e+01   2.699046e+01
  -9.809100e+01  -3.703932e+00
  -7.153656e+01  -4.248724e+01
   7.718604e+01  -5.793420e+01
   1.066961e+02  -8.435162e+00
   9.007028e+01  -3.751734e+00
   1.754866e+01   5.053471e+01
  -7.949089e-01   1.687915e+01
  -5.000393e+01   7.911320e+00
   6.217963e+00   3.798771e+00
   6.009188e+01   4.686519e+01
   5.339179e+01   4.260469e+01
  -1.425555e+01   7.878036e+01
  -1.129216e+02   8.261673e+01
  -8.928265e+01  -4.330988e+01
  -9.241417e+00  -9.928277e+01
   2.567976e+01  -7.668300e+01
   6.373811e+01   2.668675e+01
  -6.172400e+00   3.020257e+01
   6.332431e+00   5.992556e+01
  -3.815329e+01   9.153285e+00
  -2.877764e+01  -3.729129e+01
   7.899031e+00   2.229163e+01
  -2.075705e+00  -1.958238e+00
  -1.546259e+01  -8.200748e+00
  -3.465062e+01  -2.436866e+01
  -6.268361e+00  -5.783383e+01
   2.159844e+01  -2.891493e+01
   8.258022e+01   9.383354e+00
   8.754196e+01   2.247599e+01
  -1.688442e+00   2.859805e+01
  -6.339543e+01   3.997018e+01
  -5.532512e+01   4.668538e-01
  -1.591279e+00  -2.880157e+01
   2.875828e+01  -4.575581e+00
   2.064458e+01  -2.155819e+01
   3.860266e+00  -8.551851e+00
  -5.943332e+00   1.690535e+01
   4.202827e+01  -3.402231e+01
   7.441348e+01  -3.084514e+01
  -2.282999e+00   4.970762e+01
  -7.721940e+01   6.365331e+01
  -1.063352e+02   1.962700e+01
  -8.740360e+01  -7.375229e+00
  -2.463636e+01  -1.003901e+02
   3.754293e+01  -1.294403e+02
   3.010878e+01  -6.182513e+01
   4.318619e+01   3.521494e+01
   1.816463e+01   5.412802e+00
  -1.258636e+01  -1.528646e+01
   1.292422e+01  -2.679078e+01
   2.296124e+01   3.800716e+01
   1.748431e+01   5.678784e+01
   4.946265e+00   2.373181e+01
  -4.298513e+01  -4.252455e+00
  -5.233351e+01  -4.323085e+01
  -3.161151e+00  -5.944745e+01
   4.232780e+01  -2.604763e+01
   6.951344e+01   3.899539e+01
   1.062573e+01   5.297084e+01
  -1.461944e+01   5.424605e+01
  -7.484860e+01   1.821241e+00
  -5.691621e+01  -4.411571e+01
   6.530381e+00  -4.729033e+01
   3.106693e+01   4.850511e+00
  -1.455523e+01   5.340050e+00
  -6.570877e+01   1.248355e+00
   2.457343e+01  -1.648670e+01
   3.591092e+01  -5.712974e+01
   5.216951e+01  -1.562169e+01
   1.422354e+01   1.498311e+01
   1.328641e+01   7.563439e+01
  -3.790300e+01   6.082984e+01
  -2.922028e+01   8.840603e+00
  -4.534610e+01  -3.460513e+01
   5.251593e+00  -4.621327e+01
   3.391571e+01   1.559126e+01
   1.273395e+01   6.049001e+01
   1.241041e+00  -4.247264e+00
  -1.531312e+01   9.126921e+00
  -3.184925e+01   2.645624e-01
   2.832642e+01   3.184495e+01
   1.144376e+01  -2.695061e+01
  -1.409799e+01   2.437007e+01
  -1.857321e+01  -7.727371e+00
   1.879507e+01  -4.845842e+01
   3.002725e+01  -2.396251e+01
   1.470706e+01   4.712211e+00
   6.862817e+00   3.979054e+01
  -4.436174e+01   4.709750e+01
  -7.335706e+01  -1.526502e+01
  -3.153316e+01  -2.606373e+01
   2.013841e+01  -1.049395e+01
   4.242327e+01   3.553533e+01
   3.349815e+01   1.991838e+01
  -2.653087e+01   2.521674e+01
  -1.826275e+01   3.022383e+01
   2.782632e+00  -6.167685e+00
   2.437538e-01   1.406797e-01
   2.288700e+01   3.838945e+00
  -4.754998e-01   4.700429e+00
  -5.310732e+01   2.256182e+01
