
 $NMID
 id='ANONYMOUS ', fmtdat='(2E16.6)'
 volume=1.0
 tramp=1.0
 $END
  -1.008585e+03  -1.289450e+02
  -7.742139e+02  -6.995907e+02
  -8.031499e+01  -7.564068e+02
   4.117699e+02  -6.468932e+02
   3.308858e+02  -8.493213e+01
   3.299909e+01  -3.640816e+00
  -7.761068e+01  -7.170387e+01
  -5.880574e-01  -1.312090e+02
   1.332827e+02  -1.674446e+02
   2.107922e+02  -3.978205e+01
   3.672015e+01   1.853070e+02
  -6.265517e+01   2.112065e+02
  -1.010122e+02   4.052850e+01
  -8.438253e+01  -1.632937e+02
   5.054527e+01  -1.988771e+02
   9.193259e+01  -1.495605e+00
   9.643083e+01   1.291649e+02
  -9.772646e+00   1.821542e+02
  -1.171046e+02   8.007442e+01
  -9.450137e+01  -3.183238e+01
  -8.755540e+01  -7.382918e+01
  -1.681211e+01  -7.372949e+01
  -2.376298e+00  -9.497678e+01
  -2.887656e+01  -1.247460e+02
  -5.807584e+01  -8.280366e+01
   4.133109e+01  -5.977865e+01
   1.515543e+02  -5.019662e+01
   1.790741e+02   1.190088e+02
   4.822756e+01   9.187188e+01
  -1.091205e+02   5.803654e+01
  -1.247409e+02  -3.151914e+01
  -4.052904e+01  -9.991640e+01
   3.939057e+01  -8.873493e+01
   1.511697e+02  -5.800690e+00
   6.044906e+01   2.936862e+01
   5.098792e+00   7.978765e+01
   1.220058e+01   5.956035e+01
   5.552213e+00  -2.519906e+01
   9.484775e+01  -7.615432e+01
   4.639500e+01   7.117029e+01
   1.967569e+01   1.973006e+02
  -3.825070e+01   1.904784e+02
  -1.024733e+02  -7.064156e+00
  -3.296151e+01  -1.017721e+02
   3.383977e+01  -6.447960e+01
   6.484422e+01   3.409852e+01
  -2.552436e+01   1.073448e+02
  -1.871883e+02  -2.399800e+01
  -1.182066e+02  -1.064713e+02
  -5.579494e+01  -1.590064e+02
   9.938908e+01  -5.986599e+01
   1.577081e+02   5.881032e+00
   6.961200e+01   9.193010e+01
  -1.959100e+01   7.799985e+01
  -1.281454e+02   1.585459e+01
  -9.950728e+01  -1.868730e+01
  -1.978553e+01   4.502528e+01
  -2.887685e+01   1.785009e+01
  -4.144121e+01   7.278152e+00
  -6.137871e+01  -3.637425e+01
  -4.923338e+00  -7.160858e+01
   4.307265e+01  -6.717864e+01
   9.806507e+01  -2.991926e+01
   4.591582e+01   9.869734e+00
  -3.053956e+01   6.342193e+01
  -1.200757e+02   4.257947e+01
  -1.403282e+02   1.355312e+01
  -2.289778e+01  -2.946537e+01
   5.197935e+01  -1.158461e+02
   5.003284e+01  -9.612249e+01
   2.732772e+01  -2.587350e+01
   4.939351e+01  -3.818986e+01
   4.929192e+01   6.564171e+00
   1.055892e+02  -1.672397e+01
   7.708557e+01   2.455420e+01
  -4.709171e+00   3.042355e+01
  -5.079771e+01   6.720419e+01
  -5.118643e+01  -6.331286e+00
  -2.318001e+01  -6.625961e+01
   9.963433e-01  -8.466125e+01
   6.344833e+01  -1.700713e+01
   9.401118e+01   7.233872e+01
   5.829689e+01   6.005773e+01
  -4.932393e+00   8.563276e+01
  -5.987781e+01   3.950455e+01
  -6.592235e+01   2.104221e+01
  -7.240352e+01   2.847885e+01
  -1.269875e+02   7.038121e+00
  -1.341184e+02  -1.104209e+02
  -7.635801e+01  -1.067731e+02
   5.038849e+01  -1.506438e+02
   1.184155e+02  -1.045261e+02
   1.803180e+02  -1.092049e+02
   1.021534e+02  -3.670827e+00
   3.527713e+00   7.953271e+01
  -4.750885e+01   2.072031e+01
  -2.810822e+01  -7.186117e+00
   4.411899e+01  -2.120886e+01
   6.353670e+01   1.702430e+01
  -6.250946e+00   3.176530e+01
  -3.171128e+01   2.317026e+01
   7.258892e+00  -2.694132e+01
  -3.481955e+00  -4.530731e+01
   6.707875e+01   9.819192e+00
   1.617398e+01   8.545185e+01
  -4.184589e+01   8.965974e+01
  -9.751014e+01   6.106516e+01
  -1.322891e+02  -8.295759e+00
  -4.415626e+01  -1.098443e+02
  -8.403258e+00  -9.695867e+01
   5.590833e+01  -6.988406e+01
   2.647405e+01  -2.949735e+01
   1.027929e+01  -1.797644e+01
   3.875533e+01  -4.037145e+01
  -4.118037e+00  -3.258598e+01
   3.518338e+01   4.401007e+00
   1.953331e+01   1.650321e+01
  -2.340020e+01  -2.614381e+01
  -1.758567e+01  -4.921492e+01
   1.931676e+01  -5.420905e+01
   9.922183e+01  -5.176663e+00
   6.424802e+01  -7.100985e+00
   4.677086e+01   6.981802e+01
  -2.782853e+01   6.308957e+01
  -6.079826e+01   6.600208e+01
  -9.721679e+01   3.155924e+01
  -4.018875e+01  -6.334930e-01
  -3.973373e+00  -3.531200e+01
  -1.348059e+01  -1.642429e+01
   7.548055e+00   8.536971e+00
  -1.994654e+01   2.533223e+01
  -5.082798e+01   1.082523e+01
  -1.965612e+01  -4.991418e+01
   9.517643e+00  -3.360772e+01
   2.745723e+01  -2.736697e+01
   2.911370e+01  -2.465568e+01
  -6.215430e+00  -2.032536e+01
   6.405535e+00  -5.564721e+01
   2.023656e+01  -6.278072e+01
   6.254577e+01  -6.768392e+00
   6.146579e+01   4.102194e+01
  -1.147004e+01   5.751442e+01
  -6.161837e+01   4.684441e+01
  -7.796446e+01   3.614061e+00
  -1.296816e+01  -3.042268e+00
  -2.633126e+01  -1.925078e+01
   1.622594e+01  -5.230412e+00
   2.217172e+01   1.627042e+01
   3.114681e+00   1.641783e+01
  -9.433783e-01   2.674425e-01
   4.725236e+01   3.526040e+00
  -8.558616e+00   1.774417e+01
  -2.853001e+01   6.281812e+01
  -2.619706e+01   6.203947e+01
  -6.271218e+01  -1.277740e+01
  -3.734491e+01  -3.726769e+01
  -1.274572e+01  -8.206387e+01
   5.049101e+01  -5.362165e+01
   3.208850e+01   9.532065e+00
   1.516867e+01   2.449078e+01
   1.195316e+00   2.761498e+01
  -4.758910e+00   1.235239e+01
   4.602770e-01   1.721866e+01
   3.853878e+00   2.942237e+00
  -2.439357e+01   3.303162e+01
  -1.556978e+01  -3.674414e+00
  -3.695844e+01  -3.849825e+01
   3.277953e+01  -4.151648e+01
   6.929598e+01  -3.949605e+01
   4.977047e+01  -1.740748e+00
   1.679604e+01   8.921572e+01
  -6.349737e+01   8.712013e+01
  -1.280358e+02   2.638751e+01
  -1.085761e+02  -1.887239e+01
  -4.414830e+01  -4.836296e+01
   2.265450e+01  -3.468278e+01
   2.083544e+01  -2.188554e+01
   2.873122e+01  -2.907159e+01
   9.047507e+00  -2.773521e+01
   5.146604e+01   1.281971e+00
   5.697759e+01   8.063201e+00
   3.033493e+01   5.365533e+01
   2.465837e+01   9.183952e+01
  -5.654000e+01   7.623612e+01
  -6.275034e+01  -1.760902e+01
  -3.264267e+01  -3.442072e+01
   8.164318e+00  -5.878375e+01
  -9.393208e+00  -1.818858e+00
   3.160735e+01  -1.206614e+01
  -1.811176e+00   3.232540e+01
  -1.072495e+01   1.421748e+01
   1.302658e+01   1.782661e+01
   1.397377e+00   1.730141e+01
   8.119540e+00  -8.701570e+00
  -2.193740e+01  -1.126312e+01
  -7.061273e+01  -2.640542e+01
  -3.016874e+01   7.260361e-01
   2.795529e+00  -2.345720e+01
   1.895105e+01  -1.696867e+01
   5.816209e+01   1.277568e+00
  -1.793712e+01   2.191769e+01
  -1.334035e+01   1.843705e+01
  -2.989602e+00   9.933585e+00
  -4.950733e+01  -1.859396e+01
   1.521225e+01  -2.353245e+01
   3.442657e+01  -6.069977e+00
   2.291095e+01   2.526470e+01
   6.623178e+00   1.049823e+01
  -2.504107e+00  -3.496862e+00
   3.088608e+01  -2.165501e+01
  -1.439844e+01   3.768028e+01
  -2.962272e+01   2.524979e+01
  -6.953105e+01   3.524410e+01
  -5.422019e+01  -1.291770e-01
  -5.180544e+01  -3.343856e+01
   2.130764e+01  -3.412070e+01
   3.129422e+01  -1.524981e+01
   5.259266e+00  -2.029792e+01
   1.514299e+01   1.452322e+01
  -3.518172e+01   2.603880e+01
  -2.859407e+01  -1.863218e+01
   2.556652e+01  -5.569465e+01
   5.477170e+01  -1.769147e+01
   6.498510e+01   3.066905e+01
   1.654862e+01   3.536089e+00
  -5.764991e+00   1.952747e+01
  -1.595981e+01  -5.538464e+00
  -4.959471e+00  -1.511973e+01
   3.560999e+01   2.177127e+01
   1.575323e+01   4.178728e+01
  -3.767003e+01   4.356116e+01
  -4.839902e+01  -9.337212e+00
  -2.749311e+01  -4.012846e+01
  -1.433727e+00  -4.922970e+01
   6.837041e+01  -1.240980e+01
   1.461783e+01  -8.171345e+00
  -2.074231e+01   1.852893e+01
   1.963594e+01   1.629737e+01
  -6.656208e+00   1.867546e+01
  -3.843012e+01   1.107902e+01
  -2.127924e+01  -1.061339e+01
  -3.613162e+01  -2.842656e+00
  -1.499692e+01  -5.617636e+01
   9.796419e-01  -6.178930e+01
   1.223949e+01  -4.565595e+01
   1.338312e+01  -2.257586e+00
   4.280573e+01   4.350333e+01
   4.017134e+01   1.940478e+01
  -1.141730e+01   1.041515e+01
  -1.471553e+00   6.450596e+00
   6.853316e+00  -2.302280e+00
   1.992153e+00   5.202691e+00
   8.096208e+00  -2.749066e+01
   1.345669e+01  -1.734587e+01
  -1.204628e+01  -2.368856e+01
   2.346585e+01   9.780301e+00
   2.697999e+01   1.968599e+01
   5.686702e+01  -7.658362e+00
  -2.323969e+01   3.006931e+01
  -6.196906e+01   4.578084e+01
  -5.848089e+01  -1.843770e+01
  -2.239622e+01  -1.904378e+01
   3.088238e+00  -3.215334e+01
   4.236271e+01  -2.645668e+01
   5.342796e+01  -3.776204e+00
   3.148839e+00   2.439460e+01
  -9.160610e+00   1.673221e+01
  -4.830602e+00   1.153930e+01
   1.438923e+01   6.591632e+00
   4.441428e+01   3.804395e+01
  -1.515009e+01   4.031845e+01
  -5.964798e+01   4.000960e+01
  -2.690197e+01   3.115668e+01
  -2.807123e+01  -5.044926e+01
   6.427278e+00  -3.587488e+01
   2.275434e+01  -3.299086e+00
   1.967622e+01   3.959764e+01
  -7.230745e+00   2.272141e+01
  -2.842976e+01  -1.715038e+01
  -2.341131e+01  -4.778853e+01
  -1.472866e+01  -3.152940e+01
  -1.766780e+01  -1.389075e+01
   1.300934e+01   1.720423e+00
  -1.203163e+01  -2.217868e+00
  -9.568956e+00  -1.293552e+01
   3.414781e+01  -1.334762e+01
   2.137924e+01  -1.157722e+01
   3.415511e+01   4.466553e+01
   1.066916e+01   7.955048e-01
   5.248934e+00   2.694951e+01
  -8.659248e+00  -1.227036e+00
  -1.653193e+00  -1.457585e+01
  -1.065833e+01  -8.423700e+00
   2.022117e+00   7.338440e+00
   1.662353e+01  -1.833601e+01
  -1.285979e+01  -5.889650e+00
  -3.887469e+01  -2.311327e+01
   5.446080e+00   1.686040e+01
  -2.466875e+01   9.346389e+00
  -5.169002e+00  -1.728895e+00
  -1.338269e+00  -2.514400e+01
  -1.113058e+01   4.838846e+00
   5.405221e+00  -1.338466e+00
   6.447244e+00  -2.691650e+01
   8.166921e+00  -1.265008e+01
  -3.376090e+01   4.233029e+01
  -1.051242e+01   3.920012e+01
  -5.114785e+00  -1.864067e+01
  -3.095160e+01  -1.373876e+01
   2.059435e+01  -5.145362e+01
   2.760513e+01  -3.683254e+00
   3.358436e+01   6.410252e+00
   2.917882e+01  -6.828112e+00
   3.280538e+00   2.377950e+01
  -1.410865e+01   3.935381e+01
  -2.411550e+01  -6.192123e+00
  -1.035431e+01   2.288340e+01
   2.263534e-01  -1.611185e+01
  -1.335692e+01   3.778812e+01
  -5.013195e+01   1.315807e+01
