
 $NMID
 id='ANONYMOUS ', fmtdat='(2E16.6)'
 volume=1.0
 tramp=1.0
 $END
   1.692287e+03  -1.877952e+02
   1.189684e+03   7.999976e+02
  -2.086062e+02   1.002236e+03
  -6.859967e+02   4.192904e+02
  -4.035486e+02  -1.746505e+02
   1.953126e+02  -1.309383e+02
   2.372658e+02   2.221394e+02
  -8.354836e+00   3.404239e+02
  -3.162588e+02   2.709412e+02
  -3.391381e+02  -5.186918e+01
  -1.061418e+02  -3.666854e+02
   1.117520e+02  -3.043871e+02
   2.068256e+02  -7.842285e+00
   5.351760e+01   2.898153e+02
  -1.768087e+02   2.201515e+02
  -1.643719e+02  -6.220329e+01
  -1.396066e+01  -2.313504e+02
   1.556437e+02  -1.844609e+02
   2.152133e+02  -2.863680e+01
   1.587805e+02   1.599396e+02
  -2.915407e+01   1.725622e+02
  -6.973850e+01   8.591695e+01
  -3.406460e+01   2.645205e+01
   8.457821e+01   4.007839e+01
   1.459775e+02   9.518908e+01
   8.379950e+00   1.409161e+02
  -2.064886e+02   1.207222e+02
  -3.105670e+02  -1.339543e+02
  -9.780146e+01  -1.538271e+02
   1.726664e+02  -1.080640e+02
   2.336538e+02   4.922519e+01
   7.269983e+01   2.300126e+02
  -1.315377e+02   2.052796e+02
  -2.525869e+02   3.323058e+01
  -1.583630e+02  -8.209390e+01
  -8.010224e+00  -1.311182e+02
   7.374319e+01  -6.829861e+01
   4.945949e+01   8.457253e+01
  -1.167250e+02   1.121487e+02
  -1.349673e+02  -4.894877e+01
   2.653441e+00  -2.994719e+02
   2.148175e+02  -2.109375e+02
   2.455809e+02   6.937019e+01
   7.118453e+01   2.410757e+02
  -1.163475e+02   7.667340e+01
  -1.195262e+02  -1.030946e+02
   6.913497e+01  -1.980170e+02
   2.447718e+02   3.175378e+01
   2.255375e+02   1.595622e+02
   3.150425e+01   2.072289e+02
  -1.162004e+02   1.063569e+02
  -2.403267e+02  -6.347347e+01
  -1.495016e+02  -1.774230e+02
   3.752870e+01  -1.255678e+02
   1.202919e+02  -6.018262e+01
   7.013913e+01   9.366460e+00
  -4.482424e+01  -1.240024e+01
  -1.780067e+01  -3.634213e+01
   1.209224e+02  -2.955790e+01
   1.187170e+02   5.248363e+01
   6.562592e+01   1.158571e+02
  -4.283885e+01   8.320329e+01
  -1.309397e+02   4.011502e+01
  -6.135780e+01  -2.864771e+01
   6.295216e+01  -9.727988e+01
   8.333428e+01  -1.207084e+02
   1.217917e+02  -3.893227e+01
   5.483854e+01   1.092284e+01
   1.068025e+01   1.147756e+02
  -3.375503e+01   1.842173e+02
  -6.338178e+01   6.796511e+01
  -2.839029e+01   1.241908e+01
  -3.778505e+01  -1.272767e+01
  -1.141763e+02   2.046387e+01
  -8.043424e+01  -4.932403e+01
  -4.902852e+01  -1.059929e+02
   1.464413e+01  -7.002275e+01
   6.979839e+01   3.187191e+01
   4.821448e+01   8.001464e+01
  -8.712594e+00   7.519205e+01
  -7.417303e+01   2.882059e+01
  -1.431069e+02  -5.659410e+01
  -5.414686e+01  -1.040681e+02
   2.367689e+01  -1.172267e+02
   4.633781e+01  -2.225238e+01
   8.859113e+01  -5.004729e+00
   6.477422e+01   1.711240e+01
   1.139767e+02   2.143021e+01
   1.410544e+02   1.006342e+02
   7.394160e+01   1.159230e+02
  -2.291748e+01   1.606429e+02
  -1.092358e+02   1.522047e+02
  -2.530663e+02   5.908940e+01
  -8.764529e+01   8.232665e+00
   1.719496e+01  -9.522668e+01
   2.613135e+01  -7.138282e+01
   8.161040e+00   1.847732e+01
  -7.528235e+01   2.263061e+01
  -5.657343e+01  -1.798376e+01
   4.633373e+00  -6.292821e+01
   5.139123e+01  -4.002742e+01
   5.560160e+01   2.541469e+01
   1.143611e+01   6.149029e+01
  -5.140244e+01   5.324522e+00
  -7.274708e+01  -6.813952e+01
   2.161809e+01  -1.187185e+02
   8.757479e+01  -5.433340e+01
   1.325678e+02   3.287518e+01
   6.929833e+01   7.775908e+01
   3.443506e-01   1.367467e+02
  -3.085708e+01   6.239398e+01
  -4.752729e+01  -1.293814e+00
   4.601906e+00  -6.347327e-01
   2.523072e+01   2.735955e+01
  -1.501098e-01   4.659790e+01
  -4.085909e+01   2.798790e+00
  -6.321075e+01  -2.574769e+01
  -3.720099e+00  -1.483441e+01
   5.022565e+01  -4.043254e+00
  -1.131585e+01   2.944590e+01
  -6.845868e+01   1.253186e+01
  -1.043508e+02  -2.792555e+01
  -9.807647e+01  -6.171571e+01
  -4.178818e+00  -8.488343e+01
   1.109612e+02  -8.573917e+01
   1.289434e+02  -3.663460e+01
   4.408769e+01   3.722370e+00
   4.003738e+00   1.957717e+01
  -1.553200e+01  -3.390088e-01
   2.808747e+01   9.457156e-01
   5.791291e+01  -9.566083e+00
   8.313741e+01   3.525964e+01
   2.377797e+01   8.436531e+01
  -2.724262e+01   5.814483e+01
  -2.173076e+01   7.230556e+00
  -3.180017e+01   2.203790e+01
  -1.842029e+01  -4.034863e-01
  -5.885179e+00   3.893394e+01
  -4.666329e+01   5.344141e+01
  -7.506092e+01  -1.928806e+01
  -5.868016e+01  -9.199217e+01
  -9.461049e+00  -4.594475e+01
   9.383936e+01  -6.661302e+01
   4.783536e+01  -1.254836e+01
   6.626842e+01   1.204956e+01
  -4.496803e+00   3.624240e+01
  -4.934483e+01   3.218385e+01
   1.031271e+00   2.558611e+00
   8.556719e+00  -4.283275e+00
   1.183694e+01  -1.581194e+01
  -4.322427e+01  -1.203783e+01
  -3.106368e+00  -6.451074e+01
   2.716918e+01  -6.802669e+01
   5.945734e+01  -2.911284e+01
   1.032298e+02   3.875018e+01
   6.827666e+01   4.712696e+01
   2.506768e+01   7.977793e+01
  -4.284602e+01   7.107757e+01
  -2.376514e+01   6.181612e+00
  -4.937046e+00  -5.412347e+00
  -1.016615e+01  -3.821303e+01
  -3.197047e+01  -1.266452e+01
   3.497272e+00  -1.196432e+01
   1.195004e+01  -2.253538e+01
   4.115123e+01  -2.256141e+01
   2.412917e+01   1.304431e+01
   5.564742e-01   3.320021e+01
   1.428868e+01   2.809933e+01
  -7.211111e+01   5.608460e+00
  -5.996664e+01  -4.000020e+01
   4.380518e+00  -1.044054e+02
   6.792247e+01  -1.015517e+02
   1.458542e+02  -1.856145e+01
   7.091608e+01   3.709148e+01
   8.558234e+01   9.971112e+01
  -9.521424e+00   8.559652e+01
  -3.988581e+01   4.666944e+01
  -3.744119e+01   3.493897e+01
  -4.198109e+01   3.859589e+01
  -6.624663e+01   1.284774e+01
  -2.739372e+01   1.517263e+01
  -5.145302e+01  -6.305019e+01
   6.197091e+00  -8.821196e+01
   5.552082e+01  -5.518739e+01
   5.075721e+01   4.300859e+01
   3.065622e+01   5.137617e+01
  -8.578482e+00   5.245033e+01
  -6.365736e-01   2.617628e+01
  -2.923404e+01  -4.603521e+01
   6.363397e+00  -1.130553e+01
   2.874155e+00  -2.148077e+01
  -3.050685e+01  -8.536717e+00
   1.521297e+01  -1.510075e+01
   1.652111e+01  -2.100800e+01
   2.842530e+01   1.289197e+01
   7.540159e+01   1.500759e+01
   7.094206e+01   4.567259e+01
  -1.468945e+01   2.881357e+01
  -5.542520e+01   3.256062e+01
  -4.730672e+01  -4.887038e+00
   6.720367e+00  -3.904924e+01
   2.284379e+01  -1.393024e+01
   3.867509e+01   1.221300e+01
   1.859166e+01   2.718554e+01
  -3.672523e+01   1.391512e+01
  -2.075884e+01  -2.078042e+01
  -2.523629e+01  -2.842570e+01
  -3.276933e+01  -3.446366e+01
   2.567843e+01   7.960273e+00
  -2.703970e+01   6.932089e+00
  -2.485852e+01  -2.779629e+01
   1.092430e+01  -7.460581e+00
   4.410077e+01  -6.723467e+01
   4.378250e+01  -5.483781e+00
   1.888694e+01   5.423359e+01
  -1.031352e+01   6.590531e+01
  -5.634445e+01   2.434820e+01
  -1.564535e+01  -6.769154e-01
   9.562477e+00  -1.691545e+01
   5.942894e+01   4.811289e+00
   4.827168e+01   3.418719e+01
  -4.095552e+01   3.827833e+01
  -6.797466e+01   2.798055e+01
  -4.772689e+01   9.225736e+00
  -2.771777e+01  -4.626681e+01
  -7.050424e+00  -3.136892e+01
   9.532720e+00  -3.663671e+01
   1.118838e+01  -1.840392e+01
  -1.887762e+01  -2.285640e+01
  -1.898069e+00  -2.156450e+01
   5.763086e+01  -2.493230e+01
   3.884291e+01  -1.728427e+01
   1.905930e+01   4.868467e+01
   2.820688e+01   4.405670e+01
  -5.710627e+01   3.245113e+01
  -3.513535e+01   1.950131e+01
  -5.759426e-02  -3.911249e+01
  -1.745666e+01  -3.473950e+01
   2.451896e+01  -2.174792e+00
   2.795424e+01  -3.411824e+00
   7.638801e+00  -2.742823e+01
   3.249287e+01  -1.808291e+01
  -1.266566e+01   8.822967e+00
  -1.756094e+01   3.813876e+01
  -9.856273e-01   4.265906e+01
  -4.046871e+01   9.392683e+00
  -4.394390e+01  -3.092497e+01
  -3.930845e+01  -2.035408e+01
  -1.081804e+01  -3.815903e+01
   2.556154e+01  -1.939350e+01
   3.734425e+01  -2.733286e+01
  -3.796195e+00  -8.224113e+00
   2.197557e+01  -9.918716e+00
  -3.676736e+01   1.293651e+01
   1.519854e+01   1.430327e+01
  -2.704009e+01   1.167916e+01
  -5.217880e+01  -6.745826e+00
  -3.512493e+01  -1.066487e+01
   8.080788e+00  -3.698772e+01
   4.060496e+01  -6.306894e+01
   5.631920e+01   1.580810e+01
   1.779626e+01   4.822396e+01
  -2.348493e+01   2.148771e+01
  -3.265857e+01   5.992650e+01
  -5.516048e+01   2.707856e+01
  -3.782562e+01  -3.302429e+01
  -2.781574e+01   7.411672e+00
  -6.976958e+00   2.641740e+01
  -1.050702e+01   3.103241e+00
  -7.078028e+00  -3.441335e+01
   1.785692e+01  -1.934035e+01
   4.674306e+01  -1.024396e+01
   2.314231e+01   2.855746e+00
   3.583416e+01   4.924112e+01
  -3.227361e+01   7.426333e+01
  -3.524037e+01  -1.622351e+01
  -3.112313e+01  -2.858307e+01
   1.888866e+01  -4.857827e+01
   4.079639e+01  -1.647787e+01
   3.606298e+01   4.050995e+01
   2.162021e+01   3.352129e+01
  -1.403925e+01   8.093610e+00
  -9.604935e+00   2.798831e+01
   8.708961e+00   1.936624e+01
   1.325933e+01   1.524227e+00
  -2.423651e+00   1.714617e+01
  -1.870632e+01   1.244224e+01
  -1.767414e+01   6.628880e+00
  -2.120620e+01  -2.800445e+01
   6.504070e+00  -4.339177e+01
   3.148914e+00  -1.408945e+01
   4.477351e+01   2.239627e+01
  -3.753995e+00   8.124269e+00
   7.228432e+00   1.184251e+01
  -1.102212e+01   2.118036e+01
  -2.502743e+01  -1.435860e+01
   2.192298e+00  -2.691167e+01
   2.274695e+00  -1.218756e+01
   2.346591e+01   1.635225e+01
  -4.983351e+00   3.496642e+00
   1.478279e+01   5.093261e+00
  -6.750941e+00  -3.115399e+01
  -1.432801e+01   8.992747e+00
  -2.199133e+00   1.572414e+01
  -2.020950e+01  -3.052333e+00
  -1.102991e+01  -3.948809e+01
  -1.732836e+01  -2.697869e+01
  -8.486745e+00  -1.832947e+01
   2.647571e+01   8.770118e+00
   4.132418e+00   3.952569e+01
  -3.104389e+01   1.942275e+01
  -2.258031e+01  -9.844858e+00
  -3.128970e+01  -2.965034e+01
   1.739186e+01  -1.181153e+01
   5.449332e-01  -2.269078e+01
   2.238576e+01  -2.002948e+01
  -1.032286e+01   2.347939e+00
  -5.130172e+00  -1.170379e+01
   7.951781e+00  -2.377617e+01
   2.807069e+01   1.394129e+01
