
 $NMID
 id='ANONYMOUS ', fmtdat='(2E16.6)'
 volume=1.0
 tramp=1.0
 $END
  -3.077488e+03   8.657163e+00
  -1.913630e+03  -1.403561e+03
   1.411660e+01  -2.092733e+03
   1.443344e+03  -1.011485e+03
   8.937704e+02   9.505405e+01
  -1.497694e+02   3.979642e+02
  -5.299280e+02  -1.811191e+02
  -5.920832e+01  -6.840390e+02
   5.527122e+02  -6.060934e+02
   7.107421e+02  -1.365448e+01
   4.067351e+02   5.950353e+02
  -9.303646e+01   7.243259e+02
  -3.927924e+02   2.057737e+02
  -3.084720e+02  -4.961052e+02
   1.824740e+02  -6.683017e+02
   4.648836e+02  -6.681539e+01
   2.731526e+02   5.068458e+02
  -2.072374e+02   6.073780e+02
  -5.049037e+02   1.569342e+02
  -3.940122e+02  -2.530587e+02
  -2.298469e+01  -4.197403e+02
   2.073094e+02  -2.152721e+02
   1.028920e+02   1.343639e+01
  -1.529494e+02  -3.797680e+01
  -3.227667e+02  -1.935284e+02
  -5.239469e+01  -3.631671e+02
   4.269874e+02  -2.639456e+02
   6.500039e+02   1.253814e+02
   3.381460e+02   3.810511e+02
  -2.805085e+02   3.272649e+02
  -5.223019e+02  -7.160943e+01
  -2.266751e+02  -3.752225e+02
   2.741384e+02  -3.578273e+02
   4.556055e+02  -1.828951e+02
   3.608315e+02   1.945046e+02
   6.654294e+01   3.830609e+02
  -1.054130e+02   1.994525e+02
  -8.050746e+01  -1.276448e+02
   1.227883e+02  -2.601294e+02
   2.453812e+02   4.583840e+01
   1.618091e+02   4.870085e+02
  -1.951827e+02   4.685727e+02
  -4.326569e+02   1.002363e+01
  -2.058346e+02  -3.301777e+02
   1.831410e+02  -1.749415e+02
   2.739866e+02   2.764078e+02
  -7.652715e+01   3.889490e+02
  -4.324359e+02   1.067354e+02
  -5.151232e+02  -3.434238e+02
  -1.849602e+02  -4.832959e+02
   2.956132e+02  -3.007822e+02
   4.775684e+02  -5.892737e+01
   3.382757e+02   2.483178e+02
  -4.953591e+01   2.852058e+02
  -2.887381e+02   7.123476e+01
  -2.100092e+02  -9.175561e+01
   4.751943e+01  -6.456375e+01
   1.099208e+02   5.701207e+01
  -8.793887e+01   1.328598e+02
  -2.420041e+02  -2.464945e+01
  -1.440911e+02  -1.833117e+02
   1.602800e+02  -2.494213e+02
   3.346653e+02  -1.076111e+02
   2.329326e+02   1.203232e+02
  -3.234148e+01   2.793604e+02
  -2.858088e+02   3.281093e+02
  -3.399575e+02   1.891328e+02
  -2.269108e+02  -1.695919e+02
  -8.521444e+00  -3.546245e+02
   3.681490e+01  -2.504434e+02
   3.334537e+01  -1.073684e+02
   2.936499e-02  -6.280268e+01
   7.536623e+01  -9.911599e+01
   2.250211e+02  -7.100692e+01
   2.375024e+02   4.423731e+01
   1.194618e+02   2.430322e+02
  -4.848072e+01   2.299600e+02
  -1.928803e+02   1.279219e+01
  -1.383925e+02  -1.913743e+02
   4.749743e+00  -2.405275e+02
   2.302937e+02  -7.811061e+01
   3.142377e+02   1.474411e+02
   1.411043e+02   2.764404e+02
  -6.021556e+01   2.676480e+02
  -2.042906e+02   9.328989e+01
  -1.152976e+02   1.630547e+01
  -1.228481e+02   5.109456e+01
  -2.091475e+02   8.715238e+01
  -3.032814e+02  -4.944207e+01
  -2.774012e+02  -2.439565e+02
   2.166260e+00  -4.002253e+02
   3.626513e+02  -3.114444e+02
   3.987602e+02  -1.338853e+02
   2.595519e+02   9.705526e+01
   1.770452e+01   2.367418e+02
  -8.112883e+01   1.796554e+02
  -3.981802e+01   4.012888e+01
   8.975099e+01  -9.576253e+01
   1.306634e+02   7.679905e+00
   2.444406e+01   1.808576e+02
  -1.045852e+02   9.226534e+01
  -9.752553e+01  -5.984655e+01
   3.266536e+01  -1.396186e+02
   1.330341e+02  -8.459325e+00
   1.403155e+02   1.974215e+02
  -3.031380e+01   3.020695e+02
  -2.419747e+02   1.763332e+02
  -3.022938e+02  -3.557722e+01
  -2.308584e+02  -2.533845e+02
  -5.851667e+01  -2.419032e+02
   1.002264e+02  -1.176359e+02
   1.452956e+02  -8.707043e+00
   1.318375e+01   5.002203e+01
  -4.859496e+01  -4.335251e+01
  -1.730412e+01  -8.407327e+01
   8.383067e+01  -8.819956e+01
   1.228506e+02   1.793737e+01
   5.414557e+01   5.611495e+01
  -6.165420e+01   2.304925e+01
   9.273828e+00  -8.203425e+01
   1.335521e+02  -7.693688e+01
   2.675272e+02  -2.397701e+00
   2.316628e+02   1.498989e+02
   4.056214e+01   2.592312e+02
  -1.863623e+02   2.440865e+02
  -2.087507e+02   1.201150e+02
  -1.472750e+02  -4.077095e+01
   4.677885e+01  -9.269595e+01
   5.515609e+01  -4.667293e+00
  -3.743198e+01   7.944603e+01
  -1.505334e+02   5.528704e+01
  -1.926861e+02  -8.906649e+01
  -6.633453e+01  -1.689284e+02
   5.622096e+01  -1.332590e+02
   9.000181e+01  -3.084578e+01
  -9.036901e-01   8.028171e+01
  -4.565847e+01  -4.737046e+01
  -6.466190e+01  -1.272448e+02
   1.025870e+02  -1.205779e+02
   1.911603e+02  -4.430386e+01
   1.807907e+02   1.084904e+02
   3.369778e+01   1.973251e+02
  -1.309015e+02   1.777547e+02
  -1.567703e+02   3.659107e+01
  -6.453204e+01  -6.831282e+01
   5.441671e+01  -8.293873e+01
   7.460394e+01  -7.011837e+00
   9.173049e+00   1.479041e+01
  -1.637507e+01   1.531481e+01
  -1.420893e+01  -8.518307e-01
   7.324739e+01  -8.536592e+00
   9.439274e+01   6.179094e+01
   1.451511e+01   1.486006e+02
  -1.291059e+02   1.394907e+02
  -2.122206e+02  -9.692501e+00
  -1.992319e+02  -1.381718e+02
  -4.259220e+01  -1.823982e+02
   8.514179e+01  -1.382801e+02
   1.178252e+02   3.536876e+00
   4.258622e+01   6.770364e+01
   2.796738e+01   4.696488e+00
   4.652697e+01  -1.412117e+01
   9.474199e+01  -2.428725e+01
   5.279887e+01   5.139802e+01
  -7.162866e+01   7.744906e+01
  -1.408047e+02   6.568833e+01
  -1.245429e+02  -7.003969e+01
   2.633133e+01  -1.153075e+02
   1.622723e+02  -9.985751e+01
   1.878386e+02   4.749784e+01
   1.050655e+02   1.542102e+02
  -1.467947e+02   1.812338e+02
  -2.218407e+02   7.950596e+01
  -1.979849e+02  -1.131160e+02
  -7.241512e+01  -1.271808e+02
   5.633577e+01  -1.249548e+02
   5.390362e+01  -3.431519e+01
   6.068761e+01  -3.631907e+01
   3.774233e+01  -9.967581e+01
   8.158642e+01  -9.525961e+01
   1.105237e+02   1.978112e+01
   1.218426e+02   1.461248e+02
   1.079666e+01   1.707056e+02
  -8.634453e+01   1.170653e+02
  -1.465649e+02   2.217553e+01
  -1.125246e+02  -1.253451e+02
  -6.689037e+00  -1.725061e+02
   9.037220e+01  -5.667059e+01
   8.846253e+01   3.076444e+01
  -1.587824e+01   6.762629e+01
  -3.872666e+01   6.035619e+01
   2.868906e+01   3.571309e+00
   8.560899e+01   1.024610e+01
   2.860908e+01   3.039373e+01
  -7.688574e+01   2.809497e+01
  -1.749162e+02   2.634787e+01
  -1.079575e+02  -4.811971e+01
  -1.759897e+01  -6.071484e+01
   1.235262e+02  -3.416833e+01
   1.353864e+02   8.932299e+00
   4.322829e+01   6.586031e+01
  -6.313919e+01   4.214943e+01
  -8.622602e+01  -5.400982e+01
   1.135577e+01  -7.243772e+01
   5.805142e+01  -8.745992e+01
   6.694163e+01  -2.262935e+00
   3.123719e+01   7.076584e+01
   3.407829e+01   4.576047e+01
   3.384782e+01  -5.965168e-02
   4.031072e+01  -3.836778e+00
   5.566363e+01   6.473990e+01
  -2.923867e+01   1.539416e+02
  -1.214260e+02   1.374145e+02
  -1.631458e+02  -7.062471e+00
  -1.238919e+02  -1.051491e+02
  -8.672972e+00  -1.199806e+02
   8.141152e+01  -4.746866e+01
   5.710144e+01   2.465248e+01
  -3.843012e+01   2.870209e+01
  -1.298058e+02  -9.950260e+00
  -6.503851e+01  -7.998463e+01
   7.453747e+01  -7.682488e+01
   1.485858e+02  -8.118113e+01
   1.544826e+02   4.450928e+01
   2.169536e+01   8.859199e+01
  -7.830149e+01   4.601585e+01
  -4.824958e+01   1.284634e+01
   4.765456e+01  -4.127706e+01
   9.328767e+01   3.081297e+01
   2.367209e+01   1.108765e+02
  -5.753544e+01   1.432847e+02
  -1.498508e+02   7.595267e+01
  -1.025446e+02  -8.384171e+01
  -7.937524e+00  -1.573777e+02
   7.396504e+01  -1.315991e+02
   9.986962e+01   4.217723e+01
   3.037676e+01   1.228719e+02
  -4.068778e+01   8.963624e+01
  -8.120102e+01   3.194451e+00
  -1.835906e+01  -6.112614e+01
  -8.614475e+00   3.571959e+00
   9.232729e+00   9.776523e+00
  -3.727587e+01  -1.601479e+01
  -5.759371e+01  -6.172868e+01
  -3.003230e+01  -9.408690e+01
   1.552587e+01  -4.699938e+01
   1.631814e+02   2.145563e+01
   1.177113e+02   5.332106e+01
   1.637977e+01   5.748839e+01
  -7.704832e+01   3.397428e+01
  -9.138765e+01   2.767995e+01
  -2.154859e+01  -5.399644e+01
   4.781449e+01  -1.420474e+01
   9.244764e+00  -1.543934e+01
  -2.135757e-02  -1.340695e+01
  -5.087662e+00   1.923971e+01
   3.600581e+01   1.779389e+01
   7.859101e+01   3.267497e+01
   1.783230e+01   7.200274e+01
  -1.149623e+02   8.672477e+01
  -1.844089e+02   7.378373e+01
  -1.347073e+02  -4.582515e+01
  -4.295986e+01  -1.639931e+02
   4.234367e+01  -1.495138e+02
   1.013731e+02  -9.060540e+01
   1.082837e+02   9.978871e+00
   8.807527e+00   2.697196e+01
   4.055614e+00  -2.773405e+01
   1.148501e+01  -1.325744e+01
   4.442816e+01   2.912491e+01
  -1.033825e+01   8.598001e+01
  -1.338020e+01   6.957959e+01
  -7.209497e+01  -1.229902e+01
  -7.673846e+01  -7.425114e+01
  -3.790731e+01  -7.085838e+01
   6.159154e+01  -1.726098e+01
   9.638458e+01   3.817346e+01
   3.646234e+01   1.170845e+02
  -3.822673e+01   3.963487e+01
  -8.018333e+01  -1.124964e+01
  -5.729118e+01  -4.514215e+01
   2.223010e+01  -5.182063e+01
   1.728957e+01  -2.986309e+01
  -3.844798e+01   5.635026e+00
  -6.140783e+01   1.933181e+01
  -3.407197e+01  -3.486420e+01
   7.550729e+01  -6.774039e+01
   9.594577e+01  -5.276653e+01
   1.015567e+01  -1.700714e+01
   3.738899e+00   6.636609e+01
  -3.598876e+01   9.486208e+01
  -2.229698e+01  -8.864187e-01
   2.680392e-01  -2.868733e+01
   2.886589e+00  -5.637769e+01
   2.691149e+01   8.836348e+00
   4.836306e+01   5.276956e+01
   1.578160e+01   3.727279e+01
  -3.395756e+01   8.407418e+00
  -6.813870e+01  -5.071406e+01
  -1.873853e+01   1.034673e+01
   3.808987e+01   2.922118e+01
   1.644955e+01  -1.662374e+01
   1.740561e+01  -1.514145e+01
   2.736327e+01  -2.735674e+01
   3.955476e+01  -1.563338e+01
   4.279422e+01   5.767989e+00
   3.695813e+01   6.852203e+01
  -6.390100e+01   1.352601e+01
  -4.194890e+01  -4.094267e+01
  -9.461134e+00  -5.484796e+01
   5.913518e+01  -3.589509e+01
   8.906302e+01   8.088434e+00
   2.250417e+01   5.285445e+01
  -3.496227e+01   3.333838e+01
  -5.340876e+01   3.987589e+01
  -2.941615e+00   1.384133e+01
   1.277404e+01  -3.670364e+00
   5.648001e+01   1.269912e+01
  -9.229089e+00   3.453035e+01
  -8.973595e+01   1.021090e+00
