
 $NMID
 id='ANONYMOUS ', fmtdat='(2E16.6)'
 volume=1.0
 tramp=1.0
 $END
   2.897671e+03   1.806821e+02
   1.878245e+03   1.527519e+03
  -1.634407e+02   1.720491e+03
  -1.088881e+03   1.146299e+03
  -8.069333e+02   2.600553e+02
  -9.486386e+01  -1.269117e+02
   3.036579e+02   6.732627e+01
   5.074240e+01   4.866894e+02
  -4.825111e+02   5.221831e+02
  -6.054128e+02   8.004633e+01
  -4.372868e+02  -4.849970e+02
   5.048688e+00  -6.545195e+02
   3.337870e+02  -1.839741e+02
   2.725356e+02   4.512572e+02
  -1.158022e+02   5.087155e+02
  -3.610454e+02   1.033115e+02
  -2.821320e+02  -4.438392e+02
   9.738605e+01  -5.728760e+02
   4.799852e+02  -2.142927e+02
   4.176909e+02   2.131957e+02
   1.658206e+02   3.632020e+02
  -1.088058e+02   2.248204e+02
  -1.072761e+02   7.311539e+01
   1.496871e+02   4.413439e+01
   2.642051e+02   2.389671e+02
   6.805572e-01   3.577594e+02
  -4.323842e+02   1.206086e+02
  -5.876611e+02  -1.989882e+02
  -1.533160e+02  -3.623497e+02
   3.233799e+02  -1.507456e+02
   4.779047e+02   1.591079e+02
   1.700320e+02   3.317615e+02
  -2.440709e+02   3.077509e+02
  -3.810775e+02   8.450739e+01
  -2.993539e+02  -1.722717e+02
  -1.105768e+02  -2.971668e+02
   3.625408e+01  -2.148407e+02
  -9.965288e+00   4.730922e+01
  -1.138841e+02   1.808360e+02
  -1.978462e+02  -9.981915e+01
  -2.553713e+01  -4.745217e+02
   2.451349e+02  -3.893940e+02
   3.323047e+02   3.992134e+00
   8.581144e+01   2.922573e+02
  -1.120169e+02   9.984036e+01
  -1.324870e+02  -2.286381e+02
   1.247964e+02  -3.560068e+02
   4.205814e+02  -3.807958e+01
   4.329407e+02   2.997391e+02
   1.068107e+02   4.574107e+02
  -2.843890e+02   2.320463e+02
  -4.361324e+02  -4.659243e+01
  -2.945356e+02  -2.275697e+02
   4.804039e+01  -2.178053e+02
   2.331131e+02  -6.515108e+01
   1.750034e+02   3.860298e+01
   1.551608e+01   1.773993e+01
  -2.862210e+01  -7.844760e+01
   6.979250e+01  -3.312723e+01
   1.778508e+02   5.526693e+01
   1.039190e+02   1.875700e+02
  -1.412411e+02   2.095159e+02
  -2.781096e+02   1.056763e+02
  -2.654747e+02  -9.434504e+01
   1.279162e+01  -2.566028e+02
   2.721602e+02  -3.275166e+02
   3.233519e+02  -1.328588e+02
   2.103626e+02   1.247409e+02
   2.530309e+01   3.218697e+02
  -4.070350e+01   2.422762e+02
  -1.231050e+01   1.026278e+02
   1.322127e+00   1.164485e+02
  -1.153408e+02   8.446606e+01
  -2.576483e+02   5.672189e+01
  -2.291733e+02  -1.243063e+02
  -4.278219e+01  -2.552825e+02
   1.014540e+02  -1.670368e+02
   1.538718e+02   9.047989e+01
   1.006122e+02   1.927263e+02
  -8.292818e+01   2.137701e+02
  -2.435351e+02   2.395762e+01
  -2.619587e+02  -2.053751e+02
  -1.322203e+02  -2.831225e+02
   6.397426e+01  -2.744297e+02
   1.390878e+02  -1.408703e+02
   1.310196e+02  -8.557025e+01
   1.534609e+02  -4.126200e+01
   2.525268e+02  -1.624165e+01
   3.541619e+02   1.347972e+02
   2.754759e+02   3.090053e+02
  -3.574290e+01   3.807774e+02
  -3.470564e+02   3.129552e+02
  -3.926521e+02   1.174679e+02
  -2.465484e+02  -8.479092e+01
   1.558842e+01  -2.112956e+02
   7.540118e+01  -1.830153e+02
  -1.371167e+00  -9.733319e+01
  -1.115097e+02   2.205860e+01
  -1.328781e+02  -7.982726e+01
   6.913509e+00  -1.507506e+02
   9.616439e+01  -1.137420e+02
   1.394114e+02   8.133491e+01
  -1.005116e+01   1.083374e+02
  -1.589693e+02  -1.597184e+01
  -1.021063e+02  -2.674896e+02
   6.999909e+01  -2.959105e+02
   2.239703e+02  -1.302885e+02
   2.814713e+02   7.988293e+01
   2.326837e+02   2.463590e+02
   3.054475e+01   2.518146e+02
  -1.092847e+02   1.081782e+02
  -1.455335e+02  -2.132045e+01
  -1.583967e+01  -1.068537e+01
   3.967489e+01   3.371399e+01
  -2.439976e+01   1.121906e+02
  -1.513035e+02   6.583115e+01
  -1.308121e+02  -3.109999e+01
  -3.707288e+01  -6.908927e+01
   5.505027e+01   1.871328e+01
  -1.144355e+01   6.334345e+01
  -1.325743e+02   7.334745e+01
  -2.838798e+02  -3.660858e+01
  -1.870639e+02  -1.840195e+02
   3.536548e+00  -2.733851e+02
   1.995486e+02  -1.788626e+02
   2.632751e+02  -7.692773e+01
   1.209228e+02   5.312721e+01
  -4.855846e+01   4.226024e+01
  -5.054208e+01   5.985421e+00
   5.896647e+01  -6.262409e+01
   1.635888e+02  -9.752358e+00
   1.438735e+02   1.113213e+02
   3.087321e+01   1.654577e+02
  -6.010153e+01   9.308938e+01
  -1.164728e+02   3.081084e+01
  -4.009043e+01  -2.757966e+01
   3.350097e+01   3.216198e+01
  -1.013183e+01   1.011708e+02
  -1.070792e+02   1.168560e+02
  -1.954806e+02  -4.011928e+01
  -1.874837e+02  -1.268430e+02
   2.384911e+00  -1.862614e+02
   1.622394e+02  -1.329365e+02
   1.468166e+02  -1.856792e+00
   1.168674e+01   6.095110e+01
  -7.457554e+01   7.493036e+01
  -4.787865e+01   2.047683e+01
  -1.664380e+01  -1.342437e+01
   4.775489e+01   8.393998e+00
  -2.832146e+01   3.227801e+01
  -8.625081e+01  -1.329393e+01
  -9.807048e+01  -9.171369e+01
   1.513522e+01  -1.549648e+02
   1.242906e+02  -1.427614e+02
   2.324952e+02   7.743022e+00
   1.561389e+02   1.560091e+02
   3.282951e+01   1.874490e+02
  -1.329140e+02   1.442439e+02
  -1.145098e+02   1.413843e+01
  -8.335268e+01  -1.495306e+01
  -3.375780e+01  -2.816467e+01
  -3.267852e+01  -1.281110e+01
  -6.678152e+01  -2.584112e+01
  -5.497395e+01  -3.002126e+01
   2.035625e+01  -8.950533e+01
   1.175728e+02  -5.076693e+01
   1.003877e+02   6.424883e+01
  -1.736188e+01   1.063782e+02
  -1.665668e+02   5.063158e+01
  -1.946193e+02  -4.777056e+01
  -6.612730e+01  -1.688005e+02
   1.235203e+02  -1.695630e+02
   2.500390e+02  -4.887694e+01
   2.245881e+02   9.807177e+01
   6.983529e+01   1.268017e+02
  -5.412169e+01   1.251508e+02
  -7.409863e+01   6.633848e+01
  -1.023272e+02   3.069014e+01
  -7.179324e+01   8.499282e+01
  -9.018127e+01   3.222365e+01
  -1.205869e+02  -3.281674e+01
  -8.972912e+01  -1.698461e+02
   1.104825e-01  -2.203362e+02
   1.281167e+02  -1.153088e+02
   1.786687e+02  -3.462803e+01
   7.996262e+01   1.069608e+02
   2.400644e+00   1.191080e+02
  -6.566923e+01   6.588732e+01
  -5.134236e+01  -1.088535e+01
   2.547711e+01  -3.698142e+01
   2.084975e+01  -6.636519e+01
  -8.239334e+00  -7.773078e+00
  -6.060545e+01  -2.518149e+01
  -4.009723e+01  -4.036929e+01
   7.981973e+01  -2.788575e+01
   1.576228e+02  -1.372628e+01
   1.213701e+02   7.499252e+01
  -2.103029e+01   1.087920e+02
  -1.155399e+02   4.232942e+01
  -1.303431e+02   3.542359e+00
  -3.016257e+01  -3.433705e+01
   3.576446e+01  -4.168592e+01
   6.874199e+01   1.342875e+01
  -2.113806e+01   4.747413e+01
  -3.719305e+01   8.251630e+01
  -5.583960e+01  -1.486200e+01
  -3.575568e+01  -5.317464e+01
  -4.990866e+01  -2.207618e+01
  -7.208428e+01   2.106296e+01
  -5.972578e+01  -1.454416e+00
  -5.880019e+01  -8.355766e+01
   2.920875e+01  -1.597256e+02
   1.145285e+02  -1.354486e+02
   1.648522e+02  -2.589792e+01
   1.430317e+02   1.088131e+02
  -2.342761e+01   1.214757e+02
  -9.031860e+01   3.958643e+01
  -4.161348e+01  -3.042966e+01
   3.840843e+01  -3.399049e+01
   1.072552e+02   5.185369e+01
   5.582417e+01   1.331227e+02
  -8.038425e+01   1.018020e+02
  -1.951060e+02   6.206250e+01
  -1.719395e+02  -5.715832e+01
  -3.162874e+01  -7.540774e+01
   6.066366e+01  -5.203568e+01
   4.113250e+01  -1.724339e+01
  -4.446291e+01   3.785918e+01
  -6.490436e+01  -7.960455e+00
  -2.709970e+01  -1.197576e+02
   8.103945e+01  -1.465501e+02
   1.442924e+02  -3.990434e+01
   1.022857e+02   7.410706e+01
   1.778101e+01   2.100924e+02
  -6.529968e+01   1.362698e+02
  -8.716701e+01  -1.194155e+01
  -4.873548e+01  -1.110269e+02
  -5.808418e+00  -9.688361e+01
   3.493479e+01   5.530256e+00
   1.581569e+01   3.382788e+01
   2.391531e+01   1.509927e+00
   2.436411e+01  -3.432186e+01
   2.430989e+01   3.010125e+01
   2.593830e+01   8.689473e+01
   1.358818e+01   1.090114e+02
  -7.844999e+01   1.813623e+01
  -1.252412e+02  -5.214010e+01
  -8.533457e+01  -7.195823e+01
  -5.648252e+00  -4.143485e+01
   5.132123e+01  -2.758659e+01
   6.059662e+01   5.509082e+00
   1.425940e+01   2.773333e+00
  -6.473707e+01   4.501378e+00
  -4.062954e+01   1.663936e+01
   1.698469e+01  -6.393301e+00
  -1.114834e+00  -8.270757e-01
  -3.753285e+01   3.012605e+01
  -1.024464e+02  -3.447423e+01
  -1.962456e+00  -7.788123e+01
   9.524544e+01  -1.109052e+02
   1.564622e+02  -7.356867e+01
   1.326553e+02   5.980784e+01
   6.141178e+01   1.779921e+02
  -7.677122e+01   1.734327e+02
  -1.087687e+02   5.130277e+01
  -7.086942e+01  -3.166111e+01
  -3.700911e+00  -3.719665e+01
   8.714251e-01  -1.514915e+00
  -2.945267e+01  -2.101942e+00
  -2.559787e+01  -7.439725e+01
  -2.041415e+01  -9.582650e+01
   3.049003e+01  -5.159019e+01
   8.965421e+01   4.680637e+01
   4.770279e+01   1.139260e+02
   1.826036e+01   7.034150e+01
  -7.888810e+01   2.013384e+01
  -1.044009e+02  -8.500089e+01
  -6.078529e+00  -9.022411e+01
   8.038102e+01  -8.468562e+01
   1.077040e+02   1.389216e+01
   4.363143e+01   4.147335e+01
  -4.455590e+01   3.771173e+01
  -4.003787e+01  -4.710332e+00
   3.369468e+01  -2.696193e+01
   4.294121e+01  -9.402949e+00
   1.250534e+01   3.163419e+01
  -6.106875e+01   2.852704e+01
  -8.108238e+01   4.504120e+01
  -5.174407e+01  -3.511294e+01
   8.376103e+00  -5.320908e+01
   6.042429e+01  -6.413779e+01
   2.917308e+01  -2.069743e+01
   1.800654e+00   7.143495e+01
  -1.782793e+01   3.133357e+01
  -4.494242e+01   1.636648e+01
  -2.397621e+00  -4.119749e+01
   1.123827e+00  -2.566012e+01
   1.416686e+01   2.649464e+01
   4.629241e+01   1.749256e+01
   3.502124e+01  -1.255692e+01
   7.461410e+00  -6.715274e+00
   4.775741e+00  -2.026262e+01
  -7.691719e+00   4.038846e+01
  -1.595502e+01   6.761072e+01
  -2.789630e+01   5.050507e+00
  -4.363966e+01  -3.897461e+01
  -5.582512e-01  -2.992371e+01
   7.344978e+01  -5.626115e+01
   6.990205e+01   6.138849e+01
   1.275302e+01   3.456943e+01
  -4.873144e+01   2.859667e+01
  -6.012042e+01  -3.051804e+01
  -4.987064e+01  -5.222634e+01
   4.152826e+01  -3.786304e+01
   9.248715e+01  -9.376361e+00
   4.103899e+01   1.225848e+01
  -5.019389e+01   3.974683e+01
  -3.729395e+01   6.292075e+00
   3.287707e+01  -4.643589e+01
   8.421054e+01  -2.652189e+01
