
 $NMID
 id='ANONYMOUS ', fmtdat='(2E16.6)'
 volume=1.0
 tramp=1.0
 $END
   3.558568e+03  -9.024618e+01
   2.602266e+03   1.956555e+03
  -1.775263e+02   2.215961e+03
  -1.608126e+03   1.147891e+03
  -1.066264e+03  -6.081045e+01
   4.552587e+01  -4.426615e+02
   6.355229e+02   1.391058e+02
   1.400933e+02   6.827115e+02
  -5.545185e+02   6.425145e+02
  -7.401109e+02   7.086982e+01
  -4.742821e+02  -6.190252e+02
   5.269244e+01  -7.632267e+02
   4.627940e+02  -1.637035e+02
   2.637430e+02   5.180752e+02
  -2.245641e+02   6.294732e+02
  -4.958984e+02   4.121414e+01
  -2.481307e+02  -6.370629e+02
   2.426946e+02  -6.919743e+02
   6.093490e+02  -2.245372e+02
   4.197023e+02   2.692137e+02
   7.341883e+01   3.998041e+02
  -1.938248e+02   2.434553e+02
  -1.399673e+02   2.014374e+01
   1.429523e+02   4.346482e+01
   2.689566e+02   2.367698e+02
   4.196363e+01   4.226679e+02
  -4.561152e+02   2.336610e+02
  -6.801900e+02  -1.499016e+02
  -2.537615e+02  -3.864514e+02
   3.090653e+02  -2.707871e+02
   5.488718e+02   9.020176e+01
   2.484239e+02   3.928017e+02
  -2.787762e+02   3.878184e+02
  -4.803899e+02   5.570449e+01
  -3.525214e+02  -1.683413e+02
  -2.288653e+01  -3.599815e+02
   9.835148e+01  -1.930051e+02
   2.381157e+01   1.214161e+02
  -1.655334e+02   2.104011e+02
  -2.555777e+02  -8.942201e+01
  -7.938047e+01  -4.972037e+02
   2.609955e+02  -4.894978e+02
   3.861761e+02   3.856934e+01
   1.645823e+02   3.593094e+02
  -1.775338e+02   1.753621e+02
  -2.268332e+02  -2.803623e+02
   7.105286e+01  -4.497860e+02
   4.423272e+02  -8.940336e+01
   5.016512e+02   3.883066e+02
   1.417645e+02   5.406897e+02
  -3.276282e+02   2.649228e+02
  -5.055247e+02  -7.472364e+01
  -3.863847e+02  -3.073314e+02
   7.070736e+01  -2.794386e+02
   3.165715e+02  -9.846288e+01
   2.129360e+02   7.493074e+01
  -3.158869e+01   3.901055e+01
  -1.077152e+02  -1.055521e+02
   9.162433e+01  -1.105478e+02
   2.633542e+02   5.187337e+00
   1.670689e+02   2.413388e+02
  -1.525163e+02   2.583101e+02
  -3.176408e+02   1.122745e+02
  -2.498057e+02  -1.420122e+02
   6.988639e+01  -3.254882e+02
   2.872701e+02  -3.302438e+02
   3.278003e+02  -1.171111e+02
   2.433417e+02   2.105127e+02
   7.303024e+01   3.641647e+02
  -3.663736e+01   3.198587e+02
  -4.341309e+01   1.199495e+02
   1.678413e+00   8.189472e+01
  -1.211534e+02   9.634148e+01
  -1.848044e+02   9.054260e+01
  -2.472544e+02  -1.055473e+02
  -7.309282e+01  -2.402903e+02
   1.148351e+02  -2.169733e+02
   2.200333e+02   3.026325e+01
   1.602391e+02   2.505804e+02
  -7.235096e+01   2.813733e+02
  -2.675236e+02   1.012795e+02
  -3.251144e+02  -1.734381e+02
  -1.453414e+02  -3.187905e+02
   9.610237e+01  -2.595633e+02
   2.059695e+02  -1.513453e+02
   1.289884e+02  -4.885065e+01
   1.213437e+02  -2.405566e+01
   2.586759e+02  -5.174169e+01
   3.319282e+02   9.496713e+01
   2.904040e+02   2.580985e+02
  -2.788657e+01   4.104412e+02
  -3.460102e+02   3.694703e+02
  -4.455898e+02   1.358930e+02
  -2.780160e+02  -1.038168e+02
   2.205969e+01  -2.245005e+02
   9.970779e+01  -2.337101e+02
   7.124434e+01  -3.941185e+01
  -7.941556e+01   6.051560e+01
  -1.159582e+02  -8.684563e+00
  -2.643031e+01  -1.616068e+02
   1.306141e+02  -1.410756e+02
   1.248863e+02   5.294915e+01
  -3.432262e+01   1.252428e+02
  -1.585330e+02  -1.935253e+00
  -1.646274e+02  -1.973161e+02
   1.745364e+01  -3.192231e+02
   2.225751e+02  -1.878023e+02
   3.412241e+02   8.671964e+01
   2.791706e+02   2.789757e+02
   4.456765e+01   2.804968e+02
  -1.576031e+02   1.541921e+02
  -1.506970e+02  -2.116106e+01
  -1.535643e+01  -4.876630e+01
   5.185231e+01   3.500886e+01
  -1.419960e+00   1.024352e+02
  -1.338669e+02   9.632806e+01
  -1.559977e+02  -1.267484e+01
  -2.078413e+01  -5.956493e+01
   3.971269e+01   1.586745e+01
   2.453569e+01   8.697310e+01
  -1.183378e+02   1.224724e+02
  -2.867806e+02  -3.292895e+01
  -2.397394e+02  -1.711892e+02
  -1.200858e+01  -2.450051e+02
   1.854171e+02  -1.988304e+02
   2.890477e+02  -1.060737e+02
   1.424178e+02   6.082514e+01
  -5.275795e+01   6.804540e+01
  -7.733150e+01   2.945566e+00
   4.803754e+01  -8.034093e+01
   1.457720e+02  -4.486840e+01
   1.775557e+02   1.081907e+02
   1.069123e+02   1.729361e+02
  -7.690109e+01   1.460914e+02
  -1.643159e+02   4.179510e+01
  -6.554587e+01  -3.641750e+01
   1.123031e+01   1.657828e+01
   7.273211e+00   1.277534e+02
  -8.801860e+01   1.297475e+02
  -2.178065e+02   3.304702e+01
  -1.640174e+02  -1.243349e+02
  -1.551277e+01  -1.850671e+02
   1.678627e+02  -1.251166e+02
   2.345664e+02   2.478829e+01
   2.922939e+01   9.702376e+01
  -5.563367e+01   1.070948e+02
  -7.570773e+01   2.153661e+01
  -5.634324e+00  -3.441474e+01
   4.304612e+01  -4.306892e-01
   6.738686e+00   5.949742e+01
  -8.745527e+01   1.350072e+01
  -8.007332e+01  -7.987431e+01
  -2.872585e+01  -1.797770e+02
   1.106751e+02  -1.064380e+02
   2.432879e+02  -2.020981e+00
   1.506867e+02   2.017245e+02
   3.357369e+01   2.323198e+02
  -1.144974e+02   1.725034e+02
  -1.159027e+02   9.575238e+00
  -6.699937e+01  -6.155868e+01
  -3.149762e+01  -7.611766e+00
  -3.675807e+01   2.796303e+01
  -9.148962e+01   8.557784e-01
  -6.083880e+01  -6.135698e+01
   4.387453e+01  -1.018635e+02
   1.491874e+02  -7.287293e+01
   8.868703e+01   3.733532e+01
  -4.522482e-01   1.073827e+02
  -1.460926e+02   3.756785e+01
  -2.212203e+02  -6.494081e+01
  -4.505357e+01  -1.836691e+02
   1.484826e+02  -2.074842e+02
   2.452379e+02  -8.977048e+01
   2.189409e+02   1.129796e+02
   9.561048e+01   1.643754e+02
  -3.206767e+01   1.247448e+02
  -4.618329e+01   6.496693e+01
  -6.378431e+01   6.601140e+01
  -8.735668e+01   7.094663e+01
  -9.164891e+01   9.125536e+01
  -1.420983e+02  -3.706679e+00
  -1.031859e+02  -1.797595e+02
  -4.250020e+01  -2.720590e+02
   1.058808e+02  -1.904788e+02
   1.788658e+02  -8.495902e+00
   1.323433e+02   1.364222e+02
   1.455125e+01   1.803387e+02
  -5.522712e+01   5.891718e+01
  -6.067932e+01  -7.207538e+00
   1.723254e+01  -6.347978e+01
   5.800461e+01  -3.297869e+01
   1.579789e+01  -8.612825e+00
  -5.508054e+01  -5.865162e+01
  -4.377907e+01  -4.392729e+01
   7.150356e+01  -2.768606e+01
   1.471394e+02   9.499923e+00
   1.308152e+02   6.017973e+01
  -3.722229e+00   1.261304e+02
  -1.357486e+02   5.868584e+01
  -9.912255e+01   2.459379e+01
  -1.517146e+01  -2.350453e+01
   1.190066e+01  -3.555554e+01
   5.163285e+01   8.537909e+00
   2.517174e+00   5.763794e+01
  -3.689243e+01   6.852506e+01
  -3.759295e+01   1.907238e+01
  -4.185425e+01  -5.102442e+01
  -4.801733e+01  -5.966015e+01
  -5.880108e+01   1.506607e+01
  -6.735555e+01  -9.653735e+00
  -3.922738e+01  -6.238725e+01
   4.247335e+01  -1.626681e+02
   1.339670e+02  -1.305508e+02
   1.579970e+02  -4.453952e+01
   1.172652e+02   8.747301e+01
  -2.403140e+01   1.239756e+02
  -9.686091e+01   8.842416e+01
  -5.273453e+01   3.059426e+00
   3.964904e+01  -1.375817e+01
   1.148069e+02   4.530106e+01
   7.500621e+01   1.313299e+02
  -1.017023e+02   9.388976e+01
  -2.093102e+02   3.675365e+01
  -1.560326e+02  -4.409620e+01
  -2.219168e+01  -8.490610e+01
   7.354443e+01  -4.542138e+01
   4.230824e+01   2.481685e+01
  -2.184712e+01   2.520067e+01
  -7.820701e+01  -2.046225e+01
  -2.130372e+01  -9.017085e+01
   7.905223e+01  -1.550102e+02
   1.328639e+02  -5.898532e+01
   1.193865e+02   8.989299e+01
   1.431096e+01   1.651734e+02
  -1.065043e+02   1.288768e+02
  -1.230489e+02  -2.672203e+01
  -6.283366e+00  -1.292265e+02
   1.452396e+01  -8.770217e+01
   5.786886e+01  -4.921947e+00
   2.676155e+01   3.012650e+01
   1.406695e+01   2.115868e+00
   4.363997e+01   2.806366e+00
   3.295113e+01   2.657516e+01
   2.446603e+01   1.290162e+02
   2.767417e+01   1.241508e+02
  -6.478507e+01   6.725768e+01
  -1.273236e+02  -5.699986e+01
  -1.082049e+02  -8.885300e+01
  -2.320272e+01  -4.535878e+01
   9.152880e+01  -4.342616e+01
   8.022643e+01   1.139302e+01
   3.729291e+01   4.906368e+01
  -5.751097e+01   9.876510e+00
  -2.576535e+01   3.498011e+01
  -1.801672e+01  -3.896471e+00
   1.356632e+00  -2.307135e+01
  -4.151244e+01  -2.194449e+00
  -9.707251e+01  -2.375078e+01
  -3.840222e+01  -9.218630e+01
   1.166616e+02  -1.218027e+02
   1.814050e+02  -3.163696e+01
   1.092747e+02   6.330914e+01
   1.149542e+01   1.747131e+02
  -5.979834e+01   1.302337e+02
  -1.132907e+02   5.181286e+01
  -7.892461e+01   4.078565e+00
  -1.775170e+01  -2.570545e+01
  -3.261152e+01  -3.886792e+01
   1.699735e+01  -2.065824e+01
  -3.233342e+01  -7.347358e+01
  -3.078068e+01  -9.209684e+01
   4.150958e+01  -7.998232e+01
   7.204174e+01   1.424958e+01
   8.353808e+01   9.162176e+01
   1.588332e+01   6.545192e+01
  -8.909045e+01   3.745931e+01
  -1.021650e+02  -7.607115e+01
  -6.555158e+00  -8.940805e+01
   6.675090e+01  -7.135763e+01
   7.949966e+01   3.433666e+01
   6.546106e+01   5.685426e+01
  -2.625747e+01   6.112488e+01
  -4.116233e+01  -2.975374e+00
   3.213938e+01  -1.069556e+01
   6.566113e+01  -1.636605e+01
   3.311517e+01   1.486969e+01
  -7.047539e+01   8.710740e+01
  -1.163147e+02   6.182120e+01
  -8.808644e+01  -1.015201e+01
   1.405171e+01  -8.503426e+01
   4.480783e+01  -8.383670e+01
   5.230038e+01  -3.484480e+01
   2.961551e+01   6.981619e+01
  -3.226263e+01   6.579953e+01
  -2.764895e+01   1.858626e+01
  -3.886488e+01  -3.290225e+01
   1.370651e+01  -2.981507e+01
   3.164891e+01  -2.167064e+01
   5.036168e+01   2.894025e+01
   1.430794e+01   2.690205e+01
  -1.707872e+00   5.150478e+00
  -2.144673e+01   1.813131e+00
   1.541159e+00   4.304580e+01
  -3.469120e+00   7.071767e+01
  -3.326675e+01   1.797691e+01
  -1.249284e+01  -2.686358e+01
   5.382469e+00  -7.720483e+01
   5.679568e+01  -4.175051e+01
   8.060417e+01   3.763672e+01
   2.602575e+00   7.258936e+01
  -4.522665e+01   4.707520e+01
  -5.287078e+01  -1.406521e+01
  -3.782870e+01  -5.517893e+01
   2.573302e+01  -2.741585e+01
   6.961737e+01  -3.393081e+01
   2.846842e+01  -1.841845e+01
  -3.496293e+01   1.205434e+01
  -3.615628e+01  -2.630373e+01
   4.515980e+00  -3.717682e+01
   8.391741e+01  -1.519830e+01
