
 $NMID
 id='ANONYMOUS ', fmtdat='(2E16.6)'
 volume=1.0
 tramp=1.0
 $END
   2.027534e+03   1.117959e+02
   1.365610e+03   9.925184e+02
   1.751365e+02   1.305401e+03
  -5.899868e+02   6.358017e+02
  -6.245761e+02   1.550382e+02
  -1.229699e+02  -1.372958e+02
   1.503325e+02   5.469482e+01
   3.262937e+01   2.734896e+02
  -2.471537e+02   3.332278e+02
  -4.083210e+02   9.722525e+01
  -3.502284e+02  -2.856125e+02
  -1.702005e+01  -4.428908e+02
   1.688757e+02  -1.162510e+02
   1.845104e+02   1.932266e+02
  -2.913417e+01   3.961221e+02
  -2.499760e+02   1.147690e+02
  -2.158573e+02  -2.983446e+02
   6.125499e+01  -4.131086e+02
   2.738827e+02  -2.246510e+02
   3.133454e+02   8.559856e+01
   9.053740e+01   1.864559e+02
  -6.231586e+01   1.445199e+02
  -3.595488e+00   8.521482e+01
   1.128463e+02   1.144725e+02
   1.378256e+02   2.027182e+02
  -7.308550e+01   2.216241e+02
  -3.338957e+02   6.007556e+01
  -3.013041e+02  -5.560481e+01
  -1.086385e+02  -1.569598e+02
   1.968995e+02  -7.508297e+01
   2.591369e+02   4.259153e+01
   1.011109e+02   2.327871e+02
  -2.349201e+02   2.234282e+02
  -2.730376e+02   6.056650e+01
  -2.175882e+02  -9.743471e+01
  -5.322238e+01  -2.310081e+02
  -2.097694e+01  -1.202666e+02
  -3.598454e+01   2.574844e+01
  -1.129696e+02   9.501145e+01
  -3.786805e+01  -6.823055e+01
   3.301804e+01  -2.362018e+02
   1.263921e+02  -1.918593e+02
   1.207854e+02  -1.346614e+01
   5.600813e+01   1.328817e+02
  -5.537089e+01   6.310018e+01
  -2.054893e+01  -1.998016e+02
   1.353869e+02  -2.044009e+02
   2.553977e+02  -4.287946e+01
   3.074429e+02   2.238100e+02
   1.108577e+02   3.167137e+02
  -1.988365e+02   1.835997e+02
  -3.724761e+02  -1.022223e+01
  -2.932329e+02  -1.192674e+02
  -2.419531e+01  -1.472502e+02
   1.845671e+02  -9.412685e+01
   1.411996e+02  -6.978031e+00
   2.375328e+01  -4.897142e-01
  -1.246869e+01  -1.546081e+01
   6.101796e+01  -1.967187e+01
   1.419255e+02   2.243325e+01
   1.047357e+02   7.484588e+01
  -1.076015e+02   1.559874e+02
  -2.624775e+02   7.875027e+01
  -1.848630e+02  -1.046698e+02
   5.601775e+01  -2.686601e+02
   2.282738e+02  -2.574411e+02
   2.502195e+02  -7.296240e+01
   1.672911e+02   1.330049e+02
   5.388837e+01   2.422628e+02
   1.215093e+01   1.969667e+02
  -2.242138e+01   1.417766e+02
  -2.523924e+01   1.412166e+02
  -1.246758e+02   9.780040e+01
  -1.887985e+02   5.962324e+01
  -1.552827e+02  -1.101879e+02
  -6.422752e+01  -2.021583e+02
   7.489052e+01  -1.485258e+02
   9.679628e+01   2.641239e+01
   8.200030e+01   1.535903e+02
  -5.143357e+01   1.584823e+02
  -1.571420e+02   2.723044e+01
  -1.988029e+02  -1.305476e+02
  -1.049060e+02  -1.701320e+02
   8.657304e+00  -1.427248e+02
   5.142586e+01  -8.432771e+01
   8.692482e+01  -7.276004e+01
   9.521412e+01  -1.034359e+02
   2.145262e+02  -7.886958e+01
   3.087771e+02   3.594784e+01
   2.668224e+02   1.862480e+02
  -2.629520e+01   2.844557e+02
  -2.666780e+02   2.789002e+02
  -3.489840e+02   1.339159e+02
  -1.818968e+02  -7.009752e+01
  -3.117661e+01  -1.708849e+02
   6.393908e+01  -1.151245e+02
  -1.796858e+01  -5.151751e+01
  -7.116050e+01   2.119425e+01
  -4.610546e+01  -2.699562e+00
  -1.920384e+01  -1.058368e+02
   4.646769e+01  -4.562632e+01
   8.187429e+01   3.008755e+01
  -3.880378e+01   1.009738e+02
  -1.014839e+02  -8.578192e+00
  -1.198416e+02  -1.628716e+02
  -2.546024e+01  -2.633431e+02
   1.678029e+02  -1.189759e+02
   2.338425e+02   5.039297e+01
   2.005956e+02   1.513337e+02
   5.735397e+01   2.119073e+02
  -7.161478e+01   9.127223e+01
  -9.537414e+01   2.628340e+01
  -5.537360e+00   4.349733e+00
   1.528699e+01   4.117483e+01
  -3.184201e+01   7.969583e+01
  -6.326632e+01   6.023033e+01
  -7.334327e+01  -4.529986e+01
  -3.638191e+01  -3.110243e+01
   6.690438e+01   3.438297e+01
   2.542335e+01   6.402581e+01
  -6.366875e+01   7.141820e+01
  -2.325899e+02   5.301993e+00
  -1.904000e+02  -1.445357e+02
   2.950137e+00  -1.808657e+02
   1.237434e+02  -1.388189e+02
   1.998592e+02  -2.708054e+01
   1.086717e+02   4.067686e+01
  -6.748092e+01   4.481842e+01
  -3.499232e+01   1.025512e+01
   5.743016e+01  -6.162484e+01
   1.340370e+02  -3.242041e+01
   1.430123e+02   7.251104e+01
   4.805056e+01   8.344992e+01
  -5.716210e+01   1.057608e+02
  -8.293291e+01   2.485940e+01
  -1.964187e+01  -3.131260e+01
   1.593821e+01   8.607097e+00
   1.007337e+01   1.105385e+02
  -7.276967e+01   1.169559e+02
  -1.734248e+02   2.519675e+01
  -1.404703e+02  -1.056218e+02
  -8.791638e+00  -1.576107e+02
   1.386538e+02  -1.262952e+02
   1.208526e+02  -1.333491e+01
   4.047085e+01   6.484548e+01
  -4.904383e+01   5.477853e+01
  -8.588207e+01   5.252513e+01
  -1.353309e+00  -5.441262e+01
   3.488832e+01   1.725754e+00
   1.075370e+01   3.321011e+01
  -7.897684e+01   2.966539e+01
  -8.713532e+01  -3.901941e+01
  -2.168301e+01  -1.686543e+02
   8.671766e+01  -1.007369e+02
   1.691354e+02  -5.565512e-01
   1.490281e+02   1.269854e+02
   4.130101e+01   1.622775e+02
  -7.407382e+01   1.065306e+02
  -7.469404e+01   3.685324e+00
  -1.996465e+01  -3.797118e+01
  -1.038668e+01  -1.415608e+00
  -1.087187e+01   2.455902e+01
  -7.015427e+01   2.597479e+01
  -2.603229e+01  -3.064203e+01
   2.237940e+01  -8.457275e+01
   9.337263e+01  -1.707866e+01
   8.709757e+01   6.288189e+01
  -3.724139e+01   7.534519e+01
  -1.352432e+02   4.093950e+01
  -1.349343e+02  -9.022160e+01
  -4.882002e+01  -1.577443e+02
   9.819251e+01  -1.415596e+02
   1.949993e+02  -3.919370e+01
   1.629980e+02   7.046787e+01
   3.572421e+01   1.302888e+02
  -3.448337e+01   8.942801e+01
  -8.982890e+01   2.632244e+01
  -5.975341e+01   3.926991e+01
   2.395916e+01   8.887673e+01
  -4.245449e+01   4.650959e+01
  -9.760618e+01  -3.702511e+00
  -1.184986e+02  -1.218920e+02
   2.964330e+01  -1.292447e+02
   7.169742e+01  -1.369112e+02
   1.202757e+02  -4.027855e+00
   8.537288e+01   1.034811e+02
   6.385934e+00   9.453529e+01
  -6.536199e+01   3.331664e+01
  -6.499954e+01  -1.156634e+01
  -3.668465e+00  -4.449373e+01
   3.582088e+01  -3.222625e+01
  -1.628984e+01   1.455068e+01
  -6.572785e+01  -2.689920e+01
  -2.577906e+01  -3.214074e+00
   3.570528e+01  -4.202905e+01
   1.572472e+02  -4.893591e+00
   9.457934e+01   3.900956e+01
  -1.537804e+01   6.265477e+01
  -1.286942e+02   4.531927e+01
  -1.169635e+02   1.878497e+01
  -1.878532e+00  -4.700658e+01
   4.860356e+01  -3.352227e+01
   3.504866e+01  -1.347936e+01
   4.066356e+01   5.998172e+01
  -1.865369e+01   8.345361e+01
  -4.428196e+01   2.314347e+01
  -7.482220e+01  -4.421990e+01
  -2.772766e+01  -3.986251e+01
  -3.071762e+01   1.911495e+01
  -2.629909e+01  -6.490656e+00
  -5.674391e+01  -3.493709e+01
  -9.194699e+00  -9.950327e+01
   7.484352e+01  -9.829614e+01
   1.332650e+02  -6.596476e+01
   1.035376e+02   5.705389e+01
  -1.207475e+01   5.823692e+01
  -8.553075e+01   7.118378e+01
  -5.123428e+01   2.761093e+01
   4.697729e+01  -2.741610e+01
   1.090715e+02   2.548436e+01
   4.590867e+01   6.788704e+01
  -5.780928e+01   7.743236e+01
  -1.136425e+02   1.041521e+01
  -1.064565e+02  -2.751047e+01
  -3.750169e+01  -7.941296e+01
   6.080168e+01  -4.794373e+01
   1.162157e+01   1.621422e+00
   5.981298e+00   1.285537e+01
  -4.960067e+01  -1.139620e+01
  -2.594026e+01  -6.594184e+01
   6.068656e+01  -7.983896e+01
   1.184772e+02  -6.332775e+01
   6.683236e+01   4.992717e+01
   8.676691e+00   1.379507e+02
  -6.855840e+01   1.140629e+02
  -8.224954e+01   1.552029e+01
  -3.551531e+01  -9.569671e+01
  -2.017951e+00  -7.312650e+01
   4.331108e+01  -2.016075e+01
   2.711097e+01   2.524816e+01
   1.169652e+01   6.088841e+00
  -8.563379e+00   9.892887e+00
   2.623960e+01   4.463095e+01
   2.189787e+01   6.461236e+01
   1.072181e+01   1.011197e+02
  -1.912035e+01   2.481881e+01
  -1.175838e+02  -8.363223e+00
  -8.887936e+01  -4.159525e+01
  -3.993968e+00  -5.700645e+01
   5.920667e+01  -2.930147e+01
   5.138582e+01   2.854164e+01
  -6.769843e+00   2.433007e+01
  -7.495727e+00   2.342564e+01
  -1.257131e+01  -8.243938e+00
   2.510724e+00  -1.319954e+01
  -1.859811e+00   8.517305e+00
  -4.761452e+01  -1.436109e+01
  -9.270156e+01  -2.068563e-03
  -3.321489e+01  -6.163565e+01
   6.172296e+01  -9.647954e+01
   1.411364e+02  -5.069553e+01
   1.062529e+02   2.636703e+01
   1.922086e+01   1.233492e+02
  -2.864210e+01   1.227522e+02
  -9.699164e+01   5.893048e+01
  -5.833512e+01  -1.471682e+01
  -4.418558e+01  -1.273637e+01
   7.421225e+00  -2.141919e+01
  -1.432578e+00   3.676836e-01
  -2.469643e+01   3.288351e+00
  -1.429521e+01  -4.916854e+01
   5.919369e+00  -5.135520e+01
   2.630617e+01  -1.374345e+01
   7.271503e+01   7.430616e+01
   7.492952e+00   6.616309e+01
  -4.696606e+01   2.304215e+01
  -8.478927e+01  -4.180694e+01
  -1.676203e+01  -8.020638e+01
   6.346828e+01  -5.523051e+01
   1.014686e+02   3.569000e+01
   4.274675e+01   5.304393e+01
  -2.267535e+01   5.080161e+01
  -4.437533e+01   2.754023e+01
   3.987191e+01  -1.572207e+01
   4.998374e+01  -2.602087e+01
   1.154209e+01  -9.878205e+00
  -4.777289e+01   5.697884e+01
  -8.108224e+01   4.676794e+01
  -6.902934e+01  -3.665846e+01
   1.887602e+01  -8.432784e+01
   5.370315e+01  -5.835705e+01
   2.808678e+01   3.670166e+00
   6.629690e+00   5.356084e+01
  -4.758694e+01   6.097361e+01
  -2.742599e+01   5.928077e+00
  -2.900442e+00  -8.146240e+01
  -3.185047e+00  -4.653400e+01
   1.936384e+01   3.804600e+00
   5.175083e+01   1.439526e+01
   6.725203e+00   2.161616e+01
  -1.154512e+01   1.213575e+00
  -2.443740e+00   3.119747e+00
   6.873329e+00   7.233787e+00
   3.403594e+01   1.525528e+01
  -2.218784e+01   2.054263e+01
  -3.545728e+01  -2.492443e+01
  -4.485180e+01  -4.846186e+01
   4.399434e+01  -4.590714e+01
   4.807650e+01   1.872559e+01
   5.263763e+01   1.299180e+01
  -4.226067e+01   1.701497e+01
  -5.938039e+01  -1.761907e+01
  -5.062663e+01  -3.244497e+01
   1.666948e+01  -2.146987e+01
   3.624180e+01   9.790863e+00
   2.747396e+01  -1.472802e+01
   1.120028e+00   2.585508e+00
  -3.282030e+01   7.254543e+00
   1.038903e+01  -3.492891e+01
   6.144971e+01  -1.261668e+01
