
 $NMID
 id='ANONYMOUS ', fmtdat='(2E16.6)'
 volume=1.0
 tramp=1.0
 $END
  -1.567410e+03  -1.772610e+02
  -9.625399e+02  -8.185577e+02
  -1.304314e+02  -1.110361e+03
   6.247430e+02  -8.865512e+02
   6.023906e+02  -2.046828e+02
   6.777547e+01   8.846592e+01
  -1.010679e+02  -4.956224e+01
   1.440034e+01  -2.003446e+02
   1.966574e+02  -3.072916e+02
   4.337939e+02  -8.925036e+01
   2.385564e+02   2.595592e+02
   8.701716e+00   3.461668e+02
  -1.531211e+02   1.177375e+02
  -1.960227e+02  -2.043451e+02
   5.953188e+01  -3.667618e+02
   2.560343e+02  -7.976840e+01
   2.008216e+02   2.495351e+02
  -7.517097e+01   3.607705e+02
  -2.834266e+02   2.154931e+02
  -2.786546e+02  -6.395700e+01
  -6.601187e+01  -2.104349e+02
   5.644916e+01  -1.581741e+02
   4.912664e+01  -5.140240e+01
  -8.507091e+01  -8.553978e+01
  -1.325069e+02  -1.897770e+02
   4.504247e+01  -2.335073e+02
   3.199762e+02  -1.019092e+02
   3.752466e+02   1.113663e+02
   9.453152e+01   2.223343e+02
  -2.339605e+02   1.079649e+02
  -2.845699e+02  -9.162935e+01
  -1.279322e+02  -2.102777e+02
   1.837909e+02  -2.064083e+02
   2.689369e+02  -5.704836e+01
   1.798811e+02   7.860004e+01
   1.886730e+01   2.003531e+02
   1.446006e+01   7.987395e+01
   2.819689e+01  -5.263384e+01
   1.203091e+02  -8.271539e+01
   1.095980e+02   1.152310e+02
   2.984370e+01   2.757335e+02
  -1.135679e+02   1.947652e+02
  -1.769742e+02   3.128568e+01
  -5.737207e+01  -1.755237e+02
   8.079169e+01  -6.755282e+01
   7.186224e+01   1.352063e+02
  -8.451712e+01   1.953469e+02
  -2.294301e+02   6.673694e+01
  -2.657904e+02  -1.912883e+02
  -2.981414e+01  -2.711585e+02
   2.133341e+02  -1.180919e+02
   2.925356e+02   5.035783e+01
   1.690155e+02   1.382299e+02
  -3.014428e+01   1.310946e+02
  -1.595651e+02   7.706163e+01
  -1.379879e+02   2.598532e+01
  -1.871527e+01   1.226831e+01
  -9.507295e+00   4.186991e+01
  -4.856183e+01   4.252171e+01
  -9.215742e+01  -2.446909e+01
  -3.531036e+01  -1.025443e+02
   1.006609e+02  -1.599517e+02
   2.514065e+02  -8.851274e+01
   1.708847e+02   6.993145e+01
  -3.742960e+01   2.446831e+02
  -1.904482e+02   2.333740e+02
  -2.502720e+02   9.285873e+01
  -1.302076e+02  -1.255464e+02
  -5.677786e+01  -1.931563e+02
  -1.450719e+01  -1.220185e+02
  -2.192653e+01  -1.567874e+02
   3.632894e+01  -6.775674e+01
   1.287154e+02  -5.553510e+01
   1.858489e+02  -2.780410e+01
   1.226284e+02   8.864532e+01
   5.450150e+01   1.579021e+02
  -9.034346e+01   1.055961e+02
  -1.044679e+02  -1.308863e+01
  -3.197788e+01  -1.378877e+02
   5.815300e+01  -1.607510e+02
   1.150835e+02   7.474131e+00
   1.739510e+02   1.103755e+02
   6.323760e+01   1.829864e+02
   1.887968e+00   1.508772e+02
  -6.707248e+01   1.032272e+02
  -9.025099e+01   5.973669e+01
  -8.795419e+01   6.926546e+01
  -1.685054e+02   2.856254e+01
  -3.221413e+02  -6.460770e+01
  -1.705011e+02  -2.294641e+02
   2.713654e+01  -2.795151e+02
   2.105998e+02  -2.140070e+02
   2.985045e+02  -1.490769e+02
   1.641338e+02   6.426329e+01
   1.650095e+01   1.389348e+02
  -3.536011e+01   1.337422e+02
  -9.833932e+00   2.014959e+01
   4.982220e+01  -2.094362e+01
   7.207535e+01   4.026078e+01
   3.010029e+00   1.067831e+02
  -5.959170e+01   4.309456e+01
  -2.971806e+01  -1.602100e+01
   5.150452e+01  -7.140113e+01
   8.977271e+01   4.234015e+00
   1.163859e+02   1.488205e+02
  -1.946663e-01   2.133684e+02
  -1.620910e+02   1.720286e+02
  -2.453729e+02  -8.315953e+01
  -1.915810e+02  -1.439204e+02
  -1.932073e+01  -2.032825e+02
   7.916373e+01  -7.549742e+01
   6.807588e+01   1.182743e+01
   1.625332e+01  -1.384642e+00
  -2.196888e+01  -4.967792e+01
   3.243177e+00  -7.320389e+01
   4.700205e+01  -5.341402e+01
   6.262799e+01   4.139097e+01
   9.932728e+00   1.701744e+01
  -5.664510e+01  -1.638785e+01
  -3.995782e+01  -7.142372e+01
   9.679293e+01  -6.130791e+01
   2.086626e+02   2.640711e+01
   1.477227e+02   1.223231e+02
  -2.894451e+01   1.955454e+02
  -1.173670e+02   1.472190e+02
  -1.546644e+02   1.976174e+01
  -8.467248e+01  -2.689570e+01
   2.838992e+01  -5.343304e+01
   3.432004e+01   7.426000e+00
  -3.684177e+01   5.240628e+01
  -1.276893e+02   1.121098e+01
  -1.061448e+02  -2.253310e+01
  -1.555782e+01  -8.576537e+01
   8.184091e+01  -6.852803e+01
   9.801816e+01  -1.054846e+01
   1.743096e+01   5.294462e+01
  -4.774530e+01  -2.790771e+01
  -1.262726e+01  -7.887413e+01
   7.503045e+01  -8.765981e+01
   1.369962e+02  -2.181235e+01
   1.442870e+02   1.119926e+02
  -1.464599e+01   1.359085e+02
  -1.002617e+02   9.786088e+01
  -1.170363e+02  -3.060454e+01
  -1.844031e+01  -4.808182e+01
   4.258576e+01  -2.610491e+01
   6.107016e+01  -2.444156e+01
   4.570747e+00   3.301752e+01
  -4.202187e+01  -2.146714e+00
  -2.423935e+01  -1.438058e+01
   5.684746e+01  -1.850943e+01
   7.795732e+01   4.891940e+01
  -3.616368e+00   1.385486e+02
  -1.028441e+02   7.872395e+01
  -1.570619e+02   5.359929e+00
  -1.312568e+02  -8.326215e+01
   5.640905e+00  -1.486040e+02
   7.957521e+01  -9.481679e+01
   5.615693e+01  -1.054572e+01
   2.498096e+01   3.062265e+01
   2.602283e+00   2.616122e+01
   1.756988e+01  -2.541368e+01
   3.365761e+01  -8.317056e+00
   1.477240e+01   5.608529e+01
  -2.694076e+01   6.434653e+01
  -1.088285e+02   1.731293e+01
  -6.638152e+01  -6.554145e+01
  -1.500077e+01  -1.132636e+02
   1.293685e+02  -3.584351e+01
   1.095586e+02   3.761075e+01
   8.353524e+00   1.461096e+02
  -7.632830e+01   1.310304e+02
  -1.796028e+02   3.043963e+01
  -1.538769e+02  -7.158371e+01
  -4.658686e+01  -1.131442e+02
   2.807881e+01  -6.615193e+01
   3.993649e+01  -3.231981e+01
   6.164126e+01  -4.437619e+01
   2.605128e+01  -8.194092e+01
   3.977781e+01  -8.088801e+01
   8.521635e+01   2.212044e+01
   1.099068e+02   1.098342e+02
  -4.707316e+00   1.518959e+02
  -6.308255e+01   1.011996e+02
  -8.114548e+01   2.797713e+01
  -8.046890e+01  -5.882443e+01
   2.312867e+01  -7.365672e+01
   8.313292e+01  -5.388796e+01
   3.542729e+01   1.118967e+01
  -3.143121e+00   2.833432e+01
  -4.614690e+00   6.369851e+00
   1.832381e+01   1.216021e+01
   3.565098e+01   2.013012e+01
   1.313637e+01   2.176341e+01
  -4.794619e+01   1.844449e+01
  -1.618164e+02  -3.435982e+01
  -9.811624e+01  -5.607587e+01
   8.469733e+00  -9.671303e+01
   1.010467e+02  -7.103840e+01
   7.610968e+01  -1.133923e+00
   1.601394e+01   2.856649e+01
  -4.392553e+01   5.632105e+01
  -9.235838e+00  -2.840174e+01
  -5.518350e+01  -3.076430e+01
   3.310412e+01  -5.884922e+01
   2.751356e+01  -7.181199e+00
   4.160799e+01   3.389630e+01
   1.330846e+01   2.329462e+01
   4.186703e+01   1.466938e+00
   7.138312e+01  -2.043954e+01
   3.316984e+01   7.210244e+01
  -1.174778e+01   1.246000e+02
  -9.184303e+01   9.460404e+01
  -1.255195e+02   5.634003e+01
  -8.735279e+01  -5.908811e+01
   1.847348e+01  -6.658951e+01
   3.951118e+01  -4.238869e+01
   5.218846e+01  -3.039030e+01
  -2.247080e+01   1.428376e+01
  -6.614280e+01  -1.109613e+01
  -5.100472e+01  -8.056741e+01
   4.769434e+01  -7.241906e+01
   1.191593e+02  -1.212758e+01
   1.280767e+02   8.393913e-01
   3.769678e+01   5.607569e+01
  -4.530377e+01   4.593295e+01
  -4.086176e+01   1.524503e+01
   2.111548e+01  -9.854490e+00
   7.594922e+01   1.723324e+01
   4.327924e+01   5.548599e+01
  -5.946774e+01   7.755690e+01
  -9.048627e+01   3.562633e+01
  -4.597654e+01  -2.582241e+01
   1.880038e+01  -1.170400e+02
   6.678017e+01  -7.594084e+01
   5.367996e+01   3.267518e+01
   6.714103e+00   1.010880e+02
   7.928680e+00   8.242981e+01
  -2.793932e+01   2.447518e+01
  -3.401746e+01  -4.477471e+01
   5.508313e+00  -1.092083e+01
  -2.935972e+01  -2.085520e+00
  -5.673248e+00  -2.813524e+01
  -3.134029e+01  -6.156025e+01
   1.439520e+01  -7.902450e+01
   3.711454e+01  -4.249593e+01
   5.560923e+01   2.424648e+01
   6.336041e+01   4.203821e+01
   7.543552e+00   2.918541e+01
  -2.305870e+01   2.939763e+01
  -3.219352e+01   1.781135e-01
   2.367525e+00  -8.930534e+00
   3.201203e+01  -2.730074e+01
  -1.309389e+00   2.143519e+01
   2.618321e+00   2.428563e+00
  -2.234045e+01  -1.110070e+01
   6.158397e+01  -9.758397e+00
   6.360451e+01  -1.004850e+01
   8.943757e+00   2.819057e+01
  -5.626539e+01   8.610054e+01
  -1.492917e+02   3.242106e+01
  -9.941182e+01  -3.489828e+01
  -2.796207e+01  -8.368388e+01
   4.759204e+01  -1.007069e+02
   7.843488e+01  -1.811209e+01
   8.025928e+01  -9.218619e+00
   1.819334e+01   7.354796e+00
   2.871422e+01  -4.834238e+00
   2.613608e+01   1.926030e+00
   1.110416e+01   1.259917e+01
   1.053277e+01   8.066893e+01
  -4.089136e+01   5.890391e+01
  -2.347808e+01   3.015537e+01
  -5.179433e+01  -7.462976e+01
  -1.787705e+01  -7.551018e+01
   7.008663e+01  -2.718934e+01
   6.405154e+01   1.361416e+01
   1.224690e+01   4.597355e+01
  -3.796838e+01   6.578670e+01
  -5.529998e+01  -5.036827e-01
  -2.319147e+01  -4.182389e+01
   2.625415e+01  -4.142585e+01
   1.297933e+01   7.782692e+00
  -2.773218e+01   2.756038e+01
  -2.991152e+01   3.365771e+01
   1.617393e+01  -1.630829e+01
   5.736125e+01  -6.233718e+01
   5.463510e+01  -2.412487e+01
   3.475262e+01  -7.119964e+00
  -1.996180e+01   3.327474e+01
  -2.763631e+01   5.517955e+01
  -5.273610e+01   1.473832e+01
  -2.356164e+01  -6.012795e-01
   4.801657e-01   7.067003e-01
   4.633033e+01   3.806300e+01
  -1.306192e+01   2.650575e+01
  -1.634950e+00   1.973788e+01
  -4.911457e+01   2.621114e+01
  -1.345608e+01   3.375530e+00
   1.062608e+01  -2.980006e+00
   1.378793e+01  -1.495645e+01
  -2.270500e+01   1.315108e+01
  -2.702658e+01  -3.957976e+01
   9.494875e+00  -1.755943e+01
   1.598206e+01  -1.636498e+01
   1.531069e+01   3.741701e+01
  -9.982077e-01   4.333961e+01
  -3.247091e+01   1.568304e+01
  -6.948889e+01   1.225174e-01
  -9.264110e+00  -5.503559e+01
   5.437903e+01  -2.659561e+01
   7.338371e+01  -2.036252e+00
   5.010393e+01   3.176437e+01
  -1.863572e+01   3.716862e+01
  -4.905742e+01   5.162397e+01
  -1.130109e+01  -2.255075e+01
   2.374133e+01   9.658180e+00
   1.632261e+00   9.341941e+00
  -4.626714e+01   7.776595e+00
  -6.449313e+01  -1.498655e-01
