
 $NMID
 id='ANONYMOUS ', fmtdat='(2E16.6)'
 volume=1.0
 tramp=1.0
 $END
   3.045143e+03   5.395145e+01
   1.631767e+03   1.889997e+03
  -4.800644e+02   1.823064e+03
  -1.507207e+03   8.222137e+02
  -8.478241e+02  -3.836386e+02
   3.432326e+02  -4.060769e+02
   5.679116e+02   2.258010e+02
   3.897192e+01   6.849567e+02
  -5.026761e+02   5.244173e+02
  -5.597108e+02  -4.486723e+01
  -3.378685e+02  -5.446649e+02
   1.020116e+02  -6.223713e+02
   4.459274e+02  -9.823902e+01
   3.251516e+02   4.824760e+02
  -1.586259e+02   5.321661e+02
  -4.521873e+02   7.371691e+00
  -2.651245e+02  -4.995054e+02
   2.485135e+02  -5.205377e+02
   4.611576e+02  -9.878341e+01
   3.156188e+02   2.558097e+02
   4.173501e+01   3.505007e+02
  -2.258719e+02   1.955206e+02
  -1.633671e+02   7.061433e-01
   6.480722e+01  -5.256921e+01
   3.254234e+02   9.763293e+01
   1.336699e+02   3.701070e+02
  -3.774856e+02   2.954557e+02
  -5.728252e+02  -1.124332e+02
  -2.603000e+02  -4.268152e+02
   3.133519e+02  -3.601307e+02
   5.838113e+02   4.664069e+01
   2.925397e+02   3.637134e+02
  -1.688546e+02   3.762896e+02
  -3.845992e+02   1.327588e+02
  -3.264437e+02  -1.886546e+02
  -6.051705e+01  -3.311870e+02
   1.130462e+02  -1.954380e+02
   6.886347e+01   1.407489e+02
  -7.999868e+01   2.480231e+02
  -2.942378e+02  -2.593770e+01
  -9.223940e+01  -4.710755e+02
   2.359936e+02  -4.548444e+02
   3.801756e+02  -5.976635e-01
   1.178595e+02   3.630383e+02
  -1.931346e+02   1.880360e+02
  -2.775916e+02  -1.978312e+02
   2.242808e+01  -4.435615e+02
   3.969427e+02  -9.424431e+01
   4.480705e+02   3.164188e+02
   1.331998e+02   4.046920e+02
  -2.907503e+02   2.731082e+02
  -4.244632e+02  -5.628637e+01
  -2.313263e+02  -2.981944e+02
   1.124544e+02  -2.324987e+02
   3.178610e+02  -8.212806e+01
   2.011069e+02   1.161585e+02
  -7.539252e+01   7.790466e+01
  -1.265368e+02  -8.422651e+01
   5.548738e+01  -1.395170e+02
   2.301208e+02   2.931220e+01
   9.486529e+01   2.155719e+02
  -1.215049e+02   2.127828e+02
  -2.704898e+02   7.242669e+01
  -1.745113e+02  -7.992337e+01
  -7.193926e+00  -2.073988e+02
   2.155209e+02  -2.575659e+02
   2.219913e+02  -1.429800e+02
   2.278531e+02   1.237286e+02
   1.659038e+01   3.411186e+02
  -1.214124e+02   2.439126e+02
  -1.085330e+02   4.414409e+01
  -1.783978e+01   1.329361e+01
  -5.240789e+01   6.731617e+01
  -1.273399e+02   9.692344e+01
  -2.037132e+02  -4.378192e+01
  -1.041130e+02  -1.745909e+02
   7.330123e+01  -1.749418e+02
   1.632474e+02  -2.129954e+01
   1.536934e+02   1.886296e+02
  -2.093783e+01   2.457643e+02
  -2.215145e+02   9.356688e+01
  -2.405975e+02  -1.318055e+02
  -1.078212e+02  -2.575334e+02
   7.649828e+01  -1.920623e+02
   1.431831e+02  -6.314047e+01
   8.015284e+01  -2.255590e+01
   4.204464e+01  -2.547187e+01
   1.525307e+02  -5.385949e+01
   2.951303e+02   2.711138e+01
   2.523128e+02   1.557027e+02
   3.064805e+01   3.029058e+02
  -2.504394e+02   2.935061e+02
  -3.695707e+02   1.265644e+02
  -2.619524e+02  -3.961109e+01
  -5.269557e+01  -1.942350e+02
   1.228134e+02  -1.355388e+02
   9.152233e+01  -2.925276e+00
  -6.226388e+01   6.456971e+01
  -1.550449e+02  -2.013358e+01
  -3.622079e+01  -1.300607e+02
   1.040036e+02  -1.253642e+02
   1.396371e+02   4.075655e+01
  -1.324149e+01   1.263614e+02
  -1.310028e+02   5.940155e+01
  -1.368331e+02  -1.497020e+02
  -2.640585e+01  -2.576109e+02
   1.750906e+02  -1.664205e+02
   2.552986e+02   3.583996e+01
   2.175231e+02   2.028882e+02
   1.867429e+01   1.657506e+02
  -8.534107e+01   9.703421e+01
  -1.228847e+02  -1.828674e+01
  -2.684101e+01  -2.796869e+01
   8.530746e+01   5.612082e+01
   2.023320e+01   1.148201e+02
  -8.794876e+01   1.113653e+02
  -1.388633e+02   8.244625e+00
  -3.649954e+01  -5.494448e+01
   4.161127e+01  -2.614020e+01
   6.069538e+01   3.305611e+01
  -4.259371e+01   8.708284e+01
  -1.683765e+02  -1.139593e+01
  -1.947588e+02  -1.180568e+02
  -5.275625e+01  -1.837444e+02
   1.315644e+02  -1.874141e+02
   2.232957e+02  -9.448567e+01
   1.292103e+02   5.369628e+01
  -8.634166e+00   8.268257e+01
  -6.890701e+01   1.943994e+01
  -1.550307e+01  -5.084476e+01
   1.238969e+02  -5.490981e+01
   1.497798e+02   8.070834e+01
   5.584630e+01   1.553379e+02
  -7.660840e+01   1.256910e+02
  -1.281768e+02   3.980010e+01
  -4.716823e+01  -5.289711e+01
   5.399341e+01  -1.149022e+01
   5.197968e+01   4.031291e+01
  -5.704312e+01   1.247326e+02
  -1.269345e+02   1.901436e+01
  -1.436250e+02  -7.452411e+01
   1.574149e+00  -1.558486e+02
   8.830985e+01  -1.483255e+02
   1.595685e+02  -1.513968e+01
   6.263821e+01   1.227389e+02
  -5.323923e+01   8.604987e+01
  -7.115305e+01   2.546579e+01
  -1.882582e+01  -2.700175e+00
   1.495350e+01  -3.974125e+01
   2.505803e+00  -5.990131e+00
  -2.392564e+01  -1.255725e+01
  -6.595157e+01  -3.013923e+01
   1.943743e+00  -1.078201e+02
   1.099896e+02  -1.011477e+02
   1.947314e+02  -1.059471e+01
   1.294882e+02   9.933617e+01
   3.388486e+01   1.596466e+02
  -8.894029e+01   1.297787e+02
  -1.041233e+02   2.226461e+01
  -3.572595e+01  -4.277478e+00
  -1.689063e+01  -4.935396e+01
  -1.551701e+01   2.888998e+01
  -4.766638e+01   1.276468e+01
  -1.743401e+01  -2.367962e+01
   4.963102e+01  -5.016388e+01
   7.170546e+01  -4.646917e+01
   5.509886e+01   2.427340e+01
  -1.848073e+01   9.255406e+01
  -7.447374e+01   7.966952e+01
  -1.473910e+02  -2.170745e+01
  -9.763700e+01  -1.485502e+02
   4.945640e+01  -2.022741e+02
   1.526671e+02  -8.053936e+01
   1.665235e+02   1.744703e+01
   1.135345e+02   8.191467e+01
  -3.436983e+01   1.322499e+02
  -7.921461e+01   6.783183e+01
  -5.939222e+01   4.248078e+01
  -1.223167e+01   2.707462e+01
  -5.332781e+01   5.621856e+01
  -9.247819e+01  -5.295199e+00
  -9.815580e+01  -8.537734e+01
  -4.811988e+01  -1.640404e+02
   8.282448e+01  -1.323402e+02
   1.138879e+02  -3.529706e+01
   1.032992e+02   9.780239e+01
  -2.933582e+00   1.240150e+02
  -4.318271e+01   9.397059e+01
  -6.723831e+01  -3.047093e+01
  -7.008529e+00  -7.315335e+01
   1.748941e+01  -5.112678e+01
  -3.784249e+01  -2.972058e+01
  -3.394608e+01  -9.775396e+00
  -4.128862e+01  -3.876168e+01
   1.404208e+01  -2.812144e+01
   1.120530e+02  -2.839722e+01
   1.348106e+02   8.865619e+00
   9.746389e+00   7.260501e+01
  -7.130513e+01   6.320660e+01
  -1.367263e+02   5.053595e+00
  -3.757477e+01  -5.137599e+01
   1.314251e+01  -3.298720e+01
   6.633723e+01  -1.019218e+01
   1.414419e+01   3.867141e+01
  -9.981753e+00   5.399638e+01
  -5.489799e+01  -2.086983e+01
  -2.713235e+01  -4.470026e+01
  -1.828382e+01  -4.539999e+01
  -7.292720e+01   2.435399e+01
  -7.422370e+00   9.417565e-01
  -3.060036e+01  -3.944140e+01
   8.091151e+00  -1.023177e+02
   8.744284e+01  -1.127246e+02
   1.082644e+02  -1.280742e+01
   1.036455e+02   2.780333e+01
   8.124674e+00   8.768488e+01
  -5.759553e+01   4.571526e+01
  -3.682273e+01  -2.587887e+01
   4.861728e+01  -1.807614e+01
   1.467736e+02   1.005644e+01
   5.751019e+01   8.960871e+01
  -5.566491e+01   7.928279e+01
  -1.246036e+02   5.403086e+01
  -1.231459e+02  -5.084130e+01
   3.642570e+01  -8.566213e+01
   5.536848e+01  -4.308054e+01
   6.264388e+01  -5.147040e+00
  -1.964544e+01   5.586928e+01
  -6.915510e+01  -2.951147e+01
  -2.563655e+01  -5.896804e+01
   7.759934e+01  -1.091197e+02
   9.631588e+01  -3.201844e+01
   8.638818e+01   8.926079e+01
   1.933926e+01   1.425557e+02
  -6.334451e+01   1.094265e+02
  -8.112862e+01  -1.458512e+01
  -2.800348e+01  -8.224952e+01
  -3.800603e+00  -2.938533e+01
  -1.278257e+00   1.203233e+01
   1.001131e+01   4.646258e+01
   6.655626e+00  -3.935790e+00
  -2.629211e+00  -3.768963e+01
   4.969798e+01   8.799013e-01
   4.244018e+01   7.908853e+01
   6.391090e+01   8.159132e+01
  -4.498457e+01   5.678270e+01
  -1.010563e+02  -4.286594e+00
  -8.401857e+01  -8.211585e+01
  -1.494668e+01  -6.396802e+01
   8.990243e+01  -8.021042e+00
   5.286865e+01  -1.962625e+01
   1.782756e+01   3.427331e+01
  -5.326247e+00   8.741152e+00
   7.978588e+00   1.501768e+01
   1.163618e+01  -1.245161e+01
  -2.653981e+01   1.742000e+01
  -5.102402e+01   6.256511e-02
  -8.613361e+01   7.263062e+00
   6.420533e+00  -5.204855e+01
   7.965057e+01  -6.190108e+01
   1.259134e+02  -4.417062e+01
   1.243583e+02   5.638278e+01
   2.187156e+01   1.135716e+02
  -7.192979e+01   1.005610e+02
  -1.064918e+02   6.436767e+01
  -5.883342e+01  -2.198431e+01
   7.761449e+00  -3.726821e+01
  -3.514721e+00  -1.291863e+01
  -1.452928e+01  -9.795729e+00
  -1.832850e+01  -5.527536e+01
  -6.592068e+00  -9.124858e+01
   3.429664e+01  -6.740232e+01
   5.064226e+01  -8.966204e+00
   7.901781e+01   1.036575e+02
   1.420662e+01   7.983012e+01
  -5.850497e+01   8.752404e+00
  -6.681034e+01  -7.593773e+01
  -5.144342e+01  -4.457994e+01
   5.272343e+01  -3.818880e+01
   7.533260e+01   3.778998e-01
   5.880509e+01   4.572449e+01
  -3.215754e+01   6.550940e+01
  -2.299853e+01   2.076750e+01
   4.666626e+00   9.974141e+00
   4.387761e+01   8.988385e+00
   4.393059e+01   2.194340e+01
  -5.358512e+01   6.026502e+01
  -1.187128e+02   2.496054e+01
  -5.273482e+01  -7.966927e+00
  -1.159292e+01  -3.661016e+01
   5.553381e+01  -5.790257e+01
   3.241013e+01   3.588879e+00
   1.310372e+01   2.536081e+01
  -3.509130e+00   3.335979e+01
  -1.485663e+01  -1.080847e+01
  -6.317747e+00  -3.106341e+01
   2.635619e+01  -2.719024e+01
   4.848615e+01  -4.879311e+01
   4.223119e+00   1.713216e+01
   1.080941e+01   1.633944e+01
  -1.673937e+01  -3.391532e+01
  -8.157586e+00  -2.819361e+01
  -1.603532e+01   1.888403e+01
   2.096058e+00   3.734506e+01
  -1.562997e+01   4.880461e+00
  -3.504067e+01  -5.206669e+01
  -2.335679e+01  -6.119677e+01
   4.566080e+01  -1.993970e+01
   5.789672e+01   3.174127e+01
   9.953018e-01   4.457579e+01
  -6.270396e+01   4.423994e+01
  -5.380250e+01   6.776804e+00
  -5.858613e+01  -2.725779e+01
  -1.333378e+01  -5.567118e+01
   6.171053e+01  -7.500244e+00
   1.671029e+01  -7.323088e+00
  -1.216135e+01  -3.859625e+01
  -6.202441e+00   2.356561e+01
   3.516078e+01  -3.804781e+01
   4.410085e+01  -2.813473e+01
