
 $NMID
 id='ANONYMOUS ', fmtdat='(2E16.6)'
 volume=1.0
 tramp=1.0
 $END
  -3.173310e+03   1.668587e+02
  -2.087351e+03  -1.663853e+03
   6.599376e+00  -1.883124e+03
   9.584300e+02  -1.092494e+03
   7.337081e+02  -1.149621e+02
  -1.402692e+02   1.820205e+02
  -4.725711e+02  -1.343438e+02
  -1.390151e+02  -5.994688e+02
   4.557982e+02  -6.016725e+02
   6.918541e+02  -1.133601e+02
   4.525991e+02   4.825644e+02
   1.680079e+01   6.311404e+02
  -3.371290e+02   2.022075e+02
  -2.522631e+02  -3.771945e+02
   1.278405e+02  -5.515803e+02
   4.121886e+02  -9.088617e+01
   2.861167e+02   4.792360e+02
  -1.214886e+02   6.444527e+02
  -4.656864e+02   2.771134e+02
  -4.045165e+02  -1.953114e+02
  -1.591106e+02  -3.565997e+02
   1.090968e+02  -2.525997e+02
   8.455163e+01  -7.463322e+01
  -2.083071e+02  -5.976430e+01
  -3.222275e+02  -2.390486e+02
  -4.736515e+01  -3.354850e+02
   4.549630e+02  -2.503937e+02
   6.358664e+02   1.143035e+02
   1.949469e+02   2.937078e+02
  -3.272322e+02   2.461314e+02
  -5.007689e+02  -5.369001e+01
  -2.003134e+02  -3.342743e+02
   1.992260e+02  -3.880781e+02
   4.265835e+02  -1.396005e+02
   2.968770e+02   1.472309e+02
   6.085326e+01   3.150469e+02
  -9.271004e+01   1.355996e+02
  -2.671437e+00  -1.277540e+02
   1.754766e+02  -1.725938e+02
   2.379679e+02   1.425426e+02
   7.661117e+01   5.027868e+02
  -2.677156e+02   4.822809e+02
  -3.466644e+02  -6.677686e+00
  -1.202027e+02  -3.662632e+02
   1.558165e+02  -1.473308e+02
   2.178101e+02   2.186212e+02
  -6.316252e+01   3.335046e+02
  -4.347582e+02   1.096249e+02
  -4.503521e+02  -3.315553e+02
  -1.701661e+02  -4.825884e+02
   2.465067e+02  -2.818036e+02
   5.293134e+02   6.793317e+01
   3.139963e+02   2.752342e+02
  -7.285593e+01   2.248660e+02
  -2.765938e+02   9.443193e+01
  -2.161845e+02   4.761721e+00
  -4.152911e+00   1.409310e+01
   5.079046e+01   5.305236e+01
  -1.048339e+02   4.347897e+01
  -2.301770e+02  -6.819728e+01
  -1.061385e+02  -1.952057e+02
   1.348443e+02  -2.074939e+02
   2.834911e+02  -1.239955e+02
   2.438578e+02   5.330495e+01
  -1.146356e+01   2.429339e+02
  -2.251716e+02   3.221523e+02
  -3.245806e+02   1.382925e+02
  -2.060326e+02  -1.400621e+02
  -6.811753e+01  -3.488462e+02
   3.302674e+01  -2.835190e+02
   5.651045e+01  -1.634120e+02
   2.201348e+01  -8.723195e+01
   1.126804e+02  -9.115355e+01
   2.490099e+02  -6.801640e+01
   2.420493e+02   1.357288e+02
   9.740730e+01   2.605486e+02
  -5.400845e+01   1.762653e+02
  -1.980501e+02  -3.871779e+01
  -1.200852e+02  -2.096981e+02
   2.837319e+01  -2.301441e+02
   2.602149e+02  -6.822682e+01
   2.517360e+02   1.260228e+02
   1.441485e+02   2.366585e+02
  -5.756711e+01   2.484793e+02
  -1.556334e+02   1.269731e+02
  -1.440104e+02   6.374657e+01
  -1.245093e+02   1.096064e+02
  -2.783986e+02   3.855258e+01
  -4.666425e+02  -1.004077e+02
  -3.349255e+02  -2.977030e+02
   3.580285e+01  -4.275754e+02
   3.314419e+02  -3.615874e+02
   4.416049e+02  -1.556424e+02
   2.501772e+02   8.489547e+01
   1.305493e+01   2.401710e+02
  -1.290236e+02   1.414001e+02
  -7.556684e+00   1.943740e+01
   1.416538e+02  -3.415014e+01
   1.115545e+02   4.557269e+01
   3.739824e+01   1.075976e+02
  -1.075732e+02   5.841771e+01
  -9.468005e+01  -4.101954e+01
   3.768696e+01  -1.234819e+02
   1.365735e+02   1.468876e+01
   1.085310e+02   2.074974e+02
  -1.759142e+01   3.102205e+02
  -1.946102e+02   2.404480e+02
  -3.672911e+02  -2.911904e+01
  -2.559150e+02  -2.310992e+02
  -4.737016e+01  -2.693096e+02
   7.130980e+01  -1.502021e+02
   1.252033e+02  -2.510004e+01
   3.655442e+01   1.295210e+01
  -2.902403e+01  -7.537742e+01
   2.907635e+00  -1.079741e+02
   8.644469e+01  -6.996728e+01
   1.242203e+02   4.129490e+01
   1.697199e+01   7.683739e+01
  -7.610368e+01  -2.940933e+00
  -4.508900e+01  -8.917887e+01
   1.449516e+02  -9.948359e+01
   3.200372e+02  -1.306045e+00
   2.553985e+02   1.513237e+02
   4.867432e+01   2.677852e+02
  -1.689169e+02   2.188077e+02
  -2.541523e+02   8.438008e+01
  -1.002634e+02  -3.174873e+01
   4.074050e+01  -4.779982e+01
   5.696604e+01   4.431735e+01
  -5.988604e+01   7.448065e+01
  -1.512733e+02   3.423058e+01
  -1.801254e+02  -7.359536e+01
  -6.267543e+01  -1.575408e+02
   8.403765e+01  -1.272589e+02
   1.026770e+02  -7.771513e+00
   1.942239e+01   3.480172e+01
  -5.192037e+01  -2.532546e+01
  -4.466074e+01  -8.300989e+01
   8.413028e+01  -1.333255e+02
   2.046192e+02  -7.145567e+00
   1.450433e+02   1.026618e+02
   3.258308e+01   1.687684e+02
  -1.263661e+02   1.540819e+02
  -1.568525e+02   5.386207e+00
  -3.356318e+01  -1.021577e+02
   6.808765e+01  -7.581371e+01
   4.495063e+01  -3.612981e+01
  -1.113266e+01   2.649636e+01
  -1.196684e+01   1.237799e+01
  -2.885054e+00  -2.270496e+01
   8.932340e+01   1.336199e+01
   1.019421e+02   8.280420e+01
   1.928118e+01   1.405428e+02
  -1.120346e+02   1.335511e+02
  -2.059873e+02   9.101952e+00
  -1.643880e+02  -1.328173e+02
  -3.580423e+01  -2.413212e+02
   6.579399e+01  -1.988232e+02
   1.206734e+02  -5.284690e+01
   7.575620e+01   3.433334e+01
   5.095403e+01   4.036230e+01
   6.278234e+01  -2.504160e+01
   8.577011e+01   4.836007e+00
   4.971058e+01   4.430855e+01
  -3.771236e+01   1.136659e+02
  -1.283011e+02   9.946594e+01
  -1.492689e+02  -4.074889e+01
   2.835016e+01  -1.506642e+02
   1.186282e+02  -1.146842e+02
   1.947080e+02   2.596037e+01
   9.221306e+01   1.726866e+02
  -1.307576e+02   2.145511e+02
  -2.372369e+02   8.646204e+01
  -2.339594e+02  -7.296948e+01
  -1.116346e+02  -1.405517e+02
   3.713030e+01  -9.563374e+01
   5.890508e+01  -7.180671e+01
   5.613498e+01  -5.525661e+01
   7.082438e+01  -1.301840e+02
   8.064722e+01  -9.272262e+01
   1.173130e+02   6.254802e+00
   1.007727e+02   1.518725e+02
   6.478593e+01   1.998416e+02
  -9.344525e+01   1.485760e+02
  -1.753581e+02   5.510017e+01
  -1.306631e+02  -1.362168e+02
  -4.644020e+00  -1.367990e+02
   6.875130e+01  -4.292040e+01
   7.555410e+01   1.275448e+01
  -2.785690e+01   2.615828e+01
  -3.911048e+01   1.873524e+01
   2.367956e+01   2.594632e+01
   7.181437e+01   1.642997e+01
   4.908718e+01   5.560407e+01
  -7.126523e+01   5.171408e+01
  -1.657778e+02   1.596238e+01
  -1.032833e+02  -7.224700e+01
  -2.122657e+01  -1.063412e+02
   1.247463e+02  -7.535683e+01
   1.505591e+02   6.382045e+00
   6.528464e+01   5.666420e+01
  -6.126501e+01   4.742473e+01
  -1.194566e+02  -2.464083e+01
  -2.627632e+01  -6.333741e+01
   7.083696e+01  -6.519663e+01
   8.042897e+01  -3.392223e+00
   6.290971e+01   6.378798e+01
   4.866868e+01   4.736630e+01
   5.761329e+01   1.433760e+01
   5.814284e+01  -2.428553e+01
   6.911680e+01   5.920514e+01
  -1.447997e+01   1.668490e+02
  -1.199773e+02   1.750894e+02
  -2.107373e+02   1.933093e+01
  -1.391897e+02  -6.900246e+01
   6.245286e+00  -1.177474e+02
   4.411088e+01  -4.622731e+01
   6.592537e+01  -2.031494e+01
  -3.904052e+01   2.785096e+01
  -9.659946e+01  -6.792601e+00
  -6.373523e+01  -9.154362e+01
   7.082802e+01  -9.857079e+01
   1.954015e+02  -6.963089e+01
   1.250491e+02   4.507902e+01
   2.991348e+01   5.306310e+01
  -4.175702e+01   4.113774e+01
  -4.757545e+01  -8.116514e+00
   5.837818e+01  -5.846179e+01
   6.987443e+01   1.073510e+01
   3.516290e+01   1.228667e+02
  -3.197366e+01   1.546119e+02
  -1.244679e+02   1.124518e+02
  -1.127648e+02  -7.268437e+01
  -2.820951e+01  -1.550158e+02
   6.744326e+01  -8.787593e+01
   9.025441e+01   3.858155e-01
   2.965585e+01   9.958163e+01
  -2.296488e+01   9.881006e+01
  -1.964388e+01  -6.473649e+00
  -4.864749e+01  -1.447800e+01
   1.122605e+01   4.128832e+00
  -3.699975e+00   1.462453e+01
  -1.875663e+01  -3.090443e+01
  -3.574002e+01  -8.235624e+01
  -1.856874e+01  -1.179012e+02
   8.257027e+01  -5.211272e+01
   1.337734e+02   3.072742e+01
   1.257652e+02   8.146519e+01
   1.174361e+01   5.074922e+01
  -6.205494e+01   4.628918e+01
  -6.439944e+01   9.424097e+00
  -3.720516e+01   6.676277e+00
   3.033058e+01  -1.825217e+01
   5.557598e+01   1.672367e+01
  -4.733011e+01  -2.582017e+01
   1.475849e+01  -7.634632e+00
   7.916025e+01  -9.736288e+00
   9.147320e+01   3.113858e+01
  -1.451343e+00   8.177479e+01
  -1.414133e+02   1.070847e+02
  -1.945034e+02   6.503107e+01
  -1.406572e+02  -4.251783e+01
  -2.396982e+01  -1.672137e+02
   7.110750e+01  -1.299326e+02
   1.091079e+02  -6.636877e+01
   6.798697e+01   2.621203e+01
   3.892822e+01   4.009623e+01
   1.719734e+01   2.740803e+01
   3.552903e+01   8.458373e-01
   1.261916e+01   2.277561e+01
   2.900095e+00   9.743805e+01
  -3.811941e+01   6.455412e+01
  -6.189250e+01  -2.034265e+01
  -6.722478e+01  -6.779379e+01
  -2.552980e+01  -1.188496e+02
   6.352139e+01  -3.758776e+01
   8.624530e+01   4.551039e+01
   6.230362e+01   9.578623e+01
  -3.866883e+01   6.216741e+01
  -1.008315e+02  -8.936973e+00
  -2.849370e+01  -4.041213e+01
   3.645197e+01  -4.641051e+01
   1.617295e+01  -3.046875e+01
  -3.299130e+01   8.582423e+00
  -5.574814e+01  -3.650192e+01
  -2.687648e+01  -3.446152e+01
   7.788295e+01  -7.614936e+01
   1.290526e+02  -6.179995e+01
   8.827313e+01   1.791733e+01
  -2.155212e+00   1.029566e+02
  -3.266741e+01   1.059409e+02
  -1.372744e+01   1.358916e+01
  -1.161835e+01  -2.338353e+01
   1.463901e+01  -4.014764e+01
   5.085237e+01  -1.113061e+00
   3.797929e+01   5.843353e+01
  -2.508926e+01   2.487424e+01
  -1.145459e+01  -1.651661e+01
  -2.733299e+01  -7.053009e+01
  -1.353184e+01  -8.825298e+00
   1.384799e+01   8.454165e+00
   9.638756e+00   2.159344e+01
   1.195162e+01  -3.980450e+00
  -1.998898e+01  -4.364909e+01
   1.620842e+01  -3.292678e+01
   2.762612e+01   2.890594e+01
   2.750270e+01   2.281782e+01
  -2.686516e+01   3.711660e+01
  -5.797882e+01  -9.175464e+00
   5.469670e+00  -5.715678e+01
   5.433558e+01  -3.792398e+01
   9.099778e+01  -2.203729e+00
   5.729854e+01   1.880165e+01
  -2.215113e+01   8.485590e+01
  -6.137313e+01   3.171013e+01
  -6.349807e+01   1.097668e+01
   6.551036e+00  -1.453044e+00
   4.356001e+01   5.398698e+00
  -4.168438e+01  -7.903328e+00
  -6.613681e+01   1.133544e+01
