
 $NMID
 id='ANONYMOUS ', fmtdat='(2E16.6)'
 volume=1.0
 tramp=1.0
 $END
  -2.270336e+03   1.351032e+02
  -1.521876e+03  -8.080079e+02
  -2.805394e+02  -1.350443e+03
   6.998750e+02  -8.069916e+02
   6.007501e+02  -2.871054e+02
   1.644715e+02   1.020235e+02
  -2.179984e+02  -1.116998e+01
  -1.090696e+02  -3.351853e+02
   2.691595e+02  -3.872366e+02
   4.484949e+02  -1.089817e+02
   3.301775e+02   3.417973e+02
   5.095777e+01   4.131033e+02
  -1.457963e+02   1.667229e+02
  -1.951800e+02  -2.291989e+02
   2.936505e+01  -4.509051e+02
   2.784854e+02  -1.069569e+02
   2.567941e+02   3.619947e+02
  -3.082913e+01   4.817649e+02
  -3.399966e+02   2.160791e+02
  -3.249333e+02  -1.192920e+02
  -1.145319e+02  -2.285228e+02
   5.211950e+01  -1.869077e+02
   1.187175e+01  -4.624742e+01
  -1.472947e+02  -1.062190e+02
  -1.857265e+02  -2.746380e+02
   4.929068e+01  -2.892965e+02
   3.591345e+02  -9.078136e+01
   3.880074e+02   1.162595e+02
   1.274584e+02   2.117262e+02
  -2.929282e+02   1.045808e+02
  -3.542491e+02  -1.204842e+02
  -1.243935e+02  -2.673518e+02
   1.997974e+02  -2.348983e+02
   3.436394e+02  -9.381407e+01
   2.478699e+02   6.764515e+01
   1.119576e+02   2.156664e+02
   1.940749e+01   1.668733e+02
   5.641206e+01  -5.302930e+01
   1.341790e+02  -8.007307e+01
   4.998472e+01   4.942294e+01
  -6.013331e+01   3.137059e+02
  -1.666981e+02   3.011856e+02
  -1.736706e+02  -1.488900e+01
  -7.927698e+01  -2.144999e+02
   1.093774e+02  -7.605702e+01
   5.235438e+01   1.969502e+02
  -7.024423e+01   2.658573e+02
  -3.337804e+02   7.020502e+01
  -3.399958e+02  -2.795639e+02
  -1.416864e+02  -3.685230e+02
   2.029038e+02  -1.933126e+02
   3.990386e+02  -2.933186e+01
   2.583401e+02   1.454787e+02
   1.210581e+00   2.010395e+02
  -1.846739e+02   1.117324e+02
  -1.985961e+02   3.982758e+01
  -1.956128e+01  -4.612175e+00
   2.411948e+01   3.187598e+01
  -1.058191e+02   2.281571e+01
  -1.919923e+02  -9.367691e+00
  -1.068582e+02  -1.584376e+02
   9.551029e+01  -1.865003e+02
   2.739479e+02  -1.162640e+02
   1.975601e+02   7.713790e+01
  -3.091946e+01   2.831017e+02
  -2.958074e+02   3.041380e+02
  -3.244224e+02   1.261494e+02
  -1.838351e+02  -1.500453e+02
  -6.743012e+01  -2.540386e+02
   1.050360e+01  -2.217504e+02
   4.630549e+00  -1.734229e+02
   3.889553e+01  -1.124765e+02
   1.707968e+02  -1.341418e+02
   2.235357e+02  -5.346144e+01
   1.930409e+02   9.447491e+01
   9.371815e+01   1.954336e+02
  -7.215875e+01   1.528487e+02
  -1.417454e+02  -1.834528e+00
  -1.222007e+02  -2.089486e+02
   7.530003e+01  -1.961504e+02
   1.955200e+02  -4.900898e+01
   2.328064e+02   1.582284e+02
   1.282067e+02   2.095709e+02
  -2.881698e+01   2.037814e+02
  -8.999759e+01   1.235156e+02
  -6.444854e+01   7.364056e+01
  -6.818922e+01   6.827483e+01
  -2.412363e+02   6.812945e+01
  -3.459866e+02   2.336454e+00
  -2.819856e+02  -2.528780e+02
   1.422104e+01  -3.241087e+02
   2.884304e+02  -3.079874e+02
   4.072846e+02  -1.479844e+02
   2.172532e+02   1.173397e+02
   2.094857e+01   2.091112e+02
  -1.091327e+02   1.536722e+02
  -2.489771e+01   2.030299e+01
   9.864141e+01  -1.928073e+01
   5.774184e+01   1.724418e+01
   1.697346e+01   1.217001e+02
  -1.058166e+02   6.726625e+01
  -7.923367e+01  -1.298073e+01
   2.345534e+01  -9.945242e+01
   1.401990e+02  -2.276662e+01
   1.401081e+02   1.868734e+02
  -1.698251e+01   2.651637e+02
  -1.628509e+02   1.763874e+02
  -2.788508e+02  -6.858151e+01
  -2.192981e+02  -2.354256e+02
  -4.583186e+01  -2.383653e+02
   1.051000e+02  -1.221329e+02
   1.103275e+02   2.384310e+01
  -1.744274e+01   2.178909e+01
  -3.975682e+01  -6.304678e+01
   1.280716e+01  -7.993877e+01
   9.245425e+01  -8.857057e+01
   1.005714e+02   1.335317e+01
   3.875379e+01   6.611417e+01
  -8.904497e+01  -1.036593e+01
  -3.533821e+01  -9.350287e+01
   1.148163e+02  -8.900210e+01
   2.567000e+02   2.106254e+01
   2.243075e+02   1.563161e+02
   2.345402e+01   2.255041e+02
  -1.597721e+02   1.852247e+02
  -1.817111e+02   3.812781e+01
  -8.145311e+01  -1.968808e+01
   5.254445e+01  -4.127637e+01
   4.403044e+01   2.163192e+01
  -4.259680e+01   7.172964e+01
  -1.446702e+02   1.639139e+01
  -1.646288e+02  -6.856952e+01
  -5.282608e+01  -1.111228e+02
   8.615712e+01  -9.483689e+01
   8.363804e+01  -2.641646e+01
   5.254802e+01  -1.690626e+01
  -3.993534e+01  -2.929425e+01
  -2.449640e+01  -1.273922e+02
   9.067658e+01  -1.067744e+02
   1.999289e+02  -1.261216e+01
   1.609729e+02   1.224214e+02
   3.206657e+01   1.886860e+02
  -1.256764e+02   1.370075e+02
  -1.357800e+02   2.283677e+01
  -4.516079e+01  -6.013855e+01
   5.939911e+01  -6.786577e+01
   8.926935e+01  -3.198808e+01
   1.194237e+01   5.385534e+01
  -2.046430e+01   2.005539e+01
  -1.613822e+01  -3.686889e+01
   9.166545e+01  -3.271336e+01
   1.195120e+02   5.809417e+01
   2.541302e+01   1.579410e+02
  -1.046224e+02   1.258736e+02
  -1.957680e+02   2.848433e+01
  -1.533867e+02  -1.378277e+02
  -3.287880e+01  -1.945513e+02
   8.018608e+01  -1.327963e+02
   1.083855e+02   4.476355e-01
   5.623167e+01   7.102172e+01
   6.567356e+00   2.896274e+01
   5.053003e+01  -3.853139e+01
   7.237714e+01  -9.494549e+00
   2.039930e+01   3.949288e+01
  -7.301464e+01   9.424624e+01
  -1.019794e+02   6.462280e+01
  -8.008670e+01  -5.941103e+01
   1.336981e+01  -1.307473e+02
   1.507141e+02  -6.258360e+01
   1.755530e+02   7.850370e+01
   8.282174e+01   1.726072e+02
  -7.910803e+01   1.762397e+02
  -2.096692e+02   6.974071e+01
  -2.001429e+02  -4.760073e+01
  -8.295230e+01  -1.657169e+02
   4.380566e+01  -1.206916e+02
   5.217187e+01  -2.942450e+01
   5.033972e+01  -5.653914e+01
   4.426794e+01  -9.383072e+01
   6.809013e+01  -7.086954e+01
   1.396048e+02  -9.342002e+00
   1.017590e+02   1.133235e+02
  -1.519578e+01   1.638304e+02
  -1.008668e+02   1.159723e+02
  -1.554575e+02   3.741439e+00
  -1.093978e+02  -1.159358e+02
  -1.946330e+01  -1.310924e+02
   6.983739e+01  -3.850333e+01
   6.069472e+01   2.034502e+01
   3.184626e-01   5.309343e+01
  -3.860670e+01   3.853168e+01
  -8.127792e+00   1.303607e+01
   8.720560e+01   8.449741e+00
   4.611265e+01  -1.235137e+00
  -5.092127e+01   4.908450e+01
  -1.666266e+02   3.125003e+01
  -1.500977e+02  -5.657541e+01
   1.465127e+01  -8.252525e+01
   1.427781e+02  -6.716037e+01
   1.150249e+02   7.047707e+00
   1.536830e+01   5.704681e+01
  -6.377441e+01   6.545531e+01
  -6.862001e+01  -1.014165e+01
  -2.077505e+01  -7.539371e+01
   4.175685e+01  -7.928084e+01
   4.037866e+01  -2.499920e+01
   5.870496e+01   3.743432e+01
   1.633272e+01   4.315898e+01
   3.499079e+01   9.963035e+00
   1.861146e+01  -2.014324e+01
   8.573697e+01   6.271422e+01
  -5.936301e+01   1.484038e+02
  -6.155018e+01   1.300123e+02
  -1.536882e+02   1.823863e+01
  -9.633263e+01  -9.947549e+01
  -3.594379e+00  -9.804556e+01
   9.746136e+01  -9.380151e+01
   6.677700e+01   2.837093e+00
  -5.449144e+01   3.904309e+01
  -8.149798e+01  -9.210862e+00
  -4.439701e+01  -9.394692e+01
   7.190387e+01  -6.950047e+01
   1.610104e+02  -4.350870e+01
   1.203902e+02   6.071412e-01
   4.257539e+01   6.218844e+01
  -7.178902e+01   6.015420e+01
  -1.017295e+01  -7.723254e+00
   2.551797e+01  -2.098507e+01
   4.870556e+01  -8.533005e+00
   7.773946e+01   8.172497e+01
  -4.447456e+01   1.348164e+02
  -1.370661e+02   5.573944e+01
  -1.271697e+02  -7.107110e+01
  -3.097925e+01  -1.721457e+02
   4.243321e+01  -1.528172e+02
   8.240338e+01   1.349440e+01
   6.568050e+01   1.172244e+02
   1.202325e+01   8.420883e+01
  -5.874433e+01   4.798616e+00
  -3.105523e+01  -5.743527e+00
  -2.508615e+00   9.461474e+00
   7.552558e+00   3.039085e+01
  -2.458156e+01  -4.386091e+00
  -6.126253e+01  -5.945119e+01
   8.130110e+00  -8.890958e+01
   6.219775e+01  -2.701285e+01
   6.513101e+01   1.501640e+01
   1.051351e+02   4.686169e+01
   3.053929e+01   3.469842e+01
  -8.908663e+01   1.854969e+01
  -1.001942e+02  -4.337696e-01
  -2.030307e+01  -4.836363e+01
   4.547819e+01  -1.389996e+01
   8.528466e+00  -2.542938e+00
  -3.941359e+01   1.986996e+01
  -2.032334e+00  -3.718406e-02
   6.079900e+01   4.408886e+00
   5.288918e+01   1.353996e+01
   1.683345e+01   4.035598e+01
  -7.759477e+01   1.234128e+02
  -1.220558e+02   6.591554e+01
  -1.209250e+02  -3.736632e+01
  -3.492148e+01  -1.490517e+02
   5.070553e+01  -1.573260e+02
   7.501309e+01  -6.941832e+01
   6.437719e+01   9.604799e+00
  -5.030245e-01   1.987288e+01
   2.412544e+01  -4.974496e+00
   7.933365e+00   8.899814e+00
   3.691165e+01   2.856307e+01
   1.234930e+01   8.023491e+01
  -3.028990e+01   7.823587e+01
  -5.725424e+01  -4.680748e+00
  -8.722233e+01  -6.657488e+01
   3.914079e+00  -7.918244e+01
   3.627981e+01  -1.723568e+01
   5.770746e+01   4.666186e+01
   1.983735e+01   7.508607e+01
  -6.782088e+01   7.749208e+01
  -1.106568e+02  -4.341462e+01
  -3.746596e+01  -5.336429e+01
   5.688151e+00  -5.471488e+01
   4.837322e+01  -7.319400e+00
  -8.219728e+00   1.187962e+01
  -1.726878e+01   4.038889e+01
  -7.590468e+00  -8.500316e+00
   5.408600e+01  -5.715664e+01
   1.202176e+02  -5.629241e+01
   3.897232e+01  -9.213173e+00
  -1.415944e+00   8.827953e+01
  -5.940597e+01   6.532618e+01
  -5.288073e+01   5.451961e+00
  -1.777887e+01  -4.058287e+01
   2.568817e+01  -7.195531e+01
   3.347232e+01  -3.439583e+00
   3.849117e+01   3.328515e+01
   1.612587e+01   2.909759e+01
  -1.620239e+01   9.674310e-01
  -1.647942e+01  -1.082425e+01
  -3.437890e+00  -2.269295e+01
  -7.385631e+00   2.411889e+01
  -8.130059e+00   1.861339e+01
  -4.214832e+00  -4.368071e+01
  -4.372807e+00  -7.340707e+01
   3.513656e+01  -4.289504e+01
   3.983263e+01   3.001507e+01
   3.678096e+01   3.371068e+01
  -4.007275e+01   2.083908e+01
  -6.281157e+01  -3.085775e+01
  -1.734931e+01  -8.245219e+01
   5.085224e+01  -1.473822e+01
   4.960904e+01   4.078863e+00
   7.970893e+01   3.427770e+01
  -2.726439e+01   5.032945e+00
  -2.429315e+01   4.636158e+01
   2.505080e+01   5.749696e+00
   2.920977e+01  -1.361669e+01
   4.634875e+01   1.172446e+01
  -6.416147e+00   1.106105e+01
  -6.697103e+01   3.648158e+01
