
 $NMID
 id='ANONYMOUS ', fmtdat='(2E16.6)'
 volume=1.0
 tramp=1.0
 $END
  -4.438441e+07  -1.607448e+06
  -2.575645e+07  -2.888821e+07
   7.191934e+06  -3.010776e+07
   2.251585e+07  -1.046996e+07
   1.285925e+07   6.473278e+06
  -3.080051e+06   7.338158e+06
  -7.804178e+06  -1.542073e+06
  -1.689681e+06  -7.955030e+06
   5.454479e+06  -7.017452e+06
   7.748080e+06  -1.071732e+06
   5.215123e+06   5.094038e+06
   3.009414e+05   6.674301e+06
  -3.153398e+06   2.021287e+06
  -1.732646e+06  -4.226009e+06
   3.302548e+06  -4.856456e+06
   6.160844e+06   1.419234e+06
   3.079120e+06   8.197224e+06
  -3.424221e+06   9.124874e+06
  -8.119851e+06   4.317231e+06
  -8.419313e+06  -1.874403e+06
  -5.077783e+06  -6.015632e+06
  -4.300268e+05  -6.895117e+06
   2.503039e+06  -4.869341e+06
   1.822947e+06  -2.164047e+06
  -4.925367e+05  -1.591841e+06
  -1.438269e+04  -3.027188e+06
   4.157443e+06  -3.113408e+06
   7.325940e+06  -8.491431e+04
   5.300421e+06   3.356635e+06
   1.680476e+05   3.859380e+06
  -2.764748e+06   1.875415e+06
  -1.813406e+06   9.550168e+04
   3.910859e+05  -4.483276e+05
   1.528698e+06  -1.917447e+05
   1.482903e+06   1.032487e+06
   4.385482e+05   2.867012e+06
  -1.433149e+06   2.941937e+06
  -2.543230e+06  -8.606066e+03
  -1.357571e+06  -2.816813e+06
   5.618515e+05  -1.627271e+06
   1.699529e+05   1.718846e+06
  -1.991288e+06   1.606685e+06
  -1.784871e+06  -2.637098e+06
   2.209532e+06  -4.805844e+06
   5.642946e+06  -6.257283e+05
   3.879650e+06   5.641921e+06
  -1.798048e+06   6.713185e+06
  -5.912039e+06   1.668282e+06
  -5.196430e+06  -3.766923e+06
  -1.098345e+06  -4.782904e+06
   2.855739e+06  -1.896485e+06
   3.977222e+06   1.509072e+06
   1.658392e+06   2.880750e+06
  -2.035782e+06   1.624858e+06
  -3.520996e+06  -9.306022e+05
  -1.408339e+06  -2.242938e+06
   1.406453e+06  -1.012743e+06
   1.276221e+06   9.013710e+05
  -1.179291e+06   6.578929e+05
  -1.947934e+06  -1.594393e+06
   6.675184e+05  -2.848997e+06
   3.831670e+06  -1.390459e+06
   4.184168e+06   1.322492e+06
   1.671984e+06   3.259657e+06
  -1.569972e+06   4.000787e+06
  -3.975869e+06   3.510881e+06
  -4.791797e+06   1.138855e+06
  -3.436886e+06  -2.538594e+06
  -5.106989e+05  -4.763394e+06
   1.696216e+06  -3.602023e+06
   1.522221e+06  -8.067455e+05
   1.341642e+05   3.488844e+05
  -1.014227e+05  -6.185162e+05
   1.137437e+06  -1.280357e+06
   2.042358e+06  -1.475564e+05
   1.419715e+06   1.435226e+06
  -4.172933e+04   1.529396e+06
  -1.098643e+06   4.737040e+04
  -1.102372e+06  -1.619731e+06
   1.300846e+05  -2.187330e+06
   2.135752e+06  -1.157947e+06
   3.365812e+06   1.033060e+06
   2.380441e+06   2.986284e+06
  -1.367393e+05   3.299409e+06
  -1.867598e+06   2.080599e+06
  -1.824173e+06   8.201663e+05
  -1.489459e+06   4.220121e+05
  -2.293784e+06   1.864671e+05
  -3.283507e+06  -8.267689e+05
  -2.503868e+06  -2.298812e+06
   1.298103e+05  -3.137782e+06
   2.624994e+06  -2.774455e+06
   3.229751e+06  -1.397975e+06
   1.968355e+06   4.065798e+05
   1.309841e+05   1.657916e+06
  -8.821087e+05   1.403215e+06
  -4.188366e+05  -3.643102e+04
   8.745252e+05  -9.325813e+05
   1.475176e+06  -2.134742e+05
   6.633286e+05   9.562292e+05
  -4.370237e+05   8.037778e+05
  -2.755742e+05  -3.447436e+05
   9.273321e+05  -4.518532e+05
   1.409560e+06   1.190647e+06
   2.480098e+05   2.817594e+06
  -1.559324e+06   2.531215e+06
  -2.570062e+06   5.704684e+05
  -2.412644e+06  -1.395217e+06
  -1.476791e+06  -2.251453e+06
  -1.475041e+05  -1.975953e+06
   1.008545e+06  -1.024713e+06
   1.189410e+06  -9.041747e+04
   3.706055e+05   6.220455e+04
  -2.286883e+05  -5.931514e+05
   3.948974e+05  -1.016817e+06
   1.506897e+06  -3.489100e+05
   1.520982e+06   8.069460e+05
   2.095289e+05   1.125086e+06
  -9.349618e+05   3.624596e+05
  -6.291600e+05  -4.125222e+05
   7.109560e+05  -3.191441e+05
   1.631223e+06   4.303382e+05
   1.190157e+06   1.162018e+06
  -3.517741e+05   1.459115e+06
  -1.857320e+06   1.089108e+06
  -2.119372e+06   3.568021e+04
  -8.618509e+05  -1.042281e+06
   7.820756e+05  -1.115608e+06
   1.218509e+06  -7.451346e+04
   1.125680e+05   8.391243e+05
  -1.197472e+06   4.815071e+05
  -1.265253e+06  -7.071346e+05
  -1.379767e+05  -1.290791e+06
   9.199116e+05  -6.642652e+05
   9.454056e+05   3.450599e+05
   1.231328e+05   6.304576e+05
  -6.269647e+05  -1.815852e+03
  -5.091386e+05  -8.447067e+05
   5.098613e+05  -1.052258e+06
   1.550713e+06  -3.072178e+05
   1.491140e+06   9.067810e+05
   1.761402e+05   1.603779e+06
  -1.198845e+06   1.172026e+06
  -1.333831e+06   5.208581e+04
  -3.232533e+05  -7.006149e+05
   5.569747e+05  -5.683384e+05
   4.702469e+05  -1.541010e+04
  -1.370859e+05   2.468679e+05
  -3.778841e+05   9.180002e+04
  -4.233366e+04  -7.092085e+04
   3.769411e+05   1.110198e+05
   3.562080e+05   5.777457e+05
  -2.452840e+05   9.061880e+05
  -1.113641e+06   5.983986e+05
  -1.560613e+06  -4.388542e+05
  -1.004253e+06  -1.562074e+06
   3.058641e+05  -1.819836e+06
   1.313582e+06  -9.567914e+05
   1.261775e+06   2.192497e+05
   5.585258e+05   7.254070e+05
   1.709864e+05   4.705479e+05
   3.602840e+05   1.532329e+05
   4.926599e+05   2.708904e+05
   3.851964e+04   6.028900e+05
  -7.295803e+05   6.322825e+05
  -1.119805e+06   1.434142e+05
  -7.297838e+05  -6.139578e+05
   3.010184e+05  -1.074686e+06
   1.374727e+06  -6.942781e+05
   1.669862e+06   5.072605e+05
   7.257727e+05   1.671610e+06
  -9.262017e+05   1.749556e+06
  -2.014962e+06   6.264728e+05
  -1.745501e+06  -6.678983e+05
  -6.123969e+05  -1.088879e+06
   2.445703e+05  -6.839998e+05
   3.161991e+05  -3.266731e+05
   6.180513e+04  -5.525735e+05
   1.228717e+05  -1.001141e+06
   5.808815e+05  -9.606545e+05
   1.009591e+06  -1.795732e+05
   9.581072e+05   8.905688e+05
   3.170373e+05   1.465839e+06
  -5.499668e+05   1.053107e+06
  -9.747793e+05  -8.174941e+04
  -5.406954e+05  -1.035408e+06
   3.949796e+05  -1.047290e+06
   9.381014e+05  -2.276710e+05
   5.937542e+05   6.099673e+05
  -1.710380e+05   8.397096e+05
  -4.850752e+05   5.719480e+05
  -1.067467e+05   3.035083e+05
   3.127096e+05   2.695875e+05
   2.650785e+04   2.895705e+05
  -8.963274e+05   9.452331e+04
  -1.564826e+06  -3.695231e+05
  -1.172887e+06  -8.896784e+05
   1.239402e+05  -1.110035e+06
   1.291304e+06  -7.916336e+05
   1.420058e+06  -9.512567e+04
   6.080676e+05   4.524557e+05
  -2.358039e+05   4.339524e+05
  -4.019661e+05  -1.153611e+04
  -1.481963e+04  -3.341036e+05
   3.392810e+05  -1.728024e+05
   3.494709e+05   2.841255e+05
   1.709576e+05   5.480547e+05
   6.563557e+04   3.595532e+05
   1.127512e+05  -4.859990e+04
   2.189626e+05  -1.814925e+05
   1.927813e+05   1.957688e+05
  -1.542911e+05   7.289242e+05
  -7.409481e+05   7.632490e+05
  -1.063149e+06   8.180622e+04
  -6.215612e+05  -7.301921e+05
   3.699288e+05  -8.622430e+05
   9.798276e+05  -2.142063e+05
   5.260309e+05   4.661562e+05
  -5.762811e+05   4.499613e+05
  -1.193182e+06  -1.787647e+05
  -6.848349e+05  -7.283832e+05
   4.528259e+05  -7.108684e+05
   1.168265e+06  -2.422068e+05
   9.080504e+05   2.397869e+05
   5.807629e+04   3.957664e+05
  -5.144769e+05   1.565385e+05
  -2.855974e+05  -2.497349e+05
   4.563923e+05  -3.729895e+05
   8.896257e+05   1.049004e+05
   4.669591e+05   9.143447e+05
  -5.058833e+05   1.261998e+06
  -1.152681e+06   6.077313e+05
  -9.103911e+05  -6.296219e+05
  -6.022340e+04  -1.360611e+06
   6.340085e+05  -9.254408e+05
   6.906291e+05   2.030348e+05
   2.434431e+05   9.334945e+05
  -2.471100e+05   7.141760e+05
  -4.402573e+05   2.436532e+04
  -3.131270e+05  -3.115616e+05
  -9.443595e+04  -1.115061e+05
  -5.137331e+04   6.510262e+04
  -2.287141e+05  -2.455732e+05
  -3.463580e+05  -7.624289e+05
  -5.998477e+04  -8.280783e+05
   5.922558e+05  -2.626241e+05
   1.087050e+06   4.313476e+05
   8.998490e+05   7.078121e+05
   1.008611e+05   5.446649e+05
  -6.459171e+05   2.700376e+05
  -7.484308e+05   7.556428e+04
  -2.918963e+05  -6.839343e+04
   1.127265e+05  -1.637679e+05
   6.706815e+04  -1.458141e+05
  -1.640054e+05  -7.565233e+04
  -4.256033e+04  -9.937718e+04
   4.797201e+05  -1.507015e+05
   7.947135e+05   5.036862e+04
   3.385768e+05   5.421395e+05
  -6.632546e+05   8.644323e+05
  -1.340928e+06   5.175866e+05
  -1.083246e+06  -3.701585e+05
  -1.525946e+05  -1.071646e+06
   6.533385e+05  -1.018229e+06
   8.181372e+05  -3.794127e+05
   4.784446e+05   1.907536e+05
   9.799382e+04   2.761883e+05
  -2.648804e+04   6.040241e+04
   7.619130e+04   1.024203e+04
   1.976901e+05   3.052032e+05
   1.367482e+05   6.271506e+05
  -1.599538e+05   5.124160e+05
  -5.011614e+05  -1.026681e+05
  -5.324998e+05  -7.307505e+05
  -7.701688e+04  -7.849504e+05
   5.577836e+05  -1.816838e+05
   7.583839e+05   5.620181e+05
   2.371320e+05   8.400059e+05
  -5.617326e+05   5.050012e+05
  -8.592718e+05  -9.426311e+04
  -3.977448e+05  -5.066658e+05
   2.451090e+05  -5.308866e+05
   3.289616e+05  -2.733894e+05
  -1.566686e+05  -1.140422e+04
  -4.860328e+05   4.614716e+03
  -1.085952e+05  -2.440872e+05
   6.570129e+05  -4.741609e+05
   1.007738e+06  -3.358077e+05
   6.031644e+05   1.865777e+05
  -1.068618e+05   6.664024e+05
  -4.802491e+05   6.413006e+05
  -3.558621e+05   1.302567e+05
  -3.371016e+04  -3.510668e+05
   1.920461e+05  -3.351722e+05
   2.548519e+05   1.004649e+05
   1.721027e+05   4.471332e+05
  -4.708983e+04   3.452406e+05
  -2.940017e+05  -3.847535e+04
  -3.612265e+05  -2.505162e+05
  -1.827810e+05  -1.003468e+05
   3.665551e+04   1.343789e+05
   6.831092e+04   8.024055e+04
  -2.910860e+04  -2.452096e+05
   2.569597e+03  -4.367301e+05
   2.260085e+05  -1.996409e+05
   3.631719e+05   2.683950e+05
   1.402382e+05   4.859153e+05
  -3.064956e+05   2.333422e+05
  -5.082970e+05  -2.179545e+05
  -1.816567e+05  -4.320698e+05
   4.078217e+05  -2.619078e+05
   6.812894e+05   7.824797e+04
   3.563096e+05   3.041492e+05
  -2.359876e+05   3.128381e+05
  -4.978243e+05   1.741676e+05
  -2.122852e+05   1.166018e+04
   2.307948e+05  -5.602640e+04
   2.895921e+05   3.481058e+04
  -1.165454e+05   1.912573e+05
  -5.325551e+05   1.708935e+05
