
 $NMID
 id='ANONYMOUS ', fmtdat='(2E16.6)'
 volume=1.0
 tramp=1.0
 $END
  -2.283684e+07  -1.409946e+06
  -1.456245e+07  -1.077913e+07
   3.736184e+05  -1.393516e+07
   9.776418e+06  -9.668601e+06
   8.308006e+06  -1.470639e+06
   7.240883e+05   4.026593e+06
  -4.637202e+06   2.449648e+06
  -3.803181e+06  -3.554883e+06
   8.417687e+05  -6.679767e+06
   4.334525e+06  -3.081104e+06
   3.813466e+06   3.205811e+06
   3.717227e+05   5.151509e+06
  -2.447938e+06   9.198433e+05
  -1.924414e+06  -4.443745e+06
   1.344726e+06  -5.092770e+06
   3.930543e+06  -5.208309e+05
   2.897408e+06   4.660100e+06
  -1.153989e+06   5.839544e+06
  -4.592948e+06   2.578977e+06
  -4.474343e+06  -1.712390e+06
  -1.537890e+06  -3.483908e+06
   7.541860e+05  -2.359600e+06
   7.374717e+04  -9.767869e+05
  -2.214316e+06  -1.683399e+06
  -2.561380e+06  -3.787436e+06
   7.465369e+05  -4.499981e+06
   5.335572e+06  -2.322875e+06
   6.855187e+06   1.239776e+06
   3.518825e+06   3.388202e+06
  -1.716912e+06   2.735329e+06
  -3.969283e+06   1.724287e+05
  -1.466005e+06  -2.145267e+06
   2.718251e+06  -2.284696e+06
   4.192696e+06   1.137222e+05
   1.948343e+06   3.145520e+06
  -1.106446e+06   3.899315e+06
  -1.911830e+06   1.458169e+06
  -4.806055e+05  -1.599028e+06
   8.883640e+05  -1.813430e+06
   6.075566e+05   9.767846e+05
  -8.216404e+05   3.253008e+06
  -1.909905e+06   2.101006e+06
  -1.685977e+06  -1.177608e+06
  -2.130650e+05  -2.719484e+06
   1.467335e+06  -7.888294e+05
   1.746675e+06   2.351686e+06
  -2.641231e+05   3.256706e+06
  -3.298680e+06   1.007661e+06
  -4.476981e+06  -2.240255e+06
  -2.162358e+06  -3.720614e+06
   1.903883e+06  -2.522544e+06
   4.094310e+06   1.656233e+04
   2.643420e+06   1.753919e+06
  -6.174937e+05   1.554966e+06
  -2.413576e+06   7.520932e+04
  -1.431577e+06  -1.037418e+06
   7.063576e+05  -7.563347e+05
   1.518233e+06   4.414640e+05
   2.907860e+05   1.221860e+06
  -1.352385e+06   7.766389e+05
  -1.315411e+06  -4.494781e+05
   6.025347e+05  -1.208199e+06
   2.305834e+06  -5.348591e+05
   1.576482e+06   1.353401e+06
  -1.400478e+06   3.001505e+06
  -4.070149e+06   2.770195e+06
  -4.203123e+06   3.719151e+05
  -2.145599e+06  -2.605710e+06
  -6.761537e+04  -4.060165e+06
   6.176528e+05  -3.404510e+06
   4.675717e+05  -1.977654e+06
   7.779300e+05  -1.288230e+06
   1.861380e+06  -1.228575e+06
   2.833647e+06  -4.956494e+05
   2.670399e+06   1.353739e+06
   1.147171e+06   2.922140e+06
  -9.642495e+05   2.438203e+06
  -2.297627e+06  -5.782029e+04
  -1.779282e+06  -2.474707e+06
   3.618364e+05  -2.719296e+06
   2.477910e+06  -7.324310e+05
   2.852961e+06   1.646621e+06
   1.367279e+06   2.628329e+06
  -4.323494e+05   2.040282e+06
  -1.084260e+06   1.055108e+06
  -7.921977e+05   7.186679e+05
  -9.679500e+05   9.471187e+05
  -2.287510e+06   8.303449e+05
  -3.592212e+06  -3.120781e+05
  -3.020484e+06  -2.176434e+06
  -2.008416e+05  -3.595379e+06
   2.965710e+06  -3.408521e+06
   3.981374e+06  -1.477957e+06
   2.232337e+06   9.705099e+05
  -3.958343e+05   2.190184e+06
  -1.477356e+06   1.438935e+06
  -4.416477e+05  -2.510964e+05
   1.154645e+06  -1.055115e+06
   1.537970e+06  -2.610280e+05
   5.117004e+05   9.764015e+05
  -6.623986e+05   1.013911e+06
  -7.485428e+05  -2.620187e+05
   3.347099e+05  -1.178330e+06
   1.573120e+06  -2.084158e+05
   1.706592e+06   2.106367e+06
   2.083282e+05   3.535082e+06
  -2.139243e+06   2.483550e+06
  -3.623340e+06  -3.207553e+05
  -2.989161e+06  -2.598631e+06
  -7.161352e+05  -2.792653e+06
   1.292677e+06  -1.384631e+06
   1.551419e+06  -7.264350e+04
   4.463851e+05   4.380621e+04
  -3.381903e+05  -6.600503e+05
   2.291296e+05  -1.042985e+06
   1.419124e+06  -4.923749e+05
   1.677415e+06   5.293236e+05
   4.820781e+05   1.054975e+06
  -9.705275e+05   6.011768e+05
  -1.022628e+06  -3.627409e+05
   5.818503e+05  -8.350743e+05
   2.259549e+06  -1.952760e+05
   2.150707e+06   1.178028e+06
   9.410044e+04   2.151693e+06
  -2.123285e+06   1.813480e+06
  -2.564847e+06   3.565675e+05
  -1.068100e+06  -1.002948e+06
   7.303349e+05  -1.133652e+06
   1.149490e+06  -1.108527e+05
   4.086722e+04   8.381187e+05
  -1.310425e+06   6.153837e+05
  -1.569490e+06  -5.698680e+05
  -5.455182e+05  -1.449010e+06
   7.732427e+05  -1.117119e+06
   1.194978e+06  -1.996972e+04
   4.383833e+05   5.973783e+05
  -5.736494e+05   9.415259e+04
  -6.032944e+05  -9.071893e+05
   5.791957e+05  -1.241811e+06
   1.833483e+06  -4.072236e+05
   1.792188e+06   9.878464e+05
   3.467649e+05   1.829112e+06
  -1.201667e+06   1.478852e+06
  -1.514245e+06   2.896371e+05
  -5.542517e+05  -7.253660e+05
   5.333674e+05  -7.911000e+05
   7.087700e+05  -6.596347e+04
   2.108699e+04   5.642006e+05
  -6.273934e+05   4.522735e+05
  -5.097022e+05  -1.075652e+05
   1.875101e+05  -2.665630e+05
   5.801398e+05   3.217176e+05
   1.744787e+04   1.018355e+06
  -1.168830e+06   8.707683e+05
  -1.882738e+06  -3.252083e+05
  -1.320785e+06  -1.738635e+06
   1.898496e+05  -2.255229e+06
   1.489070e+06  -1.477421e+06
   1.719392e+06  -4.315708e+04
   1.072213e+06   9.720461e+05
   3.983416e+05   1.008948e+06
   2.278889e+05   4.669773e+05
   3.047442e+05   1.961586e+05
   4.111737e+04   5.237392e+05
  -7.050277e+05   8.702094e+05
  -1.364214e+06   4.504559e+05
  -1.160211e+06  -6.924737e+05
   8.133211e+04  -1.550210e+06
   1.583257e+06  -1.151257e+06
   2.144724e+06   3.794337e+05
   1.176086e+06   1.861276e+06
  -7.056388e+05   2.140303e+06
  -2.154602e+06   1.095576e+06
  -2.243989e+06  -3.628819e+05
  -1.189194e+06  -1.193961e+06
   4.268017e+03  -1.121494e+06
   5.290036e+05  -7.194671e+05
   4.101462e+05  -6.724614e+05
   2.669873e+05  -9.908597e+05
   5.569239e+05  -1.017681e+06
   1.074890e+06  -2.376805e+05
   1.174409e+06   1.008981e+06
   4.846677e+05   1.746491e+06
  -5.977099e+05   1.317283e+06
  -1.196514e+06   4.588367e+04
  -8.024466e+05  -1.067815e+06
   1.895420e+05  -1.253698e+06
   8.631985e+05  -5.613825e+05
   7.077558e+05   3.360689e+05
   9.102163e+04   8.069718e+05
  -2.244684e+05   7.418441e+05
   3.448371e+04   4.825091e+05
   3.499465e+05   3.665895e+05
   2.404906e+04   3.758728e+05
  -9.566932e+05   2.251775e+05
  -1.756177e+06  -2.500352e+05
  -1.474853e+06  -8.537052e+05
  -1.245707e+05  -1.182432e+06
   1.262449e+06  -9.833682e+05
   1.600507e+06  -3.734275e+05
   8.147124e+05   2.315737e+05
  -1.557945e+05   4.161951e+05
  -4.062053e+05   1.178603e+05
   4.324362e+04  -2.584642e+05
   4.769511e+05  -2.000528e+05
   4.146173e+05   3.193537e+05
   7.297481e+04   7.147335e+05
  -6.222575e+04   4.558992e+05
   1.396744e+05  -1.975286e+05
   3.734035e+05  -4.093661e+05
   2.822754e+05   1.935762e+05
  -2.068967e+05   9.616040e+05
  -8.183293e+05   9.455966e+05
  -1.065813e+06   4.563505e+04
  -5.930599e+05  -8.532821e+05
   3.889892e+05  -8.948360e+05
   1.052644e+06  -1.488197e+05
   6.489054e+05   5.801262e+05
  -6.030328e+05   6.255860e+05
  -1.527606e+06   3.461982e+03
  -1.135885e+06  -7.439199e+05
   2.843827e+05  -1.037067e+06
   1.415389e+06  -6.676266e+05
   1.276899e+06   5.246798e+04
   2.078200e+05   5.091326e+05
  -5.774934e+05   3.239640e+05
  -3.011923e+05  -2.237524e+05
   6.180987e+05  -4.061575e+05
   1.080769e+06   1.977449e+05
   4.734958e+05   1.160272e+06
  -7.256876e+05   1.516687e+06
  -1.464388e+06   7.062063e+05
  -1.154377e+06  -7.725890e+05
  -1.548622e+05  -1.706424e+06
   6.989827e+05  -1.285369e+06
   8.885762e+05   7.162435e+04
   4.984157e+05   1.098702e+06
  -7.801673e+04   9.742718e+05
  -4.850057e+05   1.299994e+05
  -5.292884e+05  -3.745400e+05
  -2.580818e+05  -1.598501e+05
  -4.720180e+03   1.202946e+05
  -1.072822e+05  -2.103132e+05
  -4.133715e+05  -8.772932e+05
  -2.996877e+05  -1.029735e+06
   5.251626e+05  -3.841038e+05
   1.398766e+06   4.476769e+05
   1.312148e+06   7.872321e+05
   1.824626e+05   6.289633e+05
  -9.053073e+05   3.772190e+05
  -9.598446e+05   2.042925e+05
  -2.479019e+05   6.746034e+03
   1.788573e+05  -2.000165e+05
  -8.809620e+04  -2.483929e+05
  -3.778275e+05  -1.567845e+05
   4.461220e+03  -1.345588e+05
   7.604631e+05  -1.662136e+05
   9.609139e+05   6.687628e+04
   2.031944e+05   6.373042e+05
  -9.288162e+05   1.010155e+06
  -1.514037e+06   5.777200e+05
  -1.151805e+06  -5.053038e+05
  -1.806721e+05  -1.339029e+06
   7.078843e+05  -1.223655e+06
   9.881306e+05  -3.954038e+05
   6.266713e+05   2.985764e+05
   6.342997e+04   3.361125e+05
  -1.776313e+05  -9.598992e+03
   3.260552e+04  -9.729350e+04
   3.296683e+05   3.084420e+05
   2.646802e+05   7.550305e+05
  -2.066994e+05   6.032348e+05
  -6.589112e+05  -2.086564e+05
  -5.982724e+05  -9.850751e+05
   4.819464e+04  -9.543718e+05
   7.826995e+05  -1.021446e+05
   9.127314e+05   8.019592e+05
   2.222913e+05   1.018447e+06
  -7.013449e+05   5.283643e+05
  -9.826457e+05  -1.309037e+05
  -4.111509e+05  -5.047449e+05
   2.783612e+05  -5.181833e+05
   2.667142e+05  -3.051074e+05
  -3.363198e+05  -5.087285e+04
  -6.337286e+05   5.701092e+03
  -9.223912e+04  -2.709882e+05
   7.830222e+05  -6.277803e+05
   1.091312e+06  -5.500816e+05
   5.975446e+05   1.037823e+05
  -1.206314e+05   7.652753e+05
  -4.434918e+05   7.374770e+05
  -2.983580e+05   6.095202e+04
   1.512528e+04  -4.924225e+05
   2.549636e+05  -3.434719e+05
   3.336255e+05   2.381214e+05
   2.077396e+05   5.475888e+05
  -8.807490e+04   3.118740e+05
  -3.602520e+05  -9.239075e+04
  -4.003171e+05  -2.088350e+05
  -2.199750e+05  -3.724105e+04
  -2.186045e+04   6.905484e+04
   6.840084e+04  -1.093844e+05
   1.252398e+05  -3.945433e+05
   2.487044e+05  -4.151387e+05
   3.681802e+05  -2.683487e+04
   2.967640e+05   4.809895e+05
  -3.631642e+04   6.281571e+05
  -4.375528e+05   2.375145e+05
  -5.507610e+05  -3.423271e+05
  -1.744609e+05  -5.800235e+05
   4.543033e+05  -3.116445e+05
   7.653130e+05   1.381747e+05
   4.078221e+05   3.676673e+05
  -2.869565e+05   2.943292e+05
  -5.790099e+05   1.078480e+05
  -1.608169e+05  -7.695800e+03
   4.296508e+05   1.692319e+04
   4.221155e+05   1.732127e+05
  -2.457293e+05   3.322478e+05
  -8.369967e+05   2.341235e+05
