
 $NMID
 id='ANONYMOUS ', fmtdat='(2E16.6)'
 volume=1.0
 tramp=1.0
 $END
  -1.652321e+07   2.204407e+06
  -1.295204e+07  -6.047079e+06
  -2.033010e+06  -1.087685e+07
   6.687560e+06  -8.737571e+06
   6.882245e+06  -1.808003e+06
   1.016416e+06   3.333402e+06
  -3.744370e+06   2.254289e+06
  -3.347983e+06  -2.709338e+06
   3.890190e+05  -5.368613e+06
   3.273788e+06  -2.734690e+06
   3.057582e+06   2.031435e+06
   5.944934e+05   3.699959e+06
  -1.601701e+06   8.174591e+05
  -1.480852e+06  -3.156530e+06
   8.548550e+05  -3.925674e+06
   3.044515e+06  -7.449457e+05
   2.633937e+06   3.251983e+06
  -2.781616e+05   4.504966e+06
  -3.027356e+06   2.407373e+06
  -3.292001e+06  -6.321951e+05
  -1.515999e+06  -2.043030e+06
  -7.018644e+04  -1.588561e+06
  -4.307797e+05  -1.005362e+06
  -1.681048e+06  -1.627935e+06
  -1.677402e+06  -2.884718e+06
   5.809222e+05  -3.155193e+06
   3.665067e+06  -1.680854e+06
   4.798629e+06   6.344670e+05
   2.623730e+06   2.119132e+06
  -1.014247e+06   1.790883e+06
  -2.636785e+06   9.861094e+04
  -8.471606e+05  -1.449162e+06
   2.097098e+06  -1.433558e+06
   2.967089e+06   2.789453e+05
   1.234338e+06   2.250666e+06
  -8.012135e+05   2.642414e+06
  -1.152254e+06   1.048651e+06
  -2.076023e+05  -8.828958e+05
   4.590707e+05  -1.062310e+06
   1.532919e+05   6.806777e+05
  -6.768101e+05   2.234739e+06
  -1.370156e+06   1.570180e+06
  -1.417716e+06  -7.901942e+05
  -4.709419e+05  -2.241144e+06
   1.063703e+06  -1.104911e+06
   1.719431e+06   1.394616e+06
   3.099101e+05   2.538799e+06
  -2.268510e+06   1.130499e+06
  -3.460916e+06  -1.399767e+06
  -1.780707e+06  -2.738980e+06
   1.372373e+06  -1.975859e+06
   3.116311e+06  -8.565736e+04
   2.078050e+06   1.304685e+06
  -3.952251e+05   1.302785e+06
  -1.853493e+06   2.512962e+05
  -1.200515e+06  -7.105338e+05
   4.571329e+05  -6.471593e+05
   1.156167e+06   3.040050e+05
   1.714313e+05   1.041987e+06
  -1.233003e+06   6.590575e+05
  -1.236314e+06  -5.293251e+05
   3.868949e+05  -1.269629e+06
   1.867114e+06  -6.671603e+05
   1.397341e+06   9.213436e+05
  -8.012718e+05   2.217352e+06
  -2.753746e+06   2.094925e+06
  -2.916416e+06   4.590044e+05
  -1.610100e+06  -1.654966e+06
  -2.491687e+05  -2.861438e+06
   3.265036e+05  -2.590068e+06
   4.223703e+05  -1.554472e+06
   7.147216e+05  -8.645613e+05
   1.367247e+06  -6.986734e+05
   1.920458e+06  -2.366350e+05
   1.773942e+06   9.655867e+05
   7.300213e+05   2.027170e+06
  -7.279908e+05   1.664308e+06
  -1.634109e+06  -1.187263e+05
  -1.243166e+06  -1.803309e+06
   2.450225e+05  -1.932475e+06
   1.705666e+06  -5.566848e+05
   2.022833e+06   1.037525e+06
   1.101920e+06   1.727850e+06
  -1.012861e+05   1.445429e+06
  -6.285184e+05   8.847369e+05
  -5.394049e+05   6.615881e+05
  -7.320413e+05   7.676496e+05
  -1.694825e+06   6.595502e+05
  -2.647204e+06  -1.603708e+05
  -2.242444e+06  -1.538095e+06
  -1.906930e+05  -2.612483e+06
   2.105984e+06  -2.487777e+06
   2.822379e+06  -1.083989e+06
   1.561590e+06   6.626700e+05
  -2.835394e+05   1.518546e+06
  -1.021661e+06   1.003621e+06
  -2.984376e+05  -1.696498e+05
   8.123380e+05  -7.562500e+05
   1.101784e+06  -2.234173e+05
   3.930811e+05   6.680414e+05
  -4.708505e+05   7.189409e+05
  -5.529561e+05  -2.233824e+05
   2.952193e+05  -9.233993e+05
   1.289226e+06  -1.702182e+05
   1.364610e+06   1.639314e+06
   1.245671e+05   2.738467e+06
  -1.694080e+06   1.888244e+06
  -2.733566e+06  -2.750271e+05
  -2.172762e+06  -1.959111e+06
  -4.941206e+05  -2.048943e+06
   9.303345e+05  -9.954042e+05
   1.108044e+06  -5.314292e+04
   3.235512e+05   2.784306e+04
  -2.531346e+05  -4.769087e+05
   1.384510e+05  -7.746874e+05
   1.021838e+06  -4.036852e+05
   1.251438e+06   3.517404e+05
   3.834316e+05   7.761130e+05
  -7.077390e+05   4.540068e+05
  -7.488464e+05  -2.783011e+05
   4.557461e+05  -6.295181e+05
   1.688542e+06  -1.274199e+05
   1.571910e+06   8.987293e+05
   4.468517e+04   1.592389e+06
  -1.557729e+06   1.327748e+06
  -1.867359e+06   2.746521e+05
  -7.990639e+05  -7.141321e+05
   4.942309e+05  -8.404492e+05
   8.263553e+05  -1.203387e+05
   5.350894e+04   5.917785e+05
  -9.385353e+05   4.649833e+05
  -1.157928e+06  -4.010694e+05
  -4.125008e+05  -1.072448e+06
   5.776169e+05  -8.396964e+05
   8.997076e+05  -1.737094e+04
   3.345100e+05   4.539202e+05
  -4.206043e+05   8.990434e+04
  -4.509719e+05  -6.449243e+05
   4.027496e+05  -8.987669e+05
   1.315246e+06  -3.103159e+05
   1.303614e+06   6.936290e+05
   2.734295e+05   1.322434e+06
  -8.569235e+05   1.094136e+06
  -1.106215e+06   2.286279e+05
  -4.146891e+05  -5.322583e+05
   3.869079e+05  -5.849894e+05
   5.120236e+05  -3.890417e+04
  -7.163447e+03   4.221039e+05
  -4.795381e+05   3.114885e+05
  -3.629475e+05  -1.182840e+05
   1.726137e+05  -2.179587e+05
   4.552607e+05   2.419338e+05
   2.722236e+04   7.612868e+05
  -8.463705e+05   6.506603e+05
  -1.372908e+06  -2.186574e+05
  -9.752091e+05  -1.247377e+06
   1.244287e+05  -1.636305e+06
   1.088142e+06  -1.080002e+06
   1.262505e+06  -2.444389e+04
   7.660556e+05   7.275487e+05
   2.496556e+05   7.381114e+05
   1.398662e+05   3.118668e+05
   2.337928e+05   1.099790e+05
   5.380275e+04   3.752780e+05
  -5.096942e+05   6.467008e+05
  -1.002050e+06   3.319007e+05
  -8.415571e+05  -5.150474e+05
   7.171336e+04  -1.139474e+06
   1.157321e+06  -8.448567e+05
   1.563660e+06   2.683769e+05
   8.728486e+05   1.355397e+06
  -4.928819e+05   1.581075e+06
  -1.570597e+06   8.293058e+05
  -1.655465e+06  -2.570595e+05
  -8.729693e+05  -8.914594e+05
   2.410866e+04  -8.321853e+05
   4.053147e+05  -5.047321e+05
   2.883916e+05  -4.523632e+05
   1.617609e+05  -7.015587e+05
   3.776450e+05  -7.488501e+05
   7.713717e+05  -1.931454e+05
   8.566883e+05   7.161320e+05
   3.634656e+05   1.258687e+06
  -4.228494e+05   9.558028e+05
  -8.718763e+05   4.009002e+04
  -6.015110e+05  -7.746168e+05
   1.256717e+05  -9.289258e+05
   6.435424e+05  -4.352447e+05
   5.497399e+05   2.355551e+05
   9.129344e+04   6.078796e+05
  -1.611088e+05   5.692667e+05
   1.667184e+04   3.615442e+05
   2.498833e+05   2.572730e+05
   1.766100e+04   2.684985e+05
  -6.955645e+05   1.811604e+05
  -1.281069e+06  -1.527447e+05
  -1.086007e+06  -6.068725e+05
  -1.135549e+05  -8.744211e+05
   9.010197e+05  -7.444065e+05
   1.170591e+06  -2.910624e+05
   6.169120e+05   1.683844e+05
  -9.813242e+04   3.127058e+05
  -3.035754e+05   9.519604e+04
   1.449399e+04  -1.800549e+05
   3.394127e+05  -1.406353e+05
   3.022249e+05   2.250604e+05
   5.313932e+04   4.986585e+05
  -4.276665e+04   3.134086e+05
   1.122856e+05  -1.420348e+05
   2.829950e+05  -2.852517e+05
   2.080438e+05   1.415801e+05
  -1.487224e+05   6.889675e+05
  -5.819034e+05   6.920535e+05
  -7.592868e+05   6.282033e+04
  -4.352867e+05  -5.917343e+05
   2.575698e+05  -6.508688e+05
   7.431998e+05  -1.282423e+05
   4.682036e+05   4.121739e+05
  -4.358436e+05   4.623369e+05
  -1.116840e+06   5.446167e+03
  -8.330035e+05  -5.553058e+05
   2.140430e+05  -7.713552e+05
   1.046692e+06  -4.885165e+05
   9.389945e+05   4.593293e+04
   1.496162e+05   3.769543e+05
  -4.249842e+05   2.408513e+05
  -2.255551e+05  -1.539653e+05
   4.354772e+05  -2.896717e+05
   7.695688e+05   1.336827e+05
   3.434553e+05   8.192199e+05
  -5.073444e+05   1.082083e+06
  -1.041604e+06   5.109706e+05
  -8.325850e+05  -5.502718e+05
  -1.181111e+05  -1.230401e+06
   5.077915e+05  -9.334151e+05
   6.547481e+05   5.017069e+04
   3.683958e+05   8.041819e+05
  -5.984960e+04   7.207146e+05
  -3.568175e+05   1.013967e+05
  -3.822857e+05  -2.793051e+05
  -1.834655e+05  -1.267230e+05
  -6.696028e+03   9.184407e+04
  -8.756210e+04  -1.335382e+05
  -3.076838e+05  -6.254731e+05
  -2.195265e+05  -7.583927e+05
   3.806715e+05  -2.981735e+05
   1.013610e+06   3.186295e+05
   9.532487e+05   5.765553e+05
   1.385056e+05   4.556523e+05
  -6.509211e+05   2.651879e+05
  -6.976949e+05   1.482765e+05
  -1.868142e+05   1.687792e+04
   1.267807e+05  -1.406322e+05
  -5.755557e+04  -1.939117e+05
  -2.652468e+05  -1.269936e+05
   3.419166e+03  -9.097922e+04
   5.419743e+05  -1.073946e+05
   6.890106e+05   4.044455e+04
   1.530341e+05   4.351668e+05
  -6.543836e+05   7.192347e+05
  -1.076769e+06   4.368028e+05
  -8.246492e+05  -3.376523e+05
  -1.357564e+05  -9.583246e+05
   4.975638e+05  -8.911218e+05
   6.992727e+05  -2.915343e+05
   4.448968e+05   2.137850e+05
   4.804211e+04   2.351033e+05
  -1.189229e+05  -1.961956e+04
   3.358767e+04  -7.559190e+04
   2.445377e+05   2.277057e+05
   1.957496e+05   5.491657e+05
  -1.418720e+05   4.329298e+05
  -4.656678e+05  -1.494752e+05
  -4.268350e+05  -6.969706e+05
   2.725112e+04  -6.708271e+05
   5.486121e+05  -6.900755e+04
   6.487375e+05   5.672203e+05
   1.672539e+05   7.222475e+05
  -4.906558e+05   3.824070e+05
  -7.041681e+05  -8.061149e+04
  -3.095917e+05  -3.521657e+05
   1.834326e+05  -3.758710e+05
   1.867266e+05  -2.338522e+05
  -2.375270e+05  -4.822720e+04
  -4.542955e+05   4.495145e+03
  -7.074336e+04  -1.898252e+05
   5.620083e+05  -4.572712e+05
   7.928290e+05  -4.151229e+05
   4.416689e+05   5.710900e+04
  -7.656842e+04   5.506804e+05
  -3.089096e+05   5.459281e+05
  -2.043244e+05   5.929300e+04
   1.354636e+04  -3.475502e+05
   1.740083e+05  -2.462206e+05
   2.295442e+05   1.703514e+05
   1.525607e+05   3.910058e+05
  -5.024260e+04   2.215516e+05
  -2.545289e+05  -6.378890e+04
  -2.980653e+05  -1.432959e+05
  -1.663233e+05  -2.511456e+04
  -5.755858e+03   4.342212e+04
   6.856868e+04  -7.981656e+04
   9.595887e+04  -2.678384e+05
   1.633226e+05  -2.757502e+05
   2.424238e+05  -1.334534e+04
   2.015351e+05   3.281605e+05
  -2.458867e+04   4.303489e+05
  -3.073431e+05   1.672614e+05
  -3.900361e+05  -2.346878e+05
  -1.240804e+05  -4.099719e+05
   3.229616e+05  -2.308634e+05
   5.457559e+05   8.723931e+04
   2.953917e+05   2.582092e+05
  -1.952093e+05   2.133716e+05
  -4.043114e+05   8.439209e+04
  -1.134950e+05   5.238758e+03
   2.994909e+05   2.338950e+04
   2.909431e+05   1.276534e+05
  -1.832878e+05   2.295776e+05
  -6.005777e+05   1.553295e+05
