
 $NMID
 id='ANONYMOUS ', fmtdat='(2E16.6)'
 volume=1.0
 tramp=1.0
 $END
  -1.119442e+07   1.463305e+06
  -6.303777e+06  -8.397826e+06
   3.006453e+06  -8.409598e+06
   6.305040e+06  -9.137820e+05
   2.278076e+06   4.115985e+06
  -2.097171e+06   2.475824e+06
  -2.100451e+06  -1.314283e+06
   3.820505e+05  -2.357514e+06
   1.931199e+06  -9.144742e+05
   1.932988e+06   5.769449e+05
   1.187709e+06   1.310395e+06
  -7.384647e+03   1.453575e+06
  -1.040678e+06   8.179404e+05
  -8.008032e+05  -1.913605e+05
   4.886948e+05  -3.066487e+05
   1.083568e+06   7.319545e+05
   1.765973e+05   1.584054e+06
  -1.108864e+06   1.326561e+06
  -1.719632e+06   5.110164e+05
  -1.867578e+06  -3.309578e+05
  -1.633443e+06  -1.444189e+06
  -3.625553e+05  -2.399670e+06
   1.562931e+06  -1.822870e+06
   2.217555e+06   2.807920e+05
   7.551211e+05   1.657091e+06
  -9.618865e+05   7.084559e+05
  -8.118986e+05  -1.116687e+06
   7.263312e+05  -1.375126e+06
   1.627712e+06   7.753627e+04
   1.161871e+06   1.451013e+06
   1.326959e+05   1.724348e+06
  -8.142236e+05   1.264768e+06
  -1.463981e+06   4.442286e+05
  -1.294290e+06  -5.627248e+05
  -1.779283e+05  -9.901187e+05
   6.352161e+05  -2.432548e+05
  -5.583647e+04   7.101362e+05
  -1.321320e+06   3.723111e+05
  -1.223879e+06  -9.254568e+05
   1.644717e+05  -1.402476e+06
   8.505822e+05  -6.461021e+05
   1.736673e+05  -1.862793e+05
  -1.686207e+05  -8.048133e+05
   9.361334e+05  -1.158328e+06
   2.044513e+06  -5.579353e+04
   1.411944e+06   1.474255e+06
  -3.045582e+05   1.703393e+06
  -1.135159e+06   6.688466e+05
  -5.811784e+05  -2.290334e+05
   2.072897e+05  -3.035468e+05
   3.808205e+05   3.978337e+04
   8.188742e+04   4.143557e+05
  -4.094225e+05   6.789695e+05
  -8.998122e+05   4.625469e+05
  -8.930163e+05  -3.387176e+05
  -1.693773e+05  -9.000943e+05
   4.468338e+05  -4.716395e+05
   7.127004e+04   2.388439e+05
  -6.816866e+05  -4.796671e+04
  -4.165827e+05  -1.083229e+06
   8.230260e+05  -1.295974e+06
   1.480690e+06  -2.006661e+05
   8.498872e+05   8.675777e+05
   4.264390e+04   8.476914e+05
   5.231221e+04   3.791759e+05
   2.616099e+05   3.954100e+05
  -1.901567e+05   5.492527e+05
  -7.402598e+05   1.215360e+05
  -3.707726e+05  -4.322559e+05
   5.147829e+05  -1.372729e+05
   5.667636e+05   7.794561e+05
  -4.483908e+05   1.071240e+06
  -1.308858e+06   2.587294e+05
  -1.077003e+06  -8.013355e+05
  -1.509344e+05  -1.172804e+06
   5.736067e+05  -8.032688e+05
   7.282668e+05  -1.432659e+05
   4.258065e+05   4.109811e+05
  -7.830772e+04   5.245915e+05
  -3.733107e+05   7.013517e+04
  -1.157578e+05  -4.934165e+05
   4.415759e+05  -4.603536e+05
   6.033280e+05   1.768362e+05
   1.428470e+05   6.387934e+05
  -3.812768e+05   4.207970e+05
  -4.212461e+05  -8.487815e+04
  -9.172713e+04  -2.742887e+05
   1.982239e+05  -1.110495e+05
   2.889806e+05   1.032243e+05
   1.696125e+05   2.510383e+05
  -1.931494e+05   2.999917e+05
  -5.785290e+05   9.901319e+04
  -5.074397e+05  -2.979378e+05
   7.516455e+04  -4.553953e+05
   5.123222e+05  -1.434037e+05
   2.879678e+05   2.126889e+05
  -2.002799e+05   1.290676e+05
  -2.479833e+05  -1.883515e+05
   1.073010e+05  -2.121316e+05
   2.753219e+05   5.136277e+04
   1.139290e+05   1.785649e+05
   1.091259e+04   1.212913e+05
   4.783491e+04   1.974068e+05
  -1.350418e+05   3.374340e+05
  -5.211277e+05   8.197721e+04
  -5.203053e+05  -5.269166e+05
   9.265617e+04  -7.632900e+05
   6.715552e+05  -2.510677e+05
   5.691160e+05   4.125891e+05
   3.304316e+04   4.965406e+05
  -2.515320e+05   1.222030e+05
  -1.415080e+05  -8.814448e+04
  -2.449919e+04   1.719408e+04
  -7.700842e+04   7.442120e+04
  -9.493880e+04  -6.980108e+04
   2.332498e+04  -1.643142e+05
   1.214581e+05  -5.396087e+04
   1.184158e+05   1.078604e+05
   9.070542e+04   1.887021e+05
   7.704247e+03   2.238620e+05
  -2.313863e+05   1.825873e+05
  -4.630098e+05  -4.331234e+04
  -3.548808e+05  -3.355906e+05
   6.601913e+04  -3.816810e+05
   3.470373e+05  -1.336883e+05
   2.229077e+05   7.372699e+04
  -3.136781e+04   9.129235e+03
  -4.997417e+04  -1.380084e+05
   1.173157e+05  -1.003608e+05
   1.896013e+05   6.729271e+04
   1.074412e+05   1.470686e+05
   2.338363e+04   1.071824e+05
  -5.072534e+02   5.971258e+04
  -1.468732e+04   2.965054e+04
  -4.564223e+03  -4.144088e+03
   5.971131e+04   3.277869e+04
   6.848180e+04   1.787034e+05
  -9.318491e+04   2.643194e+05
  -3.001261e+05   1.117201e+05
  -3.056004e+05  -1.619302e+05
  -9.205235e+04  -2.722184e+05
   1.051869e+05  -1.580948e+05
   1.248346e+05  -2.034616e+04
   3.464741e+04   2.851567e+03
  -4.470496e+04  -3.329327e+04
  -7.034453e+04  -6.986682e+04
  -1.062390e+04  -1.226868e+05
   1.465504e+05  -1.379657e+05
   2.709623e+05  -9.681810e+03
   1.791913e+05   1.866805e+05
  -7.568997e+04   2.064430e+05
  -1.969042e+05  -7.860302e+03
  -3.291096e+04  -1.880252e+05
   2.025851e+05  -9.804247e+04
   2.280405e+05   1.472018e+05
   5.089677e+04   2.785554e+05
  -1.244356e+05   2.293823e+05
  -2.002976e+05   1.154104e+05
  -2.136861e+05  -4.140219e+03
  -1.719381e+05  -1.319172e+05
  -6.692402e+04  -1.938284e+05
   1.238864e+04  -1.231693e+05
  -1.396563e+04  -3.382717e+04
  -3.775564e+04  -8.385809e+04
   9.946426e+04  -1.872855e+05
   3.011947e+05  -1.007672e+05
   2.793968e+05   1.763708e+05
  -2.846784e+04   3.310124e+05
  -3.194724e+05   1.568912e+05
  -3.020659e+05  -1.578468e+05
  -4.111641e+04  -2.933239e+05
   1.911118e+05  -1.865142e+05
   2.589452e+05  -9.641983e+03
   2.124122e+05   1.087533e+05
   1.103009e+05   1.663710e+05
  -2.700931e+04   1.694874e+05
  -1.375416e+05   1.109526e+05
  -1.520920e+05   4.361076e+04
  -1.042766e+05   3.107602e+04
  -8.578033e+04   3.076102e+04
  -9.627677e+04  -4.932289e+04
  -4.970976e+04  -1.779920e+05
   6.676253e+04  -2.092383e+05
   1.499610e+05  -8.423065e+04
   1.207533e+05   8.285503e+04
   1.879803e+04   1.542018e+05
  -6.812550e+04   1.139082e+05
  -9.486841e+04   3.077231e+04
  -5.991155e+04  -4.003209e+04
   8.601740e+03  -7.430214e+04
   4.575407e+04  -6.697536e+04
   4.874304e+03  -4.793461e+04
  -5.432194e+04  -5.626709e+04
  -1.348464e+04  -6.844430e+04
   1.300547e+05  -1.403016e+04
   2.193112e+05   1.046237e+05
   1.284386e+05   1.796977e+05
  -6.915009e+04   1.338485e+05
  -1.931810e+05   2.434223e+04
  -1.660679e+05  -4.472820e+04
  -5.885220e+04  -5.240200e+04
   2.884085e+04  -3.809395e+04
   5.403244e+04  -1.146189e+04
   2.113526e+04   2.925389e+04
  -3.189832e+04   3.742898e+04
  -4.546724e+04  -2.193180e+04
  -3.033571e+03  -8.009890e+04
   2.538532e+04  -4.212336e+04
  -2.814877e+04   5.014582e+04
  -1.081748e+05   4.978186e+04
  -8.587898e+04  -7.657594e+04
   5.961146e+04  -1.749599e+05
   1.916211e+05  -1.070682e+05
   1.783940e+05   6.173794e+04
   4.029884e+04   1.536780e+05
  -9.716229e+04   9.791828e+04
  -1.366206e+05  -1.936419e+04
  -6.138918e+04  -8.427747e+04
   7.778966e+04  -5.696342e+04
   1.749560e+05   3.318268e+04
   1.267522e+05   1.189282e+05
  -4.931707e+04   1.267217e+05
  -1.901602e+05   4.125810e+04
  -1.555706e+05  -5.641542e+04
  -2.980623e+03  -6.717610e+04
   7.907948e+04   4.808447e+03
   5.525548e+03   5.579289e+04
  -1.121112e+05   1.203902e+04
  -1.191523e+05  -9.030082e+04
   3.286728e+03  -1.602009e+05
   1.418388e+05  -1.392503e+05
   1.820104e+05  -2.834769e+04
   1.007900e+05   1.158883e+05
  -3.456578e+04   1.921765e+05
  -1.226301e+05   1.231474e+05
  -1.033432e+05  -4.484515e+04
  -8.371561e+03  -1.560211e+05
   7.149633e+04  -1.101375e+05
   8.027381e+04   1.838231e+04
   4.190832e+04   7.905179e+04
   8.917307e+03   3.659366e+04
  -2.168025e+02  -4.058786e+03
   2.075103e+03   3.996061e+04
   7.726384e+02   1.153407e+05
  -2.153636e+04   1.124262e+05
  -7.692537e+04   1.068543e+04
  -1.322666e+05  -1.016683e+05
  -1.144902e+05  -1.350709e+05
  -3.383353e+03  -8.620524e+04
   1.098737e+05  -1.889888e+04
   1.176799e+05   1.302673e+04
   3.599378e+04   1.043113e+04
  -1.782304e+04   7.993620e+03
   1.009622e+04   2.473704e+04
   4.092167e+04   4.321729e+04
  -1.030414e+04   3.500332e+04
  -1.013292e+05  -5.115408e+03
  -1.127664e+05  -5.615333e+04
  -2.716866e+03  -8.932859e+04
   1.413630e+05  -7.805001e+04
   1.981909e+05  -7.496343e+03
   1.241317e+05   9.752305e+04
  -2.318982e+04   1.630793e+05
  -1.384946e+05   1.253494e+05
  -1.484735e+05   1.194476e+04
  -6.901894e+04  -7.085408e+04
   1.163294e+04  -5.657969e+04
   2.433424e+04   2.492420e+03
  -1.055858e+04   6.995511e+03
  -2.186148e+04  -5.766581e+04
   1.688520e+04  -1.031162e+05
   6.210601e+04  -5.264179e+04
   6.413941e+04   6.247692e+04
   1.959611e+04   1.368267e+05
  -4.197741e+04   1.008959e+05
  -8.490930e+04  -1.578068e+04
  -7.299740e+04  -1.172395e+05
   6.637670e+03  -1.254439e+05
   1.016058e+05  -4.319421e+04
   1.185749e+05   5.429755e+04
   3.081618e+04   9.201591e+04
  -6.707582e+04   6.201571e+04
  -6.258719e+04   1.615186e+04
   2.913839e+04   1.227023e+03
   7.852193e+04   1.769245e+04
   7.255524e+03   3.786381e+04
  -1.117555e+05   3.891835e+04
  -1.476789e+05   1.114233e+04
  -6.725266e+04  -3.954883e+04
   4.186916e+04  -8.061794e+04
   8.360755e+04  -6.870995e+04
   4.702187e+04  -2.927254e+03
  -1.155485e+04   5.380420e+04
  -4.128368e+04   3.885781e+04
  -3.328559e+04  -3.001477e+04
  -5.813603e+03  -7.123440e+04
   2.118504e+04  -3.949938e+04
   3.615333e+04   2.205614e+04
   3.562080e+04   4.320241e+04
   2.294322e+04   1.369238e+04
   5.989594e+03  -1.475882e+04
  -8.484086e+03  -7.932523e+02
  -2.002147e+04   3.718489e+04
  -3.156697e+04   4.659530e+04
  -3.866593e+04   3.204629e+03
  -2.622518e+04  -5.749871e+04
   1.333722e+04  -7.226017e+04
   5.685099e+04  -1.767398e+04
   5.980333e+04   5.658029e+04
   3.972305e+03   7.533174e+04
  -6.885737e+04   2.159486e+04
  -8.909672e+04  -4.439458e+04
  -3.324857e+04  -5.835676e+04
   4.476062e+04  -2.405765e+04
   6.787639e+04   5.726634e+03
   1.938397e+04   1.633437e+03
  -3.836674e+04  -1.824048e+04
  -3.313786e+04  -2.753520e+04
   3.514436e+04  -1.967435e+04
   9.066126e+04   5.753454e+03
