
 $NMID
 id='ANONYMOUS ', fmtdat='(2E16.6)'
 volume=1.0
 tramp=1.0
 $END
  -3.316597e+03   1.017887e+02
  -2.435127e+03  -1.729089e+03
   9.466907e+01  -2.464775e+03
   1.360493e+03  -7.990832e+02
   7.212805e+02   8.205271e+01
  -2.064774e+02   3.186580e+02
  -4.911804e+02  -6.395351e+01
  -1.856606e+01  -7.159050e+02
   5.924444e+02  -6.499434e+02
   8.012856e+02   3.463874e+01
   3.748327e+02   6.052467e+02
  -7.871746e+01   6.508482e+02
  -3.656030e+02   1.941373e+02
  -1.770396e+02  -5.289921e+02
   1.666275e+02  -5.789226e+02
   4.518861e+02  -9.322137e+01
   3.116857e+02   5.236193e+02
  -2.072430e+02   6.187800e+02
  -5.624154e+02   1.917814e+02
  -4.279512e+02  -2.533534e+02
  -9.908133e+01  -3.847373e+02
   1.552152e+02  -2.213217e+02
   1.210117e+02  -3.050516e+01
  -1.899233e+02  -2.668836e+01
  -3.098065e+02  -2.038631e+02
  -1.308406e+01  -4.523171e+02
   4.430483e+02  -2.131255e+02
   6.806225e+02   1.658747e+02
   3.398777e+02   3.134590e+02
  -4.098633e+02   2.969994e+02
  -5.799029e+02  -7.515751e+01
  -2.234658e+02  -3.720652e+02
   2.164750e+02  -3.492445e+02
   4.756377e+02  -1.913307e+02
   3.692660e+02   2.206532e+02
  -1.512138e+01   3.686387e+02
  -4.451309e+01   2.215528e+02
  -1.335820e+01  -1.267721e+02
   1.967632e+02  -2.514174e+02
   2.540415e+02   9.428911e+01
   6.816340e+01   5.409259e+02
  -2.753617e+02   4.956061e+02
  -4.475261e+02  -5.156049e+01
  -1.849276e+02  -4.213308e+02
   1.410218e+02  -1.483794e+02
   2.404948e+02   3.231476e+02
  -8.679586e+01   4.824922e+02
  -4.929761e+02   1.129048e+02
  -4.938065e+02  -3.516990e+02
  -1.110829e+02  -5.867620e+02
   3.238126e+02  -2.406992e+02
   5.879295e+02   6.810086e+01
   3.587794e+02   2.718603e+02
  -9.430381e+01   2.228083e+02
  -3.645249e+02   4.799021e+01
  -2.195350e+02  -7.112129e+01
   3.158401e+01  -1.427331e+02
   5.979232e+01   8.938808e+01
  -1.603721e+02   6.616796e+01
  -2.457007e+02  -7.965287e+01
  -1.173454e+02  -2.309288e+02
   1.456906e+02  -2.403611e+02
   3.424042e+02  -9.179019e+01
   2.151679e+02   9.149291e+01
  -4.921164e+01   2.652405e+02
  -2.811245e+02   3.387556e+02
  -3.098712e+02   1.262724e+02
  -2.194108e+02  -1.552963e+02
  -3.963270e+01  -3.776746e+02
   5.850210e+01  -2.766451e+02
   1.083447e+02  -1.287889e+02
   5.912663e+00  -8.746143e+01
   1.270662e+02  -1.086892e+02
   1.871698e+02  -1.070263e+02
   2.391914e+02   7.079867e+01
   9.370868e+01   3.276117e+02
  -8.005361e+01   2.061110e+02
  -1.873973e+02  -3.680882e+01
  -1.340124e+02  -2.532089e+02
   2.363719e+01  -2.753439e+02
   2.256357e+02  -7.635241e+01
   2.887568e+02   1.990975e+02
   1.463064e+02   3.399110e+02
  -7.486316e+01   2.669925e+02
  -1.705124e+02   1.355739e+02
  -1.241568e+02   1.941241e+01
  -1.262122e+02   3.664672e+01
  -1.925693e+02   3.227099e+01
  -4.462543e+02  -8.921746e+01
  -2.819794e+02  -3.278720e+02
   3.817800e+01  -4.302418e+02
   3.831059e+02  -4.067761e+02
   4.535186e+02  -1.642394e+02
   2.797383e+02   8.396886e+01
   8.418914e+00   2.590106e+02
  -1.019292e+02   2.182213e+02
   2.034570e+01   8.595552e-01
   1.170585e+02  -8.695632e+01
   1.401889e+02   6.124677e+01
  -5.353119e+00   1.870340e+02
  -1.026247e+02   8.323607e+01
  -1.501953e+02  -8.396150e+01
   2.505614e+01  -1.549624e+02
   1.858238e+02  -3.189358e+01
   1.316610e+02   2.569328e+02
  -5.092671e+01   3.283798e+02
  -2.147406e+02   1.978690e+02
  -3.092278e+02  -2.499756e+01
  -2.608650e+02  -2.554943e+02
  -7.155069e+01  -2.452200e+02
   1.594676e+02  -1.333563e+02
   1.993448e+02   2.653988e+01
   4.640576e+01   2.515359e+01
  -4.859151e+01  -3.626604e+01
   2.327599e+00  -1.250410e+02
   1.258508e+02  -7.750084e+01
   1.336468e+02   5.902315e+01
   5.892831e+01   5.245617e+01
  -1.118535e+02  -8.435737e+00
  -7.745861e+01  -8.809342e+01
   1.335412e+02  -6.527268e+01
   2.914848e+02   6.444467e+01
   2.772866e+02   1.456970e+02
   1.437720e+01   2.351755e+02
  -2.195085e+02   2.362457e+02
  -1.947769e+02   9.452196e+01
  -1.214355e+02  -7.494902e+01
   1.943541e+01  -1.045728e+02
   6.703080e+01   1.040966e+01
  -7.413624e+01   5.799007e+01
  -2.058395e+02   6.464881e+01
  -2.298888e+02  -9.357350e+01
  -1.683266e+01  -1.784528e+02
   6.114446e+01  -1.274440e+02
   1.165292e+02  -3.732037e+01
   6.523296e+01   3.279426e+01
  -1.676930e+00  -1.533553e+01
  -3.546682e+01  -6.824303e+01
   6.283629e+01  -1.171773e+02
   1.826273e+02   7.246172e+00
   1.519214e+02   1.020501e+02
   3.870291e+01   2.120470e+02
  -9.411976e+01   1.519238e+02
  -1.769407e+02  -3.585624e+01
  -5.236245e+01  -7.580267e+01
   5.891131e+01  -1.274961e+02
   5.289909e+01  -3.066080e+01
   1.272913e+01   3.269133e+01
  -2.077410e+01   1.854072e+01
   1.619014e+00  -5.769998e+00
   6.350640e+01   6.919633e-01
   7.748536e+01   8.584913e+01
   1.951978e+01   1.801715e+02
  -1.577059e+02   1.655579e+02
  -1.866284e+02  -1.017409e+01
  -1.935210e+02  -1.644325e+02
  -3.997420e+01  -2.448942e+02
   1.281100e+02  -1.770473e+02
   1.376111e+02  -2.214365e+01
   8.571066e+01   5.504197e+01
   1.139582e+00   1.268964e+01
   7.152607e+01   1.156111e+00
   9.869329e+01  -1.853904e+01
   1.676343e+01   3.642334e+01
  -5.300114e+01   1.211095e+02
  -9.614206e+01   2.903729e+01
  -7.767075e+01   1.131410e+00
   3.276734e+01  -1.519582e+02
   1.432330e+02  -6.970005e+01
   1.655226e+02   7.711241e+01
   7.749995e+01   2.058301e+02
  -5.860728e+01   1.599099e+02
  -2.735849e+02   1.128590e+02
  -2.423293e+02  -4.000348e+01
  -6.988621e+01  -1.569331e+02
   3.914907e+01  -1.509810e+02
   6.931156e+01  -8.735748e+01
   6.918815e+01  -3.746439e+01
   3.535240e+01  -7.761157e+01
   7.974520e+01  -9.279744e+01
   1.388659e+02   2.021633e+01
   1.183123e+02   1.243402e+02
   4.472922e+01   2.222649e+02
  -7.898081e+01   1.644954e+02
  -1.702209e+02   6.170917e+01
  -1.175549e+02  -1.012948e+02
  -1.678003e+01  -1.524471e+02
   7.815919e+01  -5.101905e+01
   7.999178e+01   3.538499e+01
  -1.579944e+01   1.882617e+01
  -1.166830e+01   2.681206e+01
   2.497705e+01   6.010128e+01
   8.968365e+01   4.243448e+01
   4.318723e+01   4.265646e+00
  -2.168958e+01   3.673778e+01
  -1.767640e+02   6.139436e+01
  -1.461420e+02  -8.893192e+01
  -1.937531e+00  -7.428779e+01
   1.179355e+02  -8.874675e+01
   1.495823e+02  -2.709566e+01
   4.110492e+01   7.038332e+01
  -7.052231e+01   8.014974e+01
  -8.761083e+01  -8.498039e+00
  -8.889256e+00  -8.268393e+01
   7.029680e+01  -6.273931e+01
   4.855486e+01   1.318864e+01
   7.271135e+01   3.491928e+01
   2.621905e+01   4.729136e+01
   6.500541e+01   1.763492e+01
   5.381702e+01   1.395926e+01
   2.736958e+01   1.230789e+02
  -2.344121e+01   1.093986e+02
  -9.504897e+01   1.071791e+02
  -1.476302e+02   2.581649e+00
  -1.083757e+02  -7.110683e+01
  -1.331450e+01  -1.138368e+02
   5.708500e+01  -2.372155e+01
   3.516295e+01  -3.054693e-01
  -5.294832e+01   6.512930e-01
  -1.801039e+02  -2.317089e+01
  -9.730140e+01  -1.220285e+02
   9.779325e+01  -6.888347e+01
   1.785486e+02  -6.649265e+01
   1.543623e+02   3.361304e+01
   4.280132e+01   3.658505e+01
  -9.216792e+01   8.360634e+01
  -7.262129e+01   4.286047e+01
   3.414731e+01  -7.362711e+00
   1.025967e+02   3.041732e+01
   5.003274e+01   9.342873e+01
  -7.436668e+01   1.562562e+02
  -1.477570e+02   1.256818e+02
  -1.156125e+02  -8.106758e+01
  -2.014511e+01  -1.630501e+02
   7.837217e+01  -1.327499e+02
   9.493459e+01   6.768994e+00
   4.625377e+01   1.124286e+02
  -4.633227e+00   1.004053e+02
  -4.248592e+01   4.916755e+01
   1.560835e+00  -2.289334e+01
  -6.225059e+01  -2.717075e+01
   1.206782e+01  -9.194668e+00
  -7.018490e+01   5.944352e+00
  -2.294327e+01  -1.014234e+02
  -4.483121e+01  -1.048739e+02
   3.456989e+01  -3.051433e+01
   1.154352e+02   6.567144e+01
   9.494547e+01   7.793172e+01
   1.235195e+01   5.283710e+01
  -3.159991e+01   4.761065e+00
  -1.059858e+02   2.199513e+01
  -1.138205e+01  -3.515282e+01
   4.012990e+01  -3.506474e+01
  -7.372462e+00  -2.270089e+01
  -2.483821e+01  -2.755531e+01
   2.264840e+01   1.446385e+01
   5.015937e+01  -9.361948e+00
   3.895119e+01   1.791827e+01
   1.085933e+01   9.815597e+01
  -9.329503e+01   1.426935e+02
  -1.544169e+02   8.779895e+01
  -1.609879e+02  -4.248349e+01
  -5.422613e+01  -1.250408e+02
   9.611019e+01  -1.866305e+02
   1.117817e+02  -8.352874e+01
   8.426008e+01  -3.266168e+00
  -1.429201e+01   1.930999e+01
  -7.989180e+00   2.330246e+01
   3.207165e+01   4.006102e+01
   2.529922e+01   4.330581e+01
   4.196181e+01   8.391662e+01
  -2.004093e+01   9.798174e+01
  -6.560258e+01  -3.225154e+01
  -9.378530e+01  -1.086222e+02
  -3.116617e+01  -1.163752e+02
   3.950376e+01  -3.164140e+01
   9.805555e+01   7.290761e+01
   3.465872e+01   1.082932e+02
  -4.671743e+01   7.059443e+01
  -6.731936e+01  -2.031655e+01
  -5.497033e+01  -6.788254e+01
   1.786723e+01  -6.275731e+01
   2.117273e+01   1.444201e-02
  -2.956562e+01  -3.444201e+01
  -7.512385e+01  -8.682883e+00
  -3.302918e+00  -2.900662e+01
   1.223250e+02  -4.620773e+01
   1.167173e+02  -4.232795e+01
   5.849238e+01   9.729499e+00
  -3.539927e+01   8.073532e+01
  -2.962730e+01   1.053723e+02
  -3.353772e+01   5.573937e-01
   2.196866e+00  -3.894363e+01
   6.444716e+01  -2.467521e+01
   1.527698e+01   8.205002e-01
   2.772452e+01   5.670291e+01
   1.914433e+00   1.566612e+01
  -4.506019e+01   2.767910e+01
  -4.588615e+01   5.883654e+00
  -3.074062e+01   6.190873e+00
  -1.642539e+00   2.143715e+01
  -1.839488e+01   1.537115e+01
  -2.514272e+01   5.720600e+00
   2.898029e+01  -4.164692e+01
   4.022444e+01   1.399775e+01
   2.991170e+01   4.388986e+01
   6.298956e+00   1.609032e+01
  -6.956780e+01   2.152377e+01
  -1.272509e+01  -2.957007e+01
  -8.485261e+00  -5.240876e+01
   4.731158e+01  -3.203475e+01
   8.244208e+01   3.243909e+01
   6.721105e+01   3.106504e+01
  -2.931493e+01   5.317263e+01
  -5.046055e+01   2.264253e+01
  -3.142360e+01  -1.221428e+01
   4.336444e+01   9.738654e+00
   3.084909e+01   1.953707e+01
  -4.157862e+01   1.683581e+01
  -7.649892e+01  -4.590216e+01
