
 $NMID
 id='ANONYMOUS ', fmtdat='(2E16.6)'
 volume=1.0
 tramp=1.0
 $END
   4.534604e+03   1.619204e+02
   2.909759e+03   3.390073e+03
  -8.185496e+02   2.900822e+03
  -2.286702e+03   8.541289e+02
  -9.879395e+02  -8.395031e+02
   7.469638e+02  -6.068513e+02
   1.058495e+03   3.910572e+02
  -1.804327e+02   1.185091e+03
  -9.595532e+02   8.878352e+02
  -9.734068e+02  -3.789884e+01
  -5.060011e+02  -9.390984e+02
   2.631165e+02  -9.346715e+02
   7.284311e+02  -1.666144e+02
   3.767160e+02   7.782111e+02
  -3.628171e+02   7.782947e+02
  -6.663634e+02   1.194457e+01
  -3.180940e+02  -7.538600e+02
   4.943809e+02  -6.585284e+02
   6.448829e+02  -3.820664e+01
   4.220046e+02   3.469295e+02
   3.381114e+01   4.589686e+02
  -2.796349e+02   3.310985e+02
  -2.233708e+02   4.673215e+01
   1.322861e+02  -1.211415e+02
   4.286453e+02   1.069346e+02
   2.027626e+02   4.623975e+02
  -4.553143e+02   4.613465e+02
  -9.247518e+02  -1.652215e+01
  -4.862577e+02  -6.709119e+02
   4.329013e+02  -4.872133e+02
   7.453178e+02  -4.486219e+00
   3.706655e+02   5.554930e+02
  -2.935421e+02   5.813808e+02
  -6.052283e+02   2.211873e+02
  -4.577669e+02  -2.678945e+02
  -5.079432e+01  -4.843977e+02
   2.213463e+02  -2.835736e+02
   2.361906e+02   2.522182e+02
  -2.010286e+02   5.273756e+02
  -5.223703e+02   1.822217e+01
  -2.854065e+02  -7.717351e+02
   2.824711e+02  -8.488047e+02
   7.488352e+02   9.669040e+01
   3.676900e+02   5.610024e+02
  -3.399848e+02   3.784026e+02
  -4.524552e+02  -3.131550e+02
   6.638444e+01  -6.033727e+02
   5.901373e+02  -1.454179e+02
   6.652591e+02   4.451620e+02
   2.351412e+02   6.602385e+02
  -4.284306e+02   3.803689e+02
  -6.756314e+02  -1.389281e+02
  -3.821414e+02  -3.984812e+02
   1.531955e+02  -4.112592e+02
   4.475714e+02  -8.124667e+01
   2.581236e+02   2.143931e+02
  -1.591704e+02   1.873313e+02
  -1.402287e+02  -1.539385e+02
   1.217198e+02  -2.054045e+02
   3.593771e+02   8.457911e+01
   1.376299e+02   3.614078e+02
  -2.253568e+02   2.437021e+02
  -3.354245e+02   5.273798e+01
  -1.632627e+02  -8.019184e+01
   6.682368e+01  -2.430918e+02
   1.928290e+02  -3.303542e+02
   3.554292e+02  -2.354548e+02
   3.206473e+02   1.194533e+02
   8.714324e+01   4.960960e+02
  -1.283338e+02   4.281583e+02
  -9.880878e+01   1.119718e+02
  -1.799039e+01   5.180839e+00
  -3.906395e+01   4.908060e+01
  -2.423695e+02   1.765030e+02
  -3.230938e+02  -1.074123e+02
  -2.074790e+02  -2.924713e+02
   6.012212e+01  -2.905953e+02
   2.802708e+02  -4.601237e+01
   2.169380e+02   3.012358e+02
  -2.051365e+01   2.628678e+02
  -2.907831e+02   9.403930e+01
  -3.194691e+02  -1.757486e+02
  -2.057442e+02  -3.739834e+02
   1.023118e+02  -3.654867e+02
   2.239402e+02  -1.264843e+02
   1.375439e+02   9.853395e-01
   1.272197e+02  -8.021120e+01
   2.243988e+02  -8.696451e+01
   3.770006e+02   7.522843e+01
   3.469709e+02   3.076058e+02
   3.527717e+01   4.412720e+02
  -4.053535e+02   4.185156e+02
  -5.338502e+02   2.037242e+02
  -3.380140e+02  -1.183867e+02
  -6.950953e+01  -2.913554e+02
   1.627475e+02  -2.839390e+02
   1.407679e+02  -5.099937e+01
  -1.036832e+02   9.480435e+01
  -1.965869e+02   8.235033e+00
  -5.591778e+01  -2.340065e+02
   1.715128e+02  -2.254442e+02
   1.964412e+02   6.645442e+01
   6.982743e+00   2.559815e+02
  -2.238503e+02   4.394442e+01
  -1.764826e+02  -2.799839e+02
   3.974656e+01  -3.672152e+02
   2.574090e+02  -2.235263e+02
   3.314797e+02   6.907034e+01
   2.978789e+02   2.478800e+02
   1.139304e+02   2.868864e+02
  -1.217926e+02   1.506537e+02
  -1.422329e+02   6.045102e+01
  -6.965687e+01  -1.018385e+01
   9.521220e+01   7.720887e+01
   4.553523e+01   1.172410e+02
  -1.330343e+02   1.517461e+02
  -2.081297e+02   7.250275e+00
  -3.416843e+01  -9.061509e+01
   8.286213e+01  -5.069646e+01
   3.973631e+01   6.378693e+01
  -7.668949e+01   1.030145e+02
  -2.976954e+02   8.054628e+00
  -2.823358e+02  -1.435176e+02
  -5.152771e+01  -2.694977e+02
   1.655999e+02  -2.807589e+02
   2.568585e+02  -1.252424e+02
   1.810803e+02   7.351937e+01
  -5.894616e+00   8.477183e+01
  -9.153847e+01  -3.552947e+00
   6.753737e+01  -1.162018e+02
   2.091446e+02  -4.682082e+01
   2.590076e+02   1.243901e+02
   1.037161e+02   1.893610e+02
  -1.012285e+02   1.664274e+02
  -1.668590e+02   5.536764e+01
  -7.654964e+01  -4.639092e+01
   3.252134e+01  -1.246171e+01
   4.731127e+01   9.173123e+01
  -7.205270e+01   1.078229e+02
  -1.540064e+02   6.445840e+01
  -2.197074e+02  -1.008514e+02
  -2.565504e+01  -2.398910e+02
   1.892594e+02  -1.613396e+02
   1.734843e+02  -3.172583e+01
   6.112459e+01   1.260947e+02
  -3.838824e+01   1.246025e+02
  -6.679141e+01   9.656615e+00
   1.087971e+01  -5.516898e+01
   1.726779e+01  -4.126732e+01
   6.230646e+01  -1.081894e+01
  -4.082191e+01  -5.068572e-01
  -6.484741e+01  -8.833767e+01
  -2.213708e+01  -1.453297e+02
   1.279132e+02  -1.385686e+02
   2.053084e+02  -5.531006e+01
   2.262949e+02   1.124847e+02
   6.269882e+01   2.643934e+02
  -6.898944e+01   1.903685e+02
  -1.545172e+02   3.540570e+01
  -8.824787e+01  -3.295104e+01
  -4.265349e+01  -5.747919e+01
  -3.333450e+01   1.575519e+01
  -4.810499e+01   2.632625e+01
  -4.004648e+01  -4.186902e+01
   2.470543e+01  -7.463758e+01
   1.059734e+02  -3.836221e+01
   7.614766e+01   4.306362e+01
  -7.024905e+00   8.189215e+01
  -1.514951e+02   8.397828e+01
  -2.011067e+02  -3.952364e+01
  -9.458008e+01  -1.953710e+02
   9.652174e+01  -1.575022e+02
   2.553332e+02  -9.030096e+01
   2.752812e+02   1.059736e+02
   1.538704e+02   1.787805e+02
  -7.129986e+01   1.822611e+02
  -8.305084e+01   9.390325e+01
  -8.715962e+01   8.331813e+01
  -7.688727e+01   8.145938e+01
  -1.122268e+02   4.505741e+01
  -1.299391e+02  -2.861711e+01
  -1.221875e+02  -1.467349e+02
   2.441697e+01  -2.583301e+02
   1.250261e+02  -1.413881e+02
   1.450141e+02  -1.972333e+01
   1.273645e+02   1.580243e+02
   3.606506e+01   1.429740e+02
  -9.512535e+01   5.244412e+01
  -7.770156e+01   1.864988e+01
  -1.693056e+01  -6.733833e+01
   3.793425e+01  -1.018913e+01
  -5.397456e+01   1.481024e+01
  -6.598152e+01  -1.461937e+01
  -6.239518e+01  -4.883317e+01
   7.215859e+01  -1.451260e+01
   1.214285e+02  -3.627532e+01
   1.600854e+02   6.271638e+01
   2.887209e+01   7.523482e+01
  -1.491339e+02   6.754984e+01
  -1.204502e+02   6.681667e+00
  -6.130551e+01  -2.345248e+01
   3.229826e+01  -2.524264e+01
   1.031194e+02   3.173583e+01
  -1.647770e+01   8.837701e+01
  -5.522941e+01   8.410487e+01
  -7.580020e+01  -2.351352e+01
  -2.288421e+01  -3.914287e+01
  -2.645086e+01  -7.508153e+01
  -5.929524e+01   7.224891e+00
  -6.540547e+01   4.629040e+00
  -5.527316e+01  -7.264562e+01
   5.131181e+01  -1.519033e+02
   9.373927e+01  -1.373984e+02
   2.078470e+02  -2.199327e+01
   9.612419e+01   1.087074e+02
  -1.221642e+01   9.205887e+01
  -1.166582e+02   6.081334e+01
  -2.931061e+01  -3.193680e+01
   8.065883e+01  -2.041540e+01
   1.669579e+02   2.891250e+01
   6.250522e+01   6.942033e+01
  -6.527499e+01   1.099518e+02
  -1.364115e+02   7.995101e+01
  -2.065049e+02  -1.914415e+01
  -8.932410e+01  -9.868760e+01
   3.610095e+01  -1.150576e+02
   7.069801e+01   8.594699e+00
  -2.435327e+01   4.943920e+01
  -9.553214e+01  -4.430997e+01
  -1.348873e+01  -1.051551e+02
   8.113280e+01  -1.386611e+02
   1.205798e+02  -7.405466e+01
   6.137105e+01   1.270475e+02
   6.671587e+00   2.060967e+02
  -1.043667e+02   1.349052e+02
  -1.134258e+02  -1.862349e+01
  -1.310538e+02  -1.216853e+02
   1.979122e+01  -7.139760e+01
   8.217632e+01   6.158578e+00
   4.785791e+01   4.932636e+01
   5.272077e+01   2.129580e+01
   2.391388e+01  -1.720180e+01
  -2.922106e+01   1.866646e+01
   6.735051e+01   1.087037e+02
   4.655551e+01   1.142066e+02
  -6.982324e+01   6.997255e+01
  -1.749877e+02  -3.933412e+01
  -1.200811e+02  -1.020636e+02
  -1.151870e+01  -5.307096e+01
   4.657271e+01  -2.188717e+01
   1.065958e+02  -1.386931e+01
   1.154196e+01   3.645837e+01
  -4.454349e+01  -2.564861e+00
  -1.685407e+01   2.466199e+01
   1.668811e+01   2.220074e+01
  -2.584303e+01  -2.256819e+00
  -7.303138e+01   2.906082e+01
  -1.206563e+02  -5.023211e+01
   1.101570e+01  -8.646644e+01
   7.367362e+01  -1.638683e+02
   1.894281e+02  -5.853050e+01
   1.196765e+02   9.074162e+01
   1.053399e+01   2.004740e+02
  -7.385069e+01   1.762166e+02
  -1.188714e+02   9.053713e+01
  -9.456076e+01   1.209122e+01
  -1.197610e+01  -2.617753e+01
  -5.521775e+00  -2.779276e+01
   9.084117e+00  -3.675265e+01
  -2.399340e+01  -6.809882e+01
  -1.665712e+01  -1.037740e+02
   3.466148e+01  -7.839146e+01
   6.376056e+01   6.965882e+00
   7.952581e+01   1.094328e+02
  -2.718908e+01   1.253396e+02
  -6.190177e+01   3.319052e+01
  -1.391951e+02  -7.308998e+01
  -3.611685e+01  -1.116391e+02
   1.108336e+02  -6.819400e+01
   7.785611e+01   2.849510e+01
   2.633724e+01   2.502161e+01
  -1.642069e+01   2.780246e+01
  -3.011307e+01   2.061041e+01
   7.381177e+01   3.152308e+01
   1.794911e+00  -2.976176e+01
   2.115549e+01   5.854870e+01
  -8.865860e+01   7.054787e+01
  -1.397062e+02   5.151481e+01
  -4.545354e+01  -2.957977e+01
   1.728672e+01  -6.902264e+01
   6.921174e+01  -4.412885e+01
   2.835678e+01  -3.701759e+01
   6.137434e+00   7.491667e+01
  -1.673586e+01   3.755401e+01
  -7.054905e+01  -4.513920e+01
  -2.105473e+01  -3.300881e+01
  -5.522357e+00  -5.874333e+01
   2.515558e+01   6.913837e+00
   3.148973e+01  -8.021361e+00
   3.417552e+01  -2.128101e+01
   8.253418e+00  -6.817275e+01
  -2.525500e+01  -2.014939e+01
  -3.119233e+01  -4.538029e-01
  -1.996809e+01   4.336734e+01
  -4.951182e+01  -2.168315e+01
  -2.295913e+01  -5.466403e+01
  -6.741189e+00  -5.156687e+01
   4.880177e+01  -3.713200e+01
   5.808528e+01   2.369537e+01
   3.649761e+01   5.300923e+01
  -5.750907e+01   5.863629e+01
  -1.438998e+02  -7.464983e+00
  -6.948946e+01  -3.452055e+01
   4.152746e+01  -1.560500e+01
   4.584660e+01   3.014711e+00
   5.793427e+01  -2.431572e+00
  -1.328141e+01  -5.003283e+00
  -2.602586e+01   1.698869e+01
   2.514193e+01  -4.179419e+01
   1.079802e+02  -7.720454e+00
