
 $NMID
 id='ANONYMOUS ', fmtdat='(2E16.6)'
 volume=1.0
 tramp=1.0
 $END
   2.923694e+03   2.003893e+02
   2.130284e+03   1.750254e+03
  -1.600484e+02   1.766615e+03
  -1.049565e+03   1.040398e+03
  -9.865563e+02   1.209308e+02
  -1.563352e+01  -2.220437e+02
   3.668953e+02  -4.515341e+01
  -1.008030e+02   4.726017e+02
  -4.628415e+02   5.577975e+02
  -6.067782e+02  -1.436187e+01
  -5.278781e+02  -4.046230e+02
  -3.762104e+01  -6.861563e+02
   2.364657e+02  -2.244340e+02
   2.985596e+02   3.885451e+02
  -4.896607e+01   5.688992e+02
  -3.798095e+02   1.161753e+02
  -3.800719e+02  -4.745140e+02
   1.354971e+02  -6.292156e+02
   5.200523e+02  -2.779961e+02
   4.398981e+02   1.396039e+02
   1.846066e+02   3.504532e+02
  -1.370334e+02   2.224424e+02
  -4.216546e+01   1.134786e+02
   2.474132e+02   1.487328e+02
   2.545154e+02   2.230817e+02
  -1.205698e+01   3.409915e+02
  -5.731160e+02   1.330273e+02
  -5.505872e+02  -2.312876e+02
  -1.687609e+02  -3.080266e+02
   3.523304e+02  -1.571309e+02
   4.930466e+02   1.766948e+02
   1.312713e+02   3.620704e+02
  -2.793371e+02   3.545516e+02
  -4.329923e+02   1.470030e+02
  -2.842821e+02  -1.545850e+02
  -6.916753e+01  -2.903514e+02
  -4.367200e+01  -1.577944e+02
  -9.409412e+01   9.206595e+01
  -1.861559e+02   1.493271e+02
  -1.856388e+02  -1.783759e+02
   1.036730e+01  -4.892364e+02
   2.795732e+02  -4.001007e+02
   2.175763e+02   5.209090e+01
   1.404609e+02   3.062466e+02
  -1.825064e+02   1.339020e+02
  -1.234647e+02  -3.258019e+02
   1.227439e+02  -3.515812e+02
   4.194071e+02  -9.330726e+01
   5.319496e+02   3.121275e+02
   7.926038e+01   4.812701e+02
  -2.664891e+02   2.668086e+02
  -4.835304e+02  -1.230677e+02
  -3.207937e+02  -2.699573e+02
   7.971463e+01  -2.119694e+02
   3.121011e+02  -5.770860e+01
   1.751749e+02   3.136870e+01
  -3.540251e+01   9.853583e+00
  -8.457982e+01   3.041570e+00
   6.886233e+01  -4.470555e+01
   1.587430e+02   6.389710e+01
   8.957220e+01   1.890331e+02
  -1.301962e+02   2.654545e+02
  -2.504226e+02   1.561339e+02
  -2.339075e+02  -1.275405e+02
   2.617546e+01  -2.988652e+02
   2.708924e+02  -3.616379e+02
   3.362256e+02  -1.702385e+02
   2.548716e+02   1.284878e+02
   7.420936e+01   3.349260e+02
  -8.686550e+00   3.132626e+02
  -4.100767e+01   1.478542e+02
   1.661636e+00   1.412990e+02
  -1.744434e+02   1.242163e+02
  -1.900468e+02   6.215785e+01
  -2.039659e+02  -1.520209e+02
  -9.557065e+01  -2.664174e+02
   5.904702e+01  -1.890939e+02
   1.707262e+02   5.308981e+01
   1.579480e+02   1.951010e+02
  -1.157373e+01   2.541524e+02
  -2.435997e+02   3.443785e+01
  -2.566293e+02  -1.906060e+02
  -1.610009e+02  -2.664094e+02
   7.925518e+01  -2.211374e+02
   1.595072e+02  -1.486847e+02
   1.185464e+02  -4.313417e+01
   1.300675e+02  -3.991022e+01
   2.517596e+02  -1.831586e+01
   4.202393e+02   1.375567e+02
   2.792793e+02   3.197567e+02
  -2.798696e+00   3.992697e+02
  -3.766747e+02   3.476920e+02
  -4.713477e+02   1.069491e+02
  -3.242669e+02  -8.666470e+01
  -5.800728e+01  -2.735226e+02
   8.515195e+01  -1.946289e+02
   1.336564e+01  -3.776541e+01
  -1.593164e+02   4.035711e+01
  -1.090782e+02  -7.852975e+01
  -2.824423e+01  -9.727588e+01
   1.096094e+02  -1.591031e+02
   9.458509e+01   4.058030e+01
  -7.285423e+01   1.370501e+02
  -1.637987e+02   3.589019e+01
  -1.605244e+02  -2.257394e+02
   2.710347e+01  -3.275058e+02
   2.216573e+02  -1.935681e+02
   3.175123e+02   3.074592e+01
   2.026768e+02   2.552137e+02
   5.389571e+01   2.402712e+02
  -1.581236e+02   1.171056e+02
  -1.363274e+02   4.294795e+01
  -6.635543e+01  -7.867235e+00
   2.249533e+01   4.319173e+01
  -1.654250e+01   1.392263e+02
  -1.180521e+02   5.225013e+01
  -1.285945e+02  -6.510004e+01
  -8.126109e+00  -3.074345e+01
   9.342868e+01  -1.541538e+01
   5.336508e+01   7.687749e+01
  -1.551766e+02   1.009328e+02
  -2.991062e+02  -2.096308e+01
  -2.658005e+02  -1.659551e+02
  -5.034069e+01  -2.992663e+02
   2.039945e+02  -2.343268e+02
   2.731669e+02  -8.077635e+01
   1.570139e+02   6.812127e+01
  -1.084758e+01   6.540219e+01
  -5.595854e+01   1.418721e+01
   4.205464e+01  -5.240637e+01
   1.785246e+02  -3.962056e+01
   2.043546e+02   9.069831e+01
   7.948094e+01   1.956705e+02
  -8.345892e+01   1.401927e+02
  -1.037065e+02  -2.799252e+01
  -7.483277e+01  -2.232429e+01
   1.951759e+01   3.105013e+01
   4.320133e+01   1.326871e+02
  -7.232283e+01   1.344140e+02
  -2.438648e+02  -3.917098e+01
  -1.554233e+02  -1.884328e+02
  -2.243923e+01  -2.028669e+02
   1.338639e+02  -1.819421e+02
   1.923499e+02   3.345967e+01
   5.032260e+01   8.827932e+01
  -6.488740e+01   9.266808e+01
  -5.570410e+01   5.636050e+01
   2.583619e+01  -5.887693e+00
   6.825065e+01   9.792167e+00
  -2.163083e+00   7.952899e+01
  -7.794438e+01  -4.204581e+01
  -8.185618e+01  -9.762479e+01
   3.190182e+00  -1.481364e+02
   1.177846e+02  -1.233933e+02
   2.286445e+02  -2.949969e+01
   1.513548e+02   1.190974e+02
   4.070408e+01   2.096240e+02
  -9.999555e+01   1.864755e+02
  -1.478312e+02   5.201791e+00
  -8.112176e+01  -2.714364e+01
  -3.377948e+01  -3.803990e+01
  -3.568173e+01   1.266213e+01
  -9.355755e+01  -1.596064e+01
  -1.156719e+02  -6.353051e+01
   1.556970e+01  -9.879150e+01
   1.081423e+02  -1.055883e+02
   1.175489e+02   2.833859e+01
   3.100021e+01   1.324273e+02
  -1.426067e+02   4.109203e+01
  -2.092370e+02  -6.180163e+01
  -9.067460e+01  -2.315384e+02
   1.390853e+02  -2.312425e+02
   2.551177e+02  -6.224889e+01
   2.209129e+02   5.545666e+01
   9.333610e+01   1.552777e+02
  -3.892505e+01   1.444145e+02
  -7.626457e+01   6.172708e+01
  -4.944406e+01   5.679361e+01
  -2.254281e+00   8.987431e+01
  -9.449028e+01   1.041864e+02
  -1.434160e+02  -1.531176e+01
  -9.608831e+01  -1.263395e+02
  -4.178094e+01  -2.006943e+02
   1.282123e+02  -1.442290e+02
   1.273662e+02  -7.796731e+00
   8.947424e+01   9.933701e+01
   4.310391e+01   1.296725e+02
  -4.155680e+01   8.750917e+01
  -7.014495e+01  -1.109413e+01
  -3.496859e+01  -7.486901e+01
   1.471265e+00  -4.287716e+01
  -3.505979e+01  -5.494733e+00
  -9.333421e+01  -1.186698e+01
  -3.962277e+01  -3.809141e+01
   9.378792e+01  -3.049875e+01
   1.600806e+02  -4.441446e+01
   1.634186e+02   1.097957e+02
  -8.485834e+00   1.027320e+02
  -1.206354e+02   5.680690e+01
  -1.244892e+02   4.365456e+01
  -4.972285e+01  -6.477940e+01
   8.400797e+01  -5.737763e+01
   5.660832e+01  -1.429514e+01
   7.461416e+00   7.071136e+01
  -4.229794e+01   4.720623e+01
  -4.961880e+01   3.594707e+00
  -6.949908e+01  -6.359592e+01
  -5.348705e+01  -5.077956e+01
  -8.044655e+01  -5.105365e+00
  -6.260577e+01  -4.302498e+01
  -4.903728e+01  -8.066163e+01
   3.244258e+01  -1.356539e+02
   1.204430e+02  -1.386183e+02
   1.710437e+02  -1.761042e+01
   1.483281e+02   1.046656e+02
  -2.087361e+01   1.209426e+02
  -7.889451e+01   6.582554e+01
  -4.987892e+01   1.202059e+01
   9.566566e+01  -2.658871e+01
   1.165003e+02   4.338417e+01
   8.244074e+01   1.054522e+02
  -8.899826e+01   9.720396e+01
  -1.522821e+02   5.002871e+01
  -1.556888e+02  -8.122486e+01
  -4.877933e+01  -6.166548e+01
   5.066618e+01  -5.783208e+01
   5.044806e+01   1.951285e+01
  -3.051102e+01  -1.020209e+01
  -7.877857e+01  -4.151807e+01
  -1.598800e+01  -1.431266e+02
   1.068320e+02  -1.323393e+02
   1.416380e+02  -6.828480e+01
   1.664277e+02   1.169967e+02
   2.699538e+01   2.183314e+02
  -7.835558e+01   1.552815e+02
  -1.168334e+02   1.259512e+00
  -1.183026e+02  -1.450629e+02
   6.764814e+00  -8.912440e+01
   6.558163e+01  -1.762645e+01
   4.081101e+01  -1.134804e+01
  -1.080128e+01  -4.862941e+00
  -1.666506e+01  -9.398436e+00
   5.398031e+01   2.724820e+01
   7.347564e+01   1.066239e+02
   2.037170e+01   1.116328e+02
  -5.282744e+01   6.926989e+01
  -9.682500e+01  -7.748243e+01
  -1.255735e+02  -9.790593e+01
  -9.184574e+01  -7.393893e+01
   9.506269e+01  -5.706189e+01
   1.052671e+02   1.277772e+01
   5.627054e+00   8.057080e+00
  -5.188491e+01   4.473055e+01
  -1.927164e+01  -6.983307e+00
   2.528243e+01  -4.274990e+01
  -3.003358e+00  -1.916204e+01
  -8.578291e+01  -2.233678e+01
  -8.032814e+01   1.957719e+00
  -3.253995e+01  -8.265045e+01
   9.663363e+01  -1.033934e+02
   1.659785e+02  -7.601804e+01
   1.531672e+02   2.596342e+01
   4.511972e+01   1.652553e+02
  -4.825374e+01   1.339789e+02
  -1.117375e+02   4.887801e+01
  -1.020278e+02  -6.678297e+00
  -5.910444e+00  -2.723600e+01
  -2.719851e+01   9.694090e-01
  -5.040143e+01  -3.710242e+01
  -1.045845e+01  -4.951667e+01
  -5.013920e+01  -7.335000e+01
   2.711968e+01  -7.403490e+01
   8.531385e+01  -2.446459e+01
   6.759434e+01   1.154661e+02
   3.186820e+01   7.461785e+01
  -9.563101e+01   1.816016e+01
  -1.354635e+02  -6.271969e+01
   1.379131e+00  -1.094621e+02
   8.189317e+01  -7.405320e+01
   1.073900e+02   3.105189e+01
   5.217142e+01   6.463194e+01
  -3.209827e+01   8.956311e+01
  -3.367781e+01   1.463578e+01
   2.118314e+01  -1.590206e+01
   5.120938e+01  -5.281260e+00
   6.069780e+00   3.137514e+01
  -7.962055e+01   5.818784e+01
  -1.137032e+02   3.996523e+01
  -5.427640e+01  -1.594857e+01
   5.385775e+01  -8.000139e+01
   3.579753e+01  -1.011005e+02
   2.041507e+00  -2.055043e+01
  -1.828156e+01   2.430475e+01
  -2.529456e+01   6.046509e+01
  -1.287290e+01  -1.568291e+01
   6.872306e+00  -5.549215e+01
  -1.160184e+01  -2.286745e+01
  -2.962644e+00   1.189923e+01
   8.444030e+01   2.005869e+01
   5.183626e+01  -2.011590e+01
   1.354630e+00  -4.513089e+01
  -5.101799e+01  -4.030309e+01
   1.520169e+00  -3.296202e+00
   2.432353e+01   6.101893e+01
   6.867389e+00   3.095604e+01
  -4.038086e+01  -5.008108e+01
  -9.276062e+00  -7.713942e+01
   4.059445e+01  -2.666585e+01
   4.724822e+01   5.151710e+01
   4.938369e+00   8.867419e+01
  -6.682089e+01   3.055388e+01
  -1.075817e+02  -1.974290e+01
  -6.118029e+01  -5.019102e+01
   4.223983e+01  -8.482764e+01
   6.700721e+01  -4.504568e+01
   3.021367e+01  -3.748480e+01
  -3.017656e+01   1.881794e+01
   1.245306e+01  -2.457609e+01
   5.898266e+00   2.359902e+00
   1.125930e+02  -3.737636e+01
