
 $NMID
 id='ANONYMOUS ', fmtdat='(2E16.6)'
 volume=1.0
 tramp=1.0
 $END
  -3.940562e+03  -1.022534e+02
  -2.396651e+03  -2.394445e+03
   8.185385e+02  -2.332902e+03
   1.676088e+03  -1.017117e+03
   1.082191e+03   3.820971e+02
  -4.081278e+02   4.152431e+02
  -6.995787e+02  -4.616948e+02
  -9.069795e+01  -7.115237e+02
   6.964453e+02  -6.498609e+02
   6.550040e+02   6.328411e+01
   6.090308e+02   8.079825e+02
  -1.591484e+02   8.576721e+02
  -5.270521e+02   5.829592e+01
  -3.631589e+02  -5.548194e+02
   1.565738e+02  -7.512226e+02
   5.994177e+02   8.654482e+00
   3.381859e+02   6.139824e+02
  -3.189088e+02   6.512203e+02
  -5.679696e+02   1.448997e+02
  -4.646120e+02  -3.488543e+02
  -4.135169e+01  -4.442091e+02
   1.897463e+02  -2.571874e+02
   1.692094e+02   1.385632e+01
  -6.085350e+01   2.517765e+01
  -3.656906e+02  -2.131653e+02
  -1.058698e+02  -4.072272e+02
   5.098959e+02  -3.096241e+02
   6.287333e+02   2.009714e+02
   3.413711e+02   5.413167e+02
  -4.031835e+02   3.020190e+02
  -6.488289e+02  -1.513798e+02
  -2.539359e+02  -4.291485e+02
   3.201569e+02  -3.951387e+02
   5.550882e+02  -1.602582e+02
   3.497328e+02   1.850073e+02
   3.878910e+01   3.838232e+02
  -1.807186e+02   1.938365e+02
  -1.142992e+02  -1.679479e+02
   1.775560e+02  -3.043329e+02
   3.344134e+02   7.494390e+01
   1.407097e+02   6.225626e+02
  -4.097458e+02   5.927526e+02
  -3.622542e+02   6.524690e+00
  -1.272067e+02  -4.318515e+02
   2.455287e+02  -1.676717e+02
   3.399437e+02   3.151320e+02
  -8.174825e+01   4.668917e+02
  -5.217847e+02   1.241658e+02
  -5.531500e+02  -3.659335e+02
  -1.453214e+02  -5.537426e+02
   2.758294e+02  -3.241935e+02
   5.487103e+02   9.579975e+01
   3.614159e+02   3.141093e+02
  -1.476736e+02   2.721276e+02
  -3.332257e+02   1.071556e+02
  -1.516208e+02  -1.537016e+02
   9.662950e+01  -3.895005e+01
   1.332040e+02   1.230785e+02
  -1.604208e+02   1.444225e+02
  -2.758592e+02  -2.582893e+01
  -1.110576e+02  -2.616963e+02
   1.880035e+02  -2.349695e+02
   3.225586e+02  -5.648048e+01
   2.183959e+02   8.870213e+01
  -5.472174e+01   2.648923e+02
  -2.308588e+02   3.503690e+02
  -3.706224e+02   1.786507e+02
  -3.106427e+02  -1.691801e+02
  -2.108638e+01  -4.113395e+02
   1.128948e+02  -3.508737e+02
   1.031857e+02  -1.267854e+02
   2.729095e+01  -4.595138e+01
   4.889518e+01  -9.681727e+01
   2.096082e+02  -6.367282e+01
   2.268792e+02   6.734748e+01
   1.096006e+02   2.795722e+02
  -5.667052e+01   2.362197e+02
  -2.074011e+02   7.267278e+00
  -1.968253e+02  -2.413391e+02
   3.088780e+01  -2.687698e+02
   2.524941e+02  -9.625974e+01
   3.374913e+02   1.693483e+02
   2.043745e+02   3.178704e+02
  -1.437627e+02   2.704127e+02
  -1.693092e+02   1.210757e+02
  -1.438272e+02   4.776512e+01
  -1.008779e+02   4.126736e+01
  -2.619341e+02   4.335890e+01
  -3.690482e+02  -8.201243e+01
  -3.205783e+02  -2.852974e+02
  -1.080022e+00  -4.881038e+02
   4.081602e+02  -3.717279e+02
   4.738126e+02  -1.461223e+02
   3.013873e+02   1.101145e+02
   8.215833e+01   2.604562e+02
  -9.029767e+01   1.860428e+02
  -9.340179e+01  -2.067436e+00
   1.097957e+02  -1.095642e+02
   1.964501e+02   3.605196e+01
   1.371018e+01   1.811909e+02
  -1.860619e+02   1.939129e+02
  -1.063475e+02  -3.691204e+01
   7.706851e+01  -1.694196e+02
   1.428540e+02  -5.855097e+01
   1.764033e+02   2.777540e+02
   1.119518e+01   3.367776e+02
  -1.894888e+02   1.879925e+02
  -3.035655e+02  -3.360252e+01
  -2.333872e+02  -2.926473e+02
  -6.954232e+01  -2.575467e+02
   1.438169e+02  -1.365282e+02
   1.603284e+02  -1.001421e+01
   2.975566e+01   2.927331e+01
  -8.709059e+01  -7.683537e+01
   1.356574e+00  -1.357259e+02
   1.557276e+02  -7.882693e+01
   1.915868e+02   3.060488e+01
   2.049531e+01   6.740144e+01
  -1.048502e+02  -5.421889e+00
  -2.495817e+01  -8.131234e+01
   1.229275e+02  -7.674489e+01
   3.189734e+02   2.321365e+01
   3.289146e+02   1.728240e+02
   4.283122e+01   2.410098e+02
  -1.927438e+02   2.556230e+02
  -2.913448e+02   1.380386e+02
  -1.196182e+02  -7.772608e+01
   1.507449e+01  -1.008813e+02
   1.044357e+02  -4.942225e+00
  -1.017754e+01   1.314648e+02
  -1.753094e+02   2.549797e+01
  -2.132535e+02  -9.300623e+01
  -6.171002e+01  -2.210058e+02
   7.698413e+01  -1.460001e+02
   1.270694e+02  -3.145364e+01
   6.736684e+01   7.319121e+00
  -2.058113e+01  -2.687697e+01
  -4.177249e+01  -1.179856e+02
   4.397808e+01  -1.217823e+02
   2.008321e+02  -3.334981e+01
   1.672078e+02   1.135239e+02
  -8.264340e+00   2.135086e+02
  -1.525464e+02   1.570626e+02
  -1.652000e+02  -1.567698e+01
  -1.140517e+02  -1.031093e+02
   5.293454e+01  -5.481077e+01
   7.796189e+01  -4.042110e+01
  -1.414761e+01   1.861056e+01
  -1.551298e+01   2.612543e+01
  -5.591151e+01  -2.047827e+01
   6.997945e+01   3.353249e+01
   1.084551e+02   9.039755e+01
   3.569145e+01   1.926757e+02
  -1.475732e+02   1.152168e+02
  -2.743105e+02   3.545477e+00
  -1.986385e+02  -1.471616e+02
  -6.138588e+01  -2.049332e+02
   9.447752e+01  -1.829625e+02
   1.338116e+02   1.912714e+01
   6.568343e+01   7.478526e+01
  -1.914335e+01   2.509828e+01
   3.978219e+01  -4.958953e+01
   7.411974e+01   4.353016e+01
   4.034473e+00   5.646395e+01
  -1.944193e+01   1.045694e+02
  -9.247243e+01   5.365504e+01
  -1.400467e+02  -1.181517e+01
   1.929764e+01  -1.730410e+02
   1.574966e+02  -9.943285e+01
   1.828682e+02   1.078840e+02
   6.379556e+01   2.371070e+02
  -1.060958e+02   2.367994e+02
  -2.818944e+02   9.131608e+01
  -2.221808e+02  -8.476599e+01
  -1.142040e+02  -1.880127e+02
   4.236629e+01  -1.274260e+02
   1.090105e+02  -6.623611e+01
   7.732541e+01  -8.752619e+01
   6.320452e+01  -1.177795e+02
   6.468228e+01  -5.325179e+01
   1.277643e+02   1.473211e+01
   1.425556e+02   1.132421e+02
  -1.321158e+01   2.088479e+02
  -1.141318e+02   1.896332e+02
  -1.755876e+02  -2.136493e+00
  -1.417926e+02  -1.232661e+02
  -5.694219e+01  -1.736069e+02
   6.821634e+01  -6.147196e+01
   4.520478e+01  -7.572887e+00
  -1.227781e+01   4.773221e+01
  -5.301747e+01   2.694345e+01
   5.950318e+01   5.380772e+01
   9.618889e+01   8.077737e+00
   1.619578e+01   1.020772e+01
  -7.326810e+01   1.861131e+01
  -1.732058e+02   2.716862e+01
  -1.412630e+02  -6.060116e+01
  -1.442941e+00  -1.060354e+02
   9.047806e+01  -8.290048e+01
   1.361504e+02  -4.724517e+01
   2.798462e+01   6.314298e+01
  -3.267398e+01   3.384862e+01
  -6.780628e+01  -1.957868e+01
  -1.437811e+00  -7.400072e+01
   7.525411e+01  -5.716500e+01
   5.810505e+01   2.812568e+01
   4.394936e+01   4.259805e+01
   8.635734e+01   6.285891e+01
   5.464545e+01  -1.752782e+01
   3.491863e+01   9.989776e-01
   1.978084e+01   8.523682e+01
  -4.038333e+01   1.370662e+02
  -1.345495e+02   1.304871e+02
  -1.854039e+02  -4.979677e+00
  -1.194802e+02  -9.698712e+01
   2.884983e+00  -1.470122e+02
   8.423426e+01  -7.073581e+01
   5.118773e+01   2.637721e+01
  -4.400403e+01   5.856990e+00
  -1.458723e+02  -3.000437e+01
  -3.898856e+01  -1.050253e+02
   9.839363e+01  -1.429936e+02
   1.802512e+02  -1.095595e+01
   1.801673e+02   9.685122e+00
   6.800426e+01   8.580919e+01
  -4.709746e+01   5.931769e+01
  -2.720494e+01   1.891357e+01
   5.129469e+01  -5.541218e+01
   3.659020e+01   2.780246e+01
   3.369607e+01   1.065941e+02
  -7.918037e+01   1.670132e+02
  -1.528287e+02   5.750507e+01
  -1.314299e+02  -9.974775e+01
   2.807518e+01  -1.879088e+02
   1.123328e+02  -1.329304e+02
   1.315292e+02   2.698131e+01
   6.500347e+01   1.337047e+02
  -2.980477e+01   8.643938e+01
  -4.568430e+01   1.164480e+01
  -4.197656e+01  -1.142088e+01
  -3.371824e+01  -2.400692e+01
  -5.120594e+00   5.304386e+01
  -3.403301e+01  -1.405120e+01
  -4.322792e+01  -7.173286e+01
  -3.248192e+01  -1.007190e+02
   4.439943e+01  -5.718633e+01
   1.385241e+02   3.798814e+00
   1.410008e+02   1.052048e+02
   1.116530e+01   6.132922e+01
  -7.114946e+01   1.867257e+01
  -5.998926e+01  -3.654125e+01
   6.668568e+00  -3.656211e+01
   6.385920e+01  -4.169503e+01
   1.074203e+01  -3.786270e+01
   8.756961e+00   1.498240e+01
   2.308048e+01   2.952709e+01
   7.318795e+01  -8.127637e+00
   7.855154e+01   2.387442e+01
   1.200726e+01   6.263288e+01
  -1.319382e+02   1.371073e+02
  -1.579345e+02   6.195677e+01
  -1.222817e+02  -9.355650e+01
  -5.379650e+01  -1.751977e+02
   9.137675e+01  -1.227842e+02
   7.614775e+01  -7.811987e+01
   6.809375e+01   1.805591e+01
   1.311065e+01   2.910528e+01
  -6.472671e+00  -1.734423e+00
   5.291556e+01  -9.957056e-01
   5.960137e+01   4.181793e+01
   3.388246e+01   1.387835e+02
  -1.403175e+01   6.692000e+01
  -7.132257e+01   5.823791e+00
  -5.157519e+01  -1.287428e+02
  -3.837351e+00  -1.222170e+02
   7.365091e+01  -5.873440e+01
   9.066099e+01   7.274903e+01
   1.912902e+01   9.566590e+01
  -5.908435e+01   2.808395e+01
  -1.354053e+02  -1.319436e+01
  -2.967836e+01  -6.785597e+01
   2.543186e+01  -3.999214e+01
   2.729482e+01  -1.304714e+01
  -1.837748e+01  -3.088042e+01
  -5.056476e+01   4.909325e+00
  -1.236559e+01  -4.628603e+01
   8.258656e+01  -7.383112e+01
   9.065924e+01  -3.644381e+01
   4.574356e+01   2.601640e+00
  -6.074129e+01   1.233223e+02
  -3.328781e+01   6.520522e+01
  -5.213204e+01   3.823081e+01
   4.155041e+01  -1.151842e+00
   3.751840e+01  -6.679663e+01
   3.549672e+01   4.049449e+01
   1.055952e+01   7.258967e+01
   2.048197e+00   4.781057e+01
  -4.096763e+01   2.060291e+01
  -4.770842e+01  -3.298481e+01
   7.594921e+00   4.210945e+01
   1.190997e+00   5.998614e+01
  -2.430244e+00   5.846060e+00
   3.743952e+00  -2.010607e+01
   1.710744e+01  -5.994308e+01
   4.144134e+01  -3.515124e+01
   1.674366e+01   4.121651e+01
  -2.064946e+01   8.737285e+01
  -2.335961e+01  -1.392623e+00
  -6.257540e+01  -7.213471e+01
  -4.745470e+01  -5.580267e+01
   6.884609e+01  -5.064366e+01
   9.834982e+01  -1.612423e+01
   8.019239e+01   6.904093e+01
  -3.525815e+01   5.543613e+01
  -5.459851e+01   4.227477e+01
  -2.911159e+01   2.365477e+01
   2.499968e+01  -2.083451e+00
   2.491738e+01   4.778440e+01
  -7.026990e+01   4.186057e+01
  -9.927516e+01   1.271805e+01
