
 $NMID
 id='ANONYMOUS ', fmtdat='(2E16.6)'
 volume=1.0
 tramp=1.0
 $END
   4.087410e+03   8.183975e+01
   2.436836e+03   2.229884e+03
  -1.785458e+02   2.461299e+03
  -1.855798e+03   1.020094e+03
  -7.366906e+02  -2.057756e+02
   4.793709e+02  -3.039582e+02
   5.285397e+02   3.056279e+02
   1.998308e+02   8.019487e+02
  -6.432301e+02   7.361174e+02
  -6.833215e+02   6.524727e+00
  -4.424507e+02  -7.660029e+02
   1.683121e+02  -8.029629e+02
   5.447158e+02  -1.356427e+02
   2.430167e+02   5.914042e+02
  -2.489702e+02   6.652957e+02
  -5.386299e+02   2.697050e+01
  -3.161866e+02  -6.928230e+02
   2.746246e+02  -6.807887e+02
   5.252862e+02  -1.417511e+02
   4.193480e+02   2.462226e+02
   4.849863e+01   4.375874e+02
  -2.220439e+02   2.472142e+02
  -1.743633e+02   2.655418e+01
   1.346650e+02  -2.847745e+01
   3.938978e+02   1.818711e+02
   7.220017e+01   3.845570e+02
  -4.483777e+02   3.048971e+02
  -6.979088e+02  -1.153717e+02
  -3.249648e+02  -5.132583e+02
   3.585822e+02  -3.843260e+02
   6.114966e+02   7.650427e+01
   2.998954e+02   3.883202e+02
  -2.455413e+02   3.921970e+02
  -5.799324e+02   1.461474e+02
  -3.964462e+02  -1.378052e+02
  -6.401795e+01  -3.663803e+02
   1.764504e+02  -2.692411e+02
   9.405448e+01   1.323630e+02
  -1.390061e+02   3.369519e+02
  -3.354686e+02  -3.113419e+01
  -1.595047e+02  -5.308865e+02
   3.054147e+02  -5.843283e+02
   4.239307e+02  -1.359667e+02
   1.977725e+02   3.955139e+02
  -2.206785e+02   1.913467e+02
  -2.663630e+02  -3.084225e+02
   7.888821e+01  -4.059102e+02
   5.713027e+02  -7.191540e+01
   5.526925e+02   3.796283e+02
   1.582248e+02   5.291581e+02
  -3.344951e+02   3.332811e+02
  -6.004918e+02  -9.475310e+01
  -3.856618e+02  -3.033881e+02
   1.246903e+02  -2.661984e+02
   3.844954e+02  -9.306751e+01
   2.640786e+02   1.288541e+02
  -4.024469e+01   1.143798e+02
  -1.348182e+02  -1.015020e+02
   1.695139e+02  -1.287518e+02
   3.092313e+02   9.112372e+01
   1.588923e+02   2.532464e+02
  -1.902415e+02   2.489096e+02
  -3.147056e+02   6.707315e+01
  -2.430469e+02  -4.998625e+01
   5.883456e+01  -3.161589e+02
   2.829885e+02  -3.530096e+02
   3.575959e+02  -1.816086e+02
   2.860948e+02   1.483532e+02
   5.775082e+01   4.102277e+02
  -1.552260e+01   3.611367e+02
  -5.614123e+01   1.540136e+02
  -4.491900e+01   5.650326e+01
  -9.904256e+01   6.029770e+01
  -2.266119e+02   7.909658e+01
  -2.601015e+02   1.425978e+01
  -1.470687e+02  -2.595517e+02
   3.530998e+01  -2.347657e+02
   2.113144e+02   1.836539e+01
   1.685499e+02   2.097725e+02
   2.647004e+01   2.735474e+02
  -2.458668e+02   1.045306e+02
  -3.711850e+02  -1.291436e+02
  -1.634051e+02  -3.439072e+02
   1.256275e+02  -3.157956e+02
   1.970114e+02  -1.485442e+02
   1.364041e+02  -2.435032e+01
   1.052135e+02  -8.147078e+01
   2.512809e+02  -5.016178e+01
   4.032725e+02   1.046027e+02
   3.088065e+02   2.913516e+02
   9.993838e+00   4.767932e+02
  -3.536236e+02   3.963799e+02
  -4.577010e+02   1.855773e+02
  -3.122333e+02  -8.106284e+01
  -5.851295e+00  -2.813862e+02
   9.487229e+01  -2.460204e+02
   6.950443e+01  -3.008051e+01
  -1.137330e+02   1.096360e+02
  -1.483507e+02  -1.371943e+00
  -1.796326e+01  -1.688443e+02
   1.974931e+02  -1.623546e+02
   1.512921e+02   4.424614e+01
  -3.195952e+01   1.652619e+02
  -2.052849e+02  -2.795331e+00
  -1.520974e+02  -2.464441e+02
   3.299360e+01  -3.334995e+02
   2.396404e+02  -1.851049e+02
   3.331433e+02   5.054642e+01
   2.823912e+02   2.747910e+02
   7.297411e+01   2.681167e+02
  -1.210606e+02   1.595651e+02
  -1.655320e+02   1.350194e+01
  -4.577049e+01  -1.923679e+01
   4.783307e+01   6.766622e+01
   9.342146e+00   1.256083e+02
  -1.127981e+02   6.517707e+01
  -1.470751e+02   2.869107e+01
  -5.247220e+01  -3.930030e+01
   9.399166e+01  -1.268798e+01
   2.995893e+01   8.373719e+01
  -1.643484e+02   6.341326e+01
  -2.410822e+02  -7.734866e+00
  -2.857421e+02  -9.896478e+01
  -1.024116e+02  -2.366994e+02
   1.787269e+02  -2.442395e+02
   2.454354e+02  -1.235197e+02
   1.692488e+02   4.924972e+01
   1.186400e+01   1.071349e+02
  -5.425641e+01  -2.149725e+00
   4.677923e+01  -1.005585e+02
   2.132346e+02  -4.861966e+01
   2.074766e+02   7.232396e+01
   4.064603e+01   2.262052e+02
  -7.903159e+01   1.386692e+02
  -1.497242e+02   6.019666e+00
  -6.752616e+01  -4.012235e+01
   3.193927e+01   7.705159e-01
   4.432994e+01   8.719702e+01
  -1.010980e+02   1.155981e+02
  -2.300532e+02  -2.023325e+01
  -1.751191e+02  -1.248186e+02
   2.095776e-02  -2.299716e+02
   1.425223e+02  -1.950478e+02
   1.325578e+02  -2.162446e+01
   4.236716e+01   8.659945e+01
  -9.260534e+01   8.816571e+01
  -9.046557e+01   3.556020e+01
   2.439768e+01  -3.200033e+01
   4.035080e+01   1.525558e+00
  -1.660092e+01   1.474986e+01
  -8.619093e+01  -3.646558e+01
  -7.447897e+01  -9.005291e+01
   1.987409e+01  -1.529867e+02
   1.267511e+02  -1.234058e+02
   2.214284e+02  -2.441492e+01
   1.970384e+02   1.719165e+02
   5.195855e+01   2.091213e+02
  -1.093737e+02   1.768363e+02
  -1.471577e+02  -7.564723e+00
  -6.258134e+01  -5.677676e+01
  -4.193217e+01  -4.738867e+01
  -2.104585e+01   3.937117e+01
  -1.164483e+02   3.697146e+01
  -8.205273e+01  -1.138276e+01
   2.968900e+01  -1.217360e+02
   1.350488e+02  -7.725539e+01
   6.797646e+01   6.933690e+00
  -3.338370e+01   1.164079e+02
  -1.384022e+02   7.644910e+01
  -1.944720e+02  -3.496497e+01
  -8.010225e+01  -2.159461e+02
   1.125447e+02  -2.514135e+02
   2.887217e+02  -7.493752e+01
   2.545500e+02   5.341022e+01
   1.001649e+02   1.928644e+02
  -3.488109e+01   1.700277e+02
  -1.298669e+02   6.003796e+01
  -8.194205e+01   9.792652e+01
  -6.158311e+01   1.070222e+02
  -5.490013e+01   8.978656e+01
  -1.142790e+02  -1.472325e+01
  -1.277255e+02  -1.398857e+02
  -2.001739e+01  -2.346551e+02
   7.319244e+01  -1.725985e+02
   1.792378e+02  -2.232073e+01
   1.123012e+02   1.595700e+02
   6.436629e+00   1.520854e+02
  -5.571432e+01   2.647079e+01
  -1.924051e+01   2.799558e+01
  -4.519530e+00  -6.332088e+01
   2.862623e+01  -3.752578e+01
  -3.122469e+00  -4.419526e+01
  -8.804881e+01  -2.207867e+01
  -3.440203e+01  -3.311294e+01
   3.384332e+01  -1.771504e+01
   1.775275e+02   7.813982e+00
   1.426773e+02   5.445843e+01
   4.208238e+01   8.218043e+01
  -1.562366e+02   9.798386e+01
  -1.546906e+02   1.457801e+01
  -3.555088e+01  -9.532484e+01
   4.869004e+01  -1.688082e+01
   4.092458e+01   2.831952e+01
   2.368280e+01   5.585657e+01
  -8.971482e+01   7.392628e+01
  -4.352508e+01  -2.084123e+01
  -7.325060e+01  -6.348611e+01
  -4.384942e+01  -2.684139e+01
  -5.704341e+01   1.356011e+00
  -9.638241e+01  -1.591459e+01
  -2.268338e+01  -3.879630e+01
   4.007567e+01  -1.378331e+02
   1.162975e+02  -1.262006e+02
   1.563383e+02  -1.184046e+01
   1.467745e+02   1.338946e+02
   1.684199e+00   1.313562e+02
  -7.545495e+01   4.553287e+01
  -5.169666e+00  -1.135278e+01
   7.414186e+01  -1.424422e+01
   1.324686e+02   3.895451e+01
   4.946945e+01   8.207529e+01
  -1.002618e+02   9.444302e+01
  -1.943074e+02   6.137679e+01
  -1.550441e+02  -2.840562e+01
  -6.153442e+01  -8.977927e+01
   6.014978e+01  -8.983289e+01
   2.607469e+01   2.899418e+01
  -5.370490e+01   1.893567e+01
  -8.172214e+01   8.966815e+00
  -5.246907e+01  -1.030371e+02
   7.388212e+01  -1.815720e+02
   1.767987e+02  -1.318803e+01
   1.217150e+02   9.878907e+01
  -2.542104e+00   1.572203e+02
  -7.923605e+01   1.095125e+02
  -1.018225e+02  -4.677461e+01
  -5.683159e+01  -9.845112e+01
   1.472687e+01  -9.379271e+01
   2.556389e+01  -2.784974e+01
   7.130319e+01   3.660611e+01
   4.014789e+01  -9.183309e+00
   3.453396e+00  -1.632088e+01
   5.126972e+01   2.276951e+01
   6.606980e+01   4.970113e+01
   4.688251e+01   1.205837e+02
  -3.548173e+01   5.637139e+01
  -1.711683e+02  -4.303352e+01
  -1.468302e+02  -8.796909e+01
  -1.732563e+01  -7.003658e+01
   4.897869e+01  -4.280599e+01
   5.185536e+01  -4.884585e+00
  -2.437466e+01   6.008243e+01
  -2.587748e+01   3.859808e+01
  -1.457558e+00  -1.286343e+01
   1.759325e+00  -1.624010e+01
  -2.762897e+00  -5.892608e+00
  -1.022663e+02  -5.878212e+00
  -9.022457e+01  -2.247889e+01
  -2.270644e+01  -7.063267e+01
   1.070311e+02  -1.225731e+02
   2.146601e+02  -6.504088e+01
   1.444878e+02   5.922638e+01
   2.417739e+01   1.824967e+02
  -5.616191e+01   1.143876e+02
  -1.299143e+02   6.026037e+01
  -9.269758e+01  -6.250964e+01
  -7.991232e+00  -3.111389e+01
   2.412289e+01  -1.220667e+01
   2.122296e+01   1.107730e+01
   3.895699e+00  -6.764721e+01
  -3.550682e+01  -1.131338e+02
   5.110170e+01  -8.878003e+01
   4.624525e+01  -1.162290e+01
   1.001189e+02   1.029604e+02
   1.893095e+01   1.105525e+02
  -8.115055e+01   6.930816e+01
  -9.863032e+01  -5.424390e+01
  -2.166016e+00  -1.072114e+02
   7.066059e+01  -5.166177e+01
   1.134184e+02  -3.908293e+01
   3.228200e+01   6.086192e+01
  -1.978356e+01   5.382560e+01
  -7.963710e+01   4.421978e+01
   2.597012e+01  -5.796329e+00
   8.940623e+01   3.018307e+01
  -9.919889e+00   5.795999e+01
  -4.756212e+01   4.503679e+01
  -1.081956e+02   8.139020e+01
  -3.873380e+01  -1.481415e+01
   5.438287e+01  -1.325257e+02
   3.601634e+01  -8.754311e+01
   7.463604e+00   1.710846e+01
   2.028157e+01   7.422308e+01
   4.630588e+00  -2.978732e+01
  -4.087954e-01  -1.844103e+01
  -2.577290e+01  -8.611701e+01
  -1.687744e+01  -3.408984e+01
   6.919269e+01   1.184918e+01
   6.523778e+01   4.773724e+01
   8.245205e+00   6.325932e+00
   5.052499e+00  -5.926729e+00
  -9.184326e+00   4.864453e+00
   6.146513e+01   6.952491e+01
  -1.059893e+00   4.432662e+01
  -6.033853e+01   6.419983e+00
  -4.300044e+01  -3.536705e+01
  -1.107787e+01  -7.765233e+01
   3.826320e+01  -1.113841e+01
   1.065923e+02   4.995148e+01
   4.119400e+01   7.200779e+01
  -4.433068e+01   4.315457e+01
  -1.140089e+02  -3.801185e+01
  -6.229255e+01  -7.270436e+01
   2.431819e+01  -3.501137e+01
   5.714486e+01  -2.261949e+01
  -2.113011e+01  -4.632119e+00
  -3.913899e+01   2.062813e+01
  -1.498284e+00  -1.201202e+01
  -9.208769e+00  -5.717085e+01
   9.172699e+01  -4.525757e+01
