
 $NMID
 id='ANONYMOUS ', fmtdat='(2E16.6)'
 volume=1.0
 tramp=1.0
 $END
   3.086447e+03   1.282905e+02
   2.311754e+03   1.696838e+03
  -1.114249e+02   2.163728e+03
  -1.457821e+03   1.111910e+03
  -1.087381e+03   9.912260e+01
  -2.177263e+01  -4.237671e+02
   3.890689e+02   4.388725e+01
  -6.502553e+01   6.352336e+02
  -5.634399e+02   5.674646e+02
  -7.534200e+02   1.235358e+02
  -3.858331e+02  -6.335317e+02
   1.329024e+02  -6.487110e+02
   3.356642e+02  -2.201766e+02
   3.213232e+02   4.335245e+02
  -1.799640e+02   5.889437e+02
  -4.489598e+02   4.803302e+01
  -3.021666e+02  -4.911703e+02
   1.282922e+02  -6.325242e+02
   5.015219e+02  -3.134306e+02
   4.244846e+02   2.736887e+02
   1.096094e+02   3.341023e+02
  -1.087426e+02   2.354157e+02
  -8.873888e+01   1.122903e+02
   1.762030e+02   2.201285e+01
   3.095372e+02   1.985623e+02
   8.557107e+01   3.935388e+02
  -4.303863e+02   1.715518e+02
  -6.104488e+02  -5.727861e+01
  -2.728960e+02  -3.383068e+02
   2.906570e+02  -2.397582e+02
   4.911438e+02   1.335941e+02
   1.590661e+02   3.613967e+02
  -2.304592e+02   4.242763e+02
  -4.344571e+02   7.259207e+01
  -3.433367e+02  -1.428847e+02
  -8.895760e+01  -2.376890e+02
   3.971538e+01  -1.731301e+02
  -2.124232e+01   1.126921e+02
  -2.174530e+02   1.940226e+02
  -2.757109e+02  -1.152398e+02
  -7.446061e+01  -5.050815e+02
   2.003668e+02  -4.463298e+02
   3.951725e+02   7.042593e+01
   1.956297e+02   3.698756e+02
  -1.533137e+02   1.808535e+02
  -2.089571e+02  -3.368344e+02
   1.245002e+02  -4.730797e+02
   4.296507e+02  -7.181026e+01
   4.588767e+02   3.427305e+02
   1.839601e+02   4.427327e+02
  -2.446775e+02   2.439639e+02
  -5.301685e+02  -8.518167e+01
  -3.116435e+02  -2.889826e+02
   4.213281e+01  -2.603050e+02
   3.448421e+02  -9.024616e+01
   1.882527e+02   5.064850e+01
  -5.735625e+01   4.480442e+01
  -8.810752e+01  -6.877793e+01
   1.370822e+02  -8.979568e+01
   2.636664e+02   3.541015e+01
   1.045537e+02   2.374051e+02
  -1.357667e+02   2.495858e+02
  -3.212252e+02   1.170675e+02
  -2.218466e+02  -9.614254e+01
   2.101739e+01  -2.576514e+02
   2.423102e+02  -3.376608e+02
   3.619410e+02  -1.982386e+02
   1.978470e+02   1.305447e+02
   8.773520e+01   3.921037e+02
  -7.462458e+01   3.391508e+02
  -5.032728e+01   1.156652e+02
  -3.388144e+01   7.013189e+01
  -1.704904e+02   8.231977e+01
  -2.407314e+02   3.777695e+01
  -2.205653e+02  -7.623870e+01
  -1.486629e+02  -2.458309e+02
   7.610899e+01  -2.039012e+02
   1.602876e+02   4.011888e+01
   1.624459e+02   2.305614e+02
  -3.537673e+01   2.328627e+02
  -2.098071e+02   5.821457e+01
  -3.241406e+02  -2.033636e+02
  -1.679040e+02  -2.671841e+02
   2.503681e+01  -2.549822e+02
   1.383350e+02  -1.209519e+02
   1.403698e+02  -7.367499e+01
   1.478534e+02  -4.357052e+01
   2.682843e+02  -4.029392e+01
   3.888382e+02   7.382359e+01
   2.958819e+02   2.741384e+02
  -1.062503e+01   4.050766e+02
  -3.433808e+02   3.638361e+02
  -4.963208e+02   1.472066e+02
  -2.697292e+02  -6.207431e+01
  -7.002026e+01  -2.503374e+02
   8.253054e+01  -1.998284e+02
   2.681317e+01  -3.329525e+01
  -1.239920e+02   3.055046e+01
  -2.245603e+02  -6.537367e+01
  -1.608076e+01  -1.199374e+02
   1.025417e+02  -1.180889e+02
   1.141501e+02   4.905498e+01
  -1.382491e+01   1.876343e+02
  -1.666694e+02  -2.997248e+01
  -1.727967e+02  -2.490572e+02
   8.096850e+00  -3.185404e+02
   2.146505e+02  -2.327943e+02
   2.782700e+02   9.166501e+01
   3.054128e+02   2.822615e+02
   7.081917e+01   2.407768e+02
  -1.092433e+02   1.638005e+02
  -1.180272e+02  -1.549396e+01
  -6.391379e+01   1.468292e+01
   7.963048e+01   3.340849e+01
   3.981710e+01   9.416864e+01
  -1.661163e+02   7.464296e+01
  -1.451611e+02   3.321649e+01
  -3.097540e+01  -1.067349e+02
   8.965978e+01  -1.765151e+01
   5.786259e+01   1.006420e+02
  -1.716609e+02   8.399589e+01
  -2.591958e+02  -6.396851e+01
  -2.506918e+02  -1.543219e+02
  -1.258013e+01  -2.304805e+02
   2.095271e+02  -2.345004e+02
   2.658670e+02  -5.564019e+01
   1.285408e+02   2.944274e+01
  -2.243632e+01   9.876861e+01
  -8.402277e+01  -3.886266e+01
   2.703670e+01  -8.289060e+01
   2.052563e+02  -2.628204e+01
   2.017603e+02   7.862770e+01
   4.938441e+01   1.784017e+02
  -5.879226e+01   1.474972e+02
  -1.442458e+02   2.148778e+00
  -9.539897e+01  -2.355181e+01
   2.099020e+01   3.160748e+01
   4.114588e+00   9.040505e+01
  -1.062637e+02   1.247116e+02
  -2.275333e+02  -9.648955e+00
  -1.924716e+02  -1.183848e+02
   1.459384e+01  -1.989849e+02
   1.399469e+02  -1.967806e+02
   1.487211e+02  -1.918086e+01
   4.486322e+01   1.001147e+02
  -1.227333e+02   8.743711e+01
  -6.308727e+01   1.241323e+01
   1.015765e+01  -3.696628e+01
   1.183664e+01   1.872187e+01
   5.133855e+00   2.641416e+01
  -3.656552e+01  -3.137680e+01
  -8.254295e+01  -1.256706e+02
   2.565003e+01  -1.293256e+02
   1.000984e+02  -1.578530e+02
   2.681093e+02  -2.540678e+01
   1.772025e+02   1.952435e+02
   1.307666e+01   2.258287e+02
  -1.438312e+02   1.429866e+02
  -9.890111e+01   1.514314e+01
  -5.355224e+01  -6.219710e+01
  -8.421027e+01  -1.239523e+01
  -2.864403e+01  -1.069454e+01
  -1.104209e+02   1.598484e+01
  -6.343766e+01  -4.611671e+01
   3.505379e+01  -8.709813e+01
   8.939182e+01  -6.878770e+01
   1.390345e+02   2.417273e+01
   1.717199e+01   8.852431e+01
  -1.619643e+02   8.850684e+01
  -1.518180e+02  -4.179607e+01
  -6.570531e+01  -2.108130e+02
   1.272183e+02  -1.840512e+02
   2.767710e+02  -5.214152e+01
   2.489484e+02   6.774867e+01
   1.211593e+02   2.069198e+02
  -1.605548e+01   1.624960e+02
  -8.332595e+01   6.093512e+01
  -5.300862e+01   5.413146e+01
  -2.090914e+01   1.060662e+02
  -9.077282e+01   7.601777e+01
  -1.206582e+02  -1.347832e+00
  -9.665374e+01  -1.696130e+02
  -1.189045e+01  -1.839182e+02
   9.594007e+01  -1.376833e+02
   1.527619e+02  -5.805111e+00
   1.231307e+02   1.452645e+02
   1.532614e+01   1.176727e+02
  -8.113509e+01   5.342825e+01
  -5.255963e+01   2.817412e+01
   2.148385e+01  -5.908474e+01
  -1.323007e+01  -9.948277e+00
  -1.059438e+01  -3.291468e+01
  -5.146175e+01  -2.517061e-01
  -2.893658e+01  -8.743718e+00
   8.110575e+01  -3.242683e+01
   1.756889e+02  -1.479093e+01
   1.208829e+02   3.532644e+01
   2.155903e+01   9.488061e+01
  -1.426130e+02   7.141002e+01
  -1.402013e+02  -8.403536e+00
  -3.689435e+01  -2.598073e+01
   1.011182e+02  -3.119205e+01
   5.942270e+01   7.559818e+00
   7.063631e+00   1.211580e+02
  -5.071645e+01   2.339539e+01
  -7.540956e+01   3.012098e+01
  -7.886454e+01  -7.174638e+01
  -4.430027e+01  -4.280024e+01
  -6.118890e+01   9.436763e+00
  -9.097543e+01  -6.865516e+00
  -3.987827e+01  -7.588796e+01
   4.142633e+01  -1.205193e+02
   9.115597e+01  -1.149059e+02
   1.675066e+02  -4.152225e+01
   1.656791e+02   9.697469e+01
   1.938555e+01   1.334076e+02
  -1.194206e+02   6.054958e+01
  -7.199219e+01  -4.107144e+01
   2.792602e+01  -7.078956e+00
   1.066695e+02   5.145754e+01
   6.364413e+01   9.702904e+01
  -1.148349e+02   1.161289e+02
  -1.855818e+02   4.275897e+00
  -1.683692e+02  -2.227506e+01
  -4.099616e+01  -5.831230e+01
   6.071500e+01  -9.211985e+01
   2.545456e+01   2.216162e+01
  -4.865530e+01   4.076465e+01
  -7.991985e+01  -2.211788e+01
  -3.644322e+01  -8.053878e+01
   7.544079e+01  -1.590526e+02
   1.556578e+02  -3.645322e+01
   9.750712e+01   7.873930e+01
   3.055780e+01   1.718253e+02
  -7.054242e+01   1.243615e+02
  -8.984235e+01   7.593973e+00
  -3.502465e+01  -1.221313e+02
  -2.712310e+00  -9.466733e+01
   1.479306e+01  -9.642916e+00
   2.200814e+01  -6.368602e+00
  -6.151630e+00   5.052861e+01
   3.981967e+00  -5.317717e+01
   4.031530e+01   8.672511e+00
   5.015657e+01   6.171668e+01
   4.955029e+01   1.130234e+02
  -6.351859e+01   3.348262e+01
  -1.412683e+02  -2.535201e+01
  -9.606211e+01  -5.430245e+01
  -3.124223e+01  -6.637622e+01
   8.883314e+01   6.899848e-01
   1.072138e+02  -2.901403e+01
  -6.492374e+00   6.831747e+00
  -3.953060e+01   1.815900e+01
  -2.284462e+01   1.052991e+01
   1.478293e+01   1.707290e-02
  -3.325726e+00  -9.953532e+00
  -7.222160e+01   6.062189e+00
  -5.270640e+01  -6.383401e+01
  -3.213340e+01  -4.873029e+01
   7.110847e+01  -1.282607e+02
   1.600868e+02  -2.094449e+01
   1.846460e+02   5.134057e+01
   3.867986e+01   1.541091e+02
  -9.681208e+01   1.144643e+02
  -1.145099e+02   8.029389e+01
  -8.797956e+01  -5.211656e+00
  -4.472190e+01  -5.015890e+01
   7.494076e+00   3.917595e+00
  -5.374380e+01  -3.588062e+00
  -3.727986e+01  -5.268201e+01
  -5.957472e+01  -7.099149e+01
   3.567103e+01  -7.420787e+01
   1.061614e+02  -7.320941e+00
   5.222156e+01   5.892974e+01
   1.484011e+01   1.220324e+02
  -7.731984e+01   2.695764e+01
  -1.150907e+02  -5.583523e+01
  -3.762131e+01  -6.717256e+01
   8.028519e+01  -7.545359e+01
   1.343901e+02   1.176164e+01
   5.711103e+01   6.035333e+01
  -5.128176e+01   4.801055e+01
  -6.920558e+01   6.053526e+01
   6.504419e+00  -3.965764e+01
   8.852969e+01  -8.335702e+00
   1.524473e+01   2.610088e+01
  -6.300846e+01   6.226037e+01
  -1.181057e+02   6.183653e+01
  -7.400631e+01  -7.632975e+01
   2.306233e+01  -6.358273e+01
   6.566298e+01  -4.898539e+01
   4.549361e+01  -2.864706e+01
  -8.438116e+00   5.478712e+01
  -1.801656e+01   4.058189e+01
  -5.092139e+01  -3.665703e+01
  -5.766864e+01  -5.045268e+01
   6.970195e+00  -1.333003e+01
   4.194977e+01  -7.759583e+00
   2.801027e+01   1.313721e+01
   5.071053e+01  -2.723054e+01
  -2.555580e+01   8.572217e+00
   6.886625e+00  -2.397759e+00
   6.047396e+00   2.220119e+01
   1.348019e+01   4.862124e+01
  -3.724614e+01   4.626510e+01
  -8.402291e+00  -5.577850e+01
  -2.703282e+01  -6.735341e+01
   2.954124e+01  -1.333193e+01
   9.964250e+01   3.798154e+01
  -1.545725e+01   5.478564e+01
  -6.960570e+01   3.242907e+00
  -1.013538e+02  -1.361858e+01
  -6.199911e+01  -7.192807e+01
   2.580678e+01  -2.284701e+01
   4.958293e+01  -1.894071e+01
   8.382067e+00  -1.476630e+01
  -3.209434e+01   1.487401e+01
  -1.714331e+01  -8.640262e+00
   2.186107e+01  -3.498286e+01
   7.556930e+01  -1.762455e+01
