
 $NMID
 id='ANONYMOUS ', fmtdat='(2E16.6)'
 volume=1.0
 tramp=1.0
 $END
   4.518342e+03  -1.903333e+02
   2.405584e+03   2.539996e+03
  -4.556251e+02   3.160522e+03
  -2.073015e+03   1.122362e+03
  -9.526149e+02  -5.756573e+02
   7.398224e+02  -7.410004e+02
   1.140601e+03   4.480703e+02
   5.824023e+01   1.048362e+03
  -7.377410e+02   8.199545e+02
  -1.043371e+03  -6.683316e+01
  -4.879543e+02  -8.805952e+02
   1.834179e+02  -9.711645e+02
   7.493203e+02  -1.190367e+02
   3.959613e+02   7.043887e+02
  -2.663182e+02   7.183002e+02
  -5.941725e+02  -4.333052e+01
  -2.459789e+02  -7.849855e+02
   2.906859e+02  -6.570538e+02
   6.543923e+02  -4.641872e+01
   3.955607e+02   4.243941e+02
  -4.635295e+00   4.668850e+02
  -2.626575e+02   3.015084e+02
  -2.325569e+02   1.990166e+00
   1.142306e+02  -2.274607e+01
   4.172380e+02   8.279988e+01
   1.942294e+02   3.662854e+02
  -5.192136e+02   5.049666e+02
  -8.121325e+02  -6.778133e+01
  -4.442320e+02  -6.244655e+02
   3.465454e+02  -4.277797e+02
   7.895883e+02  -5.243410e+01
   3.557134e+02   4.538018e+02
  -3.141739e+02   5.574101e+02
  -5.756274e+02   2.052280e+02
  -4.344823e+02  -1.818818e+02
  -1.154474e+02  -4.662256e+02
   2.076548e+02  -3.033364e+02
   2.297406e+02   1.847002e+02
  -1.542818e+02   4.420039e+02
  -4.604247e+02  -1.433603e+01
  -2.159033e+02  -6.202129e+02
   3.234269e+02  -8.017827e+02
   5.900998e+02  -5.178652e+01
   2.824139e+02   4.910125e+02
  -2.587424e+02   3.962909e+02
  -4.186868e+02  -2.760311e+02
   5.194656e+01  -4.932979e+02
   6.107919e+02  -1.653892e+02
   6.961743e+02   4.325847e+02
   1.976990e+02   5.741919e+02
  -4.462101e+02   3.833169e+02
  -6.523743e+02  -3.389376e+01
  -4.180912e+02  -4.067038e+02
   2.184690e+02  -4.208209e+02
   4.953537e+02  -6.506886e+01
   3.356665e+02   2.372018e+02
  -1.565832e+02   1.172334e+02
  -2.035922e+02  -1.006176e+02
   1.878161e+02  -1.758690e+02
   3.586052e+02   4.232132e+01
   1.611309e+02   2.790739e+02
  -2.222334e+02   3.196168e+02
  -3.572061e+02   1.028908e+02
  -1.681873e+02  -8.778679e+01
   6.212726e+00  -2.438146e+02
   2.227809e+02  -3.230577e+02
   2.981213e+02  -2.317712e+02
   3.427850e+02   1.722014e+02
   1.208422e+02   3.861632e+02
  -8.326292e+01   3.891239e+02
  -1.405151e+02   1.726493e+02
  -6.711777e+01  -8.143306e+01
  -5.677234e+01   8.075479e+01
  -2.091606e+02   1.326566e+02
  -2.944686e+02  -1.801660e+01
  -1.942817e+02  -2.229355e+02
   5.981219e+01  -2.505267e+02
   2.537867e+02  -7.050002e+00
   1.798715e+02   2.309022e+02
   4.412096e+01   3.211153e+02
  -2.424602e+02   1.867750e+02
  -3.758959e+02  -1.540326e+02
  -2.048665e+02  -3.226792e+02
   1.210374e+02  -3.196515e+02
   2.477225e+02  -1.214382e+02
   1.392905e+02   3.262447e+01
   5.635038e+01  -5.119742e+01
   2.598880e+02  -1.073382e+02
   3.812321e+02   4.909019e+01
   3.257494e+02   2.743655e+02
   6.230612e+01   4.084897e+02
  -3.131478e+02   4.354620e+02
  -4.972586e+02   2.141954e+02
  -2.954219e+02  -7.313857e+01
  -1.638049e+01  -3.333591e+02
   1.386633e+02  -2.521964e+02
   1.121632e+02  -6.027200e+01
  -9.302512e+01   1.058121e+02
  -2.005491e+02  -9.238427e-01
  -1.004319e+02  -1.519937e+02
   2.388014e+02  -1.960440e+02
   1.931326e+02   4.651481e+01
   1.044300e+01   2.631405e+02
  -2.218427e+02   8.477136e+01
  -1.817376e+02  -2.522906e+02
   4.276545e+01  -3.213697e+02
   2.726933e+02  -2.016197e+02
   3.094428e+02   7.222187e+01
   2.816324e+02   2.247850e+02
   9.684397e+01   2.705976e+02
  -1.365676e+02   1.844997e+02
  -1.939516e+02   2.600323e+01
  -8.685974e+01  -5.530434e+01
   4.508884e+01   1.001128e+01
   8.912669e+01   1.364409e+02
  -1.397263e+02   1.299920e+02
  -1.874422e+02  -1.854769e+00
  -5.882319e+01  -9.062128e+01
   6.034421e+01  -2.764941e+01
   5.327199e+01   1.017721e+02
  -1.226196e+02   5.658496e+01
  -2.911859e+02   4.091802e+01
  -2.849356e+02  -1.517137e+02
  -6.413713e+01  -2.622532e+02
   1.685886e+02  -2.725810e+02
   2.448989e+02  -1.186325e+02
   1.699199e+02   3.365704e+01
   1.153022e+01   8.477428e+01
  -1.195900e+02   5.268792e+01
   3.029058e+01  -1.080147e+02
   2.420327e+02  -6.834796e+01
   2.418218e+02   1.424038e+02
   1.172179e+02   2.548282e+02
  -1.239776e+02   1.912190e+02
  -1.389156e+02   3.091962e+01
  -6.034237e+01   3.076563e+00
   5.067035e+01   2.494743e+00
   4.062786e+00   7.520827e+01
  -8.953031e+01   1.011499e+02
  -2.369783e+02   6.672806e+01
  -1.912873e+02  -1.069144e+02
  -2.456750e+01  -2.291340e+02
   1.664970e+02  -1.581832e+02
   1.781810e+02  -4.854480e+01
   1.772824e+01   1.393843e+02
  -5.411058e+01   9.164054e+01
  -8.310051e+01   2.422341e+01
  -3.115063e+01  -3.701993e+00
  -4.385118e-01  -6.983317e+00
  -1.228223e+01   1.214783e+01
  -5.927299e+01   3.961654e+01
  -1.273252e+02  -2.161146e+01
  -1.349048e+00  -1.785255e+02
   1.166339e+02  -1.534072e+02
   2.278701e+02  -3.382985e+01
   1.746416e+02   1.611249e+02
   8.629340e+01   2.220816e+02
  -9.995232e+01   1.653238e+02
  -1.487340e+02   5.346874e+01
  -4.159765e+01  -8.034124e+01
  -2.308063e+01  -1.119913e+01
  -6.246277e+01   2.011844e+01
  -4.958363e+01   3.504572e+01
  -4.053154e+01  -2.977001e+01
   1.572453e+01  -7.651862e+01
   6.505015e+01  -6.040559e+01
   1.027692e+02   3.707382e+01
  -4.658881e+01   1.124371e+02
  -1.538545e+02   6.301415e+01
  -1.985640e+02  -2.422200e+01
  -1.297996e+02  -1.856032e+02
   7.076209e+01  -2.029807e+02
   2.804740e+02  -9.981518e+01
   2.602744e+02   1.019342e+02
   8.276907e+01   1.632786e+02
  -4.231231e+01   1.504030e+02
  -1.018010e+02   9.479288e+01
  -1.121358e+02   4.974165e+01
  -3.943189e+01   1.135452e+02
  -1.531082e+02   8.267369e+01
  -1.289456e+02  -4.785877e+01
  -9.285467e+01  -1.631532e+02
  -1.638545e+01  -2.361759e+02
   1.101102e+02  -1.285220e+02
   1.711407e+02  -7.112155e+01
   1.735470e+02   1.505587e+02
   4.090156e-01   1.600812e+02
  -1.044611e+01   6.298016e+01
  -6.610942e+01  -1.322851e+01
  -2.910142e+01  -2.786155e+01
  -4.575584e+00  -3.817721e+01
  -4.613568e+01  -1.749070e+01
  -1.231236e+02  -2.334214e+01
  -7.432625e+01  -3.993549e+01
   8.106414e+01  -5.510385e+01
   1.660595e+02  -2.599537e+01
   1.334262e+02   3.355994e+01
   1.141342e+01   5.889156e+01
  -1.071107e+02   4.881524e+01
  -1.687368e+02   2.068211e+01
  -6.902160e+01  -3.256679e+01
   6.622180e+01  -4.939206e+01
   9.425726e+01  -2.372930e+01
  -2.365235e+00   8.933107e+01
  -3.682726e+01   4.387333e+01
  -9.318760e+01  -4.435085e+01
  -4.627328e+01  -4.762306e+01
  -6.415540e+01  -1.482269e+01
  -5.193344e+01   1.295612e+01
  -3.206124e+01   1.290719e+01
  -4.063798e+01  -7.098648e+01
  -7.764584e+00  -1.468733e+02
   1.139043e+02  -1.704212e+02
   1.723145e+02  -9.668195e+01
   1.494143e+02   8.263459e+01
   4.809202e+01   1.110552e+02
  -9.452599e+01   8.694342e+01
  -4.334351e+01  -1.070894e+01
   6.590891e+01  -2.958778e+01
   1.206297e+02   1.749789e+00
   1.102071e+02   1.482548e+02
  -9.386202e+01   9.474750e+01
  -2.189751e+02   4.417841e+01
  -1.828590e+02  -2.927257e+01
  -3.051003e+01  -9.010473e+01
   4.108753e+01  -7.185164e+01
   3.551969e+01   1.872093e+01
  -3.332175e+01   3.453680e+01
  -9.502245e+01   1.433731e+01
  -2.864802e+01  -1.445916e+02
   1.291979e+02  -1.381710e+02
   1.656017e+02  -1.368349e+01
   1.217660e+02   9.169819e+01
   4.217764e+01   2.012002e+02
  -7.893385e+01   1.879861e+02
  -1.152687e+02  -9.638395e+00
  -4.955739e+01  -9.659641e+01
   2.022855e+01  -1.205786e+02
   3.212836e+01  -2.828548e+01
   4.954964e+01   5.684011e+01
   6.627719e+00  -3.876662e+01
   1.160648e+01  -7.530675e+00
  -1.338640e+01   5.361288e+01
   8.890117e+01   1.136254e+02
   8.076305e+01   8.532918e+01
  -4.078382e+01   4.849131e+01
  -1.133732e+02  -3.883122e+01
  -1.144811e+02  -6.257946e+01
  -1.444909e+01  -5.427334e+01
   7.488523e+01  -3.097861e+01
   8.369792e+01  -1.631939e+01
   2.259444e+01  -2.348362e+01
  -2.603118e+01   2.200275e+01
  -4.722352e+01   1.695764e+01
  -7.171837e+00   1.116042e+01
  -5.783849e+01  -1.839871e+01
  -6.155811e+01  -4.508303e+01
  -5.830356e+01  -3.107506e+01
  -4.059235e+00  -8.843834e+01
   1.145016e+02  -9.792988e+01
   1.648766e+02  -4.479277e+01
   1.205644e+02   9.173562e+01
   3.593531e+01   1.635023e+02
  -7.277014e+01   1.245149e+02
  -1.035225e+02   3.680642e+01
  -8.509824e+01  -1.959165e+01
  -3.135135e+01  -6.605612e+01
   1.067146e+01   3.501698e+01
   2.659148e+01   1.282284e+01
  -3.520499e+01  -9.974853e+01
  -4.163990e+01  -1.204277e+02
   5.111117e+01  -8.429152e+01
   9.022354e+01   2.390040e+01
   1.060941e+02   1.329752e+02
  -1.692649e+01   1.177266e+02
  -7.582121e+01   1.531326e+01
  -1.085997e+02  -9.768556e+01
  -4.591379e+01  -8.968482e+01
   6.444405e+01  -3.976701e+01
   7.134154e+01   4.499282e+01
   3.383206e+01   6.513796e+01
  -1.405898e+01   5.058693e+01
  -4.611234e+01   6.698795e+01
   7.455226e+00  -5.252894e+00
   7.186673e+01  -3.935930e-01
   5.989705e+01   1.644115e+01
  -8.740975e+01   5.874059e+01
  -1.087735e+02   7.252743e+01
  -3.337730e+01   2.552150e+01
  -4.415981e+00  -7.679208e+01
   6.716948e+01  -5.291832e+01
   8.334668e+01  -3.255408e+01
  -1.114077e+00   1.937297e+01
  -8.474173e+00   7.509856e+01
  -4.408294e+01  -3.133086e+01
  -2.858153e+01  -3.803884e+01
   4.223926e+01  -1.932066e+01
   5.180685e+01   3.341923e+01
   8.754907e+01   3.464229e+01
   3.509986e+01   4.565646e+00
   1.047813e+01   4.136853e+00
   2.055102e+01  -2.812831e+00
  -3.982697e+01   4.503500e+01
  -1.135919e+01   2.328846e+01
  -5.777787e+01   1.813431e+01
  -4.372550e+01  -7.576926e+01
   6.517387e+00  -6.609950e+01
   6.440618e+01  -2.466191e+01
   6.203992e+01   4.790172e+01
   2.873384e+01   5.625821e+01
  -8.927044e+01   1.812310e+01
  -9.111937e+01  -4.320153e+01
  -4.441110e+01  -3.917166e+01
   5.346803e+00  -4.218521e+01
   3.529387e+01  -4.348315e+01
   4.306601e+00  -5.032462e+00
  -5.289969e+01  -1.943892e+01
  -4.744963e+01  -5.125030e+01
   4.641240e+01  -4.112179e+01
   7.992578e+01  -2.558933e+01
