
 $NMID
 id='ANONYMOUS ', fmtdat='(2E16.6)'
 volume=1.0
 tramp=1.0
 $END
  -4.621474e+03  -1.374589e+00
  -2.632892e+03  -2.921133e+03
   6.326404e+02  -2.930686e+03
   2.117913e+03  -7.623737e+02
   1.011994e+03   7.792397e+02
  -8.201663e+02   6.698724e+02
  -1.073346e+03  -4.497947e+02
   8.620656e+01  -1.186219e+03
   9.400909e+02  -8.360588e+02
   1.100826e+03   1.442871e+02
   4.131610e+02   9.462297e+02
  -2.581506e+02   9.910566e+02
  -7.585937e+02   1.452962e+02
  -3.528548e+02  -8.342673e+02
   2.933475e+02  -8.127719e+02
   6.450259e+02   2.918586e+01
   2.596425e+02   7.394385e+02
  -4.093391e+02   7.082317e+02
  -6.274059e+02   6.914457e+01
  -4.756683e+02  -3.774965e+02
  -7.094515e+01  -4.454364e+02
   2.682939e+02  -2.718482e+02
   2.406222e+02  -2.283653e+01
  -9.455616e+01   1.255689e+02
  -4.008735e+02  -6.467804e+01
  -2.299470e+02  -4.300462e+02
   4.396115e+02  -4.119614e+02
   8.722652e+02   4.101409e+01
   4.758765e+02   6.030435e+02
  -3.683831e+02   4.868740e+02
  -7.741504e+02   3.187933e+01
  -3.959533e+02  -5.203198e+02
   2.779965e+02  -6.203173e+02
   5.991720e+02  -2.209286e+02
   3.972555e+02   2.271917e+02
   8.837697e+01   5.059664e+02
  -2.359666e+02   3.129024e+02
  -2.034692e+02  -2.223215e+02
   1.907697e+02  -4.834124e+02
   4.834803e+02  -1.541571e+01
   3.136883e+02   8.402832e+02
  -3.123725e+02   7.954952e+02
  -6.866058e+02   3.809029e+01
  -3.246199e+02  -5.989958e+02
   3.240266e+02  -3.770331e+02
   4.431038e+02   3.496301e+02
  -1.033429e+02   5.532195e+02
  -6.154255e+02   1.347353e+02
  -6.517696e+02  -3.811989e+02
  -2.073574e+02  -6.455063e+02
   4.335587e+02  -4.063094e+02
   6.717451e+02   7.956024e+01
   4.250355e+02   4.546646e+02
  -1.209813e+02   4.474574e+02
  -5.066361e+02   4.864342e+01
  -2.889142e+02  -2.275870e+02
   1.443531e+02  -1.703454e+02
   1.228918e+02   1.336837e+02
  -1.570718e+02   2.114696e+02
  -3.125094e+02  -7.885186e+01
  -1.491179e+02  -3.499152e+02
   2.639455e+02  -2.591846e+02
   3.718019e+02  -9.244946e+01
   2.148769e+02   1.100439e+02
  -4.172727e+01   2.413103e+02
  -2.167591e+02   3.495766e+02
  -3.049369e+02   2.768949e+02
  -3.358292e+02  -1.527440e+02
  -5.722925e+01  -5.018859e+02
   1.225548e+02  -4.337774e+02
   1.040403e+02  -1.596907e+02
  -2.029037e+01  -1.538521e+01
   3.540167e+01  -5.524944e+01
   2.297886e+02  -1.972959e+02
   2.743487e+02   1.753537e+01
   1.707956e+02   2.778115e+02
  -6.230232e+01   2.742179e+02
  -2.393555e+02   5.149189e+01
  -2.104759e+02  -2.715725e+02
  -1.728178e+01  -3.115738e+02
   2.439957e+02  -1.759752e+02
   4.272958e+02   1.622668e+02
   1.913190e+02   3.291884e+02
  -1.317787e+02   2.765849e+02
  -2.323155e+02   9.846228e+01
  -1.859406e+02   3.254332e+00
  -8.819529e+01   4.736544e+01
  -2.114454e+02   5.832078e+01
  -3.965086e+02  -7.876818e+01
  -3.430397e+02  -3.026425e+02
   5.892203e+00  -4.379571e+02
   3.494401e+02  -4.496535e+02
   5.273043e+02  -2.277060e+02
   2.852606e+02   9.074959e+01
   6.185500e+01   2.701030e+02
  -1.619737e+02   2.799524e+02
  -1.128364e+02   3.812670e+01
   9.594736e+01  -6.691216e+01
   1.752791e+02   1.336042e+01
   8.200607e+01   1.733663e+02
  -1.966909e+02   2.164633e+02
  -1.556183e+02  -9.524006e+01
   3.936867e+01  -1.953759e+02
   2.324208e+02  -4.387613e+01
   1.424228e+02   2.401269e+02
  -4.456724e+01   3.643376e+02
  -2.314145e+02   1.559401e+02
  -3.405270e+02  -1.033183e+02
  -2.890694e+02  -2.078591e+02
  -4.114025e+01  -2.760700e+02
   8.308589e+01  -2.061439e+02
   1.398529e+02  -1.686052e+01
   7.410277e+01   9.308638e+00
  -5.649766e+01  -4.022995e+01
  -3.509803e+01  -1.309134e+02
   9.573403e+01  -1.021785e+02
   2.237510e+02  -3.548019e+00
   8.828558e+01   1.069639e+02
  -8.819542e+01   1.363273e+01
  -2.909057e+01  -4.324560e+01
   1.480681e+02  -7.561745e+01
   3.161273e+02   3.975710e+01
   2.858681e+02   1.116203e+02
   9.967200e+01   2.644078e+02
  -1.894143e+02   2.741961e+02
  -3.222929e+02   1.496074e+02
  -1.905967e+02  -8.897930e+01
   1.742479e+01  -1.422049e+02
   9.984349e+01  -3.334967e+01
  -5.657567e+01   9.474789e+01
  -1.948144e+02   4.411439e+01
  -2.576551e+02  -1.282600e+02
  -1.062417e+02  -2.436432e+02
   6.239691e+01  -1.474446e+02
   1.275840e+02  -1.263474e+01
   7.653310e+01   2.757834e+01
  -1.433615e+01   7.139977e+00
  -5.976957e+01  -7.609047e+01
   3.605273e+01  -1.114621e+02
   1.729983e+02  -4.694925e+01
   2.283683e+02   1.517015e+02
   3.668096e+01   2.034033e+02
  -1.618259e+02   1.704974e+02
  -1.905820e+02   1.304605e+01
  -6.675157e+01  -1.388374e+02
   4.038854e+01  -1.066294e+02
   7.299329e+01  -2.614217e+01
   1.171171e+01   2.297525e+01
   7.093323e+00   4.271289e+01
  -1.482060e+01  -7.447758e+00
   7.232107e+01   7.512409e+00
   9.323204e+01   4.277746e+01
   9.964721e+00   1.466221e+02
  -9.944735e+01   1.426433e+02
  -2.348297e+02   4.005424e+01
  -2.128664e+02  -1.122309e+02
  -6.216410e+01  -2.956488e+02
   9.806278e+01  -1.578140e+02
   1.326663e+02  -3.691533e+01
   5.618754e+01   9.463118e+01
   7.739222e+01   5.821297e+01
   5.125519e+01   4.527259e+00
   5.440594e+01  -1.100192e+01
   5.527373e+01   2.410184e+01
  -1.055675e+01   1.032605e+02
  -9.706612e+01   4.611500e+01
  -8.702231e+01  -1.534421e+01
   2.402272e+01  -9.764391e+01
   1.393957e+02  -9.557430e+01
   1.952245e+02   4.390727e+01
   9.437105e+01   1.962400e+02
  -9.326434e+01   1.708113e+02
  -2.894952e+02   6.493879e+01
  -2.445908e+02  -1.193155e+02
  -5.566511e+01  -1.939138e+02
   2.274713e+01  -1.612450e+02
   1.131332e+02  -1.035022e+02
   6.726394e+01  -4.039084e+01
   9.947543e+01  -1.524342e+02
   8.191047e+01  -8.344931e+01
   1.624408e+02   4.387649e+01
   1.238909e+02   2.116118e+02
   1.612110e+01   2.445251e+02
  -8.929683e+01   1.759740e+02
  -1.811679e+02   5.867162e+01
  -1.868896e+02  -1.556752e+02
  -1.720961e+01  -1.733669e+02
   5.750541e+01  -6.823074e+01
   6.544309e+01  -1.822827e+01
  -1.359524e+01   1.927482e+01
  -4.690180e+00   2.340528e+01
   8.643704e+00   2.896662e+01
   6.849885e+01  -1.868464e+00
   3.350604e+01   3.215083e+01
  -7.376002e+01   1.558843e+01
  -1.572874e+02   2.339998e+01
  -1.200376e+02  -5.071884e+01
   6.216956e+00  -4.565707e+01
   1.237031e+02  -9.302706e+01
   1.588098e+02  -2.048190e+01
   5.429392e+01   4.462098e+01
  -1.719643e+01   3.825645e+01
  -1.218801e+02  -2.057961e+01
   9.828988e+00  -7.519207e+01
   7.919581e+01  -2.157754e+01
   6.936902e+01   1.293417e+01
   1.872952e+01   5.440896e+01
   1.295044e+01   1.264261e+01
   4.344765e+01   1.695223e+01
   3.938974e+01   4.498160e+01
   1.188252e+01   2.356571e+01
  -5.974604e+01   1.413960e+02
  -7.749724e+01   1.346233e+02
  -1.778511e+02   2.911069e+01
  -1.393742e+02  -1.252594e+02
   1.153061e+01  -1.062856e+02
   1.298247e+02  -6.184851e+01
   4.818021e+01  -4.808088e+00
  -5.306712e+01   4.453859e+01
  -1.368192e+02  -5.966737e+01
  -7.667772e+01  -9.468681e+01
   1.081036e+02  -1.058170e+02
   1.855422e+02  -6.307192e+01
   1.668593e+02   8.891864e+00
   8.189010e+01   1.131415e+02
  -3.667104e+01   8.554771e+01
  -3.261064e+01   1.200821e+00
   4.440135e+01  -1.110068e+01
   9.216299e+01   4.898763e+01
   4.707903e+01   1.124720e+02
  -7.671105e+01   1.593537e+02
  -1.658423e+02   9.025782e+01
  -1.252286e+02  -1.113626e+02
   5.677427e+00  -1.998400e+02
   1.052404e+02  -1.279684e+02
   1.333469e+02   8.619206e+00
   5.858382e+01   1.146201e+02
   1.468451e+00   1.224936e+02
  -5.267837e+01   2.743180e+01
  -4.505573e+01  -3.664485e+01
  -5.909371e+00  -6.287953e+00
   4.649611e+01   5.923991e+01
   1.246047e+01   1.900378e+01
  -7.408390e+01  -6.481736e+01
  -5.981290e+01  -8.200749e+01
   2.170772e+01  -6.241114e+01
   1.747944e+02   6.109309e+01
   1.281203e+02   1.248135e+02
  -1.344465e+01   4.408562e+01
  -7.817739e+01   3.290825e+01
  -1.169825e+02   3.286576e+01
  -6.568234e+00  -3.766513e+01
   3.950203e+01  -5.511907e+01
  -2.309553e+00  -4.316658e+01
   1.283995e+01  -1.719653e+01
   3.283807e+01   4.119917e+01
   9.081576e+01   1.405816e+01
   8.460935e+01   3.364371e+01
   2.942633e+01   9.622146e+01
  -1.277828e+02   9.511117e+01
  -1.962832e+02   8.625666e+01
  -1.187855e+02  -2.857393e+01
  -5.042091e+01  -1.466606e+02
   6.033922e+01  -1.602276e+02
   1.082395e+02  -7.862209e+01
   7.608446e+01  -1.603073e+00
   1.472774e+01   4.178941e+01
  -1.974834e+01   5.465247e+00
   2.129638e+01   2.316648e+01
   2.457376e+01   4.396708e+01
   2.163295e+01   1.205860e+02
  -2.973035e+01   8.798904e+01
  -7.700183e+01  -2.049050e+01
  -7.400831e+01  -1.026024e+02
  -2.769215e+01  -1.219545e+02
   1.046221e+02  -3.696632e+01
   9.465186e+01   7.920394e+01
   4.074558e+01   1.247481e+02
  -6.387826e+01   6.510203e+01
  -1.177561e+02  -1.626355e+01
  -6.489301e+01  -4.059932e+01
   8.184729e+00  -6.287385e+01
   1.017160e+01  -1.040503e+01
  -9.549442e+01  -1.043434e+01
  -5.693402e+01   6.228009e+00
  -4.176332e+01  -4.339450e+01
   7.505587e+01  -8.553537e+01
   1.002263e+02  -4.686683e+01
   5.660708e+01   4.810656e+01
   9.031749e+00   5.862591e+01
  -5.263411e+01   7.236286e+01
  -3.150413e+01  -8.706437e+00
  -7.871988e+00  -7.654490e+01
   2.510180e+01  -5.974847e+01
   5.161338e+01   3.667922e+01
   5.685578e+01  -1.660713e-01
   1.351469e+01   4.045745e+01
  -2.461048e+01  -2.135266e+01
  -5.515002e+01  -1.974322e+01
  -5.119842e+01  -1.326263e+01
  -7.282388e-02   2.797864e+01
  -1.287588e+01  -3.246671e+00
  -4.781296e+00  -4.555228e+01
   3.729360e+01   1.532821e+01
   1.611384e+01   2.751715e+01
   8.400927e+01   9.170943e+01
   4.043300e+01   7.838088e+01
  -6.230365e+01   9.951094e+00
  -8.221615e+01  -5.018687e+01
  -3.373715e+01  -6.370330e+01
   3.876086e+01  -3.783494e+01
   9.880241e+01   3.157869e+00
   1.722381e+01   7.146423e+01
  -2.531953e+01   4.284138e+01
  -3.617696e+01   5.142090e+00
  -1.679622e+00   1.219591e+01
   2.723657e+01   3.574738e+01
   1.277381e+01   2.750690e+01
  -3.990037e+01   4.678340e+01
  -8.661638e+01   1.011823e+01
