
 $NMID
 id='ANONYMOUS ', fmtdat='(2E16.6)'
 volume=1.0
 tramp=1.0
 $END
  -3.094741e+03  -3.111151e+02
  -2.008900e+03  -1.781198e+03
   3.633653e+02  -1.897118e+03
   1.272042e+03  -1.029859e+03
   9.573541e+02   9.893056e+00
  -1.750233e+02   2.458058e+02
  -4.350645e+02  -2.523952e+02
   6.821077e+01  -5.014206e+02
   6.118996e+02  -5.205641e+02
   5.319203e+02   1.115951e+00
   4.570884e+02   4.898574e+02
  -6.432822e+01   6.983412e+02
  -3.466681e+02   1.411130e+02
  -2.554129e+02  -4.138226e+02
   2.071131e+02  -5.348829e+02
   3.983082e+02  -5.660363e+01
   2.470220e+02   5.240470e+02
  -1.779964e+02   5.651601e+02
  -4.632983e+02   1.916859e+02
  -4.184174e+02  -1.834506e+02
  -1.089669e+02  -3.603778e+02
   1.624246e+02  -2.235569e+02
   8.089438e+01  -7.486888e+01
  -1.857776e+02  -9.904442e+01
  -2.959133e+02  -2.529296e+02
  -2.108776e+00  -3.776573e+02
   4.505041e+02  -1.975238e+02
   5.356334e+02   2.058484e+02
   1.986250e+02   3.494509e+02
  -2.513805e+02   1.666514e+02
  -5.013648e+02  -1.760757e+02
  -1.422317e+02  -3.152063e+02
   2.596615e+02  -3.708306e+02
   5.234052e+02  -1.095886e+02
   2.356970e+02   2.033113e+02
   7.920905e+01   2.816123e+02
  -7.391832e+01   2.017849e+02
   6.552817e+01  -1.242894e+02
   2.248148e+02  -1.671948e+02
   2.392448e+02   1.186018e+02
   1.771164e+01   5.480659e+02
  -2.715599e+02   4.159730e+02
  -2.874805e+02  -5.977459e+01
  -7.554637e+01  -4.348726e+02
   2.191947e+02  -1.587900e+02
   1.904291e+02   2.871266e+02
  -1.468511e+02   4.278843e+02
  -4.407839e+02   9.264395e+01
  -4.943255e+02  -3.873820e+02
  -1.383011e+02  -4.686611e+02
   2.893524e+02  -2.505398e+02
   4.531207e+02   7.997595e+01
   2.554550e+02   2.145240e+02
  -7.972242e+01   2.099267e+02
  -3.193028e+02   7.424948e+01
  -2.034545e+02  -7.920766e+01
  -5.295625e+00  -2.752829e+01
   4.659477e+01   8.584402e+01
  -9.641925e+01   8.194022e+00
  -1.991657e+02  -4.127812e+01
  -9.788785e+01  -1.553275e+02
   1.221103e+02  -2.176136e+02
   2.982776e+02  -1.102499e+02
   2.356778e+02   9.031149e+01
  -4.047981e+01   2.941115e+02
  -2.739518e+02   3.427811e+02
  -3.597313e+02   1.701982e+02
  -2.664536e+02  -1.936296e+02
  -4.662309e+01  -3.320057e+02
   8.149957e+01  -2.774613e+02
   4.484595e+01  -1.257493e+02
   1.554274e+01  -1.533282e+02
   1.368154e+02  -1.307565e+02
   2.265243e+02  -3.631929e+01
   1.899956e+02   9.429498e+01
   1.077980e+02   2.865745e+02
  -9.977718e+01   1.709336e+02
  -1.912570e+02  -5.669299e+01
  -1.370003e+02  -2.130936e+02
   4.343301e+01  -2.523325e+02
   2.745370e+02  -7.109638e+01
   3.053989e+02   2.162553e+02
   1.322554e+02   3.219073e+02
  -5.459907e+01   2.175197e+02
  -1.552064e+02   1.177730e+02
  -1.198480e+02   5.860153e+01
  -1.162192e+02   5.759460e+01
  -2.442367e+02   2.710135e+01
  -3.672888e+02  -1.314435e+02
  -2.816871e+02  -2.971161e+02
   7.630707e+01  -3.915901e+02
   3.992038e+02  -3.404659e+02
   4.716706e+02  -1.178885e+02
   2.784703e+02   1.267264e+02
  -1.000625e+01   2.376762e+02
  -1.118832e+02   1.493981e+02
  -3.115471e+01   5.043744e+00
   1.394804e+02  -2.576126e+01
   1.554066e+02   9.807091e+01
   1.272374e+01   1.582361e+02
  -1.247675e+02   9.897416e+01
  -6.625130e+01  -6.272959e+01
   6.950640e+01  -1.042287e+02
   1.868309e+02  -3.788106e+00
   1.857568e+02   2.276049e+02
  -3.472424e+01   2.965353e+02
  -2.279047e+02   1.724812e+02
  -3.134545e+02  -6.792166e+01
  -2.533219e+02  -2.418438e+02
  -4.655171e+01  -2.906009e+02
   9.954769e+01  -1.256215e+02
   1.367662e+02  -6.364577e+00
   5.244487e+00   9.491146e+00
  -8.231658e+01  -1.335974e+01
   2.005079e-01  -1.433719e+02
   1.558869e+02  -5.980625e+01
   1.542454e+02   1.505506e+01
   1.308255e+01   3.118372e+01
  -8.481829e+01  -2.664569e+01
  -5.411939e+01  -1.114680e+02
   1.617825e+02  -1.084051e+02
   2.610412e+02   6.782567e+01
   1.956163e+02   1.752842e+02
   6.441370e+01   2.884201e+02
  -1.783396e+02   2.160763e+02
  -2.145475e+02   9.800157e+01
  -1.210406e+02  -5.484559e+01
   6.786763e+00  -1.058191e+02
   7.286776e+01   2.290923e+00
  -4.292861e+01   1.027497e+02
  -1.982480e+02   3.453118e+01
  -1.208788e+02  -9.844657e+01
  -3.062509e+01  -1.730672e+02
   3.790112e+01  -1.152844e+02
   7.097532e+01   3.330017e+01
   4.690786e+01   5.748658e+01
  -2.950739e+01  -7.167128e-01
  -2.448207e+00  -8.588236e+01
   1.384555e+02  -1.224609e+02
   1.909995e+02   3.786901e+01
   1.692388e+02   1.277206e+02
   4.081636e+01   1.795453e+02
  -2.020745e+02   1.391363e+02
  -1.449999e+02   2.550922e+00
  -6.896897e+01  -6.693591e+01
   8.088062e+01  -1.079799e+02
   6.930341e+01  -3.742172e+01
   5.333105e+01   1.291889e+01
  -5.988894e+00  -5.155165e+01
   1.558968e+01  -3.700503e+01
   4.774521e+01  -1.237800e+01
   1.045421e+02   7.984842e+01
  -2.161209e+01   1.767705e+02
  -1.018332e+02   1.123643e+02
  -2.410760e+02  -5.384051e+00
  -1.544721e+02  -1.493170e+02
  -2.473137e+00  -2.024639e+02
   9.854765e+01  -1.688327e+02
   1.314151e+02  -9.832862e+00
   4.648510e+01   5.915503e+01
   2.975218e+01   5.897879e+01
   6.856177e+01   1.510402e+01
   7.181964e+01  -1.224710e+00
   8.059372e+01   9.711540e+01
  -4.704276e+01   9.849214e+01
  -1.541797e+02   5.845483e+01
  -5.994123e+01  -3.230700e+01
  -5.173983e-01  -1.214765e+02
   1.668809e+02  -5.080781e+01
   1.639952e+02   8.886540e+01
   6.849665e+01   1.959736e+02
  -1.394257e+02   2.184077e+02
  -2.691211e+02   8.040868e+01
  -2.353319e+02  -7.698611e+01
  -5.192528e+01  -1.512280e+02
   7.297471e+01  -1.462028e+02
   8.071038e+01  -1.033301e+02
   9.063477e+01  -1.316260e+01
   5.429710e+01  -5.100365e+01
   1.045183e+02  -7.577083e+01
   9.115844e+01   2.330683e+01
   7.778960e+01   1.285929e+02
   3.761899e+01   1.764759e+02
  -7.146103e+01   1.427833e+02
  -1.502925e+02  -2.509542e+01
  -1.341858e+02  -1.033281e+02
  -9.406109e+00  -1.842835e+02
   7.526668e+01  -4.759356e+01
   4.187497e+01   9.495596e+00
   7.732190e+00   6.631522e+01
  -5.351523e+01   3.960584e+01
   1.563618e+01   1.349997e+01
   9.682924e+01   2.766816e+01
   5.832311e+01   5.230472e+01
  -9.892158e+01   1.824699e+01
  -1.231250e+02  -6.987438e+00
  -1.546462e+02  -3.490536e+01
  -5.670258e-01  -9.415484e+01
   1.542481e+02  -5.594658e+01
   1.054175e+02   2.401762e+01
   6.692769e+01   6.915712e+01
  -4.584762e+01   6.071422e+01
  -9.082186e+01  -2.247996e+01
  -4.062627e+00  -7.139061e+01
   4.006815e+01  -4.199583e+01
   7.125108e+01   5.946655e+00
   6.118028e+01   6.541352e+01
   6.552025e+01   2.560792e+00
   7.242127e+01  -2.583567e+00
   2.855779e+01   1.708252e+01
   5.018988e+01   4.691044e+01
  -6.598189e+01   1.450644e+02
  -1.021755e+02   1.463912e+02
  -1.720788e+02   2.387138e+01
  -1.251985e+02  -1.028932e+02
  -1.604686e+01  -1.047628e+02
   9.872224e+01  -2.626627e+01
   5.591274e+01   3.295823e+01
  -8.763672e+00   1.412170e+00
  -1.054303e+02  -5.246217e+01
  -6.037835e+01  -1.224724e+02
   1.047857e+02  -6.942975e+01
   1.526568e+02  -3.397547e+01
   1.569542e+02   9.124849e+01
   1.997733e+01   9.259442e+01
  -7.464004e+01   5.210538e+01
  -3.576826e+01  -1.307872e+01
   5.599323e+01   3.289655e+01
   5.625836e+01  -9.155150e-01
   4.012723e+01   1.382129e+02
  -1.218451e+02   1.311769e+02
  -1.680918e+02   7.077420e+01
  -1.263203e+02  -1.196203e+02
  -1.938896e+01  -1.737642e+02
   1.095261e+02  -1.220862e+02
   1.315218e+02  -1.054720e+01
   3.841735e+01   1.395642e+02
   2.867488e+01   8.596323e+01
  -5.210789e+01   2.061801e+01
  -3.546719e+01  -5.631506e+01
  -1.263692e+01   2.121785e+01
  -3.315740e+01   3.716350e+01
  -3.175349e+01   9.970111e+00
  -3.919367e+01  -7.608171e+01
  -3.924014e+01  -1.311687e+02
   3.081472e+01  -8.470280e+00
   1.185676e+02   5.470565e+01
   1.151743e+02   8.146845e+01
   3.864264e+00   4.366052e+01
  -4.789685e+01   2.051052e+01
  -1.177157e+02   1.783632e+01
  -4.672889e+01  -3.225927e+01
   4.011544e+01  -4.465140e+01
   1.188033e+01  -7.860416e+00
   3.240068e+01  -1.210405e+00
   1.855225e+00  -2.776817e+01
   3.483967e+01  -2.185710e+01
   7.094192e+01   1.013113e+01
   1.387048e+01   8.258708e+01
  -8.614848e+01   1.271883e+02
  -1.421067e+02   7.670696e+01
  -1.502721e+02  -5.524637e+01
  -3.373321e+01  -1.337882e+02
   6.101896e+01  -9.355237e+01
   1.230800e+02  -8.719216e+01
   7.031739e+01   4.036137e+01
   2.173119e+00   5.635172e+01
   3.828221e+01  -7.840749e+00
   6.196830e+00   3.085888e+01
   2.953732e+01   5.577740e+01
   3.134304e+01   6.739227e+01
  -4.331938e+01   5.100128e+01
  -5.703046e+01  -3.672027e+01
  -5.005602e+01  -9.971158e+01
   8.745926e+00  -1.038724e+02
   5.037458e+01  -1.933298e+01
   7.305998e+01   8.303343e+01
   3.449620e+01   6.892861e+01
  -9.561411e+01   5.673698e+01
  -9.593215e+01  -2.611434e+00
  -4.354617e+01  -3.359350e+01
   4.093999e+01  -7.110159e+01
   6.580504e+01  -4.507744e+01
  -8.995987e+00   1.357048e+01
  -4.781193e+01   2.601857e+01
  -2.490352e+00  -2.191500e+01
   5.675674e+01  -5.788090e+01
   1.242701e+02  -3.476613e+01
   3.111547e+01   2.438839e+01
  -1.275826e+01   1.274180e+02
  -5.720147e+01   8.185695e+01
  -4.259737e+01   3.341903e+01
  -2.368092e-01  -1.451010e+01
   5.084594e+01  -2.997561e+01
   2.033851e+01   4.537610e+00
   3.674076e+00   5.157652e+01
   1.668273e+01   3.840966e+01
  -2.140519e+01   1.654198e+01
  -7.083733e+01  -2.768135e+01
  -3.430483e+01   1.601040e+01
   2.483658e+01   2.212079e+01
  -7.930259e+00   5.612575e+00
   9.002676e+00  -3.701953e+01
  -1.481758e+01  -6.345245e+01
   4.403673e+01  -5.314523e+01
   5.893923e+01   4.508614e+01
   3.406840e+01   7.163025e+01
  -2.758353e+01   5.823561e+01
  -7.058575e+01  -5.310587e+01
   6.901438e+00  -3.139054e+01
   4.486480e+01  -3.209750e+01
   1.221110e+02   3.026660e+01
   7.747921e+01   4.538231e+01
  -3.814018e+01   1.208459e+01
  -5.806423e+01   6.087726e+01
  -3.852298e+01   3.199387e+01
   4.564629e+01  -2.552896e+00
   1.296966e+01   5.552810e+01
  -4.128013e+01   2.716055e+01
  -1.037292e+02  -1.818253e+01
