
 $NMID
 id='ANONYMOUS ', fmtdat='(2E16.6)'
 volume=1.0
 tramp=1.0
 $END
   4.235714e+03   1.986458e+02
   2.707047e+03   2.690321e+03
  -5.048196e+02   2.398706e+03
  -1.885866e+03   1.020001e+03
  -8.463700e+02  -2.288416e+02
   4.868453e+02  -4.786784e+02
   7.983300e+02   3.670079e+02
   5.790069e+01   7.581709e+02
  -7.329272e+02   7.187044e+02
  -7.508623e+02  -5.524303e+01
  -4.255730e+02  -8.644380e+02
   2.590737e+02  -7.812890e+02
   6.013679e+02  -5.155209e+01
   3.973412e+02   6.296894e+02
  -3.091585e+02   7.576538e+02
  -5.644834e+02  -1.354745e+01
  -2.955038e+02  -6.281506e+02
   3.213464e+02  -6.386317e+02
   4.638623e+02  -1.114551e+02
   3.754122e+02   3.880093e+02
   1.100132e+01   4.882480e+02
  -2.234313e+02   2.343159e+02
  -1.867948e+02   3.515095e+01
   1.522011e+02  -1.034311e+01
   4.025128e+02   2.088417e+02
   1.113523e+02   3.653674e+02
  -3.988134e+02   3.119933e+02
  -6.885947e+02  -1.075244e+02
  -3.584290e+02  -4.460910e+02
   3.778491e+02  -3.641570e+02
   6.414279e+02   1.396843e+02
   2.417834e+02   3.746857e+02
  -2.827729e+02   4.254829e+02
  -5.092665e+02   1.673904e+02
  -3.367911e+02  -2.168183e+02
  -5.761706e+01  -3.983450e+02
   1.463715e+02  -1.986362e+02
   1.326743e+02   9.215750e+01
  -1.547491e+02   3.271257e+02
  -3.816620e+02  -9.507068e+01
  -1.237478e+02  -6.303807e+02
   3.344096e+02  -6.369408e+02
   4.432460e+02  -7.863443e+01
   1.827226e+02   5.085994e+02
  -2.322174e+02   2.010853e+02
  -4.060975e+02  -2.834172e+02
   5.757290e+01  -4.885685e+02
   5.303342e+02  -1.075470e+02
   5.835796e+02   4.256278e+02
   8.755205e+01   5.341260e+02
  -3.948004e+02   3.138313e+02
  -5.917246e+02  -5.124292e+01
  -3.381813e+02  -3.425577e+02
   1.556698e+02  -3.083097e+02
   3.400211e+02  -6.405958e+01
   2.149369e+02   1.828955e+02
  -9.117095e+01   8.772445e+01
  -1.276285e+02  -1.184902e+02
   1.669092e+02  -1.741799e+02
   2.739667e+02   4.546503e+01
   1.462102e+02   2.757132e+02
  -1.959386e+02   2.404377e+02
  -3.038912e+02   5.975478e+01
  -1.831323e+02  -1.058864e+02
   5.923909e+01  -3.003266e+02
   2.132943e+02  -3.640364e+02
   3.241678e+02  -2.185506e+02
   3.101467e+02   1.669299e+02
   8.719701e+01   4.202918e+02
  -7.388363e+01   3.482566e+02
  -4.489661e+01   1.240393e+02
  -3.151424e+01   9.238665e+01
  -8.706443e+01   1.092614e+02
  -2.383788e+02   1.129787e+02
  -2.383320e+02  -3.944770e+01
  -9.825993e+01  -2.554272e+02
   3.439332e+01  -2.134313e+02
   2.021197e+02  -9.404101e+00
   1.828313e+02   2.678925e+02
  -3.337614e+01   2.732857e+02
  -2.219394e+02   1.297933e+02
  -3.243386e+02  -1.706842e+02
  -1.805385e+02  -3.148063e+02
   5.463805e+01  -3.026092e+02
   2.075935e+02  -1.814849e+02
   1.386519e+02  -1.691974e+01
   1.072549e+02  -4.828222e+01
   2.840339e+02  -4.658384e+01
   3.671183e+02   5.859355e+01
   2.820988e+02   3.138462e+02
  -1.280107e+01   4.108258e+02
  -3.761246e+02   3.784551e+02
  -4.946111e+02   1.668246e+02
  -2.850676e+02  -7.717126e+01
  -9.307293e+01  -2.866218e+02
   7.156341e+01  -2.431371e+02
   8.413041e+01   3.301128e+00
  -1.319604e+02   9.661042e+01
  -1.398248e+02  -2.030848e+01
  -1.238551e+01  -1.399993e+02
   1.809158e+02  -1.753978e+02
   1.345748e+02   4.977253e+01
  -2.609525e+01   2.058301e+02
  -2.012211e+02   6.668179e+00
  -1.701053e+02  -2.395718e+02
   3.072347e+01  -3.215396e+02
   2.210001e+02  -1.645420e+02
   2.964875e+02   4.708862e+01
   2.557684e+02   2.535675e+02
   7.941702e+01   2.613786e+02
  -9.594623e+01   1.653793e+02
  -1.499615e+02  -5.923442e+00
  -4.246573e+01  -6.217215e+00
   6.018843e+01  -7.343052e+00
  -3.357488e+00   9.909599e+01
  -1.236669e+02   1.097970e+02
  -1.639256e+02   8.540441e+00
  -5.074834e+01  -6.052335e+01
   7.575271e+01   1.797715e+01
   6.115216e+01   5.757983e+01
  -1.221162e+02   9.187115e+01
  -2.532986e+02   1.757267e+01
  -2.599209e+02  -1.406145e+02
  -5.426404e+01  -2.222242e+02
   1.846518e+02  -2.698654e+02
   2.625759e+02  -1.046781e+02
   1.196403e+02   1.000933e+00
  -3.354627e+01   9.912665e+01
  -8.299102e+01  -2.322080e+01
   3.106529e+01  -9.436545e+01
   1.447935e+02  -7.241639e+01
   1.819596e+02   9.959894e+01
   4.598121e+01   1.980127e+02
  -9.796612e+01   1.289395e+02
  -1.373037e+02   1.449839e+01
  -7.557082e+01  -1.332851e+01
   3.220015e+01  -3.217372e+00
  -1.176940e+01   9.921884e+01
  -1.063424e+02   1.560919e+02
  -1.891630e+02   2.914457e+01
  -1.794833e+02  -1.322165e+02
  -4.904882e+01  -1.823198e+02
   1.825801e+02  -1.625896e+02
   1.866644e+02   6.767384e+00
   9.154734e+01   1.121614e+02
  -8.431324e+01   9.341616e+01
  -4.392711e+01   2.158378e+01
  -2.173199e+01  -3.228723e+01
   4.671892e+01   2.517181e+01
   1.946250e+01   1.193744e+01
  -6.894164e+01  -3.476544e+01
  -9.326260e+01  -8.184931e+01
   2.054137e+01  -1.567130e+02
   7.618181e+01  -1.469551e+02
   2.219383e+02  -3.091123e+01
   2.069487e+02   1.566396e+02
   3.180846e+01   2.615094e+02
  -1.049937e+02   1.926262e+02
  -1.163128e+02   1.976533e+01
  -3.175835e+01  -6.183203e+01
  -2.849692e+01  -6.401378e+01
  -1.379799e+01   6.541146e+00
  -4.040936e+01   2.594833e+01
  -1.593654e+00  -8.127083e+01
   4.097243e+01  -8.113058e+01
   1.236480e+02  -6.592526e+01
   8.116066e+01   6.258140e+01
   2.724395e+00   1.207988e+02
  -1.451002e+02   3.396002e+01
  -1.927205e+02  -3.796449e+01
  -1.085154e+02  -1.890555e+02
   1.103279e+02  -2.173127e+02
   2.510744e+02  -9.817487e+01
   2.679650e+02   3.750316e+01
   1.000134e+02   1.444510e+02
  -3.131426e+01   1.484481e+02
  -1.181670e+02   8.133816e+01
  -6.771214e+01   7.381730e+01
  -8.717912e+01   6.837040e+01
  -8.329442e+01   5.388109e+01
  -1.451423e+02  -1.124443e+01
  -1.266203e+02  -1.901517e+02
  -2.835014e+01  -2.150725e+02
   1.463034e+02  -1.411907e+02
   1.606100e+02  -1.777097e+01
   1.291975e+02   1.637738e+02
   1.807236e+01   1.609578e+02
  -3.301409e+01   6.390853e+01
  -1.615640e+01  -2.012938e+01
  -3.994188e+01  -2.553156e+00
   7.377900e+00  -4.437093e+01
  -5.706982e+01   1.499134e+00
  -7.312027e+01  -1.182205e+01
  -2.803125e+01  -5.578391e+01
   8.337025e+01  -2.419142e+01
   1.908291e+02  -3.112918e+01
   1.436918e+02   4.363029e+01
   1.022464e+01   6.332316e+01
  -1.812058e+02   5.026293e+01
  -1.219942e+02   3.793768e+00
  -2.625428e+01  -3.241659e+01
   6.243024e+01  -5.688390e+01
   6.721501e+01   3.976776e+01
   2.743648e+01   8.652362e+01
  -8.121042e+01   7.011206e+01
  -9.371433e+01  -9.049215e+00
  -7.558566e+01  -4.639046e+01
  -2.902158e+01  -3.734645e+01
  -2.567804e+01   1.063183e+01
  -9.919489e+01  -9.067340e+00
  -5.064635e+01  -7.510084e+01
   8.008254e+01  -1.400121e+02
   9.110739e+01  -1.205213e+02
   1.762791e+02  -3.443617e+01
   1.252886e+02   9.739781e+01
  -9.314271e+00   1.037072e+02
  -1.205021e+02   3.799673e+01
  -2.684084e+01  -1.091216e+01
   7.365023e+01   2.579776e+01
   1.164497e+02   5.641390e+01
   6.324648e+01   7.393123e+01
  -1.108528e+02   1.042378e+02
  -1.982007e+02   5.462774e+01
  -1.647324e+02  -5.988026e+01
  -7.772532e+01  -5.142210e+01
   8.769790e+01  -5.325765e+01
   5.866462e+01  -3.318156e+01
  -4.005778e+01   3.842057e+01
  -7.261821e+01  -5.652567e+01
  -2.784971e+01  -1.383579e+02
   1.293594e+02  -1.611247e+02
   1.543720e+02  -6.096896e+01
   1.259200e+02   1.187619e+02
   1.131066e+01   2.129157e+02
  -5.789260e+01   1.209631e+02
  -7.971226e+01  -5.823173e+00
  -3.129737e+01  -1.283574e+02
   9.552219e+00  -9.605199e+01
   4.010250e+01   7.510818e-01
   4.847122e+01   6.817665e+01
   4.748867e+01   3.252024e+01
   2.128707e+01  -2.545558e+01
   3.567237e+01  -1.659581e+01
   5.232402e+01   1.074647e+02
   3.442029e+01   1.229581e+02
  -4.146342e+01   6.000239e+01
  -1.360588e+02  -4.139561e+01
  -1.146126e+02  -1.035117e+02
  -2.638611e+01  -7.586083e+01
   1.047113e+02  -1.232604e+01
   7.191801e+01  -8.070649e+00
   1.930594e+01  -1.346109e+00
  -5.502418e+01   3.585241e+01
  -2.564589e+00   3.660396e+01
   3.674935e+01  -3.494972e+01
  -2.131430e+01   2.436564e+01
  -6.898656e+01  -1.899995e+01
  -5.724007e+01  -4.653384e+01
  -2.791714e+00  -1.001364e+02
   8.834811e+01  -1.142725e+02
   1.253150e+02  -5.676184e+01
   1.197644e+02   5.440246e+01
  -2.176764e+01   1.417070e+02
  -5.813567e+01   1.673993e+02
  -1.092512e+02   5.849463e+01
  -1.057426e+02  -2.715829e+01
  -3.463028e+01  -2.500831e+01
  -2.356532e+01   2.200308e-01
  -2.618606e+01  -3.261630e+01
  -2.448639e+01  -3.420909e+01
  -2.605803e+01  -7.583566e+01
   3.314427e+01  -7.356821e+01
   8.562554e+01  -1.057575e+01
   1.034002e+02   1.243247e+02
  -2.649433e+01   1.300574e+02
  -9.711175e+01   6.631644e+01
  -1.074725e+02  -8.323221e+01
  -2.187377e+01  -7.282236e+01
   6.656696e+01  -5.497676e+01
   9.146602e+01   3.375913e+01
   2.277815e+01   3.675951e+01
  -1.497659e+01   5.443964e+01
  -1.094458e+01   1.631274e+01
   3.578446e+01   6.192224e+00
   5.208737e+01  -4.735464e+01
   5.785752e+01   3.561712e+00
  -1.067361e+02   1.067411e+02
  -1.006173e+02   3.993527e+01
  -4.956907e+01  -1.025488e+01
   3.162835e+01  -9.051598e+01
   4.987413e+01  -4.338197e+01
   8.487858e-01   2.214877e+00
  -1.947612e+00   5.048533e+01
   6.621172e+00   3.271893e+01
  -2.418747e+01  -4.245937e+01
  -2.539637e+01  -2.228771e+01
  -1.741524e+01  -3.015181e+01
   3.495589e-01  -4.043482e+00
   2.020883e+01   4.745191e+01
   6.494335e+00  -1.152562e+01
  -9.618921e+00  -1.170815e+01
  -2.974649e+01   2.803752e+01
  -2.351221e+01   5.840081e+01
   9.437151e+00   3.647468e+01
  -7.948749e+01  -3.306880e+01
  -2.082786e+01  -7.938217e+01
   6.961347e+00  -7.827768e+01
   3.813650e+01  -1.315775e+01
   8.318770e+01   1.065774e+01
   2.973203e+00   2.660710e+01
  -3.848339e+01   7.762374e+00
  -1.220530e+02   5.492843e+00
  -6.242985e+01  -4.190696e+01
   2.438404e+01  -4.801628e+01
   1.136374e+02  -4.124936e+01
   2.789057e+01  -1.084700e+01
  -2.979940e+01  -2.275588e+01
  -1.137844e+01  -1.950425e+01
   2.718253e+01  -6.746901e+01
   1.091508e+02  -1.604676e+01
