
 $NMID
 id='ANONYMOUS ', fmtdat='(2E16.6)'
 volume=1.0
 tramp=1.0
 $END
   3.313697e+03   1.774549e+02
   1.815448e+03   1.450962e+03
   1.802996e+02   2.258811e+03
  -1.191524e+03   1.293534e+03
  -1.166704e+03   1.000650e+02
  -1.496495e+02  -2.340355e+02
   4.299430e+02  -5.671277e+01
  -3.572334e-01   5.666736e+02
  -5.590909e+02   5.248360e+02
  -6.931490e+02   2.335646e+02
  -4.369490e+02  -5.050944e+02
  -6.298950e+01  -7.493719e+02
   2.081891e+02  -1.684696e+02
   2.445976e+02   3.595746e+02
  -1.085609e+02   4.666374e+02
  -4.066852e+02   7.760991e+01
  -3.041284e+02  -5.375247e+02
   1.816427e+01  -5.231258e+02
   4.598293e+02  -2.822848e+02
   4.604843e+02   1.538910e+02
   1.005497e+02   3.348666e+02
  -1.061075e+02   2.514533e+02
  -6.348596e+01   1.077564e+02
   1.411702e+02   1.081982e+02
   2.265651e+02   2.875741e+02
   1.544072e+01   3.393786e+02
  -4.928369e+02   1.394323e+02
  -6.318444e+02  -7.449549e+01
  -1.720434e+02  -3.313852e+02
   3.325969e+02  -2.695335e+02
   4.954485e+02   1.476577e+02
   2.107543e+02   3.922041e+02
  -2.496270e+02   3.770466e+02
  -4.163461e+02   1.801810e+02
  -3.308333e+02  -1.390176e+02
  -1.573077e+02  -3.370855e+02
   4.714131e+01  -1.608540e+02
  -6.987093e+01   1.248156e+02
  -1.314211e+02   9.341117e+01
  -2.180450e+02  -1.128458e+02
  -4.640660e+01  -4.771390e+02
   2.199379e+02  -3.682813e+02
   4.070377e+02   1.116786e+01
   1.430436e+02   2.754215e+02
  -1.380250e+02   1.004516e+02
  -1.926987e+02  -2.763781e+02
   7.204434e+01  -4.203662e+02
   4.056081e+02  -5.070011e+01
   5.145625e+02   3.821719e+02
   1.768210e+02   4.587699e+02
  -2.840123e+02   2.180897e+02
  -5.583051e+02  -1.233812e+01
  -3.292514e+02  -2.408591e+02
   2.490449e+01  -2.841445e+02
   3.302008e+02  -9.488241e+01
   2.408231e+02  -1.073373e+01
   2.239113e+01   2.751362e+01
  -6.115761e+01  -8.796387e+01
   4.989865e+01  -8.544633e+01
   2.381814e+02   4.587824e+01
   1.448118e+02   1.963285e+02
  -1.574681e+02   2.374070e+02
  -3.717538e+02   1.800645e+02
  -2.779334e+02  -7.390740e+01
   1.616250e+00  -3.137279e+02
   3.087293e+02  -3.226865e+02
   3.497495e+02  -1.816716e+02
   2.368371e+02   1.189135e+02
   2.625165e+01   3.989503e+02
  -3.539325e+01   3.508350e+02
  -1.821180e+01   1.615669e+02
  -7.552517e+01   1.071810e+02
  -1.382304e+02   1.295760e+02
  -2.325040e+02   7.609612e+01
  -1.959797e+02  -8.922153e+01
  -9.261839e+01  -2.048513e+02
   8.313979e+01  -1.730358e+02
   1.456412e+02   7.436319e+01
   1.403204e+02   2.364365e+02
  -3.419809e+01   2.653282e+02
  -2.525890e+02   7.567770e+01
  -3.487936e+02  -1.321847e+02
  -1.676377e+02  -2.508704e+02
  -1.075292e+00  -2.148470e+02
   1.935961e+02  -1.449676e+02
   1.542132e+02  -6.193208e+01
   1.320838e+02  -7.628005e+01
   2.747494e+02  -2.281676e+01
   3.995075e+02   4.738496e+01
   3.277794e+02   3.667768e+02
  -2.190231e+01   4.366529e+02
  -4.576199e+02   3.991894e+02
  -4.656244e+02   1.792686e+02
  -2.865991e+02  -1.139896e+02
   1.635703e+00  -2.235241e+02
   5.233804e+01  -2.283718e+02
  -1.251682e+01  -3.229078e+01
  -1.192519e+02   5.131384e+01
  -1.740784e+02  -4.748452e+01
  -1.483826e+01  -1.578813e+02
   1.074448e+02  -7.171716e+01
   9.622764e+01   2.907057e+01
  -1.953215e+01   1.149277e+02
  -1.935614e+02  -2.907196e+01
  -1.151437e+02  -2.671883e+02
  -9.085722e+00  -3.492313e+02
   2.248629e+02  -2.319712e+02
   3.471660e+02   1.234124e+02
   2.859064e+02   2.612570e+02
   3.759875e+01   2.902152e+02
  -1.333338e+02   1.250731e+02
  -1.281871e+02  -2.604057e+00
  -1.991660e+01  -1.686217e+00
   3.620049e+01   7.408961e+01
  -2.312767e+01   1.148884e+02
  -1.785408e+02   6.870675e+01
  -1.277779e+02  -1.843615e+01
  -3.454647e+01  -4.944462e+01
   1.115044e+02   4.335334e+01
   5.530042e+01   1.204677e+02
  -1.420198e+02   1.192412e+02
  -2.856607e+02  -3.199127e+01
  -1.919152e+02  -1.857533e+02
  -4.629263e+00  -2.460351e+02
   2.326690e+02  -2.318203e+02
   2.702325e+02  -6.243228e+01
   1.048509e+02   4.011404e+01
  -7.038723e+00   7.913191e+01
  -6.506608e+01  -2.101076e+01
   4.963301e+00  -8.168166e+01
   1.787253e+02  -4.055918e+01
   1.891168e+02   1.310843e+02
   5.795780e+01   1.586999e+02
  -6.516616e+01   1.035768e+02
  -9.271192e+01  -2.252374e-01
  -6.965886e+01  -1.567636e+01
   1.097091e+01   6.110519e+01
   1.909518e+01   9.131876e+01
  -8.693819e+01   1.038461e+02
  -2.057068e+02   4.963393e+00
  -1.681551e+02  -1.322824e+02
  -6.785921e+00  -2.055047e+02
   1.289992e+02  -1.278313e+02
   2.057894e+02  -1.964196e+01
   6.832449e+01   9.858604e+01
  -5.816912e+01   8.919864e+01
  -6.539632e+01  -1.549140e+01
   3.396532e+00  -6.802356e+01
   1.170931e+01   9.655449e-01
   5.415465e+00  -1.194311e+01
  -1.116951e+02   1.027260e+00
  -1.344248e+02  -9.159185e+01
   4.587783e+00  -1.872967e+02
   1.438097e+02  -1.762266e+02
   2.333013e+02   4.020240e+00
   1.587941e+02   1.640536e+02
  -1.909088e+01   2.288957e+02
  -1.200735e+02   1.519352e+02
  -1.100525e+02   4.353931e+01
  -7.347299e+01  -4.174146e+01
  -5.221469e+01  -6.335461e+01
  -1.058002e+02   1.559544e+01
  -1.235499e+02   1.541033e+01
  -4.642620e+01  -4.322362e+01
   4.451007e+01  -8.992860e+01
   9.703726e+01  -5.822618e+01
   1.244432e+02   7.767683e+01
  -3.691112e-01   1.082689e+02
  -1.381462e+02   5.682144e+01
  -2.065135e+02  -5.900399e+01
  -5.383490e+01  -2.282496e+02
   1.175357e+02  -1.912959e+02
   2.487455e+02  -5.839158e+01
   2.419103e+02   8.820357e+01
   9.977876e+01   1.664778e+02
  -1.799038e+01   1.477987e+02
  -9.634274e+01   6.511726e+01
  -3.462859e+01   6.381843e+01
  -7.419544e+01   7.787249e+01
  -8.890499e+01   5.511437e+01
  -1.347051e+02  -5.306605e+01
  -8.940769e+01  -1.523923e+02
  -3.306147e+00  -2.175189e+02
   8.390456e+01  -1.790705e+02
   1.388643e+02  -3.170570e+01
   1.208677e+02   1.272637e+02
   1.897305e+00   1.584467e+02
  -5.147852e+01   4.323316e+01
  -4.793404e+01   1.091435e+00
  -1.359294e+01  -5.525300e+01
   5.780207e+01  -5.401615e+01
  -3.010165e+01  -5.608293e+00
  -6.041523e+01  -3.798561e+01
  -5.266692e+01   8.956779e+00
   8.310119e+01  -4.405106e+01
   1.694678e+02  -3.980880e+01
   1.321595e+02   5.580156e+01
  -3.821492e+00   8.439853e+01
  -1.429762e+02   6.134955e+01
  -1.113606e+02  -5.495327e+01
  -7.695349e+01  -7.895210e+01
   7.050401e+01  -4.985548e+01
   7.908879e+01   2.926745e+01
  -9.798429e+00   5.995214e+01
  -1.892874e+01   8.386393e+01
  -5.772753e+01  -2.838363e+01
  -8.336297e+01  -6.778716e+01
  -3.324276e+01  -4.726860e+01
  -5.986146e+01   4.394230e+00
  -3.568958e+01  -1.468565e+01
  -1.601949e+01  -9.278128e+01
   7.319542e+01  -1.559808e+02
   1.106376e+02  -1.353647e+02
   1.630356e+02  -2.340026e+01
   1.475394e+02   8.946658e+01
   8.496738e-01   1.249289e+02
  -9.730104e+01   3.338852e+01
  -8.463438e+01  -5.430671e+01
   6.254308e+01  -2.724364e+01
   1.289994e+02   8.594386e+01
   3.403454e+01   1.389962e+02
  -8.023497e+01   1.120168e+02
  -1.933925e+02   4.145530e+01
  -1.848681e+02  -1.663993e+00
  -4.076052e+01  -6.357876e+01
   2.224031e+01   5.527633e+00
   2.765501e+01  -8.735602e+00
  -5.021802e+00   1.933773e+01
  -8.492924e+01  -2.241528e+01
  -7.253513e+01  -1.105758e+02
   1.050948e+02  -1.699102e+02
   1.379137e+02  -2.903655e+01
   1.152908e+02   1.400906e+02
   3.287536e+01   1.986948e+02
  -8.264918e+01   8.433610e+01
  -1.359259e+02   2.788280e+00
  -6.532322e+01  -1.107673e+02
   3.480872e+01  -1.106613e+02
   5.510864e+01  -2.973868e+01
   1.569224e+01   2.482855e+00
   4.278645e+01   1.860004e+01
   2.718983e+01  -9.455270e+00
  -3.787104e-01   2.007717e+01
   4.983658e+01   6.555902e+01
   3.434060e+01   1.101671e+02
  -6.093125e+01   2.703099e+01
  -1.248738e+02  -5.728262e+01
  -1.319776e+02  -8.727849e+01
  -9.575170e+00  -4.664037e+01
   5.271774e+01  -5.366152e+01
   8.640094e+01  -2.564619e+01
   1.224881e+00   3.104788e+01
  -1.627796e+01   2.821184e+00
   1.430088e+01   3.708352e+01
   2.173183e+01   1.175297e+01
   2.672776e+01  -1.170851e+01
  -5.718028e+01  -6.744535e-02
  -9.039014e+01  -3.315432e+01
  -9.510717e+00  -1.166712e+02
   1.097186e+02  -8.844964e+01
   2.042486e+02  -9.946343e+01
   1.536562e+02   4.351637e+01
   4.826711e+01   1.771938e+02
  -7.969607e+01   1.527337e+02
  -8.585567e+01   6.418880e+01
  -9.055176e+01  -6.351223e+01
  -2.611989e+01  -3.944112e+01
   1.037384e+01  -1.439967e+01
  -2.917920e+01  -1.931604e+01
  -6.800972e+00  -5.812647e+01
  -2.065878e+01  -6.632900e+01
  -9.294537e+00  -8.253909e+01
   7.760743e+01   3.144893e+01
   6.280593e+01   8.542788e+01
   2.925681e+01   1.010995e+02
  -5.572936e+01   3.574611e+01
  -1.139935e+02  -6.011497e+01
  -4.152243e+01  -1.265329e+02
   5.160766e+01  -6.150213e+01
   1.025739e+02   2.854098e+01
   4.779059e+01   3.541499e+00
  -6.019550e+00   3.151495e+01
  -3.873434e+01   3.309158e+01
   6.084772e+01  -3.035919e+01
   1.062203e+02   1.023369e+01
   3.014966e+01   1.936640e+00
  -8.751457e+01   8.752018e+01
  -1.081380e+02   6.889696e+01
  -6.020717e+01   3.282908e+00
   7.033218e+01  -6.999930e+01
   3.991528e+01  -4.050607e+01
   7.963582e+01  -3.167148e+00
  -5.694532e+00   2.697972e+01
  -1.157623e+01   6.985590e+01
  -1.099394e+01   3.143759e+00
  -3.140925e+01  -6.087057e+01
   3.989253e+00  -2.546542e+01
   1.587259e+01   3.314120e+00
   3.090589e+01   4.087724e+01
   4.491773e+01  -1.183297e+01
  -3.234697e+01  -4.258066e+00
  -9.241738e+00   3.034107e+01
   1.471654e+01   7.300009e+01
   2.284636e+01   1.123889e+02
  -5.748200e+01   1.426443e+01
  -6.357524e+01  -3.493392e+01
  -2.847057e+01  -7.723604e+01
   5.248017e+01  -1.439345e+01
   8.999895e+01   1.315350e+01
   1.323796e+01   5.617822e+01
  -7.985367e+01   1.773861e+01
  -9.614736e+01  -1.751427e+01
  -2.988149e+00  -5.588540e+01
   2.401320e+01  -3.723419e+01
   1.064844e+02  -3.401820e+01
   1.096575e+01  -2.241837e+01
   1.044816e+01   3.443324e+00
  -3.197648e+01   1.268363e+01
   2.403019e+01  -3.458931e+01
   5.782394e+01  -2.536740e+01
