
 $NMID
 id='ANONYMOUS ', fmtdat='(2E16.6)'
 volume=1.0
 tramp=1.0
 $END
  -3.426116e+03   1.422000e+01
  -1.921777e+03  -1.667201e+03
   1.998544e+02  -2.499372e+03
   1.309391e+03  -9.749287e+02
   1.253333e+03   9.728019e+01
  -6.355528e+00   1.683446e+02
  -6.136850e+02  -1.284756e+02
   6.286225e+01  -6.294858e+02
   6.309799e+02  -5.851826e+02
   7.616909e+02   2.517091e+01
   3.416283e+02   6.249676e+02
  -3.182338e+01   7.893510e+02
  -3.655258e+02   2.800519e+02
  -3.432923e+02  -4.892228e+02
   1.401640e+02  -5.477100e+02
   4.866283e+02  -5.636692e+01
   2.758619e+02   5.009964e+02
  -1.498703e+02   5.945416e+02
  -4.938029e+02   2.565875e+02
  -3.997631e+02  -2.544784e+02
  -1.310599e+02  -3.501302e+02
   1.380729e+02  -3.068779e+02
   1.509296e+02  -8.870661e+01
  -1.429620e+02  -8.364491e+01
  -2.560962e+02  -2.868774e+02
   4.956546e+00  -3.941189e+02
   4.705862e+02  -1.981722e+02
   6.282523e+02   1.172309e+02
   2.425176e+02   3.646979e+02
  -2.903862e+02   3.425841e+02
  -4.971511e+02  -1.111514e+02
  -2.307585e+02  -4.284947e+02
   3.304796e+02  -4.145210e+02
   4.748433e+02  -1.771204e+02
   2.931573e+02   1.929985e+02
   9.914045e+01   2.868715e+02
  -5.047530e+01   2.367481e+02
  -4.564851e+01  -1.742115e+02
   2.364167e+02  -1.927370e+02
   3.211696e+02   1.162894e+02
   8.346619e+01   6.012400e+02
  -2.343423e+02   5.254715e+02
  -3.664302e+02   5.268759e+00
  -5.564158e+01  -3.668521e+02
   1.627895e+02  -2.044588e+02
   2.677371e+02   3.443075e+02
  -1.611037e+02   4.188813e+02
  -4.766292e+02   7.765270e+01
  -4.864598e+02  -4.138549e+02
  -1.345907e+02  -4.697162e+02
   3.291352e+02  -2.870318e+02
   5.957476e+02   1.264184e+02
   3.655847e+02   2.631060e+02
  -3.842280e+01   2.790253e+02
  -3.687845e+02   9.059066e+01
  -2.486090e+02  -7.511042e+01
  -1.870915e-02  -6.932302e+01
   3.546175e+01   9.283738e+01
  -1.011387e+02   7.685166e+01
  -2.842281e+02  -8.541844e+01
  -1.628545e+02  -2.008802e+02
   1.981387e+02  -1.892846e+02
   3.498448e+02  -1.640768e+02
   2.548384e+02   1.010743e+02
  -4.895145e+01   2.912020e+02
  -2.583781e+02   3.030529e+02
  -3.241060e+02   1.566491e+02
  -2.455051e+02  -1.461202e+02
   2.952645e+00  -3.822373e+02
   5.493559e+01  -3.160955e+02
   2.352241e+01  -1.791247e+02
   1.248831e+01  -5.248320e+01
   1.352304e+02  -1.217379e+02
   2.168582e+02  -7.103406e+01
   2.425656e+02   1.364063e+02
   1.205028e+02   2.416819e+02
  -3.752256e+01   2.005127e+02
  -2.112892e+02  -3.014748e+01
  -1.760485e+02  -2.310863e+02
   2.822825e+01  -2.670785e+02
   2.782668e+02  -8.165452e+01
   4.085207e+02   1.679331e+02
   1.264943e+02   3.199929e+02
  -8.188180e+01   2.191517e+02
  -1.834871e+02   1.597514e+02
  -1.866914e+02   4.342283e+01
  -1.212549e+02   5.801097e+01
  -2.646619e+02   4.306990e+01
  -4.238686e+02  -3.503230e+01
  -3.531865e+02  -2.560463e+02
   2.772159e+01  -4.267340e+02
   3.676258e+02  -3.647070e+02
   5.119433e+02  -1.617257e+02
   2.860922e+02   1.314837e+02
   9.033223e+01   2.867550e+02
  -1.015141e+02   1.674696e+02
  -8.180288e+00   4.072479e+01
   1.007408e+02  -9.692796e+01
   1.796592e+02   4.291205e+01
  -1.125515e+00   1.877929e+02
  -7.651566e+01   1.555081e+02
  -1.415455e+02  -2.440137e+01
   3.541118e+01  -1.557945e+02
   1.534032e+02  -2.206407e+01
   1.206825e+02   2.122097e+02
  -2.671308e+01   3.287203e+02
  -2.453504e+02   2.294426e+02
  -3.316777e+02  -5.237227e+01
  -2.639506e+02  -2.660674e+02
  -9.599289e+01  -2.556304e+02
   1.365349e+02  -1.011059e+02
   1.765597e+02  -4.680567e+00
   1.380072e+01   2.749032e+01
  -4.998845e+01  -2.712227e+01
   2.799769e+01  -9.818681e+01
   1.044889e+02  -3.047101e+01
   1.826843e+02  -5.638190e+00
   6.320004e+00   7.582785e+01
  -1.099903e+02  -2.115474e+01
  -6.632330e+01  -1.138716e+02
   1.342136e+02  -9.531386e+01
   3.002187e+02   2.440047e+01
   2.469088e+02   1.776192e+02
  -2.786096e+01   2.648084e+02
  -1.887943e+02   2.403974e+02
  -3.057780e+02   7.787667e+01
  -1.216527e+02  -5.435874e+01
  -2.180302e+00  -9.518686e+01
   8.514116e+01  -3.216724e+01
  -8.513253e+00   1.082510e+02
  -1.948078e+02   1.232577e+01
  -1.571205e+02  -1.200680e+02
   4.741093e+00  -2.066391e+02
   9.039256e+01  -8.798619e+01
   1.245832e+02  -1.378041e+01
   9.819521e+01   4.057252e+01
  -2.849762e+01  -1.772459e+01
  -7.380980e+01  -9.686533e+01
   7.555360e+01  -8.823717e+01
   1.961133e+02  -1.733816e+01
   1.809054e+02   1.249102e+02
   4.650265e+01   2.138480e+02
  -1.453693e+02   1.461368e+02
  -1.700873e+02  -6.282286e+00
  -5.633098e+01  -8.879290e+01
   6.887583e+01  -9.348874e+01
   5.738160e+01  -1.751421e+01
   1.627227e+01   4.354567e+01
  -6.278908e+01   3.543732e+01
  -1.966470e+01  -2.872326e+01
   7.583535e+01   1.461096e+01
   1.210916e+02   9.132054e+01
  -4.187295e+01   1.568268e+02
  -1.340483e+02   1.661695e+02
  -2.495478e+02  -3.052126e+00
  -1.919029e+02  -1.616978e+02
  -2.928615e+00  -2.279386e+02
   8.086568e+01  -1.458240e+02
   1.298357e+02  -4.054500e+01
   5.708895e+01   3.669139e+01
   1.293666e+01   2.462290e+00
   6.068024e+01   1.913040e+01
   1.149465e+02  -3.430798e+01
  -1.995834e-01   2.988221e+01
  -2.675606e+01   1.176005e+02
  -1.231619e+02   5.910869e+01
  -1.069634e+02  -3.764787e+01
   1.242167e+01  -1.385097e+02
   1.551402e+02  -9.763662e+01
   2.055523e+02   8.867889e+01
   9.800830e+01   1.891792e+02
  -1.255270e+02   1.910312e+02
  -2.560761e+02   1.035846e+02
  -2.460024e+02  -1.014169e+02
  -4.211743e+01  -1.586675e+02
   9.448863e+01  -1.360589e+02
   8.469671e+01  -6.295790e+01
   6.893846e+01  -6.287957e+01
   5.422477e+01  -7.776281e+01
   5.616227e+01  -7.146695e+01
   1.695794e+02   5.452767e+01
   9.983465e+01   2.059054e+02
  -3.985136e+01   2.119993e+02
  -1.234395e+02   1.206501e+02
  -1.199236e+02  -3.198839e+00
  -1.321791e+02  -1.210708e+02
   1.949999e+01  -1.822973e+02
   8.772579e+01  -8.024833e+01
   7.842297e+01   6.948588e+00
   3.625150e+01   2.303517e+01
   1.066598e+01   1.628280e+01
   3.687596e+00   2.535833e+01
   9.415659e+01  -1.901103e+01
   2.409487e+01   2.636550e+01
  -5.269149e+01   3.303576e+01
  -1.687887e+02   1.199669e+01
  -1.608747e+02  -6.097210e+01
   1.688092e+01  -9.291406e+01
   1.300091e+02  -5.991483e+01
   1.358068e+02  -9.629404e+00
   1.105523e+01   6.813768e+01
  -3.137130e+01   3.967376e+01
  -7.571155e+01  -2.801071e+01
  -1.235194e+01  -8.683430e+01
   5.462949e+01  -5.910482e+01
   6.240893e+01  -1.173911e+01
   6.361804e+01   4.297942e+01
   5.477072e+01  -4.405345e+00
   4.233887e+01   2.215988e+01
   1.097768e+02  -2.117032e+01
   3.834650e+01   3.498676e+01
  -1.899584e+01   1.425017e+02
  -1.372314e+02   1.531351e+02
  -1.719510e+02   5.608945e+01
  -1.507636e+02  -1.365338e+02
   1.388753e+01  -1.426711e+02
   1.116944e+02  -6.298594e+01
   6.374706e+01  -3.929535e-02
  -3.966493e+01   1.262770e+01
  -1.782041e+02  -5.361906e+01
  -6.717651e+01  -1.182111e+02
   1.059044e+02  -1.157379e+02
   1.516365e+02  -3.214855e+01
   1.487512e+02   6.515447e+01
   4.150713e+01   1.260882e+02
  -6.228295e+01   9.443544e+01
  -5.892458e+01   3.197542e+01
   4.965055e+01   2.207046e+01
   1.066155e+02   2.535656e+01
   1.014222e+01   1.501132e+02
  -9.966780e+01   1.593634e+02
  -1.817894e+02   5.988263e+01
  -1.240680e+02  -7.668471e+01
  -4.948870e+00  -2.057501e+02
   9.621194e+01  -1.223337e+02
   1.240464e+02  -1.318865e+00
   4.330585e+01   1.025557e+02
  -2.786994e+01   1.167874e+02
  -4.980552e+01   1.782504e+01
  -6.338812e+01  -3.426927e+01
  -9.564768e+00  -3.078118e+01
   3.351894e+00   1.560822e+01
  -1.935507e+01  -4.162108e+01
  -7.700606e+01  -1.064055e+02
  -3.492966e+01  -1.156603e+02
   6.376490e+01  -6.763851e+01
   1.254299e+02   2.647114e+01
   1.165822e+02   8.495100e+01
   2.354043e+00   3.737653e+01
  -1.514754e+02  -6.726873e+00
  -1.075259e+02   8.607864e+00
  -2.707731e+01   1.088853e+01
   2.521765e+01  -1.788376e+01
   4.471281e+01  -1.229074e+01
  -3.651989e+01   6.934790e+00
  -1.862136e+01   7.982051e+00
   9.435002e+01   7.317458e+00
   1.039969e+02   2.476861e+01
   2.946752e+01   8.878424e+01
  -1.420637e+02   1.193554e+02
  -1.705106e+02   4.613304e+01
  -1.429598e+02  -9.875905e+01
  -3.436210e+01  -1.918775e+02
   1.128602e+02  -1.519110e+02
   1.086618e+02  -9.748671e+01
   1.012340e+02   2.373118e+01
   3.974898e+01   1.119906e+01
  -8.187121e+00   3.243968e+01
   4.105448e+01  -1.480762e+01
   3.299851e+01   4.957568e+01
   4.182739e+01   8.796458e+01
  -7.030695e+01   8.726330e+01
  -4.963370e+01  -2.469301e+00
  -7.093595e+01  -8.414003e+01
   2.504863e+01  -1.291561e+02
   6.917258e+01  -2.579679e+00
   9.791197e+01   7.271505e+01
   4.066167e+01   1.209938e+02
  -4.873078e+01   4.473369e+01
  -1.064800e+02  -1.296112e+00
  -5.270684e+01  -4.307943e-01
   3.275257e+01  -3.471023e+01
   6.500631e+01  -4.485074e+01
  -3.773956e+01  -1.136421e+01
  -6.807212e+01  -1.089390e+01
  -4.684035e+00  -2.598897e+01
   5.055187e+01  -7.368960e+01
   8.906990e+01  -3.919321e+01
   5.634000e+01   4.719851e+01
  -2.098581e+01   6.206834e+01
  -3.359207e+01   9.737145e+01
  -7.932180e+01  -1.040241e+01
   3.004121e+01  -3.147777e+01
  -1.740745e+01  -7.117062e+01
   6.758500e+01  -2.225196e+01
   3.094649e+01   5.890716e+01
  -4.542587e+01   6.139419e+01
  -6.859217e+01  -9.995912e+00
  -4.619629e+01  -3.180444e+01
  -6.279474e+01  -9.492561e+00
   4.567712e+01  -1.543139e+01
   3.522795e+01  -1.356612e+01
  -4.092548e+00  -2.957411e+01
  -3.868602e+01  -5.768667e+01
   3.990112e+00  -3.019054e+00
   6.669804e+01   5.163696e+01
  -3.241251e+01   4.578742e+01
  -8.035794e+00   5.032487e+01
  -8.453020e+01  -6.124529e+01
   7.227445e+00  -6.838382e+01
   4.481642e+01  -3.673445e+01
   1.090407e+02   4.039471e+01
   5.141216e+01   4.635207e+01
  -1.868271e+01   2.916089e+01
  -6.194611e+01   3.980611e+01
  -3.307606e+01  -7.075265e-01
   1.295252e+01  -1.976964e+01
   4.019619e+01   1.035411e+01
  -1.530085e+01   2.730144e+01
  -7.073891e+01   1.957972e+01
