
 $NMID
 id='ANONYMOUS ', fmtdat='(2E16.6)'
 volume=1.0
 tramp=1.0
 $END
   4.810347e+03  -4.309247e+02
   2.746047e+03   2.717832e+03
  -4.256957e+02   3.063305e+03
  -2.312962e+03   9.797541e+02
  -1.124931e+03  -7.580206e+02
   6.115133e+02  -8.524305e+02
   1.111757e+03   3.774680e+02
   5.305472e-01   1.045022e+03
  -7.403838e+02   7.903085e+02
  -9.924776e+02  -7.362961e+01
  -5.085753e+02  -9.417567e+02
   2.223214e+02  -1.027737e+03
   7.945152e+02  -1.630418e+02
   3.905591e+02   7.455654e+02
  -2.581086e+02   7.308803e+02
  -5.722635e+02  -2.540888e+01
  -3.049535e+02  -6.864725e+02
   3.595612e+02  -6.793217e+02
   6.331489e+02  -1.419227e+02
   5.122485e+02   4.260998e+02
  -1.589524e+01   4.690479e+02
  -2.501758e+02   3.302211e+02
  -2.285592e+02   1.627728e+01
   7.009085e+01  -7.518019e+01
   3.651315e+02   6.411928e+01
   2.353188e+02   3.835116e+02
  -4.135395e+02   4.581183e+02
  -8.215292e+02  -5.356345e+01
  -5.122055e+02  -5.704038e+02
   3.472971e+02  -4.523352e+02
   8.058320e+02   1.505658e+01
   3.647601e+02   4.655101e+02
  -3.107487e+02   5.542146e+02
  -5.772597e+02   2.392451e+02
  -3.983395e+02  -2.338595e+02
  -1.062748e+02  -5.157731e+02
   1.786044e+02  -2.981657e+02
   2.253623e+02   1.478426e+02
  -2.060075e+02   4.061146e+02
  -4.404471e+02   4.257292e+01
  -2.683047e+02  -6.672941e+02
   2.244980e+02  -7.504294e+02
   6.419557e+02  -3.014273e+01
   3.199423e+02   5.905596e+02
  -2.562617e+02   4.555381e+02
  -4.397926e+02  -2.643037e+02
   6.204675e+01  -5.273909e+02
   6.018430e+02  -2.227181e+02
   6.083655e+02   3.595032e+02
   1.446195e+02   6.138729e+02
  -4.172818e+02   3.892945e+02
  -6.747918e+02  -9.504655e+01
  -4.257564e+02  -4.177064e+02
   1.073761e+02  -4.139772e+02
   4.405538e+02  -4.979156e+01
   3.111662e+02   1.987995e+02
  -9.765779e+01   1.170337e+02
  -1.312759e+02  -1.950591e+02
   1.943801e+02  -1.979730e+02
   3.069678e+02   1.998674e+01
   1.773910e+02   3.173062e+02
  -2.401545e+02   2.256447e+02
  -3.084229e+02   7.233695e+01
  -2.136684e+02  -1.017312e+02
   9.001185e+01  -2.443775e+02
   2.469965e+02  -2.995852e+02
   3.429195e+02  -2.422619e+02
   2.796278e+02   1.051430e+02
   6.415468e+01   4.769889e+02
  -1.071162e+02   4.162164e+02
  -1.277628e+02   1.596703e+02
  -5.076813e+01  -2.470504e+01
  -2.833221e+01   4.994772e+01
  -2.268495e+02   1.553772e+02
  -2.831680e+02  -3.886838e+01
  -1.742803e+02  -2.765259e+02
   8.107971e+00  -2.954787e+02
   2.183600e+02  -1.190871e+01
   2.001340e+02   2.419943e+02
   2.084414e+01   2.866831e+02
  -3.057655e+02   1.922122e+02
  -3.699730e+02  -1.378011e+02
  -2.604939e+02  -3.850667e+02
   1.025688e+02  -3.154864e+02
   2.290287e+02  -1.445050e+02
   1.798465e+02   1.111718e+01
   7.990081e+01  -4.267287e+01
   2.118472e+02  -5.616074e+01
   3.802176e+02   4.453762e+01
   3.223251e+02   2.852005e+02
  -9.077863e+00   4.186866e+02
  -4.024102e+02   4.498169e+02
  -4.851992e+02   1.757831e+02
  -3.765724e+02  -7.132006e+01
  -1.242911e+02  -3.148556e+02
   1.203381e+02  -3.179961e+02
   8.029410e+01  -4.528976e+01
  -7.309316e+01   1.057366e+02
  -2.066444e+02   4.907156e+00
  -5.583028e+01  -1.944784e+02
   1.757822e+02  -1.823040e+02
   1.729708e+02   1.036155e+02
   7.247163e+00   1.718888e+02
  -2.038367e+02   6.752425e+01
  -1.803038e+02  -2.894293e+02
   3.118278e+01  -3.559782e+02
   2.455581e+02  -1.864986e+02
   3.096691e+02   6.194637e+01
   2.327532e+02   2.529923e+02
   6.162561e+01   2.589044e+02
  -9.890945e+01   1.863139e+02
  -1.975161e+02   1.759284e+01
  -5.396506e+01  -7.711743e+01
   7.883701e+01   4.348464e+01
   3.760882e+01   9.786641e+01
  -7.264107e+01   9.775645e+01
  -1.504035e+02   1.830405e+01
  -5.964957e+01  -4.488789e+01
   6.802116e+01  -6.654223e+01
   5.274562e+01   6.593079e+01
  -1.473192e+02   9.672323e+01
  -2.654463e+02   1.708078e+01
  -2.674535e+02  -1.473851e+02
  -7.288211e+01  -2.527239e+02
   1.846817e+02  -2.497099e+02
   2.971199e+02  -1.134482e+02
   1.155588e+02  -4.693898e+00
  -4.722705e+01   1.427161e+02
  -1.367601e+02  -2.953456e+01
   2.469863e+01  -8.638092e+01
   1.769154e+02  -5.625590e+01
   2.049110e+02   1.271386e+02
   7.639800e+01   2.582701e+02
  -1.125656e+02   1.593979e+02
  -1.470522e+02   2.322645e+01
  -1.010646e+02  -5.523425e+00
   5.674235e+01  -4.828721e+01
   5.423419e+01   5.065972e+01
  -6.106482e+01   1.240850e+02
  -1.606709e+02   3.118431e+01
  -1.841180e+02  -1.454765e+02
   2.894150e+00  -2.284732e+02
   1.933955e+02  -2.071175e+02
   2.309000e+02   2.176201e-01
   4.206363e+01   8.097792e+01
  -6.269848e+01   1.079978e+02
  -7.677805e+01  -1.371128e+01
   2.122015e+01  -4.506459e+01
  -2.718836e+01  -3.768717e+01
   1.440366e+01  -1.410531e+00
  -9.185460e+01  -4.324050e+01
  -1.104628e+02  -8.102082e+01
  -5.865941e+00  -1.404300e+02
   1.597685e+02  -1.303237e+02
   2.525960e+02  -6.690827e+01
   1.789330e+02   1.676801e+02
   1.680692e+01   2.036663e+02
  -9.108395e+01   1.662118e+02
  -1.442905e+02   4.533072e+01
  -4.218212e+01  -7.740677e+01
  -3.779991e+01  -2.488855e+01
  -4.375577e+01  -2.393673e+01
  -7.587002e+01   7.378617e+00
  -3.207341e+00  -1.768854e+01
   5.529342e+01  -6.057669e+01
   9.877228e+01  -4.093016e+01
   1.022889e+02   5.336371e+01
  -1.067081e+01   1.168898e+02
  -1.521496e+02   9.074364e+01
  -1.936281e+02  -4.801145e+01
  -1.191859e+02  -2.044918e+02
   9.052324e+01  -1.837032e+02
   2.531646e+02  -7.974564e+01
   2.669926e+02   1.129769e+02
   1.138625e+02   2.150495e+02
  -6.171641e+01   1.599235e+02
  -8.677901e+01   5.466159e+01
  -9.524171e+01   3.779173e+01
  -8.498200e+01   9.086120e+01
  -1.034019e+02   7.452665e+01
  -1.434365e+02   1.476638e+01
  -1.446478e+02  -1.541557e+02
  -5.723975e+01  -2.224609e+02
   5.885196e+01  -1.615188e+02
   1.953386e+02  -2.289414e+01
   1.450253e+02   1.281982e+02
   1.056151e+01   1.043981e+02
  -7.053440e+01   7.934876e+01
  -4.010502e+01   1.039807e+01
  -2.188123e+00  -2.800049e+01
  -3.909016e+01  -2.643043e+01
  -7.012101e+01  -5.662886e+01
  -6.273691e+01  -7.850745e+00
  -3.235894e+01  -3.762735e+01
   8.261928e+01  -3.568229e+00
   1.157426e+02  -5.862683e+00
   1.307459e+02   4.620493e+01
  -6.114155e+00   5.649915e+01
  -1.349641e+02   9.302298e+01
  -1.327100e+02   2.198612e+00
  -6.019497e+01  -1.642698e+01
   6.658831e+01  -7.352335e+01
   6.981611e+01   1.599767e+01
   6.244779e+00   6.880455e+01
  -5.376068e+01   7.683708e+01
  -5.969236e+01   8.897202e+00
  -7.203390e+00  -6.031668e+01
  -4.086836e+01  -6.783200e+01
  -2.711863e+01  -1.431942e+01
  -4.916093e+01  -8.468000e+00
  -1.998536e+01  -1.052347e+02
   5.202124e+01  -1.681978e+02
   1.201557e+02  -1.387464e+02
   1.479138e+02  -5.452871e+01
   1.218141e+02   7.777756e+01
  -2.690376e+01   1.063271e+02
  -1.058544e+02   6.816630e+01
  -3.991442e+01  -6.295572e+01
   8.247055e+01  -3.847306e+01
   1.369223e+02   4.419937e+01
   5.358765e+01   1.284768e+02
  -7.862882e+01   1.352580e+02
  -1.640561e+02   3.807178e+01
  -1.739294e+02  -3.770695e+01
  -4.267729e+01  -8.980070e+01
   4.285240e+01  -8.925012e+01
   3.237472e+01   3.080441e+01
  -2.748514e+01   1.996973e+01
  -7.236939e+01  -3.383549e+01
  -4.398761e+01  -1.211131e+02
   1.102463e+02  -1.436736e+02
   1.708772e+02  -8.020457e+01
   1.015630e+02   5.665127e+01
   2.718965e+01   1.978641e+02
  -6.314449e+01   1.545437e+02
  -1.045355e+02  -2.713043e+00
  -3.453680e+01  -1.143403e+02
  -1.251860e+01  -9.381314e+01
   2.852759e+01   1.055569e+01
   5.179585e+01   3.347154e+00
   4.115110e+01   1.703707e+01
   1.263805e+01  -5.274082e+01
   3.331806e+01   2.416905e+01
   3.960085e+01   8.912319e+01
   5.929067e+01   8.068902e+01
  -6.114874e+01   5.888763e+01
  -1.507796e+02  -1.334089e+01
  -1.130142e+02  -5.701557e+01
  -1.939325e+01  -7.163040e+01
   1.089576e+02   8.678655e+00
   1.200480e+02  -3.533888e+01
   6.387207e+01   3.412499e+01
  -1.447536e+01  -1.602465e+00
  -1.886373e+01   3.702052e+01
  -3.545049e-01   2.113905e+01
  -2.307915e+01   1.499710e+01
  -1.032990e+02   1.849845e+01
  -7.687051e+01  -3.642734e+01
  -1.732754e+01  -9.613397e+01
   1.320809e+02  -1.032718e+02
   1.949446e+02  -5.517306e+01
   1.439818e+02   7.199431e+01
   7.558728e-02   1.747551e+02
  -5.593929e+01   1.346743e+02
  -1.305391e+02   4.947891e+01
  -7.286605e+01  -4.368595e+01
  -4.471943e+01  -6.645005e+01
  -2.323969e+00  -3.331163e+01
  -2.026357e+01  -4.724939e+01
  -1.150915e+01  -3.960038e+01
   4.863773e+00  -1.015443e+02
   1.574172e+00  -7.610083e+01
   8.841713e+01   1.513941e+01
   8.501867e+01   9.868066e+01
  -1.322546e-01   1.103814e+02
  -1.295997e+02   3.647064e+00
  -1.169442e+02  -6.579049e+01
  -4.347049e+01  -1.029722e+02
   7.177713e+01  -4.144311e+01
   9.031134e+01   3.371917e+01
   2.778631e+01   5.453913e+01
   1.257024e+01   7.617488e+01
  -1.569981e+01   2.593626e+01
   3.484144e+01   1.288518e+01
   6.498922e+01  -1.214525e+01
   6.499851e+00   3.721298e+01
  -8.694998e+01   9.886178e+01
  -6.447913e+01   7.280126e+01
  -6.366426e+01  -8.993419e+00
   2.150812e+01  -8.234499e+01
   3.869624e+01  -1.045615e+02
   5.912506e+01  -1.646000e+01
  -6.595803e+00   4.959333e+01
  -5.292264e+00   6.188333e+01
  -1.470392e+01  -6.650475e+01
  -1.724763e+01  -6.479082e+01
  -7.498598e+00  -1.521823e+01
   5.432151e+01   3.815167e+00
   2.767466e+01   7.289944e+00
   8.308228e+00   4.840125e+00
  -2.920955e+01  -2.325571e+01
   7.127133e+00  -1.414627e+01
  -1.547524e+01   3.052020e+01
  -3.729372e+00   4.983475e+01
  -4.025384e+01  -5.308761e+00
  -2.088443e+00  -4.553340e+01
  -2.811992e+01  -6.953820e+01
  -1.755240e+00  -6.280190e+01
   4.235669e+01   4.007433e+01
   1.023935e+01   7.494935e+01
  -1.235704e+02   2.599017e+01
  -1.199226e+02  -4.629672e+01
  -5.550333e+01  -4.336621e+01
   3.735578e+01  -3.107137e+01
   4.281491e+01  -3.265399e+01
   3.978688e+01   2.820596e+01
  -3.585232e+01  -1.849727e+01
  -3.857049e+01  -1.288339e+00
   2.502922e+01  -6.445291e+01
   8.526700e+01  -1.682357e+01
