
 $NMID
 id='ANONYMOUS ', fmtdat='(2E16.6)'
 volume=1.0
 tramp=1.0
 $END
   3.213140e+03   6.155172e+00
   2.128154e+03   1.503817e+03
   1.443953e-01   1.939266e+03
  -1.354167e+03   1.163755e+03
  -9.173210e+02   1.466125e+02
  -1.157184e+02  -3.356670e+02
   2.179760e+02  -3.390358e+01
   6.485761e+01   5.088966e+02
  -4.394613e+02   5.572877e+02
  -6.249928e+02   9.825496e+01
  -4.652076e+02  -4.689115e+02
  -1.242486e+02  -6.407373e+02
   1.852249e+02  -2.112023e+02
   2.135231e+02   5.060568e+02
  -7.686212e+01   5.308736e+02
  -3.354271e+02   1.043846e+02
  -2.644070e+02  -4.624581e+02
   9.474718e+01  -6.092128e+02
   4.853830e+02  -2.739338e+02
   4.655149e+02   1.361619e+02
   9.191493e+01   3.487968e+02
  -1.217427e+02   2.713305e+02
  -4.881836e+01   8.689992e+01
   1.505107e+02   1.470001e+02
   2.375185e+02   2.546703e+02
  -5.354367e+00   3.651841e+02
  -4.039193e+02   1.033320e+02
  -6.533582e+02  -1.696297e+02
  -1.261445e+02  -3.461791e+02
   3.441243e+02  -2.578731e+02
   4.590257e+02   9.275392e+01
   2.156335e+02   3.401850e+02
  -2.655383e+02   3.603030e+02
  -3.461656e+02   1.217486e+02
  -3.009109e+02  -1.934118e+02
  -3.066326e+01  -3.097594e+02
   6.748085e+00  -1.619600e+02
   1.342569e+01   1.178829e+02
  -1.661785e+02   1.245037e+02
  -2.208728e+02  -1.771253e+02
  -1.802922e+01  -4.145255e+02
   2.133931e+02  -3.359225e+02
   3.148977e+02  -1.028189e+01
   1.341487e+02   2.822470e+02
  -8.504720e+01   1.765092e+02
  -2.009429e+02  -2.532858e+02
   1.477973e+02  -3.816976e+02
   3.750493e+02  -6.749036e+01
   4.242183e+02   3.558752e+02
   1.640964e+02   4.725147e+02
  -2.668972e+02   2.178864e+02
  -4.865477e+02  -6.342619e+01
  -3.429651e+02  -2.734861e+02
   6.024560e+01  -2.322248e+02
   2.579276e+02   8.451689e-02
   2.016667e+02   3.720472e+01
   2.633416e+01   1.571084e+01
  -5.805889e+01  -7.791033e+01
   9.734814e+01  -1.982703e+01
   2.463086e+02   6.827711e+01
   1.393481e+02   1.490503e+02
  -1.345387e+02   2.543107e+02
  -3.621470e+02   9.049132e+01
  -2.801816e+02  -1.204636e+02
   1.617488e+00  -2.867306e+02
   2.818404e+02  -3.663188e+02
   3.116366e+02  -9.966062e+01
   2.517388e+02   1.709701e+02
   3.008029e+01   3.423970e+02
   9.294589e-01   2.870995e+02
  -3.539036e+01   1.874149e+02
  -1.243515e+01   8.775025e+01
  -1.208707e+02   1.351936e+02
  -2.115471e+02   6.631271e+01
  -2.403762e+02  -1.250299e+02
  -1.189837e+02  -2.041110e+02
   6.139045e+01  -1.732074e+02
   1.822588e+02   3.695571e+01
   1.332014e+02   2.429514e+02
  -3.481911e+01   2.414531e+02
  -2.355499e+02   7.674362e+01
  -2.601212e+02  -1.743240e+02
  -1.478572e+02  -2.719553e+02
   3.889533e+01  -2.672769e+02
   1.545266e+02  -9.400870e+01
   1.400191e+02  -3.563235e+01
   1.250736e+02  -5.754254e+01
   2.425610e+02  -2.238990e+01
   3.970276e+02   1.112014e+02
   2.821482e+02   2.765446e+02
   1.072939e+01   4.321753e+02
  -3.777358e+02   3.769690e+02
  -5.031682e+02   1.451745e+02
  -3.068570e+02  -9.868394e+01
   7.840249e+00  -2.621235e+02
   1.301675e+02  -2.002266e+02
   4.081615e+00  -2.187733e+01
  -1.433583e+02   3.948269e+01
  -1.499216e+02   2.904079e+00
  -1.537441e+01  -1.252838e+02
   1.099166e+02  -7.232700e+01
   1.224162e+02   4.164836e+01
  -2.608252e+01   9.341179e+01
  -1.151561e+02  -3.936704e+01
  -1.400450e+02  -1.921321e+02
   3.220845e+01  -3.533516e+02
   2.135407e+02  -1.777395e+02
   3.551472e+02   4.136762e+01
   2.518630e+02   2.486815e+02
   2.906709e+01   2.347279e+02
  -1.372711e+02   1.374066e+02
  -1.140398e+02   3.332463e+01
  -4.125400e+01  -2.801297e+01
   6.691999e+01   1.014715e+02
   1.095846e+01   1.025201e+02
  -1.047483e+02   5.407087e+01
  -1.445155e+02  -1.285464e+01
  -3.223319e+01  -5.560319e+01
   5.960800e+01   1.538137e+01
   6.276309e+00   8.421040e+01
  -1.216969e+02   1.143572e+02
  -2.516887e+02  -1.929486e+01
  -2.758345e+02  -1.741503e+02
  -2.901090e+01  -2.862170e+02
   1.768850e+02  -1.848157e+02
   2.634275e+02  -5.398208e+01
   1.410313e+02   3.187534e+01
   1.235770e+00   6.905972e+01
  -9.442045e+01   1.746235e+01
   4.201465e+01  -1.120588e+02
   1.928454e+02  -5.053237e+01
   1.670196e+02   1.339265e+02
   6.010557e+01   1.623673e+02
  -5.563575e+01   1.368289e+02
  -1.486555e+02   3.388801e+01
  -5.063094e+01  -5.414578e+01
   8.395825e+01   4.951802e+00
   2.037895e+01   1.094263e+02
  -1.017282e+02   1.223360e+02
  -2.088842e+02   1.313513e+01
  -1.519719e+02  -1.166720e+02
   2.417629e+00  -2.021771e+02
   1.866613e+02  -1.101283e+02
   1.640002e+02   3.821377e+01
   5.018221e+01   1.443384e+02
  -4.251023e+01   7.482614e+01
  -3.942348e+01   1.796408e+01
   2.056427e+01  -1.308017e+01
   2.434213e+01   1.038486e+01
   2.563426e+00   2.440369e+01
  -1.117233e+02   1.153484e+01
  -9.692382e+01  -1.004564e+02
  -4.953400e+00  -2.077895e+02
   1.611977e+02  -1.337189e+02
   2.643906e+02  -3.645041e+01
   1.523478e+02   1.516443e+02
   3.721801e+01   2.107780e+02
  -7.340239e+01   1.943547e+02
  -1.003391e+02   1.856972e+01
  -6.130081e+01  -5.904837e+01
  -5.814829e+01  -1.109911e+01
  -4.950393e+01   1.599081e+01
  -7.157784e+01  -2.402757e+01
  -3.428881e+01  -1.066312e+02
   7.371023e+01  -6.979271e+01
   1.272067e+02  -5.459203e+01
   1.090450e+02   7.610386e+01
  -3.005735e+01   1.213524e+02
  -1.890669e+02   1.073817e+02
  -1.778854e+02  -6.785769e+01
  -4.392978e+01  -1.840798e+02
   1.280488e+02  -2.228187e+02
   2.705429e+02  -6.996417e+01
   2.280875e+02   7.494340e+01
   1.054481e+02   1.776204e+02
  -4.559250e+01   1.379325e+02
  -7.199406e+01   9.004790e+01
  -8.544803e+01   4.769256e+01
  -5.889199e+01   1.075191e+02
  -9.934100e+01   5.186620e+01
  -1.280261e+02  -3.207921e+01
  -1.283345e+02  -1.353536e+02
  -2.577671e+01  -2.089583e+02
   7.223354e+01  -1.397814e+02
   9.615212e+01  -4.488490e+01
   1.022204e+02   1.008696e+02
   2.755077e+01   1.154495e+02
  -8.986031e+01   7.663828e+01
  -7.236518e+01  -1.926676e+01
   1.657090e+01  -3.622511e+01
   5.593254e+01  -5.190190e+01
  -3.344271e+01   4.385430e+01
  -7.085924e+01  -4.566456e+01
  -5.730774e+01   1.735220e-01
   7.562416e+01  -4.281373e+01
   1.759419e+02   1.011384e+01
   1.745702e+02   3.515826e+01
  -3.127959e+00   9.786350e+01
  -1.122239e+02   8.727251e+01
  -1.386615e+02  -7.769505e+00
  -2.956212e+01  -8.091501e+01
   7.092996e+01  -3.318289e+01
   7.189211e+01  -1.326409e+01
  -1.306781e-01   1.028848e+02
  -2.492854e+01   5.979837e+01
  -5.304641e+01  -1.659623e+01
  -6.459332e+01  -2.099581e+01
  -8.149287e+01  -5.562413e+01
  -2.732564e+01   9.206870e+00
  -7.910518e+01  -1.739910e+00
  -4.855565e+01  -8.405836e+01
   3.289141e+01  -1.827880e+02
   1.138611e+02  -1.257414e+02
   1.797236e+02  -6.021065e+00
   1.303059e+02   7.227719e+01
  -4.320324e+00   1.082210e+02
  -7.671694e+01   5.363660e+01
  -3.897650e+01  -2.516362e+01
   2.740888e+01  -6.769420e+01
   1.691254e+02   2.962841e+01
   7.464074e+01   9.419088e+01
  -7.412575e+01   5.543168e+01
  -1.847878e+02   6.277017e+00
  -1.685513e+02  -3.891115e+01
  -8.560169e+00  -7.023470e+01
   4.416013e+01  -5.594342e+01
   3.112769e+01  -1.479430e+01
  -2.150536e+01   5.375386e+01
  -1.076006e+02  -5.472757e+01
  -2.932059e+01  -1.324416e+02
   6.742329e+01  -1.486220e+02
   1.200097e+02  -1.122180e+02
   1.439700e+02   1.154554e+02
   3.137005e+01   1.907113e+02
  -8.528680e+01   1.373360e+02
  -2.377809e+01   1.030731e+00
  -4.707906e+01  -9.034529e+01
  -6.597202e-01  -1.013889e+02
   7.513652e+01  -1.289409e+01
   1.839830e+01   4.987198e+01
   4.917381e+01  -4.491084e-01
   2.374939e+01   2.812956e+00
   1.676102e+01  -2.152117e+01
   6.806124e+01   9.199445e+01
   1.495728e+01   1.033713e+02
  -2.205485e+01   4.988676e+01
  -1.651130e+02  -4.285903e+01
  -1.269857e+02  -8.763073e+01
  -2.340861e+01  -7.552004e+01
   9.948142e+01  -3.855789e+01
   7.490933e+01  -2.263658e+01
   3.346802e+01   6.765221e+00
  -7.131352e+01   7.626286e+00
   3.207418e+00   1.866707e+01
   3.045954e+01  -1.583227e+01
  -1.682239e+01   3.125655e+01
  -7.333275e+01   3.073415e+01
  -6.269198e+01  -2.966631e+01
  -1.017119e+01  -9.140341e+01
   9.100367e+01  -1.141545e+02
   1.647355e+02  -8.621304e+01
   1.422327e+02   7.537907e+01
  -1.800306e+01   1.014176e+02
  -7.693083e+01   1.693970e+02
  -1.107544e+02   2.784365e+01
  -5.563040e+01   2.431918e+00
  -4.487230e+01  -6.607858e+01
   3.289076e+01  -1.309491e+01
   1.416209e+01   2.272136e+01
  -6.333180e+00  -5.211593e+01
  -7.319703e+00  -8.203822e+01
   3.424169e+00  -9.133570e+01
   8.008729e+01   1.602543e+01
   5.940617e+01   1.166129e+02
   3.847324e+00   8.309759e+01
  -9.241180e+01   8.044999e+00
  -1.217978e+02  -8.398915e+01
  -3.861048e+01  -1.150671e+02
   8.845280e+01  -1.199810e+02
   1.037254e+02   2.346073e+01
   7.670158e+01   8.069358e+01
  -3.910893e+01   5.737863e+01
  -4.443087e+01   4.089258e+01
   3.607219e+01  -1.574202e+01
   4.526211e+01  -2.818799e+00
   3.558889e+01   5.527450e+01
  -2.317531e+01   6.994015e+01
  -6.342813e+01   3.619538e+01
  -6.663118e+01   2.076884e+01
   8.218630e+00  -5.803509e+01
   7.141061e+01  -1.058793e+02
   5.971688e+01   1.733481e+01
  -1.759805e+01   2.837446e+01
  -4.412469e+01   1.767051e+01
  -3.675190e+01  -1.135423e+01
  -1.857934e+01  -6.301132e+01
  -1.057140e+01  -2.036865e+01
   1.354738e+01   3.350235e+00
   1.170734e+01  -1.790521e+01
   1.018547e+01   4.665198e+01
  -6.209873e+00  -7.039953e+00
  -2.015500e+01  -1.619614e+00
   8.747707e+00   1.999448e+01
  -1.874203e+01   7.156586e+00
  -1.344709e+01   4.368535e+01
  -2.285060e+01  -6.480415e+00
  -2.095608e+01  -5.927567e+01
   1.905205e+01   3.080418e+01
   6.922759e+01   4.045705e+01
   1.987233e+01   7.436678e+01
  -4.374701e+01   3.192718e+01
  -5.343716e+01  -4.261709e+01
  -7.645080e+01  -4.308257e+01
   3.163593e+01  -5.780588e+01
   7.083282e+01  -2.364032e+01
   1.451200e+01  -4.410583e+01
   1.320367e-01  -3.079530e+01
  -3.724943e+01  -3.393815e+00
   3.138617e+01  -4.633386e+01
   4.633013e+01  -2.282414e+01
