
 $NMID
 id='ANONYMOUS ', fmtdat='(2E16.6)'
 volume=1.0
 tramp=1.0
 $END
  -2.562146e+03  -5.247640e+01
  -1.747503e+03  -1.292873e+03
   3.382976e+02  -1.817724e+03
   1.042733e+03  -8.838248e+02
   6.124026e+02  -8.164759e+01
  -4.332482e+01   2.188431e+02
  -4.425788e+02  -3.068350e+01
   7.241727e+01  -5.252526e+02
   3.660643e+02  -3.762850e+02
   4.719995e+02  -6.274178e+01
   3.784868e+02   4.132224e+02
  -1.439537e+00   5.387744e+02
  -2.618543e+02   2.233759e+02
  -2.069250e+02  -4.138335e+02
   6.115855e+01  -4.990438e+02
   3.114230e+02  -7.956481e+01
   1.570100e+02   4.286969e+02
  -3.364284e+01   5.030135e+02
  -3.702302e+02   1.796015e+02
  -3.789504e+02  -1.474542e+02
  -8.859837e+01  -3.002967e+02
   1.232285e+02  -2.122281e+02
   1.707934e+01  -7.083762e+01
  -1.113469e+02  -6.427091e+01
  -2.950390e+02  -1.735709e+02
  -2.519469e+01  -2.768476e+02
   3.685512e+02  -1.758664e+02
   4.328327e+02   2.072495e+02
   2.347917e+02   3.087236e+02
  -3.537176e+02   1.499134e+02
  -4.314977e+02  -1.239072e+02
  -1.368855e+02  -2.920547e+02
   2.440215e+02  -2.884005e+02
   3.923293e+02  -1.506880e+02
   2.413194e+02   1.227991e+02
   1.006252e+02   2.476485e+02
  -7.824188e+01   1.431886e+02
  -2.079828e+01  -1.231526e+02
   1.214768e+02  -1.100219e+02
   1.664759e+02   1.193848e+02
  -3.871651e+01   4.363399e+02
  -1.821821e+02   3.305617e+02
  -2.375984e+02  -7.478859e+01
  -1.406670e+02  -3.170131e+02
   1.404152e+02  -1.101363e+02
   1.449062e+02   2.018468e+02
  -1.177009e+02   3.717246e+02
  -3.360273e+02   3.604528e+01
  -4.333190e+02  -2.929974e+02
  -1.388175e+02  -3.598866e+02
   2.579629e+02  -2.299693e+02
   4.160296e+02   4.914062e+01
   2.761800e+02   2.455115e+02
  -4.059289e+01   1.862193e+02
  -2.229892e+02   2.773451e+01
  -1.980854e+02  -1.625724e+01
  -7.224919e+00  -3.005286e+01
   3.013072e+01   1.082295e+02
  -5.919898e+01   4.697208e+01
  -2.133809e+02  -8.737576e+01
  -1.117629e+02  -1.999622e+02
   1.146147e+02  -2.429759e+02
   2.554922e+02  -1.392023e+02
   1.976271e+02   7.401553e+01
   1.473604e+01   2.402075e+02
  -2.414340e+02   2.739223e+02
  -3.174360e+02   1.232145e+02
  -1.961299e+02  -1.144509e+02
  -5.835347e+01  -2.451117e+02
   5.705559e+01  -2.517993e+02
   6.569438e+01  -1.269411e+02
  -3.304916e+01  -6.126287e+01
   1.177671e+02  -9.015821e+01
   1.616242e+02  -7.640326e+01
   2.180265e+02   9.223198e+01
   9.598365e+01   1.847327e+02
  -7.479498e+01   2.284663e+02
  -1.607193e+02  -2.820380e+01
  -1.081432e+02  -1.742183e+02
   2.432840e+01  -2.084431e+02
   2.038267e+02  -4.636803e+01
   2.718679e+02   1.074370e+02
   1.638366e+02   2.566433e+02
  -2.122700e+01   2.227539e+02
  -1.124839e+02   1.536689e+02
  -1.000689e+02   1.466533e+01
  -1.233983e+02   1.289548e+01
  -2.043524e+02   7.313481e+01
  -3.605661e+02  -5.982896e+01
  -2.309739e+02  -2.072126e+02
  -4.970704e+00  -3.156058e+02
   2.628892e+02  -3.528704e+02
   4.198532e+02  -1.070371e+02
   2.182127e+02   8.046456e+01
   9.393591e-02   1.970738e+02
  -9.796497e+01   1.085111e+02
  -6.413969e+01   6.753103e+00
   1.070741e+02  -4.933067e+01
   1.348516e+02   9.138114e+01
   1.635288e+01   1.268728e+02
  -8.297880e+01   5.807540e+01
  -1.130332e+02  -5.561344e+01
   2.760653e+01  -9.905859e+01
   1.066286e+02   5.213605e+00
   1.249700e+02   1.960118e+02
  -3.352220e+01   2.244295e+02
  -2.056284e+02   2.132115e+02
  -2.643116e+02  -7.921495e+01
  -1.993413e+02  -2.033946e+02
  -7.337339e+01  -2.083746e+02
   8.642909e+01  -1.350790e+02
   1.177739e+02  -4.255262e+01
   3.432494e+01   5.054828e+01
  -6.009125e+01  -3.134246e+01
   2.073971e+01  -1.014875e+02
   1.174567e+02  -7.524494e+01
   1.218590e+02   3.423912e+00
   1.814688e+01   2.749314e+01
  -1.891842e+01  -4.020417e+01
  -4.591839e+01  -3.651001e+01
   1.202610e+02  -7.783437e+01
   2.394044e+02  -4.018132e+01
   1.880975e+02   9.261241e+01
   4.125147e+01   1.954297e+02
  -1.479704e+02   1.476649e+02
  -2.148620e+02   1.152510e+02
  -1.526600e+02  -3.707687e+01
   3.556575e+01  -9.053072e+01
   4.335213e+01   1.297391e+01
  -1.555247e+01   5.576239e+01
  -1.875782e+02   5.046001e+01
  -1.517661e+02  -8.478892e+01
  -4.945752e+01  -1.393525e+02
   4.634233e+01  -9.404074e+01
   1.245915e+02  -2.460490e+01
   5.339215e+01   6.397467e+01
  -1.997188e+01  -1.924283e+01
   2.238429e+01  -9.363518e+01
   9.021163e+01  -9.082863e+01
   1.577310e+02  -4.107488e+01
   1.529323e+02   8.187310e+01
   1.522018e+01   1.739966e+02
  -1.093561e+02   1.456048e+02
  -1.396593e+02   1.892801e+01
  -2.670520e+01  -5.911168e+01
   6.044658e+01  -1.042661e+02
   2.488138e+01  -2.527508e+01
  -5.449604e+00  -2.078785e+01
  -2.937911e+01  -2.710986e+01
   8.564050e+00  -6.879166e+01
   3.169324e+01   7.385993e-01
   6.245883e+01   6.274633e+01
   2.488199e+00   1.362882e+02
  -9.422316e+01   1.042825e+02
  -1.971936e+02   1.062935e+01
  -1.167520e+02  -1.374545e+02
   1.013249e+01  -1.786047e+02
   6.721226e+01  -1.307585e+02
   9.739222e+01  -9.802857e+00
   9.486501e+01   1.875642e+01
   7.029626e+00   4.937375e+01
   3.410238e+01   3.311684e+00
   6.810942e+01  -5.005028e+01
   2.815628e+01   2.844575e+01
  -6.749579e+01   8.979732e+01
  -6.227950e+01   6.600658e+01
  -9.527963e+01  -3.587986e+01
   4.413638e+01  -1.112723e+02
   1.246724e+02  -7.797236e+01
   1.814129e+02   2.972846e+01
   8.949290e+01   1.588442e+02
  -1.108309e+02   1.786517e+02
  -1.856456e+02   7.015208e+01
  -2.021502e+02  -2.892042e+01
  -7.747223e+01  -1.474824e+02
   6.152369e+01  -1.244344e+02
   1.060524e+02  -8.812614e+01
   6.764248e+01  -7.576385e+01
   2.374867e+01  -7.701344e+01
   8.298719e+01  -4.540019e+01
   8.815555e+01   3.729002e+01
   9.034914e+01   1.425513e+02
   2.611744e+00   2.069149e+02
  -9.246241e+01   1.695775e+02
  -1.439024e+02   2.507252e+01
  -9.975289e+01  -9.070501e+01
   2.085005e+00  -1.288721e+02
   4.442069e+01  -6.192178e+01
   2.556449e+01   1.033118e+01
  -3.127578e+01   5.689828e+01
  -4.034355e+01   5.444707e+01
   5.529404e+01   4.731133e+00
   1.542181e+01   3.776109e+00
   5.182495e+01   2.133365e+01
  -5.429462e+01   5.714576e+00
  -1.135457e+02   4.044824e+01
  -1.294949e+02  -2.940222e+01
   5.548974e+00  -1.016266e+02
   1.183118e+02  -5.553497e+01
   1.150571e+02   6.010086e+00
  -1.270603e+00   3.814495e+01
  -7.502485e+01   4.443200e+01
  -7.249912e+01  -1.113921e+01
  -2.091761e+01  -6.790308e+01
   1.544027e+01  -6.241719e+01
   4.662152e+01  -1.826690e+01
   2.709019e+01   1.094528e+01
   3.692478e+01   2.780466e+01
   2.836244e+01   1.941873e+01
   5.834291e+01  -3.496218e+00
   3.870181e+01   4.053760e+01
   3.604067e+00   1.129376e+02
  -1.027530e+02   1.019401e+02
  -1.401052e+02   2.200806e+01
  -1.135314e+02  -3.315002e+01
  -4.219073e+01  -1.047834e+02
   3.682246e+01  -6.422795e+01
   2.713640e+01   3.325943e+01
  -1.427320e+01  -1.630425e+01
  -7.002652e+01   2.472591e+00
  -6.679600e+01  -6.546426e+01
   2.836626e+01  -6.235803e+01
   1.484996e+02  -1.454464e+01
   1.617249e+02   1.719632e+01
   5.008055e+01   8.052633e+01
  -3.921229e+01   5.482609e+01
  -8.249375e+01  -2.510113e+01
   5.669062e+01  -3.418204e+01
   1.099336e+02   1.877444e+01
   1.079803e+01   6.847780e+01
  -2.124640e+01   1.235066e+02
  -1.169245e+02   6.727331e+01
  -1.248173e+02  -7.209639e+01
  -4.319291e+01  -1.676636e+02
   1.915881e+01  -9.031426e+01
   1.054408e+02   1.351488e+01
   4.187879e+01   8.255378e+01
  -2.472283e+01   4.608019e+01
  -4.009169e+01  -9.497846e+00
  -3.933728e+01  -2.645121e+01
  -4.029831e+01   7.269739e+00
  -9.288603e+00   2.924807e+01
  -1.742848e+01   3.193318e+00
  -2.981754e+01  -4.702792e+01
  -3.707369e+01  -5.986961e+01
   2.731006e+01  -2.848500e+01
   9.613515e+01   1.147992e+01
   8.114495e+01   7.997466e+01
   5.128047e+01   7.861595e+01
  -5.955191e+01   3.078634e+01
  -6.614021e+01  -1.219680e+01
  -1.145661e+01  -1.211742e+01
   4.822888e+01  -3.957425e+01
   2.827451e+01  -4.340550e+01
  -1.138972e+01   5.245575e+01
  -3.839963e+00  -1.526169e-02
   5.566506e+01   2.611523e+00
   6.404583e+01  -2.244250e+01
   3.640833e+01   7.396464e+01
  -6.848734e+01   1.364699e+02
  -1.299745e+02   5.965236e+01
  -1.320351e+02  -7.790730e+01
  -5.172403e+01  -1.229394e+02
   2.960600e+01  -1.647922e+02
   8.349859e+01  -7.485761e+01
   3.911868e+01   2.556651e+00
   1.925634e+01   7.588412e+00
  -2.191989e+00   7.152915e+00
  -1.625781e+01  -1.369737e+01
   3.400658e+01   5.089037e+01
   4.702881e+01   9.239777e+01
  -4.954655e+01   1.975447e+01
  -3.599466e+01  -2.998682e+01
  -4.855867e+01  -7.317718e+01
  -8.489447e+00  -8.720469e+01
   5.238736e+01  -4.683110e+00
   9.216726e+01   4.153396e+01
   4.436918e+01   6.637057e+01
  -6.873704e+01   1.690570e+01
  -7.467018e+01  -8.678020e+00
  -4.356267e+01  -4.229505e+01
   1.256814e+01  -6.846258e+01
   1.430437e+01  -1.122035e+01
   4.401141e+01  -9.879880e+00
  -4.555545e+01   4.812092e+00
  -2.718229e+01  -3.359103e+01
   7.175270e+01  -7.684782e+01
   9.028172e+01  -6.293217e+01
   7.693791e+01  -3.237298e+00
  -1.676195e+01   7.317258e+01
  -3.964954e+01   5.972294e+01
  -8.437157e+01  -2.443066e+01
  -4.534637e+00  -5.484943e+01
   3.190776e+01  -1.814366e+01
   5.627571e+01  -1.221945e+01
   1.938374e+01   6.607089e+01
  -6.354799e+00   1.536698e+01
  -4.358662e+01   1.510207e+01
  -4.791713e+01  -4.736909e+00
  -8.572206e-01  -1.372583e+01
  -1.256546e+01   3.032882e+01
   1.542502e+01   1.577150e+01
   2.063778e+01  -1.564531e+01
  -1.930380e+01  -6.176301e+00
  -9.640439e-03  -3.027426e+01
   2.974925e+01   8.273333e+00
   4.577113e+01   3.049550e+01
  -4.206850e+01   4.116520e+01
  -2.936798e+01  -5.979938e+01
   1.173351e+01  -6.634886e+01
   4.874052e+01  -1.987468e+01
   7.163134e+01   2.107538e+01
   3.526308e+01   5.924287e+01
  -4.351008e+01   3.782956e+01
  -6.873453e+01   1.933135e+01
  -2.472601e+01   2.839157e+01
  -8.387601e+00  -2.173351e+01
   5.131597e+01   2.632941e+01
  -4.066031e+01  -1.436960e+01
  -7.965497e+01  -6.687562e+00
