
 $NMID
 id='ANONYMOUS ', fmtdat='(2E16.6)'
 volume=1.0
 tramp=1.0
 $END
   3.495821e+03  -4.748015e+01
   2.441508e+03   1.896100e+03
  -4.679985e+02   2.138266e+03
  -1.477795e+03   8.499701e+02
  -7.128119e+02  -6.962564e+01
   3.075475e+02  -3.529812e+02
   7.350782e+02   3.679247e+02
  -1.295667e+01   7.209074e+02
  -5.502075e+02   5.442448e+02
  -6.577986e+02  -5.211161e+01
  -3.793197e+02  -6.656114e+02
   1.869291e+02  -6.826517e+02
   4.408288e+02  -1.163041e+02
   3.664100e+02   5.377425e+02
  -1.973032e+02   5.763918e+02
  -4.333078e+02   1.186761e+02
  -2.339589e+02  -4.828440e+02
   2.482018e+02  -5.096751e+02
   4.815223e+02  -1.961133e+02
   3.845551e+02   2.278839e+02
   8.351256e+01   3.774414e+02
  -1.927895e+02   2.221420e+02
  -1.501974e+02   5.867342e+01
   1.093265e+02  -2.000120e+01
   3.144311e+02   2.315803e+02
  -7.394918e+00   3.680608e+02
  -3.976522e+02   2.704107e+02
  -5.830332e+02  -1.014008e+02
  -4.001576e+02  -4.293178e+02
   2.996610e+02  -3.072969e+02
   6.228415e+02   1.378803e+02
   2.172257e+02   3.742774e+02
  -2.647815e+02   3.769826e+02
  -4.944127e+02   1.709659e+02
  -2.918493e+02  -1.438847e+02
  -3.341040e+01  -3.524644e+02
   1.537062e+02  -2.052505e+02
   7.271790e+01   1.094894e+02
  -7.963295e+01   2.529786e+02
  -2.628963e+02  -8.281056e+01
  -1.119984e+02  -5.429120e+02
   2.169857e+02  -5.236533e+02
   4.163666e+02   3.447812e+01
   1.770195e+02   4.610114e+02
  -2.284005e+02   2.048378e+02
  -3.170819e+02  -2.967496e+02
   1.034401e+02  -4.131925e+02
   4.775800e+02  -1.307668e+02
   4.705819e+02   3.932492e+02
   1.604983e+02   4.830102e+02
  -3.314769e+02   2.975116e+02
  -5.290104e+02  -8.980138e+01
  -3.043836e+02  -3.240161e+02
   9.649552e+01  -2.851730e+02
   3.231440e+02  -4.917641e+01
   2.081455e+02   1.020687e+02
  -9.629566e+01   5.831058e+01
  -9.549881e+01  -1.157210e+02
   1.226542e+02  -8.808802e+01
   1.649586e+02   5.294003e+01
   1.433578e+02   2.173754e+02
  -1.476414e+02   1.909015e+02
  -2.448733e+02   8.351659e+01
  -1.632618e+02  -8.139442e+01
   2.475044e+01  -2.704681e+02
   2.245073e+02  -2.795934e+02
   3.398469e+02  -1.675798e+02
   2.476058e+02   1.177710e+02
   5.056460e+01   3.993945e+02
  -4.970200e+01   3.065681e+02
  -6.820587e+01   8.303550e+01
   1.414595e+01   3.815598e+01
  -1.227526e+02   9.691348e+01
  -1.758221e+02   1.123002e+02
  -2.141487e+02  -1.705034e+01
  -1.014446e+02  -2.119567e+02
   2.302113e+01  -1.727583e+02
   1.833549e+02   1.389633e+00
   1.581065e+02   1.892160e+02
  -1.860249e+01   2.139916e+02
  -2.471540e+02   1.128511e+02
  -3.158995e+02  -1.623953e+02
  -1.674321e+02  -3.146194e+02
   7.934523e+01  -2.778647e+02
   1.919601e+02  -1.385828e+02
   1.560056e+02  -3.815977e+01
   1.339977e+02  -6.131745e+01
   2.473665e+02  -5.715007e+01
   3.385278e+02   9.072983e+01
   2.473362e+02   2.372093e+02
  -5.663641e+01   4.093553e+02
  -3.334203e+02   3.221291e+02
  -4.056509e+02   1.993955e+02
  -2.325776e+02  -1.135418e+02
  -8.690753e+01  -2.137507e+02
   1.067219e+02  -1.739902e+02
   2.817377e+01  -2.188762e+01
  -1.182304e+02   5.169083e+01
  -1.604064e+02  -7.030769e+01
  -8.297686e+00  -1.208116e+02
   1.192370e+02  -1.636272e+02
   1.153116e+02   3.955925e+01
  -6.572001e+00   1.458945e+02
  -1.564846e+02   2.853415e+01
  -1.560716e+02  -2.185601e+02
  -1.365010e+00  -3.080018e+02
   2.243068e+02  -1.504562e+02
   3.014482e+02   2.555729e+01
   2.407606e+02   2.154187e+02
   1.120323e+02   2.332479e+02
  -6.503718e+01   1.561407e+02
  -1.097478e+02   1.038718e+01
  -1.527015e+01  -3.109191e+01
   7.675985e+01   6.808262e+01
   4.433420e+01   1.074991e+02
  -1.705351e+02   8.552946e+01
  -1.725208e+02  -1.510124e+01
  -4.489839e+00  -2.174768e+01
   8.298522e+01   4.052185e+01
   7.304556e+01   7.560863e+01
  -8.972006e+01   7.095373e+01
  -2.176020e+02  -1.309529e+01
  -2.070813e+02  -1.637050e+02
  -7.253956e+01  -1.975075e+02
   1.766725e+02  -2.639195e+02
   2.642376e+02  -1.023059e+02
   1.349757e+02  -3.752137e+00
  -1.008786e+01   1.197561e+02
  -9.866737e+01   1.963922e+01
   1.093267e+01  -9.788448e+01
   1.552204e+02  -4.762666e+01
   1.786621e+02   8.936967e+01
   2.159411e+01   1.529758e+02
  -6.297688e+01   1.516459e+02
  -1.145903e+02   4.117988e+01
  -4.996114e+01  -4.765446e+01
   2.593646e+01   8.270388e-02
   3.300368e+01   7.672789e+01
  -6.717104e+01   1.348407e+02
  -1.589794e+02   4.186813e+01
  -1.579630e+02  -8.570305e+01
  -8.676395e+00  -1.760151e+02
   1.145391e+02  -1.505074e+02
   1.526397e+02  -1.911219e+01
   5.083917e+01   9.255201e+01
  -1.096842e+02   9.816525e+01
  -4.776244e+01   6.118197e+01
  -3.335574e+01  -4.475327e+01
   1.844692e+01  -1.510963e+01
   2.917756e+01  -4.268526e+00
  -3.997329e+01   5.318093e+00
  -6.144778e+01  -8.998617e+01
   2.491635e+01  -1.853068e+02
   1.073711e+02  -1.427134e+02
   1.860812e+02  -2.454086e+01
   1.446565e+02   1.162693e+02
   3.125900e+01   2.152780e+02
  -1.022970e+02   1.646774e+02
  -9.947670e+01   2.593145e+01
  -7.633625e+01  -2.924936e+01
  -4.412829e+01  -1.619841e+01
  -4.552881e+01   1.611729e+00
  -4.448162e+01  -1.809919e+00
  -5.759371e+01  -4.550411e+01
   2.641258e+01  -1.315502e+02
   9.201364e+01  -5.385354e+01
   6.424377e+01   3.823546e+01
  -1.605683e+01   1.467394e+02
  -1.631045e+02   4.556815e+01
  -1.435347e+02  -6.417183e+01
  -8.388529e+01  -1.851552e+02
   6.099757e+01  -2.169769e+02
   2.026767e+02  -8.293125e+01
   2.090758e+02   9.952969e+01
   6.616360e+01   1.404840e+02
  -6.521018e+01   1.229787e+02
  -8.545001e+01   3.262745e+01
  -4.840773e+01   7.764280e+01
  -5.326456e+01   8.327585e+01
  -1.039541e+02   6.921707e+01
  -1.211248e+02   5.523229e+00
  -7.653841e+01  -1.663144e+02
  -4.048536e+01  -1.728091e+02
   1.067936e+02  -1.643079e+02
   1.149018e+02  -4.864422e+01
   1.226085e+02   8.005744e+01
  -1.717295e+00   1.466360e+02
  -8.840342e+01   7.380339e+01
   7.677887e+00  -9.281884e+00
  -5.207023e+00  -5.691542e+01
   5.661997e+01  -3.424972e+01
  -4.933204e+01  -4.325545e+01
  -7.283140e+01  -1.905552e+01
  -3.395605e+01  -6.357694e+01
   4.406582e+01  -3.210578e+01
   1.511679e+02   9.989148e+00
   1.135610e+02   4.412721e+01
   4.567045e+01   7.473728e+01
  -1.262284e+02   6.688971e+01
  -1.403069e+02  -5.372318e+00
  -2.048454e+01  -5.842649e+01
   5.763574e+01  -1.530392e+01
   4.921705e+01  -1.070728e+01
  -3.618051e+00   7.417219e+01
  -4.821804e+01   1.119883e+02
  -4.124384e+01   7.947168e+00
  -8.503742e+01  -3.334824e+01
  -4.837670e+01  -2.879873e+01
  -4.012460e+01  -2.313284e+01
  -5.649345e+01  -3.236225e+00
  -1.264772e+01  -6.416618e+01
   4.979885e+01  -1.072821e+02
   8.457757e+01  -1.234448e+02
   1.320310e+02   3.390864e+00
   9.755028e+01   8.736134e+01
  -1.230510e+01   1.252132e+02
  -4.816477e+01   4.195267e+01
  -4.809775e+01  -2.974384e+01
   3.196477e+01  -4.454932e+01
   1.094318e+02   2.317932e+01
   7.849319e+01   5.418366e+01
  -6.863205e+01   1.100184e+02
  -1.940325e+02   4.841975e+01
  -1.705803e+02   1.422221e+01
   1.430699e+01  -7.511837e+01
   3.977621e+01  -3.912922e+01
   7.024394e+01   2.194925e+00
  -2.740651e+01   6.051442e+00
  -9.567611e+01   3.969590e+00
  -4.405721e+01  -1.303314e+02
   4.105472e+01  -1.381055e+02
   9.131042e+01  -1.789881e+01
   1.230548e+02   1.090721e+02
   3.688554e+01   1.839193e+02
  -7.013411e+01   1.273764e+02
  -1.331871e+02   6.398778e+00
  -6.839292e+01  -1.212750e+02
   1.954180e+01  -8.301320e+01
   3.152785e+01   1.477262e+01
   2.342117e+01   3.274423e+01
   3.686295e+01   5.451766e+01
   2.056923e+01  -2.721751e+01
   5.241028e+01   1.310479e+01
   1.047909e+02   4.698523e+01
   4.794881e+01   7.113710e+01
  -4.635770e+01   3.660320e+01
  -1.085354e+02  -5.117049e+01
  -1.225373e+02  -8.366247e+01
  -4.180707e+01  -1.024599e+01
   6.544617e+01  -2.303455e+01
   6.068385e+01  -5.070734e+01
  -1.408902e+01   8.470864e+00
  -3.540917e+01   2.613532e+01
  -4.629309e+01   4.311088e+01
   2.767885e+01  -3.856957e+00
  -2.705882e+00  -2.356746e+01
  -3.416491e+01  -2.622268e+01
  -6.712226e+01  -3.512282e+01
  -2.130470e+01  -7.984501e+01
   8.191565e+01  -1.360040e+02
   1.343890e+02  -3.886232e+01
   1.290242e+02   2.993019e+01
   4.936492e+01   1.420894e+02
  -7.838989e+01   1.526176e+02
  -1.345765e+02   9.011027e+01
  -8.774415e+01  -1.067558e+01
  -2.631280e+00  -2.242813e+01
  -1.750200e-01  -4.318690e+01
  -1.451583e+01   3.080073e+01
  -3.248636e+01  -6.519106e+00
  -2.430907e+01  -7.580090e+01
   2.715079e+01  -6.119233e+01
   5.006292e+01   2.515587e+01
   8.876977e+01   7.180748e+01
   1.630023e+01   1.258452e+02
  -5.482216e+01   1.761142e+01
  -7.653689e+01  -7.561482e+01
  -2.331471e+01  -8.461019e+01
   5.154981e+01  -3.735702e+01
   9.741155e+01   1.954370e+01
   2.017456e+01   5.425561e+01
  -3.509712e+01   5.120252e+01
  -9.963795e+00   6.649088e+00
  -1.269794e+00  -1.295273e+01
   7.688519e+01  -1.252033e+00
   6.594408e+01   1.812930e+01
   2.076265e+00   7.115847e+01
  -1.044502e+02   5.783572e+01
  -6.319305e+01  -3.196407e+00
   3.874033e+01  -1.058572e+02
  -3.063031e+01  -2.140796e+01
   4.576116e+01   3.026278e+01
   8.585231e+00   3.137473e+01
  -2.784811e+01   3.193034e+01
  -4.393771e+01   4.653129e+00
  -4.011758e+01  -7.390579e+01
   2.487536e+01   9.915020e+00
   3.039254e+01  -3.714722e+01
   1.479204e+00  -2.077376e+01
   1.808288e+01  -1.139175e+01
  -1.482037e+01  -4.600967e+01
  -2.578275e+01   1.764199e+01
   2.423468e+01   5.957920e+00
  -2.335834e+01   2.258062e+01
   1.456695e+01   1.326653e+01
  -1.776071e+01  -2.914849e+01
  -1.683780e+01  -2.360242e+01
   1.688540e+01   1.807044e+01
   5.652859e+01   4.428992e+01
   1.729172e+01   2.669831e+01
  -5.649068e+01   1.531352e+01
  -9.078192e+01  -1.433881e+01
  -1.296072e+01  -1.120727e+01
   3.440358e+01  -2.472078e+01
   5.873544e+01  -3.659602e+01
   3.926595e+01  -1.169115e+01
  -4.319454e+01   3.737836e+00
   8.266230e+00  -4.874510e+01
   5.385215e+01  -4.522933e+01
   8.119502e+01   2.368252e+01
