
 $NMID
 id='ANONYMOUS ', fmtdat='(2E16.6)'
 volume=1.0
 tramp=1.0
 $END
  -4.042908e+03  -5.825717e+01
  -2.683325e+03  -2.643409e+03
   4.146959e+02  -2.487603e+03
   2.017287e+03  -1.145636e+03
   7.093829e+02   2.686606e+02
  -2.473054e+02   4.754927e+02
  -7.519835e+02  -3.522288e+02
  -1.932768e+02  -8.785776e+02
   6.848280e+02  -7.165042e+02
   9.167005e+02  -5.304521e+01
   4.305703e+02   8.162712e+02
  -2.097014e+02   7.481913e+02
  -4.725413e+02   1.436076e+02
  -3.482985e+02  -5.455542e+02
   1.745499e+02  -7.228577e+02
   5.405752e+02  -5.760927e+01
   3.359045e+02   5.971213e+02
  -3.018068e+02   6.187006e+02
  -4.953465e+02   1.264285e+02
  -3.893728e+02  -3.085780e+02
  -2.542747e+01  -4.593892e+02
   2.717268e+02  -2.481461e+02
   1.828389e+02  -6.915425e+01
  -6.713031e+01  -1.882756e+01
  -3.504309e+02  -2.319033e+02
  -1.069696e+02  -3.736976e+02
   4.024650e+02  -3.225791e+02
   7.459534e+02   1.019239e+02
   3.090368e+02   5.112235e+02
  -3.539299e+02   3.688311e+02
  -6.491942e+02  -7.468492e+01
  -2.397355e+02  -4.293350e+02
   2.777002e+02  -4.263342e+02
   4.662169e+02  -1.857948e+02
   3.891654e+02   1.845699e+02
   9.050798e+01   4.617141e+02
  -1.066648e+02   2.305364e+02
  -1.180665e+02  -8.779410e+01
   1.733645e+02  -3.135017e+02
   3.623543e+02   6.283103e+01
   1.428916e+02   4.875172e+02
  -3.162692e+02   6.463772e+02
  -5.507842e+02   3.319430e+01
  -1.972118e+02  -4.555721e+02
   2.377784e+02  -2.306569e+02
   2.966533e+02   3.077682e+02
  -7.074053e+01   4.735412e+02
  -5.049727e+02   8.640106e+01
  -5.694741e+02  -3.952212e+02
  -1.810323e+02  -5.184969e+02
   3.512075e+02  -3.399806e+02
   5.998789e+02   4.422209e+01
   3.341057e+02   3.456014e+02
  -1.285582e+02   3.499059e+02
  -3.835285e+02   6.434059e+01
  -1.941712e+02  -1.306183e+02
   9.661002e+01  -5.692577e+01
   9.913436e+01   7.864060e+01
  -1.511707e+02   1.506144e+02
  -2.168847e+02   1.831074e+01
  -1.241244e+02  -2.808846e+02
   1.936374e+02  -1.913679e+02
   3.351092e+02  -5.206388e+01
   1.972433e+02   1.072602e+02
  -6.497876e+01   2.510440e+02
  -2.705521e+02   3.314463e+02
  -4.095424e+02   1.593776e+02
  -2.616756e+02  -1.996429e+02
  -8.625331e+01  -4.393432e+02
   4.204304e+01  -3.704028e+02
   1.066424e+02  -1.563981e+02
   4.553491e+01  -2.052303e+01
   5.949788e+01  -1.100935e+02
   2.199892e+02  -1.368622e+02
   2.479404e+02   8.211344e+01
   1.496052e+02   2.572611e+02
  -1.340533e+02   2.430117e+02
  -2.222478e+02  -4.471260e+01
  -1.622092e+02  -2.669736e+02
   2.076826e+01  -2.120513e+02
   2.621943e+02  -8.656400e+01
   3.548007e+02   1.470526e+02
   1.768137e+02   3.283676e+02
  -2.048363e+01   2.712837e+02
  -2.069908e+02   1.776577e+02
  -1.719696e+02   2.931012e+00
  -9.209356e+01   4.408470e+01
  -2.767008e+02   3.150622e+01
  -3.829975e+02  -7.209358e+01
  -3.278535e+02  -3.186442e+02
   4.487470e+01  -4.732654e+02
   4.032842e+02  -3.652458e+02
   4.357577e+02  -2.206598e+02
   3.142772e+02   9.701695e+01
   7.315158e+01   3.056139e+02
  -1.004111e+02   2.194246e+02
  -7.474036e+01   5.510610e+01
   1.041342e+02  -6.384869e+01
   1.866753e+02   3.499124e+00
   7.742634e+01   1.752588e+02
  -1.565289e+02   1.192106e+02
  -1.567488e+02  -7.508356e+01
   2.642372e+01  -1.600322e+02
   1.968688e+02  -4.490253e+01
   1.575327e+02   2.883172e+02
  -5.491711e+01   3.974320e+02
  -1.922358e+02   2.019710e+02
  -3.736722e+02  -2.870772e+01
  -2.694481e+02  -2.685255e+02
  -4.671418e+01  -2.800768e+02
   8.145238e+01  -1.585467e+02
   1.562916e+02   1.279196e+00
   6.033616e+01   2.045429e+01
  -4.229829e+01  -3.278371e+01
  -1.643403e+01  -1.201956e+02
   1.173807e+02  -1.006399e+02
   1.714865e+02  -1.208278e+01
   4.222727e+01   4.981143e+01
  -1.306252e+02   1.056160e+01
  -4.179661e+01  -8.909403e+01
   1.089976e+02  -1.045210e+02
   2.709973e+02   2.252634e+01
   3.007288e+02   1.178421e+02
   4.426717e+01   2.852852e+02
  -2.371592e+02   2.202051e+02
  -2.853997e+02   8.648338e+01
  -1.467337e+02  -4.363821e+01
   3.371001e+01  -1.125733e+02
   1.006924e+02   6.089732e+00
  -5.308671e+01   6.400676e+01
  -2.051065e+02   2.618788e+01
  -1.945147e+02  -9.762295e+01
  -6.168349e+01  -2.071636e+02
   7.817974e+01  -1.128637e+02
   1.520415e+02   2.689138e+01
   4.899809e+01   5.405422e+01
  -4.308470e+01  -5.128300e+00
  -5.793645e+01  -7.450281e+01
   9.867954e+01  -1.240532e+02
   1.715127e+02   3.058636e+00
   1.989455e+02   1.119553e+02
   3.101362e+01   2.030379e+02
  -1.763404e+02   1.377743e+02
  -2.006171e+02  -2.245357e+01
  -5.742999e+01  -6.729405e+01
   4.512235e+01  -1.148908e+02
   5.499616e+01  -1.964401e+01
   8.429880e+00   3.211526e+01
  -2.389458e+01   6.753278e+01
  -1.597867e+01  -2.098984e+01
   9.598135e+01   2.095730e+01
   1.122810e+02   6.493092e+01
  -3.173376e+01   1.457180e+02
  -1.387959e+02   1.393329e+02
  -2.305073e+02   5.170252e+01
  -2.064976e+02  -1.441258e+02
  -3.532347e+01  -2.460551e+02
   1.417287e+02  -1.618883e+02
   1.216088e+02  -1.937635e+01
   8.156856e+01   5.217070e+00
   1.808396e+01   2.714915e+01
   5.375697e+01   1.993457e+01
   5.149423e+01  -1.328486e+01
   4.005117e+01   5.650367e+01
  -6.513766e+01   1.129620e+02
  -1.098203e+02   4.343450e+01
  -5.755002e+01  -2.157476e+01
   2.590857e+01  -1.077459e+02
   1.527952e+02  -6.097342e+01
   1.946656e+02   6.682815e+01
   1.131057e+02   2.128266e+02
  -7.466316e+01   2.549463e+02
  -2.420111e+02   1.050702e+02
  -2.435088e+02  -1.039789e+02
  -7.204763e+01  -1.737988e+02
   8.646513e+00  -1.737575e+02
   8.976938e+01  -7.839191e+01
   8.920274e+01  -6.317380e+01
   4.332247e+01  -1.208715e+02
   1.060111e+02  -6.511219e+01
   1.534208e+02   4.599024e+00
   6.763090e+01   1.362224e+02
   8.520963e+00   2.098460e+02
  -8.722392e+01   2.068834e+02
  -2.081426e+02  -8.198727e-01
  -1.354302e+02  -1.246203e+02
  -2.613686e+01  -1.303251e+02
   9.656916e+01  -9.606892e+01
   1.497441e+01   1.991972e+01
   1.383428e-01   5.519380e+01
  -1.402347e+01   3.606537e+01
   3.731264e+01   8.924397e+00
   4.702057e+01   2.919800e+01
   6.827320e+01   8.096277e+01
  -1.015274e+02  -5.166871e+00
  -1.390579e+02  -5.829000e-01
  -1.254020e+02  -3.505549e+01
   2.078948e+01  -1.110560e+02
   1.604120e+02  -5.798362e+01
   1.607262e+02   1.505891e+01
   7.290985e+01   5.299358e+01
  -6.776875e+01   3.403770e+01
  -7.720837e+01  -2.675617e+01
  -1.055750e+01  -8.994648e+01
   3.184442e+01  -5.436833e+01
   6.840058e+01  -1.808094e+00
   4.696840e+01   5.456871e+01
   6.253255e+01   4.730315e+01
   4.703608e+01   1.655593e+01
   9.411988e+01   7.634161e+00
   2.345101e+01   7.983156e+01
  -3.983594e+01   1.622657e+02
  -1.110883e+02   1.685591e+02
  -1.997951e+02   5.920724e+01
  -1.574433e+02  -6.003232e+01
  -9.823676e+00  -8.193751e+01
   9.303672e+01  -3.314511e+01
   6.531654e+01   2.931686e+01
  -7.845588e+01   1.024711e+01
  -1.060578e+02  -4.126977e+01
  -5.742599e+01  -9.810093e+01
   8.355845e+01  -7.966819e+01
   1.900129e+02  -8.029771e+01
   1.653484e+02   3.362901e+01
   7.056333e+01   6.830879e+01
  -7.472320e+01   8.104206e+01
  -6.248450e+01  -1.362975e+01
   1.623667e+01  -2.988719e+01
   1.021370e+02   1.951683e+01
   3.145238e+01   1.405515e+02
  -1.119649e+02   1.344330e+02
  -1.828370e+02   5.568085e+01
  -1.459291e+02  -8.460321e+01
   2.830881e+00  -1.989262e+02
   7.459607e+01  -1.813383e+02
   8.617034e+01  -6.481847e+00
   2.669559e+01   1.180031e+02
  -4.289982e+01   1.017950e+02
  -8.736236e+01   8.029902e+00
  -3.926391e+01  -4.456078e+01
  -2.788929e+01   3.409946e+01
  -7.487929e-01  -1.890804e+01
   1.034640e+00  -3.023876e+01
  -3.078058e+01  -9.422643e+01
  -9.494259e+00  -1.130229e+02
   5.666780e+01  -6.652695e+01
   1.428285e+02   2.757365e+01
   1.155159e+02   9.597961e+01
   3.876097e+01   5.494856e+01
  -9.276914e+01   1.447217e+01
  -1.276323e+02  -1.438476e+01
  -1.107230e+01  -3.458035e+01
   4.175641e+01  -2.198941e+01
   4.892945e+00  -2.329763e+01
  -4.014572e+01   1.619511e+01
   2.073713e+00   1.955415e+01
   2.791050e+01   3.562280e+01
   7.802778e+01   1.787115e+01
   8.596060e+00   1.167164e+02
  -1.155820e+02   1.431524e+02
  -1.954204e+02   8.571044e+01
  -1.252463e+02  -1.153046e+02
  -5.837189e+01  -1.867329e+02
   1.045782e+02  -1.219665e+02
   1.016971e+02  -3.698829e+01
   1.070480e+02   3.028008e+01
   1.734185e+01   5.682632e+01
   5.667758e+00  -1.572181e+01
   1.368610e+01   1.553915e+01
   5.074552e+01   2.655007e+01
   4.316833e+01   9.717054e+01
  -4.947791e+01   6.382860e+01
  -7.760389e+01  -2.051991e+01
  -7.953093e+01  -8.707805e+01
   3.785006e+00  -9.536986e+01
   6.306004e+01   2.640880e+01
   8.254650e+01   2.472399e+01
   4.454949e+01   8.681210e+01
  -2.916911e+01   9.196542e+01
  -1.395696e+02   1.295456e+00
  -4.881458e+01  -7.750605e+01
   2.314841e+01  -4.648095e+01
   3.953573e+01  -1.165265e+01
  -4.594374e+01  -1.539439e+01
  -4.717541e+01   9.081082e+00
  -1.105767e+01  -6.083849e+01
   7.577366e+01  -8.394100e+01
   1.231002e+02  -5.243073e+01
   5.990396e+01   2.456220e+01
  -4.026970e+01   1.084396e+02
  -3.215376e+01   9.400889e+01
  -1.172623e+01  -5.859660e+00
   2.807797e+00  -3.853051e+01
  -1.564376e+01  -5.755179e+01
  -4.765738e+00   4.572118e+01
   2.440489e+01   6.486317e+01
   3.112438e+00   3.983036e+01
  -3.327962e+01   3.386278e+01
  -1.535407e+00  -8.974589e+00
  -3.030260e+01   4.612486e+00
  -2.360200e+01   2.378371e+01
   9.306908e+00  -1.308603e+01
   4.702224e+00  -2.399985e+01
  -6.372511e+00  -3.059903e+01
   2.579073e+01  -1.416844e+01
   3.681894e+01   3.558600e+01
   1.531733e+01   9.234690e+01
  -4.824513e+01   1.032901e+01
  -7.709414e+01  -5.433325e+01
  -1.394708e+01  -8.979146e+01
   3.363364e+01  -3.191244e+01
   9.064465e+01   4.466710e+01
   3.165927e+01   2.086750e+01
  -3.046895e+01   7.538277e+01
  -5.870873e+01   1.016071e+01
  -1.227895e+01   3.849121e+01
   3.445257e+01   3.501408e+00
   5.122313e+01   5.314500e+01
  -3.577240e+01   4.096416e+01
  -5.759810e+01   4.316021e+01
