
 $NMID
 id='ANONYMOUS ', fmtdat='(2E16.6)'
 volume=1.0
 tramp=1.0
 $END
  -3.077770e+03  -8.788585e+01
  -1.869107e+03  -1.693344e+03
   9.597510e+01  -2.089284e+03
   1.169299e+03  -1.088376e+03
   1.245248e+03  -1.513133e+02
   8.695631e+01   3.062583e+02
  -4.172076e+02  -8.247316e+01
  -5.443866e+01  -4.803917e+02
   5.869422e+02  -4.780264e+02
   7.046029e+02  -1.057958e+02
   4.855468e+02   5.515457e+02
  -2.957842e+01   5.819543e+02
  -2.154178e+02   2.985275e+02
  -2.112232e+02  -4.083747e+02
   1.044720e+02  -4.964750e+02
   3.822160e+02  -1.160361e+02
   2.642001e+02   4.746538e+02
  -7.180962e+01   5.904442e+02
  -5.165653e+02   3.396167e+02
  -4.496274e+02  -1.267710e+02
  -1.843006e+02  -3.739682e+02
   1.008107e+02  -2.519145e+02
   1.532887e+01  -1.247335e+01
  -1.616517e+02  -9.996790e+01
  -2.666389e+02  -3.004843e+02
   2.982682e+01  -4.167436e+02
   5.130779e+02  -1.058873e+02
   6.447825e+02   1.746504e+02
   1.257188e+02   2.869693e+02
  -3.879704e+02   1.931067e+02
  -5.291300e+02  -1.483628e+02
  -2.547533e+02  -3.809179e+02
   2.998781e+02  -3.589825e+02
   4.512655e+02  -1.855395e+02
   3.261312e+02   2.251164e+02
   7.022608e+01   2.857527e+02
  -1.718339e+01   1.680579e+02
   3.166465e+01  -5.557485e+01
   1.802375e+02  -7.517939e+01
   1.839268e+02   1.700281e+02
   5.952463e+01   5.269629e+02
  -2.558231e+02   4.279181e+02
  -3.697655e+02  -4.321341e+00
  -8.894872e+01  -3.269712e+02
   1.217528e+02  -2.107424e+02
   1.248651e+02   2.667448e+02
  -1.765373e+02   3.516845e+02
  -4.074147e+02   7.114416e+01
  -4.364226e+02  -4.143921e+02
  -1.509935e+02  -4.631075e+02
   2.580913e+02  -2.208690e+02
   5.634663e+02   4.682832e+01
   3.367944e+02   2.187393e+02
  -4.630104e+01   2.300052e+02
  -3.149196e+02   8.029677e+01
  -2.486850e+02   5.207796e+00
  -2.664414e+01   8.808658e+00
   4.421179e+01   4.004746e+01
  -1.403881e+02   1.850105e+01
  -2.442839e+02   1.303648e+01
  -1.064912e+02  -1.873632e+02
   1.873584e+02  -2.361559e+02
   3.151267e+02  -1.477129e+02
   2.669085e+02   8.200696e+01
  -1.475010e+01   3.104587e+02
  -3.517892e+02   3.352754e+02
  -4.058130e+02   1.536346e+02
  -2.557455e+02  -1.898939e+02
  -4.571392e+01  -3.252519e+02
   4.772727e+01  -3.552579e+02
   9.662733e+00  -1.920567e+02
  -6.185996e+00  -1.428134e+02
   1.693347e+02  -1.048222e+02
   2.796619e+02  -6.269779e+01
   1.820744e+02   1.370316e+02
   7.498707e+01   2.768237e+02
  -8.156308e+01   2.197413e+02
  -2.124058e+02  -7.074833e+01
  -1.225965e+02  -2.466159e+02
   6.774073e+01  -2.445691e+02
   2.876616e+02  -7.902492e+01
   3.192098e+02   1.541862e+02
   1.381554e+02   2.458903e+02
  -6.982678e+01   2.253471e+02
  -2.119422e+02   1.393864e+02
  -1.590862e+02   5.611215e+01
  -1.278794e+02   9.991109e+01
  -2.676674e+02   3.516192e+01
  -4.050029e+02  -1.018097e+02
  -3.490629e+02  -3.621508e+02
   3.037069e+01  -4.450440e+02
   4.369020e+02  -4.158744e+02
   4.915669e+02  -1.385262e+02
   2.605124e+02   1.078967e+02
   1.117891e+01   2.374264e+02
  -8.892020e+01   1.787242e+02
  -3.491187e+01   1.509611e+01
   1.710241e+02  -4.020834e+01
   1.433821e+02   1.999901e+01
   5.367482e+00   1.569450e+02
  -1.404724e+02   8.351227e+01
  -9.367460e+01  -5.081226e+01
  -1.479773e+01  -1.321501e+02
   1.385258e+02   3.478388e+00
   1.326336e+02   2.500332e+02
  -5.609259e+01   3.719506e+02
  -2.153157e+02   1.935287e+02
  -3.655141e+02  -1.133917e+02
  -2.904032e+02  -2.894387e+02
  -3.662955e+01  -2.610061e+02
   1.775200e+02  -1.318796e+02
   8.932634e+01   5.562833e+01
   4.878328e+01   1.302690e+01
   2.060617e+01  -6.383650e+01
   6.612095e+00  -1.030535e+02
   9.144474e+01  -2.403975e+00
   1.104138e+02   2.519428e+01
   3.352262e+01   8.735617e+01
  -9.318041e+01  -2.643655e+01
  -5.503815e+01  -8.208900e+01
   1.835539e+02  -9.112335e+01
   2.630378e+02   7.401006e+01
   2.811998e+02   1.853911e+02
   3.362168e+01   2.350600e+02
  -2.280061e+02   2.327375e+02
  -2.495516e+02   7.715708e+01
  -1.595781e+02  -4.613441e+01
   2.284760e+01  -8.204882e+01
   5.522015e+01   4.910300e+01
  -3.899402e+01   8.302526e+01
  -1.754471e+02   2.536263e+01
  -1.701654e+02  -1.344810e+02
  -3.191254e+01  -1.712552e+02
   1.059113e+02  -1.080881e+02
   1.300220e+02   1.366004e+01
   6.168495e+01   2.941341e+01
  -7.167864e+01  -3.040918e+01
  -2.321072e+01  -1.067026e+02
   1.206938e+02  -1.319833e+02
   2.247053e+02  -2.434974e+00
   1.665594e+02   1.176901e+02
  -3.212825e-01   1.845172e+02
  -1.463272e+02   9.381300e+01
  -1.645720e+02  -3.274664e+01
   1.280990e+01  -1.079635e+02
   7.573762e+01  -7.081932e+01
   5.925490e+01  -1.086053e+01
  -1.261208e+01   2.524262e+01
  -1.535210e+01  -3.066789e+01
   1.586522e+00  -5.105352e+01
   4.565528e+01   1.236145e+01
   8.374135e+01   1.433176e+02
  -2.768986e+01   1.597875e+02
  -1.663960e+02   1.757291e+02
  -2.616269e+02  -1.123865e+01
  -1.787312e+02  -1.715582e+02
  -3.084098e+01  -2.203923e+02
   9.398785e+01  -9.913577e+01
   1.230722e+02  -2.436145e+01
   4.073093e+01   6.085949e+01
  -8.113750e+00   4.759510e+01
   9.382689e+01  -2.957136e+01
   6.064676e+01   6.819272e+00
   4.551078e+01   9.357703e+01
  -6.334212e+01   8.205238e+01
  -1.372535e+02   4.131028e+01
  -8.854728e+01  -7.035906e+01
   1.208862e+01  -1.367406e+02
   1.847292e+02  -6.343396e+01
   2.173942e+02   6.461007e+01
   6.058493e+01   2.518916e+02
  -1.328086e+02   2.197500e+02
  -2.805967e+02   8.576188e+01
  -2.505751e+02  -9.495162e+01
  -9.450617e+01  -1.516029e+02
   5.316208e+01  -1.769814e+02
   9.412659e+01  -3.200038e+01
   5.888190e+01  -7.286408e+01
   6.302464e+01  -5.753226e+01
   9.325847e+01  -9.576615e+01
   9.191722e+01   3.009185e+01
   9.282757e+01   1.316746e+02
   2.121439e+01   2.189985e+02
  -1.147825e+02   1.986281e+02
  -1.260100e+02  -1.196448e+01
  -1.105958e+02  -1.207564e+02
   3.464918e+01  -1.336337e+02
   9.180461e+01  -7.137396e+01
   6.467977e+01   1.012930e+01
  -6.846536e+00   5.842681e+01
  -2.833762e+01   5.725581e+01
   3.371599e+01   4.325380e-02
   8.849903e+01   5.948830e+01
   8.336921e+01   5.029728e+01
  -8.342516e+01   6.153717e+01
  -1.877639e+02  -2.692635e+01
  -1.696782e+02  -5.250645e+01
  -2.266987e+01  -9.128712e+01
   1.192067e+02  -5.423596e+01
   1.482815e+02   4.890790e+00
   6.044943e+01   5.960583e+01
  -4.259472e+01   3.632312e+01
  -1.137642e+02  -5.979370e+00
  -4.234641e+01  -6.668245e+01
   1.085087e+02  -4.864110e+01
   9.580892e+01   1.120555e+01
   3.609317e+01   6.299059e+01
   4.285558e+01   4.612261e+01
   6.536170e+01   8.735496e-01
   8.571486e+01   2.142024e+01
   3.510486e+01   8.284070e+01
  -2.832976e+01   1.691536e+02
  -1.186884e+02   1.445865e+02
  -1.761825e+02  -5.760015e+00
  -1.632838e+02  -7.947112e+01
  -1.102274e+01  -1.200629e+02
   9.577031e+01  -8.408195e+01
   5.560961e+01   1.041974e+01
  -2.400361e+01   3.347041e+01
  -1.561459e+02  -3.996257e+01
  -7.898856e+01  -9.765633e+01
   1.148831e+02  -1.398549e+02
   2.254990e+02  -6.674256e+01
   1.811785e+02   5.049602e+01
   3.335110e+01   5.404470e+01
  -6.656306e+01   5.805927e+01
  -5.266784e+01   2.462254e+01
   4.592469e+01  -1.766148e+01
   9.861083e+01   5.350262e+00
   5.115690e+01   8.382067e+01
  -6.777313e+01   1.442288e+02
  -1.748436e+02   2.705827e+01
  -1.447516e+02  -9.041846e+01
  -2.226039e+01  -1.853327e+02
   1.002948e+02  -1.424085e+02
   8.724307e+01   1.490505e+01
   3.373035e+01   1.119330e+02
   1.449590e+00   7.380208e+01
  -7.566080e+01  -9.695192e+00
  -6.372787e+01  -5.615524e+01
  -1.490386e+01  -4.661951e+01
   3.450736e+01  -1.204884e+01
  -5.965240e+01  -4.230143e+01
  -8.968492e+01  -9.546981e+01
  -2.344407e+01  -1.373133e+02
   3.955804e+01  -4.116743e+01
   1.361840e+02   1.901526e+01
   1.591896e+02   1.010904e+02
  -5.371253e+00   1.131353e+02
  -7.337061e+01  -1.906744e+01
  -7.117830e+01   2.409668e+00
  -9.458997e+00  -1.913358e+01
   4.564675e+01  -2.126036e+01
   4.651468e+01  -4.245628e+01
  -1.787517e+01   4.755384e+00
   9.748589e+00  -2.990894e+01
   6.392529e+01   8.778925e-01
   6.720508e+01   4.114307e+01
  -3.243050e+00   9.210837e+01
  -7.661818e+01   1.186947e+02
  -1.716154e+02   4.940563e+01
  -1.357006e+02  -5.106103e+01
   7.836839e+00  -2.178489e+02
   9.172342e+01  -1.780742e+02
   1.113487e+02  -6.331644e+01
   1.120918e+02   1.040667e+01
   2.990693e+01   3.702101e+01
   3.869439e+00  -1.088099e+01
   9.065467e+00  -3.183099e+01
   3.691914e+01   5.891005e+01
   3.714721e+01   8.863112e+01
  -2.810909e+01   6.365040e+01
  -9.412153e+01  -5.354175e+01
  -3.487105e+01  -1.148104e+02
  -1.057216e+01  -1.103625e+02
   7.608294e+01  -1.267411e+01
   8.171605e+01   5.016349e+01
   4.696177e+01   1.030861e+02
  -4.932022e+01   9.345798e+01
  -1.302748e+02  -3.585776e+01
  -4.404611e+01  -1.148768e+02
   3.424867e+01  -3.876355e+01
   3.310110e+01  -5.564938e+00
  -1.743814e+01   3.518742e+00
  -8.550686e+01   1.955694e+01
  -8.056750e+01  -3.947440e+00
   9.105915e+01  -7.409324e+01
   9.726692e+01  -2.472730e+00
   8.361823e+01   1.855301e+01
  -3.138793e+01   6.330392e+01
  -7.094114e+01   6.862846e+01
  -5.456495e+01   1.457949e+01
  -2.358183e+01  -8.705604e+01
  -6.535901e+00  -5.602516e+01
   2.241684e+01   8.958098e+00
   3.300539e+00   6.942850e+01
  -3.924380e+00   8.630850e+01
  -3.747315e+01   2.539975e+01
  -5.799700e+01   3.247191e+00
  -2.059794e+01   2.424130e+01
  -2.468041e+01   1.886881e+01
   2.036241e+01   9.398722e+00
   8.557682e+00  -3.202053e+01
   1.376047e+01  -5.233806e+01
   6.990150e+01  -1.464523e+01
   6.337624e+01   4.556471e+01
  -3.513395e+00   8.791910e+01
  -3.943938e+01   9.464363e+00
  -3.140101e+01  -8.106101e+01
  -4.389063e+01  -5.728907e+01
   4.778064e+01  -3.509569e+01
   1.384664e+02   3.862702e+01
   2.287169e+01   5.602273e+01
  -4.852816e+01   2.670004e+01
  -9.058289e+01   4.881700e+01
  -2.286184e+01   1.312090e+01
   4.124912e+01  -1.203615e+00
   1.794334e+01   2.606322e+01
   1.237814e+01   3.108761e+01
  -1.046087e+02   5.083322e+00
