
 $NMID
 id='ANONYMOUS ', fmtdat='(2E16.6)'
 volume=1.0
 tramp=1.0
 $END
   4.167274e+03   3.563126e+02
   2.430049e+03   2.812512e+03
  -5.994769e+02   2.414527e+03
  -2.174156e+03   9.348902e+02
  -9.107893e+02  -4.898739e+02
   4.247670e+02  -3.829134e+02
   6.607968e+02   3.798934e+02
  -9.211396e+00   9.567040e+02
  -8.278242e+02   8.410236e+02
  -9.300019e+02  -8.372894e+01
  -3.920991e+02  -8.666162e+02
   2.095571e+02  -8.155171e+02
   4.472516e+02   2.573912e+01
   3.620770e+02   7.446089e+02
  -3.280999e+02   6.806127e+02
  -5.064181e+02  -9.625565e+00
  -2.351209e+02  -6.389558e+02
   2.665437e+02  -6.877731e+02
   5.091718e+02  -1.615287e+02
   3.671192e+02   2.657836e+02
   4.057866e+01   4.383067e+02
  -2.269936e+02   1.997759e+02
  -1.605939e+02   3.901445e+01
   9.828855e+01  -7.524406e+01
   4.589966e+02   1.159192e+02
   1.921641e+02   4.680277e+02
  -4.891429e+02   2.812177e+02
  -8.966922e+02  -1.884067e+02
  -3.640217e+02  -5.209131e+02
   4.211597e+02  -5.046078e+02
   6.636430e+02   3.881095e+01
   3.846923e+02   4.459645e+02
  -3.061167e+02   4.496567e+02
  -5.003119e+02   1.515586e+02
  -4.388035e+02  -2.134527e+02
  -6.394199e+01  -4.298079e+02
   1.579122e+02  -2.537391e+02
   1.829811e+02   2.256325e+02
  -2.384637e+02   4.005889e+02
  -4.370116e+02  -5.319974e+01
  -1.793657e+02  -6.676030e+02
   3.245221e+02  -5.581547e+02
   6.054429e+02  -7.648393e+00
   3.165392e+02   5.883658e+02
  -3.026210e+02   2.871976e+02
  -3.968105e+02  -2.948404e+02
   6.383027e+01  -5.505300e+02
   5.014852e+02  -1.494778e+02
   5.142154e+02   3.102698e+02
   1.358707e+02   5.424761e+02
  -3.370352e+02   2.956638e+02
  -6.062512e+02  -9.166640e+01
  -3.769069e+02  -3.334222e+02
   1.744624e+02  -3.143938e+02
   4.629371e+02  -2.327135e-01
   2.013656e+02   1.362526e+02
  -1.006631e+02   8.217220e+01
  -1.736833e+02  -1.433856e+02
   1.620196e+02  -1.204216e+02
   3.614235e+02   3.671870e+01
   1.374003e+02   2.703804e+02
  -1.716889e+02   2.257822e+02
  -3.614208e+02   7.467356e+01
  -1.807506e+02  -9.224123e+01
   5.246550e+01  -2.359911e+02
   1.932031e+02  -3.317181e+02
   3.767997e+02  -1.968097e+02
   2.831898e+02   1.480214e+02
   6.340928e+01   4.408548e+02
  -1.052315e+02   3.368578e+02
  -9.913815e+01   1.261070e+02
  -9.068126e+00   2.853195e+01
  -4.920217e+01   1.088169e+02
  -2.131673e+02   1.336725e+02
  -3.292740e+02  -6.095666e+01
  -1.745225e+02  -2.575725e+02
   7.798455e+01  -2.346557e+02
   2.180162e+02  -3.205275e+01
   1.501415e+02   2.179895e+02
  -3.497221e+01   2.680043e+02
  -2.836314e+02   1.374973e+02
  -3.283351e+02  -1.843764e+02
  -2.023662e+02  -3.353372e+02
   1.177059e+02  -3.167889e+02
   2.058702e+02  -9.641634e+01
   1.650796e+02   4.117262e+00
   1.289545e+02  -4.317437e+01
   2.395926e+02  -4.110958e+01
   4.351717e+02   4.291835e+01
   3.030538e+02   3.265341e+02
   1.069211e+01   4.090079e+02
  -3.589574e+02   4.206053e+02
  -5.143137e+02   2.104383e+02
  -3.729309e+02  -1.146943e+02
  -6.236190e+01  -3.556380e+02
   1.202137e+02  -2.419792e+02
   6.613217e+01  -3.525982e+01
  -1.236125e+02   6.996449e+01
  -2.025595e+02  -1.465888e+01
  -4.245716e+01  -1.837329e+02
   1.774064e+02  -1.212622e+02
   1.842795e+02  -1.954612e+01
   1.322651e+01   1.856697e+02
  -1.809835e+02   4.341262e+00
  -1.704016e+02  -1.841814e+02
   2.632840e+01  -3.273561e+02
   2.323939e+02  -1.659696e+02
   3.576165e+02   5.904500e+01
   2.830235e+02   2.234700e+02
   5.585328e+01   3.083218e+02
  -9.916192e+01   1.692251e+02
  -1.459596e+02   2.706904e+01
  -9.003836e+01  -2.496559e+01
   4.366726e+01   5.197566e+01
   1.981428e+01   1.247271e+02
  -1.396451e+02   1.443317e+02
  -1.515902e+02  -9.138979e+00
  -5.841708e+01  -8.201780e+01
   5.555763e+01  -2.106343e+01
   7.030300e+01   6.404404e+01
  -1.279971e+02   7.662805e+01
  -2.548018e+02  -5.684865e+00
  -2.898744e+02  -1.465214e+02
  -5.184753e+01  -2.534145e+02
   1.960182e+02  -2.351576e+02
   2.655489e+02  -1.295946e+02
   1.932557e+02   2.630168e+01
  -2.393647e+01   1.096065e+02
  -9.806320e+01  -4.595819e+00
   1.143258e+01  -9.582912e+01
   2.176786e+02  -5.393431e+01
   1.955477e+02   5.762099e+01
   4.741231e+01   1.849513e+02
  -9.726770e+01   1.623886e+02
  -1.730510e+02   4.519927e+01
  -7.885539e+01  -4.389543e+01
   1.780411e+01  -2.213725e+01
   2.647458e+01   6.359755e+01
  -7.071855e+01   1.333093e+02
  -1.684245e+02   5.087743e+00
  -1.976568e+02  -1.258697e+02
  -1.538906e+01  -2.160463e+02
   1.960330e+02  -1.648758e+02
   2.040573e+02  -2.096256e+01
   9.000372e+01   1.654635e+02
  -7.880606e+01   1.327067e+02
  -3.535744e+01   3.158578e+01
  -6.791468e+00  -2.152397e+01
   2.460295e+01   5.096068e-01
  -6.549624e-01   1.650495e+01
  -6.088250e+01  -1.209542e+01
  -1.059225e+02  -5.410803e+01
  -8.103626e+00  -1.690442e+02
   1.396713e+02  -1.668961e+02
   2.596990e+02   2.370988e+00
   2.113608e+02   1.160506e+02
   6.000343e+01   2.232977e+02
  -1.149988e+02   1.960542e+02
  -1.388108e+02   3.233707e+01
  -6.849220e+01  -4.086468e+01
  -6.172964e+01  -5.489312e+01
  -5.740344e+01   2.394840e+01
  -6.020352e+01  -6.164502e+00
  -5.365152e+01  -6.941413e+01
   5.883640e+01  -1.116925e+02
   1.105668e+02  -6.556888e+01
   8.976483e+01   3.337031e+01
  -1.644401e+01   9.725336e+01
  -1.452973e+02   9.328877e+01
  -1.889989e+02  -3.157237e+01
  -9.298518e+01  -2.178715e+02
   1.387137e+02  -2.219407e+02
   2.692047e+02  -9.447087e+01
   2.577317e+02   4.816588e+01
   9.694449e+01   1.887772e+02
  -2.938408e+01   1.594609e+02
  -1.095733e+02   7.325096e+01
  -8.046231e+01   5.101329e+01
  -7.285381e+01   8.505032e+01
  -1.146471e+02   8.339706e+01
  -1.301290e+02  -4.298619e+01
  -1.283310e+02  -1.441672e+02
  -5.210441e+01  -2.529788e+02
   8.119343e+01  -1.696013e+02
   2.013552e+02  -1.447810e+01
   1.429195e+02   1.152192e+02
  -1.260068e+01   1.645421e+02
  -4.597524e+01   4.772918e+01
  -7.382896e+01   1.951884e+00
  -5.929121e+00  -6.921047e+01
  -4.852463e+00  -4.344657e+01
  -7.034753e+01   9.586876e-01
  -6.521728e+01  -1.605004e+01
  -2.489767e+01  -2.973170e+01
   7.295690e+01  -2.109699e+01
   1.350389e+02   8.124937e+00
   1.393959e+02   2.659119e+01
  -8.090600e+00   7.968976e+01
  -1.156167e+02   8.535165e+01
  -1.465995e+02   1.727261e+01
  -3.214366e+01  -1.134291e+01
   6.486744e+01  -1.517730e+01
   1.039579e+02  -9.324068e+00
  -1.329876e+01   6.181789e+01
  -4.782440e+01   7.241228e+01
  -6.868086e+01  -7.382976e+00
  -6.757386e+01  -4.091322e+01
  -4.466208e+01  -7.251693e+01
  -6.786032e+01   1.048684e+01
  -6.444565e+01  -2.252516e+01
  -2.468667e+01  -7.878876e+01
   6.067020e+01  -1.204160e+02
   1.102629e+02  -1.202370e+02
   1.936431e+02  -1.038070e+00
   1.231642e+02   8.822115e+01
  -1.692517e+01   1.000675e+02
  -5.670049e+01   8.284349e+01
  -3.932831e+01  -1.345582e+01
   3.195263e+01  -9.345419e+00
   1.882566e+02   2.513637e+01
   4.715444e+01   1.279783e+02
  -5.828906e+01   9.344874e+01
  -1.202959e+02   2.506741e+01
  -1.494138e+02  -4.195125e+01
  -4.725761e+01  -1.051781e+02
   4.660378e+01  -1.120714e+02
   2.573647e+01  -3.497850e+01
  -6.445743e+00   1.060690e+01
  -4.884206e+01   3.130687e+00
   5.510233e+00  -1.278944e+02
   4.711112e+01  -1.529426e+02
   1.745521e+02  -1.033909e+02
   8.535588e+01   1.238236e+02
   2.938223e+01   1.945075e+02
  -4.275080e+01   1.857341e+02
  -6.838549e+01  -7.577068e+00
  -4.143173e+01  -1.031560e+02
  -1.373181e+01  -1.117633e+02
   4.191589e+01  -2.378428e+00
   7.188741e+01   3.322022e+01
   5.147566e+01   4.421304e+01
   1.909109e+01  -2.719678e+01
   2.256109e+01   9.212966e+00
   5.782313e+01   7.366391e+01
   5.983647e+01   9.950194e+01
  -5.847806e+01   4.215845e+01
  -1.502135e+02  -4.552826e+01
  -1.388102e+02  -6.754776e+01
  -2.271444e+01  -7.580046e+01
   9.202481e+01  -2.731526e+01
   6.532073e+01  -4.930605e+01
   2.205253e+01   8.652007e+00
  -3.547898e+01   5.049632e+01
  -3.534817e+01   6.726889e+01
   4.022643e+01  -2.168277e+01
   7.846362e+00  -8.476177e+01
  -2.299551e+01  -2.382552e+01
  -6.283077e+01  -2.814424e+00
  -1.461810e+01  -7.261372e+01
   1.205350e+02  -1.349618e+02
   1.867409e+02  -4.871803e+01
   1.357948e+02   8.090823e+01
   2.592682e+01   1.498013e+02
  -6.904166e+01   1.687684e+02
  -1.220987e+02   5.589991e+01
  -1.034889e+02  -3.348846e+01
  -7.166244e+01   5.675674e-01
   1.384461e+01  -3.507190e+01
  -4.624997e+00   2.411803e+01
  -4.189789e+01  -2.968206e+01
  -5.192378e+01  -7.683438e+01
   2.405892e+01  -6.443506e+01
   5.313649e+01   1.181883e+01
   9.275835e+01   1.294145e+02
  -1.016673e+01   1.320927e+02
  -6.516949e+01  -1.911224e+01
  -1.132340e+02  -5.767458e+01
  -6.563797e+01  -9.564469e+01
   1.088417e+01  -2.854799e+01
   9.375847e+01  -2.128617e+00
   4.030491e+01   5.178152e+01
  -3.887991e+01   2.203622e+01
   1.202450e+01   3.295358e+01
   4.718839e+01  -3.763521e+01
   3.600791e+01  -9.071643e+00
   6.490094e+01   2.514123e+01
  -7.216792e+01   4.783332e+01
  -1.150263e+02   7.838380e+01
  -8.718985e+01  -1.410938e+01
   4.084436e+01  -1.255311e+02
   2.365712e+01  -7.726123e+01
   4.040614e+01  -2.205316e+01
   3.341816e+01   5.611318e+01
  -4.338389e+01   1.792059e+01
  -3.822175e+01  -1.798459e+01
   8.315243e+00   5.401054e+00
  -1.825926e+01  -2.603923e+01
   6.470526e+01   2.818510e+00
   5.426685e+01   3.968670e+01
   3.951482e+01  -2.679498e+00
  -3.836918e+00  -2.769186e+01
  -1.121151e+01  -1.185111e+01
   1.773474e+01   3.588476e+01
  -2.101699e+01   3.636880e+01
  -3.615203e+01  -2.989139e+01
   1.289611e+01  -6.882366e+01
  -3.885794e+00  -5.332984e+01
   6.956193e+01  -2.226256e+01
   5.970776e+01   1.323518e+01
   3.886657e+01   5.668634e+01
  -6.236969e+01   3.294943e+01
  -9.756140e+01  -3.668251e+00
  -3.585326e+01  -5.629465e+01
   3.588737e+01  -6.199309e+01
   5.730420e+01  -3.545972e+01
   1.714826e+01  -3.652110e+00
  -2.265486e+01  -1.506323e+01
  -4.028867e+01  -1.628753e+01
   6.794752e+01  -5.157670e+01
   1.177089e+02  -4.187840e+01
