
 $NMID
 id='ANONYMOUS ', fmtdat='(2E16.6)'
 volume=1.0
 tramp=1.0
 $END
  -3.307939e+03  -1.894024e+01
  -2.154178e+03  -2.281079e+03
   2.664080e+02  -2.200795e+03
   1.496649e+03  -1.018087e+03
   8.908119e+02   6.928421e+01
  -1.588565e+02   3.700449e+02
  -4.677611e+02  -1.990543e+02
   7.765990e+01  -7.984914e+02
   6.193068e+02  -5.687644e+02
   7.251830e+02   3.331646e+01
   4.342517e+02   5.962864e+02
  -8.572491e+01   8.004578e+02
  -3.416189e+02   1.453083e+02
  -1.586063e+02  -5.448642e+02
   2.089511e+02  -5.908370e+02
   5.198745e+02   1.160942e+01
   2.315122e+02   6.140350e+02
  -1.456891e+02   6.914155e+02
  -4.998970e+02   1.863122e+02
  -3.970438e+02  -1.907101e+02
  -3.370192e+01  -3.829386e+02
   1.551075e+02  -2.425854e+02
   8.483492e+01  -3.815875e+01
  -1.639697e+02   9.532258e+00
  -3.723030e+02  -2.214006e+02
  -5.075256e+01  -3.494863e+02
   4.454494e+02  -2.227347e+02
   7.077547e+02   1.608687e+02
   2.910029e+02   4.247399e+02
  -4.357941e+02   2.480545e+02
  -6.457257e+02  -2.746756e+01
  -2.543989e+02  -3.832430e+02
   3.021684e+02  -4.298503e+02
   4.690349e+02  -1.509501e+02
   3.804738e+02   2.045649e+02
   8.761645e+01   3.430545e+02
  -1.034611e+02   2.459009e+02
  -2.844270e+01  -1.996946e+02
   2.463275e+02  -2.635413e+02
   3.099571e+02   1.515918e+02
   5.005680e+01   5.703545e+02
  -2.847973e+02   5.096131e+02
  -4.141683e+02  -1.810207e+00
  -1.606096e+02  -3.936388e+02
   2.268574e+02  -1.803522e+02
   2.520245e+02   3.134040e+02
  -1.382915e+02   4.520547e+02
  -4.520518e+02   7.967060e+01
  -5.401030e+02  -3.680143e+02
  -1.696551e+02  -5.521285e+02
   3.584415e+02  -3.023288e+02
   5.333120e+02   1.113974e+02
   3.840104e+02   3.268988e+02
  -1.298258e+02   2.618926e+02
  -2.758301e+02   2.633428e+01
  -1.824393e+02  -8.879577e+01
   7.230899e+01  -7.372497e+01
   9.730741e+01   1.142293e+02
  -9.103241e+01   1.185593e+02
  -2.732603e+02  -6.089366e+01
  -1.206452e+02  -2.362212e+02
   1.527471e+02  -2.414130e+02
   3.354140e+02  -1.177051e+02
   2.403280e+02   8.006162e+01
  -2.215093e+00   2.775330e+02
  -2.590668e+02   3.310914e+02
  -3.307264e+02   1.688336e+02
  -2.480138e+02  -1.213027e+02
  -6.905839e+01  -3.631381e+02
   5.125096e+01  -3.342547e+02
   7.342605e+01  -1.217832e+02
  -1.004850e+01  -2.647438e+01
   7.260198e+01  -9.673749e+01
   2.267748e+02  -6.641142e+01
   2.547845e+02   1.544754e+02
   1.071169e+02   2.756008e+02
  -1.009798e+02   2.516688e+02
  -2.152363e+02  -3.273527e+01
  -1.333229e+02  -2.598975e+02
   1.443400e+01  -2.775310e+02
   3.198112e+02  -9.524754e+01
   2.921516e+02   1.657411e+02
   1.760040e+02   3.563931e+02
  -8.289266e+01   3.111984e+02
  -1.657917e+02   1.265615e+02
  -1.379381e+02   2.450394e+01
  -7.744387e+01   7.518156e+01
  -2.424619e+02   3.243007e+01
  -4.075930e+02  -6.149085e+01
  -2.963404e+02  -2.773389e+02
   1.679252e+01  -4.451535e+02
   3.762734e+02  -4.171459e+02
   5.027083e+02  -1.499447e+02
   2.946349e+02   8.774450e+01
   6.653501e+01   2.499187e+02
  -1.646122e+02   2.121440e+02
  -1.981548e+01  -4.346810e+01
   1.198950e+02  -1.255945e+02
   1.331399e+02   3.869612e+01
   4.050054e+01   1.779815e+02
  -1.007474e+02   1.270781e+02
  -9.915589e+01  -4.936348e+01
   4.620019e+01  -1.241614e+02
   1.518217e+02  -2.932264e+01
   1.640209e+02   2.714231e+02
  -3.381283e+01   3.023441e+02
  -2.265906e+02   1.236074e+02
  -3.608545e+02  -1.069339e+02
  -2.825422e+02  -2.523400e+02
  -3.245806e+01  -2.660619e+02
   1.058538e+02  -1.481442e+02
   1.596787e+02  -5.008593e+01
   9.087871e+01   1.128603e+01
  -3.559073e+01  -7.981500e+01
  -3.257160e+01  -1.026178e+02
   1.262957e+02  -6.764372e+01
   1.945332e+02  -6.682923e-01
   6.207506e+01   6.734914e+01
  -5.791288e+01   2.820798e+01
  -6.407959e+01  -8.655571e+01
   1.694156e+02  -8.775753e+01
   2.710272e+02   1.142522e+01
   2.436319e+02   1.507277e+02
   3.656383e+01   2.454832e+02
  -1.549618e+02   2.768858e+02
  -2.635066e+02   1.106473e+02
  -1.406502e+02  -7.170798e+01
   1.211885e+01  -7.424464e+01
   9.273734e+01  -3.228822e+01
  -5.872280e+01   1.204608e+02
  -2.100173e+02   3.715829e+00
  -1.867562e+02  -8.928176e+01
  -8.476468e+01  -1.680770e+02
   1.046438e+02  -1.281718e+02
   1.586018e+02   1.532056e+00
   6.843381e+01   1.682834e+01
  -7.114507e+01   1.057578e+01
  -3.419903e+01  -1.036988e+02
   1.001420e+02  -9.674127e+01
   1.912012e+02  -3.313384e+01
   1.927396e+02   1.370664e+02
   9.475321e+00   1.762842e+02
  -1.681322e+02   1.723992e+02
  -1.810947e+02  -7.012978e+00
  -6.684949e+01  -1.047489e+02
   1.016660e+02  -5.167059e+01
   8.607458e+01  -1.425256e+01
  -1.192934e+01   2.810276e+01
  -2.789108e+01   2.209142e+01
   5.223544e+00  -3.706127e+01
   8.776212e+01  -6.125577e+00
   1.268218e+02   6.743513e+01
   4.698888e+01   1.473396e+02
  -1.044263e+02   1.170983e+02
  -1.943236e+02   4.485413e+01
  -2.185099e+02  -1.484297e+02
  -3.226360e+01  -2.097928e+02
   6.220868e+01  -1.812258e+02
   9.823395e+01  -2.064019e+01
   8.310509e+01   3.865062e+01
   6.038545e+00   6.373833e+01
   9.108803e+01  -6.753723e+01
   7.669411e+01   2.116517e+00
   9.270273e+01   6.032371e+01
  -5.934297e+01   1.042395e+02
  -1.220678e+02   5.064587e+01
  -9.081260e+01  -3.383437e+01
   1.724496e+01  -1.349846e+02
   1.557727e+02  -6.219366e+01
   2.397562e+02   4.800473e+01
   1.076707e+02   1.912735e+02
  -1.262352e+02   2.451791e+02
  -2.676679e+02   6.848517e+01
  -2.241692e+02  -1.118816e+02
  -1.291161e+02  -1.628737e+02
   4.884926e+01  -1.471946e+02
   8.736231e+01  -9.862970e+01
   7.452900e+01  -4.451778e+01
   7.104883e+01  -8.749243e+01
   8.392792e+01  -6.981459e+01
   1.436523e+02   2.775088e+01
   1.146862e+02   1.599459e+02
   8.099722e+00   2.224727e+02
  -8.579441e+01   1.990723e+02
  -1.636509e+02   2.435763e+01
  -1.108309e+02  -1.101387e+02
  -5.102272e+01  -1.762662e+02
   8.227552e+01  -1.113110e+02
   6.700800e+01   1.137815e+01
  -2.940871e+01   7.652988e+01
  -5.964207e+01   2.267977e+01
   4.472366e+01  -4.277027e+00
   5.214081e+01   2.143420e+01
   4.589332e+01   4.663779e+01
  -7.967802e+01   4.106520e+01
  -1.880876e+02   3.655347e+01
  -1.612267e+02  -8.153707e+01
   2.942130e+01  -1.126009e+02
   1.374552e+02  -7.018206e+01
   1.297114e+02   1.502032e+01
   6.772341e+01   3.523446e+01
  -1.190545e+02   4.500151e+01
  -6.532115e+01  -4.097324e+01
   4.771597e+00  -6.045670e+01
   6.567595e+01  -7.573535e+01
   5.218343e+01  -9.551377e+00
   3.678646e+01   4.248456e+01
   3.632388e+01   2.065834e+01
   4.736232e+01  -1.699432e+01
   4.411003e+01   2.424149e+00
  -8.724794e+00   3.394139e+01
  -6.138945e+01   1.201874e+02
  -1.096174e+02   1.382556e+02
  -1.899400e+02  -2.112990e+01
  -1.453936e+02  -9.892123e+01
   1.821910e+01  -1.457686e+02
   8.615249e+01  -5.456470e+01
   8.138981e+01   3.573521e+01
  -7.340608e+01  -1.529914e+01
  -1.525820e+02  -1.780130e+01
  -6.505323e+01  -8.747674e+01
   9.056767e+01  -5.938977e+01
   1.784023e+02  -3.792209e+01
   1.678055e+02   3.466316e+00
   2.952937e+01   8.595616e+01
  -3.027714e+01   5.174084e+01
  -8.774670e+01  -1.933814e+01
   3.061335e+01  -2.105583e+01
   7.751412e+01   2.695035e+01
   4.891869e+01   9.571407e+01
  -6.309232e+01   1.718533e+02
  -1.595665e+02   8.484431e+01
  -9.723390e+01  -9.032708e+01
  -4.014877e+01  -1.861511e+02
   4.853237e+01  -1.334022e+02
   6.808034e+01   8.843283e+00
   7.342337e+01   1.018110e+02
  -1.101224e+00   1.293883e+02
  -3.677197e+01   2.063882e+01
  -5.482670e+01  -4.795981e+01
  -2.379988e+01  -8.352831e+00
   1.431067e+01   1.483446e+01
  -1.860199e+01   1.289742e+01
  -6.074574e+01  -7.209059e+01
  -8.501899e+00  -9.198332e+01
   7.536342e+01  -2.504262e+01
   1.316663e+02   4.134572e+01
   1.001927e+02   8.041884e+01
   2.607868e+01   6.670425e+01
  -8.688689e+01  -6.972571e+00
  -4.209971e+01  -3.714120e+01
   1.651140e+01  -1.954193e+01
   1.905994e+01  -6.308179e+01
   7.192009e+00  -1.381251e-02
  -2.655669e+01   2.146302e+00
   3.934942e+01  -1.294884e+01
   3.384909e+01  -8.754993e+00
   1.107059e+02   7.141006e+00
   2.659076e+01   1.122193e+02
  -1.052173e+02   1.286750e+02
  -1.533442e+02   8.131983e+01
  -1.624186e+02  -8.906626e+01
  -3.244753e+01  -1.446212e+02
   9.953002e+01  -1.343584e+02
   1.189493e+02  -7.191137e+01
   7.538978e+01  -1.493572e+01
   8.451717e+00   3.587623e+01
   1.650553e+01   2.455025e+01
  -1.354694e+00  -2.753753e+00
   2.188731e+01   2.785032e+01
   5.546254e+00   1.150564e+02
  -5.311985e+01   5.283816e+01
  -8.208672e+01  -5.456762e+01
  -1.027640e+02  -1.033370e+02
  -5.388440e+00  -1.421270e+02
   7.595524e+01  -6.803451e+01
   1.104679e+02   6.060267e+01
   6.740034e+01   1.094109e+02
  -7.123494e+01   3.897993e+01
  -1.138697e+02  -1.590378e+00
  -7.557566e+01  -4.149098e+01
   2.515644e+01  -1.000926e+02
   1.703866e+00  -4.477420e+01
   8.202487e+00   3.893278e+00
  -6.333717e+01   5.210242e+01
  -1.474720e+01  -2.348226e+01
   7.357994e+01  -1.108700e+02
   1.250073e+02  -4.240587e+01
   1.022753e+02   2.386700e+01
  -5.424791e-01   6.946694e+01
  -2.363566e+01   9.602846e+01
  -2.209127e+01   1.330537e+00
   8.955710e+00  -4.474432e+01
   4.738481e+01  -1.903636e+01
   3.210756e+01  -2.519939e-01
  -3.104410e+01   4.483592e+01
   3.123233e+01   4.416241e+01
  -2.249572e+01  -9.960827e+00
  -6.192570e+01  -9.925428e+00
  -1.591582e+01   2.658582e+01
   1.995058e+01   3.814154e+01
   1.193380e+01   4.255663e+01
   6.720326e+00  -4.879519e+01
   1.672243e+01  -5.822886e+01
  -1.367514e+01  -1.621420e+01
   3.951554e+01   4.634828e+01
   1.862584e+01   6.302292e+01
  -3.739503e+01   1.996126e+01
  -7.014632e+01  -2.758294e+01
  -3.848303e+01  -6.573537e+01
   8.796865e+01  -2.348277e+01
   1.055343e+02   4.835189e+00
   8.171311e+01   1.470284e+01
  -5.757264e+00   5.093943e+01
  -5.301500e+01   3.699786e+01
  -4.567631e+00   3.001163e+01
   1.628581e+01  -1.434081e+01
   2.954688e+01   1.650663e+01
  -4.208145e+01   6.558786e+00
  -8.505332e+01   2.013415e+01
