
 $NMID
 id='ANONYMOUS ', fmtdat='(2E16.6)'
 volume=1.0
 tramp=1.0
 $END
  -4.507364e+03   6.922909e+01
  -2.695932e+03  -2.709699e+03
   5.004518e+02  -2.653299e+03
   2.203158e+03  -9.648210e+02
   1.263069e+03   8.421706e+02
  -6.200451e+02   4.786276e+02
  -7.992089e+02  -2.721411e+02
   6.372555e+01  -1.131613e+03
   8.645523e+02  -8.200142e+02
   9.547003e+02   2.437145e+02
   5.163127e+02   8.955855e+02
  -1.907725e+02   8.712430e+02
  -5.597213e+02   1.469864e+02
  -3.662285e+02  -7.747599e+02
   3.110082e+02  -8.212613e+02
   6.946766e+02   7.330443e+00
   2.483326e+02   7.186966e+02
  -3.351019e+02   6.483942e+02
  -6.323056e+02   4.442030e+01
  -4.100042e+02  -3.034680e+02
  -2.644575e+00  -4.971520e+02
   3.037212e+02  -2.380287e+02
   2.786082e+02   8.925466e+00
  -1.438282e+02   1.576500e+02
  -3.981545e+02  -1.233702e+02
  -1.698871e+02  -4.381994e+02
   4.094724e+02  -4.893455e+02
   1.010423e+03   7.180654e+01
   4.551346e+02   5.481541e+02
  -4.163753e+02   4.817335e+02
  -7.599268e+02  -8.397879e+00
  -2.824086e+02  -5.222596e+02
   2.722764e+02  -4.741684e+02
   5.602389e+02  -1.863095e+02
   5.152025e+02   3.094405e+02
   4.582146e+01   5.426477e+02
  -1.939713e+02   3.177660e+02
  -1.475432e+02  -2.179402e+02
   1.638240e+02  -5.520110e+02
   4.246896e+02   2.456138e+01
   1.860121e+02   6.351042e+02
  -2.640172e+02   8.000018e+02
  -7.238078e+02  -1.441835e+01
  -2.770546e+02  -6.033535e+02
   2.902282e+02  -3.065085e+02
   3.512251e+02   3.334389e+02
  -1.046944e+02   5.825429e+02
  -5.916363e+02   1.526331e+02
  -5.703481e+02  -4.020983e+02
  -1.567240e+02  -6.576685e+02
   4.325055e+02  -4.085389e+02
   6.417364e+02   1.036493e+02
   3.720719e+02   3.946174e+02
  -1.899098e+02   3.855841e+02
  -4.719042e+02   1.153736e+02
  -2.467203e+02  -1.736910e+02
   1.113733e+02  -1.223676e+02
   1.205737e+02   1.120258e+02
  -1.939246e+02   1.880155e+02
  -3.729544e+02  -6.858021e+01
  -1.543662e+02  -3.345931e+02
   2.483731e+02  -2.894282e+02
   3.387481e+02  -6.062456e+01
   1.846467e+02   7.640285e+01
  -4.115651e+01   2.544109e+02
  -2.470942e+02   2.774873e+02
  -3.485717e+02   2.001172e+02
  -2.837826e+02  -1.366215e+02
  -1.117233e+02  -4.532502e+02
   8.012727e+01  -3.397777e+02
   1.635198e+02  -1.543049e+02
   1.833492e+01   2.681884e+01
   4.623269e+01  -6.030666e+01
   1.538558e+02  -1.316682e+02
   2.782943e+02   5.283449e+01
   1.604265e+02   2.421577e+02
  -7.628240e+01   2.726942e+02
  -2.514870e+02  -1.551485e+01
  -1.981028e+02  -2.145172e+02
  -2.577718e+01  -3.531882e+02
   2.804980e+02  -1.212523e+02
   3.602617e+02   1.926973e+02
   2.005107e+02   3.194995e+02
  -1.108384e+02   3.203117e+02
  -2.458860e+02   1.281602e+02
  -1.574397e+02  -1.284875e+01
  -1.016183e+02   1.177657e+01
  -2.304393e+02   6.890810e+01
  -3.983002e+02  -7.563717e+01
  -3.455384e+02  -2.721744e+02
  -1.537616e+01  -4.845822e+02
   4.027970e+02  -4.284495e+02
   5.311119e+02  -1.798208e+02
   3.186922e+02   6.247072e+01
   7.379269e+01   3.336652e+02
  -1.497513e+02   3.033639e+02
  -6.723869e+01   2.435933e+01
   1.371307e+02  -9.910240e+01
   1.896108e+02   3.869652e+01
   2.593229e+01   1.804176e+02
  -1.390413e+02   2.197201e+02
  -2.146795e+02  -7.207542e+01
  -8.561847e-01  -1.997120e+02
   2.085570e+02   9.266742e-01
   1.435639e+02   2.311716e+02
  -2.540178e+01   3.780134e+02
  -2.129237e+02   2.281292e+02
  -3.382811e+02  -4.535684e+01
  -2.715560e+02  -2.669704e+02
  -9.615345e+01  -2.522410e+02
   1.024961e+02  -1.914737e+02
   1.697709e+02  -2.614885e+01
   4.881242e+01   3.360734e+01
  -5.717557e+01  -1.469341e+01
  -5.436982e+01  -1.245356e+02
   1.492974e+02  -1.124026e+02
   1.871728e+02  -2.425622e+01
   1.034699e+02   1.138756e+02
  -8.350432e+01   1.299590e+01
  -4.362334e+01  -8.635046e+01
   1.025970e+02  -1.099085e+02
   3.002796e+02  -1.874317e+01
   2.810787e+02   1.181036e+02
   6.720768e+01   2.693138e+02
  -1.702757e+02   2.261342e+02
  -3.241004e+02   1.279203e+02
  -2.043500e+02  -7.203407e+01
   8.710904e+00  -1.210973e+02
   4.713853e+01  -3.523067e+01
  -4.274449e+01   9.284657e+01
  -1.899593e+02   6.368872e+01
  -2.302062e+02  -6.888927e+01
  -5.799644e+01  -1.985942e+02
   8.908561e+01  -1.527182e+02
   1.434814e+02  -2.975212e+01
   5.801395e+01   3.889662e+01
  -3.437643e+01  -1.198328e+01
  -6.537780e+01  -6.033882e+01
   4.704122e+01  -1.054942e+02
   2.012033e+02  -4.528607e+01
   1.956990e+02   1.047167e+02
   2.952034e+01   2.225501e+02
  -1.710020e+02   1.303087e+02
  -2.471052e+02   3.111468e+01
  -3.181407e+01  -1.161687e+02
   6.105245e+01  -1.639869e+02
   1.117570e+02  -3.310444e+01
   3.869341e+01  -2.142247e+01
  -4.091813e+01   2.228148e+01
   5.425122e+00  -2.709552e+01
   1.039016e+02   6.640259e+01
   9.373196e+01   1.143838e+02
  -2.532280e+01   1.732190e+02
  -1.528704e+02   1.344851e+02
  -2.171523e+02   5.635226e+00
  -2.057591e+02  -1.567780e+02
  -4.442509e+01  -2.703535e+02
   9.829998e+01  -1.696322e+02
   1.686038e+02  -4.182437e+01
   5.335535e+01   3.819330e+01
   4.064669e+01   3.963120e+01
   5.181287e+01   3.014176e+01
   1.096729e+02  -7.466629e-01
   2.225523e+01   3.818280e+01
  -6.722158e+01   7.676886e+01
  -1.270360e+02   7.528806e+00
  -8.150948e+01  -8.239726e+00
   3.138740e+00  -1.011016e+02
   1.452513e+02  -8.288381e+01
   1.744224e+02   6.712306e+01
   9.740747e+01   2.115352e+02
  -9.100749e+01   2.351008e+02
  -3.081978e+02   7.023747e+01
  -2.681068e+02  -1.062943e+02
  -1.221356e+02  -2.288722e+02
   1.802790e+01  -1.416754e+02
   1.241105e+02  -9.843018e+01
   7.361298e+01  -5.954744e+01
   6.606142e+01  -7.196701e+01
   9.125536e+01  -8.036345e+01
   1.367878e+02   1.899855e+01
   1.173009e+02   1.703817e+02
   3.321020e+01   2.081167e+02
  -1.470100e+02   1.796745e+02
  -1.751369e+02  -1.278268e+01
  -1.899857e+02  -1.253503e+02
  -1.856540e+01  -1.641723e+02
   8.186824e+01  -5.167676e+01
   3.691834e+01  -6.289695e+00
   2.531412e-01   5.698054e+01
   7.821678e+00   2.844563e+01
   1.610797e+01   2.007829e+01
   8.863669e+01   3.821510e+01
   2.454570e+01   5.818432e+01
  -7.757302e+01   3.740401e+01
  -1.832776e+02  -3.661924e+01
  -1.747542e+02  -4.436491e+01
  -6.586550e+00  -4.614733e+01
   1.179036e+02  -8.364147e+01
   1.085311e+02  -3.020856e+01
   5.144868e+01   4.611431e+01
  -3.002562e+01   5.608209e+01
  -9.180834e+01  -6.392786e+00
  -1.081801e+01  -3.525688e+01
   6.462166e+01  -6.242601e+01
   3.089556e+01   1.994848e+01
   8.218502e+01   2.413919e+01
   6.475772e+01   7.338589e+01
   6.897787e+01  -1.282969e+01
   3.326448e+01   1.682705e-01
   3.226084e+01   2.120708e+01
  -4.057583e+01   1.441354e+02
  -1.366802e+02   1.338720e+02
  -1.261449e+02   1.676500e+01
  -1.292077e+02  -7.439527e+01
  -1.389658e+01  -1.182155e+02
   7.632147e+01  -7.666130e+01
   4.994757e+01   4.379452e+01
  -5.397292e+01   1.611721e+01
  -1.068926e+02  -1.908698e+01
  -6.058621e+01  -1.236042e+02
   5.577777e+01  -9.167081e+01
   1.810244e+02  -8.419091e+01
   1.757066e+02   8.454061e+01
   5.857427e+01   1.010725e+02
  -5.460704e+01   5.686614e+01
  -4.724155e+01   2.748955e+01
   6.640699e+01  -4.060236e+01
   8.313949e+01   1.233083e+01
   9.841890e+00   1.139651e+02
  -5.453264e+01   1.564496e+02
  -1.759446e+02   6.792377e+01
  -1.206552e+02  -4.950276e+01
  -2.222489e+01  -2.192787e+02
   8.113708e+01  -1.622152e+02
   1.270521e+02  -1.626994e+01
   5.350814e+01   1.494272e+02
  -4.977937e+01   1.242069e+02
  -3.415927e+01   2.058038e+01
  -5.227097e+01  -5.144467e+01
  -3.479833e+01   2.284932e+00
  -1.611465e+01   2.360373e+01
  -2.517473e+01  -2.493971e+01
  -1.024919e+02  -9.521766e+01
  -7.001858e+01  -1.229055e+02
   4.499920e+01  -4.673420e+01
   1.571070e+02   5.846884e+01
   1.137688e+02   2.611054e+01
   4.509756e+01   6.714789e+01
  -8.080794e+01   3.201405e+01
  -8.907304e+01   3.339596e+01
  -3.150225e+01  -3.006802e+01
   5.222200e+01  -4.758188e+01
   1.019903e+01   3.821929e+01
  -1.748544e+01  -1.887635e+01
  -1.209445e+01   4.354047e+01
   7.382858e+01  -2.240381e+01
   9.839008e+01   1.031291e+01
   3.381666e+01   1.059134e+02
  -1.318081e+02   1.145954e+02
  -1.697985e+02   2.292911e+01
  -9.824892e+01  -7.481446e+01
  -3.198396e+00  -1.776770e+02
   9.364120e+01  -1.459955e+02
   1.056405e+02  -7.967852e+01
   5.477063e+01   2.648547e+01
   1.770811e+01   2.520351e+01
   5.281350e+00   3.209869e+01
   2.032735e+01   8.069486e+00
   2.851438e+00   6.065741e+00
   3.075767e+01   1.030388e+02
  -4.659663e+01   7.828096e+01
  -8.487025e+01  -2.923570e+01
  -8.592677e+01  -9.392833e+01
  -3.872501e+01  -1.262944e+02
   8.020687e+01  -4.498676e+01
   9.325310e+01   6.725187e+01
   2.726095e+01   1.023273e+02
  -6.056949e+01   5.148522e+01
  -8.178080e+01   3.989482e+00
  -3.090002e+01  -7.730577e+01
   4.602924e+00  -9.682107e+01
  -3.483892e+00  -2.989369e+01
  -3.460570e+01   3.709388e+01
  -8.575907e+01   6.366415e-01
  -1.035132e+00  -1.530132e+01
   1.236498e+02  -6.142980e+01
   1.062007e+02  -6.978275e+01
   2.421407e+01   1.033886e+01
   1.242607e+01   6.611986e+01
  -6.258685e+01   9.264483e+01
  -1.777651e+01   1.960748e+01
  -1.644386e+00  -4.845818e+01
   7.070109e+01  -7.075800e+01
   4.498730e+01   1.092818e+01
   2.567927e+01   6.425001e+01
  -2.113331e+01   4.200366e+01
  -3.145749e+01   1.460019e+01
  -4.313953e+01  -5.812380e+01
  -1.621446e+01   2.250784e+01
   2.008841e+00   1.862192e+01
   1.690161e+01   5.131628e+00
   1.509471e+01   1.187301e+01
  -2.063174e+00  -3.627576e+01
   4.397895e+01  -4.289852e+00
   1.097951e+01   7.496391e+01
   1.713030e+01   7.075380e+00
  -6.549038e+01  -3.962953e+00
  -2.372627e+01  -4.712206e+01
  -3.839553e+01  -9.044939e+01
   5.473669e+01  -2.761286e+01
   9.832962e+01   2.931708e+01
   6.422143e+01   7.329620e+01
  -6.997457e+01   7.938854e+01
  -6.133184e+01   6.491515e+01
  -7.472157e+01   7.938368e+00
   2.398403e+01   1.206481e+01
   2.626318e+01   2.601580e+01
  -5.398327e+01   6.192426e+01
  -9.538904e+01   1.458589e+01
