
 $NMID
 id='ANONYMOUS ', fmtdat='(2E16.6)'
 volume=1.0
 tramp=1.0
 $END
   3.802741e+03   2.853688e+02
   2.152034e+03   2.099162e+03
  -2.864637e+02   2.385471e+03
  -1.927449e+03   1.159577e+03
  -1.044173e+03  -1.545371e+02
   2.892709e+02  -4.035863e+02
   6.538839e+02   2.283785e+02
   1.948089e+02   8.759084e+02
  -6.695268e+02   7.313431e+02
  -8.533822e+02   9.785794e+01
  -4.688090e+02  -6.513238e+02
   8.710200e+01  -8.155590e+02
   4.958301e+02  -1.296441e+02
   3.084861e+02   5.219500e+02
  -1.395343e+02   6.705616e+02
  -5.367935e+02  -4.611144e+01
  -2.890939e+02  -6.236656e+02
   2.689638e+02  -6.453083e+02
   5.428681e+02  -1.859607e+02
   3.790481e+02   2.575728e+02
   6.179862e+01   3.874858e+02
  -2.445858e+02   2.820864e+02
  -1.435072e+02   8.013201e+01
   1.029689e+02   3.708361e+00
   3.123645e+02   2.142574e+02
   1.344996e+02   3.342250e+02
  -4.920726e+02   3.107880e+02
  -7.313139e+02  -1.129281e+02
  -3.588037e+02  -4.766040e+02
   2.657233e+02  -3.337000e+02
   5.140316e+02   1.195004e+02
   2.621850e+02   3.726453e+02
  -2.540332e+02   4.269300e+02
  -5.181384e+02   1.370950e+02
  -3.980202e+02  -1.445279e+02
  -1.289668e+02  -3.980013e+02
   1.194918e+02  -1.939181e+02
   9.847172e+01   1.378940e+02
  -1.798376e+02   3.093130e+02
  -2.914017e+02   4.096189e+00
  -1.809823e+02  -5.385736e+02
   2.871964e+02  -5.917960e+02
   5.052690e+02  -4.483345e+01
   1.754638e+02   3.916445e+02
  -1.848952e+02   2.553641e+02
  -2.430418e+02  -3.192734e+02
   9.691883e+01  -4.223694e+02
   4.788205e+02  -1.047557e+02
   5.030592e+02   3.896683e+02
   1.591864e+02   5.351696e+02
  -3.825600e+02   3.189931e+02
  -5.803486e+02  -8.321627e+01
  -3.705115e+02  -3.122611e+02
   9.868171e+01  -2.674900e+02
   4.224790e+02  -5.331969e+01
   2.596566e+02   8.463348e+01
  -2.544623e+01   4.859143e+00
  -9.826497e+00  -6.259264e+01
   1.179506e+02  -1.720100e+02
   2.702604e+02   1.857785e+01
   1.266097e+02   2.753739e+02
  -1.520900e+02   2.499713e+02
  -3.243291e+02   1.127904e+02
  -2.120601e+02  -7.237015e+01
   5.193373e+01  -2.456239e+02
   2.979479e+02  -3.339434e+02
   3.591606e+02  -2.202460e+02
   2.663172e+02   1.782657e+02
   5.913166e+01   4.514678e+02
  -1.256148e+02   3.713372e+02
  -5.322382e+01   1.772625e+02
  -5.325892e+01   5.047429e+01
  -1.024968e+02   1.190910e+02
  -2.066691e+02   1.092700e+02
  -2.478844e+02  -7.553225e+01
  -1.224746e+02  -2.673409e+02
   1.463321e+02  -2.183832e+02
   1.588721e+02  -8.277617e+00
   1.781637e+02   2.440795e+02
   5.478286e+00   2.449133e+02
  -2.501147e+02   1.061864e+02
  -3.023840e+02  -1.463444e+02
  -1.777350e+02  -3.376786e+02
   2.577869e+01  -2.975379e+02
   2.173621e+02  -1.267671e+02
   1.365370e+02  -1.785773e+01
   1.132168e+02   1.858359e+01
   2.660481e+02  -2.084768e+01
   4.085160e+02   6.598566e+01
   3.487880e+02   2.701907e+02
  -1.101704e+01   4.172626e+02
  -3.764243e+02   3.847994e+02
  -4.141178e+02   1.775932e+02
  -3.303083e+02  -8.777126e+01
  -5.900398e+01  -3.139039e+02
   1.210449e+02  -2.235738e+02
   7.395641e+01  -3.414463e+01
  -1.136364e+02   7.627757e+01
  -1.884799e+02   1.846575e+01
  -8.433186e+01  -1.710764e+02
   1.292271e+02  -1.267202e+02
   1.468575e+02   7.590089e+01
   2.546259e+01   1.641071e+02
  -1.772352e+02  -8.823024e-01
  -1.698043e+02  -2.269357e+02
   4.516095e+01  -4.071513e+02
   2.240257e+02  -2.138255e+02
   3.518493e+02   9.906622e+01
   2.580027e+02   2.767447e+02
   6.413189e+01   2.715714e+02
  -7.422377e+01   1.632712e+02
  -1.547683e+02  -2.494787e+01
  -6.018741e+01  -7.177281e+00
   7.144640e+01   7.891380e+01
   2.350205e+01   9.470931e+01
  -1.222823e+02   5.527848e+01
  -1.050334e+02  -5.982824e+00
  -5.330914e+01  -2.313966e+01
   7.867664e+01  -2.904061e+01
   2.420287e+01   9.544127e+01
  -1.348892e+02   9.891334e+01
  -2.647573e+02  -4.950497e+00
  -2.465236e+02  -1.164684e+02
  -6.247159e+01  -2.667564e+02
   1.999764e+02  -1.993077e+02
   2.762340e+02  -1.248329e+02
   1.271800e+02   1.784538e+01
  -4.644837e+01   1.160369e+02
  -7.486125e+01   2.087097e+01
   1.075909e+01  -1.435223e+02
   1.917183e+02  -4.076014e+01
   2.124833e+02   7.529014e+01
   6.863422e+01   2.171298e+02
  -7.439975e+01   1.295449e+02
  -8.849990e+01   1.343089e+01
  -8.253098e+01  -5.002462e+01
   2.038503e+01   4.143366e+01
   8.161555e+01   8.237871e+01
  -8.461646e+01   1.251523e+02
  -2.272786e+02  -7.116633e+00
  -2.087503e+02  -7.781480e+01
   1.242122e+01  -2.259278e+02
   1.699761e+02  -1.454493e+02
   2.087163e+02   1.377862e+01
   7.553740e+01   7.811878e+01
  -6.939300e+01   1.184399e+02
  -9.923468e+01   6.270339e+01
  -3.522095e+01  -1.799326e+01
   5.288190e+01  -2.056387e+01
   2.859302e+00   1.470972e+01
  -7.405184e+01  -2.272830e+01
  -9.953211e+01  -1.074525e+02
   2.604428e+00  -1.519095e+02
   1.596776e+02  -1.278752e+02
   2.489261e+02   1.518303e+01
   2.120600e+02   1.419721e+02
   6.527078e+01   2.319014e+02
  -1.120241e+02   1.276660e+02
  -1.210668e+02  -1.300314e+00
  -6.568361e+01  -6.226787e+01
  -2.598524e+01  -4.445489e+01
  -2.823227e+01   2.003594e+01
  -9.277669e+01   7.418873e+00
  -6.401614e+01  -7.034763e+01
   9.697134e+01  -1.006177e+02
   1.014317e+02  -5.186555e+01
   1.158050e+02   3.812197e+01
  -3.432171e+01   7.950310e+01
  -1.375132e+02   9.116742e+01
  -1.822454e+02  -3.550697e+01
  -8.433627e+01  -2.346646e+02
   1.179852e+02  -2.521551e+02
   2.442324e+02  -7.592430e+01
   1.816441e+02   9.024726e+01
   8.016304e+01   1.297545e+02
  -2.464730e+01   1.440632e+02
  -9.133786e+01   7.733357e+01
  -9.218305e+01   5.992632e+01
  -7.104075e+01   4.121527e+01
  -1.010471e+02   1.013030e+02
  -1.215312e+02  -3.358479e+01
  -1.213660e+02  -1.500931e+02
  -2.575147e+01  -2.196444e+02
   1.082197e+02  -1.538810e+02
   1.605466e+02   5.544939e+00
   1.208892e+02   1.420079e+02
  -1.204101e+01   1.730812e+02
  -3.622598e+01   8.820211e+01
  -6.698728e+01  -1.036675e+01
  -1.936711e+00  -3.892993e+01
   9.260720e+00  -3.179256e+01
  -1.991612e+01  -3.901395e+01
  -7.424500e+01  -1.379091e+01
  -2.059304e+01  -5.798527e+01
   8.203061e+01   8.841172e+00
   1.915483e+02   4.944974e+00
   1.565928e+02   7.641447e+01
   2.509876e+01   6.285221e+01
  -1.056988e+02   8.915343e+01
  -1.430524e+02  -1.108460e+01
  -3.750735e+01  -3.097671e+01
   6.355166e+01  -5.517636e+01
   7.929208e+01   1.416771e+01
   5.550145e+00   5.267501e+01
  -1.009252e+02   6.208662e+01
  -6.369414e+01   1.798882e+01
  -4.179662e+01  -4.732473e+01
  -6.760160e+01  -8.150875e+01
  -7.111654e+01  -9.743139e+00
  -8.152880e+01  -1.176360e+01
  -2.676764e+01  -1.018165e+02
   5.343365e+01  -1.596597e+02
   1.324462e+02  -1.557864e+02
   2.030902e+02  -3.785671e+01
   1.156785e+02   8.584987e+01
   2.529696e+01   1.046596e+02
  -8.405915e+01   7.173749e+01
  -6.784035e+01  -3.889256e+01
   5.234074e+01  -4.823312e+01
   1.340733e+02   6.243731e+01
   8.783306e+01   1.071500e+02
  -1.084294e+02   1.184731e+02
  -1.708696e+02   3.550131e+01
  -1.786495e+02  -4.205110e+01
  -1.605048e+01  -1.195116e+02
   6.884726e+01  -3.764760e+01
   1.154573e+02  -1.223617e+01
  -5.425718e+01   3.868818e+01
  -8.520300e+01  -4.118773e+01
  -3.392963e+01  -1.249044e+02
   8.397987e+01  -1.686426e+02
   1.799358e+02  -4.209153e+01
   1.176843e+02   1.072838e+02
  -2.437685e+01   1.569434e+02
  -5.219078e+01   1.456247e+02
  -1.234659e+02   4.326358e+00
  -3.365366e+01  -1.110373e+02
   2.843130e+01  -7.913355e+01
   5.373130e+01   2.907864e+01
   7.215718e+01   1.421288e+01
  -7.881967e+00  -8.483698e+00
  -1.417346e+01  -1.393470e+01
   3.698007e+01   7.030323e+00
   5.928534e+01   8.709987e+01
   1.196380e+01   1.032010e+02
  -6.887427e+01   7.956480e+01
  -1.439046e+02  -3.214714e+01
  -8.197230e+01  -8.177109e+01
  -2.258082e+01  -3.676457e+01
   1.140124e+02   5.262930e+00
   1.019533e+02  -1.058110e+01
   2.165935e+01   2.898778e+01
  -1.663899e+01   2.671262e+01
  -5.561991e+00   2.139412e+01
  -2.004128e+00  -2.618915e+01
   1.552354e+01  -1.735983e+01
  -4.851296e+01  -2.639550e+01
  -9.140770e+01  -1.874054e+01
  -8.890851e+00  -9.702503e+01
   1.074015e+02  -1.038779e+02
   2.186059e+02  -6.904703e+01
   1.353689e+02   4.548834e+01
   7.651545e+01   1.796611e+02
  -6.642515e+01   1.511307e+02
  -1.038389e+02   6.349534e+01
  -1.196493e+02  -2.513097e+01
  -3.014356e+01  -5.848007e+01
   2.340294e+01  -9.944833e+00
  -1.447849e+01   1.231486e+01
   8.236806e-01  -7.043639e+01
  -4.106907e+01  -7.714000e+01
   4.568643e+01  -6.948842e+01
   5.716457e+01   2.162310e+00
   8.854417e+01   9.159231e+01
   2.539813e+00   8.785582e+01
  -9.495663e+01   5.053990e+01
  -9.778536e+01  -8.022323e+01
  -4.918221e+01  -9.772436e+01
   8.160846e+01  -1.064259e+02
   1.010363e+02   3.547038e+01
   5.427569e+01   6.371045e+01
  -1.141397e+01   6.466471e+01
  -1.985045e+01   2.471547e+01
   3.087820e+01   7.154836e+00
   7.162130e+01   5.009117e+01
  -1.175702e+01   6.587366e+01
  -1.009214e+02   6.970383e+01
  -8.674852e+01   2.368664e+01
  -2.955505e+01  -9.200762e+00
   4.299221e+01  -7.098104e+01
   7.469070e+01  -9.823499e+01
   6.125910e+01   5.709466e+00
   5.034613e+00   7.961503e+01
  -3.627054e+01   3.487314e+01
  -8.055989e+01  -3.752022e+00
  -3.706005e+01  -4.261783e+01
   3.487149e+01   8.534901e+00
   3.445932e+01  -5.023490e+00
   3.286385e+01   7.343016e+00
   1.790211e+01   1.166316e+01
  -6.643330e+00  -4.874114e+01
  -9.490133e+00   2.161735e+01
   7.166150e+00   3.765532e+00
   3.201541e+01   4.297854e+01
  -7.826253e+01   1.401363e+01
  -5.920557e+01  -2.958130e+01
   1.054798e+01  -6.880739e+01
   4.997622e+01  -4.633346e+00
   5.306589e+01   3.200773e+01
   3.864172e+01   5.729191e+01
  -4.466058e+01   2.633487e+01
  -8.015813e+01  -4.886306e+00
  -6.338916e+01  -4.021652e+01
   1.923126e+01  -4.570385e+01
   7.144470e+01  -2.301843e+01
   2.791473e+01   1.223323e+01
  -2.112531e+01  -1.256601e+01
  -4.283943e+01  -3.491393e+00
   1.751913e+01  -5.611388e+01
   8.760513e+01  -8.506238e+00
