
 $NMID
 id='ANONYMOUS ', fmtdat='(2E16.6)'
 volume=1.0
 tramp=1.0
 $END
  -3.037087e+03  -3.606869e+00
  -2.009104e+03  -1.872086e+03
   1.101382e+02  -2.078224e+03
   1.371060e+03  -1.150573e+03
   9.703025e+02   3.344167e-02
  -2.967457e+02   3.872009e+01
  -3.264062e+02  -3.064610e+01
  -8.066120e+01  -6.492617e+02
   4.710004e+02  -5.211614e+02
   7.381832e+02  -7.708094e+01
   4.111985e+02   4.852200e+02
   1.082375e+00   7.068766e+02
  -3.378844e+02   1.955234e+02
  -3.445952e+02  -4.140715e+02
   1.844560e+02  -5.437310e+02
   3.949940e+02  -8.899449e+01
   3.063787e+02   4.883738e+02
  -1.409258e+02   5.916818e+02
  -4.902608e+02   2.808683e+02
  -4.904551e+02  -1.378821e+02
  -9.849605e+01  -3.289384e+02
   7.790456e+01  -2.247356e+02
   5.659747e+01  -1.064345e+02
  -2.032853e+02  -1.078761e+02
  -2.858446e+02  -2.638316e+02
  -4.364861e-02  -2.923119e+02
   4.591470e+02  -1.630987e+02
   7.020221e+02   1.962964e+02
   1.435128e+02   3.540958e+02
  -2.413358e+02   1.965480e+02
  -4.613509e+02  -9.926069e+01
  -2.701829e+02  -3.747496e+02
   2.119121e+02  -3.228126e+02
   4.782894e+02  -1.411450e+02
   3.428524e+02   1.793935e+02
   1.154435e+02   3.906010e+02
  -2.467136e+01   1.407188e+02
  -2.802692e+01  -1.297194e+02
   1.384368e+02  -1.482425e+02
   2.806638e+02   6.923847e+01
   1.119966e+02   4.512555e+02
  -3.124945e+02   4.810667e+02
  -3.240646e+02  -3.035367e+01
  -6.302269e+01  -3.152717e+02
   1.706623e+02  -2.205381e+02
   1.973973e+02   2.952664e+02
  -9.018266e+01   4.040596e+02
  -4.061848e+02   3.263625e+01
  -4.565704e+02  -3.982300e+02
  -1.259290e+02  -4.756848e+02
   3.345754e+02  -2.412200e+02
   5.207589e+02   1.043122e+02
   4.227588e+02   2.497307e+02
  -5.440243e+01   2.702389e+02
  -3.819218e+02   7.574858e+01
  -2.378888e+02  -3.990374e+01
  -2.724963e+01  -4.376185e+01
   1.164481e+02   3.336782e+01
  -1.174412e+02   3.440562e+01
  -3.076066e+02  -3.373242e+01
  -1.452219e+02  -1.923143e+02
   1.436214e+02  -2.214746e+02
   3.548663e+02  -1.336089e+02
   2.502174e+02   1.182767e+02
  -1.297221e+01   2.903991e+02
  -2.778036e+02   3.457646e+02
  -3.707202e+02   1.409278e+02
  -2.217958e+02  -2.073218e+02
   1.050226e+01  -3.541826e+02
   4.064797e+01  -3.605543e+02
   8.904589e+00  -2.099940e+02
   4.285084e+01  -9.316841e+01
   1.383106e+02  -1.280128e+02
   2.515244e+02  -5.153522e+01
   2.225854e+02   1.181463e+02
   8.081218e+01   2.918166e+02
  -1.126160e+02   1.871668e+02
  -1.502527e+02  -4.946976e+01
  -1.179645e+02  -2.406234e+02
   3.878515e+01  -2.696711e+02
   2.469767e+02  -9.781953e+01
   2.743669e+02   1.521715e+02
   1.414272e+02   3.156540e+02
  -5.916937e+01   3.115077e+02
  -1.853807e+02   1.671793e+02
  -1.422834e+02   5.559947e+01
  -1.363701e+02   5.164143e+01
  -2.732780e+02   4.454854e+01
  -3.973824e+02  -8.976259e+01
  -3.332329e+02  -2.727545e+02
  -5.186843e+00  -4.010796e+02
   3.799978e+02  -4.047270e+02
   4.739296e+02  -1.476454e+02
   2.555387e+02   8.675752e+01
   4.190777e+01   2.394481e+02
  -9.314904e+01   2.096703e+02
  -2.016197e+01   6.087852e+01
   1.187818e+02  -6.731496e+01
   1.444192e+02   2.541921e+01
   2.739284e+01   1.383850e+02
  -1.255568e+02   8.074686e+01
  -1.175545e+02  -1.828630e+01
  -2.282437e+01  -1.377438e+02
   1.796180e+02   4.353062e+01
   1.644457e+02   2.548019e+02
  -4.763459e+01   3.448714e+02
  -2.747155e+02   2.109294e+02
  -3.673425e+02  -7.589324e+01
  -2.821838e+02  -2.849721e+02
  -2.096408e+01  -2.981764e+02
   1.128055e+02  -1.664524e+02
   1.467100e+02   1.384284e+01
   2.865399e+01   1.678600e+01
  -6.137561e+01  -5.851368e+01
  -2.314051e+01  -8.096015e+01
   1.329923e+02  -7.935095e+01
   1.554916e+02   6.954559e+01
   2.806669e+01   5.213604e+01
  -1.350758e+02  -2.507561e+01
  -3.221871e+01  -1.021193e+02
   1.346303e+02  -6.995915e+01
   2.892482e+02   4.208728e+01
   2.268501e+02   1.621758e+02
   3.036423e+01   2.731008e+02
  -1.888073e+02   2.011981e+02
  -2.459164e+02   1.074503e+02
  -1.683675e+02  -7.457500e+01
   4.012334e+01  -8.712176e+01
   5.904639e+01   2.827211e+01
  -5.308634e+01   7.965656e+01
  -1.383692e+02   5.441214e+01
  -1.889009e+02  -1.095230e+02
  -6.105672e+01  -2.152658e+02
   1.013122e+02  -1.300163e+02
   1.250063e+02  -5.959815e+01
  -1.241518e+01  -5.049776e+00
  -1.092264e+01  -5.980077e+00
  -4.816139e+01  -1.003754e+02
   1.090409e+02  -1.397079e+02
   2.483251e+02  -8.223972e+00
   1.903552e+02   1.567385e+02
  -2.151831e+01   1.998959e+02
  -1.597310e+02   1.584148e+02
  -1.604538e+02   2.666364e+01
  -1.592568e+01  -7.125565e+01
   8.340531e+01  -1.141126e+02
   8.167385e+01  -1.081593e+01
  -8.976478e+00   1.214827e+01
  -6.362937e+01   1.306991e+01
   3.628490e+01  -5.023631e+00
   8.092410e+01   4.744554e+01
   6.440413e+01   7.458555e+01
  -3.203408e+01   1.782029e+02
  -1.357643e+02   1.849301e+02
  -2.406702e+02  -1.294041e+01
  -1.702690e+02  -1.853801e+02
  -2.909160e+01  -2.398542e+02
   1.253683e+02  -1.766232e+02
   1.154339e+02  -1.231234e+01
   7.569577e+01   3.690800e+01
   1.815691e+01   2.385076e+01
   4.528574e+01  -2.756523e+01
   8.070441e+01  -2.388107e+01
   7.546840e+01   5.086179e+01
  -5.893451e+01   1.526599e+02
  -1.136058e+02   5.103039e+01
  -1.067396e+02  -6.547343e+00
   1.392877e+01  -1.019737e+02
   1.164117e+02  -8.152093e+01
   1.894203e+02   8.090930e+01
   6.955511e+01   2.231976e+02
  -1.477096e+02   1.633948e+02
  -2.662986e+02   6.837221e+01
  -2.469730e+02  -8.770405e+01
  -5.700632e+01  -1.806605e+02
   2.163140e+01  -1.415724e+02
   9.032955e+01  -5.875027e+01
   5.593898e+01  -7.392516e+01
   6.266569e+01  -9.284826e+01
   1.047133e+02  -8.315698e+01
   1.115815e+02   3.343886e+01
   9.120814e+01   1.482320e+02
   2.554651e+01   2.204084e+02
  -7.627662e+01   1.544951e+02
  -1.528855e+02  -3.811460e+01
  -1.262345e+02  -9.976271e+01
  -9.366536e+00  -1.539478e+02
   7.568534e+01  -1.007098e+02
   8.105884e+01   3.790150e+01
  -1.374974e+00   8.911032e+01
  -2.097750e+01   4.145976e+01
   3.732518e+01   2.578539e+01
   8.109044e+01  -1.017344e+00
   4.834641e+01   4.256809e+01
  -5.564103e+01   3.133121e+01
  -1.607057e+02  -2.962789e+01
  -1.459055e+02  -7.988501e+01
  -5.804731e+00  -1.270682e+02
   8.946510e+01  -6.426052e+01
   1.468263e+02  -5.303893e-01
   4.561004e+01   5.248115e+01
  -6.038637e+01   7.287422e+01
  -1.158110e+02  -9.055068e+00
  -2.352295e+01  -5.980548e+01
   2.815475e+01  -6.309300e+01
   6.308542e+01  -3.462310e+01
   3.304980e+01   8.612199e+01
   6.448991e+01   4.095498e+01
   1.435550e+01  -1.459016e+01
   2.280124e+01  -1.483236e+01
   2.021715e+01   8.350992e+01
  -6.082766e+01   1.306655e+02
  -1.238197e+02   1.816132e+02
  -1.897030e+02   4.130485e+01
  -1.402784e+02  -9.650571e+01
  -5.493528e+00  -1.256676e+02
   1.089822e+02  -7.058245e+01
   5.532451e+01   2.805450e+01
  -6.287738e+01   4.947488e+01
  -1.577427e+02  -4.217404e+01
  -2.926921e+01  -8.400865e+01
   1.115492e+02  -7.415045e+01
   2.282560e+02  -3.898395e+01
   1.906777e+02   5.268816e+01
   5.154167e+01   9.486992e+01
  -6.039114e+01   6.343332e+01
  -5.383836e+01   8.305693e+00
   2.949234e+01  -2.601408e+00
   9.691998e+01   2.737449e+01
   4.170804e+01   1.092442e+02
  -6.985062e+01   1.495639e+02
  -1.570732e+02   5.995900e+01
  -1.133722e+02  -9.116116e+01
  -2.169672e+01  -1.933329e+02
   6.798096e+01  -1.445981e+02
   1.199316e+02  -1.002865e+01
   9.521966e+01   1.280859e+02
  -2.740866e+01   8.100057e+01
  -4.224910e+01   1.839410e+01
  -3.383532e+01  -4.167210e+01
  -3.149374e+00  -3.159194e+01
   2.197571e+01   2.554363e+01
  -5.158196e+01  -2.029262e+01
  -8.106639e+01  -1.091340e+02
  -4.890056e+01  -8.208732e+01
   4.011988e+01  -1.710589e+01
   1.482116e+02   1.234819e+01
   1.088158e+02   5.898516e+01
   5.265475e+00   4.003674e+01
  -8.090149e+01  -3.935271e+00
  -8.986089e+01  -1.833205e+01
   1.708531e+00   2.693185e+01
  -1.871512e+01  -1.483548e+01
   6.443670e+01  -7.152417e+01
  -4.384391e+01  -4.512152e+00
  -3.320002e+01   2.191958e+00
   7.307454e+01  -1.210512e+01
   1.145011e+02   6.749434e+00
   3.140052e+01   8.628956e+01
  -1.031092e+02   1.595000e+02
  -2.005287e+02   6.334721e+01
  -1.580447e+02  -7.699972e+01
  -5.602916e+01  -1.479400e+02
   4.878200e+01  -1.659880e+02
   1.031654e+02  -7.784277e+01
   5.685380e+01   1.730227e+01
   6.602034e+01   4.979112e+01
   1.441369e+01   2.371269e+01
   2.859440e+01   7.024692e+00
   2.425761e+01   2.643308e+01
   2.123170e+01   8.154962e+01
  -1.840791e+01   3.454067e+01
  -6.157935e+01  -1.876940e+01
  -9.016781e+01  -8.348668e+01
  -1.952859e+01  -1.108206e+02
   7.509379e+01  -1.396408e+01
   5.376986e+01   6.534218e+01
   3.022339e+01   7.177736e+01
  -5.549646e+01   7.750836e+01
  -9.693964e+01  -6.304262e+00
  -4.327563e+01  -5.431431e+01
   3.923379e+01  -3.954374e+01
   4.925665e+01  -2.064172e+01
  -2.722880e+01  -8.875647e-01
  -7.783554e+01   8.710797e+00
  -3.269701e+01  -6.458974e+01
   6.006632e+01  -7.051693e+01
   1.130809e+02  -2.001208e+01
   5.857491e+01   3.087232e+01
  -1.902415e+01   6.356589e+01
  -4.681256e+01   3.971566e+01
  -7.901870e+01   1.896580e+01
   1.799973e+01  -3.093099e+01
  -9.514692e+00  -5.913821e+01
   3.694782e+01  -1.424337e+01
   2.320782e+01   7.792175e+01
   1.619280e+01   2.579778e+01
  -3.592122e+01   1.477547e+01
  -8.556651e+01  -1.846675e+01
  -3.640352e+01  -1.099649e+01
  -9.094642e+00   1.908449e+01
   7.375167e+00  -1.119107e+01
  -1.742351e+01   3.194173e+00
  -3.964404e+01  -9.645901e+01
   3.928466e+01  -2.090033e+01
   4.332833e+01   9.457907e+00
   5.723936e+00   6.792671e+01
  -6.821324e+01   4.650177e+01
  -5.240456e+01  -3.496249e+01
  -2.848766e+01  -4.505575e+01
   3.550901e+01  -4.415196e+00
   1.021333e+02   3.497377e+01
   4.002439e+01   3.832399e+01
  -2.630892e+01   4.148738e+01
  -7.377891e+01   2.687896e+01
  -2.149730e+01   2.174001e+01
   3.187698e+01   3.541051e+00
   1.509211e+01   3.655184e-01
  -3.069508e+01   9.998626e+00
  -1.076569e+02   3.252189e+01
