
 $NMID
 id='ANONYMOUS ', fmtdat='(2E16.6)'
 volume=1.0
 tramp=1.0
 $END
   3.713921e+03   2.336423e+02
   2.441129e+03   1.883386e+03
   6.303595e+01   2.470486e+03
  -1.517348e+03   1.094145e+03
  -8.598765e+02  -2.677240e+01
   4.550909e+02  -4.199469e+02
   5.816969e+02   2.804356e+02
   4.269331e+01   6.966385e+02
  -4.803658e+02   5.638002e+02
  -7.843548e+02   8.165919e+01
  -4.009762e+02  -5.762869e+02
   2.669156e+01  -7.331586e+02
   5.249488e+02  -1.426576e+02
   2.943889e+02   4.631646e+02
  -1.508689e+02   6.113341e+02
  -4.699353e+02   3.827104e+01
  -2.540988e+02  -5.281493e+02
   1.868694e+02  -6.845492e+02
   5.225356e+02  -1.914095e+02
   4.111655e+02   2.580163e+02
   4.401057e+01   3.355308e+02
  -1.875540e+02   2.531649e+02
  -1.594670e+02   7.380406e+01
   1.867954e+02   7.889862e+00
   3.129927e+02   2.081585e+02
   5.598654e+01   3.809108e+02
  -5.088812e+02   3.039943e+02
  -6.427276e+02  -1.498233e+02
  -4.045966e+02  -4.783674e+02
   2.969102e+02  -2.767033e+02
   6.277589e+02   6.453487e+01
   2.124701e+02   3.922197e+02
  -2.976454e+02   4.016947e+02
  -5.304877e+02   2.137062e+02
  -3.458852e+02  -1.584997e+02
  -5.681448e+01  -3.824311e+02
   1.159087e+02  -2.539862e+02
   3.753733e+00   1.138016e+02
  -1.682104e+02   3.200493e+02
  -2.901464e+02  -9.681270e+01
  -1.129261e+02  -5.364199e+02
   1.962155e+02  -5.692342e+02
   4.226741e+02  -2.879736e+01
   2.247873e+02   4.743661e+02
  -2.069214e+02   1.946751e+02
  -2.711261e+02  -2.094194e+02
   3.477440e+01  -4.226131e+02
   4.539626e+02  -9.714602e+01
   5.538398e+02   3.767261e+02
   1.551054e+02   5.494327e+02
  -3.741122e+02   2.954654e+02
  -5.471199e+02  -2.087207e+01
  -3.502137e+02  -3.619318e+02
   8.214303e+01  -3.477441e+02
   3.872816e+02  -2.863038e+01
   2.358426e+02   7.862454e+01
  -2.615407e+01   7.265607e+01
  -6.422835e+01  -1.020570e+02
   1.279785e+02  -8.441144e+01
   3.041292e+02   3.600985e+01
   1.234928e+02   1.866788e+02
  -1.605054e+02   2.715458e+02
  -3.619046e+02   8.562862e+01
  -2.373651e+02  -6.236096e+01
   2.191481e+01  -3.014173e+02
   2.436305e+02  -3.501252e+02
   3.565193e+02  -1.973479e+02
   2.506833e+02   1.030396e+02
   8.872803e+01   3.722583e+02
  -4.532655e+01   3.402255e+02
  -3.109130e+01   9.581298e+01
   1.030164e+01   8.323006e+01
  -1.120378e+02   1.104705e+02
  -2.432177e+02   7.208485e+01
  -2.582823e+02  -1.028711e+02
  -1.137656e+02  -2.394964e+02
   1.352599e+02  -2.054771e+02
   2.083773e+02   2.440233e+01
   1.724258e+02   2.289332e+02
  -7.142207e+01   2.613113e+02
  -2.129285e+02   6.993187e+01
  -2.988132e+02  -1.631793e+02
  -2.067118e+02  -3.290248e+02
   3.488289e+01  -2.608515e+02
   1.567603e+02  -1.991128e+02
   1.550598e+02  -6.707884e+01
   1.750564e+02  -1.720732e+01
   2.954009e+02  -5.129586e+01
   4.069204e+02   1.033564e+02
   3.025579e+02   2.782726e+02
   9.936272e+00   4.406342e+02
  -3.689259e+02   4.138937e+02
  -4.634913e+02   1.810964e+02
  -2.858003e+02  -5.312575e+01
   2.207820e+01  -2.567448e+02
   1.059903e+02  -2.093696e+02
   2.990053e+01  -3.490363e+01
  -9.908376e+01   8.517942e+01
  -1.236644e+02  -8.827713e+01
  -1.637460e+01  -1.541185e+02
   1.245498e+02  -1.235867e+02
   1.243650e+02   3.135014e+01
  -6.410261e+00   2.107594e+02
  -1.889632e+02  -2.806923e+01
  -1.183327e+02  -2.513221e+02
   3.948237e+01  -3.932845e+02
   2.374181e+02  -1.818388e+02
   3.622868e+02   4.607381e+01
   2.821735e+02   2.556930e+02
   8.288269e+01   2.481094e+02
  -1.301723e+02   1.341527e+02
  -1.914541e+02   2.059037e+01
  -3.131252e+01  -6.913516e+01
   7.751388e+01   4.416989e+01
   5.605531e+01   1.036882e+02
  -1.159034e+02   6.195990e+01
  -1.269531e+02  -2.674451e+01
  -3.882789e+01  -7.006889e+01
   9.593464e+01   1.660685e+01
   9.440643e+01   1.077836e+02
  -1.029253e+02   8.069667e+01
  -3.188000e+02  -6.528499e+00
  -2.839646e+02  -1.677221e+02
  -3.320203e+01  -2.478953e+02
   1.692693e+02  -2.475468e+02
   2.459244e+02  -9.303489e+01
   1.166757e+02   2.821508e+01
  -3.112758e+01   8.162727e+01
  -6.736885e+01   7.543961e+00
   8.112662e+01  -6.420821e+01
   1.620906e+02  -4.793076e+01
   1.577932e+02   9.197646e+01
   7.765975e+01   2.286473e+02
  -1.006933e+02   1.343126e+02
  -1.313290e+02   2.886528e+01
  -6.789217e+01  -7.724651e+01
   4.744964e+00   5.271334e+00
   2.380018e+01   1.086220e+02
  -8.526773e+01   1.125307e+02
  -1.810121e+02   6.170916e+01
  -2.299288e+02  -1.184230e+02
  -5.821735e+00  -1.946628e+02
   1.394776e+02  -1.269017e+02
   1.894747e+02  -3.682370e-01
   9.967880e+01   9.389948e+01
  -7.167229e+01   1.076248e+02
  -5.929995e+01   5.077525e+01
  -2.136679e+01  -5.046505e+01
   1.195155e+01  -2.822757e+01
  -5.144104e+01   3.282014e+01
  -8.082895e+01  -4.926398e+01
  -8.721677e+01  -1.051155e+02
  -7.195913e+00  -1.314111e+02
   1.225578e+02  -1.861704e+02
   2.569473e+02  -1.710083e+01
   1.872728e+02   1.551114e+02
   7.167932e+00   2.317275e+02
  -1.102601e+02   1.726474e+02
  -1.480508e+02   3.547914e+01
  -5.105288e+01  -8.173395e+01
  -2.672543e+01  -5.485223e+01
  -6.334246e+01   8.018059e+00
  -7.109563e+01   9.245305e+00
  -1.660698e+01  -4.016370e+01
   1.413163e+01  -1.085155e+02
   1.083985e+02  -7.359863e+01
   8.818594e+01   4.094654e+01
  -3.216150e+01   1.108724e+02
  -1.883812e+02   8.645281e+01
  -1.649276e+02  -4.135212e+01
  -1.029778e+02  -2.336278e+02
   1.025951e+02  -2.106635e+02
   2.681177e+02  -9.358619e+01
   1.917108e+02   6.602763e+01
   7.794949e+01   1.267946e+02
  -2.543988e+01   1.397464e+02
  -7.825752e+01   1.081065e+02
  -6.188541e+01   5.282308e+01
  -2.134668e+01   8.392392e+01
  -8.564808e+01   8.690973e+01
  -1.798221e+02  -3.142707e+01
  -9.214063e+01  -1.356992e+02
  -4.609750e+00  -2.140580e+02
   1.057070e+02  -1.835348e+02
   1.687580e+02  -2.761760e+00
   1.651261e+02   1.605488e+02
   3.356487e+01   1.627553e+02
  -9.268497e+01   8.444245e+01
  -8.117961e+01   2.166648e+01
   3.679822e+00  -6.563458e+01
  -1.000485e+01  -2.541283e+01
  -5.637705e+00   8.398381e+00
  -3.659572e+01  -6.312808e+00
  -3.493631e+01  -3.842141e+01
   4.343794e+01  -4.115434e+01
   1.957308e+02  -1.252913e+01
   1.105700e+02   7.480927e+01
  -4.019286e-01   1.063542e+02
  -1.275486e+02   1.030810e+02
  -1.012284e+02  -1.040197e+01
  -7.951340e+01  -8.243380e+01
   5.505469e+01  -4.942596e+01
   6.945512e+01   2.797719e+01
  -5.933853e+00   6.318823e+01
  -2.896801e+01   9.371267e+01
  -5.099515e+01  -2.365426e+01
  -3.210755e+01  -1.402330e+01
  -6.077423e+01  -1.774041e+01
  -5.900921e+01   3.395050e+00
  -4.009809e+01  -4.288305e+01
  -5.986359e+01  -4.999644e+01
   1.729723e+01  -1.388685e+02
   1.013551e+02  -1.216673e+02
   1.607684e+02  -2.811672e+01
   1.327212e+02   1.204586e+02
  -2.272398e+01   1.321033e+02
  -1.162820e+02   1.213347e+02
  -5.115184e+01  -3.058029e+01
   7.354231e+01  -7.313378e+00
   1.476346e+02   3.423542e+01
   8.217637e+01   1.103743e+02
  -9.329373e+01   1.015569e+02
  -1.763094e+02   4.685705e+01
  -1.525055e+02  -5.154079e+01
  -2.733675e+00  -1.142064e+02
   8.338466e+01  -9.230822e+01
   4.590968e+01   4.402662e+01
  -4.773988e+01   4.876786e+00
  -9.479055e+01  -7.688553e+01
   1.105964e+00  -1.593363e+02
   8.533223e+01  -1.756569e+02
   1.880193e+02  -6.166669e+01
   1.560104e+02   9.198345e+01
   3.363807e+01   2.093838e+02
  -8.320590e+01   1.498370e+02
  -7.744904e+01   4.802278e-01
  -4.626038e+01  -8.908929e+01
   8.403151e+00  -1.211596e+02
   3.046708e+01  -2.980031e+01
   5.266696e+01   3.944955e+01
   8.769091e-03   1.567090e+01
   2.119901e+01  -2.934735e+01
   3.949142e+01  -2.387586e+01
   7.049855e+01   9.894497e+01
   2.843251e+01   1.115348e+02
  -4.550009e+01   6.367900e+01
  -9.080289e+01   1.724509e+01
  -1.251018e+02  -6.514727e+01
  -2.489048e+01  -5.759853e+01
   6.035171e+01  -2.093534e+01
   8.915655e+01  -4.551139e+00
  -4.059218e+00  -6.521421e+00
  -3.138590e+01   7.782283e+00
   6.877383e+00   1.768377e+01
   1.784896e+01   5.881642e+00
  -1.384098e+01  -6.959558e+00
  -7.762244e+01  -4.256055e+00
  -6.109551e+01   5.711536e+00
  -2.683850e+01  -8.749510e+01
   1.065923e+02  -1.301376e+02
   1.741355e+02  -5.395241e+01
   1.490806e+02   7.123680e+01
   3.473618e+01   1.092288e+02
  -1.009656e+02   1.365180e+02
  -1.254897e+02   8.486376e+01
  -1.118816e+02   3.488977e+00
  -5.094574e+01   2.877761e-01
   5.418528e+01  -3.449994e+00
  -3.653859e+01   2.006057e+01
  -4.941876e+01  -4.083889e+01
  -6.069386e+01  -8.211217e+01
   2.831110e+01  -1.021518e+02
   6.930826e+01  -3.099635e-01
   7.896413e+01   1.056989e+02
   1.535990e+01   1.061000e+02
  -6.788197e+01  -9.285352e+00
  -1.446965e+02  -7.801372e+01
  -4.083094e+01  -1.397870e+02
   6.691721e+01  -1.070616e+02
   1.039532e+02  -2.796886e+01
   6.793182e+01   4.109402e+01
  -1.519190e+01   3.280254e+01
  -2.708431e+01   3.425120e+01
   3.673973e+01  -3.977720e+01
   3.391519e+01  -1.903542e+01
  -4.715295e+00   4.006506e+01
  -1.037815e+02   8.766330e+01
  -1.308853e+02   7.595915e+01
  -5.369250e+01  -4.771487e+01
  -8.706377e-01  -8.834965e+01
   4.060819e+01  -1.007841e+02
   2.534724e+01  -2.720530e+01
   1.332442e+01   8.166908e+01
  -1.086194e+01   1.634502e+01
  -4.226885e+01  -4.603472e-01
  -8.833056e+00  -5.401193e+01
   2.449325e+01  -2.735684e+01
   6.558656e+01   1.359497e+00
   1.741779e+01   7.927746e+00
   2.178808e+01   2.735716e+01
  -1.592295e+01  -2.520189e+01
  -2.593774e+01   8.864216e-01
  -1.355010e+01   7.749473e+01
  -5.873002e+00   2.804358e+01
  -1.265629e+00   1.655905e+00
  -2.083229e+01  -3.371291e+01
   1.870064e+01  -5.895726e+01
   4.652781e+01  -6.433165e+01
   5.899347e+01  -2.973203e+01
   2.311008e+01   2.245973e+01
  -6.112174e+01   3.303915e+01
  -1.060316e+02  -2.747581e+01
  -4.587193e+01  -4.675483e+01
   3.893266e+01  -6.776015e+01
   4.450529e+01   9.870122e+00
   3.233671e+01  -3.184126e+01
  -4.667757e+01   4.639258e+01
  -3.731839e+01  -7.899178e+00
   3.094261e+01  -2.186049e+01
   1.016026e+02   3.112552e+00
