
 $NMID
 id='ANONYMOUS ', fmtdat='(2E16.6)'
 volume=1.0
 tramp=1.0
 $END
  -4.095596e+03   9.559877e+01
  -2.701174e+03  -2.479043e+03
   3.759909e+02  -2.683466e+03
   1.956528e+03  -8.399737e+02
   7.529790e+02   4.010649e+02
  -3.631861e+02   5.221742e+02
  -7.909063e+02  -2.683275e+02
  -4.468922e+01  -7.703016e+02
   7.199023e+02  -8.027284e+02
   7.960770e+02  -4.083175e+01
   4.906793e+02   7.988368e+02
  -2.541145e+02   8.835614e+02
  -5.224811e+02   2.015289e+02
  -2.888682e+02  -5.447911e+02
   2.169629e+02  -7.725099e+02
   5.581025e+02  -3.465356e+01
   3.049835e+02   6.798514e+02
  -2.420350e+02   6.515810e+02
  -5.167721e+02   1.761247e+02
  -4.286373e+02  -3.133074e+02
  -5.593550e+01  -4.330934e+02
   1.151288e+02  -2.096439e+02
   1.798467e+02  -5.161804e+01
  -1.636335e+02  -6.214151e+00
  -3.514451e+02  -1.508048e+02
  -6.683115e+01  -3.741653e+02
   4.777798e+02  -3.259151e+02
   6.632476e+02   2.210530e+02
   3.877268e+02   4.639707e+02
  -3.830692e+02   3.827329e+02
  -6.596445e+02  -2.973537e+01
  -2.537744e+02  -4.096686e+02
   2.024508e+02  -4.708727e+02
   4.998893e+02  -2.501453e+02
   3.501368e+02   2.005473e+02
   1.221017e+02   3.734726e+02
  -1.276814e+02   2.983520e+02
  -8.330298e+01  -1.427592e+02
   1.495702e+02  -2.889081e+02
   2.822111e+02   2.274017e+01
   2.798009e+02   6.068353e+02
  -2.710969e+02   5.820124e+02
  -3.940538e+02  -8.165592e+01
  -2.292833e+02  -3.915252e+02
   2.307012e+02  -2.795523e+02
   3.113967e+02   2.997135e+02
  -1.445917e+02   5.151968e+02
  -5.316450e+02   1.392196e+02
  -5.094452e+02  -3.682502e+02
  -1.448028e+02  -4.974514e+02
   3.762063e+02  -3.003337e+02
   6.104731e+02  -1.725842e+00
   3.728392e+02   3.563206e+02
  -9.997462e+01   3.429095e+02
  -3.643262e+02   5.363683e+01
  -2.281931e+02  -1.761229e+02
   6.786224e+01  -5.078113e+01
   1.044913e+02   8.462879e+01
  -1.629346e+02   1.189502e+02
  -2.982524e+02  -5.546028e+01
  -1.162005e+02  -2.520854e+02
   1.666630e+02  -2.867644e+02
   3.243341e+02  -9.122631e+01
   2.005134e+02   1.183043e+02
   1.109377e+01   2.692634e+02
  -2.579221e+02   3.452372e+02
  -3.706875e+02   1.947370e+02
  -2.933476e+02  -1.230784e+02
  -9.502106e+01  -4.236507e+02
   8.237497e+01  -3.495736e+02
   1.083427e+02  -1.208135e+02
   5.406401e+01  -9.229429e+01
   1.007172e+02  -1.002596e+02
   2.283726e+02  -8.245178e+01
   2.372998e+02   6.236978e+01
   1.175047e+02   2.674494e+02
  -8.211358e+01   2.217638e+02
  -1.708327e+02  -7.037221e+00
  -1.992114e+02  -2.333648e+02
   2.996126e+00  -2.418387e+02
   2.856095e+02  -8.386539e+01
   3.000987e+02   1.559592e+02
   1.453361e+02   3.154187e+02
  -4.459482e+01   2.890680e+02
  -1.795289e+02   1.215260e+02
  -1.401389e+02   1.712074e+01
  -1.281665e+02   1.790307e+01
  -2.051584e+02  -5.089268e+00
  -4.138814e+02  -1.061419e+02
  -3.271300e+02  -3.082889e+02
   3.584008e+01  -4.407989e+02
   3.657863e+02  -4.798719e+02
   5.132315e+02  -2.129028e+02
   3.139260e+02   9.467061e+01
   4.362859e+01   3.148894e+02
  -9.971221e+01   2.492711e+02
  -2.804157e+01   2.759735e+01
   1.587970e+02  -5.667146e+01
   1.885318e+02   3.660321e+01
   8.235835e+01   1.380715e+02
  -1.437995e+02   1.940559e+02
  -1.323022e+02  -9.757881e+01
   6.426797e+00  -1.783463e+02
   1.764197e+02   9.217056e+00
   1.692381e+02   2.441448e+02
  -5.998660e+01   3.755301e+02
  -2.305865e+02   2.127854e+02
  -3.378035e+02  -5.883876e+01
  -2.418303e+02  -2.687053e+02
  -9.213596e+01  -2.178095e+02
   1.190119e+02  -1.437498e+02
   1.759895e+02  -1.514350e+01
   5.811996e+01   4.084372e+01
  -5.442598e+01  -2.727067e+01
  -3.234993e+01  -1.105018e+02
   1.368672e+02  -7.311068e+01
   1.520448e+02   4.025745e+01
   5.350734e+01   1.250711e+02
  -1.032527e+02   1.361850e+01
  -3.832832e+01  -1.091784e+02
   1.386354e+02  -6.068864e+01
   2.832525e+02   3.283921e+01
   2.835526e+02   1.679638e+02
   6.820414e+01   2.230372e+02
  -1.782286e+02   2.679686e+02
  -2.940629e+02   1.335201e+02
  -1.575323e+02  -8.350840e+01
   1.776523e+01  -1.185862e+02
   4.656161e+01   4.164766e+01
  -2.043273e+00   8.492547e+01
  -1.933552e+02   2.713812e+01
  -1.834761e+02  -1.123537e+02
  -5.257667e+01  -2.414447e+02
   1.015924e+02  -1.322599e+02
   1.457107e+02  -1.504032e+01
   5.021181e+01   1.650550e+01
  -3.241200e+01  -2.259497e+01
  -6.596486e+01  -1.228103e+02
   6.722894e+01  -1.497288e+02
   1.865789e+02  -3.311257e+01
   1.731307e+02   1.320082e+02
   2.067704e+01   1.946083e+02
  -1.577685e+02   1.722703e+02
  -2.142456e+02   1.674773e+01
  -6.473082e+01  -7.396325e+01
   6.829077e+01  -1.077448e+02
   7.178727e+01  -3.358859e+01
   6.516268e+01   2.441568e+01
  -1.235108e+01   2.348815e+01
  -4.704324e+00  -4.672413e+00
   7.119613e+01  -3.885372e+01
   8.057239e+01   7.645727e+01
  -1.773456e+01   1.631090e+02
  -1.475412e+02   1.646478e+02
  -2.027487e+02   7.508001e+00
  -1.922813e+02  -1.830679e+02
  -1.124326e+02  -2.466882e+02
   1.276022e+02  -1.945555e+02
   1.379364e+02  -7.437782e+00
   9.363567e+01   5.094444e+01
   1.282414e+01   3.609259e+01
   1.461693e+01  -1.706811e+01
   9.386526e+01  -2.819742e+00
   7.651444e+01   4.621793e+01
  -3.307896e+01   8.348487e+01
  -1.311144e+02   4.505209e+01
  -4.536254e+01  -4.007582e+01
   4.818301e+01  -8.559217e+01
   1.343706e+02  -8.468772e+01
   2.153907e+02   6.917147e+01
   6.812235e+01   2.322403e+02
  -9.930565e+01   2.626247e+02
  -2.728710e+02   8.096334e+01
  -2.781189e+02  -6.882596e+01
  -9.468472e+01  -1.843118e+02
   5.339170e+01  -1.172741e+02
   1.343269e+02  -8.888512e+01
   9.184583e+01  -8.974666e+01
   8.535017e+01  -8.258485e+01
   9.365521e+01  -3.386865e+01
   1.190052e+02   3.863280e+01
   1.188817e+02   1.237023e+02
   3.962687e+01   2.373550e+02
  -7.938147e+01   1.769385e+02
  -1.800112e+02  -8.064935e+00
  -1.549058e+02  -1.055990e+02
  -1.771436e+00  -1.209213e+02
   6.684318e+01  -5.002223e+01
   4.381010e+01  -9.831936e+00
  -1.772144e+00   6.277294e+01
  -1.031056e+00   5.164977e+01
   3.951337e+01   2.503877e+01
   8.491798e+01   2.800683e+01
   5.103835e+01   3.251242e+01
  -5.682385e+01   1.910644e+01
  -1.957281e+02  -2.620298e+01
  -1.674934e+02  -2.849135e+01
  -8.022508e+00  -4.849178e+01
   1.654620e+02  -6.383716e+01
   1.290312e+02  -2.037878e+01
   4.549785e+01   5.500318e+01
  -4.005753e+01   3.725074e+01
  -9.818765e+01  -2.949010e+01
   1.557586e+01  -3.480027e+01
   8.342801e+01  -5.920561e+01
   5.207989e+01   1.004015e+01
   5.890540e+01   1.901423e+01
   3.094220e+01   3.037855e+01
   4.715786e+01  -2.396828e+01
   7.140091e+01  -6.180888e+00
   4.618611e+01   7.282928e+01
   9.351454e-01   1.639809e+02
  -1.276505e+02   1.862707e+02
  -1.824981e+02   6.418488e+01
  -1.068818e+02  -7.069477e+01
  -3.790089e+00  -1.280329e+02
   9.380893e+01  -5.387666e+01
   8.573571e+01   8.785134e-02
  -6.640137e+01   2.951554e+01
  -1.113549e+02  -3.193424e+01
  -6.685386e+01  -9.947725e+01
   9.437280e+01  -1.130330e+02
   1.801800e+02  -5.068596e+01
   1.471576e+02   1.713181e+01
   2.090620e+01   8.566944e+01
  -1.041429e+02   7.955285e+01
  -4.153867e+01  -5.146671e+00
   1.971946e+01  -5.932688e+01
   1.050323e+02   1.616804e+01
   3.315868e+01   9.880630e+01
  -8.792658e+01   1.674793e+02
  -1.531289e+02   7.220935e+01
  -1.196670e+02  -9.924438e+01
  -3.749443e+01  -1.948870e+02
   1.025329e+02  -1.241855e+02
   1.273022e+02   1.187518e+01
   4.964973e+01   1.102832e+02
  -4.091412e+00   7.765857e+01
  -3.239061e+01   1.486030e+01
  -4.313611e+01  -5.231007e+01
  -1.932517e+01  -4.997663e+00
  -4.038882e+00   1.296326e+01
  -1.924793e+01  -2.629655e+01
  -4.238025e+01  -8.541331e+01
  -1.053190e+01  -1.151248e+02
   1.772337e+01  -3.248332e+01
   1.045374e+02   3.850819e+01
   9.697040e+01   9.263528e+01
  -6.022438e+00   4.862173e+01
  -4.552792e+01   2.795850e+01
  -5.645829e+01  -1.052282e+01
   5.178666e+00  -1.451090e+01
   4.167407e+01  -3.123356e+01
  -2.154941e+01  -3.000341e+01
  -3.073915e+01  -1.366704e+01
   3.506951e+00   3.526929e+01
   9.562807e+01   4.986777e+00
   1.098824e+02   2.046942e+01
  -1.455324e+00   1.040207e+02
  -6.114983e+01   8.683346e+01
  -1.969209e+02   2.461398e+01
  -1.506118e+02  -8.536484e+01
  -2.361366e+01  -1.729500e+02
   8.426583e+01  -1.368396e+02
   1.210089e+02  -8.457299e+01
   1.023351e+02   4.060813e+01
   4.617646e+01   4.263455e+01
   2.798642e+01   2.834634e+01
   2.246040e+01   4.201678e+01
   5.462413e+01   2.855041e+01
   2.223114e+01   1.376061e+02
  -4.800474e+01   5.030056e+01
  -6.992181e+01   1.518303e+01
  -1.235478e+02  -5.256648e+01
  -1.793658e+01  -1.276025e+02
   9.220838e+01  -4.297177e+01
   1.344387e+02   6.488782e+01
   3.707581e+01   9.747913e+01
  -5.605410e+01   5.393037e+01
  -9.213094e+01  -1.291130e+01
  -7.308837e+01  -4.799874e+01
   4.053057e+01  -4.188396e+01
   2.441253e+01  -2.887319e+01
  -8.548279e+00   1.024696e+01
  -6.984999e+01   1.103941e+00
   1.973392e+00  -3.937315e+01
   7.132397e+01  -6.868531e+01
   1.179718e+02  -5.084982e+01
   8.373303e+01  -1.108836e+01
   1.901948e+00   8.044785e+01
  -3.420137e+01   6.517512e+01
  -3.878296e+01   1.463555e+01
  -2.641767e+01  -3.882879e+01
   3.914536e+01  -3.564637e+01
   4.379775e+01   2.640196e+01
   2.731598e+01   6.580144e+01
   3.155827e+01   3.822999e+01
  -3.656285e+01  -5.374927e+00
  -5.006809e+01  -5.230538e+01
  -3.999237e+01  -2.075896e+00
   1.668098e+01   2.329463e+01
   8.959993e+00   8.133063e+00
  -7.951010e-01  -3.302475e+01
   2.362391e+01  -5.860265e+01
   1.917187e+01   2.714331e+01
   5.459604e+01   5.018987e+01
  -3.504886e+00   3.786825e+01
  -3.275308e+01   4.412891e+01
  -7.215666e+01  -5.357061e+01
  -3.132907e+01  -8.005895e+01
   6.846473e+01  -3.496149e+01
   8.282559e+01   5.262313e+01
   5.609802e+01   2.590563e+01
  -1.738074e+01   3.667267e+01
  -5.899336e+01   2.716152e+01
  -5.084781e+01   2.129212e+01
   3.472698e+01   2.295839e+01
   4.749141e+01  -8.260983e+00
  -1.829037e+01   3.133294e+01
  -1.012430e+02   4.597499e+01
