
 $NMID
 id='ANONYMOUS ', fmtdat='(2E16.6)'
 volume=1.0
 tramp=1.0
 $END
   3.533713e+03  -1.184202e+02
   2.003353e+03   1.658069e+03
  -3.154699e+02   2.500251e+03
  -1.552274e+03   8.289530e+02
  -8.086659e+02  -1.324204e+02
   3.655272e+02  -3.831686e+02
   5.528734e+02   2.066006e+02
  -1.848172e+01   8.292639e+02
  -6.943921e+02   5.658797e+02
  -7.716715e+02  -3.223615e+01
  -3.488518e+02  -6.162328e+02
   1.059911e+02  -7.716519e+02
   4.417009e+02  -1.796476e+02
   2.412761e+02   5.987184e+02
  -2.199791e+02   5.904359e+02
  -5.438407e+02   5.978099e+01
  -2.165262e+02  -5.812019e+02
   2.095379e+02  -5.954786e+02
   4.864529e+02  -1.716110e+02
   4.104634e+02   2.461641e+02
   3.295382e+01   3.943064e+02
  -1.779268e+02   2.250176e+02
  -1.349533e+02   1.215341e+01
   1.365298e+02  -1.270948e+01
   3.933976e+02   1.922667e+02
   5.193491e+01   4.603524e+02
  -3.723421e+02   2.836784e+02
  -6.722560e+02  -9.831642e+01
  -3.942526e+02  -4.106142e+02
   4.519246e+02  -3.075670e+02
   7.049689e+02   8.551054e+00
   2.888184e+02   3.675242e+02
  -2.525001e+02   4.825167e+02
  -5.396842e+02   1.847507e+02
  -3.481014e+02  -2.115344e+02
  -7.283187e+01  -3.673004e+02
   1.636760e+02  -2.271452e+02
   2.235969e+01   1.633623e+02
  -1.928040e+02   3.037691e+02
  -3.124270e+02  -1.620127e+02
  -6.686811e+01  -5.622602e+02
   2.425878e+02  -5.839590e+02
   4.611681e+02   2.450097e+01
   1.084141e+02   3.873764e+02
  -2.275473e+02   1.810157e+02
  -2.695555e+02  -2.821030e+02
   1.312592e+02  -4.759257e+02
   5.225208e+02  -7.843751e+01
   5.093143e+02   4.206240e+02
   1.525933e+02   4.978538e+02
  -3.595101e+02   2.837714e+02
  -5.483398e+02  -9.419984e+01
  -3.312841e+02  -2.826242e+02
   4.775900e+01  -3.004183e+02
   3.654835e+02  -6.935891e-01
   2.414060e+02   1.221048e+02
  -6.121789e+01   7.391160e+01
  -9.769057e+01  -1.529532e+02
   1.299492e+02  -1.601328e+02
   2.773172e+02   4.917491e+01
   5.797278e+01   2.437580e+02
  -1.932380e+02   2.291526e+02
  -3.741080e+02   1.217764e+02
  -1.873345e+02  -1.036382e+02
   7.770235e+01  -2.270046e+02
   2.464343e+02  -3.404534e+02
   3.411096e+02  -1.488051e+02
   2.280469e+02   1.126235e+02
   4.420272e+01   3.911621e+02
  -7.427771e+01   3.487854e+02
  -1.079646e+02   1.260882e+02
  -2.330211e+01   3.787832e+01
  -1.113267e+02   1.419233e+02
  -2.505892e+02   9.397711e+01
  -2.139266e+02  -6.370537e+01
  -9.732053e+01  -2.090189e+02
   6.831139e+01  -2.335006e+02
   1.803402e+02   7.470930e+00
   1.650627e+02   2.059909e+02
   1.964962e+01   3.165291e+02
  -2.951523e+02   6.355659e+01
  -3.165459e+02  -2.407059e+02
  -1.872113e+02  -2.953545e+02
   7.843795e+01  -2.620267e+02
   2.215271e+02  -8.786221e+01
   1.427273e+02  -3.082791e+01
   1.124321e+02  -5.554240e+01
   2.177177e+02  -3.633529e+01
   3.884353e+02   8.874827e+01
   3.199272e+02   2.860615e+02
   8.737896e-01   4.525101e+02
  -4.024356e+02   3.920838e+02
  -4.461169e+02   2.007080e+02
  -3.057070e+02  -1.086238e+02
  -5.063442e+01  -2.803113e+02
   1.440466e+02  -2.048904e+02
   3.898427e+01  -1.673095e+01
  -1.023275e+02   5.398120e+01
  -1.415776e+02  -2.652156e+01
  -6.727827e+01  -2.181500e+02
   1.527893e+02  -1.259352e+02
   1.391991e+02   6.586745e+01
  -4.629751e+01   1.455574e+02
  -1.926068e+02   7.052805e+01
  -1.947740e+02  -2.590400e+02
  -2.863870e+00  -3.311914e+02
   1.961870e+02  -2.017064e+02
   3.521411e+02   8.241020e+01
   2.739959e+02   2.379519e+02
   3.539306e+01   2.377105e+02
  -1.245581e+02   1.822644e+02
  -1.193361e+02  -6.041605e+00
  -5.435295e+01  -6.371853e+01
   6.687324e+01   7.605221e+00
  -1.053602e+00   1.199357e+02
  -1.665026e+02   5.578899e+01
  -1.614890e+02  -2.892239e+01
  -6.263836e+01  -5.596934e+01
   6.266812e+01  -1.796143e+01
   3.159434e+01   1.063654e+02
  -1.459377e+02   1.014113e+02
  -2.944838e+02  -2.844262e+00
  -2.383986e+02  -1.438642e+02
  -5.096572e+01  -2.485708e+02
   1.913334e+02  -2.795711e+02
   2.870290e+02  -9.657680e+01
   1.528119e+02   6.352321e+01
  -5.615294e+01   9.503718e+01
  -1.097087e+02  -1.364893e+01
   3.393217e+01  -1.085683e+02
   2.119596e+02  -7.931473e+01
   2.185422e+02   1.469230e+02
   7.432277e+01   2.156024e+02
  -7.959646e+01   1.295172e+02
  -1.240500e+02   1.699692e+01
  -9.084471e+01  -6.260011e+01
   1.559547e+01   1.368196e+01
   4.934896e+01   1.131548e+02
  -9.018314e+01   1.289033e+02
  -1.524450e+02   8.927983e+00
  -1.662328e+02  -1.488763e+02
  -2.239918e+01  -2.151253e+02
   1.297056e+02  -1.311893e+02
   2.120140e+02  -3.620162e+01
   6.712684e+01   1.243394e+02
  -8.242309e+01   8.891445e+01
  -7.096859e+01   1.343384e+01
  -1.546372e+01  -3.380522e+01
  -2.512769e-01  -1.584507e+01
  -4.238797e+01  -5.428097e+00
  -9.055026e+01  -9.491097e+00
  -9.142682e+01  -8.143115e+01
  -1.866694e+01  -1.726279e+02
   9.966163e+01  -1.533527e+02
   1.960449e+02  -4.402787e+01
   1.695706e+02   1.356830e+02
   3.674564e+01   2.430269e+02
  -1.104919e+02   1.865666e+02
  -1.139582e+02   8.900540e+00
  -7.428859e+01  -4.747123e+01
  -2.533054e+01   1.258264e+01
  -6.177381e+01   2.537968e+01
  -2.033713e+01  -5.941364e+00
  -2.988249e+01  -4.127724e+01
   6.031764e+01  -1.095270e+02
   1.112013e+02  -6.012001e+01
   1.022527e+02   1.960686e+01
   3.626427e+00   1.119270e+02
  -1.052022e+02   2.311756e+01
  -2.112373e+02  -4.981881e+01
  -8.825618e+01  -2.161966e+02
   1.135602e+02  -2.042016e+02
   2.555535e+02  -6.191778e+01
   2.402697e+02   6.861034e+01
   1.006987e+02   1.787472e+02
  -2.657076e+01   1.114118e+02
  -9.488718e+01   6.218012e+01
  -1.344535e+02   7.228207e+01
  -4.894776e+01   6.798826e+01
  -1.190889e+02   5.555287e+01
  -1.073420e+02  -2.299282e+01
  -6.523603e+01  -1.505680e+02
  -3.227749e+01  -1.847832e+02
   1.036527e+02  -1.797181e+02
   1.619629e+02  -4.130383e-01
   1.389381e+02   1.186996e+02
   2.399035e+01   2.151899e+02
  -4.219348e+01   7.740686e+01
  -7.368556e+01   1.378621e+00
   2.182757e+01  -5.062243e+01
   1.336834e+01  -2.614669e+01
  -2.994532e+01   3.592026e+01
  -5.076719e+01  -4.702373e+01
  -4.877350e+01  -4.701247e+01
   4.898271e+01  -9.380466e+00
   1.675831e+02   1.076058e-01
   1.201352e+02   2.442270e+01
   3.494746e+01   6.475618e+01
  -1.407061e+02   9.772116e+01
  -1.371522e+02   3.498916e+01
  -4.440900e+01  -2.775863e+01
   6.843372e+01  -7.233708e+01
   2.410788e+01   4.803515e+01
  -9.024263e+00   5.105754e+01
  -7.020891e+01   3.289035e+01
  -7.066612e+01   2.420513e+01
  -2.810439e+01  -2.727857e+01
  -5.116764e+01  -5.127779e+01
  -5.158644e+01  -6.928862e+00
  -1.212209e+02  -9.500638e+00
  -6.014858e+01  -8.804595e+01
   4.259236e+01  -1.514336e+02
   1.628210e+02  -1.367608e+02
   1.753290e+02  -4.644656e+01
   1.092933e+02   7.485713e+01
   5.824499e+00   1.688600e+02
  -3.895285e+01   7.822038e+01
  -7.671409e+01  -4.997887e+01
   5.930781e+01   7.048416e+00
   1.080623e+02   5.367515e+00
   4.631319e+01   7.431427e+01
  -8.470490e+01   1.109287e+02
  -1.960729e+02   7.362658e+01
  -1.695146e+02  -3.156823e+01
  -3.679704e+01  -1.021201e+02
   4.975690e+01  -6.178670e+01
   7.847854e+01   6.799532e+01
  -3.177084e+01   3.914473e+01
  -9.272188e+01  -5.123985e+01
  -2.741069e+01  -1.242607e+02
   7.593786e+01  -1.207192e+02
   1.472923e+02  -7.451249e+01
   1.134345e+02   1.178358e+02
   1.505033e+01   1.918208e+02
  -1.005331e+02   1.323234e+02
  -9.272572e+01  -2.924183e+01
  -7.617541e+01  -7.318031e+01
   3.500181e+01  -1.112899e+02
   3.925888e+01  -2.376228e+01
   8.705086e+01   2.900743e+01
  -4.780082e+00   1.002175e+01
  -2.824665e+00   4.587557e+00
   3.558311e+01  -1.637312e+01
   2.849082e+01   9.210274e+01
   4.836308e+01   1.272295e+02
  -3.347474e+01   4.559387e+01
  -1.559778e+02  -3.803879e+01
  -8.825838e+01  -4.674572e+01
  -1.036582e+01  -6.785063e+01
   9.097775e+01  -6.625335e+00
   1.212222e+02   6.802536e+00
   2.402322e+01   2.131556e+01
  -1.816294e+01   1.252767e+01
  -2.492056e+01   2.011027e+01
   4.242326e+01   2.475177e+01
   3.768678e+01   6.669327e-01
  -1.000825e+02   1.147688e+01
  -5.908928e+01  -1.684500e+01
  -1.672196e+01  -9.271073e+01
   1.231363e+02  -1.192177e+02
   2.083494e+02  -4.697562e+01
   1.332750e+02   6.688251e+01
   2.509037e+01   1.345039e+02
  -8.532138e+01   1.694369e+02
  -9.476456e+01   3.577776e+01
  -9.033715e+01   3.111181e+00
  -1.455911e+01   2.415539e+00
   4.056195e+01   9.947429e+00
   7.394356e+01   6.471893e+00
  -4.128119e+01  -6.057941e+01
  -3.148634e+01  -1.076353e+02
  -3.837222e+00  -5.173395e+01
   5.686490e+01   2.291578e+01
   9.295303e+01   1.462562e+02
   1.581365e+01   1.455306e+02
  -6.430026e+01   4.966740e+01
  -1.365990e+02  -5.651516e+01
  -2.919083e+01  -1.048365e+02
   5.782695e+01  -9.869168e+01
   1.162313e+02   3.878409e+01
   3.108563e+01   4.832380e+01
  -5.860449e+01   6.017869e+01
  -3.235406e+01   4.930124e+01
   1.387796e+01   2.995058e+01
   6.003597e+01   8.693624e+00
   9.942310e+00   1.497218e+01
  -2.795769e+01   9.951477e+01
  -1.152429e+02   4.410945e+01
  -5.368465e+01  -3.330155e+01
   8.247422e+00  -7.054935e+01
   4.345973e+01  -5.148287e+01
   4.349373e+01  -7.170248e-01
  -1.342347e+01   4.527237e+01
  -8.109837e+01   1.212102e+01
  -5.211050e+01  -2.963331e+01
  -4.245164e+01  -5.235689e+01
  -4.517784e+01   2.390107e+01
   1.297414e+01  -3.214930e+01
   1.400212e+01   2.396832e+01
   5.468133e+01  -3.104216e+01
  -2.822724e+01  -4.964623e+01
   5.643365e+00  -3.508311e+01
   6.432560e+00   4.106268e+01
  -4.147940e+01   3.391031e+01
   7.269321e+00   2.230351e+01
  -2.001095e+01  -2.247289e+01
  -1.539029e+01  -6.190638e+01
   1.518699e+01   1.524996e+01
   4.974571e+01  -9.470122e+00
   4.959165e+01   6.183816e+01
  -2.386847e+01   7.000013e+01
  -6.573286e+01  -2.818518e+01
  -3.792301e+01  -5.741811e+01
   2.426873e+01  -8.118402e+00
   7.566343e+01  -2.364698e+01
   1.223341e+01  -4.034488e+00
  -2.965638e+01   9.472721e+00
  -5.391512e+01  -4.088624e+01
   3.982238e+01  -3.139739e+01
   4.506400e+01  -2.548900e+01
