
 $NMID
 id='ANONYMOUS ', fmtdat='(2E16.6)'
 volume=1.0
 tramp=1.0
 $END
  -3.834548e+03  -1.575603e+02
  -2.076629e+03  -2.070757e+03
   2.292409e+02  -2.147960e+03
   1.532138e+03  -1.251960e+03
   9.196305e+02   1.572316e+02
  -3.396924e+02   2.800660e+02
  -3.912220e+02  -2.330466e+02
  -5.315013e+01  -6.982071e+02
   5.848543e+02  -5.699601e+02
   7.703303e+02   5.466661e+00
   4.141264e+02   6.357960e+02
  -7.055535e+01   7.072445e+02
  -4.971512e+02   9.277513e+01
  -3.323506e+02  -5.485979e+02
   1.753679e+02  -5.241562e+02
   4.417828e+02  -4.201192e+01
   3.033744e+02   5.193346e+02
  -2.462840e+02   6.437669e+02
  -5.893002e+02   1.443880e+02
  -4.282079e+02  -2.244012e+02
  -6.541274e+01  -3.329368e+02
   1.217913e+02  -2.421365e+02
   1.017645e+02  -9.243182e+01
  -1.111196e+02  -2.771393e+01
  -3.705688e+02  -2.663394e+02
  -2.714419e+01  -3.994342e+02
   5.062369e+02  -3.002102e+02
   6.359277e+02   1.217190e+02
   1.810926e+02   4.266864e+02
  -3.271204e+02   3.141012e+02
  -5.945987e+02  -1.978915e+02
  -2.139196e+02  -3.865301e+02
   2.090198e+02  -3.566506e+02
   5.021516e+02  -1.181053e+02
   3.627325e+02   1.851174e+02
   7.160450e+01   3.683521e+02
  -1.474386e+02   1.979388e+02
  -6.068748e+01  -7.159696e+01
   1.389929e+02  -2.364539e+02
   2.703161e+02   3.694815e+01
   1.223323e+02   5.199283e+02
  -2.780266e+02   5.823203e+02
  -3.870510e+02   5.204921e+01
  -1.495424e+02  -3.941592e+02
   2.497860e+02  -2.444597e+02
   2.611909e+02   2.336473e+02
  -5.561152e+01   4.533343e+02
  -4.650656e+02   8.760325e+01
  -4.987752e+02  -4.105342e+02
  -1.645478e+02  -5.255439e+02
   3.515107e+02  -3.013972e+02
   5.201696e+02   4.773227e+01
   2.915612e+02   2.715225e+02
  -1.440641e+02   1.893421e+02
  -3.807281e+02   9.420779e+01
  -2.163101e+02  -9.804567e+01
   2.210383e+01  -4.650435e+01
   1.107243e+02   8.018552e+01
  -1.251374e+02   9.544218e+01
  -2.929843e+02  -1.570173e+01
  -1.932045e+02  -2.402584e+02
   1.798820e+02  -2.362731e+02
   3.689175e+02  -1.214566e+02
   2.234724e+02   5.412311e+01
  -3.019099e+00   3.241939e+02
  -2.548712e+02   3.488511e+02
  -3.384882e+02   2.434363e+02
  -2.619229e+02  -1.471162e+02
  -1.108833e+01  -4.109598e+02
   9.248419e+00  -3.140236e+02
   6.042765e+01  -1.288295e+02
  -1.384876e+00  -2.886824e+01
   8.017659e+01  -9.991396e+01
   1.779891e+02  -8.654865e+01
   2.496093e+02   8.951780e+01
   1.014180e+02   2.578880e+02
  -4.425977e+01   2.238348e+02
  -2.075615e+02  -1.152908e+01
  -1.461744e+02  -2.256896e+02
   3.291496e+01  -2.526621e+02
   2.909025e+02  -6.167858e+01
   3.657092e+02   2.179040e+02
   2.042800e+02   3.574569e+02
  -8.512191e+01   2.407928e+02
  -1.748973e+02   1.186015e+02
  -1.573264e+02   6.637754e+01
  -1.091069e+02   1.012122e+01
  -2.393056e+02   8.342607e+00
  -4.067575e+02  -1.213385e+02
  -3.046440e+02  -2.760145e+02
   1.751463e+00  -4.315369e+02
   3.492411e+02  -4.267782e+02
   4.257271e+02  -1.685153e+02
   2.665240e+02   5.338007e+01
   6.848793e-01   2.493033e+02
  -1.452627e+02   2.138380e+02
  -5.832758e+01   4.061003e+01
   1.500946e+02  -5.256880e+01
   1.384612e+02   3.852083e+01
   4.104400e+01   1.608239e+02
  -1.027692e+02   1.204562e+02
  -1.440261e+02  -3.183750e+01
   4.612302e+01  -1.178103e+02
   1.756481e+02  -3.529455e+00
   1.157063e+02   2.246302e+02
  -2.942877e+01   3.264240e+02
  -2.547115e+02   2.236976e+02
  -3.465485e+02  -4.655869e+01
  -2.522410e+02  -2.412823e+02
  -3.910275e+01  -3.210318e+02
   1.449926e+02  -1.214386e+02
   1.933622e+02  -3.939966e+01
   2.974824e+01   1.915727e+01
  -6.814073e+01  -6.725171e+01
  -2.073007e+01  -1.354685e+02
   1.483086e+02  -9.609440e+01
   1.496126e+02   8.847056e+00
  -9.774588e+00   6.872598e+01
  -1.033324e+02  -3.478348e+01
  -7.954187e+01  -8.939453e+01
   1.392797e+02  -6.021805e+01
   2.588471e+02   4.197238e+01
   2.600056e+02   1.587020e+02
   2.468765e+01   2.414398e+02
  -2.175464e+02   2.701962e+02
  -2.284651e+02   1.254757e+02
  -1.935202e+02  -4.403979e+01
   1.850370e+01  -9.967613e+01
   4.648656e+01   3.268316e+01
  -6.009301e+01   1.095974e+02
  -1.785158e+02   1.535007e+01
  -1.553957e+02  -9.750948e+01
  -7.812975e+01  -1.739990e+02
   6.283097e+01  -1.436247e+02
   1.269465e+02  -1.080404e+01
   7.466932e+01   3.901237e+01
  -4.817859e+01  -5.297977e+01
  -2.355738e+01  -8.693009e+01
   1.158409e+02  -1.044538e+02
   1.986295e+02  -2.647471e+01
   1.896810e+02   1.542723e+02
   2.853863e+01   1.951485e+02
  -9.499443e+01   1.750996e+02
  -1.772292e+02   8.059069e+00
  -5.851393e+01  -7.558758e+01
   5.289205e+01  -1.015456e+02
   6.758009e+01  -6.209028e+00
   2.706339e+01   1.457035e+01
  -4.590975e+01   5.221022e+00
  -1.208221e+01   1.543463e+01
   9.270640e+01   1.818501e+01
   1.097087e+02   6.620228e+01
   8.462513e+00   1.329087e+02
  -1.414533e+02   1.840932e+02
  -2.074134e+02   4.634181e+00
  -1.809058e+02  -1.353671e+02
   1.180722e+01  -2.119229e+02
   9.845534e+01  -1.764152e+02
   1.446605e+02  -4.809965e+01
   8.902509e+01   6.003656e+01
   2.197507e+01   5.396877e+01
   5.250065e+01  -2.203282e+01
   5.792593e+01  -1.305068e+01
   4.592420e+01   1.884997e+01
  -3.664156e+01   7.504552e+01
  -1.280407e+02   8.157050e+01
  -7.070337e+01  -4.499488e+01
   1.042159e+01  -9.901660e+01
   8.207075e+01  -9.506371e+01
   2.170477e+02   5.912689e+01
   9.210603e+01   2.145296e+02
  -1.308670e+02   1.992637e+02
  -2.412806e+02   1.407689e+02
  -2.767455e+02  -8.679341e+01
  -8.256263e+01  -1.380951e+02
   6.746910e+01  -9.288597e+01
   8.637173e+01  -1.211099e+02
   5.686605e+01  -4.574830e+01
   6.272819e+01  -7.330724e+01
   8.527970e+01  -7.647333e+01
   1.163560e+02   1.591577e+01
   1.107706e+02   1.149828e+02
   2.104802e+01   2.067309e+02
  -8.108292e+01   1.783429e+02
  -1.658997e+02   4.961097e+01
  -9.911306e+01  -1.143357e+02
  -2.786887e+00  -1.361779e+02
   7.647731e+01  -6.987061e+01
   6.502066e+01   3.302622e+00
   6.700819e+00   6.752109e+01
  -2.082791e+01   5.320677e+01
   5.688865e+01   9.889983e+00
   9.747974e+01   2.650691e+00
   6.607608e+01   4.992688e+01
  -6.418043e+01   6.717278e+01
  -1.272991e+02   1.446883e+01
  -1.561719e+02  -8.546620e+01
   7.646630e+00  -6.017461e+01
   1.051765e+02  -3.775468e+01
   1.615298e+02  -2.078651e+01
   8.274227e+01   5.308533e+01
  -8.682189e+01   4.766381e+01
  -1.161216e+02  -2.266827e+01
  -3.213744e+01  -5.656342e+01
   5.540553e+01  -6.605871e+01
   8.529842e+01   2.013815e+01
   5.602217e+01   4.415816e+01
   4.849535e+01   6.060087e+01
   5.107704e+01  -1.126562e+01
   8.262878e+01  -2.339026e+01
   5.738174e+01   3.724140e+01
   3.061455e+00   1.332329e+02
  -1.137863e+02   1.101908e+02
  -1.611791e+02   2.112459e+01
  -1.288792e+02  -8.523911e+01
   1.688608e+01  -1.745155e+02
   9.214854e+01  -7.811314e+01
   7.108083e+01   3.103804e+01
  -5.061406e+01   1.106943e+01
  -1.392599e+02  -4.177750e+01
  -5.295708e+01  -1.075987e+02
   8.562719e+01  -1.361608e+02
   1.468886e+02  -5.355105e+01
   1.450362e+02  -1.196178e+01
   5.267357e+01   7.929447e+01
  -5.212081e+01   5.671079e+01
  -6.294157e+01   9.188142e+00
   2.665977e+01  -3.165363e+01
   1.216321e+02   1.213145e+01
   4.683749e+01   1.550089e+02
  -1.005766e+02   1.494458e+02
  -1.477483e+02   1.069626e+02
  -8.462800e+01  -1.012443e+02
  -1.377652e+01  -1.831569e+02
   1.468261e+02  -1.379251e+02
   1.170453e+02  -1.542033e+01
   5.678748e+01   1.308024e+02
  -2.944557e+01   1.138150e+02
  -5.861236e+01   9.206203e+00
  -4.029010e+01   1.391315e+01
  -4.668412e+01  -1.929278e+01
  -7.892321e+00   1.202665e+01
  -3.887793e+01  -3.465243e+01
  -6.225605e+01  -1.116609e+02
  -4.197654e+01  -8.835780e+01
   2.617105e+01  -4.908491e+01
   1.530655e+02   5.749490e+01
   1.052329e+02   4.680847e+01
  -1.820996e+01   6.608290e+01
  -7.771303e+01   8.566758e+00
  -6.657304e+01  -2.498853e+01
  -3.193334e+01  -8.897402e+00
   6.606883e+01  -2.623486e+01
   1.945199e+01  -1.733625e+01
  -1.251317e+01   1.425115e+01
   4.081738e+01   3.269262e+01
   6.029765e+01  -3.089802e+01
   7.991985e+01   2.222367e+01
   2.831484e+01   8.591024e+01
  -9.839146e+01   1.464878e+02
  -2.044780e+02   5.539886e+01
  -1.631051e+02  -4.146967e+01
  -2.906141e+01  -1.317210e+02
   1.063019e+02  -1.526403e+02
   1.465752e+02  -1.673070e+01
   8.957984e+01   3.359383e+00
   1.431175e+01   1.018126e+01
   2.571482e+01   2.332032e+01
   2.792529e+01  -8.668599e+00
   3.205793e+01   3.176931e+01
   3.649271e+01   8.650532e+01
  -2.912344e+01   8.323301e+01
  -6.806251e+01  -3.380064e+01
  -9.700512e+01  -8.247461e+01
  -3.301418e+01  -1.213222e+02
   9.181193e+01  -3.639843e+01
   1.089162e+02   8.432052e+01
   2.836960e+01   9.912709e+01
  -3.299599e+01   4.587590e+01
  -1.034764e+02   4.041874e+00
  -5.748941e+01  -4.071481e+01
   6.174333e+01  -5.673335e+01
  -5.947343e+00  -4.112494e+01
  -2.727027e+01   2.861268e+01
  -6.490630e+01   1.335797e+01
  -2.733678e+01  -2.187698e+01
   8.395323e+01  -8.661062e+01
   1.394996e+02  -7.554212e+01
   7.665177e+01  -9.736268e+00
  -1.267030e+01   4.258548e+01
  -3.115909e+01   8.961694e+01
  -4.424316e+01  -9.878185e+00
   1.588697e+01  -2.723386e+01
   1.343539e+01  -3.050921e+01
   8.286271e+00   3.432057e+01
   3.254599e+01   3.245882e+01
   2.873766e+01   3.504192e+01
  -1.867134e-01  -3.691571e+01
  -4.336405e+01  -1.625045e+01
  -1.128077e+01   2.246593e+01
   1.231504e+01   2.319719e+01
   3.158107e+01   1.235935e+01
  -2.671029e+01  -1.559932e+01
   4.249370e+00  -2.658878e+01
   7.429351e+01  -3.567942e+01
   4.255916e+01   5.422023e+01
   3.873119e-01   3.224236e+01
  -4.982600e+01   3.288011e+01
  -5.033527e+01  -1.689899e+01
  -2.062764e+01  -8.686586e+01
   3.467494e+01  -2.277020e+01
   1.087174e+02   1.283599e+01
   5.372161e+01   2.258555e+01
  -4.068907e+01   3.216550e+01
  -1.068058e+02   3.841865e+01
  -1.115289e+01  -9.825588e-01
   2.478609e+01   1.230727e+01
   3.447955e+01  -3.251180e+00
  -4.603345e+01   3.292651e+01
  -7.940375e+01   2.568022e+01
