
 $NMID
 id='ANONYMOUS ', fmtdat='(2E16.6)'
 volume=1.0
 tramp=1.0
 $END
  -3.430692e+03  -6.106818e+01
  -2.130525e+03  -2.040339e+03
   3.414496e+02  -2.225585e+03
   1.724263e+03  -1.063889e+03
   1.150863e+03   9.756436e+01
  -3.472299e+02   5.207695e+02
  -6.064630e+02  -3.508317e+02
  -1.714524e+02  -7.891971e+02
   6.421793e+02  -7.028624e+02
   8.472159e+02  -2.058811e+01
   4.338458e+02   5.244063e+02
   3.100089e+01   7.738920e+02
  -5.185422e+02   1.638306e+02
  -3.455647e+02  -5.385701e+02
   1.808432e+02  -7.041325e+02
   4.745215e+02  -2.170557e+01
   1.988510e+02   5.302890e+02
  -2.395291e+02   7.040733e+02
  -5.870633e+02   2.564981e+02
  -4.506611e+02  -2.340565e+02
  -1.021985e+02  -4.294682e+02
   1.554244e+02  -2.320016e+02
   1.279159e+02  -2.799986e+00
  -6.293973e+01  -6.792795e+01
  -3.257691e+02  -2.148830e+02
  -1.315106e+02  -3.205355e+02
   4.321439e+02  -3.371794e+02
   7.070696e+02   1.236689e+02
   2.975767e+02   4.490764e+02
  -3.365782e+02   2.708452e+02
  -5.519854e+02  -6.561890e+01
  -2.775770e+02  -3.480965e+02
   2.388091e+02  -4.064299e+02
   4.757657e+02  -2.121674e+02
   3.706155e+02   1.673356e+02
   1.101985e+02   3.309537e+02
  -1.170218e+02   2.212600e+02
  -1.128713e+02  -1.044519e+02
   2.008425e+02  -1.860532e+02
   3.581982e+02  -3.403293e+00
   2.458268e+02   5.723094e+02
  -2.761775e+02   5.317666e+02
  -3.695131e+02   5.436320e+01
  -1.023984e+02  -3.749032e+02
   1.538774e+02  -2.898998e+02
   2.843576e+02   2.802433e+02
  -5.995339e+01   3.861299e+02
  -5.152064e+02   9.729407e+01
  -4.729167e+02  -4.025216e+02
  -1.197871e+02  -5.079197e+02
   3.716683e+02  -2.782825e+02
   5.495961e+02   4.143826e+01
   4.374436e+02   2.983692e+02
  -1.104700e+02   2.611424e+02
  -3.999166e+02   7.610440e+01
  -2.952375e+02  -8.653587e+01
   3.960457e+01  -5.377902e+01
   9.182754e+01   7.214315e+01
  -1.560337e+02   9.510446e+01
  -2.872081e+02   6.223812e+00
  -1.501751e+02  -2.726528e+02
   1.877746e+02  -2.516159e+02
   3.159424e+02  -7.908678e+01
   2.404799e+02   1.206274e+02
  -1.657659e+01   3.037277e+02
  -2.680474e+02   3.558326e+02
  -3.616993e+02   1.896039e+02
  -2.408391e+02  -1.347751e+02
  -2.492278e+00  -4.007217e+02
   7.766372e+01  -3.570872e+02
   6.129069e+01  -1.603940e+02
  -3.901755e+01  -4.444851e+01
   9.994116e+01  -1.091335e+02
   2.202399e+02  -9.215147e+01
   2.367129e+02   9.824907e+01
   8.574554e+01   2.591024e+02
  -7.937379e+01   1.858667e+02
  -1.890168e+02   2.450300e+01
  -1.521007e+02  -2.640718e+02
   2.486577e+01  -2.997894e+02
   2.566649e+02  -9.549757e+01
   2.616419e+02   1.270833e+02
   1.655963e+02   3.110080e+02
  -7.153491e+01   3.093402e+02
  -1.493720e+02   9.843256e+01
  -1.558921e+02   6.740510e+01
  -1.426896e+02   3.223465e+01
  -2.591681e+02   1.532128e+00
  -3.700403e+02  -6.264284e+01
  -3.221184e+02  -3.081004e+02
  -1.194009e+01  -4.093758e+02
   3.875830e+02  -3.894766e+02
   4.809598e+02  -1.743590e+02
   2.738524e+02   1.307938e+02
   5.666235e+01   2.747703e+02
  -6.705050e+01   2.424964e+02
  -3.566670e+01   4.865347e+01
   9.021524e+01  -6.990253e+01
   1.572766e+02   1.558234e+01
   6.596111e+01   1.669987e+02
  -1.174842e+02   1.134408e+02
  -9.701640e+01  -4.101457e+01
  -4.131797e+01  -1.465251e+02
   1.335914e+02   4.096643e+00
   1.197722e+02   2.286329e+02
  -4.908850e+01   3.692958e+02
  -2.611712e+02   1.775506e+02
  -3.282366e+02  -8.639830e+01
  -2.990493e+02  -2.544466e+02
  -7.127039e+01  -2.526217e+02
   1.576671e+02  -1.505863e+02
   1.578631e+02  -1.124100e+01
   2.017039e+01   9.856524e+00
  -6.449815e+00  -8.676042e+01
  -1.631440e+01  -9.667695e+01
   1.098003e+02  -1.264887e+02
   1.634183e+02   1.944382e+01
   6.093075e+01   4.837870e+01
  -8.910971e+01  -1.492731e+01
  -3.948862e+01  -9.928361e+01
   1.370196e+02  -9.315784e+01
   2.970577e+02  -5.916826e+00
   2.697751e+02   1.058496e+02
   6.490394e+01   2.588321e+02
  -2.190576e+02   2.540268e+02
  -2.683417e+02   1.082321e+02
  -1.897284e+02  -1.258889e+01
   6.688284e+01  -7.800474e+01
   7.987058e+01   1.376658e+01
  -1.721152e+01   9.154183e+01
  -1.826046e+02   3.837178e+01
  -2.242818e+02  -1.105717e+02
  -6.251320e+01  -1.874239e+02
   9.457559e+01  -1.714314e+02
   1.320374e+02  -4.461764e+01
   2.112977e+01   5.817743e+01
  -8.935518e+01  -2.523871e-01
  -2.730542e+01  -9.544840e+01
   6.438133e+01  -1.342764e+02
   2.127931e+02  -4.022502e+00
   1.645115e+02   1.075603e+02
   3.821161e+01   2.193878e+02
  -1.107730e+02   1.695808e+02
  -2.266378e+02   1.603310e+01
  -8.174070e+01  -1.059785e+02
   5.657671e+01  -6.425370e+01
   8.009947e+01  -2.496303e+01
  -2.194255e+01   3.397210e+01
  -5.341399e+01   6.134645e+00
  -2.678461e+01  -1.163114e+01
   8.493895e+01  -8.590539e+00
   8.209253e+01   6.454470e+01
   1.790907e+01   1.749988e+02
  -1.559794e+02   1.388696e+02
  -2.065581e+02  -1.165500e+01
  -1.940367e+02  -1.289440e+02
   3.117893e+00  -2.335641e+02
   8.762699e+01  -1.375071e+02
   1.403149e+02   3.133262e+01
   6.010866e+01   1.561166e+01
   5.228440e+01   4.485831e+01
   3.436125e+01   1.637585e+01
   8.916801e+01  -1.931458e+01
   3.694410e+01   3.712314e+01
  -3.645776e+01   9.429929e+01
  -1.244179e+02   4.531770e+01
  -8.643489e+01  -6.471997e+01
   5.703377e+01  -1.308262e+02
   2.025768e+02  -9.079127e+01
   1.726069e+02   5.418712e+01
   6.683530e+01   1.703953e+02
  -1.054151e+02   1.687300e+02
  -2.733731e+02   9.359235e+01
  -2.500559e+02  -1.245460e+02
  -9.046282e+01  -1.503016e+02
   4.018015e+01  -1.622335e+02
   1.013754e+02  -4.808889e+01
   7.984926e+01  -7.108488e+01
   4.211223e+01  -1.177724e+02
   8.422431e+01  -8.857841e+01
   1.380518e+02   3.579912e+01
   1.125997e+02   1.435502e+02
   6.025987e+00   2.359492e+02
  -8.946974e+01   1.998609e+02
  -1.498819e+02   2.498163e+00
  -1.025102e+02  -1.114968e+02
  -9.116832e+00  -1.437049e+02
   6.786868e+01  -7.888470e+01
   8.196210e+01   3.731312e+00
  -1.323307e+01   4.791353e+01
  -1.950521e+01   4.691452e+01
  -2.136798e-01   2.121843e+01
   1.134485e+02   5.871678e+00
   6.079908e+01   6.003204e+00
  -5.328563e+01   1.721620e+01
  -1.789192e+02  -3.178656e+01
  -1.431904e+02  -3.122735e+01
  -1.383212e+00  -1.150206e+02
   1.038853e+02  -8.983768e+01
   1.575358e+02  -1.370051e+01
   6.028864e+01   8.466124e+00
  -4.735353e+01   5.644652e+01
  -8.627190e+01  -2.880118e+01
  -5.126204e+00  -5.016504e+01
   7.598399e+01  -9.306007e+01
   3.993551e+01  -2.664316e+00
   7.166807e+01   3.777840e+01
   5.690576e+01   7.355800e+01
   5.139966e+01  -8.433247e+00
   1.071986e+02   2.800239e+00
   9.337690e-01   8.486805e+01
  -6.125372e+01   1.267421e+02
  -1.252114e+02   1.117339e+02
  -1.675409e+02   1.187433e+01
  -1.908398e+02  -1.230351e+02
   5.002026e+00  -1.204919e+02
   1.156170e+02  -7.270765e+01
   5.952229e+01   3.657886e+01
  -3.117655e+01  -1.109582e+01
  -1.461832e+02  -5.476000e+01
  -9.615488e+01  -1.213366e+02
   7.973979e+01  -9.101784e+01
   1.953363e+02  -3.002063e+01
   1.648610e+02   1.220109e+01
   3.075002e+01   6.035956e+01
  -6.108691e+01   7.622171e+01
  -2.862774e+01   5.901752e+00
  -1.073840e+01  -5.606485e+01
   1.301276e+02  -2.059299e+00
   4.600161e+01   1.104218e+02
  -7.641940e+01   1.435754e+02
  -1.691974e+02   5.316181e+01
  -8.565530e+01  -4.797833e+01
  -2.651419e+01  -1.832834e+02
   9.160425e+01  -1.368902e+02
   1.323119e+02   3.389977e+01
   1.311251e+01   1.184766e+02
  -2.237662e+01   1.104644e+02
  -6.112325e+01   1.197175e+01
  -7.021420e+01  -2.959398e+01
  -1.205250e+00  -1.056458e+01
  -2.700972e+01   2.896112e+01
  -3.456648e+01  -6.392268e+00
  -4.877174e+01  -7.053917e+01
  -2.709621e+01  -6.943266e+01
   3.957881e+01  -4.599531e+01
   1.238482e+02  -1.689208e+01
   1.085390e+02   9.696742e+01
   3.655558e+01   5.902636e+01
  -6.397533e+01   2.549274e+01
  -7.788884e+01   2.879251e+01
  -1.123675e+01   5.295175e+00
   3.868362e+01  -9.450184e-02
  -6.011176e+00  -4.311752e+01
  -5.022621e+01  -5.983290e+00
  -2.212574e+01   3.510424e+01
   4.032087e+01  -1.805049e+01
   1.026537e+02   1.383858e+00
   1.396547e+01   7.266561e+01
  -8.309606e+01   1.242937e+02
  -1.700413e+02   7.304892e+01
  -1.760062e+02  -1.085840e+02
  -4.666629e+01  -1.562641e+02
   1.026791e+02  -1.495030e+02
   9.646877e+01  -7.647712e+01
   9.158854e+01   3.421935e+01
   4.545085e+01   6.828644e+01
  -1.596330e+01   1.197318e+01
   6.168811e+01  -3.453845e+01
   1.795135e+01   2.290776e+01
   3.274087e+01   5.899042e+01
  -5.576855e+00   8.024279e+01
  -5.577845e+01  -2.977745e+01
  -5.081592e+01  -5.779236e+01
   8.717009e+00  -9.828048e+01
   5.334061e+01  -3.455789e+01
   1.171341e+02   7.278513e+01
   5.019115e+01   8.817058e+01
  -1.109620e+02   5.580057e+01
  -1.120732e+02  -1.827282e+01
  -9.486507e+01  -3.628714e+01
   4.266472e+01  -4.060194e+01
   3.935344e+01  -3.455827e+01
   2.444373e+00  -4.889224e+01
  -6.357736e+01   9.860165e+00
  -3.533775e+00  -1.389869e+01
   9.709530e+01  -6.983755e+01
   1.143943e+02  -2.277924e+01
   3.875756e+01   2.971709e+01
   1.627059e+01   9.755542e+01
  -1.253227e+01   8.171345e+01
  -3.282900e+01  -8.059656e+00
   2.203630e+00  -4.649227e+01
   4.138354e+01  -6.286198e+01
   4.609379e+00   4.470099e+01
   2.088383e+01   2.968364e+01
   2.097761e+00   2.037062e+01
  -9.578405e+01  -2.137649e+01
  -7.518617e+01  -3.586003e+01
  -2.921380e+01   8.562936e+00
   3.012253e+01   4.028534e+01
   2.726165e+01   2.614610e+01
   1.655216e+01  -1.648384e+01
   5.401113e-01  -3.564862e+01
   6.762666e+01  -4.986958e+00
   5.450631e+01   1.600028e+01
  -1.716361e+01   7.486081e+01
  -2.014776e+01   6.734136e+00
  -2.473478e+01  -1.599187e+01
   1.222126e+01  -6.026292e+01
   2.248789e+01  -1.850503e+01
   7.430450e+01   1.669606e+01
   5.381993e+01   8.362863e+00
   9.413255e+00   3.338654e+01
  -1.061947e+02   2.617351e+01
  -2.649848e+01  -6.855449e+00
   5.839753e+01   7.797562e+00
   2.505813e+01   2.353097e+01
   7.445166e-01   4.409768e+01
  -8.129533e+01   2.268262e+00
