
 $NMID
 id='ANONYMOUS ', fmtdat='(2E16.6)'
 volume=1.0
 tramp=1.0
 $END
  -3.504477e+03  -2.723760e+01
  -1.891321e+03  -1.515912e+03
  -1.956666e+02  -1.790538e+03
   1.145154e+03  -1.169709e+03
   8.135622e+02  -1.344781e+02
   9.865763e+01   2.354259e+02
  -3.743925e+02  -1.562778e+02
   1.816815e+01  -5.266829e+02
   4.662714e+02  -5.306069e+02
   6.343628e+02  -4.024156e+01
   4.486307e+02   5.399078e+02
   5.099169e+01   7.028714e+02
  -2.606078e+02   1.274198e+02
  -2.599361e+02  -4.640780e+02
   9.983568e+01  -5.305719e+02
   4.058149e+02  -8.911436e+01
   2.703725e+02   5.642784e+02
  -1.454355e+02   5.660023e+02
  -4.530642e+02   2.279707e+02
  -4.603052e+02  -1.426265e+02
  -1.226776e+02  -3.472121e+02
   1.243017e+02  -2.445856e+02
   1.158475e+02  -4.227781e+01
  -1.843667e+02  -4.641549e+01
  -2.744938e+02  -4.064947e+02
   3.303029e+01  -4.283987e+02
   5.410790e+02  -1.478370e+02
   6.865029e+02   2.194853e+02
   2.018591e+02   3.101588e+02
  -3.155021e+02   1.693381e+02
  -5.067675e+02  -8.662937e+01
  -1.803631e+02  -3.852536e+02
   2.494913e+02  -3.077070e+02
   4.619751e+02  -1.277138e+02
   3.738025e+02   1.465035e+02
   6.748425e+01   3.540030e+02
  -3.748377e+01   1.875179e+02
   2.554833e+01  -7.873790e+01
   1.996304e+02  -1.509162e+02
   2.794779e+02   1.756528e+02
  -2.153492e+01   5.597577e+02
  -2.552854e+02   4.609820e+02
  -3.533773e+02  -3.129084e+01
  -1.523425e+02  -3.138985e+02
   1.493510e+02  -1.233577e+02
   1.924430e+02   2.534256e+02
  -1.028363e+02   3.902173e+02
  -4.646238e+02   7.196632e+01
  -4.647797e+02  -3.136904e+02
  -1.618359e+02  -5.058288e+02
   3.118771e+02  -1.980714e+02
   4.659745e+02   8.970390e+01
   3.090030e+02   2.483938e+02
  -8.037739e+01   2.751917e+02
  -3.196745e+02   5.134713e+01
  -2.059670e+02  -6.728569e+01
  -4.603999e+01  -2.580521e+01
   5.374539e+01   5.244940e+01
  -7.699727e+01   7.891128e+00
  -2.260714e+02  -7.134314e+01
  -1.050867e+02  -1.780711e+02
   1.843789e+02  -2.395983e+02
   3.514642e+02  -1.591670e+02
   2.639120e+02   7.733397e+01
  -4.445135e+00   3.060129e+02
  -2.620216e+02   3.880565e+02
  -3.583926e+02   1.492861e+02
  -2.170079e+02  -1.303428e+02
  -4.666123e+01  -3.112904e+02
   7.682046e+01  -2.783101e+02
  -2.749583e+01  -1.448929e+02
   4.718252e+01  -1.467725e+02
   1.124550e+02  -1.132352e+02
   2.156500e+02  -2.694328e+01
   2.540587e+02   1.165388e+02
   7.313317e+01   2.817008e+02
  -8.869006e+01   1.851753e+02
  -2.113203e+02  -6.066391e+01
  -1.059147e+02  -2.391002e+02
   4.949746e+01  -2.527436e+02
   2.583666e+02  -5.785869e+01
   3.195964e+02   1.963285e+02
   1.436465e+02   2.797894e+02
  -5.841584e+01   2.920249e+02
  -1.795618e+02   1.758029e+02
  -1.440757e+02   8.799471e+01
  -1.705468e+02   1.257106e+02
  -2.680090e+02   1.367084e+01
  -4.148192e+02  -9.929026e+01
  -3.229932e+02  -2.999904e+02
   2.526701e+01  -4.330459e+02
   4.438973e+02  -3.758472e+02
   5.048052e+02  -1.949114e+02
   2.843814e+02   1.190002e+02
  -2.729501e+01   2.286240e+02
  -9.832276e+01   1.376279e+02
  -1.307636e+01   1.708091e+01
   1.403564e+02  -3.450325e+01
   1.520041e+02   8.292415e+01
  -1.903047e+01   1.351916e+02
  -1.475110e+02   1.080838e+02
  -1.235102e+02   1.975498e+00
   2.641753e+01  -1.641464e+02
   1.791714e+02  -9.850223e-01
   1.250447e+02   2.064837e+02
  -5.082149e+01   3.280898e+02
  -2.619432e+02   2.133555e+02
  -3.285721e+02  -6.306888e+01
  -2.962143e+02  -2.771033e+02
  -6.229363e+01  -2.867658e+02
   1.025261e+02  -1.355601e+02
   1.523803e+02   4.997459e+00
   1.788676e+00   2.783354e+01
  -5.089171e+01  -7.942171e+01
  -1.990585e+01  -1.247203e+02
   1.485289e+02  -7.663746e+01
   1.257933e+02   1.574696e+01
  -2.484390e+01   6.798702e+01
  -1.001084e+02  -2.485288e+01
  -4.089257e+01  -9.396640e+01
   1.607091e+02  -8.521125e+01
   2.814685e+02   4.611918e+00
   2.576201e+02   1.836832e+02
  -2.470063e+00   2.460149e+02
  -2.393150e+02   2.310443e+02
  -2.729463e+02   9.681437e+01
  -1.413122e+02  -6.827947e+01
   4.647867e+01  -9.055787e+01
   4.392456e+01   1.810905e+01
  -6.035255e+01   7.825548e+01
  -1.920658e+02   5.154673e+01
  -2.067009e+02  -1.375024e+02
  -3.863483e+01  -1.741486e+02
   9.558912e+01  -1.247941e+02
   9.546337e+01   1.269348e+01
   1.545680e+01   2.076396e+01
  -5.809113e+01  -3.447292e+01
  -4.389114e+00  -8.259975e+01
   9.966854e+01  -1.106922e+02
   2.535676e+02  -9.158213e+00
   2.013762e+02   1.066062e+02
  -1.723840e+01   2.080953e+02
  -1.573968e+02   1.969779e+02
  -1.929616e+02   2.342770e+01
  -2.633841e+01  -1.106351e+02
   8.857920e+01  -7.623025e+01
   8.224457e+01  -1.401118e+01
  -3.351986e-01   5.313958e+01
  -2.935499e+01   3.262120e+01
   6.413231e+00  -9.672185e+00
   9.066423e+01   2.035923e+01
   1.228683e+02   1.272912e+02
   2.458456e+00   1.857946e+02
  -1.500560e+02   1.602511e+02
  -2.550199e+02   1.276491e+01
  -1.975264e+02  -1.551632e+02
  -2.623905e+01  -2.137354e+02
   1.267252e+02  -1.834735e+02
   1.051305e+02  -1.653283e+01
   7.528275e+01   3.021750e+01
   2.372560e+01   6.345962e+01
   8.626889e+01  -8.864374e+00
   4.720792e+01  -4.222627e+00
   7.462541e+01   1.125182e+01
  -3.087693e+01   7.989908e+01
  -1.627170e+02   3.281914e+01
  -1.038932e+02  -3.808874e+01
   7.007535e+01  -1.188182e+02
   1.589550e+02  -1.178235e+02
   1.954763e+02   6.375396e+01
   9.759828e+01   1.962718e+02
  -1.239208e+02   2.472026e+02
  -2.858094e+02   6.788143e+01
  -2.391010e+02  -1.446320e+02
  -1.418481e+02  -1.954336e+02
   3.295980e+01  -1.158054e+02
   8.216848e+01  -7.348986e+01
   2.529369e+01  -7.148332e+01
   4.163300e+01  -1.159380e+02
   7.185598e+01  -9.233995e+01
   1.495034e+02   8.717312e+00
   1.115138e+02   2.039256e+02
   8.930283e+00   2.409522e+02
  -9.254458e+01   1.720449e+02
  -1.430969e+02  -5.125828e+00
  -1.065898e+02  -1.577837e+02
  -4.448008e+00  -1.381399e+02
   9.325018e+01  -5.278358e+01
   6.572989e+01   3.767751e+01
   2.685999e+01   4.736838e+01
  -5.776995e+01  -9.165642e+00
   6.583457e+01   1.889975e+00
   1.173531e+02   7.341055e+00
   7.868959e+01   1.501733e+01
  -5.808179e+01   5.304033e+01
  -2.053270e+02  -1.239817e+01
  -1.290134e+02  -7.187829e+01
   1.087105e+01  -9.461069e+01
   9.128248e+01  -8.116030e+01
   1.633061e+02   1.103839e+01
   7.758183e+01   4.689726e+01
  -3.619230e+01   6.862123e+01
  -1.394648e+02  -7.972366e+00
  -3.602179e+01  -8.466058e+01
   5.218088e+01  -5.740449e+01
   6.967785e+01   7.960053e+00
   5.845530e+01   2.307002e+01
   4.019551e+01   4.880043e+01
   3.126816e+01  -3.040309e+00
   6.924449e+01  -6.912188e+00
   2.285087e+00   5.678360e+01
  -7.558024e+01   1.523821e+02
  -1.088363e+02   1.495571e+02
  -1.677405e+02   1.294694e+01
  -1.477197e+02  -8.823137e+01
  -6.471973e+01  -1.373062e+02
   1.053436e+02  -7.916662e+01
   7.226289e+01   3.780213e+01
  -5.723203e+01  -1.289364e+01
  -1.852814e+02  -4.976258e+01
  -8.337635e+01  -1.025613e+02
   9.229208e+01  -1.252464e+02
   1.717304e+02  -4.558607e+01
   2.115964e+02   5.803466e+01
   4.288594e+01   6.078340e+01
  -4.543072e+01   3.058957e+01
  -6.426992e+01   2.842885e+00
   1.596250e+01  -8.420597e+01
   1.428280e+02  -8.237367e+00
   6.708681e+01   1.319630e+02
  -1.065674e+02   1.518197e+02
  -1.325214e+02   8.703271e+01
  -1.460713e+02  -5.474196e+01
  -4.201113e+01  -2.001773e+02
   1.073768e+02  -1.580164e+02
   1.121886e+02  -8.771657e+00
   3.724483e+00   1.331760e+02
  -2.647090e+01   9.372652e+01
  -4.634295e+01   1.001336e+01
  -4.325133e+01   1.534022e+01
  -1.871192e+01   6.002852e+00
   8.312793e+00  -9.463323e-01
  -3.930416e+01  -4.497772e+01
  -5.143520e+01  -1.179322e+02
  -1.993267e+01  -1.241748e+02
   2.961152e+01  -5.641075e+01
   1.081428e+02  -3.629337e+00
   1.466820e+02   5.323147e+01
   2.127530e+01   1.452977e+01
  -1.032129e+02   1.704917e+01
  -6.211717e+01   2.182685e+01
  -1.782183e+01  -5.182789e+00
   4.694212e+01   1.654151e+01
   3.842141e+01  -2.824310e+01
  -5.081934e-01   3.918876e+01
  -7.171857e-01  -7.973915e-01
   6.089511e+01  -2.886167e+01
   8.556830e+01   4.376367e+01
   2.319716e+01   1.032367e+02
  -1.080429e+02   1.307301e+02
  -1.881626e+02   4.579638e+01
  -1.293474e+02  -7.039022e+01
  -7.559138e+00  -1.577432e+02
   6.529287e+01  -1.498040e+02
   9.168267e+01  -6.881225e+01
   7.286063e+01   2.426447e+01
   2.843887e+01   3.582290e+01
  -2.768003e+00   3.366568e+01
   1.540528e+01  -3.279373e+01
   4.722007e+01   2.757300e+00
   3.977662e+01   9.087944e+01
   4.880760e+00   7.731937e+01
  -1.208247e+02  -2.564725e+01
  -7.952884e+01  -8.381392e+01
  -3.670837e+01  -1.217243e+02
   6.142746e+01  -3.704751e+01
   1.280235e+02   6.356422e+01
   2.052037e+01   1.014053e+02
  -4.658099e+01   7.309007e+01
  -9.036649e+01  -2.659451e+01
  -7.802653e+01  -8.729902e+01
   5.508974e+01  -5.693381e+01
   4.385670e+01  -4.238005e+01
  -8.535622e-01  -2.482014e-01
  -6.495360e+01  -1.508893e+00
  -2.615058e+01  -2.288311e+00
   4.955252e+01  -7.977995e+01
   1.102154e+02  -4.103380e+01
   6.672373e+01   4.538836e+01
  -9.758830e+00   8.145201e+01
  -6.373238e+01   6.898098e+01
  -4.017059e+01  -1.301868e+01
  -5.322459e+00  -6.461300e+01
   4.024473e+01  -4.962660e+01
   4.620485e+01   4.034463e+00
   5.719523e+01   4.868827e+01
  -1.630874e+01   5.931134e+01
  -5.136002e+01  -6.011000e+00
  -4.033496e+01  -4.329647e+01
  -1.816187e+00  -1.728484e+01
  -4.918421e+01  -8.496698e+00
   1.905119e+01  -7.513803e+00
   4.548666e+01  -3.001794e+01
  -1.912748e+01  -6.184255e+01
   3.458701e+00  -6.283590e+01
   6.323125e+01   2.973846e+01
   2.102635e+01   7.976190e+01
  -1.562198e+01  -7.731352e+00
  -1.002906e+02   9.478242e+00
   1.454011e+01  -4.635899e+01
   7.877592e+01  -5.812646e+01
   1.109837e+02  -2.949730e-01
   6.375144e+01   9.557202e+00
  -4.438706e+01   2.111818e+01
  -5.101816e+01   4.604086e+01
  -1.440232e+01  -1.211696e+01
  -8.741232e-01   2.901062e+01
   7.532217e+01   8.827340e+00
  -4.454776e+00  -1.582139e+01
  -6.559040e+01  -2.896913e+00
