
 $NMID
 id='ANONYMOUS ', fmtdat='(2E16.6)'
 volume=1.0
 tramp=1.0
 $END
  -3.666160e+03  -1.197823e+01
  -2.109974e+03  -1.934878e+03
   2.664924e+02  -2.147987e+03
   1.432880e+03  -8.604895e+02
   9.765684e+02   2.772443e+02
  -3.851940e+02   4.280340e+02
  -4.161554e+02  -2.187197e+02
   6.691445e+01  -7.193975e+02
   6.937001e+02  -5.519035e+02
   7.382849e+02   6.407379e+01
   3.787152e+02   6.822320e+02
  -2.083365e+02   6.305532e+02
  -4.748356e+02   2.384029e+02
  -2.655343e+02  -5.602060e+02
   1.941462e+02  -5.192013e+02
   5.237513e+02  -4.007624e+01
   2.181654e+02   6.013244e+02
  -1.980507e+02   5.356543e+02
  -4.130374e+02   2.112454e+02
  -4.129313e+02  -2.311773e+02
  -9.806914e+01  -3.924082e+02
   1.730001e+02  -2.343911e+02
   1.775292e+02  -3.216126e+01
  -1.966539e+02  -5.180392e+01
  -2.805821e+02  -2.128388e+02
  -3.756596e+01  -4.192469e+02
   4.357557e+02  -2.137299e+02
   6.683947e+02   1.856204e+02
   3.511973e+02   4.255500e+02
  -3.613224e+02   2.940888e+02
  -6.193381e+02  -1.196801e+02
  -2.347794e+02  -4.709750e+02
   2.721761e+02  -3.523620e+02
   5.031664e+02  -1.544886e+02
   3.825114e+02   1.933492e+02
   4.422262e+01   3.679691e+02
  -9.756842e+01   2.222089e+02
  -4.244023e+01  -1.567927e+02
   2.413244e+02  -3.644927e+02
   2.931861e+02   1.049736e+02
  -1.975035e+00   5.205358e+02
  -2.856027e+02   6.273425e+02
  -4.751480e+02  -3.079442e+01
  -1.302540e+02  -3.854359e+02
   1.911485e+02  -1.943668e+02
   2.127493e+02   3.335938e+02
  -1.978874e+02   3.731104e+02
  -4.814635e+02   1.266927e+02
  -4.902752e+02  -4.201679e+02
  -1.681186e+02  -5.071471e+02
   3.266330e+02  -2.650138e+02
   5.514945e+02   8.565707e+01
   3.757602e+02   2.946124e+02
  -4.735778e+01   2.717275e+02
  -2.772356e+02   6.083551e+01
  -2.082434e+02  -9.009148e+01
   4.583659e+01  -1.501070e+01
   6.660682e+01   1.355580e+02
  -1.423417e+02   1.369011e+02
  -2.726802e+02  -5.483750e+01
  -1.002712e+02  -2.404919e+02
   1.705850e+02  -2.313560e+02
   3.070869e+02  -1.090579e+02
   1.782687e+02   1.378552e+02
   1.819434e+01   2.959791e+02
  -2.430209e+02   3.678942e+02
  -3.350995e+02   1.655143e+02
  -2.320295e+02  -1.127269e+02
  -6.714050e+01  -3.431019e+02
   6.261267e+01  -3.590491e+02
   1.267066e+02  -1.234121e+02
  -1.776068e+00  -4.952628e+01
   1.022219e+02  -7.230205e+01
   1.905284e+02  -1.284175e+02
   2.428992e+02   2.036516e+01
   9.681253e+01   2.351738e+02
  -9.791258e+01   2.131195e+02
  -2.028611e+02  -1.430410e+01
  -1.728646e+02  -2.458642e+02
   7.057198e+01  -2.949753e+02
   2.578327e+02  -4.919790e+01
   2.936475e+02   1.610542e+02
   2.124588e+02   3.151679e+02
  -1.056480e+02   2.631662e+02
  -2.103260e+02   1.292756e+02
  -1.288375e+02   6.602932e+01
  -1.105586e+02   7.600057e+01
  -2.651997e+02   6.360280e+01
  -4.168376e+02  -7.214087e+01
  -2.885075e+02  -3.182048e+02
   4.686147e+01  -4.427668e+02
   3.697416e+02  -3.445007e+02
   4.529282e+02  -1.684778e+02
   2.575440e+02   8.027312e+01
  -3.711472e+00   2.788482e+02
  -1.514116e+02   2.005301e+02
   5.217482e+00   1.836213e+01
   1.183431e+02  -3.627267e+01
   1.327496e+02   3.306463e+01
  -1.101302e+01   1.477537e+02
  -1.497485e+02   1.111791e+02
  -8.567167e+01  -4.188877e+01
   3.769588e+01  -1.883887e+02
   1.654554e+02  -5.703873e+01
   1.423175e+02   2.225856e+02
  -5.212145e+01   3.263715e+02
  -2.182264e+02   2.345741e+02
  -3.904683e+02  -3.932362e+01
  -2.575550e+02  -2.723453e+02
  -7.235535e+01  -2.600620e+02
   1.317775e+02  -1.640763e+02
   1.633681e+02  -3.434997e+01
   1.501985e+01   5.967827e+01
  -6.387829e+01  -2.823985e+01
  -5.646283e+00  -9.580960e+01
   1.156254e+02  -4.409076e+01
   1.746910e+02   4.882403e+01
   6.196810e+00   6.556196e+01
  -3.557159e+01   1.475078e+01
  -5.516051e+01  -9.312962e+01
   1.590041e+02  -8.294816e+01
   2.564389e+02   8.691844e+00
   2.234481e+02   1.797641e+02
   6.739454e+01   2.502966e+02
  -2.073346e+02   2.027635e+02
  -2.545702e+02   8.049125e+01
  -1.106351e+02  -5.359518e+01
   1.329454e+01  -1.167939e+02
   8.106908e+01   1.697270e+01
  -7.941268e+01   1.068619e+02
  -1.893582e+02   6.076455e+01
  -2.440364e+02  -1.026526e+02
  -5.682113e+01  -1.829200e+02
   5.501475e+01  -1.428622e+02
   1.257741e+02   8.805324e+00
   6.788044e+01   4.113708e+01
  -9.249171e+01  -3.857288e+00
  -3.949302e+01  -9.082594e+01
   7.731393e+01  -8.743777e+01
   1.798675e+02   6.665670e+00
   1.721436e+02   1.372093e+02
   1.516602e+00   2.023946e+02
  -1.467624e+02   1.343945e+02
  -2.136648e+02   6.448311e+00
  -6.122089e+01  -8.131145e+01
   1.097238e+02  -1.020281e+02
   9.308869e+01   8.422945e+00
   4.391580e+00   4.059732e+01
  -2.298656e+01   1.839646e+01
   2.926338e+01  -4.132480e+01
   6.973275e+01   8.450039e+00
   7.343309e+01   9.768323e+01
  -1.199229e+01   1.571018e+02
  -1.494102e+02   1.419145e+02
  -2.042888e+02   2.042075e+01
  -2.254174e+02  -1.744055e+02
  -2.797918e+01  -2.241284e+02
   8.659966e+01  -1.786842e+02
   1.304634e+02  -9.893179e+00
   5.588264e+01   3.371610e+01
   4.740031e+01   8.157887e+00
   7.757999e+01  -6.065032e+00
   7.378096e+01  -1.916662e+01
   5.564979e+01   4.028600e+01
  -4.524758e+01   7.921544e+01
  -1.060232e+02   3.831139e+01
  -1.086726e+02  -6.685599e+01
   1.719789e+01  -1.298298e+02
   1.532115e+02  -1.078371e+02
   1.510221e+02   7.517299e+01
   1.240075e+02   2.334630e+02
  -1.404240e+02   2.222600e+02
  -2.630910e+02   7.317021e+01
  -2.531115e+02  -3.122430e+01
  -1.049158e+02  -1.872451e+02
   4.882376e+01  -1.128758e+02
   9.316054e+01  -3.087791e+01
   9.683209e+01  -5.988378e+01
   6.361653e+01  -1.083173e+02
   7.360484e+01  -7.849218e+01
   8.489403e+01  -8.946075e+00
   9.371997e+01   1.219283e+02
   5.352444e+01   2.323511e+02
  -1.065350e+02   1.752341e+02
  -1.988428e+02   3.104514e+01
  -9.337709e+01  -1.103522e+02
  -1.402800e+00  -1.326798e+02
   6.174973e+01  -1.234966e+02
   1.009060e+02   8.098389e+00
  -4.341667e+01   8.168683e+01
  -1.449639e+01   3.619715e+01
   2.037050e+01   3.930061e+00
   6.967269e+01   3.182437e+01
   3.418312e+01   3.387598e+00
  -7.736977e+01   5.463807e+01
  -1.361807e+02   1.720107e+01
  -1.462575e+02  -5.219386e+01
  -9.308189e+00  -7.610163e+01
   1.133427e+02  -6.629950e+01
   1.546278e+02   5.035215e+01
   9.584900e+00   1.054944e+01
  -4.768356e+01   5.184366e+01
  -6.154989e+01  -2.655029e+01
  -2.479572e+01  -6.792251e+01
   4.200157e+01  -6.773999e+01
   7.599981e+01  -1.644026e+00
   6.074716e+01   6.261253e+01
   3.739671e+01   6.333838e+01
   6.849542e+01   4.544448e+01
   5.445030e+01   3.743308e-01
   3.071485e+01   4.449036e+01
  -6.384909e+01   1.282239e+02
  -1.242432e+02   1.390350e+02
  -1.413117e+02   4.337574e+01
  -1.111229e+02  -8.053618e+01
   3.807130e+01  -1.294748e+02
   6.999181e+01  -8.800633e+01
   3.298408e+01   1.774636e+01
  -1.226626e+01   4.399124e+01
  -1.412644e+02  -5.282604e+01
  -8.590967e+01  -8.951322e+01
   5.396344e+01  -9.929786e+01
   1.851623e+02  -5.982142e+01
   1.659153e+02   1.319601e+01
   1.269359e+01   5.270199e+01
  -2.136405e+01   9.058907e+01
  -7.668377e+01  -3.935619e+01
   2.659122e+01  -2.343884e+01
   1.144157e+02   2.672456e+01
   2.407572e+01   1.171010e+02
  -8.465775e+01   1.402056e+02
  -1.366770e+02   8.493725e+01
  -9.276440e+01  -6.265743e+01
  -2.459078e+01  -1.769076e+02
   4.126884e+01  -1.121385e+02
   1.312808e+02   3.692128e+01
   4.605910e+01   1.402759e+02
   9.166846e+00   9.514350e+01
  -6.739153e+01   4.157209e+01
  -4.913745e+01  -2.292900e+01
  -5.341358e+01  -2.801940e+01
  -2.529574e+01   3.131402e+01
   6.726164e+00  -5.499639e+01
  -6.734672e+01  -5.017107e+01
  -3.830256e+01  -1.035356e+02
   5.177561e+01  -4.092137e+01
   1.435018e+02   3.066761e+01
   1.284378e+02   6.183012e+01
   1.872253e+01   4.872270e+01
  -7.578283e+01   6.979133e+01
  -1.032376e+02   2.496312e+01
  -7.025746e+00  -2.899426e+01
   4.059861e+01   1.116596e+01
   2.610337e+01  -3.438495e+01
  -1.607786e+01  -8.760693e+00
   8.839818e+00   2.263214e+01
   6.816270e+01  -3.277174e+01
   3.114342e+01   1.432002e+01
  -1.416900e+01   6.847165e+01
  -1.265922e+02   9.037183e+01
  -1.596868e+02   4.910039e+01
  -1.807910e+02  -8.995629e+01
  -3.465140e+01  -1.433491e+02
   5.533295e+01  -1.534097e+02
   1.234612e+02  -7.196094e+01
   9.221755e+01   1.266161e+01
   4.205224e+01   3.389621e+00
   1.502820e+01  -2.845888e+00
  -3.203111e+01  -4.506544e+00
   2.221622e+01   3.294178e+01
   1.820581e+01   5.203636e+01
  -4.626344e+01   6.022638e+01
  -7.849316e+01  -1.835494e+01
  -7.070472e+01  -1.537495e+02
  -1.097786e+01  -1.216263e+02
   4.956215e+01  -3.007186e+01
   7.180074e+01   4.453007e+01
   5.497081e+01   7.847763e+01
  -6.383965e+01   6.882634e+00
  -1.025976e+02  -3.142157e+01
  -1.063946e+01  -5.618314e+01
  -1.327443e+00  -4.832013e+01
   3.836545e+01  -2.056571e+01
  -2.623425e+01  -1.427032e+01
  -6.314763e+01  -1.245603e+01
  -2.356213e+01  -3.482653e+01
   6.388765e+01  -4.179487e+01
   1.312131e+02  -7.523291e+01
   8.864922e+01  -1.952858e+01
   2.178535e+00   7.365064e+01
  -4.485682e+01   1.032456e+02
  -5.519172e+01   4.515393e+01
  -3.590127e+01  -4.786026e+01
   3.197366e+01  -4.593456e+00
   3.075981e+01  -8.476447e-02
   1.591601e+01   5.307742e+01
   3.497188e+01   3.117469e+01
  -3.625436e+01  -1.915446e+01
  -1.412768e+01  -4.010708e+01
  -4.537178e+01  -2.257156e+01
  -1.118603e+01   3.531640e+00
   1.622741e+01   2.412906e+01
   1.080929e+00  -4.266621e+01
   6.516973e+00  -6.802379e+01
   3.336774e+01  -1.243735e+01
   2.330056e+01   3.363947e+01
  -1.137649e+01   3.494108e+01
  -3.468119e+01   3.292472e+01
  -7.342801e+01  -1.435150e+01
  -1.739122e+01  -8.761738e+01
   5.068286e+01  -3.412262e+01
   8.734959e+01   3.194816e+01
   2.954004e+01   4.147797e+01
  -9.406726e+00   6.498070e+01
  -6.236126e+01   5.572660e+00
  -2.001870e+01   9.401819e+00
   3.397901e+01  -4.421153e+01
   2.026888e+01   1.240286e+01
  -7.897614e+00   1.360683e+01
  -9.073155e+01   3.313822e+01
