
 $NMID
 id='ANONYMOUS ', fmtdat='(2E16.6)'
 volume=1.0
 tramp=1.0
 $END
  -3.597719e+03   5.365422e+02
  -2.254671e+03  -1.991923e+03
   1.715779e+02  -2.559919e+03
   1.717168e+03  -1.167838e+03
   1.164403e+03   1.830715e+02
  -5.320498e+01   3.620448e+02
  -5.922286e+02  -2.527948e+02
  -1.485097e+02  -9.461422e+02
   7.024812e+02  -8.490363e+02
   8.562585e+02   3.331105e+00
   5.125951e+02   6.872727e+02
  -1.053303e+02   7.092749e+02
  -4.440138e+02   2.867171e+02
  -4.039276e+02  -5.950338e+02
   9.920235e+01  -5.803286e+02
   4.479817e+02  -7.705318e+01
   3.150382e+02   5.101674e+02
  -1.822281e+02   6.067460e+02
  -5.168063e+02   2.095890e+02
  -4.607942e+02  -2.520012e+02
  -8.275392e+01  -4.019136e+02
   2.149558e+02  -2.124685e+02
   5.170945e+01  -8.236711e+01
  -1.515208e+02  -2.121319e+01
  -2.883040e+02  -1.763246e+02
  -1.021903e+02  -3.549636e+02
   4.187255e+02  -2.369220e+02
   7.443761e+02  -1.750684e+01
   3.413082e+02   4.679692e+02
  -3.726994e+02   3.321970e+02
  -5.476328e+02  -1.544257e+02
  -2.671918e+02  -3.947322e+02
   2.782393e+02  -4.093370e+02
   4.495371e+02  -1.745153e+02
   3.726637e+02   1.427706e+02
   1.321307e+02   3.825050e+02
  -3.270589e+01   2.289410e+02
  -1.431377e+02  -1.005851e+02
   1.649650e+02  -3.173449e+02
   3.411913e+02   2.010328e+01
   1.500694e+02   5.243857e+02
  -2.429973e+02   5.054988e+02
  -5.069494e+02   1.014640e+02
  -1.872054e+02  -4.803239e+02
   1.243808e+02  -2.864313e+02
   2.645788e+02   3.018799e+02
  -1.534747e+01   4.543176e+02
  -5.223893e+02   9.944520e+01
  -5.321996e+02  -3.598201e+02
  -1.601970e+02  -5.537720e+02
   2.943020e+02  -3.059752e+02
   5.699758e+02   4.240825e+00
   3.773331e+02   2.499653e+02
  -7.698995e+01   2.473300e+02
  -4.061966e+02   1.461690e+02
  -2.579924e+02  -3.821043e+01
   1.151086e+01  -1.404618e+02
   8.214008e+01   6.354658e+01
  -1.155629e+02   1.109748e+02
  -2.980548e+02   2.576534e+00
  -1.683972e+02  -1.739964e+02
   1.211491e+02  -3.095044e+02
   3.652465e+02  -8.238331e+01
   2.042637e+02   8.869698e+01
  -5.172403e+01   3.126255e+02
  -2.818940e+02   3.269738e+02
  -3.403539e+02   1.929009e+02
  -2.788829e+02  -1.360077e+02
  -1.191128e+02  -3.468868e+02
   6.753254e+01  -3.416778e+02
   8.159426e+01  -1.716823e+02
   3.457121e+01  -3.943105e+01
   6.474228e+01  -1.182815e+02
   1.952060e+02  -6.750420e+01
   2.758826e+02   3.321221e+01
   1.249636e+02   2.289014e+02
  -7.460204e+01   2.100341e+02
  -1.915341e+02  -7.360955e+00
  -1.931552e+02  -2.167650e+02
   4.165880e+01  -2.285941e+02
   2.731332e+02  -1.031758e+02
   3.874982e+02   1.820256e+02
   1.622095e+02   3.395463e+02
  -3.777423e+01   2.711774e+02
  -1.987867e+02   1.557193e+02
  -1.702866e+02   2.401237e+01
  -1.165122e+02   4.836295e+01
  -2.400494e+02   3.610256e+01
  -3.740123e+02  -6.479092e+01
  -3.492644e+02  -2.593201e+02
  -3.541959e+01  -4.107651e+02
   3.423410e+02  -3.989195e+02
   4.683034e+02  -2.433764e+02
   3.419231e+02   8.732057e+01
   1.279886e+01   2.854554e+02
  -8.074142e+01   2.384934e+02
  -5.169995e+01   4.750019e+01
   1.172480e+02  -5.516933e+01
   2.143807e+02  -1.679683e+01
   2.883793e+01   1.496591e+02
  -1.085362e+02   1.666512e+02
  -1.837735e+02  -4.821817e+01
   4.121980e+00  -1.676470e+02
   1.671637e+02  -5.211415e+01
   1.873872e+02   2.488270e+02
  -3.179937e+01   3.442285e+02
  -2.340345e+02   1.725641e+02
  -3.548565e+02  -5.633315e+01
  -2.326500e+02  -2.335687e+02
  -9.271522e+01  -2.476194e+02
   1.321318e+02  -9.930338e+01
   1.424878e+02   2.592507e+01
   4.380109e+01   4.218214e+00
  -1.091002e+02  -8.558099e+01
  -1.681430e+01  -1.069013e+02
   1.342426e+02  -8.330851e+01
   1.793447e+02   1.441819e+01
   5.981197e+01   6.667737e+01
  -1.016350e+02  -1.492102e+01
  -4.371440e+01  -8.368571e+01
   1.219053e+02  -1.052311e+02
   2.696869e+02  -1.840387e+01
   2.839275e+02   1.056460e+02
   5.885772e+01   2.714476e+02
  -1.672164e+02   2.442289e+02
  -2.580320e+02   1.393990e+02
  -1.180475e+02  -1.926950e+01
  -1.896115e+01  -9.044057e+01
   4.791163e+01   1.350318e+01
  -2.662068e+01   1.362268e+02
  -1.617728e+02   5.494664e+01
  -1.800175e+02  -1.171692e+02
  -6.388720e+01  -1.606364e+02
   8.159551e+01  -1.881194e+02
   1.449133e+02  -2.133543e+01
   5.891252e+01   4.056926e+01
  -5.811522e+01  -1.360339e+01
  -2.499623e+01  -9.825247e+01
   4.618780e+01  -1.459098e+02
   1.835037e+02  -2.768465e+01
   1.972705e+02   1.369801e+02
   5.766515e+01   2.093566e+02
  -1.372865e+02   1.660012e+02
  -1.970355e+02   5.109563e+01
  -7.058779e+01  -9.491832e+01
   4.041217e+01  -1.061572e+02
   6.399930e+01  -3.221415e+01
   2.739482e+00   4.702707e+00
  -6.015144e+01   6.782532e+00
   1.121460e+00  -3.705951e+01
   7.815060e+01  -8.124727e+00
   1.038598e+02   1.260166e+02
   3.924041e+01   2.012155e+02
  -1.273202e+02   1.329555e+02
  -2.501068e+02   5.019417e+01
  -1.674594e+02  -1.914979e+02
  -5.050751e+01  -2.276041e+02
   1.190564e+02  -1.727074e+02
   1.189774e+02  -1.921591e+01
   4.683841e+01   6.531935e+01
   5.373611e+01   2.968577e+01
   4.457472e+01   1.298054e+00
   1.146361e+02   1.348293e+00
   2.624503e+01   4.486499e+01
  -5.748587e+01   1.133464e+02
  -1.121486e+02   5.061213e+01
  -9.278109e+01  -6.730633e+01
   2.094865e+01  -1.358277e+02
   1.634770e+02  -1.000745e+02
   2.045857e+02   5.175581e+01
   7.790692e+01   1.725489e+02
  -1.094215e+02   2.282702e+02
  -2.610513e+02   7.718960e+01
  -2.615460e+02  -7.833195e+01
  -1.296785e+02  -1.635598e+02
   4.188592e+01  -1.336432e+02
   1.024562e+02  -7.520956e+01
   8.341112e+01  -8.313810e+01
   5.817824e+01  -7.493869e+01
   1.249576e+02  -9.661426e+01
   1.405801e+02   1.358917e+00
   1.272223e+02   1.553851e+02
   3.246102e+01   2.017469e+02
  -6.372282e+01   1.672915e+02
  -1.580453e+02   2.454125e+01
  -1.241939e+02  -1.035107e+02
   9.473536e+00  -1.431011e+02
   1.105990e+02  -7.280350e+01
   3.667763e+01   1.000300e+01
  -4.676293e+01   2.312653e+01
  -1.414614e+01   3.454343e+01
   2.302952e+01   4.514480e+01
   7.699793e+01  -4.567418e+01
   5.433665e+01   6.295770e+01
  -4.857380e+01   5.855708e+01
  -1.228704e+02   2.632780e+01
  -1.516070e+02  -4.984450e+01
  -2.897887e+00  -5.873999e+01
   1.026669e+02  -8.003141e+01
   1.398936e+02  -2.744269e+01
   3.906797e+01   3.781626e+01
  -3.976344e+01   2.870408e+01
  -5.440965e+01   1.164253e+01
  -4.394037e+01  -4.488338e+01
   8.094656e+01  -8.634530e+01
   4.962775e+01   1.686778e+01
   4.398023e+01   5.759487e+01
  -8.842902e-03   4.780621e+01
   4.117887e+01  -4.743929e+00
   4.691369e+01  -3.202607e+01
   2.736789e+01   7.871183e+01
  -1.863878e+00   1.233824e+02
  -1.537267e+02   1.310906e+02
  -1.848968e+02   6.288798e+00
  -1.230083e+02  -5.508364e+01
   3.764114e+00  -1.430957e+02
   5.294298e+01  -7.405299e+01
   5.729029e+01  -7.471687e+00
  -4.372814e+01   5.025871e+01
  -1.213006e+02  -4.743378e+01
  -8.144695e+01  -1.214042e+02
   6.406033e+01  -1.337130e+02
   1.771799e+02  -1.165057e+02
   1.449376e+02   2.182290e+01
   2.774770e+01   5.494978e+01
  -4.379440e+01   6.135755e+01
  -4.609996e+01   1.445390e+01
   2.941863e+01  -6.208353e+01
   6.014442e+01   5.685765e+00
   2.670242e+01   1.438967e+02
  -6.658503e+01   1.545321e+02
  -1.610132e+02   9.494949e+01
  -1.138532e+02  -6.975588e+01
  -2.705743e+01  -2.253062e+02
   1.334027e+02  -1.496780e+02
   9.197992e+01   1.354246e+01
   7.069086e+01   1.391293e+02
   1.703792e+01   8.764042e+01
  -4.867876e+01   1.461511e+01
  -3.950825e+01   8.307863e+00
  -4.973376e+00  -6.943383e+00
  -2.319382e+00   6.140905e+00
  -7.214556e+00  -1.177500e+01
  -6.245105e+01  -1.319814e+02
  -3.411761e+01  -9.550853e+01
   3.437243e+01  -6.054088e+01
   1.570770e+02   1.357658e+01
   1.085803e+02   3.981426e+01
  -2.464427e+00   6.444053e+01
  -8.284216e+01   1.851617e+01
  -8.925590e+01   2.952494e+01
   1.155470e+01  -2.566246e+01
   2.136659e+01  -2.373230e+01
   6.144800e+00  -9.139587e+00
  -2.940948e+01  -1.979861e+01
   2.256893e+01  -3.676427e+01
   8.658818e+01   2.292386e+01
   7.005795e+01   1.167548e+00
   1.229953e+01   7.780867e+01
  -1.043558e+02   1.156626e+02
  -1.958390e+02   5.903720e+01
  -1.488463e+02  -5.286744e+01
  -6.090553e+01  -1.618494e+02
   7.053130e+01  -1.668213e+02
   1.418116e+02  -1.190626e+01
   1.106789e+02   2.683821e+01
   1.694192e+01   6.339783e+01
  -8.710263e-02  -1.741436e+01
   5.677312e+00   1.253149e+01
   3.446510e+01   3.359465e+01
   1.478531e+01   1.241566e+02
  -5.603933e+00   6.194447e+01
  -7.906898e+01  -4.781948e+01
  -4.474734e+01  -1.006421e+02
  -7.881818e+01  -1.075611e+02
   4.553805e+01  -5.406864e+01
   1.250464e+02   9.933826e+01
   7.335602e+01   8.706717e+01
  -3.626378e+01   4.258305e+01
  -7.275139e+01  -1.026497e+01
  -2.030361e+01  -7.837150e+01
   4.987238e+00  -8.270278e+01
   4.789448e+01  -1.620121e+01
  -3.976647e+01   2.710339e+01
  -8.572011e+01  -8.887259e+00
  -4.547141e+00  -2.198811e+01
   4.159886e+01  -8.153177e+01
   9.333171e+01  -6.509269e+01
   4.558698e+01   1.971295e+01
  -3.860772e+01   7.764453e+01
  -7.279257e+01   7.803471e+01
  -5.974657e+01  -4.594184e+00
  -2.576282e+01  -6.773366e+01
  -1.232471e+01  -5.304605e+01
   2.902830e+01   2.606100e+01
   2.413194e+01   5.057118e+01
  -8.262845e-01   2.660910e+01
  -7.218780e+00  -9.024057e+00
  -2.837195e+01  -2.137394e+01
  -2.971837e+01   3.039051e+01
   2.283311e+01   3.742370e+01
  -1.940975e+01  -1.958477e+01
   1.660816e+01  -1.875657e+01
   3.333351e-01  -1.809623e+01
   3.233534e+01  -4.158699e+00
   4.183971e+01   1.375966e+01
  -1.707287e+01   4.704849e+01
  -4.949520e+01   3.312431e+01
  -8.780572e+01  -3.666159e+01
  -1.274012e+01  -4.404594e+01
   4.937506e+01  -4.293130e+01
   6.582199e+01   8.218429e+00
   6.723285e+01   7.023112e+01
  -6.123119e+00   3.424144e+01
  -7.905974e+01   8.461154e+00
  -2.490480e+01   3.656352e+00
   1.098626e+01   2.978985e+01
   4.400075e+01   4.774405e+01
   1.144509e+00  -3.982771e+00
  -7.720694e+01  -2.504173e+00
