
 $NMID
 id='ANONYMOUS ', fmtdat='(2E16.6)'
 volume=1.0
 tramp=1.0
 $END
  -4.003476e+03  -2.435462e+02
  -2.049755e+03  -2.426276e+03
   4.070892e+02  -2.495827e+03
   1.617296e+03  -9.909617e+02
   1.163255e+03   3.209915e+02
  -5.196483e+02   6.157163e+02
  -6.157288e+02  -3.506554e+02
  -1.192130e+02  -8.984075e+02
   7.608994e+02  -6.772920e+02
   7.521486e+02   1.408690e+02
   3.982954e+02   7.146798e+02
  -1.709483e+02   7.877397e+02
  -5.220590e+02   9.282543e+01
  -2.348798e+02  -6.547364e+02
   2.270579e+02  -5.707884e+02
   5.041037e+02  -2.497907e+01
   2.532101e+02   6.099144e+02
  -2.633671e+02   6.040071e+02
  -4.975277e+02   1.758293e+02
  -3.991275e+02  -2.910782e+02
  -8.137057e+01  -4.406860e+02
   1.676405e+02  -2.168909e+02
   2.037070e+02  -1.997039e+00
  -1.356643e+02   9.383935e+00
  -3.669675e+02  -1.926227e+02
  -1.701570e+02  -4.074952e+02
   5.084407e+02  -2.523821e+02
   7.935310e+02   1.259200e+02
   3.956996e+02   4.083004e+02
  -3.930862e+02   3.541671e+02
  -6.419663e+02  -8.425031e+00
  -3.012517e+02  -4.734491e+02
   2.734017e+02  -4.854141e+02
   5.447900e+02  -1.721053e+02
   3.795340e+02   2.394907e+02
   8.242313e+01   3.908820e+02
  -1.287696e+02   2.546999e+02
  -8.847432e+01  -1.856744e+02
   2.098951e+02  -4.407647e+02
   3.840970e+02   6.802419e+01
   1.771164e+02   6.242751e+02
  -2.709470e+02   6.477535e+02
  -5.683119e+02   1.758838e+01
  -2.074904e+02  -5.012546e+02
   3.520212e+02  -2.111492e+02
   2.680917e+02   2.759757e+02
  -6.468435e+01   5.024822e+02
  -4.726779e+02   1.270082e+02
  -5.716516e+02  -3.787726e+02
  -9.532319e+01  -5.618312e+02
   3.333382e+02  -3.308924e+02
   5.451328e+02   6.109643e+01
   3.613010e+02   3.108331e+02
  -1.137806e+02   3.727482e+02
  -4.861913e+02   5.809685e+01
  -2.301650e+02  -1.685637e+02
   1.048596e+02  -7.068854e+01
   1.383639e+02   1.380273e+02
  -1.317609e+02   1.730642e+02
  -2.983549e+02  -6.653032e+01
  -1.228136e+02  -2.880510e+02
   1.890749e+02  -2.869105e+02
   3.323351e+02  -1.056492e+02
   1.909386e+02   8.343942e+01
  -4.908438e+01   2.478701e+02
  -2.244094e+02   3.977249e+02
  -3.235452e+02   1.985118e+02
  -2.427815e+02  -1.703286e+02
  -7.605639e+01  -3.667634e+02
   7.923161e+01  -3.697036e+02
   9.790391e+01  -1.591729e+02
   1.991191e+01  -4.069056e+01
   9.094419e+01  -9.583096e+01
   1.747928e+02  -8.661286e+01
   2.599322e+02   9.005063e+01
   8.915610e+01   2.718274e+02
  -7.909600e+01   1.960453e+02
  -1.891046e+02  -1.486814e+01
  -1.470168e+02  -2.450679e+02
   3.645131e+01  -2.794451e+02
   2.531270e+02  -8.512997e+01
   3.416329e+02   1.792677e+02
   1.849357e+02   3.384889e+02
  -1.204356e+02   2.763378e+02
  -2.226667e+02   1.341573e+02
  -1.326915e+02   7.160669e+01
  -1.210730e+02   1.486334e+01
  -2.106550e+02   3.529118e+01
  -4.076393e+02  -8.268253e+01
  -2.803537e+02  -3.153864e+02
   1.292375e+01  -4.787073e+02
   3.551449e+02  -4.031688e+02
   5.078680e+02  -1.864979e+02
   2.817737e+02   5.466967e+01
   2.643884e+01   2.465263e+02
  -1.501815e+02   2.503432e+02
  -6.018449e+01   1.846681e+01
   1.476617e+02  -8.526107e+01
   1.866558e+02   1.075249e+01
   7.046016e+01   1.552422e+02
  -7.619324e+01   1.278568e+02
  -1.628675e+02  -1.020383e+02
   5.087023e+01  -1.974456e+02
   1.516975e+02  -1.488294e+01
   1.724657e+02   2.508297e+02
  -3.620216e+01   3.655077e+02
  -2.250241e+02   2.140384e+02
  -3.380016e+02  -8.189053e+01
  -2.659917e+02  -2.597732e+02
  -8.060149e+01  -2.538954e+02
   1.268897e+02  -1.378380e+02
   1.957726e+02  -3.760600e+01
   6.583401e+01   4.143909e+01
  -3.876175e+01  -4.903692e+01
   1.915480e+01  -1.112408e+02
   1.340745e+02  -9.234437e+01
   1.686400e+02   3.575949e+01
   6.641706e+01   4.301929e+01
  -6.373556e+01   4.099003e+01
   3.094613e+00  -3.938505e+01
   1.345169e+02  -8.727973e+01
   3.023936e+02  -2.487613e+01
   2.321943e+02   1.796926e+02
   6.893699e+01   2.559728e+02
  -2.040451e+02   2.436141e+02
  -2.687955e+02   7.388881e+01
  -1.330318e+02  -6.449376e+01
  -1.506767e+01  -1.366678e+02
   7.117069e+01  -2.667482e+01
  -6.999194e+01   1.185648e+02
  -1.632418e+02   2.882984e+01
  -1.912005e+02  -1.225812e+02
  -1.019622e+02  -2.040033e+02
   1.208441e+02  -1.925575e+02
   1.419229e+02   1.127678e+01
   5.580514e+01   2.849190e+01
  -2.529099e+01  -3.684355e+01
  -4.710879e+01  -9.517312e+01
   5.113247e+01  -8.980105e+01
   1.846015e+02  -2.266499e+01
   1.760283e+02   1.039624e+02
   2.629803e+01   2.134768e+02
  -1.543953e+02   1.686531e+02
  -1.888864e+02   3.445421e+01
  -4.427776e+01  -9.484821e+01
   6.791465e+01  -8.080148e+01
   9.393518e+01  -4.823740e+01
   2.116635e+01   3.666094e+01
  -2.732629e+01   2.021743e+01
  -2.024431e+01  -5.705661e+01
   6.389329e+01  -3.161401e+01
   1.068338e+02   3.877991e+01
  -2.054500e+01   1.402958e+02
  -1.356337e+02   1.173660e+02
  -2.207025e+02   3.005312e+01
  -1.743075e+02  -1.155411e+02
  -3.660691e+01  -2.220489e+02
   1.213256e+02  -1.301620e+02
   1.040898e+02  -4.428139e+00
   6.508182e+01   5.375992e+01
   6.405668e+01   3.201740e+01
   4.562555e+01  -5.425118e+01
   8.720454e+01  -1.840298e+01
   5.810559e+01   5.575548e+01
  -7.304738e+01   5.680814e+01
  -9.760637e+01   6.255131e+01
  -7.033154e+01  -6.156147e+01
  -2.030822e+01  -1.273541e+02
   1.352064e+02  -7.989460e+01
   1.947711e+02   8.289691e+01
   7.684644e+01   1.616307e+02
  -1.410435e+02   2.224674e+02
  -2.706730e+02   5.040772e+01
  -2.335192e+02  -4.221821e+01
  -1.330927e+02  -1.912657e+02
   1.687335e+01  -1.607755e+02
   7.835291e+01  -7.379578e+01
   7.066241e+01  -8.257070e+01
   1.772391e+01  -1.240004e+02
   7.023377e+01  -6.926403e+01
   1.360598e+02   2.474683e+01
   1.177564e+02   1.447019e+02
   4.898571e+01   2.325934e+02
  -8.526763e+01   1.490651e+02
  -1.944147e+02   1.018644e+01
  -1.331933e+02  -1.096320e+02
  -4.827578e+01  -1.144901e+02
   8.589937e+01  -9.574259e+01
   7.983333e+01  -4.302500e+01
  -2.621226e+01   8.968451e+00
   1.288485e+01   2.621965e+01
   2.920836e+01  -8.237462e+00
   5.799079e+01  -1.971766e+01
   5.792111e+01   2.022015e+01
  -9.700529e+01   2.349681e+01
  -1.537003e+02   3.019666e+01
  -1.256508e+02  -6.809336e+01
  -2.168581e+01  -8.186316e+01
   1.563342e+02  -6.885447e+01
   1.569547e+02   1.386640e+01
   5.081648e+01   3.222656e+01
  -6.730158e+01   1.997636e+01
  -7.861018e+01  -5.999303e+01
   1.244741e+01  -7.936005e+01
   7.117299e+01  -3.334506e+01
   7.837946e+01   3.962075e+00
   4.174013e+01   4.505342e+01
   2.069039e+01   8.810003e+01
   3.480638e+01  -9.729502e-01
   3.269938e+01   1.485076e+01
   5.368708e+01   8.375518e+01
  -4.087778e+01   1.713659e+02
  -8.201731e+01   1.564325e+02
  -2.014042e+02   2.626882e+01
  -1.062627e+02  -8.316072e+01
   1.606026e+01  -1.196456e+02
   1.016464e+02  -6.667588e+01
   6.160004e+01   1.725257e+01
  -5.334330e+01  -2.638809e+01
  -1.234073e+02  -6.598934e+01
  -6.611713e+01  -9.556603e+01
   5.750577e+01  -8.024566e+01
   2.079553e+02  -4.346339e+01
   1.340199e+02   2.186668e+01
   5.136975e+01   9.065425e+01
  -5.248971e+01   8.647759e+01
  -5.113725e+01   1.329381e+01
  -2.615078e+01  -3.376365e+01
   8.223396e+01   2.470181e+01
   5.105517e+01   1.095357e+02
  -1.161776e+02   1.017116e+02
  -1.810989e+02   4.572265e+01
  -1.444498e+02  -9.372345e+01
  -7.454428e-01  -1.641526e+02
   9.775922e+01  -1.377991e+02
   8.962019e+01   1.242503e+01
   4.062261e+01   9.457136e+01
   1.142438e+01   1.039393e+02
  -4.521922e+01  -3.494463e+00
  -4.677189e+01  -5.128075e+01
  -5.210735e+01   1.636461e+00
  -3.600673e+01   1.691781e+01
  -2.617293e+01   1.668729e+01
  -7.415459e+01  -9.884410e+01
  -5.706383e+01  -1.074236e+02
   5.473938e+01  -4.362023e+01
   1.364673e+02   4.690656e+01
   1.269586e+02   7.816488e+01
  -4.277340e+00   3.895587e+01
  -8.946860e+01   5.689065e+00
  -7.588845e+01  -7.855014e+00
  -6.865234e+00   2.406172e+01
   1.345142e+01  -3.186600e+01
  -7.358864e+00   2.801972e+01
  -2.866710e+01   2.462068e+01
   7.522338e-02  -1.331373e+01
   5.650529e+01   8.186036e+00
   6.040607e+01  -8.976381e+00
  -6.283235e+00   7.902528e+01
  -9.430406e+01   1.027345e+02
  -1.704935e+02   1.634104e+01
  -1.821393e+02  -6.349335e+01
   2.072357e+01  -1.944656e+02
   7.051990e+01  -1.194521e+02
   1.166047e+02  -1.044902e+02
   5.506046e+01   1.229190e+01
   3.101037e+01   3.115050e+01
  -2.931029e+01  -2.182207e+01
   1.176585e+01   9.071679e+00
   1.024271e+01   1.710847e+01
  -4.529431e+00   1.041084e+02
  -1.159027e-01   9.275320e+01
  -8.944848e+01  -9.673231e+00
  -4.551780e+01  -1.328241e+02
  -1.986094e+01  -1.328234e+02
   6.596500e+01  -2.585986e+01
   6.085883e+01   7.330015e+01
   1.848450e+01   1.057785e+02
  -6.316157e+01   8.053411e+01
  -1.314733e+02  -1.825829e+01
  -3.708512e+01  -6.448509e+01
   7.015022e+01  -5.846642e+01
   3.169509e+01  -1.808139e+01
  -2.760173e+01  -1.553695e-01
  -1.001567e+02  -8.588406e+00
  -3.102132e+01  -4.488762e-01
   9.485350e+01  -1.464923e+01
   1.465416e+02  -4.065284e+01
   7.142151e+01   6.244024e+00
  -1.546866e+01   9.571997e+01
  -5.321278e+01   6.059499e+01
  -7.710652e+01   4.764775e+01
   1.953295e+01  -4.047017e+01
   2.328108e+01  -2.818950e+01
   3.964892e+01   4.129352e+01
   6.442122e+01   3.948218e+01
  -5.092118e+01   1.930506e+01
  -6.614785e+01   2.262885e+01
  -3.354890e+01  -1.604424e+00
  -4.902329e+01  -1.616979e+01
   4.021771e+01  -1.438068e+00
  -5.629812e+00  -2.691912e+01
   5.438996e+00  -6.125745e+01
   3.842169e+01  -3.560485e+01
   2.527202e+01  -1.704149e+01
   3.743143e+00   2.093387e+01
  -3.538841e+01   2.699950e+01
  -3.293366e+01   1.198862e+01
  -9.389990e+01  -1.688880e+01
  -4.181802e+00  -5.876835e+01
   6.013191e+01  -5.407857e+01
   8.464419e+01   6.121208e+00
   6.320895e+01   4.577969e+01
  -4.008705e+00   1.059032e+01
  -4.846934e+01   5.969869e+00
  -3.281766e+00  -7.293051e+00
   4.722370e+01   7.886507e+00
   2.298439e+01   1.062553e+01
  -4.609077e+01   5.603509e+01
  -6.908213e+01  -3.121771e+00
