
 $NMID
 id='ANONYMOUS ', fmtdat='(2E16.6)'
 volume=1.0
 tramp=1.0
 $END
  -3.191097e+03  -5.998542e+01
  -1.944788e+03  -1.859024e+03
   1.902087e+02  -2.017859e+03
   1.431641e+03  -8.625477e+02
   7.571690e+02   1.812529e+02
  -1.604112e+02   4.759926e+01
  -4.555321e+02  -1.105689e+02
  -3.439130e+00  -6.026680e+02
   4.203055e+02  -4.945665e+02
   5.780262e+02  -5.912008e+01
   4.004837e+02   5.255615e+02
  -9.421636e+01   5.168740e+02
  -3.550267e+02   1.351384e+02
  -1.697269e+02  -3.162243e+02
   1.513936e+02  -4.665300e+02
   3.919327e+02  -5.721612e+01
   2.774084e+02   4.643944e+02
  -1.483857e+02   5.721669e+02
  -4.761659e+02   1.999859e+02
  -3.314337e+02  -1.592365e+02
  -2.027954e+01  -3.013910e+02
   1.444627e+02  -1.692374e+02
   8.803514e+01  -7.300281e+01
  -1.179755e+02  -9.329260e+01
  -2.769708e+02  -2.109515e+02
  -3.560502e+01  -3.289221e+02
   3.666604e+02  -2.434679e+02
   6.077681e+02   1.256202e+02
   1.810620e+02   4.107565e+02
  -2.810395e+02   1.771412e+02
  -4.801019e+02  -1.517465e+02
  -1.544193e+02  -3.280619e+02
   2.237042e+02  -3.944948e+02
   4.090377e+02  -1.194339e+02
   2.347724e+02   1.283449e+02
   5.962230e+01   2.689902e+02
  -7.815353e+01   1.143329e+02
  -2.249365e+01  -3.482892e+01
   1.697620e+02  -1.882734e+02
   2.072562e+02   1.097965e+02
   1.370396e+02   4.234381e+02
  -2.816108e+02   4.825530e+02
  -3.639213e+02  -5.290426e+01
  -1.092027e+02  -3.015398e+02
   1.635067e+02  -1.521509e+02
   1.950010e+02   2.922480e+02
  -7.229698e+01   3.329775e+02
  -4.760271e+02   1.122140e+02
  -3.947581e+02  -3.450351e+02
  -1.482381e+02  -4.706925e+02
   3.295014e+02  -2.027037e+02
   4.875263e+02   4.415126e+01
   3.338381e+02   2.616949e+02
  -1.023162e+02   2.599647e+02
  -1.980316e+02   1.206051e+02
  -1.727963e+02  -8.964255e+01
   4.500789e+00  -7.711392e+01
   7.716318e+01   1.110998e+02
  -1.453964e+02   5.479648e+01
  -2.754375e+02  -2.765151e+01
  -1.142565e+02  -1.902309e+02
   1.230066e+02  -1.746045e+02
   3.255266e+02  -1.011866e+02
   2.567169e+02   6.476709e+01
  -7.602696e+01   2.353089e+02
  -2.244250e+02   3.490017e+02
  -3.309410e+02   1.752946e+02
  -1.863677e+02  -1.114365e+02
  -4.477707e+01  -3.146901e+02
   6.046855e+01  -3.237643e+02
   8.485188e+01  -1.549951e+02
   2.422196e+01  -8.050202e+01
   7.147148e+01  -1.224522e+02
   2.049791e+02  -6.595973e+01
   1.870976e+02   4.727142e+01
   5.859667e+01   2.141424e+02
  -5.389280e+01   1.461918e+02
  -1.936106e+02   3.131821e+00
  -1.878819e+02  -2.135556e+02
   4.510308e+01  -1.999977e+02
   2.068378e+02  -8.330817e+01
   2.452931e+02   1.741371e+02
   1.482812e+02   2.355276e+02
  -6.282073e+01   2.570270e+02
  -1.522202e+02   1.149271e+02
  -1.340675e+02   3.465267e+01
  -1.341589e+02   5.957956e+01
  -2.639929e+02   4.695558e+01
  -3.624861e+02  -7.250264e+01
  -2.680556e+02  -2.545885e+02
   4.384258e+01  -4.075190e+02
   3.161020e+02  -3.159445e+02
   4.292832e+02  -1.958119e+02
   2.558999e+02   1.030051e+02
   3.863264e+01   2.034972e+02
  -8.786059e+01   1.484975e+02
  -4.498834e+01   2.731032e+01
   9.634676e+01  -4.005322e+00
   1.388621e+02   3.816151e+01
   1.304451e+01   1.285394e+02
  -1.577980e+02   1.277739e+02
  -9.309197e+01  -7.245371e+01
  -2.476750e+01  -1.188727e+02
   1.777913e+02   3.394075e+01
   1.448900e+02   1.585805e+02
   8.731686e+00   2.651082e+02
  -2.251544e+02   2.063348e+02
  -3.204040e+02  -3.211584e+01
  -2.045743e+02  -1.962594e+02
  -7.855616e+01  -2.236388e+02
   1.003827e+02  -1.386968e+02
   1.428807e+02  -1.014600e+00
   6.732941e+00   2.658722e+01
   3.586589e-01  -6.523634e+01
  -4.785448e+01  -9.796014e+01
   9.447371e+01  -6.306281e+01
   1.384857e+02   4.561658e+01
  -7.672478e+00   2.751687e+01
  -1.682623e+01   2.327028e+01
  -2.232417e+01  -2.133659e+01
   1.023425e+02  -7.792031e+01
   1.974263e+02  -1.235696e+01
   2.293984e+02   1.290926e+02
  -7.631420e+00   2.318623e+02
  -1.725295e+02   2.092623e+02
  -2.539375e+02   8.588948e+01
  -1.189006e+02  -3.889505e+01
   4.668343e+01  -9.311351e+01
   5.774831e+01  -1.500511e+01
  -5.519408e+01   1.065166e+02
  -1.576876e+02   4.963387e+01
  -1.590444e+02  -1.486326e+02
  -2.343014e+01  -1.903345e+02
   1.362053e+02  -9.247611e+01
   1.012982e+02  -5.112255e+01
   3.272622e+01   6.041056e+01
  -7.251471e+01   2.906517e+01
  -2.131854e+01  -7.976853e+01
   7.664495e+01  -1.442826e+02
   1.632889e+02   3.006555e+01
   1.588072e+02   1.147333e+02
   4.210707e+01   1.721893e+02
  -1.088795e+02   9.866687e+01
  -2.030072e+02   2.148363e+01
  -1.345919e+01  -1.072332e+02
   7.474114e+01  -1.160600e+02
   4.093122e+01  -1.506869e+01
  -1.120065e+01   2.203984e+01
  -4.931792e+01   9.607022e+00
   2.829086e+01  -8.336127e+00
   5.782430e+01   1.414684e+01
   6.685385e+01   7.527226e+01
  -5.711901e+00   1.594528e+02
  -1.494977e+02   1.264638e+02
  -2.302756e+02   5.588545e+00
  -1.592902e+02  -1.289891e+02
  -5.461458e+01  -2.113598e+02
   7.815470e+01  -1.531787e+02
   1.431606e+02   4.365806e+00
   8.216050e+01   3.964138e+01
   5.184926e+01   2.859308e+01
   7.089976e+01   4.451522e-01
   8.057455e+01  -1.216933e+01
   8.272756e+01   6.124905e+01
  -2.510285e+01   9.657799e+01
  -9.486399e+01   4.454983e+01
  -9.640891e+01  -4.212590e+01
   2.178693e+01  -1.373815e+02
   1.438062e+02  -7.269461e+01
   2.052776e+02   5.932566e+01
   6.393323e+01   2.167338e+02
  -1.408512e+02   1.545201e+02
  -2.495388e+02   6.196310e+01
  -2.178699e+02  -8.438989e+01
  -6.695090e+01  -1.546814e+02
   3.018804e+01  -1.200218e+02
   6.376584e+01  -5.727715e+01
   1.083740e+02  -7.780206e+01
   4.691218e+01  -9.962259e+01
   2.145362e+01  -4.260802e+01
   1.074227e+02   1.854195e+01
   1.000363e+02   1.268477e+02
   2.142189e+01   1.930814e+02
  -8.976922e+01   1.591309e+02
  -1.363655e+02  -1.908608e+01
  -7.031741e+01  -1.164654e+02
  -4.795495e+01  -9.646953e+01
   9.163430e+01  -5.101473e+01
   6.340065e+01   2.097396e+01
   3.171544e+00   6.798105e+01
  -1.226029e+01   2.973759e+01
   1.315189e+01   2.740050e+01
   1.071206e+02  -2.376870e+01
   1.910754e+01   3.670443e+01
  -7.338211e+01   6.003952e+01
  -1.170413e+02   4.947806e+01
  -1.616294e+02  -6.751223e+01
  -2.415024e+01  -7.881307e+01
   1.288994e+02  -8.967899e+01
   1.132658e+02  -3.605914e+00
   1.897705e+01   5.538125e+01
  -7.446744e+01   2.903005e+01
  -6.655603e+01   1.869284e+00
  -3.857504e+01  -2.266377e+01
   2.726280e+01  -1.929671e+01
   4.143777e+01  -8.731513e-01
   4.289080e+01   3.889821e+01
   6.495221e+01   4.369726e+01
   6.351545e+01   3.756765e+01
   5.535722e+01  -1.506368e+01
   3.192725e+01   8.977770e+01
  -1.428548e+01   1.310512e+02
  -1.422193e+02   1.358558e+02
  -1.521231e+02   2.754740e+01
  -9.842012e+01  -8.067396e+01
   1.366292e+01  -1.424683e+02
   1.204263e+02  -8.897397e+01
   7.428938e+01   2.401161e+01
  -6.501017e+01  -1.174479e+01
  -1.492105e+02  -3.146535e+01
  -3.883610e+01  -7.075377e+01
   9.216124e+01  -9.039528e+01
   1.398552e+02  -2.534797e+01
   1.113069e+02   5.173997e+01
   3.346562e+01   6.971890e+01
  -6.002866e+01   4.710049e+01
  -3.104840e+01   1.577279e+01
   3.500110e+01   2.307364e+01
   7.810073e+01   1.534056e+01
   4.068420e+01   1.346531e+02
  -8.553875e+01   1.115761e+02
  -1.294768e+02  -7.460444e+00
  -7.454982e+01  -1.060170e+02
  -5.431198e+00  -1.373306e+02
   4.180952e+01  -1.367173e+02
   1.089310e+02   1.218458e+01
   5.731818e+01   1.034390e+02
  -2.351773e+01   9.219403e+01
  -3.411048e+01   7.073400e+00
  -3.788885e+01  -7.077371e+00
   2.057842e+01  -1.479752e+00
   1.098159e+01   2.041320e+01
  -1.872841e+01   2.469494e+01
  -5.677902e+01  -1.281438e+02
  -5.199263e+00  -1.159159e+02
   2.084105e+01  -2.959588e+01
   1.603708e+02   4.281990e+01
   1.063394e+02   3.798637e+01
   1.680205e+01   6.244383e+01
  -7.702557e+01   7.902947e+00
  -4.818548e+01  -1.973632e+01
  -5.763512e+00  -1.301030e+01
   6.521089e+00  -1.304377e+01
   3.541303e+01  -3.523165e+01
  -2.553342e+01   3.408645e+00
   5.098297e+00   2.004838e+01
   4.596973e+01  -3.987699e+01
   7.098648e+01   1.322878e+01
   5.075454e+01   5.828461e+01
  -6.772735e+01   9.376132e+01
  -1.608554e+02   5.388908e+01
  -1.481319e+02  -6.855492e+01
  -2.399062e+01  -1.407023e+02
   8.280832e+01  -1.381420e+02
   1.159482e+02  -5.717126e+01
   6.075905e+01   2.302228e+01
   3.083528e+01  -5.111241e+00
   2.265081e+01   1.247392e+01
  -1.461730e+01  -4.421534e+00
   2.811854e+01   2.574526e+01
   3.994226e+01   5.357582e+01
   2.164847e+01   6.611145e+01
  -3.790575e+01  -2.622796e+01
  -6.507525e+01  -1.083594e+02
  -1.263103e+00  -7.799988e+01
   8.854084e+01   7.245091e-01
   8.718256e+01   3.917433e+01
   1.830586e+01   9.878254e+01
  -3.448005e+01   2.151792e+01
  -8.393698e+01   1.024828e+01
  -1.308381e+01  -8.163894e+00
   5.715297e+01  -6.092893e+01
   2.259656e+01  -2.529333e+01
  -2.683407e+01   8.371297e+00
  -1.683350e+01  -1.710055e+01
  -1.433355e+01  -1.394991e+01
   7.312645e+01  -7.170060e+01
   6.787531e+01   7.345556e-01
   5.099241e+01   1.835276e+01
  -2.535000e+01   4.846422e+01
  -6.096939e+01   6.069482e+01
  -1.746853e+01   6.599380e+01
   2.957023e+01  -5.732134e+01
  -2.201063e+01   8.798661e+00
   5.764955e+01  -1.368354e+01
   4.968868e+01   6.568341e+01
   3.597494e+01   1.033495e+01
  -3.441746e+01  -4.024493e+01
  -2.724693e+01  -3.889269e+01
  -3.791184e+01  -4.309473e+01
   8.831189e+00  -5.116087e+00
   1.069443e+01  -2.449370e+01
  -5.360714e+00  -6.994331e+01
   2.456510e+01  -2.442923e+01
   3.206784e+01  -4.225876e+01
   2.226187e+01   5.278152e+01
  -2.506784e+01   6.056544e+01
  -3.892862e+01   2.665151e+01
  -4.293361e+01  -2.805892e+01
  -4.054630e+01  -9.121589e+01
   3.755289e+01  -1.675885e+01
   1.114272e+02   2.716013e+01
   3.829516e+01   1.327120e+01
  -4.088351e+01   3.891307e+01
  -5.231361e+01   4.007481e+01
  -2.014312e+01  -2.895319e+01
   3.465582e+01   1.977239e+01
   2.574111e+01   1.080702e+01
  -4.539540e+01   2.869146e+01
  -5.788698e+01   3.745756e+01
