
 $NMID
 id='ANONYMOUS ', fmtdat='(2E16.6)'
 volume=1.0
 tramp=1.0
 $END
   2.145204e+03  -7.882537e+01
   1.678036e+03   1.125247e+03
  -5.913986e+01   1.721223e+03
  -8.973720e+02   1.080302e+03
  -5.794576e+02   3.908214e+01
   4.010309e+01  -4.691769e+01
   2.600368e+02   8.394743e+01
   1.458650e+02   3.846770e+02
  -3.316255e+02   5.153332e+02
  -5.524769e+02   1.926172e+02
  -2.880906e+02  -3.205971e+02
  -5.999704e+01  -4.776624e+02
   2.036397e+02  -1.775312e+02
   1.972379e+02   2.868858e+02
  -2.845287e+01   4.542231e+02
  -2.666499e+02   1.052854e+02
  -2.406711e+02  -3.895073e+02
   8.133365e+01  -4.940695e+02
   3.493854e+02  -2.196391e+02
   3.334307e+02   1.211559e+02
   9.583355e+01   2.427987e+02
  -4.915178e+01   2.076409e+02
  -1.463537e+01   1.011163e+02
   1.059854e+02   7.376207e+01
   2.454811e+02   2.160946e+02
   1.951074e+00   2.348751e+02
  -3.113702e+02   1.921290e+02
  -5.060207e+02  -1.185510e+02
  -2.473730e+02  -2.119636e+02
   1.504164e+02  -2.086229e+02
   3.319454e+02  -1.577882e+01
   2.028102e+02   2.577931e+02
  -1.843878e+02   3.007784e+02
  -2.956287e+02   8.907313e+01
  -2.250086e+02  -9.519008e+01
  -8.579318e+01  -2.146380e+02
  -4.874733e+01  -1.274959e+02
   9.722362e+00  -1.982542e+01
  -1.505021e+02   9.962364e+01
  -2.142315e+02  -2.759257e+01
  -1.616035e+02  -3.396971e+02
   8.530518e+01  -3.136597e+02
   2.275843e+02  -1.007166e+02
   1.082750e+02   2.151074e+02
  -1.096077e+02   1.164466e+02
  -1.395771e+02  -1.952118e+02
   5.763380e+01  -2.785759e+02
   3.264996e+02  -5.334479e+01
   3.413065e+02   2.682841e+02
   1.162122e+02   3.298221e+02
  -1.693236e+02   1.906956e+02
  -3.835738e+02   1.480190e+01
  -2.606362e+02  -1.467315e+02
  -1.127859e+01  -1.981590e+02
   2.196461e+02  -9.420168e+01
   2.180064e+02   5.723539e+01
   2.135934e+01  -1.451067e+01
  -5.053695e+01  -4.391598e+01
   7.187803e+01  -1.065101e+01
   2.051081e+02   2.798698e+01
   1.051699e+02   1.139387e+02
  -1.213969e+02   1.372748e+02
  -2.503543e+02   5.335692e+01
  -1.812690e+02  -9.263081e+01
   4.648155e+01  -2.002002e+02
   2.099342e+02  -2.444456e+02
   2.871117e+02  -1.144802e+02
   1.555791e+02   1.201632e+02
   4.997818e+01   2.229004e+02
  -5.199005e+01   2.736334e+02
  -1.811597e+01   1.265281e+02
  -7.881055e+00   9.889368e+01
  -1.124274e+02   7.809199e+01
  -2.154678e+02   6.475666e+01
  -1.407909e+02  -7.219512e+01
  -4.492370e+01  -1.533643e+02
   4.861905e+01  -1.307398e+02
   1.245175e+02   3.433477e+01
   9.359766e+01   1.894977e+02
  -6.094435e+00   1.833348e+02
  -1.801431e+02   5.395638e+01
  -1.507842e+02  -9.848916e+01
  -1.351074e+02  -1.689675e+02
   1.134869e+01  -2.109407e+02
   1.350047e+02  -1.323607e+02
   6.606596e+01  -5.954029e+01
   7.680580e+01  -1.595084e+01
   1.885015e+02   1.651214e+00
   2.811994e+02   8.323505e+01
   1.948970e+02   2.257956e+02
  -2.614453e+01   2.804519e+02
  -2.341718e+02   2.656224e+02
  -3.362776e+02   1.612926e+02
  -1.643388e+02  -6.472275e+01
  -1.271730e+01  -1.476766e+02
   5.091382e+01  -1.688034e+02
  -6.397102e+00   4.935657e+00
  -4.578280e+01  -1.448352e+01
  -7.537418e+01   2.771599e+01
  -2.799988e+00  -1.280300e+02
   1.069546e+02  -5.844576e+01
   8.666293e+01   5.960840e+01
  -4.431592e-01   2.568734e+01
  -9.313214e+01  -3.760810e+00
  -1.093189e+02  -1.339685e+02
  -1.234228e+01  -2.164329e+02
   1.624864e+02  -1.763130e+02
   2.838191e+02   6.998622e+01
   2.044331e+02   1.885245e+02
   2.474747e+01   1.876093e+02
  -9.610969e+01   1.231429e+02
  -1.361119e+02  -1.053579e+01
  -4.614110e+01  -8.585245e+00
   4.147861e+01   4.801871e+01
   1.825764e+01   6.072934e+01
  -8.365335e+01   2.992043e+01
  -1.324586e+02  -4.693858e+01
  -2.401549e+01  -2.436566e+01
   6.044595e+01  -2.498135e+00
   3.308793e+01   4.770296e+01
  -9.015308e+01   7.744729e+01
  -1.641410e+02  -1.274162e+01
  -1.917349e+02  -1.321635e+02
  -2.119875e+01  -1.528124e+02
   1.539215e+02  -1.467253e+02
   1.974838e+02  -6.524169e+01
   9.449981e+01   1.809091e+01
  -2.768995e+01   9.737391e+01
  -4.612032e+01   2.781324e+01
   4.167319e+01  -2.786036e+01
   1.361599e+02  -2.910017e+01
   1.200975e+02   6.244883e+01
   6.800926e+01   1.673432e+02
  -5.729523e+01   6.969960e+01
  -7.891232e+01   6.360115e+01
  -2.780711e+01  -7.434481e+01
   5.089201e+01  -3.341952e+00
   3.281555e+01   4.235012e+01
  -1.631789e+01   8.581455e+01
  -1.375891e+02   1.335515e+01
  -1.431665e+02  -1.096716e+02
   4.072985e+01  -1.299350e+02
   7.168807e+01  -7.953916e+01
   1.206787e+02  -1.195046e+01
   6.196867e+01   9.414828e+01
  -3.129890e+01   3.864275e+01
  -2.502675e+01   2.261877e+01
   3.119636e+01  -4.760154e+01
  -1.655020e+01   1.076771e+01
  -1.435051e+01   2.739259e+01
  -7.004729e+01   4.262355e+00
  -7.909950e+01  -5.250866e+01
  -2.923753e+01  -1.246161e+02
   8.788170e+01  -8.508126e+01
   1.691816e+02  -1.728110e+01
   1.699467e+02   8.484751e+01
   3.064937e+01   1.236036e+02
  -3.417366e+01   1.313094e+02
  -6.112545e+01   1.928900e+01
  -6.412343e+01  -3.173271e+01
  -1.588541e+01  -1.212529e+01
  -2.911839e+01   2.498088e+01
  -6.876657e+01  -4.241651e+00
  -3.559201e+01   7.916289e-01
   2.205444e+01  -9.308430e+01
   8.307919e+01  -5.410610e+01
   6.944781e+01   1.046142e+01
  -1.251929e+01   9.707135e+01
  -1.299954e+02   4.891510e+01
  -1.288750e+02  -2.879382e+01
  -4.449576e+01  -1.775988e+02
   8.550147e+01  -1.195840e+02
   2.095396e+02  -7.187576e+01
   1.809106e+02   5.365239e+01
   8.318858e+01   1.089919e+02
  -5.306973e+00   8.914107e+01
  -7.025919e+01   1.943953e+01
  -7.042710e+01   7.928114e+01
  -5.033588e+01   5.330386e+01
  -9.251696e+01   1.429178e+01
  -8.515293e+01  -2.608758e+01
  -1.039046e+02  -8.828403e+01
   1.568966e+01  -1.504650e+02
   6.840637e+01  -1.297704e+02
   1.110098e+02  -6.672277e-01
   1.052919e+02   5.193942e+01
   3.115852e+01   6.871254e+01
  -5.860132e+01   8.252503e+01
  -3.597437e+01  -2.538866e+01
  -4.813451e+00  -7.631059e+01
   4.645933e+01  -9.663901e+00
  -2.947060e+01  -1.559348e+01
  -3.888183e+01   1.247422e+01
  -6.262101e+01  -2.008325e+01
   3.644293e+01  -1.495957e+01
   1.444394e+02   1.581036e+01
   1.504509e+02   5.840166e+01
   1.459340e+01   8.953492e+01
  -5.825938e+01   4.457504e+01
  -1.283804e+02  -4.900457e+00
  -6.621909e+01  -4.525159e+01
   8.136384e+01  -5.509869e+01
   4.748400e+01   3.559716e+01
   5.547684e+00   3.746579e+01
  -1.535358e+01   1.242989e+01
  -5.954321e+01  -8.999689e-01
  -2.146922e+01  -1.430650e+01
  -3.628214e+01  -2.145103e+01
  -3.446191e+01   2.914652e+01
  -5.199586e+01   1.918487e+01
  -3.364691e+01  -4.731807e+01
  -2.353781e+01  -1.000667e+02
   1.020801e+02  -1.048277e+02
   1.799126e+02  -3.628375e+01
   7.567245e+01   8.145612e+01
  -1.523431e+01   1.348842e+02
  -8.693325e+01   6.055725e+01
  -3.031140e+01  -9.639106e+00
   6.428779e+01   1.951410e+00
   7.902358e+01  -1.039481e+01
   3.157551e+01   8.973229e+01
  -6.791823e+01   6.296816e+01
  -1.086564e+02   1.724001e+01
  -1.113554e+02  -2.195205e+01
  -4.375569e+00  -5.749366e+01
   4.143022e+01  -2.247414e+01
   6.774468e+01  -1.833800e+01
   7.473734e+00  -3.559946e+01
  -7.753605e+01  -1.030471e+01
  -2.657135e+01  -7.970087e+01
   6.001022e+01  -1.093035e+02
   1.520057e+02  -4.343346e+01
   1.018424e+02   7.750681e+01
   4.146180e+01   1.335934e+02
  -4.808758e+01   8.330652e+01
  -8.412877e+01  -2.745304e+01
  -3.081737e+01  -6.138208e+01
  -6.725676e+00  -1.079373e+02
  -2.041404e+01  -4.123976e+00
  -2.703069e+01   6.123687e+01
   7.283303e+01  -9.948599e+00
   9.331739e+00   2.403174e+01
  -3.186989e+01   5.469925e+00
   5.452946e+01   4.585521e+01
   1.714019e+01   7.038632e+01
  -3.718004e+01   1.325460e+01
  -9.360886e+01  -1.038452e+01
  -9.916930e+01  -7.211538e+01
  -4.761645e+01  -6.898276e+01
   1.246875e+02  -1.254115e+01
   4.892327e+01   1.234016e+01
   1.240833e+01  -2.075590e+00
  -6.134096e+01   3.228825e+01
   7.939684e-01   1.491353e+01
   1.271049e+01   1.210658e+01
   9.648476e+00  -2.393480e+01
  -6.428048e+01  -1.786989e+01
  -6.641187e+01  -4.510398e+01
   1.679714e+01  -4.179110e+01
   6.932902e+01  -8.235341e+01
   1.357758e+02  -3.342912e+01
   1.006883e+02   4.320872e+01
   6.359782e+01   1.018658e+02
  -8.276025e+01   1.444436e+02
  -7.375031e+01   4.274486e+01
  -4.597056e+01  -3.091130e+01
   1.213011e+00  -2.844165e+01
  -5.548151e+01   1.292335e+01
  -1.083999e+01  -1.046173e+01
  -5.332895e+01  -5.821066e+01
  -2.241094e+01  -8.652834e+01
   3.161105e+01  -5.484051e+01
   2.303578e+01   1.850818e+01
   8.482766e+01   6.417037e+01
   1.023788e+01   8.592581e+01
  -3.502728e+01  -3.093240e+00
  -1.003921e+02  -2.873977e+00
  -4.968482e+01  -6.459051e+01
   1.176669e+01  -7.180845e+01
   2.713177e+01  -1.436120e+01
  -1.787571e+01   7.144468e+01
  -1.853496e+01  -4.254843e+00
  -5.403127e+01   1.473271e+01
   5.423653e+00  -2.787225e+01
   4.280503e+01  -3.366710e+01
   2.709190e+01  -3.449359e+01
  -3.125787e+01   3.685744e+01
  -7.844859e+01   4.262332e+01
  -4.904549e+01  -8.832827e+00
   1.624839e+00  -5.564208e+01
   2.860441e+01  -5.662985e+01
   8.687172e+01  -1.169246e+01
   2.548993e+00   5.443804e+01
  -2.978782e+01   4.055409e+01
   2.834892e+00  -6.396941e+01
  -3.534904e+01  -2.370087e+01
   1.769688e+01  -7.807616e+00
   4.671406e+01  -1.001601e+01
   6.441696e+01   3.462747e+01
  -6.039043e-01   1.407839e+01
  -3.955961e+01  -1.666055e+01
  -2.251622e+01   1.248342e+01
  -1.685999e+01   1.789214e+01
  -5.046937e+00   2.129596e+01
  -1.560287e+01  -4.336350e+00
  -4.476837e+01  -2.047464e+01
  -7.839623e+00  -2.805820e+01
   4.316396e+00  -3.935882e+01
   3.086290e+01   4.152198e+01
   3.776989e+01   3.969361e+01
  -2.416875e+01   5.293890e+01
  -4.412308e+01  -2.613786e+00
  -5.248321e+01  -3.879072e+01
   9.594262e+00  -4.705100e+01
   5.430594e+00   7.144505e+00
   1.469710e+01   1.815163e+01
  -1.578843e+01   4.257290e+00
  -4.457588e+01  -1.381383e+01
   2.462633e+01  -3.105280e+01
   5.696782e+01  -5.346438e+01
