
 $NMID
 id='ANONYMOUS ', fmtdat='(2E16.6)'
 volume=1.0
 tramp=1.0
 $END
  -3.457849e+03  -4.481614e+01
  -2.320742e+03  -1.805214e+03
  -1.025210e+02  -2.243421e+03
   1.686451e+03  -1.202556e+03
   7.829118e+02   7.092742e+01
  -1.832489e+02   2.095762e+02
  -5.098087e+02  -1.288007e+02
  -1.031282e+02  -6.837765e+02
   5.005719e+02  -7.522919e+02
   7.892669e+02  -1.073691e+02
   4.437862e+02   6.342764e+02
  -2.040499e+02   6.477717e+02
  -3.620725e+02   1.958279e+02
  -4.010061e+02  -3.837667e+02
   9.949658e+01  -5.715317e+02
   4.435752e+02  -5.129315e+01
   3.533380e+02   4.859768e+02
  -2.137920e+02   5.643953e+02
  -4.925304e+02   2.187440e+02
  -4.365554e+02  -1.996469e+02
  -6.561614e+01  -3.854774e+02
   1.490051e+02  -2.592739e+02
   1.096517e+02  -1.222533e+02
  -1.444330e+02  -2.533768e+01
  -2.646714e+02  -1.860379e+02
  -2.309381e+01  -3.003436e+02
   4.550255e+02  -2.283479e+02
   6.374865e+02   1.871685e+02
   3.001374e+02   3.853878e+02
  -3.175761e+02   3.481426e+02
  -5.760756e+02  -9.327361e+01
  -2.179830e+02  -3.929527e+02
   2.476811e+02  -3.756498e+02
   4.185027e+02  -9.843294e+01
   3.327103e+02   1.458199e+02
   9.696043e+01   3.231223e+02
  -8.991561e+01   1.566248e+02
  -3.077630e+01  -8.773419e+01
   1.158214e+02  -2.171657e+02
   2.319687e+02   6.945137e+01
   8.517523e+01   4.846910e+02
  -2.259453e+02   4.691668e+02
  -3.853817e+02   9.832264e+00
  -1.499265e+02  -4.279663e+02
   1.328529e+02  -1.565574e+02
   1.735003e+02   2.646861e+02
  -7.452061e+01   4.099929e+02
  -4.735548e+02   5.751884e+01
  -4.158391e+02  -3.370474e+02
  -1.787143e+02  -4.825286e+02
   2.941679e+02  -2.385260e+02
   5.501507e+02  -1.183381e+01
   3.517702e+02   3.001558e+02
  -4.408448e+01   2.716682e+02
  -3.116848e+02   1.059584e+02
  -1.866224e+02  -7.446343e+01
   3.716935e+01  -1.070036e+02
   7.237732e+01   9.944524e+01
  -9.133019e+01   1.117970e+02
  -2.748416e+02  -3.722580e+01
  -1.049077e+02  -1.710743e+02
   1.804661e+02  -2.329481e+02
   2.780286e+02  -9.787691e+01
   2.108932e+02   1.557917e+02
  -3.475931e+01   2.712597e+02
  -2.623957e+02   3.496237e+02
  -3.398779e+02   1.758390e+02
  -2.527063e+02  -1.091373e+02
  -1.182675e+02  -3.688635e+02
   5.393368e+01  -3.523101e+02
   4.076594e+01  -1.180437e+02
   8.202657e+01  -5.701990e+00
   9.028269e+01  -1.073432e+02
   2.299501e+02  -1.006136e+02
   2.278625e+02   2.508989e+01
   1.245394e+02   2.665761e+02
  -7.077131e+01   2.072085e+02
  -1.809793e+02   3.456414e+00
  -1.659381e+02  -2.223013e+02
   4.172912e+01  -2.744152e+02
   2.243815e+02  -1.159391e+02
   2.851464e+02   1.609994e+02
   1.848944e+02   2.838997e+02
  -2.995739e+01   2.842659e+02
  -1.677959e+02   1.741364e+02
  -1.341131e+02   4.689526e+01
  -1.494350e+02   3.734127e+01
  -2.470849e+02   2.387510e+01
  -3.791657e+02  -1.159740e+02
  -2.972597e+02  -2.893190e+02
   4.334048e+01  -4.149633e+02
   3.415504e+02  -4.204491e+02
   4.571409e+02  -2.006080e+02
   3.217464e+02   1.063529e+02
   8.786529e-01   2.290602e+02
  -9.771995e+01   2.200971e+02
  -6.876499e+01   7.625740e+01
   1.176425e+02  -5.951620e+01
   1.596474e+02  -5.177065e+00
   8.165824e+00   1.027146e+02
  -1.164114e+02   1.464771e+02
  -1.139277e+02  -3.229536e+01
  -2.745198e+00  -1.141930e+02
   1.590029e+02  -1.166331e+01
   1.436869e+02   1.831088e+02
   1.661571e+01   4.005078e+02
  -2.130875e+02   2.095153e+02
  -3.336041e+02  -4.807282e+01
  -2.726009e+02  -2.163754e+02
  -7.595714e+01  -2.708991e+02
   1.366473e+02  -1.292752e+02
   1.681183e+02   1.159362e+00
   1.403160e+01   7.882363e+00
  -5.056346e+01  -4.073657e+01
  -2.254040e+01  -1.126098e+02
   1.193347e+02  -7.826263e+01
   1.679106e+02  -5.702662e+00
   7.993034e+01   1.255268e+01
  -1.048559e+02   4.183694e+01
  -7.723939e+01  -1.419695e+02
   1.236444e+02  -7.844532e+01
   3.323181e+02   1.409172e+01
   2.444156e+02   1.361637e+02
  -4.357166e+00   2.065517e+02
  -1.663354e+02   2.456045e+02
  -2.539746e+02   1.161961e+02
  -1.722274e+02  -2.559258e+01
   2.277596e+01  -7.509968e+01
   1.117042e+02   3.070100e+01
  -6.590260e+01   8.208346e+01
  -1.613191e+02   7.162569e+01
  -1.704287e+02  -1.102256e+02
  -6.023886e+01  -2.147604e+02
   8.256196e+01  -1.398916e+02
   1.191107e+02  -1.611119e+01
   7.030514e+01   2.695326e+01
   2.141410e+01   2.909319e+00
  -3.517188e+01  -1.135858e+02
   1.095833e+02  -1.101294e+02
   2.632896e+02  -1.657562e+01
   2.123563e+02   6.050955e+01
  -4.558305e+00   1.775411e+02
  -1.336364e+02   1.564191e+02
  -1.821854e+02   2.642260e+01
  -5.026208e+01  -5.186790e+01
   2.835581e+01  -1.080923e+02
   6.192050e+01  -1.755472e+01
  -5.466821e+00   1.638791e+01
  -4.833047e+01   1.509046e+01
   2.949116e+01   1.425593e+01
   6.679848e+01  -2.982120e+00
   1.140158e+02   8.089612e+01
   5.735295e+01   1.573442e+02
  -1.075031e+02   1.622997e+02
  -2.434648e+02   3.194690e+01
  -1.675069e+02  -1.409429e+02
  -8.485027e+01  -2.727589e+02
   1.010067e+02  -1.573979e+02
   1.129724e+02  -1.464820e+01
   7.859649e+01   4.851433e+01
   7.982451e+01   6.088885e+00
   1.918553e+01  -2.055057e+01
   1.286633e+02  -2.032316e+01
   3.834785e+01   6.181457e+01
  -7.509796e+01   9.028581e+01
  -9.354744e+01   6.317178e+01
  -1.234762e+02  -7.572940e+00
   3.735398e+01  -1.107474e+02
   1.853836e+02  -7.196703e+01
   1.871923e+02   8.026780e+01
   7.683945e+01   2.040467e+02
  -1.102757e+02   1.921981e+02
  -2.713302e+02   8.688881e+01
  -2.519757e+02  -7.691191e+01
  -1.278624e+02  -1.441041e+02
   2.395177e+01  -1.213406e+02
   9.837597e+01  -6.426760e+01
   9.116344e+01  -4.885788e+01
   4.909635e+01  -8.331006e+01
   6.989241e+01  -7.748574e+01
   8.607246e+01   3.535277e+01
   1.257091e+02   1.298938e+02
   5.216397e+01   2.707683e+02
  -1.018497e+02   1.471005e+02
  -1.444582e+02  -2.947733e+00
  -1.319625e+02  -7.911561e+01
  -2.023477e+01  -1.742633e+02
   9.296688e+01  -5.803270e+01
   6.947357e+01  -2.788972e+01
   9.049669e+00   3.069311e+01
   1.180383e+01   2.970464e+01
   1.862914e+01   1.119828e+01
   6.259714e+01   2.667441e+01
   2.958919e+01   6.654543e+01
  -7.528615e+01   3.933649e+01
  -1.771022e+02   1.763304e+01
  -1.247102e+02  -5.516488e+01
  -2.571489e+01  -1.270332e+02
   1.494806e+02  -2.137535e+01
   1.166304e+02  -1.593233e+00
   5.590070e+01   6.868649e+01
  -7.713486e+01   3.721236e+01
  -9.105217e+01  -1.877760e+00
  -1.791024e+01  -6.154951e+01
   4.069499e+01  -8.837910e+01
   3.804327e+01   2.887020e+01
   2.008308e+01   5.355665e+01
   2.431394e+01  -1.786170e+00
   2.137318e+01   1.707188e+01
   3.644192e+01   1.298465e+01
   4.437145e+01   7.646286e+01
  -3.252750e+01   9.207532e+01
  -1.421250e+02   1.549582e+02
  -1.654865e+02   1.916920e+01
  -1.444602e+02  -6.462314e+01
  -2.190648e+01  -1.375167e+02
   5.246248e+01  -5.605798e+01
   5.259255e+01  -9.001052e+00
  -7.107729e+01   6.512488e+01
  -1.328942e+02  -4.891873e+01
  -8.259168e+01  -8.339544e+01
   4.969304e+01  -1.116922e+02
   1.773091e+02  -7.161630e+01
   1.612867e+02   2.355709e+01
   5.358927e+01   6.619674e+01
  -1.064799e+02   6.902210e+01
  -5.756058e+01  -2.644549e+01
   4.212870e+01  -2.673164e+01
   1.113459e+02   1.700688e-01
   7.344858e+00   1.182716e+02
  -5.328246e+01   1.953295e+02
  -1.761390e+02   7.563030e+01
  -1.282129e+02  -9.640556e+01
  -1.085220e+01  -1.687507e+02
   6.516259e+01  -1.665638e+02
   1.052749e+02  -2.508996e+01
   7.170951e+01   1.008271e+02
  -1.794782e+00   9.878850e+01
  -1.571234e+01   1.959821e+00
  -2.566881e+01  -1.906339e+01
  -1.536318e+01   5.586531e+00
  -1.353840e+01   5.227261e+01
  -1.252045e+01  -4.485199e+01
  -8.453226e+01  -4.550148e+01
  -2.707673e+01  -7.682665e+01
   6.119951e+01  -6.415994e+01
   1.538875e+02   6.363327e+00
   1.086461e+02   4.622654e+01
   3.381277e+00   6.992604e+01
  -9.713266e+01   3.775124e+01
  -9.196857e+01   2.477371e+01
  -4.127977e+01  -9.119903e+00
   6.074547e+01  -3.979167e+01
   4.661396e+01  -2.575230e+01
  -4.452117e-02   7.580498e+00
  -4.244290e+01  -1.010956e+01
   4.545751e+01   2.203976e+01
   7.317288e+01   5.434724e+00
   3.913217e+01   6.347203e+01
  -1.064598e+02   1.249454e+02
  -1.929153e+02   6.370182e+01
  -1.223295e+02  -6.285029e+01
   7.952407e+00  -1.677566e+02
   5.014941e+01  -1.630170e+02
   1.245812e+02  -5.169938e+01
   6.875324e+01   5.739188e+00
  -2.435039e+01   3.692007e+01
  -5.077361e+00  -1.175818e+01
   1.815629e+01  -2.959990e+00
   3.921933e+01   6.707421e+01
   5.797347e+01   9.357122e+01
  -5.322555e+01   5.750544e+01
  -4.458388e+01   1.498464e+01
  -8.631481e+01  -1.218781e+02
  -5.068608e+00  -1.420809e+02
   9.518919e+01  -2.372060e+01
   8.699105e+01   1.005707e+02
   4.462666e+01   9.883241e+01
  -2.632983e+01   4.088238e+01
  -1.251822e+02   2.959368e+00
  -2.667688e+01  -6.963860e+01
   2.106052e+01  -8.110021e+01
   9.998288e+00  -1.739276e+01
  -2.989204e+01   2.423224e+01
  -1.871990e+00   3.705511e+01
  -7.575319e-01  -5.688806e+00
   5.957805e+01  -5.668801e+01
   1.085820e+02  -7.187148e+01
   1.573178e+01   1.982669e+01
   1.319166e+00   9.494918e+01
  -5.485034e+01   6.446808e+01
  -5.072221e+01   4.424788e+01
   1.790806e+01  -3.191173e+01
   6.507769e+01  -5.250190e+01
   3.816141e+01  -3.777789e+00
   7.481354e+00   7.623398e+01
  -5.464223e+01   1.416409e+01
  -4.982778e+01  -1.112229e+01
  -5.626864e+01  -5.146736e+00
  -2.118737e+00  -2.908130e-01
   3.633787e+00  -2.337717e+01
   3.245386e+01  -1.819491e+01
  -2.002646e+00  -2.964525e+01
  -1.856580e+00  -8.196712e+01
  -7.987425e+00   2.825664e+01
   3.446462e+01   2.583749e+01
   4.550946e+00   2.652491e+01
  -3.831465e+01   1.494899e+01
  -4.706338e+01  -1.425610e+00
  -1.110071e+01  -7.477356e+01
   5.033783e+01  -4.652507e+01
   8.589049e+01  -9.758714e+00
   3.115037e+01   6.772395e+01
  -6.021351e+01   2.898596e+01
  -7.959678e+01   8.622031e+00
  -5.694010e+01  -1.850626e+01
   2.626587e+01  -1.537638e+01
   3.138883e+01   1.543746e+01
  -1.484604e+00   4.306336e+00
  -9.386469e+01   2.632108e+01
