
 $NMID
 id='ANONYMOUS ', fmtdat='(2E16.6)'
 volume=1.0
 tramp=1.0
 $END
  -4.177771e+03   8.105411e+01
  -2.421176e+03  -2.595245e+03
   8.589914e+02  -2.628177e+03
   2.035062e+03  -8.364666e+02
   9.877990e+02   6.546468e+02
  -6.075605e+02   6.286645e+02
  -8.729031e+02  -3.377679e+02
   1.906056e+02  -1.060041e+03
   7.932643e+02  -6.673431e+02
   9.007378e+02   5.893142e+01
   3.469058e+02   8.048724e+02
  -1.483684e+02   8.909674e+02
  -7.131959e+02   8.351170e+01
  -3.062797e+02  -7.533207e+02
   2.372125e+02  -7.608438e+02
   5.926979e+02  -3.596484e+01
   2.466931e+02   6.981890e+02
  -2.899620e+02   5.580591e+02
  -5.505604e+02   9.820334e+01
  -3.622106e+02  -3.361438e+02
  -7.538385e+00  -4.117959e+02
   2.888339e+02  -2.371620e+02
   2.057608e+02  -3.380535e+01
  -1.254816e+02   6.319431e+01
  -3.789065e+02  -9.042330e+01
  -1.554528e+02  -4.116551e+02
   3.863498e+02  -4.448684e+02
   9.198979e+02   6.433807e+01
   4.265406e+02   5.221861e+02
  -4.042911e+02   4.853492e+02
  -6.946224e+02  -4.543101e+01
  -3.501936e+02  -4.799767e+02
   2.139422e+02  -4.428330e+02
   5.551026e+02  -2.130573e+02
   3.714074e+02   2.166097e+02
   9.969824e+01   4.393935e+02
  -1.715858e+02   3.224405e+02
  -2.086007e+02  -2.055232e+02
   1.694894e+02  -4.320347e+02
   4.872227e+02   6.825457e+01
   1.888983e+02   7.465713e+02
  -2.179327e+02   7.211949e+02
  -5.848005e+02  -8.741380e+00
  -2.675948e+02  -4.606712e+02
   2.379676e+02  -3.080806e+02
   3.929420e+02   3.626956e+02
  -6.602839e+01   5.007449e+02
  -5.222140e+02   1.192653e+02
  -6.007667e+02  -3.711847e+02
  -1.542845e+02  -6.364267e+02
   3.631618e+02  -3.408519e+02
   6.117986e+02   8.333500e+01
   3.538461e+02   3.407561e+02
  -1.091052e+02   4.128191e+02
  -4.723282e+02   3.440235e+01
  -2.562994e+02  -2.021162e+02
   1.483398e+02  -3.198999e+01
   1.836377e+02   1.596791e+02
  -1.375659e+02   2.085922e+02
  -3.456963e+02  -5.068617e+01
  -1.138750e+02  -2.743441e+02
   1.724129e+02  -2.440749e+02
   3.439952e+02  -7.599076e+01
   2.071093e+02   6.069665e+01
  -1.025243e+01   2.565645e+02
  -2.072828e+02   2.915643e+02
  -3.042735e+02   2.210785e+02
  -3.014127e+02  -1.428573e+02
  -2.912307e+01  -3.539850e+02
   1.580911e+02  -3.985244e+02
   1.552671e+02  -1.149953e+02
   3.486506e+01  -1.691223e+01
   7.920745e+01  -1.087890e+02
   2.103540e+02  -1.024400e+02
   3.058753e+02   4.418431e+01
   1.771497e+02   2.320039e+02
  -1.101187e+02   2.887510e+02
  -1.956279e+02  -5.973990e+00
  -1.795924e+02  -2.174849e+02
  -2.083934e+01  -3.115672e+02
   2.907940e+02  -8.881595e+01
   3.485858e+02   1.668492e+02
   1.856126e+02   3.433217e+02
  -8.334041e+01   3.049072e+02
  -1.967174e+02   1.551583e+02
  -1.480430e+02  -3.813020e+01
  -1.113391e+02   7.333235e+01
  -2.410561e+02   7.015391e+01
  -3.726286e+02  -1.332153e+01
  -3.210092e+02  -2.847402e+02
  -2.513983e+01  -4.435565e+02
   3.477088e+02  -4.219867e+02
   4.684011e+02  -1.908093e+02
   2.714986e+02   5.258908e+01
   7.197404e+01   2.988555e+02
  -1.287997e+02   2.581471e+02
  -6.973397e+01   4.928690e+01
   8.954291e+01  -8.324037e+01
   1.760562e+02   1.361308e+01
   5.937586e+01   2.139701e+02
  -1.716613e+02   1.733390e+02
  -1.827435e+02  -4.862576e+01
  -1.979125e+01  -1.448085e+02
   1.626566e+02  -2.174957e+01
   1.597299e+02   2.201400e+02
  -6.577406e+00   3.313942e+02
  -2.180681e+02   1.834758e+02
  -3.674590e+02  -5.547321e+01
  -2.667068e+02  -2.130313e+02
  -9.681285e+01  -2.753663e+02
   1.054991e+02  -1.701139e+02
   1.740404e+02  -1.113470e+01
   6.977420e+01   2.502832e+01
  -4.669306e+01  -2.241077e+01
  -5.714383e+01  -1.056693e+02
   1.228351e+02  -7.664356e+01
   1.752960e+02  -2.700856e+01
   5.849617e+01   5.523351e+01
  -1.117353e+02   3.065745e+01
  -5.663526e+01  -9.707469e+01
   1.378242e+02  -8.303706e+01
   2.754840e+02  -1.883885e+01
   2.849870e+02   1.442111e+02
   3.867512e+01   2.452195e+02
  -1.969964e+02   2.386802e+02
  -3.083902e+02   9.269160e+01
  -2.005347e+02  -6.563072e+01
   2.342908e+01  -1.256953e+02
   9.444156e+01  -1.266680e+01
  -2.785050e+01   1.190475e+02
  -1.810592e+02   8.062168e+01
  -1.922814e+02  -8.832629e+01
  -9.354662e+01  -2.208511e+02
   6.038837e+01  -1.692024e+02
   1.240087e+02  -5.655010e+01
   5.877410e+01   5.355629e+01
  -1.356134e+01  -1.807944e+01
  -3.272872e+01  -5.541586e+01
   4.426348e+01  -1.535946e+02
   2.201681e+02  -2.456758e+01
   2.303493e+02   9.422846e+01
   4.593779e+01   1.788753e+02
  -1.891333e+02   1.803311e+02
  -1.883493e+02   2.145417e+01
  -6.279075e+01  -8.115130e+01
   1.080789e+02  -1.417492e+02
   7.619667e+01  -3.879182e+01
   3.677211e+01  -1.028674e+01
   2.199409e+01   3.952169e+01
  -9.909004e+00   4.341318e+00
   8.383369e+01  -9.051948e+00
   6.946110e+01   7.192257e+01
   3.211486e+01   1.375310e+02
  -1.170625e+02   1.395138e+02
  -2.272704e+02   5.329895e+00
  -2.047122e+02  -1.201947e+02
  -4.261974e+01  -2.357687e+02
   7.933205e+01  -1.279750e+02
   1.184864e+02  -2.478937e+01
   5.517803e+01   5.326313e+01
   4.403177e+01   4.307251e+00
   3.975644e+01  -1.586031e+01
   8.365154e+01  -1.805671e+01
   4.025985e+01   3.052888e+01
  -1.604603e+01   9.060019e+01
  -1.041401e+02   4.501380e+01
  -1.279462e+02  -5.421067e+01
  -1.388752e+01  -1.275007e+02
   1.621192e+02  -5.324431e+01
   1.796849e+02   6.583693e+01
   1.439392e+02   1.678443e+02
  -7.355989e+01   2.159176e+02
  -2.484675e+02   7.559774e+01
  -2.435624e+02  -7.741193e+01
  -1.202813e+02  -1.932072e+02
   4.235902e+01  -1.635264e+02
   1.151704e+02  -1.042517e+02
   8.608321e+01  -6.342912e+01
   4.363101e+01  -1.127436e+02
   1.158497e+02  -6.456693e+01
   1.420995e+02   2.530572e+01
   1.416211e+02   1.132374e+02
   4.196663e+00   2.122328e+02
  -4.577446e+01   1.876718e+02
  -1.525649e+02  -2.483132e+01
  -1.139637e+02  -1.117824e+02
   1.491039e+01  -1.445248e+02
   4.826232e+01  -1.094206e+02
   7.949555e+01   2.583153e+01
   2.059489e+00  -1.466346e+01
  -1.711313e+01   3.937437e+01
   1.322892e+01  -8.693059e+00
   8.454333e+01  -8.469593e+00
   4.801853e+01   6.132328e+01
  -4.480472e+01   4.252077e+01
  -1.396009e+02  -4.989259e+01
  -1.593981e+02  -6.215821e+01
  -2.720480e+01  -9.605585e+01
   1.067380e+02  -5.521991e+01
   1.444773e+02  -5.592235e+00
   3.118548e+01   3.576122e+01
  -5.431328e+01   3.223303e+01
  -6.518076e+01  -3.691350e+01
  -2.311506e+01  -6.668764e+01
   5.418947e+01  -6.527737e+01
   7.388895e+01  -8.990734e+00
   3.778018e+01   4.996367e+01
   4.490015e+01   2.906838e+01
   6.517851e+01  -1.217059e+01
   1.128154e+02   2.201185e+01
   4.059650e+01   6.265213e+01
  -2.781314e+01   1.386217e+02
  -1.397225e+02   1.625678e+02
  -1.793993e+02  -8.717684e+00
  -1.195230e+02  -1.191143e+02
  -2.758894e+01  -1.332378e+02
   5.032695e+01  -5.280523e+01
   1.051757e+02   2.296411e+01
  -1.236709e+02   4.817880e+01
  -1.101340e+02  -4.404818e+01
  -4.824643e+01  -1.531680e+02
   1.082558e+02  -9.132069e+01
   1.530634e+02  -2.875539e+01
   1.330894e+02   4.918193e+01
   2.615665e+01   6.469624e+01
  -9.159730e+01   5.650026e+01
  -8.945055e+01   2.320816e+01
   2.227084e+01  -6.163394e+01
   1.016246e+02   5.934785e+01
   5.145283e+01   8.612958e+01
  -1.171738e+02   1.111019e+02
  -1.403540e+02   4.426659e+01
  -9.963210e+01  -6.677982e+01
   1.001710e+00  -2.044767e+02
   6.868980e+01  -1.315144e+02
   1.127213e+02  -7.884254e+00
   6.153289e+01   1.430419e+02
  -1.122710e+01   1.080433e+02
  -2.491240e+01   2.526214e+01
  -5.068417e+01   4.168265e+00
   6.980222e+00  -3.579767e+00
   9.239091e+00   1.726915e+01
  -2.834369e+00  -2.556375e+01
  -2.514613e+01  -1.416197e+02
  -1.584814e+01  -1.410556e+02
   7.215956e+01  -5.516115e+01
   1.431413e+02   2.553149e+01
   1.271014e+02   9.441501e+01
   2.430224e+01   8.782350e+01
  -7.153028e+01   3.485209e+00
  -8.409467e+01  -2.205713e+01
  -2.926767e+01  -7.875697e+00
   2.783677e+01  -4.943088e+01
   2.304794e+01  -3.253545e+01
   7.317111e+00   1.853487e+01
  -6.893276e+00  -3.014122e+00
   3.206173e+01  -2.225526e+00
   8.673301e+01   3.014940e+01
  -2.795892e+01   1.350322e+02
  -1.150115e+02   9.244032e+01
  -2.160144e+02   7.997310e+01
  -1.575901e+02  -8.084674e+01
  -4.303003e+01  -1.528437e+02
   8.371437e+01  -1.812055e+02
   9.278725e+01  -8.455904e+01
   7.833477e+01   6.835476e+01
   2.211818e+01   1.369013e+01
   1.874334e+01  -3.926847e+00
   1.252542e+01  -2.621495e+01
   1.195117e+01   8.382401e+01
   6.795654e+01   9.379312e+01
  -1.603519e+01   6.035380e+01
  -7.864107e+01  -5.087475e+01
  -8.346135e+01  -9.508716e+01
  -9.680130e+00  -9.255811e+01
   6.272199e+01  -5.404646e+01
   1.180289e+02   7.953148e+01
   2.991032e+01   7.799616e+01
  -8.337769e+01   5.190416e+01
  -8.755931e+01  -4.120176e+01
   6.938710e+00  -8.257972e+01
   3.586873e+01  -3.652642e+01
   4.967934e+01  -1.429779e+01
   6.184900e+00   1.022707e+01
  -6.738729e+01  -1.403287e+01
  -6.857359e-01  -2.705174e+01
   8.621628e+01  -6.234534e+01
   1.131851e+02  -9.436585e+01
   7.120851e+01   3.450327e+01
   6.614496e-02   8.029311e+01
  -5.736023e+01   7.978902e+01
  -2.505251e+01  -1.289689e+01
   1.240983e+01  -4.274657e+01
   2.931808e+01  -3.035783e+01
   5.208119e+00   3.545185e+01
   3.047339e+01   5.473147e+01
   3.382239e+01   4.562243e+01
  -2.721520e+01  -3.551634e+01
  -1.671413e+01   6.547932e+00
  -2.806455e+01  -1.438351e+01
   2.332039e+01   3.109511e+01
  -2.438341e+01  -7.087421e+00
  -1.408796e+01  -5.298171e+01
   3.355628e+00  -5.697396e+01
   6.662947e+01   1.147965e+01
   4.845622e+01   3.711988e+01
  -4.638582e+00   8.059024e+01
  -8.186061e+01  -3.567365e+01
  -1.380606e+01  -1.650458e+01
  -2.570613e+01  -3.042861e+01
   5.430924e+01  -6.387331e+01
   9.436743e+01   4.737568e+01
   1.772238e+01   8.818483e+01
  -5.425359e+01   5.539745e+01
  -4.641136e+01   2.583915e+01
  -3.594834e+01  -6.587502e+00
   4.352219e-01   1.328027e+01
   4.959000e+01   3.628590e+01
  -1.582300e+00   3.989959e+01
  -7.322219e+01   1.786423e+01
