
 $NMID
 id='ANONYMOUS ', fmtdat='(2E16.6)'
 volume=1.0
 tramp=1.0
 $END
   3.197148e+03  -3.330105e+01
   1.808819e+03   1.504499e+03
  -1.731058e+02   2.146806e+03
  -1.389335e+03   8.749874e+02
  -5.556049e+02  -3.687229e+02
   2.375593e+02  -1.768329e+02
   5.777921e+02   2.573552e+02
   9.097477e+01   6.565319e+02
  -4.045514e+02   5.565481e+02
  -7.207912e+02  -3.209960e+01
  -4.284071e+02  -5.014415e+02
   3.865586e+01  -6.518558e+02
   3.980686e+02  -1.520922e+02
   1.906494e+02   3.457789e+02
  -6.617470e+01   5.329896e+02
  -3.535597e+02   3.556522e+01
  -2.013330e+02  -4.699644e+02
   2.272142e+02  -5.773062e+02
   4.096886e+02  -1.664410e+02
   3.657088e+02   1.876735e+02
   9.884198e+01   3.094657e+02
  -1.732141e+02   2.076323e+02
  -1.339308e+02   1.171029e+01
   1.037903e+02  -4.808721e+01
   3.053477e+02   1.523251e+02
   2.982924e+01   3.552366e+02
  -4.069932e+02   2.635081e+02
  -5.815938e+02  -1.770569e+02
  -2.778413e+02  -3.753998e+02
   2.868398e+02  -1.767681e+02
   5.536397e+02   9.399079e+00
   2.197247e+02   2.903184e+02
  -2.011339e+02   4.092891e+02
  -4.112523e+02   1.371278e+02
  -3.166188e+02  -1.655019e+02
  -7.205821e+01  -2.689601e+02
   9.490427e+01  -1.775711e+02
   7.450828e+01   8.739472e+01
  -1.512417e+02   1.933071e+02
  -2.463909e+02  -6.458441e+01
  -1.185700e+02  -4.542091e+02
   1.656338e+02  -5.021770e+02
   4.183376e+02   2.012948e+01
   2.422300e+02   3.006505e+02
  -1.919059e+02   1.904440e+02
  -2.357058e+02  -2.320978e+02
   5.881929e+01  -3.599044e+02
   4.437443e+02  -2.502874e+01
   4.624611e+02   2.888426e+02
   1.558726e+02   4.421406e+02
  -2.725573e+02   2.514784e+02
  -4.790472e+02   4.237229e+00
  -3.022336e+02  -2.876542e+02
   5.417227e+01  -2.382561e+02
   2.947746e+02  -8.094837e+01
   2.140393e+02   1.330502e+02
  -4.141828e+01   9.519474e+01
  -8.964001e+01  -3.770103e+01
   1.053988e+02  -9.869824e+01
   2.406692e+02   1.590538e+01
   1.086609e+02   1.856381e+02
  -1.562503e+02   2.120022e+02
  -3.217171e+02   8.604291e+01
  -2.178624e+02  -7.613689e+01
   3.783761e+01  -2.667647e+02
   2.200498e+02  -2.722930e+02
   3.146029e+02  -1.425013e+02
   1.740479e+02   1.327434e+02
   5.551105e+01   2.780347e+02
  -3.654801e+01   2.914055e+02
  -7.296191e+01   1.055850e+02
  -2.055408e+01   4.695118e+01
  -7.643467e+01   6.064269e+01
  -1.866540e+02   6.378681e+01
  -1.780476e+02  -5.811690e+01
  -9.954090e+01  -2.277229e+02
   6.736155e+01  -1.554604e+02
   2.026612e+02   2.195295e+01
   1.139237e+02   2.310075e+02
  -2.359062e+00   2.475540e+02
  -2.005141e+02   1.129526e+02
  -2.750487e+02  -1.456191e+02
  -1.674134e+02  -2.478308e+02
   6.036458e+01  -2.513631e+02
   1.373971e+02  -1.294155e+02
   1.804863e+02  -2.983121e+01
   6.753893e+01  -2.761095e+01
   2.376282e+02  -6.480056e+01
   3.132598e+02   4.717176e+01
   2.451383e+02   2.291943e+02
   6.980249e+00   3.714814e+02
  -2.705458e+02   3.165459e+02
  -4.389952e+02   1.450021e+02
  -2.799412e+02  -1.056969e+02
  -2.112780e+01  -1.853602e+02
   7.778471e+01  -2.007007e+02
   3.649836e+01  -2.082546e+01
  -5.050507e+01   8.260533e+01
  -1.242941e+02  -1.700766e+01
  -2.849036e+01  -1.675997e+02
   1.026490e+02  -1.038046e+02
   1.268299e+02   6.072666e+01
  -2.905445e+01   1.266087e+02
  -1.010052e+02   4.371656e+00
  -1.379644e+02  -1.789898e+02
   2.721803e+01  -2.823698e+02
   2.140996e+02  -2.181834e+02
   2.560751e+02   7.300972e+01
   2.050811e+02   2.248989e+02
   7.101249e+01   2.227382e+02
  -1.274252e+02   1.562312e+02
  -1.578838e+02   1.047038e+01
  -3.237564e+01  -5.243672e+01
   2.673672e+01   3.301814e+01
   2.181590e+01   1.508426e+02
  -1.065459e+02   1.225566e+02
  -1.374166e+02  -2.911053e+00
  -3.445144e+01  -5.305752e+01
   1.702127e+01  -1.321855e+01
   2.880444e+01   4.882346e+01
  -1.504831e+02   7.397317e+01
  -2.460485e+02  -4.603581e+01
  -1.997848e+02  -1.732427e+02
  -1.379403e+01  -1.840844e+02
   1.912149e+02  -1.959716e+02
   1.965276e+02  -1.044561e+02
   1.349636e+02   4.961055e+01
  -2.294151e+01   9.005029e+01
  -9.957262e+01   5.520448e+00
   4.663492e+01  -6.080716e+01
   1.378658e+02  -1.151751e+02
   1.497329e+02   1.083568e+02
   4.709658e+01   1.461915e+02
  -4.619928e+01   1.046834e+02
  -1.183565e+02   4.415863e+01
  -2.403761e+01  -3.939857e+01
   4.394422e+01  -7.942868e+00
   3.852562e+01   6.351884e+01
  -2.955871e+01   6.878111e+01
  -1.851050e+02  -2.455925e+01
  -1.481631e+02  -1.045037e+02
  -2.229152e+01  -1.397425e+02
   1.144217e+02  -1.503299e+02
   1.179110e+02  -1.345354e+01
   3.604925e+01   9.788073e+01
  -5.131963e+01   8.382994e+01
  -7.759049e+01   2.052048e+01
  -3.665330e-01  -4.711502e+01
  -1.242630e+01  -2.904294e+01
  -4.556538e+00   2.335940e+01
  -6.763401e+01   7.483924e+00
  -7.816787e+01  -9.821802e+01
   1.392904e+01  -9.992946e+01
   1.037411e+02  -1.369045e+02
   2.226083e+02   6.764986e+00
   1.974299e+02   1.102085e+02
  -2.154933e+01   1.577428e+02
  -8.095429e+01   1.312878e+02
  -1.308035e+02   8.539677e+00
  -8.160349e+01  -1.818659e+01
  -5.509930e+01  -3.213008e+01
  -8.047193e+01   1.951520e+00
  -1.115012e+02  -4.053182e+00
  -2.942511e+01  -7.776701e+01
   6.684438e+00  -7.176220e+01
   7.123741e+01  -4.000807e+01
   7.378187e+01   1.999513e+01
  -9.512407e+00   6.492359e+01
  -1.632409e+02   7.259556e+01
  -1.732097e+02  -8.622061e+01
  -5.323754e+01  -1.692847e+02
   1.296906e+02  -1.914636e+02
   2.379961e+02  -8.308538e+01
   2.185906e+02   6.777465e+01
   6.056533e+01   1.226836e+02
  -3.209770e+00   8.723887e+01
  -1.081160e+02   5.307459e+01
  -7.004270e+01   5.686393e+01
  -8.237858e+01   7.527417e+01
  -5.869988e+01   3.867373e+01
  -8.321833e+01   1.531366e+01
  -9.827964e+01  -1.358613e+02
  -8.504195e+00  -2.125563e+02
   5.588867e+01  -1.254203e+02
   1.089984e+02  -3.368840e+01
   9.112720e+01   8.883476e+01
   2.956184e+00   1.649085e+02
  -1.035117e+02   1.099514e+02
  -5.288182e+01  -1.009463e+00
  -3.053159e+01  -8.266467e+01
  -2.077632e+01  -3.658412e+01
  -3.236785e+01  -3.592908e+01
  -3.815991e+01  -2.102189e+01
  -1.588195e+01  -2.195520e+01
   6.535533e+01  -4.688530e+01
   1.168972e+02  -1.401126e+00
   1.261457e+02   7.844448e+01
   2.201115e+01   4.862787e+01
  -1.312847e+02   8.871270e+01
  -1.276026e+02  -2.529201e+01
  -3.186378e+01  -2.191336e+01
   5.655952e+01  -2.706636e+01
   6.350201e+01   2.011502e+01
   8.411709e+00   8.128852e+01
  -3.315302e+01   1.258835e+01
  -7.978696e+01   1.437809e+01
  -5.544320e+01   3.242097e+00
  -3.398142e+01  -2.789831e+01
  -3.864748e+01  -1.393644e+01
  -3.136905e+01  -1.240553e+01
  -3.787630e+01  -7.341222e+01
   9.921242e+00  -9.598890e+01
   8.847707e+01  -1.038394e+02
   1.468079e+02  -2.040825e+01
   9.808492e+01   9.422405e+01
   6.252857e+00   1.008354e+02
  -9.396588e+01   5.931007e+01
  -5.152560e+01   3.895426e+00
   5.489966e+01  -2.388013e+01
   1.253476e+02   2.033951e+01
   1.013463e+02   1.142341e+02
  -7.618344e+01   8.323371e+01
  -1.925900e+02   9.839300e+01
  -1.356810e+02  -6.697698e+01
  -4.556005e+01  -3.669405e+01
   8.755048e+01  -3.485582e+01
   4.764103e+01  -6.050847e+00
  -2.392112e+01  -5.295980e+00
  -7.777001e+01  -4.014928e+01
  -4.161802e+01  -1.236061e+02
   1.115899e+02  -1.425031e+02
   1.236050e+02  -2.688397e+01
   1.023123e+02   3.890391e+01
  -3.754461e+00   1.813695e+02
  -4.971406e+01   8.691426e+01
  -1.013243e+02  -1.110504e+01
  -3.462226e+01  -1.102410e+02
   2.910451e+01  -6.078841e+01
   9.508028e+00  -4.033892e+01
   7.664014e+01   4.975426e+01
   2.263802e+01   1.061628e+01
   2.549569e+01  -1.703805e+00
  -9.711684e+00   1.869854e+01
   2.906760e+01   8.237039e+01
   3.300586e+01   9.542025e+01
  -4.664195e+01   6.634611e+01
  -1.447852e+02  -3.559278e+01
  -1.187560e+02  -4.978133e+01
  -2.920090e-01  -1.617284e+01
   7.663852e+01  -1.266633e+01
   4.543709e+01  -3.268124e+01
   9.711589e-01   7.368942e+00
  -5.316542e+01  -1.704299e+00
  -1.867308e+01  -1.101013e+01
   1.593980e+01   1.279023e+01
  -7.823417e+00  -7.621985e+00
  -2.486433e+01  -4.427464e+01
  -5.850542e+01  -3.298354e+01
  -5.390118e+00  -8.253124e+01
   1.185430e+02  -1.065210e+02
   1.481038e+02  -1.568744e+01
   1.569891e+02   4.405830e+01
   2.959017e+01   1.062406e+02
  -6.961755e+01   1.187760e+02
  -7.916913e+01   7.962192e+01
  -8.667607e+01   3.133189e+01
  -6.998950e+01   2.223269e+01
  -8.871055e+00  -1.847803e+01
  -4.114544e+01   9.146185e+00
  -6.323190e+00  -3.261250e+01
  -1.701947e+01  -3.758909e+01
   3.144796e+01  -6.438023e+01
   8.737306e+01   1.765594e+01
   1.011311e+02   8.377787e+01
  -2.014917e+01   1.047273e+02
  -4.275168e+01   4.138667e+01
  -6.870592e+01  -5.211400e+01
  -2.167122e+01  -9.770810e+01
   5.021341e+01  -2.741478e+01
   7.509084e+01  -1.031577e+01
  -5.378874e-01   5.418332e+01
  -1.539566e+01   4.626480e+01
   1.225479e+01   2.624540e+01
   7.820971e+00  -2.813320e+01
   9.220209e+01   1.050604e+01
   1.324991e+01   1.463734e+01
  -8.997350e+01   1.475956e+01
  -8.328248e+01   7.200247e+01
  -5.912381e+00   1.866144e+01
   1.941064e+01  -4.128386e+01
   2.299023e+01  -5.142663e+01
   5.581519e+01  -9.994387e+00
   3.830477e+01   2.790508e+01
  -4.248407e+01   1.434569e+01
   1.339976e+00  -4.093268e+01
  -3.426694e+01  -3.254470e+01
  -2.497257e+01  -1.397795e+01
   5.134925e+01  -2.860332e+01
   2.158833e+01   2.287046e+01
   2.725946e+01  -2.671459e+01
   2.374761e+01  -1.000017e+01
   1.348374e+01   3.174794e+01
  -2.512273e+01   2.178221e+01
   1.042038e+01   1.270853e+01
  -3.248133e+01   8.723185e+00
  -5.417150e+01  -3.190989e+01
  -1.043934e+01  -5.748699e+01
   3.022824e+01  -2.871198e+01
   8.847724e+00   4.966750e+01
   8.762577e-01   5.419762e+01
  -6.568249e+01   2.010671e+01
  -4.044181e+01  -2.064900e+01
  -2.781726e+01  -8.719441e+00
   3.068552e+01  -6.276680e+01
   5.060212e+01  -2.334473e+01
   4.200211e+01  -1.732513e+01
  -6.794370e+01  -7.805666e+00
  -3.640548e+00   1.124751e+01
   1.693686e+01  -3.344442e+01
   7.547304e+00  -6.441944e+01
