
 $NMID
 id='ANONYMOUS ', fmtdat='(2E16.6)'
 volume=1.0
 tramp=1.0
 $END
  -3.745011e+03  -3.598190e+02
  -2.121106e+03  -2.317300e+03
   6.685838e+02  -2.536675e+03
   1.954521e+03  -8.109845e+02
   8.996538e+02   3.940429e+02
  -4.615086e+02   4.309951e+02
  -7.221278e+02  -3.431268e+02
   2.331808e+02  -8.779837e+02
   6.679476e+02  -5.151525e+02
   8.120952e+02   4.296560e+01
   3.785721e+02   6.870765e+02
  -2.256058e+02   6.890161e+02
  -6.219486e+02   4.342433e+01
  -2.767726e+02  -5.498808e+02
   2.283163e+02  -5.694546e+02
   4.782531e+02   8.348731e+00
   2.834334e+02   6.675169e+02
  -2.666874e+02   6.096034e+02
  -5.194572e+02   1.266304e+02
  -3.481013e+02  -2.821817e+02
  -3.247817e+01  -3.976609e+02
   1.888016e+02  -2.718050e+02
   1.739218e+02  -3.867989e+01
  -1.627853e+02   4.047437e+01
  -4.101615e+02  -1.471052e+02
  -9.886029e+01  -4.659806e+02
   5.746426e+02  -3.747583e+02
   7.898024e+02   1.771610e+02
   2.598380e+02   6.633249e+02
  -4.069376e+02   2.516326e+02
  -6.427194e+02  -2.395198e+02
  -1.461682e+02  -4.701639e+02
   2.491740e+02  -4.558749e+02
   5.539018e+02  -1.387779e+02
   4.110210e+02   2.306072e+02
   3.904744e+01   4.262464e+02
  -1.735556e+02   2.429703e+02
  -1.384779e+02  -1.880453e+02
   1.931373e+02  -3.718607e+02
   3.789924e+02   1.235045e+02
   5.432819e+01   6.238619e+02
  -3.384191e+02   6.224364e+02
  -5.342183e+02  -5.466501e+01
  -1.475094e+02  -4.324964e+02
   2.550665e+02  -1.995052e+02
   2.847206e+02   3.699701e+02
  -1.456903e+02   4.696358e+02
  -5.414959e+02   1.124541e+02
  -5.291972e+02  -4.161238e+02
  -1.173035e+02  -5.681237e+02
   3.929060e+02  -2.826079e+02
   5.582282e+02   1.316956e+02
   3.449001e+02   4.033986e+02
  -8.600700e+01   3.002287e+02
  -3.173834e+02   2.709642e+01
  -1.643779e+02  -2.135926e+02
   1.203439e+02  -8.037217e+01
   1.226436e+02   9.895699e+01
  -1.768386e+02   1.460883e+02
  -3.517003e+02  -2.048958e+01
  -1.188709e+02  -2.342915e+02
   2.175314e+02  -2.611351e+02
   4.000743e+02  -9.576987e+01
   2.411725e+02   6.420056e+01
  -1.555473e+01   2.656552e+02
  -2.565827e+02   4.165439e+02
  -3.849045e+02   1.972226e+02
  -2.406117e+02  -1.303018e+02
  -3.920447e+01  -3.775289e+02
   1.408382e+02  -3.636386e+02
   8.683278e+01  -1.355364e+02
   8.410617e+01  -5.271158e+01
   4.175443e+01  -1.007414e+02
   2.433867e+02  -1.037114e+02
   2.716402e+02   3.024260e+01
   8.980483e+01   2.631693e+02
  -1.326240e+02   2.515013e+02
  -2.489355e+02   8.308464e+00
  -1.722617e+02  -2.183307e+02
   4.288355e+01  -2.998398e+02
   2.290196e+02  -1.065248e+02
   3.435554e+02   1.684300e+02
   1.787172e+02   3.392236e+02
  -4.836111e+01   2.902540e+02
  -1.773042e+02   1.240575e+02
  -1.359959e+02   2.476335e+01
  -1.160096e+02   3.186431e+01
  -2.303541e+02   6.600883e+01
  -4.099973e+02  -6.589405e+01
  -3.310442e+02  -2.791702e+02
   3.404268e+01  -4.842280e+02
   3.718568e+02  -3.678753e+02
   4.845525e+02  -1.717737e+02
   3.434094e+02   1.142167e+02
   2.554599e+01   2.777409e+02
  -1.076424e+02   2.018285e+02
  -7.236568e+01   4.152788e+01
   1.401155e+02  -5.094436e+01
   1.687123e+02   2.256708e+01
   3.760400e+01   1.739998e+02
  -1.909105e+02   1.291750e+02
  -1.637650e+02  -7.436686e+01
   3.879046e+01  -2.081857e+02
   1.915243e+02  -9.398295e+00
   1.358584e+02   2.457663e+02
  -4.499568e+01   3.035491e+02
  -2.611044e+02   2.155128e+02
  -3.462600e+02  -5.937489e+01
  -2.598265e+02  -2.537116e+02
  -8.744821e+01  -2.850315e+02
   1.269212e+02  -1.752838e+02
   1.693066e+02  -2.427963e+01
   3.349372e+01   2.329156e+01
  -6.972691e+01  -3.158868e+01
  -4.080372e+01  -9.884565e+01
   1.308048e+02  -4.409482e+01
   1.900705e+02  -7.349419e+00
   4.328908e+01   3.488507e+01
  -7.524445e+01   2.255227e+01
  -5.796525e+01  -7.761853e+01
   1.274873e+02  -7.358356e+01
   2.770636e+02   2.539222e+01
   2.590015e+02   1.746632e+02
   2.989620e+01   2.935827e+02
  -2.002792e+02   2.446030e+02
  -2.396975e+02   1.130342e+02
  -1.592165e+02  -9.086172e+01
  -8.050793e+00  -1.072827e+02
   1.078257e+02   3.727282e+01
  -2.937936e+01   1.101553e+02
  -1.849834e+02   3.876679e+01
  -1.589552e+02  -1.038700e+02
  -4.959341e+01  -2.149106e+02
   8.498592e+01  -1.672876e+02
   1.449421e+02  -1.824134e+01
   4.941599e+01   3.007372e+01
  -4.017948e+01   2.820907e+01
  -9.854215e+00  -6.387444e+01
   2.310842e+01  -1.066132e+02
   1.787867e+02  -2.897249e+01
   2.035441e+02   1.366405e+02
   5.391213e+01   1.894091e+02
  -1.426395e+02   1.425568e+02
  -1.628011e+02   3.266496e+01
  -4.339266e+01  -1.055213e+02
   8.313568e+01  -8.110151e+01
   5.421945e+01  -3.648532e+01
  -1.564117e+01   3.042317e+01
   1.767100e+00   7.173747e+00
  -3.506880e+00  -2.246308e+01
   8.423514e+01  -1.405222e+01
   8.661931e+01   9.866905e+01
  -1.691175e+01   2.089996e+02
  -1.307105e+02   1.643372e+02
  -2.353954e+02  -2.958539e+01
  -1.971143e+02  -1.609656e+02
  -3.847973e+01  -2.132980e+02
   1.180700e+02  -1.709498e+02
   1.180955e+02  -3.597758e+00
   8.055031e+01   3.202077e+01
   2.129008e+01   4.308920e+01
   4.097476e+01  -1.779149e+01
   8.817947e+01  -4.536692e+01
   6.223283e+01   1.441063e+01
  -7.447303e+01   1.130514e+02
  -1.089544e+02   8.934488e+01
  -1.407710e+02  -1.731412e+01
  -2.108813e+00  -1.117240e+02
   1.305064e+02  -5.749022e+01
   2.029013e+02   9.046264e+01
   6.750045e+01   1.861479e+02
  -1.356245e+02   2.076454e+02
  -2.275783e+02   6.613230e+01
  -2.544894e+02  -7.031809e+01
  -1.098509e+02  -1.789233e+02
   3.734277e+01  -1.172246e+02
   1.185390e+02  -7.531336e+01
   2.841776e+01  -4.776550e+01
   5.638785e+01  -5.421739e+01
   9.639826e+01  -5.634145e+01
   1.080012e+02   1.015974e+01
   1.256150e+02   2.006979e+02
  -4.153704e+01   2.412994e+02
  -1.279146e+02   1.693971e+02
  -1.833667e+02  -1.774612e+01
  -1.125209e+02  -1.674244e+02
  -5.771014e+00  -1.567219e+02
   3.268055e+01  -5.641758e+01
   5.266575e+01  -2.913374e+00
   1.868897e+01   4.292624e+01
  -3.946667e+01   4.043239e+01
   3.404011e+01   2.184673e+01
   5.225790e+01   2.994714e+01
   2.986121e+01   2.132621e+01
  -8.868083e+01   7.505617e+01
  -1.550461e+02  -1.427754e+00
  -1.305987e+02  -4.627096e+01
  -3.145313e+01  -9.770845e+01
   1.183190e+02  -8.226622e+01
   1.761284e+02  -7.995358e+00
   3.492062e+01   3.827386e+01
  -7.436051e+01   3.225249e+01
  -7.951800e+01  -5.086192e+01
  -3.673056e+01  -7.848547e+01
   3.433249e+01  -6.744675e+01
   7.911043e+01   1.719157e+01
   7.037604e+01   4.960840e+01
   6.760545e+01   5.012532e+01
   4.716975e+01   2.323629e+01
   8.665166e+01   9.083148e+00
   7.843716e+01   8.703228e+01
  -8.095141e+00   1.329836e+02
  -1.040027e+02   1.273865e+02
  -1.731353e+02   6.404480e+00
  -1.111726e+02  -6.056146e+01
   5.048303e+01  -1.591713e+02
   1.008014e+02  -5.051811e+01
   9.058550e+01   1.899677e+01
  -6.377642e+01   2.857947e+01
  -1.689789e+02  -2.217040e+01
  -7.959608e+01  -1.537573e+02
   9.295259e+01  -1.157506e+02
   2.193283e+02  -2.604223e+01
   1.469363e+02   3.306363e+01
   3.910034e+01   6.750852e+01
  -2.472289e+01   7.211825e+01
  -4.823469e+01  -4.044330e+00
   3.362198e+01  -8.142660e+01
   1.190062e+02   3.202227e+01
   3.579743e+01   9.730977e+01
  -8.450414e+01   1.522259e+02
  -2.038117e+02   4.443436e+01
  -1.448957e+02  -1.164451e+02
  -5.131741e+00  -2.223089e+02
   5.496272e+01  -1.019386e+02
   1.176171e+02   4.923369e+00
   5.534705e+01   1.076873e+02
  -2.525988e+01   9.415501e+01
  -6.719917e+01  -6.221370e+00
  -5.286785e+01  -2.697904e+01
  -5.187531e+01   3.726132e+00
  -9.898414e+00  -7.723870e+00
   2.335700e+01  -3.471424e+00
  -8.989757e+01  -1.170764e+02
  -3.909061e+01  -1.427262e+02
   4.066093e+01  -9.149915e+01
   1.120268e+02   4.115438e+01
   1.314211e+02   7.194826e+01
   3.287764e+01   5.852182e+01
  -9.780288e+01   7.037410e+01
  -9.030032e+01  -1.090640e+01
  -4.362828e+00  -3.397570e+01
   5.243895e+01  -4.242096e+01
  -5.718457e+00  -3.750772e+01
  -1.622552e+01   1.289182e+01
   4.259802e+00   6.842550e+00
   1.158544e+02   3.253576e+01
   6.442358e+01   2.903415e+01
   2.381364e+01   8.461761e+01
  -1.206848e+02   1.265538e+02
  -1.931332e+02   2.845078e+01
  -1.490279e+02  -6.413329e+01
  -3.821809e+01  -1.744493e+02
   8.540168e+01  -1.608009e+02
   9.603263e+01  -7.574404e+01
   6.578644e+01  -8.807508e-01
  -1.732941e+01   2.319848e+01
  -3.861793e+01   5.010269e+01
   4.338578e+00   3.087058e+01
   4.743781e+01   5.912568e+01
   1.055253e+01   1.035509e+02
  -6.114997e+01   7.783020e+01
  -5.803416e+01  -4.036507e+01
  -7.578237e+01  -1.113693e+02
  -3.928635e+01  -1.036117e+02
   5.904765e+01  -1.969622e+01
   1.109023e+02   8.289956e+01
   6.470726e+01   9.992804e+01
  -1.122402e+02   7.811406e+01
  -8.942320e+01  -2.534176e+01
  -6.163134e+00  -4.551011e+01
   3.820709e+01  -5.992696e+01
   1.709537e+01  -4.366547e+01
  -3.094695e+01  -2.621636e+01
  -7.445984e+01  -1.679395e+01
  -4.856607e+01  -1.462704e+01
   8.646457e+01  -5.401448e+01
   8.588329e+01  -4.448944e+01
   5.887515e+01  -1.500338e+01
  -2.236611e+01   9.558099e+01
  -4.035817e+01   7.448522e+01
  -9.096864e+00   1.520315e+01
  -1.416904e+01  -4.262743e+01
  -1.323044e+01  -3.295579e+01
   1.448648e+00   2.352145e+01
   1.813821e+01   9.611930e+01
   1.651259e+01   4.640644e+01
  -3.687626e+01  -4.799999e+01
  -3.357249e+01  -4.629282e+01
  -3.570792e+01   2.548837e+01
   2.450682e+00   2.735971e+01
   3.120497e+00   1.859619e+01
  -4.580266e+00  -4.637355e+01
  -1.255665e+01  -1.937538e+01
   4.611315e+01  -3.846161e+01
   5.027623e+01  -4.756019e-01
   1.064430e+01   1.618292e+01
  -4.693350e+01   1.482554e+01
  -8.348570e+01  -4.151869e+01
  -3.224067e+01  -5.646736e+01
   4.641429e+01  -5.714225e+01
   7.073029e+01   2.607243e+00
   2.526954e+01   2.643686e+01
  -5.074153e+01   6.260706e+01
  -6.806799e+01   6.553243e+01
  -1.567987e+01  -8.650137e+00
   1.972476e+01   1.139450e+01
   1.037348e+01   1.370608e+01
  -3.032938e+01  -1.780961e+01
  -6.739991e+01   5.446502e+00
