
 $NMID
 id='ANONYMOUS ', fmtdat='(2E16.6)'
 volume=1.0
 tramp=1.0
 $END
  -3.669130e+03  -1.718833e+02
  -2.451203e+03  -2.455731e+03
   6.368388e+02  -2.784692e+03
   2.113439e+03  -1.046018e+03
   7.589760e+02   5.587903e+02
  -4.331423e+02   5.885118e+02
  -8.742755e+02  -4.830875e+02
  -1.372595e+01  -9.378643e+02
   9.040116e+02  -8.135210e+02
   9.138629e+02   1.769271e+02
   4.247333e+02   8.386952e+02
  -2.089051e+02   7.491733e+02
  -5.613951e+02   1.135885e+02
  -2.953400e+02  -7.621555e+02
   2.831606e+02  -7.008960e+02
   5.059163e+02  -9.605689e+00
   2.077809e+02   6.425947e+02
  -2.533785e+02   6.469257e+02
  -5.658518e+02   1.211195e+02
  -4.538594e+02  -3.072475e+02
  -5.811116e+00  -4.118421e+02
   2.327613e+02  -2.413406e+02
   2.196032e+02  -3.599083e+01
  -9.568082e+01   6.110497e+01
  -3.825900e+02  -1.446983e+02
  -1.768441e+02  -4.494959e+02
   3.995760e+02  -3.453533e+02
   8.166856e+02   1.880596e+01
   4.139469e+02   4.632249e+02
  -4.678544e+02   4.377826e+02
  -6.883160e+02   1.221459e+01
  -3.525650e+02  -4.806269e+02
   2.842562e+02  -4.905343e+02
   5.400091e+02  -2.045366e+02
   4.269241e+02   2.282131e+02
   8.467044e+01   5.015396e+02
  -1.892976e+02   2.256783e+02
  -2.045603e+02  -1.443029e+02
   1.741394e+02  -3.971560e+02
   3.726742e+02  -8.489418e+00
   2.754911e+02   7.014700e+02
  -1.945058e+02   6.181803e+02
  -6.200713e+02   4.948910e+01
  -2.717586e+02  -5.235250e+02
   1.991836e+02  -2.429823e+02
   3.861307e+02   3.063671e+02
  -4.075600e+01   5.283781e+02
  -5.368178e+02   1.172471e+02
  -5.283529e+02  -3.540678e+02
  -1.737093e+02  -5.775882e+02
   2.693178e+02  -3.110751e+02
   6.157192e+02   5.530861e+01
   3.889983e+02   3.180624e+02
  -6.111590e+01   3.322692e+02
  -4.663122e+02   2.157399e+01
  -3.120992e+02  -1.346119e+02
   1.062748e+02  -8.575022e+01
   1.380671e+02   1.374123e+02
  -1.766617e+02   2.123091e+02
  -3.537471e+02  -5.197804e+01
  -9.457387e+01  -2.990863e+02
   2.141060e+02  -2.915182e+02
   3.523919e+02  -6.737540e+01
   2.572955e+02   9.806548e+01
  -1.508338e+01   2.090755e+02
  -2.211887e+02   3.359783e+02
  -3.330366e+02   1.703344e+02
  -2.917690e+02  -1.261178e+02
  -7.173008e+01  -4.149640e+02
   1.151530e+02  -3.943333e+02
   1.046433e+02  -1.012292e+02
  -1.532492e+01  -3.156738e+00
   3.782278e+01  -5.502090e+01
   1.855463e+02  -1.467599e+02
   2.675850e+02   2.425493e+01
   1.395195e+02   2.833024e+02
  -6.452510e+01   2.435542e+02
  -2.168953e+02  -1.608699e+01
  -1.616063e+02  -2.130479e+02
  -2.198829e+01  -2.644584e+02
   2.731650e+02  -1.027671e+02
   3.603233e+02   2.023152e+02
   1.830125e+02   3.556746e+02
  -6.369304e+01   2.901127e+02
  -2.410696e+02   1.297351e+02
  -1.325178e+02   1.367640e+01
  -7.272991e+01   2.061564e+01
  -2.450271e+02   4.096083e+01
  -3.842920e+02  -9.539948e+01
  -3.329398e+02  -2.765609e+02
   8.205270e+00  -4.463343e+02
   3.601169e+02  -4.074026e+02
   4.368625e+02  -1.706758e+02
   2.456206e+02   6.361452e+01
   7.735789e+01   2.845035e+02
  -1.738181e+02   2.412764e+02
  -7.290373e+01   1.234601e+01
   1.285937e+02  -1.319815e+02
   2.381527e+02   2.636283e+01
   6.812154e+01   1.750715e+02
  -1.779480e+02   1.902941e+02
  -1.980428e+02  -4.342549e+01
   4.358386e+00  -1.844945e+02
   1.653837e+02  -4.642183e+01
   1.318334e+02   2.383428e+02
  -3.329353e+01   3.795407e+02
  -2.036236e+02   1.883161e+02
  -2.819543e+02  -7.147981e+01
  -2.959549e+02  -2.626427e+02
  -1.143589e+02  -2.994378e+02
   1.128745e+02  -1.392850e+02
   1.545733e+02   3.760353e+01
   5.574972e+01   6.177757e+01
  -5.509944e+01  -7.378951e+01
  -2.051274e+01  -1.335343e+02
   1.532247e+02  -1.113262e+02
   2.022472e+02   2.710315e+01
   5.710673e+01   6.795296e+01
  -3.913266e+01   3.154357e+01
  -4.054584e+01  -7.540152e+01
   1.179040e+02  -1.104178e+02
   2.561423e+02   3.329415e+01
   2.941791e+02   1.398988e+02
   1.067311e+01   2.509925e+02
  -1.685866e+02   2.540634e+02
  -2.484153e+02   1.039241e+02
  -1.512918e+02  -2.311166e+01
   7.048062e+00  -9.687569e+01
   9.381445e+01   5.774522e+00
  -4.844947e+01   7.117016e+01
  -1.454944e+02   5.845851e+01
  -1.757931e+02  -1.476957e+02
  -5.515853e+01  -1.840305e+02
   8.013031e+01  -1.377134e+02
   1.461284e+02  -1.507978e+01
   4.538501e+01   2.664601e+01
  -1.190013e+00  -3.529314e+01
  -2.428042e+01  -1.747185e+01
   6.159988e+01  -1.072126e+02
   1.704729e+02  -1.011614e+01
   1.936061e+02   1.221190e+02
   5.068999e+01   2.159662e+02
  -1.467741e+02   1.809087e+02
  -1.847092e+02  -3.836151e+00
  -5.251172e+01  -1.047387e+02
   3.565018e+01  -8.413001e+01
   8.551421e+01  -2.723021e+01
   8.849883e+00   5.628197e+01
  -5.024175e+01   2.238246e+01
   3.050453e+01  -3.387935e+01
   5.226655e+01   2.815139e+01
   1.042309e+02   1.054286e+02
   4.162255e+01   1.288092e+02
  -9.220487e+01   1.466048e+02
  -2.063604e+02  -9.418568e+00
  -1.887969e+02  -1.416346e+02
  -1.247172e+01  -2.373377e+02
   1.330526e+02  -1.492011e+02
   1.286026e+02  -4.854776e+01
   6.637559e+01   5.984689e+01
   5.333459e+00   6.051267e+01
   8.758203e+01  -2.070648e+01
   6.986174e+01   2.561989e+00
   2.866720e+01   6.128579e+01
  -5.422589e+01   7.692576e+01
  -7.282519e+01   4.078533e+01
  -1.032644e+02  -5.659626e+01
   2.799061e+01  -9.532449e+01
   1.369510e+02  -8.620536e+01
   1.544351e+02   8.422660e+01
   1.498154e+02   1.871856e+02
  -9.839006e+01   2.198853e+02
  -2.526083e+02   1.017991e+02
  -2.665261e+02  -8.072128e+01
  -5.653560e+01  -1.554201e+02
   7.030519e+01  -1.233368e+02
   1.117675e+02  -6.419073e+01
   4.827021e+01  -6.108366e+01
   6.322867e+01  -1.000763e+02
   7.527173e+01  -7.708270e+01
   1.075584e+02   3.014797e+01
   9.856653e+01   1.482672e+02
   2.154610e+01   2.381683e+02
  -5.974337e+01   1.353904e+02
  -1.504493e+02   3.751069e+01
  -1.160438e+02  -1.186056e+02
  -1.725342e+01  -1.771944e+02
   8.274513e+01  -6.621238e+01
   9.663349e+01   1.966240e+00
  -2.222574e+01   2.293197e+01
  -9.635397e-01   4.044365e+01
   4.123824e+01   2.144345e+01
   9.842016e+01   5.859271e+01
   7.273771e+00   1.664375e+01
  -3.513608e+01   5.320710e+01
  -1.593801e+02  -1.040694e+01
  -1.773010e+02  -2.055986e+01
  -1.455130e+01  -1.195967e+02
   1.137559e+02  -8.207981e+01
   1.725694e+02   1.180076e+01
   6.360038e+01   5.024266e-01
  -5.402879e+01   1.655752e+01
  -8.706953e+01  -5.754259e+01
  -9.815135e+00  -3.637793e+01
   4.303010e+01  -8.099255e+01
   7.717302e+01   4.253577e+00
   6.550910e+01   5.106621e+01
   6.499585e+01   3.103418e+01
   3.554571e+01  -2.395664e+01
   5.327888e+01   7.751529e+00
   5.153368e+01   1.009567e+02
  -3.782475e+01   1.372550e+02
  -1.143510e+02   9.172307e+01
  -1.344062e+02   1.175787e+01
  -1.128892e+02  -1.116810e+02
   3.105428e+00  -1.272017e+02
   7.415665e+01  -6.691011e+01
   6.114912e+01   3.966401e+01
  -7.426228e+01   7.514605e+00
  -1.551656e+02  -1.629303e+01
  -9.029563e+01  -9.672200e+01
   7.841907e+01  -1.268196e+02
   1.886102e+02  -4.421682e+01
   1.756739e+02   1.493192e+01
   2.573887e+01   7.676931e+01
  -8.788516e+01   4.712219e+01
  -7.579362e+01   3.544609e+01
   2.752087e+01  -1.632277e-01
   7.123779e+01   5.265256e+01
   8.983645e+00   1.368597e+02
  -5.585365e+01   1.285048e+02
  -1.619486e+02   4.669598e+01
  -1.458094e+02  -7.676498e+01
  -1.884662e+01  -2.081254e+02
   8.219647e+01  -1.384046e+02
   1.030014e+02  -1.294169e+01
   2.863882e+01   9.116238e+01
   6.282916e+01   9.783320e+01
  -4.087810e+01   1.843511e+01
  -4.372979e+01  -4.531447e+01
  -2.039596e+01   1.673034e+01
  -1.100400e+01   1.387220e+01
  -3.808987e+01  -3.070589e+01
  -5.038013e+01  -1.211444e+02
  -5.469744e+01  -1.116679e+02
   3.718932e+01  -9.103274e+01
   1.151283e+02   7.221568e+01
   1.352309e+02   8.790159e+00
   4.594600e+01   5.295576e+01
  -6.266170e+01   3.142760e+01
  -5.594412e+01   4.836942e+00
   2.700759e+01   1.996386e+01
   7.467474e+00  -6.047217e+01
   2.502283e+01  -1.051957e+01
   2.513915e+00   1.419045e+01
   7.560320e+00   4.705246e+00
   6.335196e+01   3.937208e+00
   8.867916e+01   4.326419e+01
  -3.319124e+00   5.536227e+01
  -1.045287e+02   1.129894e+02
  -1.992075e+02   8.697257e+00
  -1.137837e+02  -8.209230e+01
  -1.678437e+01  -1.542777e+02
   6.010216e+01  -1.367735e+02
   1.333755e+02  -4.171292e+01
   6.955762e+01   3.671466e+01
   4.317568e+00   4.510030e+01
   1.003278e+01  -8.163741e-01
   2.558052e+01   2.519242e+00
   4.577445e+01   6.853683e+01
   5.351500e+01   8.282961e+01
  -5.819324e+00   6.838855e+01
  -7.900143e+01  -1.374982e+01
  -4.658006e+01  -6.707674e+01
  -4.319023e+00  -7.704741e+01
   7.560122e+01  -1.837290e+01
   1.396455e+02   9.381992e+01
   5.957360e+01   1.153375e+02
  -4.772723e+01   6.436843e+01
  -8.175102e+01  -2.572690e+01
  -4.265899e+01  -7.159221e+01
  -2.449557e+00  -4.028594e+01
  -1.699898e+00  -1.669486e+01
  -4.068172e+01   1.271850e+01
  -2.702847e+01   5.523115e+00
   3.305249e+00  -3.527718e+01
   9.252493e+01  -5.711933e+01
   1.526218e+02  -8.055716e+01
   4.517427e+01   4.801280e+01
  -1.773982e+01   9.103512e+01
  -4.697374e+01   6.225820e+01
  -3.458215e+01   3.248094e+01
   1.432754e+01  -8.478383e+01
   1.113252e+01  -5.212706e+01
   3.107178e+01   1.054629e-01
   1.088562e+00   2.593997e+01
  -4.804198e+00   3.845162e+01
  -2.870820e+01  -1.168472e+00
  -2.785026e+01  -2.805221e+01
  -1.746787e+01   3.951435e+01
  -3.225937e+01   3.776161e+01
   1.092550e+01  -9.373142e+00
   1.913819e+01  -3.508454e+01
  -6.492922e+00  -4.402387e+01
   9.725419e+01  -2.808997e+01
   1.315406e+01   5.901198e+01
   1.939449e+01   2.042993e+01
  -6.872612e+01   5.179198e+01
  -6.470582e+01  -2.356368e+01
  -1.369877e+01  -5.972836e+01
   6.153430e+01  -3.418907e+01
   8.946032e+01   5.317256e+01
   6.442932e+01   3.573094e+01
  -4.649736e+01   4.562735e+01
  -3.351927e+01   7.125909e+00
  -1.020567e+01   2.915701e+01
   1.470045e+01   2.224817e+01
   6.024626e+01   2.766986e+01
  -4.650894e+01   2.557882e+01
  -6.313200e+01   2.163291e+01
