
 $NMID
 id='ANONYMOUS ', fmtdat='(2E16.6)'
 volume=1.0
 tramp=1.0
 $END
  -4.550961e+03  -1.581293e+01
  -2.829751e+03  -3.236110e+03
   1.045019e+03  -3.044808e+03
   2.307477e+03  -7.162768e+02
   1.055358e+03   7.558404e+02
  -7.690606e+02   5.748273e+02
  -9.622033e+02  -6.269088e+02
   1.315615e+02  -1.249597e+03
   9.641769e+02  -8.048371e+02
   1.011572e+03   1.450578e+02
   5.344714e+02   9.707301e+02
  -3.341754e+02   1.012890e+03
  -8.048361e+02   9.146090e+01
  -4.057350e+02  -7.975441e+02
   2.248215e+02  -7.932269e+02
   7.181107e+02   1.968358e+01
   2.758537e+02   7.446492e+02
  -4.027012e+02   6.771690e+02
  -6.310808e+02   7.064050e+01
  -4.083837e+02  -3.718387e+02
   4.481237e+00  -4.877030e+02
   2.548145e+02  -2.370321e+02
   2.070227e+02  -5.613159e+00
  -1.243656e+02   1.139435e+02
  -4.592438e+02  -1.567638e+02
  -2.088686e+02  -4.722533e+02
   5.382669e+02  -4.824750e+02
   9.175003e+02   1.250347e+02
   5.229791e+02   6.211861e+02
  -4.043555e+02   5.784685e+02
  -7.751680e+02  -4.540463e+01
  -3.953874e+02  -5.186695e+02
   3.253390e+02  -5.859665e+02
   6.260412e+02  -1.875819e+02
   4.281027e+02   2.719632e+02
   4.547579e+01   5.531623e+02
  -2.656383e+02   2.822280e+02
  -2.124472e+02  -2.129094e+02
   1.685688e+02  -5.223142e+02
   5.197496e+02   3.581678e+01
   2.616330e+02   7.345975e+02
  -3.713968e+02   8.185684e+02
  -6.725115e+02   1.572959e+00
  -3.437160e+02  -6.884161e+02
   2.991166e+02  -3.567291e+02
   3.978109e+02   3.553964e+02
  -7.015682e+00   6.010372e+02
  -6.137097e+02   1.172131e+02
  -6.119419e+02  -4.332710e+02
  -2.001830e+02  -6.529434e+02
   4.101917e+02  -3.558854e+02
   6.910538e+02   7.652585e+01
   4.228494e+02   4.795006e+02
  -2.172224e+02   3.809742e+02
  -5.175269e+02   8.947703e+01
  -2.944743e+02  -2.337548e+02
   1.300344e+02  -9.500475e+01
   1.469394e+02   1.938709e+02
  -1.548957e+02   2.300731e+02
  -4.497828e+02  -6.563310e+01
  -1.644370e+02  -3.094923e+02
   2.160943e+02  -2.661987e+02
   3.854032e+02  -7.381448e+01
   2.298444e+02   1.215379e+02
  -4.220098e+01   2.450422e+02
  -2.108291e+02   3.502699e+02
  -3.583717e+02   2.494097e+02
  -2.884113e+02  -1.643064e+02
  -5.981155e+01  -5.177056e+02
   1.200324e+02  -4.347705e+02
   1.148278e+02  -1.485842e+02
  -1.933464e+01   5.859340e+00
   7.793556e+01  -1.419335e+02
   2.637334e+02  -1.535301e+02
   3.193965e+02   5.113685e+01
   1.862882e+02   2.186772e+02
  -4.214321e+01   2.685510e+02
  -2.701798e+02   2.888991e+01
  -1.998783e+02  -2.627761e+02
   1.027197e+00  -3.100245e+02
   3.296006e+02  -1.344564e+02
   3.583591e+02   1.599077e+02
   1.967197e+02   3.477330e+02
  -1.114893e+02   3.533662e+02
  -2.556574e+02   1.397247e+02
  -1.369251e+02  -1.681708e+00
  -1.044306e+02   5.990044e+01
  -2.470508e+02   6.628652e+01
  -4.243887e+02  -4.050959e+01
  -3.596402e+02  -3.244045e+02
  -4.485096e+01  -4.324582e+02
   3.479668e+02  -4.255168e+02
   5.213022e+02  -2.016474e+02
   3.531945e+02   7.931566e+01
   5.067767e+01   2.862954e+02
  -1.696497e+02   3.079739e+02
  -3.403109e+01   6.779855e+01
   1.416669e+02  -8.710206e+01
   2.323263e+02  -1.419583e+01
   2.406145e+01   1.998604e+02
  -2.139144e+02   1.769727e+02
  -1.897672e+02  -4.535710e+01
   7.544169e+00  -2.200625e+02
   1.639130e+02  -3.248849e+01
   1.381886e+02   2.561159e+02
  -1.220491e+01   3.394486e+02
  -2.631457e+02   1.985848e+02
  -3.404075e+02  -2.797823e+01
  -2.941311e+02  -2.529131e+02
  -1.053418e+02  -2.914351e+02
   7.820006e+01  -1.760794e+02
   1.544718e+02   3.107337e+01
   6.774766e+01  -2.238911e+00
  -7.581558e+01   6.417769e+00
  -1.361176e+01  -1.706304e+02
   9.759795e+01  -1.918745e+02
   1.705869e+02  -8.921598e+00
   7.695132e+01   2.894878e+01
  -7.097944e+01  -6.881700e+00
  -5.805744e+01  -1.127326e+02
   1.142455e+02  -7.356596e+01
   3.111679e+02   3.450580e+01
   2.845930e+02   1.248770e+02
   1.047207e+02   2.597792e+02
  -1.652931e+02   2.771908e+02
  -2.965584e+02   1.408134e+02
  -1.912586e+02  -7.825391e+01
   6.518102e+01  -9.791841e+01
   1.192333e+02   4.042871e-01
  -9.092275e+01   9.328844e+01
  -1.845472e+02   6.677649e+01
  -2.112057e+02  -1.100096e+02
  -9.289275e+01  -2.083668e+02
   1.162153e+02  -1.651803e+02
   1.297948e+02  -3.934550e+01
   8.763263e+01   3.918911e+01
  -2.828157e+01   1.492568e+01
  -6.018213e+01  -8.876760e+01
   5.127990e+01  -1.190218e+02
   2.438876e+02  -4.918432e+00
   1.994026e+02   1.137288e+02
   3.797796e+01   2.678509e+02
  -2.012225e+02   1.761744e+02
  -2.216233e+02   1.204386e+01
  -7.641779e+01  -1.341406e+02
   6.740618e+01  -1.017757e+02
   1.121073e+02  -3.297649e+01
   8.477227e+00   1.736037e+01
   9.055048e+00   6.435150e+01
   7.090565e-01  -9.833507e+00
   7.719216e+01   9.323222e+00
   1.104181e+02   1.000640e+02
   1.593668e+01   1.336878e+02
  -1.173592e+02   1.802024e+02
  -2.731517e+02   1.667853e+01
  -2.348577e+02  -1.636095e+02
  -5.240459e+01  -2.265563e+02
   9.590981e+01  -1.696228e+02
   1.641626e+02  -3.517878e+01
   8.723361e+01   8.042163e+01
   3.597151e+01  -3.221460e+00
   7.769704e+01   3.450220e-01
   8.649623e+01   3.745415e+00
   4.536734e+01   4.219251e+01
  -4.476131e+01   9.756801e+01
  -9.917480e+01   4.402513e+01
  -8.291356e+01  -6.330464e+01
   2.846629e+01  -1.018207e+02
   1.403516e+02  -1.275869e+02
   1.616468e+02   7.821734e+01
   9.273732e+01   1.835568e+02
  -1.159289e+02   2.612458e+02
  -2.669197e+02   1.130468e+02
  -2.415234e+02  -1.328530e+02
  -1.213202e+02  -1.731697e+02
   7.325388e+01  -1.708435e+02
   8.637083e+01  -7.721900e+01
   9.579190e+01  -8.308745e+01
   9.733238e+01  -1.031717e+02
   1.109895e+02  -9.370844e+01
   1.445766e+02  -1.436372e+00
   1.426105e+02   1.517814e+02
  -1.449989e+01   2.441374e+02
  -9.693504e+01   1.760054e+02
  -2.078904e+02  -1.326618e+01
  -1.466442e+02  -1.678926e+02
  -3.323977e+00  -1.738453e+02
   6.819833e+01  -1.138348e+02
   4.952819e+01  -4.975550e+01
  -1.653963e+01   5.337622e+01
  -8.690946e-01   6.487615e+01
   4.922062e+01  -5.880674e+00
   8.619246e+01   5.069123e+01
   5.837864e+01   4.705524e+01
  -8.102735e+01   2.757664e+01
  -1.833938e+02  -4.096983e+01
  -1.784730e+02  -7.707720e+01
  -1.426245e+01  -1.319984e+02
   1.248592e+02  -8.473693e+01
   1.528702e+02  -2.254255e+01
   4.718974e+01   4.114896e+01
  -5.407095e+01   6.848671e+01
  -9.136935e+01  -3.312186e+01
  -2.223387e+01  -6.731732e+01
   3.455558e+01  -5.611328e+01
   7.243442e+01  -2.386741e+01
   4.649872e+01   7.060094e+01
   4.292105e+01   2.006740e+01
   4.108870e+01   1.341303e+00
   3.550342e+01  -4.757273e+01
   6.400506e+01   8.243234e+01
  -3.856793e+01   1.589491e+02
  -1.022533e+02   1.601993e+02
  -1.688775e+02   2.225868e+01
  -1.438140e+02  -1.007185e+02
   9.152453e+00  -1.292901e+02
   1.151221e+02  -4.183493e+01
   4.830294e+01   2.580126e+01
  -7.869775e+01  -6.937443e+00
  -1.360858e+02  -4.955402e+01
  -1.074471e+02  -1.051922e+02
   1.032188e+02  -1.173242e+02
   1.800582e+02  -7.838153e+01
   1.556492e+02   5.611703e+01
   5.514822e-01   6.966683e+01
  -7.245762e+01   9.624950e+01
  -1.925145e+01   2.100502e+00
   2.183037e+01  -4.945640e+01
   8.639164e+01   9.235370e+00
   3.681751e+01   1.404125e+02
  -8.054907e+01   1.721707e+02
  -1.957880e+02   5.575853e+01
  -1.510880e+02  -1.321275e+02
   1.500219e+01  -2.129692e+02
   9.829970e+01  -1.331979e+02
   7.925263e+01   9.436422e+00
   1.054850e+02   1.554822e+02
   1.442594e+01   1.101430e+02
  -4.717170e+01   1.657185e+01
  -3.518901e+01  -1.908550e+01
  -4.449146e+01  -4.155537e+01
  -7.976932e+00   2.617424e+01
  -2.770736e+01   2.940978e+00
  -4.047276e+01  -8.878301e+01
  -3.852461e+01  -1.141542e+02
   3.190573e+01  -2.044440e+01
   1.568543e+02   6.577690e+01
   1.436657e+02   9.692171e+01
  -4.391078e+00   6.409572e+01
  -7.602401e+01   3.342533e+01
  -1.118543e+02  -4.268879e+01
  -3.980785e+01   3.499700e+01
   4.702070e+01  -3.760190e+01
   5.413942e+00  -3.024952e+01
  -2.425931e+01  -7.849533e+00
   1.060179e+01  -6.051833e-02
   8.277051e+01  -1.796083e+01
   9.315427e+01   3.796776e+01
   3.875827e-01   9.679825e+01
  -1.021107e+02   1.156843e+02
  -2.129283e+02   5.640829e+01
  -1.277813e+02  -5.948618e+01
  -1.755082e+01  -1.858310e+02
   3.896386e+01  -1.181585e+02
   1.310335e+02  -1.073218e+02
   6.753485e+01   3.323537e+00
  -3.644653e+00   4.007388e+01
  -2.647941e+01   1.503861e+01
   2.233977e+01  -8.843927e+00
   2.990748e+01   4.582919e+01
   1.129584e+01   9.739449e+01
  -3.077993e+01   8.548795e+01
  -7.310470e+01   2.005425e+01
  -1.073242e+02  -1.333123e+02
   6.895294e+00  -1.166856e+02
   6.974493e+01  -4.053885e+01
   1.512090e+02   8.602056e+01
   2.869218e+01   1.368446e+02
  -8.454880e+01   5.688907e+01
  -9.488822e+01  -2.527515e+01
  -3.289110e+01  -4.103733e+01
   4.823228e+01  -6.253806e+01
   8.705472e+00  -5.174553e+01
  -2.082893e+01  -1.932238e+01
  -8.600410e+01   5.180102e+00
  -8.523863e+00  -1.482344e+01
   8.078152e+01  -6.707274e+01
   1.117530e+02  -6.658092e+01
   7.371684e+01   3.091482e+00
  -1.753989e+01   8.728764e+01
  -6.521403e+01   9.137419e+01
  -2.743775e+01   7.363109e+00
   6.461111e-01  -6.520704e+01
   3.451717e+01  -8.345484e+01
   6.941191e+01   5.396826e+01
   3.475479e+01   3.268052e+01
  -2.678816e+01  -2.551182e+01
  -4.512711e+01  -1.597945e+01
  -4.984297e+01  -1.877051e+01
  -2.718798e-01  -4.594983e+01
  -2.113732e+01   1.193853e+01
   2.528766e+01   1.215475e+01
  -3.015401e+01  -4.377375e+01
   2.256750e+01  -1.924513e+01
   5.707359e+01  -1.982768e+01
   1.526138e+01   4.699255e+01
   1.161420e+01   7.271622e+01
  -7.713221e+01   3.803794e+01
  -2.978222e+01  -2.219061e+01
   1.287197e+01  -3.264661e+01
   5.851177e+01  -4.498368e+01
   1.072895e+02   2.255458e+01
   8.935940e+01   8.656494e+01
  -3.241079e+01  -1.467591e+01
  -7.878137e+01   1.879492e+01
  -2.405899e+00   1.698564e+01
   3.468708e+01   8.167329e+00
   5.938970e+01   1.405333e+01
  -3.925223e+01  -1.580025e+01
  -9.047023e+01  -1.626506e+01
