
 $NMID
 id='ANONYMOUS ', fmtdat='(2E16.6)'
 volume=1.0
 tramp=1.0
 $END
   3.986343e+03   1.562474e+02
   2.543959e+03   2.464468e+03
  -4.284258e+02   2.809132e+03
  -2.067083e+03   7.271230e+02
  -1.045605e+03  -4.944161e+02
   3.448599e+02  -3.792027e+02
   7.000384e+02   3.523028e+02
  -2.236945e+01   8.503829e+02
  -6.551235e+02   7.754460e+02
  -8.701350e+02  -4.194838e+01
  -4.275997e+02  -7.627286e+02
   1.715798e+02  -7.756692e+02
   5.133613e+02  -1.411202e+02
   3.416961e+02   5.652734e+02
  -1.656785e+02   7.025825e+02
  -5.967826e+02   9.274709e+01
  -3.926223e+02  -6.487631e+02
   3.131177e+02  -6.278940e+02
   5.895433e+02  -9.794703e+01
   4.428114e+02   3.640536e+02
   4.322030e+01   4.188395e+02
  -2.523196e+02   3.294241e+02
  -2.154276e+02   2.240977e+00
   1.592643e+02  -2.808731e+01
   3.760658e+02   1.212826e+02
   7.572912e+01   4.325501e+02
  -5.749138e+02   3.580983e+02
  -7.778686e+02  -1.227709e+02
  -3.087157e+02  -5.502192e+02
   4.272705e+02  -3.297200e+02
   7.030920e+02   7.867238e+01
   2.102050e+02   4.333750e+02
  -2.098594e+02   4.905943e+02
  -5.498695e+02   1.394032e+02
  -4.324738e+02  -2.101601e+02
  -4.772543e+01  -3.780659e+02
   1.385868e+02  -2.428990e+02
   1.431276e+02   1.914531e+02
  -1.924829e+02   3.344084e+02
  -3.394554e+02  -8.776308e+01
  -1.175201e+02  -5.758971e+02
   3.543537e+02  -6.916261e+02
   4.983385e+02  -1.914389e+01
   2.078791e+02   5.146429e+02
  -2.561829e+02   2.248759e+02
  -3.536820e+02  -3.657197e+02
   9.490916e+01  -4.894609e+02
   5.069190e+02  -1.085204e+02
   5.346520e+02   3.750305e+02
   1.155729e+02   6.001739e+02
  -3.969025e+02   3.063225e+02
  -6.572602e+02  -4.780253e+01
  -3.930546e+02  -3.550253e+02
   1.395738e+02  -3.705910e+02
   3.719007e+02  -6.187194e+01
   2.246809e+02   1.094840e+02
  -4.806800e+01   9.303695e+01
  -8.596575e+01  -7.836523e+01
   2.215087e+02  -1.589122e+02
   3.193745e+02   4.712030e+01
   1.351071e+02   2.420028e+02
  -1.768070e+02   2.686647e+02
  -4.083050e+02   1.035862e+02
  -2.361988e+02  -7.496549e+01
  -2.307301e+00  -3.548030e+02
   2.765004e+02  -3.434315e+02
   3.889108e+02  -2.217278e+02
   2.661286e+02   1.546787e+02
   4.682669e+01   4.224247e+02
  -1.013855e+02   3.869446e+02
  -7.217086e+01   1.684201e+02
  -9.770638e+01   1.276177e+01
  -6.327298e+01   1.006663e+02
  -1.872514e+02   7.612248e+01
  -2.486081e+02  -9.526564e+01
  -1.284598e+02  -2.623346e+02
   8.022915e+01  -2.502320e+02
   2.226761e+02   6.913443e+00
   1.909467e+02   2.162763e+02
  -3.017930e+01   2.584801e+02
  -2.849218e+02   1.095719e+02
  -3.305715e+02  -1.530031e+02
  -1.892367e+02  -3.427563e+02
   8.495292e+01  -3.410344e+02
   1.724592e+02  -1.515710e+02
   1.785756e+02  -4.856714e+01
   8.676628e+01  -5.691928e+01
   2.720168e+02  -9.391542e+01
   3.805425e+02   1.148196e+02
   3.466116e+02   2.624409e+02
  -2.034790e+01   4.864346e+02
  -3.558681e+02   3.950643e+02
  -5.025783e+02   1.918155e+02
  -3.332014e+02  -8.497972e+01
  -5.816305e+01  -3.141859e+02
   8.974851e+01  -2.526614e+02
   6.784431e+01  -8.284310e+01
  -1.212511e+02   4.429028e+01
  -1.540406e+02  -1.452494e+01
   1.282082e+00  -2.031005e+02
   2.106244e+02  -1.530477e+02
   1.448350e+02   6.274616e+01
  -4.030448e+01   1.467862e+02
  -1.711636e+02   4.832657e+00
  -1.545381e+02  -2.453459e+02
   4.716872e+01  -3.571156e+02
   2.193898e+02  -1.835445e+02
   3.107093e+02   4.991904e+01
   3.085357e+02   2.994528e+02
   8.611401e+01   2.626033e+02
  -8.633164e+01   2.080739e+02
  -2.050239e+02  -9.869309e+00
  -5.615655e+01  -4.413841e+01
   9.469456e+01   3.657496e+01
   4.084104e+01   1.340695e+02
  -1.368986e+02   1.235236e+02
  -1.909428e+02  -3.685478e+01
   2.858636e+01  -4.183163e+01
   9.812142e+01  -1.621559e+01
   3.986123e+01   7.696408e+01
  -1.098514e+02   8.309675e+01
  -3.203395e+02  -2.962054e+01
  -2.804917e+02  -1.823435e+02
  -5.939186e+01  -2.768781e+02
   2.449826e+02  -2.804793e+02
   2.691846e+02  -1.018669e+02
   1.765927e+02   9.108331e+01
  -1.357532e+01   1.135591e+02
  -9.689886e+01   3.023607e+01
   3.625822e+01  -1.015818e+02
   2.068456e+02  -5.740548e+01
   2.211827e+02   1.317376e+02
   8.757188e+01   2.257123e+02
  -1.551357e+02   1.486912e+02
  -1.362474e+02   6.444689e+00
  -8.499088e+01  -3.413780e+01
   3.443905e+01  -4.496134e+01
   5.020083e+01   1.018228e+02
  -3.944312e+01   6.954161e+01
  -1.601925e+02   6.674087e+00
  -1.651890e+02  -1.151427e+02
  -1.541303e+01  -2.399695e+02
   1.282755e+02  -1.837733e+02
   1.725243e+02  -6.458418e+00
   7.594210e+01   1.014788e+02
  -5.954147e+01   1.242225e+02
  -8.251123e+01   5.515617e+01
  -1.576000e+01   9.136854e+00
   4.852628e+01   4.527198e+00
  -3.180980e+01  -6.697349e+00
  -1.324787e+02  -2.424048e+01
  -9.784076e+01  -6.542527e+01
   5.549842e+00  -1.609157e+02
   1.391537e+02  -1.446462e+02
   2.703544e+02  -2.153847e+01
   2.063247e+02   1.647783e+02
   4.831726e+01   2.633408e+02
  -1.066141e+02   2.004684e+02
  -9.710405e+01   2.927021e+01
  -6.854260e+01  -4.438040e+01
  -4.149629e+01  -3.462078e+01
  -3.933517e+01  -3.432912e+01
  -7.129493e+01   2.813594e+01
  -5.495950e+01  -7.163245e+01
   5.388476e+01  -9.577916e+01
   1.103989e+02  -5.456130e+01
   1.062332e+02   6.629492e+01
  -2.620620e+01   1.271738e+02
  -1.385833e+02   1.089898e+02
  -1.613616e+02  -5.392026e+01
  -1.175136e+02  -1.929961e+02
   1.008113e+02  -2.084667e+02
   3.111178e+02  -1.378067e+02
   2.528170e+02   1.184443e+02
   1.019916e+02   1.530735e+02
  -2.608811e+01   1.762954e+02
  -9.981274e+01   8.659497e+01
  -2.903116e+01   8.501845e+01
  -1.748715e+01   1.142882e+02
  -7.639003e+01   4.998368e+01
  -1.434528e+02  -1.626356e+01
  -1.348587e+02  -1.634883e+02
   4.088576e+00  -2.131458e+02
   9.464455e+01  -1.350109e+02
   1.984894e+02  -3.369381e+01
   1.228808e+02   1.217706e+02
  -2.433095e+01   1.927447e+02
  -4.250129e+01   1.285152e+02
  -5.889774e+01  -1.136613e+01
  -5.392394e+00   3.156843e+01
   1.927119e+01  -5.356067e+01
  -5.088970e+01  -3.662754e+01
  -8.839940e+01  -3.017288e+01
  -3.467418e+01  -2.152469e+01
   3.949040e+01  -7.638937e+01
   1.470357e+02   1.256434e+00
   1.494188e+02   9.146135e+01
   1.467566e+01   9.512017e+01
  -1.682704e+02   5.980968e+01
  -1.650995e+02   1.443379e+00
  -3.361158e+01  -5.218907e+01
   2.192154e+01  -3.392703e+01
   1.246594e+02   2.540564e+01
   3.620113e+01   1.105921e+02
  -7.794519e+01   5.799856e+01
  -6.811235e+01   4.615463e+00
  -1.047893e+02  -4.028550e+01
  -7.763765e+01  -8.408857e+01
  -3.488204e+01   2.632390e+01
  -6.486897e+01  -1.687945e+01
  -6.709203e+01  -8.717967e+01
  -1.372705e+01  -1.750688e+02
   9.290223e+01  -1.616003e+02
   1.368443e+02  -5.215654e+01
   1.264018e+02   9.637436e+01
   8.585938e+00   1.485990e+02
  -1.049127e+02   6.748757e+01
  -6.455499e+01  -1.349736e+01
   5.875535e+01  -2.521129e+01
   1.584745e+02   5.580240e+01
   8.353843e+01   1.122594e+02
  -1.154515e+02   1.550331e+02
  -1.969790e+02   8.639785e+00
  -1.657649e+02  -1.836955e+01
  -3.955764e+01  -1.034846e+02
   6.443346e+01  -9.450389e+01
   3.967383e+01  -2.119717e+01
  -3.462078e+01   3.682052e+01
  -7.050031e+01   8.208550e+00
  -3.462430e+00  -1.383523e+02
   8.450142e+01  -1.559522e+02
   1.802603e+02  -5.221661e+01
   1.472911e+02   8.419721e+01
   1.256470e+01   2.439628e+02
  -1.147368e+02   1.670831e+02
  -1.192133e+02   7.108693e+00
  -9.899576e+01  -1.252412e+02
  -1.358201e+00  -1.351208e+02
   1.426868e+01  -4.992724e+01
   8.760307e+01   2.230411e+01
  -1.535743e+01   1.605245e+01
  -9.501276e+00  -4.431236e+00
   5.445866e+01   1.292592e+01
   3.152168e+01   6.570098e+01
   5.480670e+01   1.018660e+02
  -1.721392e+01   3.400909e+01
  -1.547724e+02  -5.898968e+01
  -1.433121e+02  -5.951517e+01
  -4.947546e+01  -5.349792e+01
   1.030509e+02  -5.240142e+01
   9.123429e+01  -7.231689e+00
   2.807703e+01   6.619377e+00
  -5.189394e+01   2.493612e+01
  -3.262066e+01   5.849737e+01
   2.574560e+01  -1.568045e+01
   8.352339e+00  -3.850643e+01
  -6.729865e+01  -2.011600e+01
  -9.462708e+01  -4.947233e+01
  -1.635889e+01  -9.511654e+01
   1.266082e+02  -1.457505e+02
   2.032743e+02  -8.959715e+01
   1.773494e+02   6.215810e+01
   3.183664e+01   1.774796e+02
  -8.174822e+01   1.696377e+02
  -1.150251e+02   6.310905e+01
  -5.603960e+01  -5.423346e+01
  -2.555123e+01  -1.030460e+01
   1.485257e+01  -2.341677e+01
  -2.627858e+01  -6.376200e+01
  -6.141379e+01  -8.135864e+01
  -2.952619e+01  -5.876727e+01
   3.416418e+01  -6.755270e+01
   1.069455e+02   2.977951e+01
   1.078700e+02   1.143520e+02
   2.297214e+01   1.108952e+02
  -5.650409e+01   1.644506e+01
  -1.032495e+02  -5.245082e+01
  -5.738335e+01  -1.111745e+02
   8.349016e+01  -3.344235e+01
   6.110391e+01   3.183344e+01
   5.880404e+01   8.533205e+01
  -6.038459e+01   3.229077e+01
  -3.466745e+01   1.480655e+01
   4.573664e+01   2.208791e+01
   8.227136e+01   1.248052e+01
  -1.823303e+01   2.216875e+00
  -7.447907e+01   5.077467e+01
  -1.247176e+02   7.052705e+01
  -8.054848e+01   2.200182e+01
   1.309989e+01  -1.077758e+02
   3.097711e+01  -8.673986e+01
   5.774228e+01  -4.378446e+01
  -2.157802e+01   7.913738e+01
  -2.518218e+01   1.968886e+01
  -3.398870e+01  -1.228998e+01
  -3.357967e+01  -4.874432e+01
  -2.534745e+01  -4.240716e+01
   2.176080e+01   1.560406e+01
   3.492746e+01   5.469386e+01
   1.586899e+01  -2.892531e+01
   1.181638e+01  -1.660193e+01
  -4.545071e+01   3.252925e+00
   5.844090e+00   3.518051e+01
  -2.979961e+01   3.107419e+01
  -8.085082e+01   2.082293e+01
  -5.418471e+01  -3.947140e+01
  -4.161652e+00  -3.989141e+01
   3.349099e+01  -2.431216e+01
   2.385411e+01   4.571599e+01
  -1.654965e+01   7.225850e+01
  -3.004387e+01   5.998014e+00
  -7.886507e+01   1.037976e+01
  -7.165001e+01  -3.343181e+01
   3.653917e+01  -3.189766e+01
   7.031894e+01  -4.260675e+01
   2.889913e-01   4.011364e+01
   2.079777e+00   1.442933e+01
  -6.054116e+01  -3.444720e+01
   3.122570e+01  -4.871611e+01
   4.998046e+01  -4.622284e+01
