
 $NMID
 id='ANONYMOUS ', fmtdat='(2E16.6)'
 volume=1.0
 tramp=1.0
 $END
  -3.288014e+03   6.868006e+01
  -1.845806e+03  -1.973857e+03
   2.579375e+02  -2.334773e+03
   1.466871e+03  -6.679993e+02
   6.857494e+02   6.617507e+02
  -6.833093e+02   4.099212e+02
  -5.903973e+02  -3.223709e+02
  -5.486654e+01  -7.478931e+02
   6.192550e+02  -5.761141e+02
   6.366117e+02   8.719031e+01
   2.038838e+02   5.679221e+02
  -1.907239e+02   6.804478e+02
  -4.437289e+02   3.987707e+00
  -2.377520e+02  -6.220114e+02
   2.194041e+02  -4.439265e+02
   4.323286e+02   6.808079e+01
   1.949865e+02   5.327448e+02
  -1.696099e+02   4.551078e+02
  -4.393104e+02   1.275254e+02
  -3.106542e+02  -2.697215e+02
  -1.059245e+01  -3.281008e+02
   2.046596e+02  -2.033101e+02
   1.266065e+02   1.319078e+01
  -8.614274e+01   7.644877e+01
  -3.211907e+02  -6.417873e+01
  -1.066624e+02  -3.987495e+02
   3.500409e+02  -2.446382e+02
   4.847538e+02   4.232058e+01
   3.452753e+02   4.934256e+02
  -2.896656e+02   3.021410e+02
  -5.147499e+02   3.009031e+01
  -2.603272e+02  -3.611748e+02
   2.288141e+02  -3.684893e+02
   4.664647e+02  -1.820348e+02
   2.777440e+02   1.683279e+02
   1.137440e+01   3.804359e+02
  -1.267391e+02   2.120408e+02
  -1.003092e+02  -1.455292e+02
   1.848791e+02  -3.041632e+02
   2.878253e+02   7.533654e+01
   1.148317e+02   5.044586e+02
  -2.857163e+02   4.961201e+02
  -3.937136e+02   3.380823e+01
  -2.867414e+02  -4.432752e+02
   2.142629e+02  -2.259852e+02
   2.470524e+02   2.442668e+02
  -9.009227e+01   4.155003e+02
  -3.986815e+02   6.969054e+01
  -4.332810e+02  -2.953919e+02
  -8.959762e+01  -3.956575e+02
   2.548810e+02  -2.612349e+02
   4.398082e+02   6.209637e+01
   2.674647e+02   1.760229e+02
  -9.850101e+01   2.945227e+02
  -3.704124e+02   3.989612e+01
  -2.021412e+02  -1.440537e+02
   7.235625e+01  -1.039226e+02
   8.339488e+01   1.299865e+02
  -1.241545e+02   1.209157e+02
  -2.515870e+02  -4.285058e+01
  -1.079595e+02  -2.617895e+02
   1.325735e+02  -2.359201e+02
   2.219974e+02  -8.460678e+01
   1.642051e+02   5.911427e+01
  -2.435339e+01   1.743885e+02
  -1.224183e+02   2.325568e+02
  -3.092425e+02   2.120125e+02
  -1.987801e+02  -8.748780e+01
  -3.607369e+01  -3.387334e+02
   6.728575e+01  -2.274444e+02
   9.360371e+01  -8.192006e+01
   4.954934e+01  -3.803828e+01
   2.555655e+01  -4.684427e+01
   1.555840e+02  -7.857385e+01
   2.169492e+02   7.713419e+01
   8.564345e+01   2.258967e+02
  -5.001734e+01   2.097684e+02
  -1.689849e+02  -1.674141e+01
  -1.244738e+02  -2.093175e+02
   4.603778e+01  -2.134656e+02
   2.041255e+02  -3.682642e+01
   2.742173e+02   1.291446e+02
   1.545357e+02   2.710957e+02
  -7.760876e+01   1.712564e+02
  -1.841467e+02   1.552450e+02
  -1.025451e+02   4.261699e+00
  -7.633378e+01   1.260684e+01
  -1.567168e+02   1.911163e+01
  -2.681175e+02  -2.867467e+01
  -2.439581e+02  -1.903121e+02
  -1.472230e+01  -3.046600e+02
   2.987155e+02  -2.818230e+02
   3.341474e+02  -1.057819e+02
   2.731544e+02   5.888627e+01
   1.180826e+01   2.172633e+02
  -7.469892e+01   2.050421e+02
  -7.791835e+01   2.088840e+01
   6.597736e+01  -7.991476e+01
   1.625720e+02  -1.098946e+01
   3.715462e+00   1.891374e+02
  -8.815679e+01   1.049109e+02
  -1.211511e+02  -4.436472e+01
   8.488928e+00  -1.515870e+02
   1.679213e+02  -1.182449e+01
   1.220023e+02   1.851117e+02
  -1.944505e+01   2.261940e+02
  -1.782615e+02   1.308049e+02
  -2.566072e+02  -6.803932e+01
  -2.206021e+02  -1.675429e+02
  -5.612163e+01  -2.351900e+02
   6.218648e+01  -1.275455e+02
   1.674941e+02  -4.777007e+00
   1.333181e+01   1.240682e+01
  -3.658415e+01  -4.078091e+01
  -4.323757e+01  -1.302268e+02
   7.868892e+01  -1.073055e+02
   1.657392e+02   1.656551e+01
   4.337301e+01   7.396492e+01
  -7.687894e+01   3.343227e+01
  -6.013432e+01  -2.992472e+01
   1.165331e+02  -8.401933e+01
   1.557304e+02  -1.573158e+01
   1.854080e+02   1.061816e+02
   6.047279e+01   2.205582e+02
  -1.638624e+02   1.838776e+02
  -2.435252e+02   1.142609e+02
  -1.328615e+02  -4.266750e+01
   1.152259e+01  -4.982889e+01
   3.294973e+01   1.645260e+01
  -4.647718e+01   1.051304e+02
  -1.737493e+02   3.864803e+01
  -1.965957e+02  -7.743001e+01
  -6.322321e+01  -1.741957e+02
   6.522522e+01  -1.123659e+02
   1.026817e+02  -1.698514e+01
   5.179166e+01   5.775739e+01
   1.683703e+01  -1.532531e+01
  -2.396123e+01  -6.837642e+01
   5.014178e+01  -6.761205e+01
   1.550366e+02  -1.085348e+01
   1.530052e+02   5.465039e+01
   9.362178e+00   1.686991e+02
  -1.222864e+02   1.316085e+02
  -1.303267e+02  -2.552150e-01
  -6.167956e+01  -5.542134e+01
  -3.472023e-01  -8.004423e+01
   2.873125e+01  -4.045128e+01
   3.094725e+01   8.339989e+00
  -2.402201e+01  -4.061785e-01
   1.184581e+01  -1.343124e+01
   3.946067e+01  -2.927443e+01
   7.147475e+01   6.862890e+01
   1.099038e+00   1.245530e+02
  -8.416123e+01   9.493502e+01
  -1.732805e+02   3.318884e+01
  -1.530956e+02  -1.570016e+02
  -1.593387e+01  -1.280886e+02
   8.956998e+01  -1.230680e+02
   1.062577e+02  -2.102411e+01
   4.586658e+01   4.434248e+01
   7.265602e+00   5.856425e+01
   1.886119e+01   6.316323e+00
   5.739419e+01   3.180832e+01
   1.789946e+01   4.216441e+01
  -1.874683e+01   7.315564e+01
  -7.909008e+01   1.290421e+01
  -3.631807e+01  -3.778263e+01
  -2.631679e+00  -4.537306e+01
   6.982984e+01  -3.718209e+01
   1.332970e+02   2.158234e+01
   9.278763e+01   1.202514e+02
  -4.100986e+01   1.804897e+02
  -1.859251e+02   6.354238e+01
  -1.764468e+02  -3.749010e+01
  -4.128160e+01  -1.262207e+02
   1.186605e+01  -1.281686e+02
   5.856814e+01  -7.991682e+01
   6.114529e+01  -8.554969e+01
   1.832458e+01  -7.277855e+01
   7.057047e+01  -5.600033e+01
   7.686774e+01   2.328450e+01
   6.873021e+01   8.958270e+01
   4.376244e+01   1.923791e+02
  -5.986845e+01   1.298552e+02
  -1.457880e+02   4.831465e+01
  -9.598592e+01  -8.449945e+01
  -5.442494e+00  -1.318567e+02
   3.824021e+01  -4.434664e+01
   4.256643e+01   1.949660e+01
  -5.273738e+00   1.521758e+01
  -5.735264e+01   2.648064e+01
   1.872017e+01   3.885493e+01
   4.997874e+01   6.384644e+00
   2.005744e+01   1.123917e+01
  -3.769208e+01   2.252222e+01
  -9.633878e+01  -4.141451e+00
  -1.097020e+02  -4.320586e+01
  -1.894422e+01  -4.256532e+01
   9.241964e+01  -6.129385e+01
   9.406501e+01   2.069136e+01
   3.482452e+01   1.747564e+01
  -7.082184e+01   4.324795e+01
  -2.777504e+01  -4.418878e+01
  -9.563052e+00  -3.473075e+01
   2.847786e+01  -5.995658e+01
   5.914163e+01  -1.611621e+00
   5.412542e+01   3.959461e+01
   1.674373e+01   3.078862e+01
   4.827783e+01   5.866730e+00
   6.212093e+01   4.960225e+01
   2.957295e+01   4.183136e+01
  -3.727012e+01   8.832536e+01
  -1.183234e+02   9.285089e+01
  -1.153787e+02   3.207277e+01
  -1.136434e+02  -8.827016e+01
   3.445795e+01  -7.984581e+01
   8.126714e+01   1.487213e+01
   2.381931e+01   1.456452e+01
  -2.499125e+01   3.639559e+01
  -9.301873e+01  -3.003274e+00
  -5.166796e+01  -1.165200e+02
   9.535275e+01  -8.901473e+01
   1.301791e+02  -4.501304e+01
   1.490458e+02   1.601683e+01
   3.380949e+01   6.777191e+01
  -2.792845e+01  -2.446043e-02
  -4.068626e+01   1.296925e+00
   1.518964e+01   5.699119e-01
   9.042352e+01   1.595062e+01
   9.414092e+00   6.968923e+01
  -5.274864e+01   1.104237e+02
  -8.844262e+01   5.208868e+01
  -8.495254e+01  -7.524081e+01
  -1.202703e+01  -1.257955e+02
   4.690988e+01  -1.182511e+02
   7.915908e+01   7.150941e-01
   4.174568e+01   7.090598e+01
   3.917504e+00   5.216117e+01
  -6.946460e+01   3.308918e+01
  -3.766567e+01  -4.642472e+01
  -1.235828e+01   1.655341e+01
  -6.100508e+00   1.168919e+01
   1.449248e+01  -2.580791e+01
  -4.515211e+01  -9.735503e+01
  -1.621827e+01  -8.645106e+01
   4.901641e+01  -2.472929e+01
   1.065739e+02  -1.675035e+01
   5.273675e+01   2.233454e+01
   2.685107e+01   8.095753e+01
  -4.987003e+01   3.118178e+01
  -3.010854e+01   2.009431e+01
  -3.523788e-01  -8.564460e+00
   1.047419e+01   1.017977e+01
   1.180567e+01  -9.330374e-01
  -7.866928e+00  -1.104639e+01
   6.153012e+00  -2.192121e+00
   4.131290e+01  -1.895432e+01
   6.521552e+01   2.652592e+00
   9.248158e+00   6.130257e+01
  -9.342754e+01   7.584775e+01
  -1.066374e+02   6.485676e+01
  -8.503963e+01  -4.709073e+01
  -3.029440e+00  -1.100487e+02
   1.905539e+01  -1.010713e+02
   9.189283e+01  -1.388943e+01
   4.501403e+01   5.289749e-01
  -2.712618e+00   2.326811e+01
   8.212606e+00   4.991119e+00
  -1.245142e+01   1.060264e+00
  -9.712979e+00   7.087496e+01
   3.105765e+01   4.659369e+01
  -3.449184e+01   7.604391e+01
  -5.563747e+01  -4.067388e-01
  -6.242143e+01  -7.598382e+01
   2.818550e+00  -7.698639e+01
   3.234634e+01  -2.863371e+00
   4.159093e+01   4.725448e+01
   3.146634e+00   1.106988e+02
  -3.763791e+01   1.182473e+01
  -4.614454e+01   5.848076e+00
  -2.693271e+01  -1.217479e+01
   3.831566e+01  -4.270480e+01
   5.205625e+01  -1.735761e+01
   7.282908e+00   1.924506e+01
  -4.101208e+01   2.965707e+01
   1.337638e+01  -9.727640e+00
   9.431392e+01  -5.926495e+01
   9.407317e+01  -3.293745e+01
   6.679734e+01   2.850420e+01
  -5.633114e+01   3.149394e+01
  -5.622254e+01   4.421216e+01
  -6.634591e+01   4.584080e-01
  -2.483299e+01  -2.953651e+00
   3.401789e+01  -4.007201e+01
   1.273071e+01   9.308991e+00
   1.093129e+01   4.111307e+01
  -1.782522e+01  -1.098311e+00
  -1.837493e+01  -2.390246e+01
  -1.494143e+01  -6.609071e+00
  -3.238464e+01   8.148535e+00
   2.450103e+00   2.525930e+01
  -2.517483e-01  -3.635064e+01
   8.417991e+00  -4.632635e+01
   2.292657e+01  -2.070252e+01
   3.264855e+01  -7.564513e+00
   1.140886e-01   3.239738e+01
   1.416137e+01   4.900507e+01
  -3.866030e+01   3.718508e+01
  -7.786961e+01  -2.705810e+01
  -2.354846e+01  -4.433883e+01
   1.615547e+01  -1.558012e+01
   3.029591e+01  -6.080973e+00
   1.671216e+01   5.339890e+01
  -2.888683e+01   6.639863e+01
  -6.246242e+01   1.224674e+01
  -2.676425e+01   4.105564e+01
   3.912146e+01   3.586145e+01
   9.341999e+00  -1.553695e+00
  -3.453800e+00   3.991341e+01
  -7.522095e+01   2.371946e+00
