
 $NMID
 id='ANONYMOUS ', fmtdat='(2E16.6)'
 volume=1.0
 tramp=1.0
 $END
   2.793317e+03   1.343496e+01
   1.890439e+03   1.430444e+03
   6.488499e+01   1.618430e+03
  -9.835950e+02   1.082237e+03
  -7.191329e+02   8.189414e+01
   1.179344e+02  -5.545104e+00
   3.640723e+02   4.030410e+01
   2.281509e+02   5.719419e+02
  -4.867383e+02   5.452288e+02
  -4.539782e+02   7.558694e+01
  -5.552844e+02  -4.518026e+02
  -1.198703e+02  -7.268295e+02
   2.369387e+02  -2.132593e+02
   3.169215e+02   4.022307e+02
  -1.411232e+02   4.560179e+02
  -3.747800e+02   6.322139e+01
  -2.506287e+02  -4.613962e+02
   5.887126e+01  -5.145753e+02
   3.800124e+02  -2.052317e+02
   3.471660e+02   1.736747e+02
   1.645573e+02   2.941915e+02
  -1.432027e+02   2.049523e+02
  -1.513123e+01   8.204506e+01
   1.632311e+02   1.089261e+02
   2.350120e+02   2.781859e+02
   2.273142e+01   2.996711e+02
  -4.977191e+02   1.269636e+02
  -5.553050e+02  -2.517706e+02
  -2.775493e+02  -2.994833e+02
   1.989303e+02  -1.878128e+02
   4.161099e+02   1.335453e+02
   1.969329e+02   2.483516e+02
  -2.477657e+02   2.874211e+02
  -3.849963e+02   8.151905e+01
  -2.839389e+02  -6.972725e+01
  -9.501288e+01  -2.434755e+02
   3.372101e+00  -2.179892e+02
  -1.829363e+01   8.430654e+01
  -1.190621e+02   1.348935e+02
  -1.984198e+02  -1.481033e+02
  -6.351078e+01  -4.167383e+02
   1.916408e+02  -2.945371e+02
   2.516826e+02  -5.627218e+01
   8.578297e+01   3.456410e+02
  -1.021082e+02   1.358793e+02
  -2.088844e+02  -2.014117e+02
   6.933381e+01  -3.687238e+02
   4.007103e+02  -3.980324e+01
   4.616348e+02   3.045973e+02
   1.417209e+02   4.096202e+02
  -2.300321e+02   2.598660e+02
  -4.261466e+02  -4.512509e+01
  -3.474966e+02  -1.733256e+02
   1.044396e+02  -2.127035e+02
   2.648283e+02  -1.375066e+02
   2.154361e+02   3.364765e+01
   1.299096e+00   3.676665e+01
  -9.365562e+01  -5.061338e+01
   7.285508e+01  -4.143776e+01
   1.838418e+02   2.664180e+01
   1.927178e+02   1.672097e+02
  -1.333014e+02   2.000032e+02
  -2.760861e+02   9.672645e+01
  -2.111879e+02  -4.736612e+01
   6.312352e+01  -2.591945e+02
   2.355628e+02  -3.449163e+02
   2.801641e+02  -1.148955e+02
   1.996025e+02   1.559015e+02
   3.305077e+01   2.970207e+02
  -2.451938e+01   3.076740e+02
  -1.765076e+01   1.316583e+02
  -2.874022e+01   9.431019e+01
  -1.138510e+02   1.258161e+02
  -2.140114e+02   4.206446e+01
  -2.171533e+02  -1.341362e+02
  -8.139326e+01  -2.434325e+02
   8.900830e+01  -1.249992e+02
   1.661549e+02   1.661276e+01
   1.144117e+02   2.039577e+02
  -7.545848e+00   1.945209e+02
  -2.086190e+02   3.037689e+01
  -2.908043e+02  -1.084186e+02
  -1.530550e+02  -2.603581e+02
   8.728813e+01  -2.026272e+02
   1.334233e+02  -1.313375e+02
   1.142118e+02  -6.483201e+01
   1.409089e+02  -8.884740e+01
   2.383054e+02  -4.807584e+01
   3.394775e+02   7.361164e+01
   2.611187e+02   2.161752e+02
  -2.297889e+01   4.078303e+02
  -3.426300e+02   3.658480e+02
  -4.469957e+02   1.228551e+02
  -2.430063e+02  -8.654017e+01
   3.568625e+01  -2.039941e+02
   3.476009e+01  -1.680804e+02
  -3.922598e+00  -4.537629e+01
  -7.041564e+01  -4.180923e+00
  -1.270067e+02   8.846696e+00
  -4.960346e+01  -1.165150e+02
   5.828060e+01  -8.389689e+01
   6.541790e+01   4.193451e+01
  -4.879311e+01   9.047882e+01
  -1.558367e+02   6.805724e+00
  -1.422325e+02  -2.259375e+02
  -3.498860e-01  -3.044691e+02
   2.514340e+02  -2.077681e+02
   3.043534e+02   7.764665e+01
   2.030244e+02   2.388825e+02
   7.236167e+01   2.419276e+02
  -1.035786e+02   1.270428e+02
  -1.394352e+02   1.305914e+01
  -2.198498e+01  -2.129712e+01
   2.907150e+01   2.392457e+01
   1.326085e+01   7.895439e+01
  -1.304164e+02   6.768033e+01
  -1.247031e+02  -7.698132e+01
  -1.737310e+01  -5.100891e+01
   7.232262e+01   1.192600e+01
   2.396045e+01   9.540496e+01
  -1.477813e+02   1.201183e+02
  -2.562993e+02  -1.906254e+01
  -2.177267e+02  -1.006938e+02
  -4.731215e+01  -2.136005e+02
   1.689045e+02  -2.221497e+02
   2.343182e+02  -9.932021e+01
   9.555951e+01   1.260208e+01
  -5.806792e+01   8.574773e+01
  -7.086908e+01  -3.763214e+01
   7.661560e+01  -7.197344e+01
   1.130431e+02  -4.170866e+01
   1.261496e+02   8.151147e+01
   1.254338e+01   1.618980e+02
  -7.752514e+01   1.436131e+02
  -1.168339e+02   6.825976e-01
  -1.657772e+01  -2.910909e+01
   1.120756e+01   1.818810e+00
   6.231481e+01   9.799800e+01
  -8.435893e+01   1.191578e+02
  -2.184456e+02   8.598665e-01
  -1.559311e+02  -1.417151e+02
  -1.537150e+01  -1.633128e+02
   1.017137e+02  -1.094037e+02
   1.917953e+02  -4.816885e+01
   4.572534e+01   5.824304e+01
  -2.491312e+01   6.934411e+01
  -1.063930e+01   2.241928e+01
  -1.099670e+01  -1.467352e+01
   1.399822e+01  -7.800061e-01
  -9.313835e+00   1.504044e+01
  -7.210191e+01   8.438847e+00
  -1.163501e+02  -6.858848e+01
   4.337422e+01  -1.639769e+02
   1.109238e+02  -1.270910e+02
   1.832449e+02  -4.395996e+01
   1.668209e+02   1.340501e+02
   6.686347e+01   1.936390e+02
  -8.736399e+01   1.397214e+02
  -1.166626e+02   5.215278e+01
  -3.993894e+01  -6.813711e+01
  -4.726842e+01  -4.283930e+01
  -4.001936e+01   1.733693e+01
  -6.387092e+01   3.365354e+01
  -4.675684e+01  -7.451949e+01
   3.253329e+01  -6.778440e+01
   1.073757e+02  -2.725675e+01
   5.448719e+01   3.094005e+01
  -1.098103e+01   1.304942e+02
  -1.410543e+02   7.744502e+01
  -1.969065e+02  -6.693846e+01
  -5.438599e+01  -1.638300e+02
   1.225313e+02  -1.801833e+02
   2.289067e+02  -1.050526e+02
   2.347888e+02   9.965826e+01
   7.607269e+01   1.560244e+02
   4.704388e+00   8.756631e+01
  -5.982907e+01   9.188870e+01
  -9.573874e+01   7.668665e+01
  -6.249557e+01   7.089384e+01
  -9.514859e+01   8.313312e+01
  -9.118394e+01   3.015381e+01
  -1.261504e+02  -7.974369e+01
   5.216901e+00  -2.014559e+02
   8.594717e+01  -1.410418e+02
   1.256312e+02  -2.167649e+00
   1.123725e+02   1.032237e+02
   2.483817e+01   1.203489e+02
  -3.929903e+01   5.611771e+01
  -4.742372e+01  -6.727937e+00
   6.955170e+00  -3.505399e+01
   1.329285e+01  -6.621427e+01
  -1.944645e+00  -2.349768e+01
  -6.231717e+01  -1.301804e+01
  -8.043131e+01  -5.670019e+01
   5.260145e+01  -4.641025e+01
   1.392291e+02  -8.194448e+00
   9.075318e+01   2.554830e+01
   1.054032e+01   1.194563e+02
  -1.249178e+02   6.094000e+01
  -7.229378e+01  -8.177165e+00
  -3.474055e+01  -7.787976e+01
   4.952865e+01  -4.107963e+01
   8.726609e+01  -7.211500e+00
  -1.588350e+01   5.897606e+01
   3.707072e+00   1.524342e+01
  -4.195201e+01  -1.751585e+01
  -3.856056e+01  -5.055979e+01
  -5.740268e+01  -5.353072e+01
  -4.303675e+01  -3.709577e+00
  -2.772613e+01  -1.468360e+00
  -1.829107e+01  -6.253993e+01
  -1.142747e+00  -1.428645e+02
   1.126830e+02  -1.340436e+02
   1.935002e+02  -1.924146e+01
   1.322932e+02   9.277751e+01
  -4.623308e+00   7.029705e+01
  -6.179009e+01   5.685234e+01
  -7.090088e+01  -3.727087e+01
   3.505502e+01  -4.808823e+00
   1.190736e+02   1.284092e+01
   1.001813e+02   7.943062e+01
  -4.823605e+01   1.197999e+02
  -1.755007e+02   6.148303e+01
  -1.738392e+02  -1.436636e+01
  -7.030022e+01  -8.947224e+01
   7.975502e+01  -2.952357e+01
   1.936446e+01   2.469771e+00
  -4.414011e+01  -2.660173e+00
  -5.674104e+01  -4.187432e+01
  -7.716419e+01  -9.776304e+01
   7.286735e+01  -1.350596e+02
   1.217209e+02  -1.139205e+02
   9.791498e+01   7.253178e+01
   5.854593e+00   1.920056e+02
  -6.618339e+01   1.598246e+02
  -9.095836e+01  -1.811034e+01
  -1.170125e+01  -7.742332e+01
   2.647994e+01  -8.374347e+01
   5.686674e+01  -7.462414e+00
   4.028009e+00   1.504480e+01
   3.102126e+01   5.480858e+00
  -8.010259e+00  -2.829707e+01
   4.557642e+01  -1.167410e+01
   6.205932e+01   7.227165e+01
   2.742398e+01   6.622257e+01
  -5.789522e+01   2.972969e+01
  -1.287252e+02  -4.385262e+01
  -1.506795e+02  -8.511071e+01
   2.234280e+00  -3.427522e+01
   6.420217e+01   2.301417e+00
   8.094603e+01  -2.564805e+01
   4.415238e+01   4.920672e+01
  -3.030537e+01   3.364566e+01
  -7.440808e+00   1.751796e+01
   3.172793e+01   5.959128e+00
  -3.633784e+00  -2.562945e+01
  -6.900121e+01  -2.649876e+01
  -8.315856e+01   1.569221e+01
  -3.618420e+01  -6.303630e+01
   8.418694e+01  -1.248803e+02
   1.753142e+02  -1.290057e+02
   1.378053e+02   2.638330e+01
   6.693649e+01   1.125224e+02
  -7.599961e+01   1.123842e+02
  -8.007571e+01   3.894495e+01
  -5.949666e+01  -5.880144e+00
   6.929220e+00  -2.983509e+01
  -1.164016e+00  -4.025865e+01
  -3.705373e+01  -5.092885e+00
  -3.856068e+01  -6.085223e+01
   5.087931e+00  -6.320573e+01
  -1.922351e+01  -7.440181e+01
   6.015064e+01   2.559363e+01
   6.748410e+01   9.085558e+01
  -1.317430e+01   6.788400e+01
  -4.482782e+01   3.127904e+01
  -9.008339e+01  -5.139652e+01
  -5.535608e+01  -7.250972e+01
   3.617916e+01  -8.333505e+01
   4.351404e+01  -1.712034e+01
   7.513941e+01   5.273377e+01
  -1.482196e+01   8.602789e+01
  -4.396540e+01   2.107407e+01
   9.818446e+00   2.782900e+01
   8.559701e+01   4.563025e+01
   2.792699e+01   3.886844e+01
  -8.142343e+01   3.486610e+01
  -1.099017e+02   3.165031e+01
  -5.971956e+01  -3.742753e+01
   2.119546e+01  -8.626526e+01
   7.043342e+01  -7.448212e+01
   3.877154e+00   1.551423e+01
   1.128669e+01   6.417092e+01
  -3.429950e+01   4.740683e+01
  -4.547707e+01  -2.306511e+01
  -2.356863e+01  -6.534554e+01
   3.076804e+01  -4.107371e+01
   8.045322e+01  -1.381579e+01
   2.133280e+01  -9.325671e-01
   4.240719e+01  -4.706396e+00
  -1.648594e+01  -1.938829e+01
  -3.515078e+01   7.816487e+00
   2.869911e+01   4.848117e+01
   1.652624e+01  -4.237285e+00
  -2.831864e+01   1.370396e+00
  -1.667026e+01  -2.759603e+01
  -1.753185e+01  -5.022554e+01
   4.186313e+01  -3.333124e+01
   6.888307e+01   1.400749e+01
   4.136831e+01   7.889304e+01
  -6.137974e+01   5.761707e+01
  -7.214341e+01  -3.153485e+01
  -5.897305e+01  -3.647617e+01
   6.180232e+00  -3.420385e+01
   3.821449e+01   1.274861e+01
   3.838659e+01   7.465661e+00
  -2.313724e+00   3.047819e+01
  -3.292089e+01   1.027972e+01
   6.730278e+01   2.030773e+01
   3.406300e+01  -2.116619e+01
