
 $NMID
 id='ANONYMOUS ', fmtdat='(2E16.6)'
 volume=1.0
 tramp=1.0
 $END
  -4.690730e+03   5.002920e+01
  -2.414670e+03  -2.634113e+03
   6.346712e+02  -2.876716e+03
   2.042112e+03  -1.022581e+03
   8.835401e+02   6.983284e+02
  -6.326860e+02   5.569396e+02
  -9.240868e+02  -3.413650e+02
   1.593374e+01  -1.047890e+03
   7.505959e+02  -8.033399e+02
   9.983421e+02   3.592775e+01
   4.846011e+02   9.264001e+02
  -2.754239e+02   9.137866e+02
  -7.282681e+02   1.130409e+02
  -2.939445e+02  -7.080248e+02
   3.181149e+02  -8.472853e+02
   6.106541e+02  -2.190810e+01
   1.959639e+02   6.761888e+02
  -3.867926e+02   6.535532e+02
  -6.006790e+02   9.458756e+01
  -3.841617e+02  -3.195701e+02
  -4.615750e+01  -4.695487e+02
   2.208834e+02  -3.109323e+02
   2.566883e+02  -2.811151e+01
  -1.393432e+02   1.443364e+02
  -3.996161e+02  -1.241406e+02
  -2.276493e+02  -4.487351e+02
   5.158000e+02  -4.558165e+02
   9.633669e+02   1.455317e+01
   3.660402e+02   6.664969e+02
  -4.836615e+02   4.955316e+02
  -8.261340e+02   2.401368e+00
  -3.748717e+02  -5.304889e+02
   2.579582e+02  -5.784624e+02
   6.048037e+02  -2.276656e+02
   4.985325e+02   2.631234e+02
   9.086508e+01   5.456193e+02
  -2.166774e+02   3.079115e+02
  -2.025431e+02  -2.006159e+02
   1.358521e+02  -5.109231e+02
   4.887993e+02  -3.211422e+00
   2.457689e+02   6.881060e+02
  -3.846117e+02   7.055014e+02
  -7.291107e+02   2.946010e+01
  -2.580842e+02  -6.121668e+02
   2.693906e+02  -3.352199e+02
   4.634445e+02   3.055573e+02
  -1.241058e+02   6.000353e+02
  -6.153334e+02   1.482627e+02
  -6.467045e+02  -3.736581e+02
  -1.843276e+02  -5.996496e+02
   4.066577e+02  -3.811280e+02
   6.253523e+02   3.803049e+01
   3.409317e+02   3.543883e+02
  -1.293360e+02   4.027438e+02
  -5.088322e+02   6.540591e+01
  -2.234385e+02  -1.572344e+02
   1.077930e+02  -7.512840e+01
   1.130867e+02   9.019806e+01
  -1.435133e+02   1.703553e+02
  -3.727674e+02   1.149215e+01
  -1.598210e+02  -3.520399e+02
   1.769936e+02  -2.877853e+02
   3.360648e+02  -6.426612e+01
   2.000865e+02   1.097571e+02
  -3.177387e+01   2.160773e+02
  -2.570440e+02   3.811067e+02
  -3.275604e+02   2.374302e+02
  -2.982102e+02  -1.256588e+02
  -1.416965e+02  -4.562306e+02
   7.792020e+01  -4.157323e+02
   1.600211e+02  -1.522905e+02
   2.900110e+01   1.631250e+00
   4.753956e+01  -7.900671e+01
   1.801939e+02  -1.293171e+02
   2.551338e+02   7.415848e+01
   1.932117e+02   2.768171e+02
   4.595740e+00   2.874060e+02
  -2.779430e+02   4.333289e+01
  -1.897730e+02  -2.756352e+02
  -4.087228e+01  -3.184395e+02
   2.601041e+02  -1.621413e+02
   3.984668e+02   1.013265e+02
   1.787540e+02   3.590065e+02
  -1.084039e+02   3.393379e+02
  -2.435926e+02   1.612532e+02
  -1.676705e+02   1.345885e+01
  -1.017983e+02   7.364432e+01
  -2.746203e+02   6.859242e+01
  -3.932647e+02   1.338726e+01
  -3.733356e+02  -2.953555e+02
  -2.329596e+01  -4.462735e+02
   3.640692e+02  -4.556518e+02
   4.782755e+02  -2.429849e+02
   3.798477e+02   6.666077e+01
   7.744752e+01   3.009977e+02
  -1.118468e+02   2.640912e+02
  -5.909746e+01   2.048395e+01
   5.868965e+01  -1.842335e+02
   2.075447e+02  -8.900188e+00
   1.035422e+02   2.304673e+02
  -1.573622e+02   1.876681e+02
  -2.001116e+02  -7.683296e+01
   4.441030e+00  -1.945352e+02
   1.837994e+02  -6.816047e+01
   2.023589e+02   2.736008e+02
  -1.444777e+01   3.473218e+02
  -2.251939e+02   1.985958e+02
  -3.370921e+02  -3.595536e+01
  -2.738295e+02  -2.361182e+02
  -1.031921e+02  -2.584326e+02
   7.286570e+01  -1.524043e+02
   1.642606e+02  -5.189998e+01
   6.601255e+01   2.093058e+01
  -7.506899e+01  -1.013798e+01
  -1.394163e+01  -1.216379e+02
   1.368645e+02  -1.153524e+02
   1.693749e+02   1.187392e+01
   6.946695e+01   8.440281e+01
  -6.380458e+01   2.846695e-01
  -9.110583e+01  -5.835316e+01
   1.344968e+02  -1.082980e+02
   2.825257e+02  -4.927148e+01
   2.791617e+02   1.503447e+02
   2.889052e+01   2.185603e+02
  -1.798336e+02   2.618144e+02
  -2.953340e+02   1.396655e+02
  -1.394326e+02  -4.252076e+01
  -1.838466e+01  -1.652692e+02
   1.288375e+02  -6.149172e+00
  -5.967394e+01   8.995639e+01
  -1.820987e+02   7.403903e+01
  -2.737070e+02  -1.179199e+02
  -8.990714e+01  -2.029775e+02
   5.223104e+01  -2.035494e+02
   1.770324e+02  -6.319276e+01
   9.980967e+01   7.760656e+01
  -4.770928e+01  -1.851846e+00
  -8.610585e+01  -9.479744e+01
   6.131168e+01  -1.209760e+02
   1.564401e+02  -4.628043e+00
   2.258769e+02   1.274831e+02
   7.016428e+01   2.033830e+02
  -1.697389e+02   1.098777e+02
  -2.041015e+02  -3.477213e+01
  -1.203708e+02  -1.085592e+02
   9.211332e+01  -1.074632e+02
   7.092273e+01  -8.133449e+00
   6.095862e+00   1.641154e+01
  -2.538056e+01   1.525935e+01
  -1.982017e+01   1.611153e+00
   6.060204e+01  -8.027651e+00
   1.011860e+02   3.253490e+01
   3.003151e+01   1.895775e+02
  -1.152936e+02   1.898039e+02
  -2.326976e+02   7.609529e+01
  -2.047755e+02  -1.392858e+02
  -4.025363e+01  -2.455136e+02
   1.077544e+02  -1.626591e+02
   1.295318e+02  -2.325375e+01
   7.914829e+01   7.124199e+01
   5.336055e+01   2.442323e+01
   2.597592e+01  -1.954428e-01
   4.567766e+01   1.837985e+01
   5.432224e+01   1.017220e+01
  -1.134776e+01   8.294170e+01
  -1.239803e+02   3.918328e+01
  -7.790593e+01  -3.035861e+01
  -5.445177e+00  -1.046460e+02
   1.353909e+02  -7.862063e+01
   1.846519e+02   5.145830e+01
   9.535663e+01   1.914510e+02
  -7.984975e+01   2.241663e+02
  -2.428297e+02   1.632171e+02
  -2.429577e+02  -1.017375e+02
  -8.614263e+01  -1.583225e+02
   5.857748e+01  -1.634678e+02
   6.346333e+01  -8.011415e+01
   5.395278e+01  -7.641501e+01
   3.426720e+01  -1.143453e+02
   1.257480e+02  -8.592075e+01
   1.371486e+02   2.219137e+01
   1.207052e+02   1.808253e+02
  -2.522354e+00   2.345761e+02
  -5.799301e+01   1.673884e+02
  -1.738769e+02   1.147912e+01
  -1.463974e+02  -1.574632e+02
  -4.859616e+01  -1.575370e+02
   1.092567e+02  -1.139675e+02
   5.165623e+01  -4.082152e+01
   1.520003e+01   1.743929e+01
  -6.028375e+01   6.106981e+01
   7.148554e+01   2.988800e+01
   7.336942e+01   4.342697e+01
   5.256649e+01   2.112808e+01
  -6.364565e+01   5.687900e+01
  -1.707124e+02   3.783870e+01
  -1.313455e+02   7.597031e-01
  -4.008344e+01  -1.110732e+02
   1.162394e+02  -7.781659e+01
   1.592350e+02  -1.124800e+01
   2.685875e+01   2.007705e+01
  -4.956640e+01   2.794858e+01
  -5.004389e+01  -1.716735e+01
  -8.365540e-01  -5.968512e+01
   4.307510e+01  -7.532310e+01
   4.883487e+01  -5.172421e+00
   5.594099e+01   4.587185e+01
   3.708012e+01   4.918784e+01
   7.808392e+01   2.464723e+01
   8.838184e+01   2.729116e+00
   5.404929e+01   4.501321e+01
  -2.518296e+01   1.155717e+02
  -1.417038e+02   1.250760e+02
  -1.440810e+02   2.434714e+01
  -1.121599e+02  -9.324484e+01
   7.975537e+00  -1.154611e+02
   6.608589e+01  -7.787922e+01
   6.376865e+01   7.385511e+00
  -5.608453e+01   4.125749e+01
  -1.411438e+02  -3.980313e+01
  -4.165978e+01  -6.204899e+01
   9.746360e+01  -1.149009e+02
   2.199895e+02  -7.976353e+01
   1.647484e+02   9.042653e+00
   3.569476e+01   7.400584e+01
  -8.758798e+01   8.426119e+01
  -1.203929e+01   1.751305e+01
   3.182832e+01   2.236517e+00
   1.339073e+02  -2.804695e+01
  -1.243722e+01   1.556228e+02
  -1.036335e+02   1.244313e+02
  -2.004385e+02   8.385185e+01
  -1.221782e+02  -1.039478e+02
  -4.601102e-01  -1.857538e+02
   7.091756e+01  -1.625852e+02
   9.633875e+01   1.389607e+01
   5.141170e+01   8.888078e+01
  -2.144712e+01   1.164058e+02
  -6.789325e+01   4.083491e+01
  -6.312204e+01  -5.866319e+01
  -4.515114e+01  -4.197478e+01
   1.282749e+01  -1.675786e+01
  -2.353456e+01  -8.664171e+00
  -6.182341e+01  -1.051014e+02
  -1.655269e+01  -8.473548e+01
   4.133895e+01  -4.943730e+01
   1.589033e+02   4.315861e+01
   9.896822e+01   5.272816e+01
   3.882284e+00   2.050812e+01
  -9.737470e+01   7.161902e+01
  -1.164405e+02   4.663800e+01
   4.270445e+00   2.243748e+01
   4.320413e+01  -4.463509e+01
   2.386183e+01  -2.732817e+01
  -2.643387e+01   1.793076e+01
   6.852277e+00   2.359409e+01
   9.302777e+01   3.690774e+01
   9.396278e+01   6.333017e+01
   4.101913e+01   9.582033e+01
  -1.044799e+02   1.127052e+02
  -1.633775e+02   8.955914e+01
  -1.649470e+02  -7.879166e+01
  -1.950911e+01  -1.258392e+02
   8.171957e+01  -1.808569e+02
   1.096571e+02  -4.976034e+01
   8.907843e+01   2.361571e+01
   3.348058e+01   7.922531e+01
   1.431187e+01   3.522060e+01
  -9.206681e+00   1.663133e+01
   8.004004e+01   4.945326e+01
   3.447216e+00   5.578415e+01
  -6.606074e+01   9.394932e+01
  -8.133132e+01   1.211337e+01
  -1.000899e+02  -9.587526e+01
   8.363306e+00  -1.163676e+02
   7.505484e+01  -2.441317e+01
   1.273200e+02   6.753839e+01
   2.867238e+01   1.204345e+02
  -8.973177e+01   3.946337e+01
  -9.897082e+01   3.407666e+00
  -2.869450e+01  -1.221969e+01
   1.963191e+01  -9.733099e+01
   2.161625e+01  -2.991766e+01
  -5.436483e+01   3.758073e+01
  -5.662884e+01  -1.206043e+01
  -3.002482e+01  -3.972074e+00
   9.029979e+01  -7.499814e+01
   9.416567e+01  -8.724872e+01
   7.771416e+01   8.227547e+00
  -9.259537e-01   1.047484e+02
  -7.896612e+01   8.715356e+01
  -2.199019e+01   1.352287e+01
   5.065141e+00  -4.824692e+01
   3.115519e+01  -2.613441e+01
   3.793604e+01   4.312087e+01
  -3.969284e+00   2.664079e+01
   2.776823e+01   5.190715e+01
  -1.345564e+01  -2.912986e+01
  -5.374259e+01  -5.550327e+01
  -3.123199e+01  -1.079330e+00
  -2.898201e+01  -2.781295e+01
   1.718929e+01   1.182597e+01
  -3.000862e+01  -1.322837e+01
   1.331885e+01  -3.123823e+01
   2.573543e+01  -4.711545e+01
   2.746048e+01   1.422177e+01
  -6.688556e+00   5.810033e+01
  -1.008717e+00   4.925142e+01
  -7.048625e+01  -7.099071e+01
  -1.874258e+01  -4.584370e+01
   6.620282e+01  -6.541218e+01
   9.441566e+01  -8.809936e+00
   2.438480e+01   7.738607e+01
  -3.235876e+01   3.766337e+01
  -7.405007e+01   3.908731e+01
  -3.323788e+01   2.474066e+01
   4.297834e+01  -1.113924e+01
   7.025113e+01   4.997212e+01
  -4.537783e+01   4.644246e+01
  -9.019344e+01  -3.086680e+00
