
 $NMID
 id='ANONYMOUS ', fmtdat='(2E16.6)'
 volume=1.0
 tramp=1.0
 $END
  -3.438537e+03   1.703473e+02
  -2.418077e+03  -1.984520e+03
   4.577044e+02  -2.076422e+03
   1.328582e+03  -9.999221e+02
   8.829396e+02  -1.544860e+02
  -3.518013e+02   4.009829e+02
  -4.621148e+02  -1.537989e+02
   1.004521e+01  -6.561928e+02
   6.335187e+02  -6.518495e+02
   6.643197e+02   9.738656e+01
   4.804266e+02   7.168748e+02
  -1.140665e+02   7.178120e+02
  -4.452727e+02   8.860595e+01
  -3.800282e+02  -4.913153e+02
   1.593298e+02  -7.400385e+02
   4.074418e+02  -7.842437e+01
   2.748047e+02   5.055783e+02
  -1.474503e+02   5.857668e+02
  -4.424772e+02   1.886155e+02
  -3.804335e+02  -2.908074e+02
  -8.657257e+01  -3.518506e+02
   1.387108e+02  -2.290668e+02
   9.047295e+01  -6.000992e+01
  -1.417307e+02  -2.999289e+01
  -3.168552e+02  -2.076611e+02
  -6.731917e+01  -3.559196e+02
   4.542476e+02  -1.818102e+02
   7.539449e+02   1.289005e+02
   2.781272e+02   4.368108e+02
  -3.185783e+02   4.001813e+02
  -5.500567e+02  -1.217521e+02
  -2.567114e+02  -4.097830e+02
   2.737225e+02  -3.905627e+02
   4.352425e+02  -2.017280e+02
   3.187100e+02   2.143748e+02
   7.896606e+01   4.328738e+02
  -1.010249e+02   2.739285e+02
  -8.225837e+01  -1.486376e+02
   1.747473e+02  -3.483253e+02
   3.164529e+02   1.036062e+02
   8.227277e+01   5.846978e+02
  -2.554473e+02   4.906743e+02
  -4.034387e+02  -3.475340e+01
  -1.402676e+02  -3.874260e+02
   2.183840e+02  -1.766985e+02
   2.636487e+02   2.740635e+02
  -4.755644e+01   4.665487e+02
  -4.758324e+02   1.460011e+02
  -5.585217e+02  -3.488564e+02
  -1.346069e+02  -4.895039e+02
   2.588000e+02  -2.748066e+02
   5.813709e+02   9.613392e+01
   3.076331e+02   3.223513e+02
  -6.941393e+01   2.352479e+02
  -3.290310e+02   1.077486e+02
  -2.027564e+02  -6.903434e+01
   4.651758e+01  -1.691615e+01
   1.024498e+02   9.612209e+01
  -1.656660e+02   1.181200e+02
  -3.161665e+02  -7.210210e+01
  -1.431846e+02  -2.116124e+02
   1.474422e+02  -2.494513e+02
   2.921695e+02  -1.032122e+02
   2.635204e+02   1.080497e+02
  -1.910010e+01   2.702370e+02
  -2.109748e+02   3.782831e+02
  -2.983340e+02   1.762681e+02
  -2.296267e+02  -1.508362e+02
  -9.677045e+01  -3.806688e+02
   1.396222e+02  -3.352368e+02
   6.207629e+01  -1.955394e+02
   7.562832e+00  -9.320817e+01
   7.073316e+01  -1.522576e+02
   2.514854e+02  -6.324598e+01
   2.678034e+02   5.684101e+01
   1.397169e+02   2.476786e+02
  -2.830087e+01   1.983277e+02
  -2.202052e+02  -4.025740e+01
  -1.549322e+02  -2.305127e+02
   1.788148e+01  -3.026573e+02
   2.602683e+02  -1.165013e+02
   3.254000e+02   1.223397e+02
   1.582391e+02   2.850487e+02
  -9.008739e+01   2.899524e+02
  -2.049819e+02   1.514195e+02
  -1.120932e+02   2.569570e+01
  -9.404433e+01   5.188298e+01
  -2.733220e+02   2.444632e+01
  -3.918809e+02  -1.169416e+02
  -3.490851e+02  -2.677412e+02
  -2.558717e+01  -4.504061e+02
   3.230194e+02  -3.526355e+02
   4.429932e+02  -1.675060e+02
   2.928944e+02   1.082353e+02
   4.846509e+01   2.612584e+02
  -5.302864e+01   2.276242e+02
  -5.428150e+01   2.144977e+00
   1.039586e+02  -1.080990e+02
   1.434222e+02   5.805660e+00
   3.064909e+01   1.571161e+02
  -1.294434e+02   1.725046e+02
  -1.233227e+02  -3.226426e+01
   6.405606e+01  -1.558922e+02
   1.578107e+02  -1.268344e+01
   1.351422e+02   1.928198e+02
  -1.216520e+01   3.044280e+02
  -2.299832e+02   1.953132e+02
  -3.094477e+02  -5.215948e+01
  -2.655247e+02  -2.198053e+02
  -3.347167e+01  -2.696426e+02
   1.239744e+02  -1.551839e+02
   2.022928e+02  -2.557095e+01
   4.863528e+01   3.060112e+01
  -8.262522e+01  -6.223619e+01
  -4.639177e+01  -7.722530e+01
   1.354321e+02  -6.348900e+01
   1.307103e+02   2.573299e+01
   7.209789e+01   5.968692e+01
  -7.633656e+01  -6.501209e+00
  -3.987395e+01  -8.264629e+01
   1.727323e+02  -6.383004e+01
   2.461559e+02   1.237067e+01
   2.437465e+02   1.545751e+02
   4.002416e+01   2.359306e+02
  -1.909864e+02   2.537483e+02
  -2.815085e+02   1.040334e+02
  -1.895530e+02  -5.555277e+01
   1.630564e+01  -9.816423e+01
   7.722597e+01   4.433953e+01
  -7.390842e+01   7.485517e+01
  -1.582643e+02   8.724287e+01
  -1.911358e+02  -8.011962e+01
  -7.314025e+01  -1.852219e+02
   8.848683e+01  -1.109447e+02
   1.622158e+02  -4.777465e+01
   7.145083e+01   5.753014e+01
  -4.765405e+01  -4.727158e+01
  -6.832229e+00  -6.828059e+01
   6.395207e+01  -8.518098e+01
   2.493044e+02  -3.772366e+01
   2.180282e+02   1.174617e+02
   1.026598e+01   2.105844e+02
  -1.296537e+02   1.403241e+02
  -1.985020e+02   3.576417e+01
  -5.659670e+01  -1.068528e+02
   6.298906e+01  -1.136834e+02
   8.361681e+01  -7.673750e+01
  -5.425312e+00   2.496315e+01
  -2.069908e+01   7.007732e+00
   3.918497e+01  -1.327650e+01
   4.422179e+01   1.885958e+01
   1.207450e+02   5.179480e+01
  -9.636020e+00   1.734757e+02
  -1.108765e+02   1.743873e+02
  -2.222763e+02  -7.649612e-01
  -1.622354e+02  -1.485922e+02
  -9.523498e+00  -2.289492e+02
   8.777400e+01  -1.682721e+02
   1.378037e+02  -3.177247e+01
   3.090362e+01   5.931980e+01
   4.731898e+01   1.952601e+01
   6.124304e+01   1.224074e+01
   1.169474e+02  -1.495147e+01
   4.508569e+01   5.887516e+01
  -5.325810e+01   8.580499e+01
  -1.012551e+02   7.765575e+01
  -9.889633e+01  -3.087371e+01
   3.114855e+00  -1.446962e+02
   1.285425e+02  -7.690735e+01
   2.103268e+02   8.382192e+01
   9.066896e+01   1.963799e+02
  -1.306696e+02   2.183226e+02
  -2.607294e+02   1.123893e+02
  -2.165667e+02  -7.845224e+01
  -1.023643e+02  -1.786487e+02
   1.183539e+01  -1.057193e+02
   1.186803e+02  -3.996329e+01
   7.321627e+01  -8.230221e+01
   6.681498e+01  -8.688412e+01
   8.012025e+01  -5.467831e+01
   1.428827e+02   5.312296e+01
   1.263397e+02   1.260044e+02
   5.958331e+01   2.286305e+02
  -7.069309e+01   1.461793e+02
  -1.506044e+02  -3.571684e+00
  -1.091062e+02  -1.583411e+02
  -1.410458e+01  -1.656404e+02
   7.954603e+01  -5.432876e+01
   6.502379e+00   1.608976e+01
  -3.749138e+00   9.354228e+01
   1.364662e+01   1.452457e+01
   2.901804e+01   3.026604e+01
   8.720894e+01  -2.370817e+00
   4.195070e+01  -4.050346e+00
  -4.533941e+01   1.180789e+01
  -1.310602e+02   3.677281e+00
  -1.274289e+02  -1.010856e+02
   5.565695e+00  -8.992591e+01
   1.010165e+02  -1.093099e+02
   1.028687e+02  -1.507461e+01
   5.775028e+01   7.000399e+01
  -5.040758e+01  -4.456235e+00
  -5.676078e+01  -2.680552e+01
  -2.921662e+01  -6.948164e+01
   5.075035e+01  -6.094739e+01
   6.067316e+01  -3.612727e+00
   6.943534e+01   5.722100e+01
   2.964544e+01   7.715932e+01
   3.243009e+01   2.004280e+01
   5.456655e+01   3.290769e+01
   7.801567e+01   6.467463e+01
  -1.829494e+01   1.347954e+02
  -1.163226e+02   1.238533e+02
  -1.492681e+02   2.770284e+01
  -1.467040e+02  -8.801107e+01
  -8.464006e+00  -1.072572e+02
   1.282887e+02  -9.054421e+01
   3.822694e+01   4.547856e+01
  -5.972535e+01   2.535728e+01
  -1.398525e+02  -4.885751e+01
  -9.703118e+01  -1.599607e+02
   6.737360e+01  -1.029752e+02
   2.267638e+02  -7.303305e+01
   1.633191e+02   3.667978e+01
   6.472855e+01   5.286691e+01
  -2.969692e+01   8.649236e+01
  -7.572434e+01  -2.538921e-01
   2.793537e+01  -2.201113e+01
   7.214497e+01  -2.389939e+01
   4.101815e+01   1.053007e+02
  -9.430252e+01   1.776153e+02
  -1.549628e+02   6.459264e+01
  -1.060174e+02  -1.108821e+02
  -1.963384e+01  -2.123601e+02
   4.140068e+01  -1.349748e+02
   9.306672e+01  -3.396922e+01
   7.045958e+01   9.885251e+01
   4.117937e-02   7.244041e+01
  -4.328778e+01  -1.767489e+01
  -5.347102e+01  -1.301975e+01
  -1.891661e+01  -4.639804e+01
  -4.007288e+00   2.706149e+01
  -4.056607e+01  -1.975103e+01
  -2.427922e+01  -7.821086e+01
  -6.725414e+01  -1.275127e+02
   2.785324e+01  -4.529884e+01
   1.485201e+02   2.713128e+01
   1.280744e+02   8.272715e+01
   1.352448e+01   4.510139e+01
  -8.477798e+01   1.066951e+01
  -1.201798e+02   1.621000e+01
  -9.926908e+00  -1.833106e+00
   4.484903e+01  -2.859304e+01
   9.947586e+00  -2.037697e+00
  -4.627191e+01   8.887651e+00
  -2.722601e+00   2.568631e-02
   5.238728e+01  -1.656586e+01
   1.147583e+02   4.597414e+01
  -2.138437e+01   9.140237e+01
  -1.020907e+02   1.404835e+02
  -1.856967e+02   4.366162e+01
  -1.668047e+02  -1.331489e+01
  -6.815723e+01  -1.579763e+02
   1.001357e+02  -1.365338e+02
   7.772372e+01  -8.387473e+01
   9.406799e+01   8.436074e+00
   6.098338e+01   3.012265e+01
   1.621133e+01   6.290706e+00
   2.369116e+01  -3.080667e+01
   2.798201e+01   5.923264e+01
  -2.037502e+00   3.981226e+01
  -3.491891e+01   4.136458e+01
  -1.024383e+02  -4.678548e+01
  -4.599060e+01  -9.761594e+01
   2.233747e+01  -4.584544e+01
   8.928755e+01  -3.313160e+01
   8.148982e+01   6.025329e+01
   2.195728e+01   7.224548e+01
  -4.481391e+01   4.977772e+01
  -8.067981e+01   2.875193e+00
  -4.297482e+01  -5.791943e+01
   3.155730e+01  -6.075226e+01
   1.187471e+01  -5.343286e+01
  -3.834513e+01  -2.246715e+01
  -4.836951e+01   9.237091e+00
   6.750931e+00  -2.222001e+01
   9.255511e+01  -6.973731e+01
   9.852354e+01  -5.384519e+01
   7.482214e+01   1.731039e+01
  -4.149267e+00   9.405695e+01
  -6.735396e+01   8.951181e+01
  -1.018404e+01   3.438505e+01
  -1.043239e+01  -2.423458e+01
   4.130336e+00  -3.960922e+01
   3.621791e+01   5.561320e+01
   2.769491e+01   5.496211e+01
  -2.793329e+00   3.481155e+01
  -5.149719e+01   8.317226e+00
  -2.085925e+01  -2.231495e+01
  -4.178179e+00  -9.266305e+00
  -4.366868e+01   6.128428e+00
   5.925609e+00   2.308593e+01
  -7.121209e+00  -1.883989e+01
  -8.683923e+00  -1.779579e+01
   4.906001e+00  -1.609160e+01
   3.827647e+01   6.139538e+01
   2.467053e+01   8.365529e+01
  -4.497858e+01   1.516499e+01
  -3.763353e+01  -3.907050e+01
  -1.206910e+01  -7.376340e+01
   6.354101e+01  -2.648463e+01
   6.297294e+01   4.984216e+01
   7.543981e+01   3.615769e+01
  -1.941676e+01   5.936397e+01
  -7.025606e+01   3.110507e+01
  -4.684839e+01   2.725276e+01
   3.671089e+01   1.258215e+00
   4.693396e+01   4.083659e+01
  -1.228003e+01  -1.124035e+01
  -8.188198e+01   4.270075e+01
