
 $NMID
 id='ANONYMOUS ', fmtdat='(2E16.6)'
 volume=1.0
 tramp=1.0
 $END
   4.144577e+03   2.672791e+02
   2.192290e+03   2.656444e+03
  -6.853665e+02   2.623862e+03
  -2.106446e+03   6.197557e+02
  -9.530997e+02  -5.574742e+02
   5.704196e+02  -2.732848e+02
   8.057297e+02   4.170685e+02
   3.278100e+01   9.382859e+02
  -8.132419e+02   6.183085e+02
  -8.255550e+02  -1.369232e+02
  -4.481530e+02  -8.859639e+02
   1.737833e+02  -7.999506e+02
   6.490365e+02  -9.498373e+01
   2.482588e+02   6.811745e+02
  -2.996224e+02   7.482106e+02
  -6.008296e+02   2.684853e+01
  -2.094345e+02  -6.971317e+02
   3.414306e+02  -5.489663e+02
   4.635387e+02  -3.248279e+01
   3.739891e+02   3.374131e+02
   3.345244e+01   3.885362e+02
  -2.212650e+02   2.380580e+02
  -2.107731e+02  -8.093652e+00
   7.765601e+01  -1.070426e+02
   3.716141e+02   1.563553e+02
   1.317804e+02   3.993474e+02
  -4.494823e+02   4.039695e+02
  -9.316649e+02  -8.026193e+01
  -4.711672e+02  -4.886065e+02
   3.644940e+02  -4.949201e+02
   6.997033e+02  -3.362715e+01
   3.516404e+02   3.903054e+02
  -2.509855e+02   4.988309e+02
  -4.919198e+02   1.804416e+02
  -4.066311e+02  -2.232878e+02
  -6.040823e+01  -4.262952e+02
   2.571688e+02  -2.535099e+02
   1.208860e+02   2.380732e+02
  -1.215816e+02   4.449079e+02
  -4.420678e+02  -4.758213e+00
  -2.069418e+02  -7.187528e+02
   2.952125e+02  -6.557594e+02
   6.452518e+02  -4.396636e+00
   1.314929e+02   5.298026e+02
  -3.187994e+02   2.895622e+02
  -4.055604e+02  -3.364860e+02
   1.551646e+01  -5.196964e+02
   5.467980e+02  -9.414028e+01
   5.108843e+02   3.569176e+02
   7.537595e+01   5.437533e+02
  -3.754249e+02   3.028025e+02
  -6.442229e+02  -5.344840e+01
  -3.559283e+02  -3.425456e+02
   1.656066e+02  -3.634610e+02
   3.968984e+02  -9.025912e+01
   2.150842e+02   1.642691e+02
  -9.156508e+01   9.424741e+01
  -1.377391e+02  -1.232085e+02
   1.528055e+02  -2.160488e+02
   2.931155e+02   7.595816e+01
   1.171245e+02   3.138526e+02
  -1.950774e+02   2.064951e+02
  -2.834403e+02   5.775780e+01
  -1.453852e+02  -8.125513e+01
   4.148760e+01  -2.326355e+02
   2.017948e+02  -3.107547e+02
   3.332402e+02  -1.490812e+02
   2.654433e+02   1.389286e+02
   5.074929e+01   4.495643e+02
  -1.198334e+02   4.250461e+02
  -6.030218e+01   1.186813e+02
  -2.411795e+01  -5.889640e+01
  -5.413341e+01   7.470364e+01
  -1.780037e+02   1.249516e+02
  -2.680845e+02  -3.954184e+01
  -1.966877e+02  -2.666177e+02
   4.514694e+01  -2.451058e+02
   1.990974e+02  -6.488005e+00
   2.102598e+02   2.241595e+02
  -6.807408e+01   3.027612e+02
  -2.323057e+02   1.282328e+02
  -3.485103e+02  -1.587101e+02
  -2.114353e+02  -3.464851e+02
   1.034047e+02  -3.043454e+02
   2.125392e+02  -1.050508e+02
   1.325095e+02   1.904847e+01
   1.185187e+02  -9.118926e+00
   2.093133e+02  -4.616479e+01
   3.682009e+02   6.130559e+01
   3.095307e+02   2.633344e+02
  -9.522059e+00   3.833647e+02
  -3.602382e+02   3.504969e+02
  -4.509384e+02   2.135493e+02
  -2.550965e+02  -9.899617e+01
  -2.345132e+01  -2.789168e+02
   1.120189e+02  -2.057463e+02
   4.177229e+01  -6.124763e+00
  -8.703957e+01   1.280208e+02
  -2.130183e+02   8.328935e+00
  -3.438463e+01  -1.857444e+02
   1.761715e+02  -1.802400e+02
   1.792697e+02   3.770104e+01
   5.472175e+01   2.395825e+02
  -1.699709e+02   4.012382e+01
  -1.867495e+02  -2.531409e+02
   6.464062e+01  -3.370970e+02
   2.252176e+02  -1.936210e+02
   3.339907e+02   1.021545e+02
   2.426438e+02   2.084481e+02
   5.360493e+01   2.432154e+02
  -1.148912e+02   1.579708e+02
  -1.573436e+02   4.127731e+01
  -5.887062e+01  -2.994005e+01
   1.556137e+01   3.852135e+01
   8.694698e+00   1.951470e+02
  -1.219097e+02   5.866535e+01
  -1.754184e+02  -2.403684e+01
  -5.407070e+01  -3.492670e+01
   8.708155e+01   1.718267e+00
   6.460889e+01   9.404377e+01
  -9.224729e+01   8.671028e+01
  -2.340244e+02   3.531126e+01
  -2.287101e+02  -1.294961e+02
  -2.140475e+01  -2.268194e+02
   1.675396e+02  -2.139895e+02
   2.601896e+02  -9.683758e+01
   1.489370e+02   5.399196e+01
   1.140202e+01   1.008488e+02
  -6.615253e+01   2.448256e+01
   6.019905e+01  -9.193851e+01
   1.857798e+02  -1.140949e+01
   1.912881e+02   1.299043e+02
   6.514001e+01   1.929507e+02
  -7.861047e+01   1.533230e+02
  -1.525563e+02   6.923765e+01
  -7.434344e+01  -4.855054e+01
   1.411018e+01  -1.813948e+01
   6.105329e+01   8.919751e+01
  -2.643138e+01   1.038221e+02
  -1.814587e+02   9.843909e+00
  -1.931663e+02  -1.531515e+02
   2.128452e+01  -1.998034e+02
   1.486939e+02  -1.341964e+02
   1.592098e+02   1.666863e+01
   8.375396e+01   7.603164e+01
  -9.515706e+01   1.133128e+02
  -7.934652e+01   2.880421e+01
   1.188495e-01  -4.056035e+01
   8.107447e+00   7.313187e+00
   1.153236e+01  -2.113574e+01
  -7.075565e+01   2.851165e+00
  -8.239685e+01  -8.514870e+01
  -2.100491e+01  -1.608626e+02
   8.571485e+01  -1.286796e+02
   1.857747e+02  -3.087818e+01
   1.682534e+02   8.676144e+01
   4.173498e+01   2.109869e+02
  -1.026430e+02   1.268293e+02
  -1.150192e+02   5.205061e+01
  -7.153553e+01  -2.703601e+01
  -4.571842e+01  -6.501653e+01
  -5.510407e+01   2.253623e+01
  -6.732501e+01   2.019785e+01
   5.905426e+00  -7.147275e+01
   6.693613e+01  -7.074069e+01
   9.204208e+01  -6.624429e+01
   5.945748e+01   1.692339e+01
  -1.255999e+01   9.682704e+01
  -7.861352e+01   6.491542e+01
  -1.579427e+02  -4.118946e+01
  -5.927360e+01  -1.421260e+02
   8.479806e+01  -2.027145e+02
   2.056136e+02  -6.992346e+01
   2.402172e+02   7.449394e+01
   8.152161e+01   1.707846e+02
  -1.831223e+01   1.608912e+02
  -1.439689e+02   8.485699e+01
  -9.263018e+01   4.685252e+00
  -7.624012e+01   7.910230e+01
  -4.418008e+01   5.225624e+01
  -1.166152e+02   1.798071e+00
  -1.102165e+02  -1.045922e+02
  -2.301842e+01  -2.312822e+02
   1.164978e+02  -1.602338e+02
   1.487851e+02  -2.658726e+00
   1.151764e+02   9.955274e+01
   1.683101e+00   8.053847e+01
  -6.710574e+01   1.119016e+02
  -5.698221e+01  -1.228361e+00
  -5.696315e+00  -3.642222e+01
  -4.664239e+01  -3.162287e+01
  -4.983211e+01  -1.520033e+01
  -9.722788e+01  -1.626537e+01
  -2.200420e+01  -3.549528e+01
   5.692518e+01  -2.497741e+01
   1.389591e+02  -3.207194e+01
   1.241117e+02   4.505661e+01
   4.686629e+01   6.103014e+01
  -1.239062e+02   2.905826e+01
  -1.309299e+02   1.348523e+01
  -4.284881e+01  -7.479148e+01
   8.508733e+01  -8.727118e+00
   8.032583e+01   3.083085e+01
   2.522729e+01   7.099328e+01
  -4.800211e+01   2.828034e+01
  -6.696539e+01  -5.387677e+01
  -2.261909e+01  -1.783268e+01
  -1.302314e+01  -1.909573e+01
  -3.603040e+01  -3.567112e-01
  -6.628470e+01  -6.878655e+00
  -5.309066e+01  -8.879295e+01
   4.422979e+01  -1.124877e+02
   1.054945e+02  -1.298612e+02
   1.386728e+02  -8.779906e+00
   1.398464e+02   1.147260e+02
  -5.458692e+00   1.038510e+02
  -7.624399e+01   3.875241e+01
  -6.035624e+01  -3.926851e+01
   4.810573e+01  -1.789580e+01
   1.488639e+02   4.596644e+00
   6.926443e+01   9.328902e+01
  -8.507222e+01   6.025711e+01
  -1.916611e+02   2.146216e+01
  -1.562953e+02  -2.805003e+01
  -1.717212e+00  -7.070814e+01
   4.036130e+01  -9.922216e+01
   6.367292e+01   3.161295e+00
  -4.375822e+01  -1.132971e+01
  -6.796204e+01  -2.365259e+01
  -4.242874e+01  -1.148637e+02
   7.907850e+01  -1.284788e+02
   1.136061e+02  -1.855016e+01
   8.075078e+01   1.021045e+02
  -5.120472e+00   1.757471e+02
  -8.116842e+01   1.369408e+02
  -7.157867e+01  -3.455884e+00
  -9.098079e+01  -1.053397e+02
  -7.623957e+00  -7.844959e+01
   5.235923e+01  -1.332507e+01
   4.114155e+01   1.209397e+01
   3.350129e+01  -3.209552e+00
  -2.598938e+01  -3.940698e+01
  -4.310870e+00   3.320315e+00
   6.817907e+01   9.124104e+01
   4.154821e+01   1.124584e+02
  -9.220272e+01   3.835701e+01
  -1.333158e+02  -4.242840e+01
  -1.112201e+02  -7.158802e+01
  -3.715136e+01  -3.024010e+01
   9.607026e+01   2.130792e+01
   2.570781e+01  -4.865190e+00
   3.514793e+01  -7.667432e+00
  -5.533819e+01   3.133302e+01
  -2.345934e+01   1.829543e+01
   7.253584e+00  -5.522268e+01
   6.809833e-01  -3.519582e+01
  -6.627521e+01   3.398012e-01
  -1.042357e+02  -6.808802e+01
  -3.726222e+01  -8.028383e+01
   1.588081e+02  -1.042123e+02
   1.499970e+02  -5.843018e+01
   1.235410e+02   7.939959e+01
   4.147343e+01   1.774009e+02
  -6.076267e+01   1.672375e+02
  -7.449875e+01   5.474875e+01
  -5.273113e+01  -8.001241e+00
   1.386656e+00  -2.839540e+01
  -8.886264e+00  -2.229028e+01
  -3.042343e+01  -4.633210e+01
  -1.218720e+01  -2.412035e+01
  -4.839953e+01  -1.149333e+02
   5.705867e+01  -7.308571e+01
   8.429327e+01   1.162142e+01
   8.573516e+01   1.137977e+02
   4.356958e+00   1.069977e+02
  -5.083121e+01   1.100207e+01
  -1.009480e+02  -6.144451e+01
  -7.086513e+01  -5.270352e+01
   3.094193e+01  -5.077419e+01
   1.160638e+02   9.117301e+00
   6.154310e+00   5.343921e+01
   7.024479e-01   4.130821e+00
  -5.441459e+01   3.074545e+01
   2.008979e+01   3.825911e+01
   2.876577e+01  -2.315376e+01
  -4.243527e+01  -5.947701e+00
  -8.274701e+01   6.776489e+01
  -1.229049e+02   9.022100e+01
  -5.511113e+01  -3.238183e+01
   1.372868e+01  -7.767019e+01
   4.253361e+01  -3.385299e+01
   3.298883e+01  -1.034366e+01
   2.045300e+01   6.630920e+01
  -2.668433e+01   3.170310e+01
  -4.149578e+01  -1.404413e+01
  -2.065500e+01  -3.670199e+01
   9.467335e+00  -2.949869e+01
   1.393309e+01  -7.561841e+00
   4.101513e+01   1.445198e+01
   4.781262e+01   4.158973e+01
  -3.033113e+01  -1.330215e+01
  -1.030685e+00   3.274800e+01
  -2.436412e+01   3.360715e+01
   3.405254e+00   1.841050e+01
  -1.129006e+01   3.813882e+00
  -6.402695e+00  -2.536277e+01
   2.457547e+01  -8.411279e+01
   4.636843e+01  -3.872898e+01
   6.406219e+01   1.308241e+01
   1.137753e+01   9.398585e+00
  -3.987364e+01   1.500269e+01
  -9.542123e+01  -1.405222e+01
  -7.119461e+00   3.903794e+00
   4.313885e+01  -3.117919e+01
   5.021729e+01  -3.739240e+01
  -1.690926e+01  -3.423366e+00
  -6.485319e+01  -3.527848e+01
  -5.388147e+01  -1.501500e+01
  -5.121280e+00  -3.084751e+01
   9.211583e+01  -3.240885e+01
