
 $NMID
 id='ANONYMOUS ', fmtdat='(2E16.6)'
 volume=1.0
 tramp=1.0
 $END
  -4.411900e+03   3.526595e+02
  -2.360535e+03  -2.410931e+03
   8.670461e+02  -3.022914e+03
   1.916361e+03  -6.405458e+02
   8.072496e+02   6.891784e+02
  -8.241224e+02   6.142123e+02
  -9.920359e+02  -4.528011e+02
   3.613783e+00  -1.135050e+03
   8.366463e+02  -8.119827e+02
   9.517363e+02   1.475217e+02
   4.653469e+02   9.730336e+02
  -2.618534e+02   8.615953e+02
  -6.869144e+02   1.708052e+02
  -3.154563e+02  -7.560125e+02
   3.546312e+02  -6.957575e+02
   5.845316e+02   1.340914e+01
   2.947847e+02   6.973538e+02
  -3.027525e+02   5.619874e+02
  -5.931924e+02   1.639943e+01
  -3.244988e+02  -3.595198e+02
   1.126712e+01  -4.301760e+02
   2.381710e+02  -2.371012e+02
   2.557008e+02   5.465984e+01
  -1.746632e+02   1.036367e+02
  -4.620524e+02  -1.069436e+02
  -2.663997e+02  -3.468276e+02
   4.305649e+02  -3.986788e+02
   1.008288e+03   6.283243e+01
   4.711534e+02   5.747999e+02
  -4.324286e+02   4.931378e+02
  -7.891088e+02   4.301473e+01
  -4.407928e+02  -5.098001e+02
   2.418420e+02  -5.282966e+02
   5.476309e+02  -2.235727e+02
   4.646848e+02   2.320462e+02
   9.894293e+01   4.697587e+02
  -2.580391e+02   2.663485e+02
  -1.619297e+02  -1.562308e+02
   1.647815e+02  -5.782559e+02
   4.619645e+02   2.742237e+01
   2.509523e+02   6.993641e+02
  -2.697515e+02   7.679406e+02
  -6.507790e+02   9.439377e+00
  -2.716991e+02  -5.275829e+02
   3.310224e+02  -3.475949e+02
   3.623340e+02   3.234702e+02
  -1.619754e+01   5.196598e+02
  -6.596452e+02   1.641588e+02
  -5.706700e+02  -3.788460e+02
  -1.385779e+02  -5.445723e+02
   3.773538e+02  -3.568809e+02
   6.528890e+02   1.108047e+02
   4.092755e+02   3.659574e+02
  -1.409967e+02   4.041988e+02
  -4.541004e+02   2.295463e+01
  -2.628253e+02  -2.145772e+02
   8.574487e+01  -1.069277e+02
   1.503993e+02   1.559787e+02
  -1.365861e+02   1.734237e+02
  -3.495308e+02  -5.033352e+01
  -1.381546e+02  -2.914971e+02
   1.941141e+02  -2.355123e+02
   3.404625e+02  -8.058756e+01
   1.810416e+02   8.801052e+01
   1.694810e+00   1.930129e+02
  -2.317544e+02   3.885197e+02
  -3.282807e+02   2.317825e+02
  -3.222197e+02  -1.470474e+02
  -6.483242e+01  -4.648743e+02
   1.259534e+02  -3.537254e+02
   1.210723e+02  -8.458995e+01
  -3.541190e+01   2.211047e+01
  -4.781534e-02  -8.973550e+01
   2.199691e+02  -1.762233e+02
   2.853185e+02   8.947153e+01
   1.924905e+02   2.563911e+02
  -2.732236e+01   2.467901e+02
  -2.125699e+02  -1.409621e+00
  -2.099981e+02  -2.592068e+02
   5.805164e+01  -3.215618e+02
   2.568246e+02  -1.405022e+02
   3.577908e+02   1.683679e+02
   1.774986e+02   3.919348e+02
  -1.145214e+02   2.962319e+02
  -2.521162e+02   1.023814e+02
  -1.637450e+02   1.398730e+01
  -7.884015e+01   2.382105e+01
  -2.134781e+02   3.427692e+01
  -3.515866e+02  -4.312104e+01
  -3.378849e+02  -2.699591e+02
  -2.448806e+01  -4.177768e+02
   3.498067e+02  -3.960756e+02
   5.329213e+02  -2.107781e+02
   3.753575e+02   9.271733e+01
   7.042760e+01   2.817502e+02
  -1.378043e+02   2.996132e+02
  -1.030554e+02   1.982149e+01
   8.931526e+01  -1.346251e+02
   1.876364e+02  -4.224669e+00
   6.412231e+01   1.891535e+02
  -1.694443e+02   1.991848e+02
  -1.917934e+02  -3.114062e+01
   3.397470e+01  -2.293971e+02
   1.968552e+02  -6.419725e+01
   1.569585e+02   2.892618e+02
  -7.956215e+00   3.742885e+02
  -2.391264e+02   2.021754e+02
  -2.986328e+02  -8.359804e+01
  -2.909175e+02  -1.784731e+02
  -1.025809e+02  -2.629705e+02
   9.857510e+01  -1.734110e+02
   1.905943e+02  -4.099485e+01
   4.130199e+01   1.939510e+01
  -6.020058e+01  -4.526163e+01
  -4.367033e+00  -1.109947e+02
   1.296183e+02  -1.091032e+02
   2.272087e+02  -6.627253e+00
   5.945256e+01   9.166387e+01
  -7.440463e+01   1.782023e+01
  -5.011148e+01  -3.608313e+01
   1.292086e+02  -7.354832e+01
   2.589807e+02   1.553355e+01
   2.623726e+02   1.002398e+02
   4.031225e+01   2.456608e+02
  -1.658810e+02   2.423011e+02
  -2.872406e+02   1.124641e+02
  -1.734740e+02  -5.104581e+01
   2.979772e+01  -1.051601e+02
   1.170605e+02   4.956990e+00
  -2.814990e+01   1.000803e+02
  -1.924151e+02   6.377078e+01
  -2.181289e+02  -1.554628e+02
  -8.014291e+01  -2.122851e+02
   1.150020e+02  -1.774047e+02
   1.452422e+02  -3.369811e+01
   1.035285e+02   5.217888e+01
   1.404828e+01   3.511350e+01
  -2.138268e+01  -8.426729e+01
   4.211204e+01  -1.372420e+02
   1.761840e+02  -3.412896e+01
   1.528655e+02   1.376458e+02
   2.600080e+01   2.039504e+02
  -1.667719e+02   1.596239e+02
  -1.687958e+02   2.399566e+01
  -7.062647e+01  -8.665702e+01
   9.084774e+01  -6.814573e+01
   7.667679e+01  -4.299977e+01
   1.711024e+01   2.805885e+01
  -6.187022e+01   1.400717e+01
  -9.449582e+00  -4.017334e+01
   5.515628e+01   1.550873e+01
   9.157720e+01   6.404635e+01
   1.586657e+01   1.585006e+02
  -1.235752e+02   1.719150e+02
  -2.598369e+02   3.292443e+01
  -2.057692e+02  -1.424769e+02
  -1.585165e+01  -2.336170e+02
   1.232258e+02  -1.583861e+02
   1.464718e+02  -1.765596e+01
   4.172828e+01   3.089389e+01
   4.301837e+01   2.856118e+01
   4.280216e+01  -2.279576e+01
   6.709960e+01  -6.134493e+00
   2.608599e+01   8.316128e+01
  -3.675318e+01   1.249815e+02
  -9.547160e+01   3.157360e+01
  -1.108782e+02  -2.226815e+01
  -4.391859e-02  -8.772424e+01
   1.100871e+02  -8.243774e+01
   2.153167e+02   7.733128e+01
   9.995940e+01   1.541515e+02
  -8.452281e+01   2.285218e+02
  -2.599675e+02   1.103094e+02
  -2.568006e+02  -8.640065e+01
  -7.708784e+01  -1.607793e+02
   3.598100e+01  -1.648444e+02
   1.028058e+02  -9.659761e+01
   8.567200e+01  -4.306910e+01
   7.744953e+01  -6.134768e+01
   1.065050e+02  -4.580915e+01
   8.560868e+01  -3.152956e+01
   1.468820e+02   1.584804e+02
   1.477063e+01   2.124192e+02
  -1.254266e+02   1.931751e+02
  -1.478300e+02  -2.737954e+01
  -1.643428e+02  -1.310259e+02
  -2.957775e+01  -1.674417e+02
   8.945170e+01  -4.205657e+01
   3.031305e+01  -3.290861e+01
   2.712416e+01   5.168427e+01
  -4.557716e+00   5.455562e+01
   6.223447e+01   1.598405e+01
   9.179249e+01  -2.184264e+00
   5.342376e+01   3.244453e+01
  -6.108666e+01   7.529143e+01
  -1.497392e+02  -2.227759e+01
  -8.420580e+01  -2.952286e+01
  -1.777724e+00  -1.088779e+02
   1.076972e+02  -2.571706e+01
   1.558126e+02   5.463096e-01
   6.003012e+01   1.039162e+01
  -9.795998e+01   4.085146e+01
  -8.720999e+01   2.994929e+01
  -7.293197e+00  -5.034428e+01
   6.942416e+01  -4.029438e+01
   9.206835e+01   1.310170e+01
   5.948402e+01   4.897002e+01
   3.381942e+01   5.405843e+01
   7.088192e+01  -1.847084e+00
   2.288692e+01   2.830759e+01
   4.134189e+01   1.009558e+02
  -3.650993e+01   1.228918e+02
  -1.119101e+02   1.642382e+02
  -1.897147e+02   7.530284e+00
  -1.438083e+02  -6.283619e+01
  -1.390763e+01  -1.227112e+02
   7.304516e+01  -7.604607e+01
   5.556385e+01   5.362451e+00
  -4.085006e+01   1.589354e+00
  -1.660986e+02  -6.289081e+01
  -7.849554e+01  -5.120017e+01
   3.383858e+01  -6.932089e+01
   1.403071e+02  -4.624770e+01
   1.519845e+02   1.259703e+01
   5.941266e+01   8.959694e+01
  -5.006126e+01   7.607776e+01
  -9.070100e+01   9.542131e+00
   1.606362e+01  -3.320320e+01
   1.249040e+02   1.578862e+01
  -1.247804e+01   1.025184e+02
  -6.780122e+01   1.433193e+02
  -1.497667e+02   6.419299e+01
  -1.461821e+02  -9.424890e+01
  -8.302979e+00  -1.861745e+02
   5.684363e+01  -1.176015e+02
   8.355327e+01  -6.135667e+00
   3.306309e+01   8.695091e+01
   1.159281e+01   1.283238e+02
  -6.888097e+01   3.024340e+01
  -2.082534e+01  -7.819431e+01
  -2.615432e+01  -5.056385e+01
   1.473489e+01   1.686991e+01
   1.419283e+01  -5.230082e+00
  -4.471121e+01  -1.137806e+02
  -2.485365e+00  -1.061094e+02
   4.615169e+01  -5.415998e+01
   1.203694e+02   4.081705e+01
   1.110725e+02   9.938955e+01
   1.514122e+01   6.182809e+01
  -7.852472e+01   4.612617e+01
  -8.292473e+01  -7.333546e+00
   8.642509e+00   1.600744e+01
   6.813602e+00  -1.659021e+01
   3.092458e+01  -4.366757e+01
  -3.949350e+01  -3.528071e+00
   1.221181e+01   3.461879e+01
   7.244920e+01   1.982634e+01
   7.637489e+01   3.388495e+01
   2.316518e+01   4.098325e+01
  -1.102976e+02   1.474631e+02
  -1.896840e+02   6.272639e+01
  -1.601335e+02  -5.851031e+01
  -2.997722e+01  -1.393846e+02
   6.221053e+01  -1.389282e+02
   1.084232e+02  -5.912545e+01
   4.528755e+01   2.881466e+01
  -1.872406e+01  -9.760517e-01
  -2.104658e+01   1.684426e+01
   1.197592e+01   1.896168e+01
   5.669366e+01   4.988867e+01
   3.043931e+01   1.075808e+02
  -4.933591e+00   5.510829e+01
  -2.815963e+01  -4.207436e+00
  -9.117294e+01  -8.055596e+01
  -1.017226e+01  -7.932191e+01
   8.749124e+01  -1.282473e+01
   7.817345e+01   7.600445e+01
   4.233356e+01   1.159224e+02
  -8.798776e+01   7.148604e+01
  -8.513052e+01  -3.787277e+01
  -2.427261e+01  -3.700136e+01
   5.166830e-01  -5.419085e+01
   2.530610e+01  -3.547977e+01
  -4.985551e+01  -2.931926e+01
  -8.649573e+01   1.331346e+00
  -9.934707e+00  -1.819129e+01
   9.561781e+01  -5.630770e+01
   4.997843e+01  -6.479439e+01
   6.463390e+01   2.068923e+01
  -2.830214e+01   1.130462e+02
  -8.831098e+01   7.853795e+01
  -4.951550e+01   1.059477e+01
  -2.778096e+01  -1.048377e+02
   2.086243e+01  -1.591879e+01
   3.984661e+01  -1.044250e+01
   3.338611e+01   8.143082e+01
   2.242727e+01  -5.336505e-01
  -2.827608e+01  -3.357094e+01
  -4.611686e+00  -3.431226e+01
   2.564775e+01   2.569868e+01
   1.629611e+01  -1.326400e+01
   1.715153e+01   9.266248e+00
   2.126669e+01  -9.767265e+00
   2.786591e+01  -4.108337e+01
   3.865855e+01  -7.835197e+00
   2.840247e+01   4.571746e+01
  -8.120850e+00   4.048225e+01
  -5.505313e+01   5.082821e+01
  -4.868299e+01  -3.058531e+01
  -1.153933e+01  -3.984339e+01
   3.719378e+01  -1.773698e+01
   8.134348e+01   5.561133e+01
   3.999890e+01   7.108233e+01
  -2.946242e+01   2.025788e+01
  -9.945621e+01   6.351145e+00
  -1.553853e+01   2.548476e+01
   4.894573e+01   3.619852e+00
   5.780760e+01   4.775223e+01
  -3.143782e+01  -5.881008e+00
  -1.121402e+02   3.083762e+01
