
 $NMID
 id='ANONYMOUS ', fmtdat='(2E16.6)'
 volume=1.0
 tramp=1.0
 $END
   4.489602e+03   2.922908e+02
   2.675615e+03   2.678635e+03
  -8.754497e+02   2.844158e+03
  -2.223441e+03   6.191858e+02
  -9.756918e+02  -8.608325e+02
   9.124354e+02  -7.527751e+02
   1.102152e+03   4.772509e+02
  -2.326397e+02   1.162853e+03
  -8.738744e+02   7.772440e+02
  -1.056400e+03  -5.618007e+01
  -3.349748e+02  -9.421063e+02
   3.249379e+02  -9.011599e+02
   7.681297e+02  -8.500807e+01
   4.702461e+02   7.811960e+02
  -3.075857e+02   6.826212e+02
  -5.718763e+02  -4.943435e+01
  -3.600289e+02  -7.252981e+02
   3.357209e+02  -6.451663e+02
   5.885980e+02  -4.927524e+01
   2.939915e+02   4.098015e+02
   7.842544e+00   4.637472e+02
  -2.231481e+02   2.876805e+02
  -2.839895e+02  -4.195319e+00
   9.661251e+01  -7.852293e+01
   4.344446e+02   8.333129e+01
   2.109711e+02   4.923337e+02
  -4.147850e+02   4.755162e+02
  -8.887622e+02  -6.933694e+01
  -4.771279e+02  -6.097771e+02
   4.164068e+02  -4.905163e+02
   7.535726e+02   2.231692e+01
   3.406425e+02   5.054536e+02
  -2.844599e+02   5.129416e+02
  -5.716112e+02   2.759800e+02
  -4.355761e+02  -2.135780e+02
  -1.858465e+01  -5.129785e+02
   2.037130e+02  -2.733576e+02
   2.122157e+02   1.589635e+02
  -2.335085e+02   4.743120e+02
  -4.797558e+02  -1.047018e+01
  -1.879100e+02  -6.830853e+02
   2.977974e+02  -6.726971e+02
   6.629695e+02   3.682979e+01
   2.990545e+02   5.325003e+02
  -3.413880e+02   3.121549e+02
  -3.977002e+02  -3.620223e+02
   1.103813e+02  -5.714094e+02
   5.424774e+02  -1.798530e+02
   6.590104e+02   3.813150e+02
   1.407744e+02   6.267204e+02
  -4.027659e+02   3.465054e+02
  -6.520339e+02  -9.974932e+01
  -2.942032e+02  -4.236914e+02
   1.678172e+02  -4.168215e+02
   5.420549e+02  -7.175725e+01
   2.514446e+02   2.687231e+02
  -1.775785e+02   8.575556e+01
  -1.613701e+02  -1.887379e+02
   1.952200e+02  -2.569643e+02
   3.564747e+02   6.664453e+01
   1.197343e+02   3.410934e+02
  -2.167351e+02   2.514755e+02
  -3.236721e+02   5.458849e+01
  -1.711486e+02  -9.498885e+01
   6.179519e+01  -1.962816e+02
   2.154257e+02  -3.334969e+02
   2.813324e+02  -2.271149e+02
   2.875493e+02   1.070726e+02
   9.140435e+01   4.124529e+02
  -1.467748e+02   3.553466e+02
  -1.627082e+02   8.054429e+01
  -1.956351e+01  -3.100683e+01
  -3.726062e+01   1.127814e+02
  -1.992241e+02   9.299779e+01
  -2.868954e+02  -4.886186e+01
  -1.592895e+02  -2.600474e+02
   8.711794e+01  -2.413140e+02
   1.745502e+02  -4.746229e+01
   1.993291e+02   2.241336e+02
  -2.523667e+01   3.438344e+02
  -3.015533e+02   1.304471e+02
  -3.787373e+02  -1.846788e+02
  -1.527581e+02  -3.392281e+02
   7.309838e+01  -3.402184e+02
   2.586067e+02  -1.473530e+02
   1.367132e+02  -3.776211e+00
   5.648502e+01   1.850341e+01
   2.343844e+02  -5.812464e+01
   3.746359e+02   7.699786e+01
   3.340514e+02   2.799316e+02
  -1.038742e+01   4.351564e+02
  -3.252188e+02   3.880422e+02
  -4.984378e+02   1.995889e+02
  -2.849660e+02  -1.094589e+02
  -1.464282e+01  -2.973940e+02
   1.284677e+02  -2.323449e+02
   7.860603e+01   3.025917e+01
  -1.691751e+02   1.358968e+02
  -2.243677e+02  -2.813100e+01
  -9.617332e+01  -1.955018e+02
   1.866427e+02  -1.666331e+02
   1.916284e+02   7.544737e+01
  -8.001445e-01   2.227081e+02
  -2.011739e+02   5.500963e+01
  -1.724057e+02  -2.101408e+02
   2.915366e+01  -3.439938e+02
   2.457345e+02  -2.223464e+02
   3.228045e+02   5.711709e+01
   3.059936e+02   2.228619e+02
   1.147802e+02   2.897060e+02
  -1.018774e+02   1.929483e+02
  -1.939522e+02   1.676686e+01
  -7.190844e+01  -3.005004e+01
   5.521887e+01   4.078810e+01
   2.660611e+01   1.524444e+02
  -9.758539e+01   9.115006e+01
  -1.868458e+02  -2.133449e+01
  -4.392067e+01  -8.759566e+01
   4.253403e+01  -4.618143e+01
   1.629087e+01   7.813024e+01
  -7.712657e+01   8.234118e+01
  -2.434466e+02   4.134573e+01
  -2.501408e+02  -1.716348e+02
  -4.221033e+01  -3.043262e+02
   1.851256e+02  -3.076119e+02
   2.897391e+02  -1.281692e+02
   1.773608e+02   3.743888e+01
  -2.363506e+01   8.453281e+01
  -1.238662e+02  -3.402365e+00
  -2.628090e+01  -6.289760e+01
   2.161150e+02  -6.474294e+01
   2.149018e+02   1.218950e+02
   3.576722e+01   2.419566e+02
  -7.725120e+01   1.284086e+02
  -1.986276e+02   6.191288e+01
  -6.563770e+01  -5.106415e+01
  -5.730576e+00  -3.364469e+01
   3.857817e+01   4.638729e+01
  -8.964320e+01   1.003649e+02
  -2.192007e+02   2.842024e+01
  -2.116642e+02  -1.079592e+02
  -3.902879e+01  -2.337913e+02
   1.473934e+02  -1.555496e+02
   1.559009e+02  -8.419984e+00
   7.261865e+01   1.049118e+02
  -8.909884e+01   1.006944e+02
  -6.019321e+01   3.179509e+01
  -1.056232e+01  -1.937345e+01
   4.086200e+01  -2.324235e+01
   9.123983e+00   2.322785e+00
  -4.498516e+01   9.686301e+00
  -7.592154e+01  -9.214077e+01
  -8.195375e+00  -1.292781e+02
   9.633245e+01  -1.373807e+02
   1.913544e+02  -3.391182e+01
   2.117526e+02   1.647358e+02
   2.723444e+01   2.336829e+02
  -1.099831e+02   1.632192e+02
  -1.237181e+02   4.964144e+01
  -8.727754e+01  -7.212432e+01
  -3.749610e+01  -3.896803e+01
  -7.421577e+01   1.631887e+01
  -6.244726e+01   2.909118e+01
  -4.522886e+01  -2.946358e+01
   2.714069e+01  -8.420511e+01
   8.046368e+01  -2.719115e+01
   1.077046e+02   9.974247e+00
  -2.246156e+00   9.480295e+01
  -1.450875e+02   1.072170e+02
  -2.314913e+02  -4.548625e+01
  -1.322523e+02  -1.906790e+02
   1.300315e+02  -2.491145e+02
   2.397854e+02  -7.736556e+01
   2.466962e+02   6.227246e+01
   9.674965e+01   1.595984e+02
  -3.623763e+01   1.645806e+02
  -9.987079e+01   7.355269e+01
  -8.872419e+01   5.492617e+01
  -9.339805e+01   7.598155e+01
  -5.790929e+01   3.570945e+01
  -9.998675e+01  -2.983590e+00
  -1.029345e+02  -1.304236e+02
  -7.449455e+01  -2.430829e+02
   9.403403e+01  -1.436890e+02
   1.924124e+02   1.207467e+00
   1.703378e+02   1.326700e+02
   3.005985e+01   1.367449e+02
  -8.098509e+01   7.614119e+01
  -4.039713e+01   2.884199e+01
  -1.441849e+01  -4.094799e+01
  -2.706381e+01  -2.907046e+01
  -6.952483e+01  -3.967026e+01
  -7.108866e+01   5.596033e+00
  -3.294581e+01  -3.149045e+01
   4.283493e+01  -7.347621e+01
   1.497786e+02  -1.749912e+01
   1.402445e+02   7.492623e+01
   2.619606e+01   5.993460e+01
  -1.365391e+02   1.224381e+02
  -1.491827e+02   4.409836e+01
  -3.735271e+01  -5.147857e+01
   4.009588e+01  -3.174310e+01
   5.822212e+01  -9.909985e-01
   2.770349e+01   6.832638e+01
  -4.831053e+01   4.511469e+01
  -9.000028e+01  -6.619929e+00
  -4.060200e+01  -7.033943e+01
  -1.547057e+01  -5.372880e+01
  -3.223150e+01   2.476811e+01
  -5.000590e+01  -6.337703e+00
  -7.558078e+01  -6.640834e+01
   2.233944e+01  -9.282161e+01
   1.239067e+02  -1.375419e+02
   1.294636e+02  -1.547629e+01
   1.009702e+02   1.122482e+02
   9.425238e+00   1.177649e+02
  -1.268399e+02   4.973114e+01
  -4.273033e+01  -1.456249e+01
   4.934194e+01   1.677496e+01
   1.443171e+02   1.853802e+01
   2.633693e+01   7.866555e+01
  -8.542886e+01   1.028375e+02
  -1.375179e+02   2.378498e+01
  -1.357391e+02  -4.688660e+01
  -5.123146e+01  -9.672090e+01
   6.882708e+01  -6.651287e+01
   6.426498e+01  -8.562182e+00
  -3.140304e+01   2.816345e+01
  -9.392457e+01  -6.995319e+01
  -5.093355e+01  -1.430505e+02
   1.154342e+02  -1.490250e+02
   1.274013e+02  -1.040778e+02
   1.210389e+02   1.344355e+02
   1.047863e+01   1.899016e+02
  -1.094152e+02   1.464925e+02
  -1.166578e+02  -4.769913e+00
  -9.257665e+01  -7.823176e+01
  -1.735960e+00  -1.260646e+02
   2.244197e+00   2.140903e+01
   4.331918e+01   4.732557e+01
   2.646532e+01   2.387814e+01
  -2.200532e+01  -4.036485e+00
   1.439186e+01  -1.908550e+01
   4.292417e+01   5.114229e+01
   3.355795e+01   1.202652e+02
  -1.058540e+01   6.805417e+01
  -1.350060e+02  -4.546725e+01
  -1.360346e+02  -1.193621e+02
  -1.742732e+01  -5.581639e+01
   9.028039e+01  -5.850205e+01
   1.264617e+02  -3.983048e+01
  -4.524714e+00   2.165467e+01
  -5.158609e+01   5.381350e+01
  -1.119390e+01   2.471935e+01
   4.235548e+01   1.422230e+01
  -1.963040e+01   1.780783e+01
  -1.024235e+02   6.313231e+00
  -1.116623e+02   8.057002e-01
   1.248846e+01  -5.288345e+01
   1.268744e+02  -1.370252e+02
   1.963709e+02  -7.662507e+01
   1.318706e+02   8.756146e+01
   3.347379e+01   1.503490e+02
  -6.709930e+01   1.430052e+02
  -1.404447e+02   3.521869e+01
  -1.086387e+02  -3.787816e+01
  -8.389640e+00  -1.779522e+01
   1.024705e+01  -3.518988e+00
  -1.910364e+01  -1.201351e+01
  -4.793643e+01  -4.598521e+01
  -1.819098e+01  -7.049777e+01
   5.976609e+00  -8.211958e+01
   5.820165e+01   6.809809e+01
   1.077579e+02   1.109205e+02
  -1.606704e+01   1.322155e+02
  -8.976148e+01   2.532601e+01
  -1.389889e+02  -5.332459e+01
  -1.479150e+01  -9.139742e+01
   6.476777e+01  -6.405200e+01
   9.054383e+01   3.418692e+01
   5.045363e+01   3.865256e+01
   1.397837e+01   1.953211e+01
  -4.195307e+01   6.741673e+01
   3.667029e+01  -8.762013e+00
   4.228428e+01  -2.414862e+01
  -2.483357e+01   4.613644e+01
  -6.755429e+01   4.421856e+01
  -1.087020e+02   4.143412e+01
  -5.829491e+01   2.025049e+00
   9.451312e+00  -7.029604e+01
   4.513282e+01  -1.011745e+02
   2.514358e+01  -3.090191e+01
  -4.264923e-02   5.315594e+01
  -4.580078e+01   1.316498e+01
  -1.491394e+01  -5.844961e+01
  -1.178719e+01  -4.027202e+01
  -5.998089e-01  -3.550245e+01
   3.953716e+01   6.849988e+00
   4.896673e+01   3.386561e+01
   1.448065e+01  -2.879063e+00
  -2.464199e+01  -5.229015e+01
   1.800216e+01   3.506685e+01
  -5.679256e+00   3.628327e+01
  -3.114936e+01   5.604696e+01
  -6.149020e+01  -1.189418e+01
  -2.763834e+01  -6.578907e+01
   1.270063e+01  -8.322068e+01
   1.521552e+01  -3.153148e+01
   6.913191e+01   1.829763e+01
   4.025303e+01   5.992583e+01
  -6.501541e+01   3.662055e+01
  -8.368598e+01  -5.945791e+01
  -5.329584e+01  -1.925621e+01
   4.343610e+01  -3.746202e+01
   3.711088e+01  -3.851898e+01
   9.262764e+00  -2.045672e+01
  -9.016550e+00   5.332196e+00
  -2.925778e+01  -4.078696e+01
   3.562180e+01  -3.120165e+01
   1.291732e+02   2.177225e+00
