
 $NMID
 id='ANONYMOUS ', fmtdat='(2E16.6)'
 volume=1.0
 tramp=1.0
 $END
   4.813576e+03  -2.518015e+01
   2.796606e+03   3.206708e+03
  -1.076464e+03   2.852688e+03
  -2.479946e+03   7.443589e+02
  -7.485134e+02  -8.754213e+02
   8.462853e+02  -5.565486e+02
   1.028547e+03   5.610604e+02
  -7.936480e+01   1.278102e+03
  -1.068758e+03   7.583886e+02
  -9.507709e+02  -2.517658e+02
  -4.442933e+02  -9.436429e+02
   3.680730e+02  -8.814268e+02
   6.681762e+02  -1.324477e+02
   4.568042e+02   8.310951e+02
  -2.790884e+02   7.537816e+02
  -7.050815e+02  -5.743433e+00
  -2.721187e+02  -7.832378e+02
   4.154749e+02  -6.990384e+02
   5.919583e+02  -7.219397e+01
   3.903397e+02   3.708926e+02
  -3.710167e+01   4.545519e+02
  -3.129993e+02   2.582461e+02
  -2.056138e+02   1.017061e+01
   1.378079e+02  -9.959647e+01
   4.527676e+02   1.371557e+02
   1.613339e+02   4.821078e+02
  -4.132825e+02   4.697780e+02
  -9.433475e+02  -3.832476e+01
  -4.854822e+02  -5.779861e+02
   4.890952e+02  -5.474305e+02
   8.401331e+02   3.509688e+01
   4.034386e+02   4.891040e+02
  -3.220717e+02   5.761749e+02
  -5.897290e+02   2.168467e+02
  -4.275852e+02  -2.804232e+02
  -6.488526e+01  -4.269310e+02
   2.102063e+02  -3.242287e+02
   2.593504e+02   2.131767e+02
  -1.758168e+02   4.596399e+02
  -4.664075e+02   2.022343e+01
  -2.999482e+02  -7.370591e+02
   3.730688e+02  -8.458302e+02
   6.677798e+02  -3.112820e+00
   2.603772e+02   6.214923e+02
  -3.556033e+02   2.245238e+02
  -4.605737e+02  -3.039022e+02
   8.570749e+01  -5.882221e+02
   5.818113e+02  -1.396536e+02
   6.520264e+02   4.817412e+02
   1.549902e+02   6.760871e+02
  -3.873586e+02   4.019281e+02
  -6.928909e+02  -1.001314e+02
  -3.963425e+02  -4.073764e+02
   2.183209e+02  -3.920979e+02
   4.962230e+02  -6.380081e+01
   2.809890e+02   2.237096e+02
  -1.925614e+02   1.417282e+02
  -1.937891e+02  -1.832708e+02
   1.647909e+02  -2.483337e+02
   3.592818e+02   9.471602e+01
   1.696009e+02   3.336590e+02
  -2.640409e+02   2.583358e+02
  -3.079899e+02   8.673640e+01
  -2.005930e+02  -1.244828e+02
   3.922430e+01  -2.335454e+02
   2.180044e+02  -3.177753e+02
   3.977846e+02  -2.039298e+02
   3.169548e+02   1.446937e+02
   1.427563e+02   4.826553e+02
  -1.465578e+02   3.698457e+02
  -1.289815e+02   1.153509e+02
  -2.608960e+01  -7.205354e+01
  -6.025399e+00   1.233275e+02
  -2.222652e+02   1.580615e+02
  -2.835298e+02  -6.168435e+01
  -1.830154e+02  -3.045149e+02
   9.211946e+01  -2.917560e+02
   2.701921e+02  -2.797738e+01
   2.245783e+02   2.251774e+02
  -1.345172e+01   2.953339e+02
  -2.893079e+02   1.163785e+02
  -3.476762e+02  -1.867593e+02
  -1.512188e+02  -3.702752e+02
   1.365548e+02  -2.940203e+02
   2.328103e+02  -1.128653e+02
   1.521509e+02   6.295856e+01
   6.740216e+01  -2.358180e+01
   2.388740e+02  -6.678648e+01
   4.327811e+02   7.045294e+01
   3.590145e+02   2.770267e+02
   3.094155e+01   4.421277e+02
  -3.497252e+02   4.140575e+02
  -5.775549e+02   2.090866e+02
  -3.499517e+02  -1.209340e+02
  -6.966973e+01  -2.714850e+02
   1.495710e+02  -2.722314e+02
   7.691134e+01  -5.064908e+00
  -1.008881e+02   1.095089e+02
  -1.960640e+02  -1.276771e+01
  -4.342518e+01  -1.944271e+02
   1.963711e+02  -1.972662e+02
   1.863699e+02   5.012333e+01
  -1.573516e+01   2.129508e+02
  -1.804707e+02   2.607014e+01
  -1.772683e+02  -2.471715e+02
   6.004952e+00  -3.598238e+02
   2.578220e+02  -1.999751e+02
   2.998087e+02   2.482545e+01
   2.774348e+02   2.347185e+02
   1.026571e+02   2.875777e+02
  -1.378448e+02   1.987510e+02
  -1.626382e+02   1.443425e+01
  -7.901288e+01  -4.317339e+01
   5.442271e+01   2.914418e+01
   2.146619e+01   1.366072e+02
  -1.001769e+02   1.181110e+02
  -2.122836e+02   5.210717e+00
  -5.053773e+01  -1.141134e+02
   6.885584e+01  -7.148630e+01
   8.127826e+01   6.431353e+01
  -1.451320e+02   8.197670e+01
  -2.767846e+02   1.616734e+01
  -2.686860e+02  -1.188624e+02
  -6.351257e+01  -3.208028e+02
   1.872514e+02  -3.099225e+02
   2.897825e+02  -1.243157e+02
   1.836870e+02   3.049911e+01
  -5.670686e+01   1.412339e+02
  -8.143868e+01   2.522987e+01
   4.447747e+01  -1.434297e+02
   2.076678e+02  -8.269765e+01
   2.541103e+02   1.438203e+02
   7.637726e+01   2.200317e+02
  -1.188782e+02   1.684179e+02
  -1.529983e+02   2.771804e+01
  -1.105100e+02  -5.041033e+01
  -9.628807e+00  -1.217947e+01
   2.502593e+01   1.015945e+02
  -2.251252e+01   8.076786e+01
  -1.788799e+02   5.454003e+01
  -1.865380e+02  -1.176743e+02
  -2.303403e+01  -2.437487e+02
   1.945003e+02  -1.785257e+02
   2.204281e+02   1.445795e+00
   1.022064e+02   1.146334e+02
  -4.795661e+01   1.059636e+02
  -6.342267e+01   1.518537e+01
  -8.645738e+01  -5.864708e+01
   9.476240e+00  -4.340557e+01
  -2.435790e+01  -1.072584e+01
  -4.688668e+01   3.439721e+00
  -8.066012e+01  -7.828176e+01
  -4.141632e+01  -1.488857e+02
   1.113266e+02  -1.645017e+02
   2.700659e+02  -2.288338e+01
   2.082926e+02   1.347997e+02
   5.126970e+01   2.204838e+02
  -1.074080e+02   1.505443e+02
  -1.131299e+02  -1.141784e+00
  -6.691137e+01  -7.022410e+01
  -4.487261e+01  -3.449674e+01
  -3.403675e+01   2.446386e+01
  -5.853634e+01  -1.984271e+00
  -6.157102e+01  -4.893558e+01
   1.165479e+01  -9.751047e+01
   1.240531e+02  -6.664313e+01
   9.251227e+01   1.618007e+01
   1.120977e+01   1.048893e+02
  -1.524180e+02   4.527728e+01
  -2.048868e+02  -9.107322e+01
  -1.082532e+02  -2.334636e+02
   1.419181e+02  -2.869386e+02
   2.987249e+02  -1.039365e+02
   2.263477e+02   6.173769e+01
   1.081920e+02   1.865557e+02
  -1.397720e+01   1.242413e+02
  -1.428853e+02   7.852179e+01
  -6.435362e+01   8.238466e+01
  -7.417365e+01   9.786934e+01
  -9.881687e+01   4.071017e+01
  -1.395493e+02  -1.120049e+01
  -1.089646e+02  -1.292904e+02
  -5.912332e+01  -2.613529e+02
   8.927656e+01  -1.758299e+02
   1.483821e+02  -2.935636e+01
   1.564353e+02   1.592000e+02
   3.121752e+01   1.599809e+02
  -8.903347e+01   9.137992e+01
  -9.190603e+01  -4.627414e+01
  -1.708477e+00  -8.284222e+01
   6.843859e+00  -6.798663e+01
  -1.925726e+01  -1.165077e+01
  -8.551678e+01  -3.316106e+01
  -4.005970e+01  -7.633086e+01
   2.960111e+01  -1.907466e+01
   1.373542e+02   2.567145e+01
   1.283623e+02   2.558545e+01
   1.578772e+01   1.071617e+02
  -1.202536e+02   1.293973e+02
  -1.612506e+02   1.405652e+01
  -4.332089e+01  -1.280675e+01
   8.043236e+01  -6.881917e+01
   6.112198e+01  -6.319316e+00
   1.658819e+01   4.294983e+01
  -5.430919e+01   4.613908e+01
  -6.422192e+01  -1.346566e+01
  -5.471362e+01  -5.256044e+01
  -7.057017e+01  -1.260099e+01
  -5.974860e+01  -2.241336e+01
  -6.929649e+01  -1.349346e+01
  -5.518155e+01  -5.383734e+01
   4.180950e+01  -1.341118e+02
   8.522030e+01  -1.259685e+02
   1.348069e+02  -3.134030e+01
   1.210132e+02   1.461385e+02
   1.225672e+01   1.136080e+02
  -1.073128e+02   6.453691e+01
  -8.749596e+01  -3.322010e+01
   6.262904e+01   1.235107e+00
   1.458259e+02   5.717590e+01
   9.467670e+01   1.287618e+02
  -7.027753e+01   1.089956e+02
  -1.993422e+02   4.688665e+01
  -1.358004e+02  -6.935682e+00
  -3.985928e+01  -1.056019e+02
   7.870896e+01  -8.064395e+01
   6.176991e+01   1.989389e+01
  -4.381024e+01   1.805676e+01
  -9.943866e+01  -1.305899e+01
   1.331571e+01  -1.133042e+02
   9.183054e+01  -1.584356e+02
   1.806470e+02  -9.413017e+01
   1.415667e+02   1.111112e+02
   3.197137e+01   2.189865e+02
  -7.095242e+01   1.825312e+02
  -1.068950e+02   1.400632e+01
  -8.191100e+01  -9.055923e+01
  -1.507731e+01  -1.416366e+02
   1.414132e+01   1.367335e+01
   2.935681e+01   2.830481e+01
   1.329181e+01   9.463394e+00
   2.762387e+01  -3.766299e+01
   1.596426e+01  -1.200452e+01
   9.064557e+01   7.160878e+01
   3.785765e+01   1.190461e+02
  -7.132755e+01   4.709897e+01
  -1.805594e+02  -5.434503e+01
  -1.056393e+02  -6.909268e+01
  -4.404929e+01  -6.389008e+01
   9.109049e+01  -2.343243e+01
   8.312439e+01   7.810332e+00
   5.184286e+00  -7.649111e+00
  -3.449358e+01   3.328305e+01
  -5.506757e+01   3.880562e+01
   9.486222e+00   1.352452e+01
   9.903279e+00  -1.542919e+01
  -1.045533e+02   5.743773e+00
  -6.670003e+01  -3.565711e+01
  -1.457829e+01  -6.932659e+01
   1.529848e+02  -9.936241e+01
   1.580296e+02  -4.680554e+01
   9.251691e+01   7.711100e+01
   3.079760e+01   1.900581e+02
  -7.346679e+01   1.238093e+02
  -9.253333e+01   3.489460e+01
  -9.027164e+01  -4.463393e+01
  -3.441621e+01  -2.754984e+01
  -2.427651e+01   2.056887e-01
   9.836725e-01  -2.922597e+01
  -3.919548e+01  -7.163810e+01
  -2.288394e+01  -4.738669e+01
   4.118730e+01  -6.452444e+01
   7.572775e+01   1.855908e+01
   6.376710e+01   1.582218e+02
  -3.131665e+01   1.279294e+02
  -8.567959e+01   9.539755e+00
  -1.056080e+02  -8.632375e+01
  -4.801140e+01  -6.809300e+01
   6.380206e+01  -4.610880e+01
   6.429223e+01   6.822187e+00
   5.626130e+01   8.018380e+01
  -3.112426e+01   3.176985e+01
  -8.563888e+00   2.385167e+01
   4.229306e+01   4.522934e+00
   9.416849e+01  -1.850363e+01
   2.279212e+00   3.543367e+01
  -9.553741e+01   9.079852e+01
  -1.094475e+02   5.098680e+01
  -4.847772e+01  -7.884760e+00
   5.839907e+00  -8.808764e+01
   5.616468e+00  -8.969325e+01
  -1.493314e+01  -1.978528e+01
   8.208656e+00   3.452236e+01
  -2.708029e+01   3.357687e+01
  -2.702330e+01  -4.864873e+01
  -4.512990e+01  -3.430367e+01
  -1.388002e+01  -2.794440e+01
   1.022020e+01   1.154114e+01
   2.160022e+01   4.457307e+01
  -2.103522e+01  -9.210135e+00
  -3.760197e+00  -2.099777e+01
  -2.527995e+01   3.546597e+01
   2.878031e+00   5.061072e+01
  -2.666292e+01   1.967407e+01
  -3.483709e+01  -6.494881e+00
   6.838198e-01  -3.672459e+01
   8.449467e+00  -5.485512e+01
   2.614067e+01  -2.398190e+01
   6.697444e+01   3.668164e+01
   5.376018e+01   1.059382e+02
  -6.091245e+01   3.401732e+01
  -7.699819e+01  -5.839105e+01
  -1.478178e+01  -5.122163e+01
   5.056685e+01  -3.950983e+01
   5.843735e+01  -1.799634e+01
  -7.244465e-02  -2.036523e+01
  -4.419961e+01  -4.529009e+01
  -3.510033e+01  -1.180328e+01
   2.304528e+00  -2.685409e+01
   1.137172e+02   3.350632e+00
