
 $NMID
 id='ANONYMOUS ', fmtdat='(2E16.6)'
 volume=1.0
 tramp=1.0
 $END
  -4.137529e+03   2.557007e+02
  -2.466889e+03  -2.245698e+03
   2.917845e+02  -2.687278e+03
   2.017633e+03  -1.154896e+03
   1.141137e+03   6.286106e+02
  -5.223996e+02   5.948559e+02
  -8.574615e+02  -4.264789e+02
  -1.735330e+01  -8.773411e+02
   7.697262e+02  -8.200921e+02
   9.483278e+02   3.043429e+01
   4.249876e+02   8.592170e+02
  -1.619445e+02   8.638373e+02
  -6.119739e+02   1.900039e+02
  -4.339098e+02  -5.564483e+02
   2.664428e+02  -7.654706e+02
   5.666597e+02  -2.153245e+01
   3.109531e+02   7.058111e+02
  -2.961763e+02   6.175170e+02
  -5.680404e+02   1.494180e+02
  -3.319164e+02  -3.312389e+02
  -5.526507e+01  -4.291592e+02
   2.086479e+02  -2.759366e+02
   1.680281e+02  -5.454722e+01
  -1.378236e+02   3.453202e+01
  -2.945739e+02  -1.365357e+02
  -1.701898e+02  -4.370203e+02
   5.058863e+02  -3.538935e+02
   8.663876e+02   1.013778e+02
   4.016305e+02   4.142007e+02
  -3.100846e+02   3.668330e+02
  -7.278774e+02   4.752431e+00
  -3.003732e+02  -5.348729e+02
   3.103147e+02  -4.986721e+02
   5.461844e+02  -1.476289e+02
   4.188696e+02   1.803441e+02
   6.733130e+01   4.577408e+02
  -1.417298e+02   2.400429e+02
  -6.809152e+01  -1.341587e+02
   1.090491e+02  -3.533881e+02
   4.313842e+02   7.763321e+01
   2.709042e+02   6.420348e+02
  -3.016657e+02   6.716509e+02
  -5.412864e+02   7.451133e+00
  -1.981812e+02  -4.433918e+02
   2.666992e+02  -3.462273e+02
   3.960157e+02   3.344765e+02
  -4.493916e+01   5.515317e+02
  -5.488268e+02   6.151833e+01
  -5.840318e+02  -3.892267e+02
  -1.775328e+02  -5.237838e+02
   3.717245e+02  -3.017928e+02
   6.109509e+02   7.429374e+01
   4.248043e+02   3.920957e+02
  -1.718933e+02   2.932938e+02
  -3.837343e+02   7.484605e+01
  -2.906630e+02  -2.352408e+02
   1.153156e+02  -1.355902e+02
   1.175304e+02   1.389327e+02
  -1.691087e+02   1.755157e+02
  -3.164939e+02  -1.053880e+02
  -1.119350e+02  -2.387176e+02
   1.619069e+02  -2.878988e+02
   3.221449e+02  -4.537610e+01
   1.913829e+02   6.096827e+01
  -1.082138e+01   2.251871e+02
  -2.640772e+02   3.278835e+02
  -3.165599e+02   2.107412e+02
  -2.649521e+02  -1.369326e+02
  -5.856532e+01  -4.215358e+02
   1.088943e+02  -4.122603e+02
   8.584089e+01  -1.406334e+02
   4.342226e+01  -2.615449e+01
   6.304587e+01  -9.321168e+01
   2.117866e+02  -9.838568e+01
   2.711490e+02   7.264720e+01
   1.359147e+02   2.481058e+02
  -3.715291e+01   2.568715e+02
  -2.574320e+02   2.411958e+01
  -1.858202e+02  -2.185142e+02
   1.532539e+01  -2.725308e+02
   2.718676e+02  -1.172684e+02
   3.835185e+02   1.793237e+02
   1.750935e+02   3.254704e+02
  -1.013520e+02   2.867432e+02
  -2.255989e+02   1.776723e+02
  -1.290672e+02   4.778469e+00
  -1.106294e+02   5.516999e+01
  -2.245415e+02   7.381835e+01
  -3.940001e+02  -4.066914e+01
  -3.333880e+02  -2.594720e+02
   1.561208e+01  -4.498806e+02
   3.613240e+02  -3.855705e+02
   4.954148e+02  -2.092005e+02
   3.430647e+02   5.923143e+01
   1.139097e+02   3.015124e+02
  -1.358834e+02   2.253172e+02
  -9.131858e+01   3.387259e+01
   1.485758e+02  -1.306528e+02
   2.013127e+02  -6.451390e+00
   3.460550e+01   1.881019e+02
  -1.710063e+02   2.107083e+02
  -1.560095e+02  -1.163001e+02
   4.939029e+01  -1.784628e+02
   1.417342e+02  -2.913904e+01
   1.388611e+02   2.577085e+02
  -1.519858e+01   3.889654e+02
  -2.144779e+02   1.654127e+02
  -3.287382e+02  -4.319199e+01
  -2.609447e+02  -2.267672e+02
  -1.452717e+02  -2.664578e+02
   1.161043e+02  -1.408754e+02
   1.448112e+02  -3.233573e+01
   4.333692e+01   4.491074e+00
  -8.386085e+01  -3.700751e+01
  -3.810580e+01  -9.279825e+01
   1.128485e+02  -7.558717e+01
   1.942634e+02   9.044425e+00
   5.862068e+01   6.290223e+01
  -7.106032e+01  -4.831605e+00
  -4.192996e+01  -9.116108e+01
   1.547501e+02  -8.594806e+01
   2.485865e+02   3.476693e+01
   2.732592e+02   1.579235e+02
   3.347016e+01   2.182068e+02
  -1.800756e+02   2.726685e+02
  -2.585474e+02   1.242395e+02
  -1.325717e+02  -5.202158e+01
   3.543788e+01  -1.548020e+02
   9.708854e+01  -5.571114e+01
  -3.007058e+01   1.492694e+02
  -1.563356e+02   3.079272e+01
  -2.213371e+02  -1.103362e+02
  -3.630382e+01  -1.699877e+02
   8.980373e+01  -1.617103e+02
   1.084533e+02  -4.235036e+01
   5.679887e+01   1.147948e+01
  -1.218788e+01   7.626443e+00
  -5.115310e+01  -6.452324e+01
   6.424879e+01  -1.191311e+02
   2.034370e+02   1.433185e+01
   1.697169e+02   1.160270e+02
   1.340090e+01   1.708834e+02
  -1.516814e+02   1.611231e+02
  -1.819385e+02   9.123790e+00
  -2.235278e+01  -1.235447e+02
   3.568588e+01  -1.101382e+02
   9.519319e+01  -2.644635e+01
   2.031291e+01   5.423974e+01
   2.557529e+01   2.980557e+01
   8.995920e+00  -3.560527e+01
   7.004238e+01   2.849512e+01
   7.551297e+01   6.322647e+01
   1.286444e+00   1.450850e+02
  -1.311330e+02   1.407121e+02
  -2.220670e+02   9.087939e-01
  -1.774229e+02  -1.515339e+02
  -3.429909e+01  -2.263330e+02
   9.052532e+01  -1.636971e+02
   1.178904e+02  -2.167764e+01
   1.025622e+02   5.609136e+01
  -1.285401e+01   5.344634e+01
   3.348538e+01   9.013101e+00
   7.413123e+01   3.307100e+01
   5.981419e+01   6.886885e+01
  -2.095888e+01   7.797919e+01
  -9.092154e+01   2.544969e+01
  -1.012308e+02  -2.558454e+01
   1.462808e+01  -1.286126e+02
   1.584732e+02  -7.928219e+01
   1.812933e+02   1.439439e+01
   1.033611e+02   2.079993e+02
  -9.937576e+01   2.633765e+02
  -2.884720e+02   1.426484e+02
  -2.755013e+02  -8.671078e+01
  -1.053160e+02  -2.177680e+02
   2.251610e+01  -1.578559e+02
   6.540024e+01  -7.184771e+01
   7.545520e+01  -6.724654e+01
   7.908405e+01  -9.305223e+01
   9.951143e+01  -8.358417e+01
   1.036034e+02   3.175831e+01
   1.281836e+02   1.427091e+02
   6.196332e+01   2.135354e+02
  -1.220822e+02   1.607385e+02
  -1.615367e+02   4.798478e+01
  -1.177467e+02  -9.315601e+01
  -7.911823e+00  -1.412881e+02
   6.832520e+01  -1.238778e+02
   8.316081e+01  -1.453366e+01
   2.369238e+01   5.938420e+01
   1.156412e+01   4.119474e+01
   6.155588e+01   2.271230e+01
   8.965768e+01   2.315825e+01
   2.261174e+01   4.483801e-01
  -3.358338e+01   3.177118e+01
  -1.615802e+02   2.313928e+01
  -1.442997e+02  -2.443223e+01
  -2.061316e+01  -8.514116e+01
   1.163426e+02  -1.052016e+02
   1.439078e+02  -5.621308e+01
   2.521369e+01   1.395635e+01
  -4.926634e+01   1.351699e+01
  -6.829273e+01  -8.939797e+00
  -2.486670e+01  -2.298101e+01
   3.283633e+01  -6.363211e+01
   8.106369e+01  -4.116269e-01
   7.328485e+01   3.699201e+01
   3.375874e+01   7.724845e+01
   2.995487e+01   4.608658e+00
   9.449872e+01  -8.453232e+00
  -3.068697e+00   6.483290e+01
  -2.536555e+00   1.410094e+02
  -1.147593e+02   1.685559e+02
  -1.698510e+02   3.023945e+01
  -1.125840e+02  -8.849369e+01
  -2.344658e+01  -8.136469e+01
   1.023417e+02  -1.620234e+01
   4.490922e+01   4.725894e+01
  -8.602369e+01   5.194616e+01
  -1.882694e+02  -6.632151e+01
  -9.811921e+01  -1.171092e+02
   8.199668e+01  -1.126936e+02
   1.789062e+02  -4.105752e+01
   1.458700e+02   5.403638e+00
   2.810002e+01   8.202655e+01
  -4.479091e+01   5.040733e+01
  -7.365718e+01   4.072601e+01
   3.485034e+01  -4.329584e+01
   7.687305e+01   1.327512e+01
   3.617797e+01   1.136726e+02
  -1.177862e+02   1.867329e+02
  -1.610545e+02   6.880215e+01
  -1.266330e+02  -1.153448e+02
  -4.722231e+01  -1.863404e+02
   6.628529e+01  -1.485583e+02
   6.961375e+01   4.547352e+01
   5.427617e+01   1.160747e+02
   1.289528e+00   1.136726e+02
  -5.433770e+01   2.108811e+01
  -4.749476e+01  -2.795512e+01
  -2.402982e+01  -1.441020e+01
   2.489148e-01   5.657654e+01
   2.660674e+01  -5.327608e+01
  -5.968222e+01  -6.773930e+01
  -5.001650e+01  -1.177593e+02
   5.977745e+01  -2.312492e+01
   1.281374e+02   3.341712e+01
   1.760675e+02   4.104801e+01
   1.855668e+01   4.622115e+01
  -7.455308e+01   1.518518e+01
  -1.223927e+02   5.597636e+01
  -3.070331e+01   2.228672e+01
   4.059013e+01  -2.917926e+01
   1.194729e+01  -5.914949e+00
  -3.863289e+00   8.020885e+00
   4.557332e+00  -2.301361e+01
   4.856998e+01   2.348739e+01
   4.753920e+01   2.450339e+01
  -1.009439e+01   4.555727e+01
  -1.390048e+02   1.033058e+02
  -1.762653e+02   6.123371e+01
  -1.180351e+02  -5.097026e+01
  -3.776783e+01  -1.522790e+02
   5.380761e+01  -1.004797e+02
   1.089596e+02  -1.930267e+01
   7.395721e+01   1.111639e+01
   6.447592e+01   4.951877e+01
  -1.595873e+01   4.531332e+01
   6.880215e+00  -6.733395e-01
   3.418889e+01   5.094685e+01
   1.511009e+01   1.049485e+02
  -7.739043e+00   3.883996e+01
  -1.304314e+02  -1.170641e+01
  -7.962204e+01  -8.633069e+01
   1.839911e+00  -1.276992e+02
   4.953505e+01  -3.518563e+01
   1.144333e+02   5.376426e+01
   5.157333e+00   1.253918e+02
  -5.121056e+01   4.577194e+01
  -1.106981e+02  -2.051925e+01
  -2.480261e+01  -3.590072e+01
   2.883960e+01  -4.389301e+01
   3.542569e+01   3.936767e-01
  -3.690494e+01   3.182684e+01
  -8.565114e+01   7.132248e+00
  -9.135523e+00  -2.263284e+01
   6.892977e+01  -4.952817e+01
   1.206387e+02  -4.964825e+01
   1.046922e+02   5.324769e+01
  -4.983964e+01   8.127007e+01
  -7.629489e+01   7.141899e+01
  -4.287936e+01   2.998272e+01
  -1.450416e+01  -7.301603e+01
   1.757947e+01  -6.724488e+01
   2.711927e+01   2.624203e+01
   2.790515e+01   3.832438e+01
  -3.356735e+01   3.340073e+01
   9.997231e+00   1.935537e+01
  -5.097313e+01   1.086315e+01
  -1.902560e+01   1.395877e+01
  -3.106406e+00  -7.487016e+00
   1.488584e+01  -1.234525e-01
   1.596424e+01  -3.636722e+01
   7.490911e+00  -6.950426e+01
   1.145582e+01  -7.321239e+00
   3.245274e+01   3.132709e+01
  -1.791059e+01   4.491254e+01
  -5.205017e+01   5.746747e+01
  -8.847930e+01  -4.658396e+01
   2.158081e+00  -1.365531e+01
   8.306283e+01  -6.582062e+01
   8.953968e+01   1.063881e+01
   7.197923e+01   4.728078e+01
  -4.910677e+01   6.303190e+01
  -1.866080e+01   6.978631e+01
  -1.998293e+01   1.519379e+01
   3.716169e+01  -1.098360e+01
   2.185761e+01  -8.338606e+00
  -1.048980e+01  -5.083868e+00
  -1.024602e+02   2.680708e+01
