
 $NMID
 id='ANONYMOUS ', fmtdat='(2E16.6)'
 volume=1.0
 tramp=1.0
 $END
  -3.564761e+03   9.776727e+00
  -2.402726e+03  -1.951137e+03
   1.262697e+02  -2.439894e+03
   1.513791e+03  -1.274815e+03
   1.018546e+03  -2.523535e+02
  -1.487452e+02   3.218452e+02
  -4.594537e+02  -1.651579e+02
  -8.345147e+01  -6.855825e+02
   4.623533e+02  -7.576424e+02
   7.186898e+02  -9.923332e+01
   4.264476e+02   4.594719e+02
  -1.692039e+01   6.869804e+02
  -4.090600e+02   2.146268e+02
  -3.082120e+02  -4.496555e+02
   9.061915e+01  -5.780520e+02
   4.055409e+02  -3.030318e+01
   3.441209e+02   5.634978e+02
  -2.337505e+02   5.873506e+02
  -5.011010e+02   2.427229e+02
  -4.991014e+02  -2.121820e+02
  -1.468374e+02  -3.829089e+02
   1.168706e+02  -3.004031e+02
   7.473088e+01  -1.237329e+02
  -1.690822e+02  -9.936111e+01
  -3.615565e+02  -1.958389e+02
  -1.265779e+01  -3.200215e+02
   4.528304e+02  -2.025361e+02
   6.610974e+02   9.007298e+01
   3.005456e+02   4.335833e+02
  -3.091941e+02   2.810652e+02
  -5.410435e+02  -1.556219e+02
  -2.152433e+02  -3.652837e+02
   2.581844e+02  -4.284845e+02
   4.646563e+02  -1.457645e+02
   3.456100e+02   2.225708e+02
   5.867904e+01   3.682944e+02
  -1.014886e+02   1.990753e+02
  -5.388798e+00  -8.568242e+01
   2.128582e+02  -1.974505e+02
   2.182756e+02   3.090127e+01
   2.687280e+01   5.060881e+02
  -2.579629e+02   4.588044e+02
  -3.667036e+02   2.842414e+01
  -2.334427e+02  -3.837644e+02
   8.271707e+01  -1.225214e+02
   2.357508e+02   2.672614e+02
  -9.461922e+01   4.685924e+02
  -4.546846e+02   5.055112e+01
  -4.982169e+02  -3.182836e+02
  -1.325217e+02  -5.182549e+02
   2.930667e+02  -2.666044e+02
   5.238797e+02   3.389557e+01
   3.224306e+02   2.615887e+02
  -7.137111e+01   2.557533e+02
  -3.665286e+02   1.132172e+02
  -1.775058e+02  -4.324813e+01
  -3.309783e+00  -7.723544e+01
   2.579268e+01   8.081344e+00
  -1.279478e+02   8.066453e+01
  -2.258490e+02  -5.775142e+01
  -1.428959e+02  -2.267558e+02
   1.515799e+02  -2.781208e+02
   3.341116e+02  -1.117828e+02
   2.354184e+02   1.027468e+02
  -3.570066e+01   2.791303e+02
  -3.308500e+02   3.198737e+02
  -3.710805e+02   1.500356e+02
  -2.166106e+02  -1.765355e+02
  -6.364360e+01  -4.365517e+02
   7.915048e+01  -3.357944e+02
   6.894660e+01  -1.559499e+02
   1.489411e+01  -9.187117e+01
   8.189519e+01  -6.473624e+01
   1.984922e+02  -1.188287e+02
   2.333248e+02   1.403976e+02
   1.276939e+02   2.655722e+02
  -8.344530e+01   2.224945e+02
  -1.915626e+02  -9.060066e+01
  -1.674876e+02  -2.561870e+02
   7.284458e+01  -2.544628e+02
   2.423608e+02  -2.937913e+01
   3.227031e+02   1.520089e+02
   1.222604e+02   3.120423e+02
   1.687818e+01   2.919742e+02
  -1.882240e+02   1.510344e+02
  -1.247571e+02   3.592809e+01
  -1.369838e+02   1.920377e+01
  -2.282175e+02   4.465119e+01
  -3.780801e+02  -8.929391e+01
  -3.113880e+02  -2.959648e+02
   9.967605e+00  -4.307551e+02
   3.898382e+02  -3.895494e+02
   4.531076e+02  -1.498765e+02
   2.958107e+02   8.685718e+01
   3.068134e+01   2.866428e+02
  -8.767381e+01   1.882859e+02
  -2.179465e+01   5.323659e+01
   1.249908e+02  -8.307316e+01
   1.308663e+02   6.101945e+01
  -9.808353e-03   1.810413e+02
  -1.130158e+02   1.010277e+02
  -1.222520e+02  -6.845637e+01
   1.041919e+01  -1.074260e+02
   1.776535e+02  -1.891193e+01
   1.638581e+02   2.460992e+02
  -2.598607e+01   3.786365e+02
  -1.940208e+02   2.231525e+02
  -3.596539e+02  -5.453825e+01
  -2.603688e+02  -2.736294e+02
  -1.204316e+02  -2.646233e+02
   1.415472e+02  -9.778192e+01
   1.442222e+02  -3.175693e+01
   1.756684e+01   2.998644e+01
  -7.146598e+01  -5.112255e+01
  -3.384869e+01  -8.404345e+01
   1.290026e+02  -5.402307e+01
   1.572204e+02   3.585161e+01
   2.634883e+01   1.812574e+01
  -3.418334e+01  -1.500325e+01
  -2.486475e+01  -7.301871e+01
   1.463426e+02  -1.055279e+02
   2.983694e+02   1.632782e+01
   2.719057e+02   1.674782e+02
   5.291582e+00   2.306355e+02
  -1.929123e+02   2.449796e+02
  -2.868073e+02   7.891671e+01
  -1.477060e+02  -5.427463e+01
   5.324843e+01  -8.227574e+01
   5.274498e+01  -1.055967e+01
  -4.638171e+01   8.357811e+01
  -1.998279e+02   4.745949e+01
  -1.582946e+02  -1.101571e+02
  -7.137252e+01  -1.985380e+02
   7.079834e+01  -1.601450e+02
   1.004965e+02  -2.637442e+01
   3.865500e+01   3.038047e+01
  -2.080829e+01  -4.367086e+01
  -7.351432e+00  -9.084533e+01
   8.705005e+01  -7.701162e+01
   1.981219e+02  -1.090052e+01
   2.239085e+02   1.365013e+02
   3.742148e+01   1.385381e+02
  -1.718462e+02   1.452766e+02
  -1.986170e+02  -2.313103e+01
  -8.414124e+01  -1.448856e+02
   6.931035e+01  -7.528245e+01
   6.219975e+01  -6.971534e+01
  -1.233658e+01  -5.243317e+00
  -1.421696e+01   3.177027e+01
  -7.455071e+00  -3.251094e+01
   7.294161e+01   2.014192e+01
   9.626250e+01   1.070891e+02
   3.465613e+00   1.958921e+02
  -1.013723e+02   1.200472e+02
  -2.631806e+02   8.379426e+00
  -1.595681e+02  -1.824529e+02
  -5.642704e+01  -2.279865e+02
   6.700826e+01  -1.124934e+02
   1.449579e+02  -3.229697e+01
   6.967788e+01   4.373728e+01
   3.068778e+01   4.564802e+01
   5.886523e+01  -2.348344e+01
   7.982155e+01  -3.789097e+01
   7.593153e+01   4.745883e+01
  -3.747658e+01   1.098692e+02
  -1.064128e+02   6.687324e+01
  -1.087909e+02  -2.685562e+01
   2.366507e+01  -1.065032e+02
   2.055100e+02  -7.959079e+01
   1.854670e+02   4.475934e+01
   6.539192e+01   2.078769e+02
  -1.041851e+02   2.150271e+02
  -2.782629e+02   1.076146e+02
  -3.015879e+02  -1.226999e+02
  -1.010448e+02  -1.642555e+02
   4.243782e+01  -1.302358e+02
   9.059312e+01  -5.587971e+01
   7.106260e+01  -6.759355e+01
   2.463279e+01  -9.377606e+01
   1.083481e+02  -4.687241e+01
   1.163575e+02   3.237709e+01
   1.221269e+02   1.397800e+02
  -1.563918e+01   2.295093e+02
  -1.166738e+02   1.497046e+02
  -9.755792e+01   2.316185e+01
  -1.194357e+02  -1.265298e+02
   4.829756e+01  -1.774442e+02
   5.944227e+01  -1.036247e+02
   8.881817e+01   4.337742e+01
  -2.745841e+01   5.634482e+01
  -2.413700e+01   2.812021e+00
   5.703280e+01  -1.956290e+01
   1.045725e+02   4.567949e+01
   4.461687e+01   2.271125e+01
  -7.842584e+01   3.020794e+01
  -1.618192e+02  -1.840642e+01
  -1.294096e+02  -6.294257e+01
   7.802126e+00  -1.105023e+02
   9.250281e+01  -7.714382e+01
   1.528442e+02  -2.810621e+01
   4.804272e+01   5.638348e+01
  -3.952243e+01   1.724080e+01
  -6.103037e+01  -4.248492e+01
  -6.399889e+00  -2.880606e+01
   4.568169e+01  -2.101717e+01
   4.826202e+01  -5.458075e+00
   6.176042e+01   2.505767e+01
   2.817080e+01   5.736473e+01
   4.175627e+01   1.081476e+01
   4.993658e+01  -3.671687e+01
   5.783921e+01   9.053581e+01
  -2.384756e+01   1.565311e+02
  -1.593668e+02   1.489682e+02
  -1.828375e+02   3.799471e+01
  -1.307885e+02  -1.083282e+02
   3.889433e+01  -1.416497e+02
   8.777201e+01  -8.027095e+01
   9.040338e+01   7.092144e+01
  -4.845976e+01   4.131237e+01
  -1.228509e+02  -4.811654e+01
  -7.500830e+01  -4.666948e+01
   9.245836e+01  -8.141727e+01
   2.223658e+02  -7.284303e+01
   1.251660e+02   1.612838e+01
   2.895997e+01   8.030121e+01
  -9.643991e+01   4.113954e+01
  -7.724899e+01  -3.766347e+01
   6.218333e+01   3.552945e+01
   6.448643e+01   1.832680e+00
   3.241307e+01   9.256854e+01
  -7.478675e+01   1.684783e+02
  -1.437557e+02   8.124188e+01
  -1.194221e+02  -8.480671e+01
  -3.083801e+01  -2.002333e+02
   5.951639e+01  -1.574696e+02
   1.287549e+02   6.155851e+00
   2.834495e+01   1.057255e+02
  -2.324370e+01   9.172450e+01
  -6.052457e+01  -8.862384e+00
  -7.282617e+01  -5.381980e+01
  -1.137469e+01  -3.731284e+00
  -2.230150e+01   5.537925e+01
  -3.122768e+00  -7.582467e+00
  -7.511686e+01  -1.185104e+02
  -2.107630e+01  -1.008490e+02
   5.882422e+01  -6.311709e+01
   1.423534e+02   4.964522e+01
   1.245364e+02   7.025898e+01
   1.882590e+01   8.047423e+01
  -1.120877e+02   7.321274e+00
  -7.058509e+01   6.041385e+01
  -4.536646e+01   4.681563e-01
   2.607192e+01  -7.920443e+00
   2.482414e+01  -3.201937e+01
   1.224699e+01   3.041958e+01
   2.726533e+01   1.851267e+01
   3.846289e+01   6.025539e+00
   5.060347e+01   4.366576e+01
  -6.277707e-01   1.031247e+02
  -9.195306e+01   8.784841e+01
  -1.608313e+02   9.593730e+01
  -1.243130e+02  -6.623229e+01
  -7.702312e+01  -1.639516e+02
   7.229422e+01  -1.724411e+02
   1.030816e+02  -4.903979e+01
   8.191435e+01   4.123594e+01
   2.476434e+01   6.277315e+01
  -6.429020e-01   2.438293e+01
   1.880873e+01  -1.021623e+01
   4.824145e+01   4.172115e+01
  -1.466041e+01   1.036694e+02
  -1.623127e+01   6.658802e+01
  -7.947716e+01   7.615547e+00
  -8.593833e+01  -1.014447e+02
  -2.656558e+01  -1.447898e+02
   6.121028e+01  -4.211316e+01
   8.924371e+01   3.360055e+01
   5.250528e+01   8.723211e+01
  -1.008056e+02   3.430352e+01
  -9.625890e+01  -2.987243e+01
  -4.681818e+01  -4.124732e+01
   2.927346e+01  -7.577895e+01
   4.090756e+01  -3.760826e+01
  -3.326244e+00   1.295679e+01
  -6.698169e+01  -1.214475e+01
   1.115190e+01  -4.178451e+01
   1.224897e+02  -9.659750e+01
   1.029290e+02  -5.720002e+01
   5.644543e+01   3.725410e+00
  -1.047140e+01   1.060998e+02
  -6.979373e+01   1.054905e+02
  -5.015595e+01   4.435009e+01
   9.346036e+00  -5.941982e+01
  -3.894020e+00  -7.985009e+01
   4.871586e+00  -2.289782e+01
   3.244807e+01   6.358662e+01
   3.414248e+01   4.805309e+01
  -2.662259e+01  -2.587814e+01
  -8.188803e+01  -1.627058e+01
  -2.615073e+01   3.188496e+00
  -5.817691e+00  -3.970405e+01
  -2.553042e+01   1.953873e+01
  -1.091426e+01  -3.303356e+01
  -1.479795e+01  -3.548709e+01
   2.634670e+00  -2.462726e+01
   4.187938e+01   2.407837e+01
   2.457084e+01   9.008049e+00
  -1.980308e+01   2.942879e+01
  -6.223571e+01  -5.021998e+01
  -3.958440e+01  -5.858517e+01
   6.050187e+01  -4.376450e+01
   1.035272e+02  -1.825282e+01
   6.339169e+01   6.171311e+01
  -5.090451e+01  -1.855447e+01
  -7.142871e+01   2.237886e+01
  -6.191063e+00   1.942164e+01
   2.602130e+01  -1.464766e+01
   4.389623e+01  -4.045036e+01
  -2.574433e+01  -1.427743e+01
  -1.230569e+02   3.279250e+01
