
 $NMID
 id='ANONYMOUS ', fmtdat='(2E16.6)'
 volume=1.0
 tramp=1.0
 $END
   3.722713e+03   3.494607e+02
   2.092481e+03   1.825151e+03
  -5.876852e+02   2.114080e+03
  -1.557255e+03   8.178862e+02
  -7.939694e+02  -1.209606e+02
   1.927412e+02  -1.673055e+02
   5.200293e+02   2.660879e+02
  -8.019950e+01   5.913638e+02
  -6.518507e+02   5.414148e+02
  -6.641460e+02  -9.296013e+01
  -4.521117e+02  -7.537795e+02
   2.335572e+02  -7.177136e+02
   4.411476e+02  -8.313443e+01
   2.990044e+02   4.795954e+02
  -2.371497e+02   6.939416e+02
  -4.956150e+02   7.499934e+01
  -2.736743e+02  -5.773358e+02
   2.032269e+02  -5.558768e+02
   4.141120e+02  -2.001991e+02
   4.093232e+02   2.920691e+02
   6.115410e+01   4.155430e+02
  -2.056180e+02   2.221446e+02
  -8.480172e+01   1.487654e+01
   1.828518e+02   4.127161e+01
   3.897150e+02   1.796535e+02
   5.886824e+01   4.551300e+02
  -4.308039e+02   2.286829e+02
  -7.693156e+02  -1.322918e+02
  -2.797900e+02  -4.578887e+02
   4.279000e+02  -3.329246e+02
   6.299031e+02   1.133565e+02
   2.380181e+02   4.660695e+02
  -2.520030e+02   4.152931e+02
  -5.011149e+02   1.640760e+02
  -3.951809e+02  -2.336099e+02
  -5.617051e+01  -4.462060e+02
   1.555699e+02  -2.284756e+02
   3.137333e+00   1.868798e+02
  -2.271226e+02   3.042618e+02
  -3.459152e+02  -8.930535e+01
  -4.573407e+01  -5.924423e+02
   2.728807e+02  -5.182754e+02
   4.801182e+02   9.009026e+01
   9.843151e+01   3.802445e+02
  -2.502102e+02   1.484575e+02
  -2.416282e+02  -3.890024e+02
   1.340960e+02  -4.945441e+02
   4.963525e+02  -9.782438e+01
   5.397824e+02   3.876790e+02
   1.738495e+02   6.115997e+02
  -3.050384e+02   3.145628e+02
  -5.697261e+02  -1.147452e+02
  -3.452595e+02  -3.335048e+02
   5.136200e+01  -2.036035e+02
   3.738247e+02  -7.936234e+01
   2.096064e+02   8.659716e+01
  -6.226312e+01  -2.418712e+01
  -1.143127e+02  -9.233267e+01
   1.571325e+02  -9.576835e+01
   2.771214e+02   1.080531e+02
   1.039557e+02   2.170438e+02
  -1.597050e+02   2.035325e+02
  -3.062133e+02   1.068524e+02
  -2.682993e+02  -8.754770e+01
   1.777298e+00  -2.969327e+02
   2.577160e+02  -3.693254e+02
   4.112248e+02  -1.806760e+02
   2.069901e+02   1.828014e+02
   6.885080e+01   3.709529e+02
  -1.177190e+02   3.629720e+02
  -7.170314e+01   1.440605e+02
  -4.366001e+01   7.549364e+01
  -7.040192e+01   1.388898e+02
  -1.954755e+02   1.008286e+02
  -2.991138e+02  -8.294609e+01
  -1.446788e+02  -2.966358e+02
   1.002050e+02  -2.270312e+02
   1.603811e+02   7.212368e+01
   1.430934e+02   2.401271e+02
  -5.778472e+01   2.952086e+02
  -2.563256e+02   9.159754e+01
  -3.304509e+02  -2.175011e+02
  -1.638658e+02  -3.270878e+02
   7.744960e+01  -3.245005e+02
   1.701505e+02  -1.090084e+02
   1.185364e+02  -8.900250e+01
   1.406997e+02  -3.313881e+01
   2.558858e+02  -4.290480e+01
   4.147386e+02   8.814567e+01
   2.961613e+02   2.947095e+02
   5.899930e+00   4.698805e+02
  -3.368475e+02   4.118767e+02
  -5.070830e+02   2.132880e+02
  -3.187557e+02  -1.267205e+02
  -7.737608e+01  -2.764693e+02
   1.546853e+02  -2.132825e+02
   6.613795e+01  -4.327105e+01
  -9.670343e+01   8.834906e+01
  -1.157298e+02  -3.215664e+01
  -2.610668e+01  -1.843018e+02
   1.869286e+02  -1.515378e+02
   1.318614e+02   4.847318e+01
  -6.041372e+01   1.856672e+02
  -1.843427e+02   2.839087e+01
  -1.537567e+02  -2.093236e+02
   3.053070e+01  -3.266614e+02
   2.424602e+02  -1.504769e+02
   3.350200e+02   6.596197e+01
   2.891555e+02   2.221485e+02
   5.458767e+01   2.770703e+02
  -1.314404e+02   1.380265e+02
  -1.829294e+02  -8.824041e+00
  -6.680319e+01  -3.599324e+01
   6.934749e+01   5.245392e+01
   2.463148e+01   1.173480e+02
  -1.074595e+02   9.195289e+01
  -1.844416e+02  -3.316342e+00
  -4.548819e+01  -1.107581e+02
   5.156483e+01   2.561499e+01
   6.868760e+01   1.094213e+02
  -1.358811e+02   5.028804e+01
  -2.713650e+02   1.485797e+01
  -2.733399e+02  -1.578096e+02
  -3.251499e+01  -2.306876e+02
   1.766643e+02  -2.634748e+02
   2.589135e+02  -1.083906e+02
   1.774417e+02   7.447464e+01
  -5.199165e+01   7.829184e+01
  -9.559052e+01  -2.209180e+01
   6.775205e+00  -9.704542e+01
   1.941265e+02  -3.984478e+01
   1.845468e+02   1.167992e+02
   3.728823e+01   2.194214e+02
  -1.024082e+02   1.518422e+02
  -8.213202e+01   2.055140e+01
  -3.229421e+01  -3.822304e+01
   6.262855e+01   1.430309e+01
   3.035586e+01   7.180853e+01
  -6.159035e+01   1.119427e+02
  -2.338282e+02   2.436258e+01
  -1.739245e+02  -9.097634e+01
  -2.407964e+01  -2.203930e+02
   1.796221e+02  -1.182155e+02
   1.911180e+02  -4.617945e+00
   8.321122e+01   1.098613e+02
  -7.188717e+01   1.478276e+02
  -4.718745e+01   2.092279e+01
  -6.070055e+01  -4.981159e+01
   3.194656e+01  -9.875736e+00
  -1.491765e+01   1.888906e+01
  -7.362012e+01  -2.395212e+01
  -9.245802e+01  -1.195491e+02
  -1.171296e+01  -1.891896e+02
   1.249268e+02  -1.607208e+02
   2.253898e+02  -2.592640e+01
   1.952517e+02   1.179705e+02
   2.005783e+01   2.269740e+02
  -7.686615e+01   1.798638e+02
  -1.419728e+02   2.712286e+01
  -1.048191e+02  -6.600421e+01
  -1.584559e+01  -1.127112e+01
  -8.824309e+01   4.532418e+00
  -7.691566e+01  -2.243680e+00
  -6.755053e+01  -6.751772e+01
   5.857921e+00  -1.026677e+02
   8.793836e+01  -3.992290e+01
   9.637491e+01   2.598334e+01
   6.541443e+00   1.479002e+02
  -1.491416e+02   9.912257e+01
  -2.199818e+02  -9.570568e+01
  -9.485275e+01  -1.889295e+02
   1.306820e+02  -2.148214e+02
   2.739030e+02  -1.277325e+02
   2.383617e+02   9.790646e+01
   1.042185e+02   1.828105e+02
  -3.193703e+01   1.340678e+02
  -7.534430e+01   6.768140e+01
  -1.043503e+02   3.458442e+01
  -5.165371e+01   8.396770e+01
  -9.103228e+01   7.333781e+01
  -1.138971e+02  -4.948380e+01
  -1.433001e+02  -1.353085e+02
  -8.451096e+00  -1.872514e+02
   6.724543e+01  -1.862387e+02
   2.137529e+02  -5.089830e+01
   8.772449e+01   1.334125e+02
   2.437016e+01   1.649684e+02
  -5.831245e+01   9.962566e+01
  -4.642528e+01  -3.075454e+00
  -1.766427e+00  -8.646923e+01
   2.477287e+01  -6.896694e+01
  -3.007701e+01   2.545061e+01
  -2.690527e+01   4.978112e-01
  -2.719452e+01  -3.845722e+01
   6.872276e+01  -4.759440e+01
   1.818472e+02   4.610109e+00
   1.364693e+02   4.145646e+01
  -5.532098e+00   7.291678e+01
  -1.424115e+02   7.391364e+01
  -1.370070e+02   8.235944e+00
  -5.155122e+01  -4.359481e+01
   4.594455e+01  -4.248140e+01
   1.085897e+02   1.746321e+01
   2.382783e+00   3.332979e+01
  -6.877925e+01   5.472123e+01
  -1.875856e+01   3.172039e+01
  -1.003805e+02  -5.974428e+01
  -7.400277e+00  -4.757935e+01
   1.071490e+01  -1.460797e+01
  -1.200597e+02   4.671453e+00
  -1.920943e+01  -4.288664e+01
  -2.245572e+00  -1.642607e+02
   1.318813e+02  -1.562468e+02
   1.778311e+02  -2.470086e+01
   1.219762e+02   1.138160e+02
  -1.228515e+00   1.439131e+02
  -7.178982e+01   5.850203e+01
  -6.381253e+01  -5.728507e+01
   5.379003e+01  -5.963475e+00
   1.138921e+02   9.557661e+01
   5.066402e+01   1.346254e+02
  -8.561010e+01   1.462560e+02
  -1.938584e+02   4.380944e+01
  -1.628324e+02  -2.532017e+01
  -6.051278e+01  -7.417633e+01
   9.460773e+01  -7.301046e+01
   4.586681e+01  -1.161999e+01
  -2.353240e+00   1.391500e+01
  -8.243637e+01  -2.670199e+01
  -3.772366e+01  -1.004128e+02
   7.540875e+01  -1.380330e+02
   1.713479e+02  -7.701669e+01
   1.212457e+02   1.207841e+02
   4.349358e+01   2.036612e+02
  -5.662242e+01   1.597268e+02
  -9.898027e+01  -1.431265e+01
  -9.021674e+01  -8.610705e+01
   9.991721e+00  -8.916474e+01
   4.218245e+01  -3.201536e+01
   2.104697e+01   7.903233e+01
   3.450033e+01  -1.288161e+01
  -2.064294e+00  -1.403208e+01
   2.890726e+01   1.186925e+00
   6.665628e+01   8.475146e+01
   4.694572e+01   1.431431e+02
  -6.305122e+01   2.237126e+01
  -1.426121e+02   4.299769e+00
  -1.223671e+02  -5.788109e+01
  -2.039337e+01  -5.749234e+01
   5.550582e+01  -5.222624e+01
   1.094831e+02   8.345748e+00
   4.405455e+00  -3.008853e+01
  -5.050774e+01   6.174570e+01
  -4.409057e+01   1.264245e+01
   2.004821e+01  -2.595325e+00
  -1.636472e+01  -1.357217e+01
  -5.808258e+01  -1.200272e+01
  -8.305561e+01  -2.268380e+01
  -2.444052e+01  -9.076910e+01
   7.798951e+01  -1.309985e+02
   2.199949e+02  -5.534575e+01
   1.426502e+02   3.632750e+01
   3.658618e+01   1.673120e+02
  -8.167655e+01   1.901164e+02
  -1.643778e+02   4.573549e+01
  -7.065370e+01  -2.177864e+01
  -4.036739e+01  -3.570532e+01
   4.350002e+00  -1.685424e+01
  -2.064769e+01   1.348143e+01
  -5.928857e+01  -5.211893e+01
  -3.639065e+01  -8.631414e+01
   3.238795e+01  -5.132130e+01
   9.277826e+01   6.447129e+01
   7.984558e+01   1.286189e+02
   2.316800e-01   1.124760e+02
  -9.887589e+01   2.384915e+01
  -1.395605e+02  -6.456920e+01
  -5.552174e+01  -5.755809e+01
   1.820808e+01  -4.466965e+01
   6.494620e+01   6.217223e+00
   4.641039e+01   2.802685e+01
  -2.862912e+01   7.213408e+01
  -3.508270e+01   7.257376e+01
   2.000052e+01   6.450455e-02
   7.781493e+01  -3.118048e+01
   1.502018e+01   5.009556e+01
  -5.049313e+01   5.603808e+01
  -1.039565e+02   4.510142e+01
  -8.704886e+01  -4.545239e+01
   3.228400e+00  -9.851133e+01
   5.574255e+01  -9.870108e+01
   1.523110e+01   1.975390e+01
   2.049344e+01   5.776946e+01
  -1.523950e+01   5.138671e+01
  -3.802003e+01  -1.230827e+01
  -4.474830e+00  -4.926710e+01
   1.763219e+01  -2.509660e+01
   2.760115e+01  -5.357020e+00
   2.557490e+01   2.802380e+00
   1.151475e+01  -1.750786e+01
  -2.347858e+01   1.568894e+01
   9.248947e+00   1.866962e+01
   3.761263e+01   7.954174e+01
  -1.313569e+01   6.312711e+01
  -4.282944e+01   4.242449e+01
  -5.199685e+01  -7.152406e+01
  -2.590014e+01  -6.780027e+01
   4.777654e+01  -9.223681e+01
   6.688303e+01  -5.820887e+00
   3.016595e+00   4.732135e+01
  -2.757429e+01   6.495586e+01
  -4.962371e+01  -1.872951e+01
  -2.133667e+01  -3.443122e+01
   4.050879e+01  -6.338477e+01
   4.907514e+01  -2.126141e+01
   3.133822e+01   6.962353e+00
  -1.523977e+01  -1.665574e+01
  -7.823698e+01  -3.307675e+01
  -3.095958e+01  -3.092968e+01
   7.914182e+01  -3.854966e-02
