
 $NMID
 id='ANONYMOUS ', fmtdat='(2E16.6)'
 volume=1.0
 tramp=1.0
 $END
  -4.074745e+03  -1.270260e+02
  -2.393143e+03  -1.983117e+03
   3.154141e+02  -2.212686e+03
   1.812121e+03  -1.016319e+03
   7.675372e+02   1.627576e+02
  -1.689650e+02   2.867606e+02
  -5.423505e+02  -3.576631e+02
   1.106754e+02  -5.972070e+02
   7.127808e+02  -5.284183e+02
   7.883031e+02   2.148081e+01
   2.830016e+02   9.286543e+02
  -2.899286e+02   7.254383e+02
  -4.698459e+02   1.336831e+02
  -2.426899e+02  -5.981265e+02
   2.367370e+02  -6.674322e+02
   5.613625e+02  -3.578368e+01
   2.671916e+02   6.651846e+02
  -2.251587e+02   6.181716e+02
  -5.530819e+02   1.772747e+02
  -3.772312e+02  -3.250746e+02
  -4.626266e+01  -4.307687e+02
   2.228326e+02  -2.749009e+02
   1.680308e+02  -8.600824e+01
  -1.164293e+02   7.695570e+01
  -3.077240e+02  -1.947407e+02
  -5.699664e+01  -4.426892e+02
   4.213035e+02  -3.170395e+02
   7.588778e+02   1.270282e+02
   2.888072e+02   5.408134e+02
  -4.374782e+02   3.157492e+02
  -6.606522e+02  -9.521649e+01
  -2.324530e+02  -4.853371e+02
   2.370229e+02  -4.473936e+02
   4.668177e+02  -1.583108e+02
   3.974567e+02   2.937377e+02
   4.220926e+01   3.677734e+02
  -1.474583e+02   2.030019e+02
  -1.207664e+02  -1.831865e+02
   2.410097e+02  -3.664611e+02
   2.837538e+02   9.751017e+01
   1.720135e+02   5.833307e+02
  -3.018988e+02   6.173777e+02
  -5.197521e+02  -6.911180e+01
  -2.142654e+02  -4.023248e+02
   2.254796e+02  -2.661897e+02
   2.759520e+02   3.200298e+02
  -1.193895e+02   4.681083e+02
  -5.735037e+02   9.140831e+01
  -4.959627e+02  -3.943186e+02
  -1.270565e+02  -5.410626e+02
   3.263270e+02  -2.516683e+02
   4.980784e+02   7.167412e+01
   3.248050e+02   3.481335e+02
  -9.414867e+01   3.157400e+02
  -3.960336e+02   5.716183e+01
  -2.347206e+02  -9.583648e+01
   7.004617e+01  -9.071575e+01
   1.577122e+01   7.377781e+01
  -9.288738e+01   1.538838e+02
  -2.673784e+02  -3.021878e+01
  -1.364272e+02  -2.887647e+02
   1.702694e+02  -2.500036e+02
   3.402638e+02  -1.002753e+02
   2.208580e+02   6.305024e+01
  -1.580662e+01   2.786196e+02
  -2.425798e+02   3.349109e+02
  -3.216588e+02   1.540427e+02
  -2.610307e+02  -1.422786e+02
  -4.605741e+01  -3.833704e+02
   1.036621e+02  -2.919450e+02
   7.394723e+01  -1.426358e+02
   5.466209e+01  -5.689285e+01
   9.053035e+01  -1.180934e+02
   2.135205e+02  -1.091003e+02
   2.791601e+02   1.044640e+02
   1.348616e+02   2.516321e+02
  -1.226864e+02   2.272803e+02
  -2.261669e+02  -7.472808e+00
  -1.434002e+02  -2.884422e+02
  -7.842558e+00  -2.645450e+02
   2.689502e+02  -7.697740e+01
   3.237018e+02   1.607807e+02
   1.762688e+02   3.565380e+02
  -7.843466e+01   3.266800e+02
  -1.715983e+02   7.056400e+01
  -1.595937e+02   4.900397e+01
  -1.554222e+02   4.264899e+01
  -2.756422e+02   6.939148e+01
  -3.718436e+02  -8.997476e+01
  -3.266882e+02  -3.079435e+02
   2.705340e+01  -4.575517e+02
   3.521577e+02  -3.969966e+02
   4.768837e+02  -1.850261e+02
   3.003784e+02   1.363106e+02
  -6.882677e-01   2.393977e+02
  -1.195575e+02   2.132886e+02
  -7.075076e+01   2.181334e+01
   1.223741e+02  -5.710897e+01
   1.634382e+02   6.252612e+01
   1.741768e+01   1.928539e+02
  -1.733741e+02   1.294410e+02
  -1.305953e+02  -5.189261e+01
  -4.505069e+01  -2.134591e+02
   1.606867e+02   3.735713e+01
   1.645353e+02   1.955522e+02
  -8.592423e+01   3.317571e+02
  -2.145675e+02   1.750713e+02
  -3.102255e+02  -1.031128e+02
  -2.552095e+02  -2.133265e+02
  -8.909501e+01  -2.503823e+02
   1.430285e+02  -1.678823e+02
   1.620967e+02  -1.922173e+01
   3.233501e+01   5.749647e+01
  -6.341004e+01  -5.279176e+01
  -5.153961e+01  -8.697139e+01
   1.113121e+02  -5.565390e+01
   1.326166e+02  -7.152208e+00
   4.170896e+01   4.383016e+01
  -8.338501e+01  -1.816573e+01
  -7.117371e+01  -1.078679e+02
   1.566347e+02  -8.087146e+01
   3.168035e+02   1.687776e+01
   2.475288e+02   1.417998e+02
   2.211591e+01   2.267208e+02
  -2.026496e+02   2.446292e+02
  -2.738167e+02   1.184972e+02
  -1.420788e+02  -1.703756e+01
   5.562724e+01  -9.700158e+01
   1.094471e+02  -1.254454e+00
  -5.250929e+01   1.546919e+02
  -1.796611e+02   4.361390e+01
  -1.824540e+02  -1.063968e+02
  -5.793322e+01  -1.820754e+02
   1.088491e+02  -1.238025e+02
   1.126113e+02  -3.827977e+01
   7.391188e+01   3.155777e+01
  -4.350693e+01  -1.365636e+01
  -5.391565e+01  -9.590692e+01
   7.500642e+01  -1.094407e+02
   1.998053e+02   1.027059e+01
   1.733379e+02   1.618074e+02
   2.553333e+00   1.986050e+02
  -1.505214e+02   9.512024e+01
  -2.160636e+02  -2.346410e+01
  -4.664707e+01  -7.474005e+01
   7.178146e+01  -9.294628e+01
   7.591909e+01  -9.998033e+00
   3.262038e-01   4.054229e+01
   3.843410e+00   1.422547e+01
   2.419069e+01  -2.470461e+01
   4.102289e+01   4.544949e+01
   1.176404e+02   9.739487e+01
   7.641920e+00   1.568533e+02
  -1.551634e+02   1.261051e+02
  -2.235558e+02   1.638853e+01
  -1.391781e+02  -1.379576e+02
  -5.039791e+01  -2.535472e+02
   1.063459e+02  -1.433587e+02
   1.061235e+02  -3.259215e+01
   8.028784e+01   3.622444e+01
   3.381077e+01   3.015716e+01
   8.753678e+01  -3.069420e+00
   1.073742e+02  -8.398545e+00
   6.849630e+01   7.678400e+01
  -2.320137e+01   1.016985e+02
  -7.281082e+01   1.246175e+01
  -8.125143e+01  -4.606760e+01
  -8.728203e+00  -1.380445e+02
   1.575963e+02  -8.604349e+01
   2.042342e+02   6.682992e+01
   7.118120e+01   1.872347e+02
  -1.368602e+02   2.081830e+02
  -2.618936e+02   7.647385e+01
  -2.289359e+02  -1.249274e+02
  -1.114250e+02  -1.684204e+02
   4.012958e+01  -1.279014e+02
   1.009433e+02  -8.841013e+01
   8.078493e+01  -9.329892e+01
   5.314972e+01  -8.078287e+01
   1.375003e+02  -5.219443e+01
   1.077910e+02   3.054238e+01
   1.193525e+02   1.062061e+02
   6.612016e+01   1.794520e+02
  -1.067915e+02   1.768472e+02
  -1.722218e+02  -1.753310e+01
  -9.841125e+01  -1.232847e+02
  -2.626778e+01  -1.525024e+02
   7.314295e+01  -7.316398e+01
   4.483131e+01  -5.368926e+00
   4.542567e+00   6.000912e+01
  -2.045394e+01   2.303863e+01
   1.185310e+01  -1.211817e+01
   7.052858e+01  -7.839542e+00
   2.965821e+01   5.161881e+01
  -6.736710e+01   4.429213e+01
  -1.607917e+02   1.092625e+01
  -9.707230e+01  -7.080938e+01
   3.194727e+01  -1.199610e+02
   1.169546e+02  -7.623539e+01
   1.650431e+02   2.533911e+01
   8.414470e+01   4.563949e+01
  -7.014261e+01   5.258750e+01
  -4.326205e+01  -6.114922e+01
   1.745008e+00  -1.045371e+02
   4.060415e+01  -4.887290e+01
   7.284550e+01   1.076623e+01
   3.943865e+01   2.471387e+01
   5.599839e+00   7.634661e+01
   3.748652e+01   3.826131e+01
   7.862120e+01   4.731922e+00
   9.763817e+00   5.145771e+01
  -3.315526e+01   1.483665e+02
  -1.233870e+02   1.178668e+02
  -1.554536e+02   2.855112e+01
  -1.111396e+02  -1.195173e+02
   2.348928e+01  -1.172200e+02
   9.347721e+01  -2.601446e+01
   5.055280e+01  -5.978979e+00
  -6.303935e+01  -7.789968e+00
  -1.152171e+02  -7.962982e+00
  -4.843005e+01  -7.928502e+01
   9.295250e+01  -8.648864e+01
   1.780315e+02  -2.720707e+01
   1.297075e+02   1.843960e+01
   6.004628e+01   5.203205e+01
  -8.986181e+01   4.222130e+01
  -5.812611e+01  -2.282776e+01
   4.803493e+01  -3.815801e+01
   9.246293e+01   4.623851e+01
   9.089956e+00   9.366250e+01
  -8.800125e+01   1.517061e+02
  -1.703468e+02   3.494281e+01
  -1.315019e+02  -1.343751e+02
  -3.940118e+00  -2.118340e+02
   5.900725e+01  -1.271645e+02
   9.004771e+01   1.013591e+01
   1.446581e+01   1.006489e+02
   4.305814e-01   7.304074e+01
  -3.370390e+01  -3.996184e+01
  -3.290266e+01  -7.170406e+01
  -3.477395e+01  -1.272940e+01
   1.618833e+01   3.476137e+01
  -4.154427e+00  -1.173622e+01
  -2.576639e+01  -1.001996e+02
  -5.889082e+01  -1.137367e+02
   5.028730e+01  -4.000170e+01
   1.404900e+02   3.855163e+01
   9.871116e+01   8.223728e+01
  -1.989068e-01   3.483172e+01
  -8.685233e+01   1.030678e+01
  -1.076838e+02  -8.816808e+00
  -5.480219e+00  -2.602809e+01
   4.721538e+01  -8.604330e+01
   8.450689e+00  -1.351409e+01
   2.413813e+00  -1.382784e+01
   3.334393e+01   5.115493e+01
   8.312829e+01   2.670023e+01
   9.370456e+01   1.844525e+01
   3.291806e+01   6.070106e+01
  -1.100801e+02   1.453808e+02
  -1.661386e+02   4.294374e+01
  -1.373323e+02  -2.751390e+01
  -6.322515e+01  -1.477765e+02
   7.031704e+01  -1.367443e+02
   9.478453e+01  -4.694540e+01
   9.999095e+01  -3.964825e+01
   1.966589e+01   5.198132e+01
   2.024625e+00   1.804338e+01
   5.084364e+01   3.659377e+01
   4.114968e+01   5.653824e+01
   3.327092e+01   9.387176e+01
  -4.671763e+01   1.231000e+02
  -1.196854e+02  -2.728365e+01
  -8.117208e+01  -7.351820e+01
  -2.381174e+00  -1.065496e+02
   6.210373e+01  -3.789935e+01
   1.171233e+02   5.543207e+01
   8.177154e+00   7.859179e+01
  -7.646232e+01   8.694562e+01
  -7.720058e+01   3.018528e+01
  -4.907934e+01  -4.735820e+01
   1.751877e+01  -7.782554e+01
   8.604112e+00  -2.293312e+01
  -6.013901e+01  -5.188318e+00
  -4.998602e+01   1.792268e+01
   5.116039e+00  -1.523878e+01
   8.378469e+01  -8.430948e+01
   7.151317e+01  -4.207472e+01
   5.484647e+01   3.121688e+01
   8.441990e+00   5.906157e+01
  -6.601298e+01   8.633532e+01
  -1.268406e+01  -1.291858e+01
  -5.129425e+00  -8.538911e+01
   7.864544e+00  -2.174881e+01
   3.561531e+01   1.879651e+01
   2.846259e+01   5.983981e+01
  -3.620592e+00   6.160252e+01
  -4.257370e+01   1.747184e+01
  -1.148074e+01  -2.633565e+01
   1.142023e+01   2.267700e+01
  -2.823958e+01  -2.999456e+01
  -4.665128e+01   3.429522e+01
   1.337315e+01  -5.175980e+01
   1.270362e+01  -3.327624e+01
   8.580222e+01   8.067461e+00
   3.735219e+01   2.869414e+01
   1.498218e+01   9.087946e+01
  -3.744380e+01   2.685055e+01
  -7.454501e+01  -3.569750e+01
  -3.273908e+01  -8.264896e+01
   3.226447e+01  -5.141401e+01
   8.538960e+01   6.544716e+00
   3.545012e+01   3.950653e+01
  -3.434296e+01   2.826260e+01
  -3.915613e+01   2.354825e+01
  -2.326188e+01   2.086421e+01
   3.138607e+01  -2.331146e+01
   7.333683e+01   1.462628e+00
  -4.195216e+01   1.573612e+01
  -9.350596e+01   4.357426e-01
