
 $NMID
 id='ANONYMOUS ', fmtdat='(2E16.6)'
 volume=1.0
 tramp=1.0
 $END
   4.278859e+03  -5.930188e+01
   2.440656e+03   2.560687e+03
  -8.059469e+02   2.872821e+03
  -2.034514e+03   8.352570e+02
  -7.656388e+02  -8.910089e+02
   8.061751e+02  -7.558005e+02
   8.566348e+02   4.704594e+02
  -8.924362e+00   1.123669e+03
  -8.635075e+02   8.430136e+02
  -9.825406e+02  -1.558232e+02
  -4.969451e+02  -8.880304e+02
   2.782878e+02  -9.105021e+02
   7.380663e+02   3.494062e+00
   2.531845e+02   6.830656e+02
  -3.529403e+02   7.997669e+02
  -5.885595e+02  -2.734469e+01
  -2.353233e+02  -6.688640e+02
   3.909355e+02  -6.410652e+02
   5.544855e+02  -1.840813e+01
   3.601606e+02   4.002060e+02
   2.008999e+01   4.789839e+02
  -2.552646e+02   2.884579e+02
  -2.847610e+02  -6.061537e+01
   1.173222e+02  -1.000013e+02
   4.622016e+02   7.596978e+01
   2.662592e+02   4.504773e+02
  -5.020000e+02   3.658129e+02
  -9.772507e+02  -8.847360e+01
  -4.221493e+02  -5.730051e+02
   4.378801e+02  -5.068342e+02
   8.087181e+02   3.288442e+01
   4.309014e+02   4.865436e+02
  -2.702539e+02   5.694186e+02
  -5.779746e+02   2.242296e+02
  -4.597462e+02  -2.071572e+02
  -5.278849e+01  -5.034627e+02
   2.705872e+02  -2.540413e+02
   2.035954e+02   1.744915e+02
  -2.231887e+02   5.383588e+02
  -5.468294e+02  -1.385648e+01
  -2.204586e+02  -7.166702e+02
   3.065680e+02  -7.254105e+02
   6.436877e+02  -1.167960e+01
   3.258924e+02   5.258387e+02
  -3.234662e+02   3.766219e+02
  -4.082111e+02  -4.021229e+02
   2.191302e+01  -5.873088e+02
   5.394624e+02  -1.653029e+02
   5.944951e+02   3.908471e+02
   1.427286e+02   6.347611e+02
  -3.609742e+02   3.235484e+02
  -6.505163e+02  -8.053941e+01
  -3.564627e+02  -4.259173e+02
   1.134789e+02  -3.645496e+02
   4.358132e+02   3.669860e+01
   2.450215e+02   2.133862e+02
  -1.866898e+02   9.393815e+01
  -1.900910e+02  -1.867801e+02
   1.544272e+02  -2.014133e+02
   3.609658e+02   4.979163e+01
   1.409690e+02   2.999725e+02
  -2.227235e+02   2.712121e+02
  -3.525924e+02   4.677017e+01
  -1.723975e+02  -6.839370e+01
  -1.477670e+01  -1.950564e+02
   1.975864e+02  -2.990956e+02
   3.116650e+02  -2.039307e+02
   2.258255e+02   1.263044e+02
   1.249952e+02   4.442697e+02
  -1.024500e+02   4.276069e+02
  -1.215938e+02   1.145000e+02
  -2.328464e+01  -3.091667e+01
  -8.850034e+01   8.618379e+01
  -1.892441e+02   1.849061e+02
  -2.805076e+02  -3.647086e+01
  -1.747735e+02  -2.539245e+02
   1.947876e+01  -2.676490e+02
   2.286565e+02  -5.246976e+01
   2.399499e+02   2.446471e+02
  -2.727910e-01   3.352383e+02
  -2.877808e+02   1.201045e+02
  -4.113909e+02  -1.150960e+02
  -1.448826e+02  -3.666525e+02
   1.021460e+02  -3.159293e+02
   3.130863e+02  -9.226009e+01
   1.461850e+02  -3.485438e+01
   7.973884e+01   1.547800e+01
   2.341599e+02  -8.208651e+01
   4.075906e+02   4.507696e+01
   3.697016e+02   2.788005e+02
   1.860023e+01   4.356211e+02
  -3.390751e+02   3.645558e+02
  -4.901332e+02   1.867661e+02
  -3.196064e+02  -9.025939e+01
  -6.550868e+01  -2.515433e+02
   1.250785e+02  -3.170956e+02
   9.500621e+01  -1.580330e+01
  -9.643713e+01   1.283479e+02
  -1.624607e+02   2.246225e+01
  -7.395558e+01  -1.853105e+02
   1.931170e+02  -1.770299e+02
   1.913896e+02   4.525886e+01
   5.854063e+00   2.446999e+02
  -2.196612e+02   1.013333e+02
  -1.721480e+02  -2.310961e+02
   1.054271e+01  -4.077029e+02
   2.367442e+02  -2.077242e+02
   3.076004e+02   3.615737e+01
   2.850982e+02   2.269691e+02
   1.027166e+02   2.560617e+02
  -8.638485e+01   1.934400e+02
  -1.846600e+02   3.649897e+01
  -5.789411e+01  -2.984454e+01
   2.647114e+01   2.166419e+01
   4.580746e+01   1.409348e+02
  -1.032224e+02   9.841942e+01
  -1.856678e+02   5.287598e+00
  -4.791130e+01  -7.916742e+01
   8.060366e+01  -1.558489e+01
   5.654891e+01   4.651606e+01
  -9.950272e+01   8.789957e+01
  -3.073313e+02   1.931087e+01
  -2.513455e+02  -1.075007e+02
  -1.018824e+02  -2.514514e+02
   2.093311e+02  -2.876995e+02
   2.577330e+02  -9.288512e+01
   1.640166e+02   1.651447e+01
  -2.346317e+01   1.186946e+02
  -5.049748e+01   2.073654e+01
   5.271972e+01  -1.490385e+02
   1.848686e+02  -9.119728e+01
   2.215280e+02   1.117546e+02
   5.349939e+01   2.227896e+02
  -8.665843e+01   1.478555e+02
  -1.560513e+02   7.275175e+01
  -5.167333e+01  -2.148788e+01
   7.095949e+00  -3.286692e+01
   4.705182e+01   3.261221e+01
  -8.851043e+01   1.084861e+02
  -2.198590e+02   8.452336e+01
  -1.710301e+02  -1.420600e+02
   4.020783e+00  -2.123297e+02
   8.347954e+01  -1.497577e+02
   1.916708e+02  -4.585603e+01
   5.182702e+01   9.739685e+01
  -4.180527e+01   1.259802e+02
  -8.767930e+01   1.083901e+01
  -2.990288e+01  -4.538844e+01
   6.519698e+00  -1.935887e+01
  -2.106171e+01   4.024468e+01
  -5.501692e+01  -3.268975e+01
  -6.516246e+01  -9.228964e+01
  -4.944807e+01  -1.420588e+02
   1.144657e+02  -1.470107e+02
   2.519228e+02   3.382116e+00
   1.930098e+02   1.319860e+02
   7.661976e+01   2.316271e+02
  -1.761676e+02   1.543532e+02
  -1.335469e+02   1.779797e+01
  -5.141317e+01  -5.797642e+01
  -4.373005e+01  -4.656710e+01
  -6.573836e+01   2.693104e+01
  -6.564272e+01   3.062843e+01
  -1.408518e+01  -5.342527e+01
   2.089323e+01  -1.349399e+02
   1.374014e+02  -5.681183e+01
   4.277167e+01   1.627917e+01
   1.015223e+01   9.271565e+01
  -1.363920e+02   5.807666e+01
  -1.855524e+02  -4.021459e+01
  -1.108055e+02  -1.684517e+02
   1.223943e+02  -2.501067e+02
   2.452082e+02  -1.193827e+02
   2.854222e+02   2.935915e+01
   9.347768e+01   1.931774e+02
  -4.320363e+01   1.472511e+02
  -8.258355e+01   9.758164e+01
  -6.775361e+01   7.800971e+01
  -4.238114e+01   1.043285e+02
  -5.168084e+01   6.908344e+01
  -1.010985e+02   2.675456e+01
  -8.689449e+01  -1.666357e+02
  -2.345830e+01  -2.350743e+02
   1.206171e+02  -2.077439e+02
   1.951903e+02  -3.301710e+01
   1.181882e+02   1.391743e+02
   1.780191e+01   1.938451e+02
  -7.860019e+01   5.589652e+01
  -7.658420e+01   1.516147e+00
  -8.317177e+00  -1.210783e+01
   5.039537e+00  -4.853643e+01
  -8.146804e+01  -3.359086e+01
  -6.382610e+01  -7.681000e+00
  -4.655069e+01  -4.848431e+01
   3.022949e+01  -5.487291e+01
   1.376920e+02   2.352498e+01
   1.637591e+02   6.996374e+01
   4.600448e+01   9.258288e+01
  -1.028771e+02   7.256434e+01
  -1.396214e+02  -2.788988e+01
  -9.021053e+01  -1.569209e+01
   7.285369e+01  -5.370343e+01
   7.228548e+01   3.852933e+00
   2.690086e-01   1.013789e+02
  -4.675853e+01   8.136763e+01
  -7.038176e+01   2.675866e+01
  -7.538944e+01  -4.133267e+01
  -5.235838e+01  -3.689021e+01
  -5.607231e+01  -1.392962e+01
  -5.951953e+01   9.218632e-01
  -7.008472e+01  -5.915722e+01
   3.895987e+01  -1.573362e+02
   8.760165e+01  -1.620727e+02
   1.456980e+02  -4.493273e+01
   1.147108e+02   9.874028e+01
   2.339900e+01   5.505918e+01
  -8.201569e+01   6.212421e+00
  -3.167128e+01  -1.671748e+01
   4.665552e+01   1.781090e+01
   1.524953e+02   4.546809e+01
   6.822917e+01   1.072668e+02
  -9.205440e+01   5.435520e+01
  -2.278276e+02   7.013788e+01
  -1.345083e+02  -6.279089e+01
  -5.435103e+01  -7.842396e+01
   7.274398e+01  -7.025059e+01
   3.163167e+01  -2.733468e+01
  -7.038586e+00   5.662308e+01
  -5.353934e+01  -1.871504e+01
  -1.954788e+01  -1.369918e+02
   6.272102e+01  -1.263479e+02
   1.383143e+02  -8.791650e+01
   1.277693e+02   1.259478e+02
   5.346071e+00   2.033189e+02
  -5.536825e+01   1.480794e+02
  -1.320895e+02   1.757764e+01
  -4.070322e+01  -1.334025e+02
  -1.082511e+01  -1.082694e+02
   1.384063e+01  -2.942089e+01
   5.814190e+01   4.243458e+01
   4.442723e+01   2.616861e+01
  -1.327477e+01  -3.444335e+01
   4.682046e+01   1.188406e+01
   1.162442e+02   1.052069e+02
   3.304811e+01   8.759328e+01
  -3.493839e+01   4.549762e+01
  -1.442535e+02  -5.933989e+01
  -1.254692e+02  -6.666291e+01
  -1.009788e+01  -8.092380e+01
   1.051419e+02  -5.754437e+00
   8.930060e+01  -3.428086e+01
  -1.520506e+00   1.835017e+01
  -2.410640e+01   2.761596e+01
  -2.689759e+01   4.607234e+01
   4.784610e+00  -9.562000e+00
   2.647025e+00  -4.209194e+01
  -7.700075e+01  -1.522320e+01
  -7.388382e+01  -3.756602e+01
   8.434376e+00  -8.248209e+01
   9.461294e+01  -1.547083e+02
   1.911147e+02  -7.187452e+01
   1.181049e+02   6.649576e+01
   1.519676e+01   1.676825e+02
  -4.340857e+01   1.235518e+02
  -7.267883e+01   2.766024e+01
  -8.556194e+01  -7.813067e+00
  -4.612471e+01  -3.755981e+01
  -2.776070e+01   2.425742e+01
   4.563529e+01  -2.054959e+01
  -1.858737e+01  -5.654792e+01
  -3.658412e+00  -8.131041e+01
   2.512125e+01  -8.917349e+01
   5.837375e+01   3.194975e+01
   8.508253e+01   7.003465e+01
  -3.515533e+01   7.063439e+01
  -7.754038e+01   5.520553e+01
  -5.435594e+01  -6.135470e+01
  -5.855632e+01  -1.135958e+02
   7.011023e+01  -4.273783e+01
   1.005907e+02  -2.703244e+00
  -1.112312e+01   3.060117e+01
  -7.194652e+00   5.348517e+01
  -1.988542e+01  -5.379948e-01
   5.173743e+01  -1.763815e+00
   5.310410e+01  -3.683323e+01
  -7.153699e+00  -2.875809e+01
  -1.093746e+02   5.216911e+01
  -1.045875e+02   5.170360e+01
  -7.892809e+01  -2.362919e+01
   2.766158e+01  -7.851149e+01
   5.196257e+01  -6.446811e+01
   2.404948e+01  -4.777967e+00
   4.363824e+00   6.827774e+01
  -1.737866e+01   5.125602e+01
  -2.654012e+01  -1.855624e+01
  -5.639997e+01  -2.141820e+01
  -3.603726e+01  -1.192326e+01
   9.846891e+00   4.120784e+01
   3.421703e+01   3.096488e+01
   3.471227e+01  -1.077484e+01
  -2.280479e+01   2.018741e+01
  -1.133389e+01   2.565960e+01
  -2.539848e+00   3.755939e+01
  -1.267302e+01   2.343464e+01
   1.289711e-01   2.280453e+01
  -1.732248e+01  -4.094799e+01
  -4.428413e+01  -4.605073e+01
   4.866438e+01  -5.771002e+01
   4.786533e+01   4.231141e+01
  -9.914923e+00   6.165721e+01
  -3.951429e+01   2.516679e+01
  -5.653968e+01  -6.442893e+01
  -4.879193e+01  -1.746019e+01
   4.306117e+01  -3.156731e+01
   1.028886e+02  -4.878060e+00
   2.807658e+00  -4.144902e+01
  -8.698003e+00   8.501183e+00
  -2.413193e+01  -5.001159e+01
   3.937244e+01  -7.167568e+01
   1.616913e+02  -3.482139e+01
