
 $NMID
 id='ANONYMOUS ', fmtdat='(2E16.6)'
 volume=1.0
 tramp=1.0
 $END
  -3.701266e+03  -4.191245e-01
  -2.382430e+03  -2.779337e+03
   6.529299e+02  -2.676602e+03
   1.902834e+03  -1.093378e+03
   8.085054e+02   4.366360e+02
  -4.615931e+02   4.334276e+02
  -6.748605e+02  -4.226981e+02
  -4.112171e+01  -9.790353e+02
   8.329660e+02  -6.637267e+02
   8.656171e+02  -5.062609e+01
   4.661419e+02   8.121388e+02
  -9.566044e+01   7.555279e+02
  -4.849660e+02   1.393302e+02
  -3.675699e+02  -7.208433e+02
   1.742415e+02  -6.770291e+02
   5.365645e+02  -2.042624e+01
   2.053745e+02   6.040378e+02
  -2.350276e+02   6.591055e+02
  -4.899663e+02   1.762727e+02
  -3.841001e+02  -2.935316e+02
  -6.917532e+01  -3.861800e+02
   2.396443e+02  -2.715671e+02
   1.470717e+02  -1.267606e+01
  -9.051627e+01  -1.586331e+00
  -3.932820e+02  -2.223007e+02
  -3.328207e+01  -3.781647e+02
   5.440833e+02  -3.011564e+02
   7.276885e+02   2.109837e+02
   3.065658e+02   5.003977e+02
  -4.293053e+02   3.622854e+02
  -6.590879e+02  -9.980099e+01
  -3.125382e+02  -3.780898e+02
   2.402884e+02  -3.796511e+02
   5.413303e+02  -1.277416e+02
   3.569789e+02   1.583752e+02
   1.141443e+02   4.086522e+02
  -1.411285e+02   1.876981e+02
  -8.229922e+01  -1.270241e+02
   1.265986e+02  -2.780569e+02
   2.659880e+02   8.145598e+01
   1.802492e+02   5.690875e+02
  -2.603793e+02   5.584611e+02
  -4.133943e+02   7.071463e+01
  -2.436832e+02  -4.790082e+02
   2.098817e+02  -2.988396e+02
   2.808705e+02   2.136094e+02
  -9.870866e+01   5.572842e+02
  -5.160344e+02   6.838850e+01
  -5.675148e+02  -4.136472e+02
  -1.377325e+02  -4.927235e+02
   3.432084e+02  -2.478431e+02
   6.458807e+02   9.728022e+01
   4.147190e+02   3.131905e+02
  -8.520543e+01   3.151492e+02
  -3.822137e+02   1.661919e+01
  -2.116618e+02  -1.324659e+02
   7.274493e+01  -8.538804e+01
   1.759419e+02   1.605793e+02
  -1.533716e+02   1.099412e+02
  -3.127944e+02  -6.687076e+01
  -1.016063e+02  -2.161620e+02
   1.958771e+02  -2.153616e+02
   3.733450e+02  -1.306737e+02
   2.262422e+02   5.377579e+01
  -3.299492e+01   2.933628e+02
  -2.545317e+02   3.374047e+02
  -3.412290e+02   2.036399e+02
  -2.879933e+02  -1.627953e+02
  -5.963451e+01  -4.279661e+02
   7.942056e+01  -3.461792e+02
   1.138234e+02  -1.153933e+02
   6.935072e+01  -4.307638e+01
   1.036871e+02  -1.049289e+02
   2.688715e+02  -9.176364e+01
   3.089180e+02   1.032972e+02
   1.451716e+02   2.606615e+02
  -2.989364e+01   1.965848e+02
  -2.090261e+02  -5.913871e+00
  -1.055186e+02  -2.340025e+02
   1.514074e+01  -2.754038e+02
   3.202485e+02  -7.636444e+01
   3.270986e+02   1.780644e+02
   1.858154e+02   3.582949e+02
  -7.485630e+01   2.731989e+02
  -2.290591e+02   1.396326e+02
  -1.871804e+02   4.502287e+01
  -1.435953e+02   1.100072e+01
  -2.173222e+02   6.834346e+01
  -3.768167e+02  -7.138550e+01
  -3.450681e+02  -2.791184e+02
   3.261918e+01  -4.232592e+02
   4.240714e+02  -4.086318e+02
   4.835983e+02  -2.086133e+02
   3.231951e+02   1.031010e+02
   3.382018e+01   2.594179e+02
  -1.137241e+02   2.135253e+02
  -3.890671e+01   1.710378e+01
   6.703489e+01  -6.563421e+01
   1.807840e+02  -9.005765e+00
   5.015691e+01   1.686156e+02
  -1.629647e+02   1.441155e+02
  -1.480947e+02  -8.788842e+01
   4.116310e+01  -1.957576e+02
   1.570092e+02   3.138023e+00
   1.502538e+02   2.162040e+02
  -2.969607e+01   3.468751e+02
  -2.365154e+02   1.890714e+02
  -3.408643e+02  -8.197025e+01
  -2.632980e+02  -2.502888e+02
  -6.304649e+01  -2.825293e+02
   1.145437e+02  -1.526963e+02
   1.752437e+02  -3.331428e+00
   4.925246e+00   1.514297e+01
  -7.592718e+01  -5.542387e+01
  -2.606682e+01  -1.060233e+02
   1.559172e+02  -6.346857e+01
   1.712046e+02  -2.867813e+00
   2.955882e+01   5.823303e+01
  -8.287801e+01  -1.892688e+00
  -7.714050e+01  -1.005551e+02
   1.516758e+02  -6.755925e+01
   3.148864e+02   4.224194e+00
   2.570036e+02   1.512445e+02
   9.082597e+01   3.145772e+02
  -2.028491e+02   2.710234e+02
  -2.554786e+02   9.531982e+01
  -1.449999e+02  -2.341544e+01
   3.243295e+01  -1.062263e+02
   7.013496e+01  -1.535281e+01
  -2.692313e+01   1.291150e+02
  -1.847840e+02   5.517292e+01
  -1.928468e+02  -8.625016e+01
  -1.473814e+01  -1.950282e+02
   8.355801e+01  -1.528351e+02
   9.836599e+01  -2.480459e+01
   4.460818e+01   1.422439e+01
  -2.974441e+00  -3.417846e+01
  -3.511761e+01  -1.256127e+02
   7.609927e+01  -1.283502e+02
   2.333372e+02  -1.508998e+01
   1.959779e+02   1.083571e+02
  -1.979619e+01   1.773854e+02
  -2.207802e+02   1.340164e+02
  -1.681079e+02  -2.628214e+01
  -3.044777e+01  -1.361236e+02
   9.248134e+01  -1.200127e+02
   5.404160e+01  -1.994032e+00
  -2.141930e+00   3.207121e+01
  -5.881955e+01   2.070523e+01
   6.419885e+00   2.270328e+00
   8.392472e+01   6.285704e+00
   9.350883e+01   9.849171e+01
   3.213752e+01   1.778527e+02
  -1.681535e+02   2.054355e+02
  -2.559661e+02   7.603438e+00
  -2.109883e+02  -1.223249e+02
  -2.085481e+01  -2.770627e+02
   8.745726e+01  -1.871294e+02
   1.507904e+02  -1.222256e+01
   6.802801e+01   6.735175e+01
   2.365936e+01   5.852088e+01
   7.666851e+01  -2.458646e+01
   6.150210e+01  -2.682905e+01
   5.481314e+01   3.904983e+01
  -2.669409e+01   1.254067e+02
  -1.282511e+02   7.255352e+01
  -9.202766e+01  -6.404867e+01
   3.257851e+01  -1.267533e+02
   1.542213e+02  -5.766474e+01
   2.168647e+02   3.731698e+01
   6.628755e+01   1.828093e+02
  -8.512322e+01   2.456515e+02
  -2.656569e+02   1.185789e+02
  -2.778239e+02  -1.173900e+02
  -1.185757e+02  -1.975636e+02
   4.687936e+01  -1.166721e+02
   1.069008e+02  -8.412016e+01
   1.011471e+02  -9.882886e+01
   5.887120e+01  -8.847160e+01
   1.173831e+02  -1.034108e+02
   1.315653e+02   3.344235e+00
   1.439057e+02   1.728360e+02
   5.315503e+01   2.401432e+02
  -7.842471e+01   1.446079e+02
  -2.231280e+02   1.969294e+01
  -1.372411e+02  -1.322205e+02
   2.961446e+01  -1.622240e+02
   5.751625e+01  -1.603154e+02
   7.222366e+01  -1.027923e+01
  -8.509118e+00   4.320858e+01
  -5.761177e-01   4.775110e+01
   1.320334e+01   2.729959e+01
   7.178512e+01   3.566274e+00
   6.080973e+01   4.607364e+01
  -8.056725e+01   3.427816e+01
  -1.965934e+02  -1.834491e+00
  -1.044066e+02  -3.809283e+01
   1.306013e+01  -1.014145e+02
   1.123657e+02  -9.540864e+01
   1.615594e+02  -2.505250e+00
   7.038087e+01   6.822528e+01
  -2.618847e+01   2.015188e+01
  -5.647459e+01   1.188201e+01
  -2.955434e+01  -6.637956e+01
   3.882307e+01  -7.827975e+01
   7.123852e+01  -2.876389e+00
   4.024451e+01   4.078107e+01
   1.884095e+01   5.229907e+01
   8.028487e+01   3.025991e+01
   3.446465e+01   4.096971e+01
   4.976094e+01   7.171189e+01
  -1.612784e+01   1.475461e+02
  -1.223958e+02   1.470025e+02
  -1.717483e+02   4.478132e+01
  -1.119729e+02  -1.020860e+02
   1.789365e+01  -1.311297e+02
   7.128672e+01  -5.348064e+01
   6.160559e+01   3.301281e+01
  -4.686815e+01   3.527927e+01
  -1.261120e+02  -2.538736e+01
  -5.175088e+01  -1.156338e+02
   1.029616e+02  -1.270580e+02
   1.911691e+02  -2.361213e+01
   1.874696e+02   2.725898e+01
   2.227083e+01   9.756313e+01
  -6.078650e+01   1.022588e+02
  -7.829964e+01   3.667204e+01
   2.723079e+01  -1.361600e+01
   8.661831e+01   1.871728e+01
   4.733675e+01   8.310200e+01
  -6.049717e+01   1.814721e+02
  -1.983371e+02   7.049208e+01
  -1.410550e+02  -7.792785e+01
  -4.593774e+01  -2.211820e+02
   1.174896e+02  -1.775222e+02
   6.415545e+01   2.969500e+01
   3.150271e+01   8.867487e+01
   1.300178e+01   9.241062e+01
  -5.815809e+01   2.587916e+01
  -1.078619e+02  -7.275161e+01
  -2.126384e+01  -1.095919e+00
   1.500413e+01   1.507428e+01
  -1.210903e+01  -1.168280e+01
  -3.517058e+01  -1.105579e+02
  -3.518850e+01  -1.272997e+02
   4.151647e+01  -5.846477e+01
   1.145772e+02   5.353676e+01
   1.200193e+02   4.261285e+01
   1.621684e+01   1.975575e+01
  -9.543228e+01  -4.228646e+00
  -5.604719e+01   3.047004e+01
  -2.137835e+01   4.148560e+00
   3.744442e+01  -2.882252e+01
   4.425228e+01  -9.507267e+00
  -5.902399e+00  -4.235329e+01
   3.014525e+01   8.440932e+00
   9.488006e+01  -7.202180e+00
   6.759733e+01   1.747386e+01
  -1.727508e+01   8.124192e+01
  -1.275752e+02   9.017827e+01
  -2.269297e+02   4.749218e+01
  -1.415098e+02  -9.045271e+01
  -1.428659e+01  -1.212414e+02
   7.213745e+01  -1.427220e+02
   1.130305e+02  -4.868529e+01
   8.484029e+01   2.754970e+01
   1.438843e+01   8.514299e+01
   2.269658e+00  -1.810982e+01
   3.415122e+01  -2.398751e+00
   5.355608e+01   4.262154e+01
   2.986262e+01   9.050414e+01
  -1.062026e+01   8.046967e+01
  -8.240106e+01  -3.607864e+01
  -6.883151e+01  -1.255353e+02
   1.080554e+01  -1.303924e+02
   9.055523e+01  -8.389972e+01
   1.149956e+02   7.390476e+01
   9.691030e+01   1.215526e+02
  -7.523054e+01   1.021001e+02
  -8.873876e+01   7.544673e+00
  -4.493440e+01  -3.611004e+01
   3.592522e+01  -8.232132e+01
   6.317438e+01  -4.067157e+01
  -1.287122e+01  -6.283344e+00
  -4.978889e+01  -5.696559e+00
  -1.483880e+01  -6.453148e+00
   1.107332e+02  -1.761238e+01
   1.509288e+02  -6.983907e+01
   8.021199e+01   1.536607e+01
   2.523791e+00   1.250598e+02
  -4.473775e+01   9.695358e+01
  -9.021840e+01   9.529609e+01
   1.567541e+01  -8.108348e+01
   1.119590e+01   2.349735e+00
   7.447042e+01  -9.096369e+00
   7.751545e+01   9.054140e+01
  -1.933452e+01  -3.350415e-01
  -4.368351e+01  -2.873795e+01
  -2.518813e+01  -5.528629e+01
  -3.232387e+00   1.680643e+00
   6.815770e+00   1.145578e+01
   2.300549e+01   6.316157e+00
   4.732856e+01  -4.556068e+01
   2.298289e+01  -1.802482e+01
   2.616539e+01  -3.623660e+01
   8.003733e+01   3.693504e+01
   5.318381e+00   2.457837e+01
  -1.474014e+01  -4.715459e+00
  -4.535698e+01  -1.909464e+01
  -5.264966e+01  -8.645109e+01
   3.326747e+01  -6.499592e+01
   9.860509e+01   2.987220e+01
   4.561664e+01   7.186572e+01
  -3.051734e+01   3.682738e+01
  -6.102585e+01  -2.404014e+01
  -3.373709e+01   3.701709e+01
   7.213579e+00  -8.479068e-01
   3.801447e+01  -1.307394e-01
  -6.481516e+01   5.294787e+01
  -1.298424e+02   5.142216e+01
