
 $NMID
 id='ANONYMOUS ', fmtdat='(2E16.6)'
 volume=1.0
 tramp=1.0
 $END
  -3.564575e+03   7.415709e+01
  -2.405854e+03  -2.141566e+03
   3.441969e+02  -2.483587e+03
   1.535397e+03  -1.175711e+03
   9.585976e+02   3.194377e+02
  -3.564341e+02   5.750738e+02
  -6.398507e+02  -1.634594e+02
  -1.848882e+02  -8.215394e+02
   4.640205e+02  -7.431118e+02
   7.350085e+02   2.244060e+01
   3.633185e+02   5.806705e+02
  -6.663617e+01   7.752223e+02
  -4.367865e+02   1.453415e+02
  -1.756056e+02  -6.029845e+02
   2.337434e+02  -5.933090e+02
   4.993698e+02  -4.768082e+00
   2.737140e+02   5.502117e+02
  -2.489629e+02   6.311492e+02
  -5.203389e+02   1.568929e+02
  -4.490385e+02  -2.549686e+02
  -1.177914e+02  -3.831329e+02
   1.664018e+02  -2.490336e+02
   8.451820e+01  -1.149074e+02
  -1.199366e+02  -2.777130e+01
  -3.195429e+02  -1.774095e+02
  -5.869471e+01  -2.942578e+02
   4.265826e+02  -2.381095e+02
   6.615755e+02   1.665904e+02
   3.211111e+02   4.232499e+02
  -3.546362e+02   2.881503e+02
  -5.541213e+02  -7.953270e+01
  -2.047324e+02  -3.996601e+02
   2.770881e+02  -4.749340e+02
   4.996510e+02  -2.077193e+02
   3.521225e+02   1.786861e+02
   1.099037e+02   2.905518e+02
  -1.653348e+02   2.401894e+02
   2.494853e+01  -1.372183e+02
   2.616401e+02  -2.648318e+02
   3.202048e+02   8.313200e+01
   1.621534e+02   5.471324e+02
  -2.876462e+02   5.861642e+02
  -4.285865e+02   2.651387e+01
  -1.889762e+02  -4.400626e+02
   2.274978e+02  -2.183645e+02
   1.605520e+02   3.061295e+02
  -8.921657e+01   4.407230e+02
  -5.029659e+02   7.340119e+01
  -5.492507e+02  -4.003186e+02
  -1.200908e+02  -5.467804e+02
   3.537750e+02  -2.972535e+02
   5.740148e+02   6.054828e+01
   3.960658e+02   3.057819e+02
  -9.697443e+01   2.985621e+02
  -3.530999e+02   6.174641e+01
  -2.186494e+02  -1.560378e+02
   4.266535e+01  -1.353345e+02
   9.378400e+01   1.408765e+02
  -1.370518e+02   1.428926e+02
  -2.791582e+02  -6.454823e+01
  -1.304038e+02  -2.028582e+02
   1.876006e+02  -2.536936e+02
   3.144513e+02  -7.845391e+01
   2.584197e+02   7.726927e+01
  -1.769205e+01   2.716283e+02
  -2.780320e+02   3.497021e+02
  -3.681779e+02   2.371437e+02
  -2.562548e+02  -1.391215e+02
  -1.044232e+02  -4.238344e+02
   9.346413e+01  -3.406840e+02
   4.612064e+01  -1.631420e+02
   1.041791e+01  -4.612600e+01
   5.327132e+01  -1.086227e+02
   1.799860e+02  -1.064225e+02
   2.681313e+02   9.824124e+01
   9.208110e+01   2.512636e+02
  -8.401311e+01   2.139487e+02
  -1.901481e+02  -1.603335e+01
  -1.504597e+02  -2.672359e+02
   6.226812e+00  -2.488266e+02
   2.831973e+02  -1.348838e+02
   3.125440e+02   2.052006e+02
   6.062721e+01   2.983072e+02
  -1.036086e+02   2.580496e+02
  -2.037922e+02   1.500751e+02
  -1.424941e+02   4.492252e+01
  -1.328630e+02   4.131733e+01
  -2.572747e+02  -1.963846e+01
  -3.869551e+02  -7.081481e+01
  -3.229115e+02  -2.752840e+02
   1.476457e+01  -4.435969e+02
   3.697857e+02  -4.079484e+02
   4.764387e+02  -2.180145e+02
   3.226084e+02   1.086540e+02
   5.270965e+01   2.654771e+02
  -1.097515e+02   2.055931e+02
  -4.882570e+01   6.124183e+01
   1.374755e+02  -4.090856e+01
   1.660367e+02   4.811978e+01
   1.615973e+01   1.840925e+02
  -1.446618e+02   1.195391e+02
  -1.356710e+02  -7.168365e+01
   3.282350e+01  -1.402627e+02
   1.715205e+02  -3.482787e+01
   1.507568e+02   2.153819e+02
  -9.742505e-01   3.256780e+02
  -2.263708e+02   2.174267e+02
  -3.308411e+02  -7.092803e+01
  -2.884397e+02  -2.497984e+02
  -7.072315e+01  -2.978250e+02
   1.042757e+02  -1.105181e+02
   1.613933e+02   2.338793e+01
   5.646606e+00   2.147696e+01
  -3.134137e+01  -9.752832e+00
   6.310836e+00  -1.109937e+02
   9.311071e+01  -8.461581e+01
   1.533174e+02   3.560739e+01
   6.952282e+01   8.349076e+01
  -7.469573e+01  -9.988922e+00
  -3.596248e+01  -6.733519e+01
   1.535716e+02  -1.049435e+02
   2.756181e+02   1.275879e+01
   2.707909e+02   1.573565e+02
   2.894679e+01   2.421174e+02
  -1.761981e+02   2.281098e+02
  -2.839760e+02   1.279263e+02
  -1.371337e+02  -2.154887e+01
   1.666757e+01  -8.164983e+01
   7.813054e+01   4.417357e+00
  -3.174243e+01   9.965594e+01
  -2.173475e+02   2.193591e-01
  -2.392447e+02  -8.552163e+01
  -7.107478e+01  -2.295189e+02
   6.336995e+01  -1.553677e+02
   1.002096e+02  -4.154126e+01
   4.839963e+01  -1.680845e+00
  -4.386917e+01  -1.652478e+01
  -1.906948e+01  -7.889626e+01
   8.839664e+01  -1.334363e+02
   1.837566e+02  -3.927738e+01
   1.917198e+02   1.549678e+02
   4.096595e+01   1.977638e+02
  -1.572320e+02   1.371422e+02
  -1.838950e+02   5.412611e+00
  -4.247249e+01  -9.335545e+01
   5.584777e+01  -1.178344e+02
   6.672161e+01  -2.523343e+01
  -2.097893e+01   6.204382e+01
  -3.186193e+01  -1.976889e+01
   4.620050e+00  -3.888944e+01
   7.655547e+01  -1.207418e+01
   1.325983e+02   6.972692e+01
   7.081218e+00   1.688908e+02
  -9.090718e+01   1.610543e+02
  -2.365007e+02   2.366029e+01
  -1.991749e+02  -2.111487e+02
  -3.719569e+01  -2.301780e+02
   8.449288e+01  -1.657155e+02
   1.474048e+02  -7.826286e+00
   5.027217e+01   9.190176e+01
   9.878586e+00   5.261628e+01
   8.144498e+01  -6.280104e+01
   5.891863e+01   1.303845e+01
   2.431222e+01   7.994410e+01
  -3.237665e+01   1.168121e+02
  -1.504702e+02   5.566886e+01
  -8.262531e+01  -4.022364e+01
  -8.380011e+00  -1.434272e+02
   1.891021e+02  -8.529797e+01
   2.349257e+02   1.896441e+01
   8.634649e+01   1.818851e+02
  -9.922434e+01   2.449514e+02
  -2.727120e+02   7.277688e+01
  -2.497531e+02  -1.369278e+02
  -9.181534e+01  -1.632756e+02
   2.695519e+01  -1.378392e+02
   7.329579e+01  -8.379931e+01
   7.756924e+01  -1.004721e+02
   5.129329e+01  -9.451411e+01
   1.011960e+02  -8.661730e+01
   1.772146e+02   1.624444e+01
   1.220657e+02   1.537277e+02
   6.857840e+01   2.488897e+02
  -6.781345e+01   1.308980e+02
  -1.835764e+02   9.507655e+00
  -1.289165e+02  -1.465406e+02
  -1.050922e+01  -1.312149e+02
   5.408045e+01  -7.770536e+01
   5.863334e+00  -4.300053e+00
   2.369572e+01   5.272574e+01
  -1.256373e+00   3.059138e+01
   1.621932e-01   2.554988e+01
   8.033434e+01   2.346416e+01
   3.861308e+01   1.070905e+01
  -8.704846e+01   6.540668e+01
  -1.880833e+02   8.280786e+00
  -1.112185e+02  -7.337537e+01
  -1.525394e+00  -8.662634e+01
   1.221442e+02  -7.746080e+01
   1.530882e+02  -3.380062e+01
   4.084055e+01   7.331990e+01
  -9.122771e+01   4.841829e+01
  -5.767199e+01  -1.312387e+01
  -5.385257e-01  -7.113447e+01
   9.596004e+01  -6.899461e+00
   5.384402e+01   8.277991e+00
   2.976746e+01   7.387789e+01
   3.177683e+01   1.419145e+01
   4.860293e+01  -1.248844e+01
   6.795815e+01  -1.032251e+00
   2.938813e+01   7.390855e+01
  -5.074622e+00   1.787796e+02
  -1.102946e+02   1.140997e+02
  -1.547376e+02   1.377092e+01
  -1.448010e+02  -1.265350e+02
  -2.437625e+01  -1.293847e+02
   9.080495e+01  -7.163625e+01
   3.927813e+01   2.260893e+00
  -3.266892e+01   4.520637e+00
  -1.392992e+02  -1.998761e+01
  -5.922803e+01  -9.259490e+01
   6.947041e+01  -1.283177e+02
   1.816711e+02  -4.501175e+01
   1.393153e+02   3.426881e+01
   2.922376e+01   7.315666e+01
  -4.522071e+01   5.454281e+01
  -5.762595e+01  -3.198536e+01
   6.910480e+01  -3.912746e+01
   1.225283e+02   1.984539e+01
   5.253825e+01   1.128168e+02
  -8.786640e+01   1.709344e+02
  -1.874601e+02   8.189909e+01
  -1.471121e+02  -4.875381e+01
  -2.391724e+01  -1.516087e+02
   7.649828e+01  -1.233589e+02
   1.131230e+02  -4.367581e+00
   4.354504e+01   1.055895e+02
   3.715816e+01   1.106975e+02
  -7.174394e+01   3.318650e+00
  -6.282629e+01  -3.492239e+01
  -2.585827e+01   9.305262e-01
   4.902292e+01   2.116803e+01
  -2.823294e+01  -1.069798e+01
  -6.252871e+01  -1.088615e+02
  -3.500870e+01  -7.704757e+01
   9.493602e+01  -5.226302e+01
   1.426149e+02   4.733114e+01
   1.042526e+02   6.778182e+01
   3.260660e+00   3.885884e+01
  -7.580484e+01   1.285939e+01
  -7.216813e+01  -2.295809e+01
  -1.980405e+01   1.397508e+01
  -6.945850e+00   1.395211e+00
   2.876828e+01   6.175022e+01
  -3.251851e+01   6.172465e+00
  -3.826180e+01   6.619798e-01
   9.051014e+01  -1.316001e+01
   8.718250e+01   2.111066e+01
   9.252097e+00   5.047127e+01
  -1.442877e+02   9.168198e+01
  -1.835601e+02   6.822258e+01
  -1.668210e+02  -7.228928e+01
  -1.343608e+01  -1.920509e+02
   7.008941e+01  -1.285461e+02
   8.265010e+01  -8.389442e+01
   4.610767e+01   1.642936e+01
   5.455261e+01   4.834684e+01
  -1.271464e+01   3.037515e+00
  -2.816045e+01  -4.424013e+00
   3.899900e+01   4.705585e+01
   9.491817e+00   8.529925e+01
  -4.333320e+01   5.270458e+01
  -9.871743e+01  -1.038502e+01
  -9.000424e+01  -8.076184e+01
  -2.298481e+01  -1.307733e+02
   8.028578e+01  -3.685446e+01
   9.015351e+01   5.976774e+01
   1.539011e+01   1.209719e+02
  -8.350203e+01   9.061843e+01
  -9.815140e+01  -4.126635e+01
  -2.562027e+01  -4.794012e+01
   3.040131e+01  -8.198396e+01
   3.910415e+01  -2.881938e+01
  -3.905971e+01   1.231939e+00
  -5.445362e+01  -6.924702e+00
  -2.423684e+01  -4.431549e+01
   5.583110e+01  -2.405552e+01
   1.206723e+02  -5.553561e+01
   6.997636e+01   1.074417e+01
  -1.116173e+00   6.409207e+01
  -7.996899e+01   9.945998e+01
  -4.635688e+01  -8.121018e+00
  -4.391806e+01  -3.822424e+01
  -3.941638e-01  -4.544478e+01
   5.012013e+01  -4.634053e+01
   7.115878e+01   9.592105e+01
  -6.259488e+00  -2.145883e+01
  -3.031307e+01   1.760291e+01
  -2.966225e+01  -3.658367e+01
  -6.221747e+00   2.436304e+01
  -1.628923e+01   1.259449e+01
   4.091660e+00  -1.413254e+01
  -1.841723e+01  -6.012705e+01
   6.574648e+01  -4.934701e+01
   5.648480e+01  -5.044240e+01
   4.719087e+01   5.192456e+01
   3.427081e+01   6.866446e+01
  -1.201824e+02   9.356887e+00
  -2.848422e+01  -7.319492e+01
  -3.315862e+01  -4.545676e+01
   9.413000e+01  -1.037432e+01
   7.760436e+01   3.930926e+00
   6.010220e+01   9.737136e+01
  -3.491481e+01   5.651179e+01
  -6.325196e+01   1.187953e+01
  -4.567216e+01   2.616726e+01
   9.393322e+00  -3.712273e+01
   2.579722e+01  -1.700057e+01
  -2.829027e+01   5.301180e+01
  -5.947665e+01   2.089756e+01
