
 $NMID
 id='ANONYMOUS ', fmtdat='(2E16.6)'
 volume=1.0
 tramp=1.0
 $END
  -4.038620e+03  -1.642283e+02
  -2.475936e+03  -2.384710e+03
   6.790052e+02  -2.689835e+03
   1.904021e+03  -1.033764e+03
   8.236607e+02   7.997774e+02
  -6.209950e+02   5.419694e+02
  -7.749438e+02  -5.370886e+02
   1.303699e+02  -1.011674e+03
   8.238261e+02  -8.202596e+02
   9.444061e+02   1.533074e+02
   3.244071e+02   8.363679e+02
  -2.036157e+02   9.648239e+02
  -6.088942e+02   2.314555e+01
  -3.558471e+02  -6.917527e+02
   3.905137e+02  -7.694607e+02
   5.601983e+02  -6.258598e+01
   2.405302e+02   6.732895e+02
  -2.369651e+02   6.466304e+02
  -5.691414e+02   7.478345e+01
  -3.715376e+02  -3.915019e+02
  -1.380679e+01  -4.190048e+02
   1.623106e+02  -2.787341e+02
   2.160153e+02   5.563533e+01
  -1.337085e+02   1.237734e+02
  -3.894401e+02  -2.027678e+02
  -2.021039e+02  -4.626274e+02
   4.402439e+02  -3.765396e+02
   8.401408e+02   2.168158e+01
   4.043549e+02   6.183363e+02
  -3.669354e+02   4.933678e+02
  -7.203935e+02   1.153924e+01
  -2.730948e+02  -5.028797e+02
   2.734918e+02  -5.747467e+02
   6.129696e+02  -2.016325e+02
   4.157979e+02   2.375846e+02
   1.904570e+01   4.911078e+02
  -2.056042e+02   3.278116e+02
  -1.238719e+02  -1.890180e+02
   2.166291e+02  -4.257029e+02
   4.747950e+02   7.354724e+01
   2.210730e+02   7.436442e+02
  -3.645779e+02   6.109542e+02
  -6.790793e+02  -1.330542e+01
  -3.242343e+02  -5.019413e+02
   2.661980e+02  -2.738883e+02
   3.716621e+02   3.124259e+02
  -1.095491e+02   5.676176e+02
  -4.907352e+02   1.558245e+02
  -5.468221e+02  -3.906518e+02
  -1.961202e+02  -6.288044e+02
   3.741003e+02  -2.858903e+02
   6.151440e+02   1.035461e+02
   3.291806e+02   4.556190e+02
  -1.267695e+02   2.883229e+02
  -3.933731e+02   1.701863e+01
  -2.519459e+02  -1.862670e+02
   8.198508e+01  -8.487613e+01
   1.702611e+02   1.321934e+02
  -1.991066e+02   2.139886e+02
  -3.373880e+02  -9.588714e+01
  -1.817860e+02  -2.893873e+02
   1.828556e+02  -2.691550e+02
   3.332327e+02  -3.834380e+01
   1.722088e+02   1.024324e+02
  -4.043965e+01   1.927257e+02
  -2.116672e+02   2.910901e+02
  -3.319348e+02   2.426706e+02
  -2.445896e+02  -1.000442e+02
  -6.465694e+01  -4.099961e+02
   1.546924e+02  -3.789613e+02
   1.505333e+02  -1.227922e+02
   5.407004e+01  -2.815170e+01
   2.621349e+01  -8.567872e+01
   1.819326e+02  -1.250108e+02
   3.227095e+02   6.893510e+01
   1.375537e+02   2.399110e+02
  -9.405041e+01   2.307980e+02
  -2.630363e+02   5.346588e+01
  -2.201952e+02  -2.396534e+02
   2.752443e+01  -2.988987e+02
   2.734728e+02  -1.162253e+02
   3.521677e+02   1.993703e+02
   1.957332e+02   3.108575e+02
  -1.172970e+02   3.314063e+02
  -2.548979e+02   7.627929e+01
  -1.107960e+02  -1.092495e+01
  -8.554673e+01   1.242373e+01
  -1.959932e+02   4.933063e+01
  -3.983594e+02  -3.675565e+01
  -3.469935e+02  -2.786838e+02
   1.909948e+01  -4.072703e+02
   3.578490e+02  -4.286469e+02
   4.920100e+02  -1.685413e+02
   3.382165e+02   7.116227e+01
   1.747383e+01   3.043481e+02
  -1.542976e+02   2.612813e+02
  -4.982507e+01   3.777373e+01
   1.366341e+02  -9.380154e+01
   1.679343e+02   3.825368e+01
   7.003612e+01   1.797183e+02
  -1.941768e+02   1.575122e+02
  -1.725524e+02  -7.267245e+01
   3.084253e+01  -2.154728e+02
   2.473492e+02  -1.223194e+01
   1.867831e+02   2.377237e+02
  -4.609046e+01   3.559814e+02
  -2.552868e+02   2.167781e+02
  -3.098735e+02  -1.003933e+02
  -2.646217e+02  -2.075951e+02
  -1.339726e+02  -2.336907e+02
   8.769628e+01  -1.834407e+02
   1.803854e+02  -1.044999e+01
   5.584194e+01   7.017274e+01
  -5.753775e+01  -5.459183e+01
  -2.172472e+01  -1.245084e+02
   1.479928e+02  -1.189909e+02
   1.768663e+02   2.644953e+01
   7.082556e+01   1.269205e+02
  -7.873341e+01   3.687095e+01
  -4.503548e+01  -3.939145e+01
   1.152151e+02  -7.855065e+01
   2.421028e+02   8.103674e+00
   2.486644e+02   1.477861e+02
   1.868382e+01   2.660881e+02
  -1.606722e+02   2.243900e+02
  -2.724431e+02   1.277393e+02
  -1.354599e+02  -6.622380e+01
   4.846775e+01  -1.204792e+02
   6.719492e+01  -4.497007e+00
  -3.267455e+01   9.382615e+01
  -2.467025e+02   7.110489e+01
  -2.260726e+02  -6.297410e+01
  -8.053511e+01  -1.938286e+02
   1.095888e+02  -1.814137e+02
   1.294864e+02  -4.959536e+01
   6.351893e+01   4.155851e+01
  -9.141284e+00  -1.134718e+01
  -3.181115e+01  -8.225531e+01
   7.503684e+01  -1.039403e+02
   1.884956e+02  -9.077737e+00
   2.135863e+02   1.307699e+02
  -5.710267e+00   2.480611e+02
  -1.217132e+02   1.750778e+02
  -2.102458e+02  -1.651605e+01
  -9.710711e+01  -1.571107e+02
   7.568777e+01  -6.997323e+01
   6.936823e+01  -4.643499e+00
   2.403031e+01   4.697008e+01
  -4.773429e+01   1.475251e+01
   1.492343e+01  -2.666042e+01
   5.183327e+01   1.553235e+01
   8.477642e+01   7.035271e+01
   2.981325e+01   1.545669e+02
  -1.287909e+02   1.379767e+02
  -2.416029e+02   1.632398e+01
  -1.978494e+02  -1.491955e+02
  -5.727690e+00  -2.326707e+02
   1.425774e+02  -1.489694e+02
   1.116001e+02  -3.687742e+01
   5.208017e+01   1.076888e+02
   5.850218e+00   5.731638e+01
   5.812447e+01  -3.478343e+01
   5.607881e+01  -9.175513e+00
  -1.297520e-01   4.589222e+01
  -3.549462e+01   8.239073e+01
  -1.028622e+02   1.085726e+02
  -8.467332e+01  -4.400039e+01
   1.684692e+01  -5.253304e+01
   1.579630e+02  -1.037043e+02
   1.615601e+02   2.508857e+01
   7.810184e+01   2.153898e+02
  -1.195718e+02   2.174638e+02
  -3.030490e+02   5.748515e+01
  -2.313028e+02  -3.976190e+01
  -8.715564e+01  -1.603622e+02
   5.329556e+01  -1.212350e+02
   1.192359e+02  -5.950872e+01
   6.212014e+01  -5.732836e+01
   7.269447e+01  -9.668681e+01
   9.970592e+01  -4.108423e+01
   1.155469e+02   4.483207e+01
   8.975656e+01   1.723085e+02
   4.201742e+01   2.156676e+02
  -9.989155e+01   1.833287e+02
  -1.583656e+02   5.400133e+01
  -1.234524e+02  -1.241501e+02
  -1.481199e+01  -1.295735e+02
   6.321060e+01  -9.270925e+01
   3.634366e+01  -4.818328e-02
   7.375590e+00   1.573169e+01
   2.572400e+01   1.702574e+01
   3.714486e+01   1.974738e+01
   8.507903e+01   1.090054e+01
   3.541020e+01   6.003943e+00
  -3.019740e+01   1.408942e+01
  -1.602077e+02  -2.278865e+01
  -1.536335e+02  -1.884600e+01
   2.002456e+01  -1.000086e+02
   1.252894e+02  -1.173859e+02
   1.422493e+02  -2.709756e+01
   5.906135e+01   4.758680e+01
  -2.756765e+01   6.914294e+01
  -8.447826e+01  -7.000007e+00
   6.333856e+00  -8.912454e+01
   4.756319e+01  -7.316530e+01
   5.346731e+01   2.099446e+01
   2.397740e+00   4.467649e+01
   3.118013e+01   7.768011e-02
   6.848765e+01  -1.325819e+01
   6.181480e+01   1.637440e+01
   6.132312e+01   9.468626e+01
  -5.228957e+01   1.459767e+02
  -1.143624e+02   1.057849e+02
  -1.531827e+02   2.407095e+01
  -1.689719e+02  -8.302793e+01
  -2.165880e+01  -1.295873e+02
   1.093978e+02  -5.066775e+01
   2.200453e+01   4.194993e+01
  -1.406429e+01  -6.330524e+00
  -1.168913e+02  -6.303207e+01
  -7.905467e+01  -9.704671e+01
   5.810236e+01  -1.567226e+02
   1.666898e+02  -4.790244e+01
   1.557532e+02   3.640689e+01
   3.634636e+01   7.196676e+01
  -9.894193e+01   4.914959e+01
  -4.251903e+01   2.745667e+00
   4.140339e+01  -8.092971e+01
   8.588485e+01   4.238454e+01
   1.980308e+01   1.323816e+02
  -4.906242e+01   1.346342e+02
  -1.498283e+02   8.391040e+01
  -1.205496e+02  -6.181402e+01
  -2.076187e+01  -2.203333e+02
   6.242820e+01  -1.546092e+02
   1.364911e+02   3.109107e+00
   4.575291e+01   5.898947e+01
   2.501455e+00   9.593686e+01
  -9.734616e+00   1.820919e+01
  -4.998777e+01  -9.834565e+00
  -1.756631e+01  -1.929736e+01
  -2.726943e+01   3.039985e+00
  -8.068185e+00   9.472274e+00
  -4.046291e+01  -7.410347e+01
  -7.285662e+01  -8.439877e+01
   4.086433e+01  -2.707575e+01
   1.227437e+02   6.373555e+00
   1.294943e+02   7.939717e+01
   7.309534e+00   4.195992e+01
  -9.622795e+01   1.239830e+01
  -6.992793e+01  -3.823393e+01
   8.424480e+00  -3.231362e+00
   3.104887e+01  -2.929757e+01
   2.653526e+01  -1.055171e+01
  -1.321110e+01  -1.027174e+01
  -1.067831e+01   3.378744e-01
   8.966541e+01   1.829932e+01
   6.664599e+01  -2.807631e+00
  -4.029661e+01   7.440256e+01
  -1.323158e+02   1.121154e+02
  -1.710950e+02   9.165618e+01
  -1.223447e+02  -4.255444e+01
  -2.101539e+00  -1.420849e+02
   7.657049e+01  -1.433312e+02
   1.247612e+02  -4.245125e+01
   7.465286e+01   1.109845e+01
   9.135098e+00   2.893547e+01
   1.298150e+01   6.825970e+00
  -1.029562e+01  -1.817986e+01
   4.284300e+01   7.231134e+01
   4.093423e+01   1.215300e+02
  -4.566086e+01   8.654418e+01
  -7.544774e+01  -2.603450e+01
  -8.606799e+01  -8.616230e+01
  -5.091088e+00  -1.326459e+02
   6.698980e+01  -2.846988e+01
   9.729079e+01   6.410317e+01
   1.862040e+01   8.129649e+01
  -9.534341e+01   3.985250e+01
  -1.091617e+02  -3.708172e+01
  -2.249228e+01  -4.653066e+01
   3.522888e+01  -6.792306e+01
   5.560679e+01  -1.918287e+01
  -6.853668e+01   1.097583e+01
  -3.478172e+01   2.742818e+01
  -3.510238e+01  -2.905589e+01
   6.547083e+01  -7.597503e+01
   9.072335e+01  -6.763004e+01
   8.339879e+01   3.715176e+01
   1.990163e+01   5.333742e+01
  -4.297154e+01   6.090426e+01
  -3.609890e+01   9.930065e+00
  -4.117928e+00  -5.925326e+01
   3.121426e+01  -7.403214e+01
   2.029936e+01  -1.008400e+01
   6.008144e+00   1.578041e+01
  -3.396664e+01   5.424397e+01
  -3.121708e+01  -1.732572e+01
  -2.786816e+01  -5.852569e+01
  -1.417593e+01   4.060373e+00
  -2.320845e+01   2.452554e+01
   5.254457e+01  -1.715417e+01
   1.921782e+01  -6.850581e+01
   2.313412e+01  -2.204657e+01
   4.313479e+01   9.011959e+00
   4.054032e+01   5.939149e+01
  -8.780746e+00   6.895905e+01
  -3.392241e+01   6.338335e+01
  -8.254766e+01  -3.673823e+01
   1.685794e+01  -3.007170e+01
   4.457787e+01  -3.675157e+01
   6.821231e+01   1.159623e+01
   1.333913e+02   4.468321e+01
  -3.331980e+01   4.066924e+01
  -7.469283e+01   2.686557e+01
  -2.257072e+01   5.674816e+00
   1.100112e+01   4.738419e+00
   6.466917e+01   2.319730e+01
  -6.614085e+01   1.302035e+01
  -1.112973e+02   4.478737e+00
