
 $NMID
 id='ANONYMOUS ', fmtdat='(2E16.6)'
 volume=1.0
 tramp=1.0
 $END
  -3.845137e+03   1.422992e+02
  -2.105652e+03  -1.710736e+03
   2.454515e+02  -2.064622e+03
   1.281605e+03  -9.963932e+02
   8.869159e+02  -1.953391e+02
  -1.859925e+02   2.291107e+02
  -4.086600e+02  -1.543164e+02
  -2.596986e+01  -8.450125e+02
   5.496156e+02  -5.892408e+02
   7.736101e+02  -1.808272e+01
   4.595104e+02   6.440310e+02
  -1.940949e+02   6.518908e+02
  -3.094185e+02   1.888068e+02
  -3.483157e+02  -5.494183e+02
   1.851627e+02  -6.344948e+02
   4.738246e+02  -4.607581e+01
   2.730001e+02   5.299467e+02
  -1.576009e+02   6.026733e+02
  -5.007213e+02   2.656481e+02
  -4.625729e+02  -1.677991e+02
  -9.896925e+01  -3.735973e+02
   1.424876e+02  -2.352022e+02
   1.034293e+02  -6.872577e+01
  -1.470557e+02  -5.636335e+01
  -3.351422e+02  -2.322560e+02
  -1.114587e+02  -4.666971e+02
   4.345770e+02  -2.008389e+02
   7.474470e+02   7.831945e+01
   3.589563e+02   5.147830e+02
  -3.179978e+02   2.326483e+02
  -6.158803e+02  -1.398740e+02
  -2.374441e+02  -3.792783e+02
   2.749629e+02  -3.850776e+02
   4.810664e+02  -1.619863e+02
   3.447896e+02   1.533523e+02
   8.863056e+01   3.705589e+02
  -1.025248e+02   2.047906e+02
  -2.005785e+01  -1.654518e+02
   2.156674e+02  -2.411419e+02
   3.040369e+02   8.637583e+01
   9.213036e+01   6.458745e+02
  -2.261186e+02   5.441272e+02
  -4.179300e+02   4.329362e+01
  -5.707478e+01  -3.621025e+02
   2.286372e+02  -1.910607e+02
   2.444568e+02   2.857991e+02
  -1.006092e+02   4.297825e+02
  -4.888927e+02   1.103800e+02
  -5.486284e+02  -3.982872e+02
  -2.239321e+02  -5.503136e+02
   3.376190e+02  -3.062732e+02
   5.259405e+02   8.120979e+01
   3.544533e+02   2.815454e+02
  -9.904061e+01   2.977164e+02
  -3.369311e+02   1.127524e+02
  -2.153604e+02  -9.653315e+01
   7.427637e+01   3.932979e+01
   6.906957e+01   6.593262e+01
  -1.158226e+02   1.080621e+02
  -2.474544e+02  -5.994142e+01
  -1.449817e+02  -2.407728e+02
   1.851402e+02  -2.423980e+02
   3.568456e+02  -1.302609e+02
   2.453538e+02   1.263926e+02
   2.374974e+01   2.731372e+02
  -2.793175e+02   3.541756e+02
  -3.276401e+02   1.497364e+02
  -2.247317e+02  -1.403409e+02
  -9.363677e+01  -3.407126e+02
   6.523070e+01  -3.350694e+02
   7.361898e+00  -1.358952e+02
   4.977875e+01  -5.698211e+01
   7.972280e+01  -1.516356e+02
   2.400600e+02  -9.772545e+01
   2.896527e+02   1.373002e+02
   9.757618e+01   2.895570e+02
  -9.163608e+01   1.817114e+02
  -1.940615e+02  -7.282715e+01
  -1.602379e+02  -2.478996e+02
   4.091677e+01  -2.923368e+02
   1.890326e+02  -5.491189e+01
   3.334445e+02   1.626455e+02
   1.714487e+02   3.433305e+02
  -7.561570e+01   2.576020e+02
  -2.084814e+02   1.814914e+02
  -1.544087e+02   8.038095e+01
  -1.155751e+02   6.435744e+01
  -2.536594e+02   7.238105e+01
  -4.487888e+02  -1.006299e+02
  -3.383624e+02  -2.887992e+02
   3.167893e+01  -4.947782e+02
   4.254704e+02  -4.569279e+02
   5.037618e+02  -1.741353e+02
   3.142251e+02   1.369136e+02
   6.962836e+01   2.937900e+02
  -1.053560e+02   2.110673e+02
  -2.823270e+01   2.414249e+01
   1.181039e+02  -7.036260e+01
   1.550947e+02  -1.596786e+01
  -2.539373e+01   1.395477e+02
  -1.303283e+02   1.209952e+02
  -1.393400e+02  -5.129545e+01
  -8.436181e+00  -1.589132e+02
   1.789844e+02   2.925211e+00
   1.389013e+02   2.358381e+02
  -2.458679e+01   3.700769e+02
  -2.325295e+02   2.188425e+02
  -3.685166e+02  -5.460812e+01
  -2.694704e+02  -2.146129e+02
  -5.527071e+01  -2.722463e+02
   1.646829e+02  -1.064930e+02
   1.868083e+02   2.814168e+01
   2.455485e+01   2.749302e+01
  -7.031564e+01  -3.002147e+01
  -1.967485e+00  -1.181863e+02
   1.540255e+02  -1.010772e+02
   1.508692e+02   3.911810e+01
   6.922298e+01   7.835870e+01
  -5.322898e+01  -1.080128e+01
  -4.660775e+01  -7.029642e+01
   1.480740e+02  -7.902043e+01
   2.840358e+02   4.259648e+01
   2.434559e+02   1.492399e+02
   6.269411e+01   2.617920e+02
  -2.248813e+02   2.806514e+02
  -3.049942e+02   1.126571e+02
  -1.540832e+02  -3.174216e+01
   5.387656e+01  -7.945869e+01
   9.716679e+01   1.083985e+01
  -5.622872e+01   8.740460e+01
  -2.002049e+02   5.371457e+01
  -2.060192e+02  -1.198020e+02
  -3.338485e+01  -2.086766e+02
   8.592262e+01  -1.703565e+02
   1.337354e+02  -1.944526e+01
   5.081766e+01   1.899868e+01
  -1.315082e+01   3.418981e+00
  -5.300340e+01  -1.069656e+02
   9.868449e+01  -1.250670e+02
   2.369699e+02   4.440835e+00
   2.225372e+02   1.250900e+02
  -7.197096e+00   2.332516e+02
  -1.729755e+02   1.519325e+02
  -1.763284e+02  -6.932251e+00
  -5.586221e+01  -9.294747e+01
   7.267298e+01  -1.117479e+02
   7.378870e+01  -1.625085e+01
  -1.548464e+01   2.881194e+01
   2.522075e+00   1.911837e+01
   1.508594e+01  -3.559484e+00
   1.013466e+02   1.181998e+01
   6.832578e+01   9.037119e+01
   3.242822e+01   1.766926e+02
  -1.599266e+02   1.801160e+02
  -2.162183e+02   2.591142e+01
  -1.816316e+02  -1.547910e+02
  -2.486368e+01  -2.142920e+02
   1.213984e+02  -1.664895e+02
   9.863161e+01  -2.629530e+01
   7.530081e+01   5.753198e+01
   3.324491e+01   4.776086e+01
   9.028458e+01  -3.079004e+01
   9.778015e+01   1.928726e+01
   6.319339e+01   7.182586e+01
  -5.086418e+01   1.179256e+02
  -1.236140e+02   5.238629e+01
  -1.326911e+02  -4.663239e+01
   1.381060e+01  -1.461167e+02
   1.735748e+02  -7.732539e+01
   2.088567e+02   4.238600e+01
   9.057977e+01   2.186379e+02
  -1.377168e+02   2.328617e+02
  -2.918938e+02   6.933990e+01
  -2.667368e+02  -1.152897e+02
  -9.219902e+01  -1.937049e+02
   4.961812e+01  -1.673345e+02
   8.683232e+01  -9.506828e+01
   6.503550e+01  -8.931579e+01
   7.442118e+01  -8.716982e+01
   1.270270e+02  -9.632758e+01
   1.334100e+02   2.042214e+00
   1.472849e+02   1.483488e+02
   3.079631e+01   2.167982e+02
  -1.029857e+02   1.570855e+02
  -1.994275e+02   2.485067e+01
  -1.315941e+02  -7.866041e+01
  -7.693918e+00  -1.321034e+02
   9.344484e+01  -8.201765e+01
   7.441547e+01   5.500877e+01
   6.042731e+00   1.075754e+01
  -7.512743e+00   4.013927e+01
   2.921817e+01  -1.881681e+01
   8.915189e+01   3.994309e+01
   5.071192e+01   1.516191e+01
  -8.323971e+01   6.937622e+01
  -2.028459e+02  -1.068208e+01
  -1.480234e+02  -1.447461e+01
   6.742493e+00  -9.429821e+01
   1.364515e+02  -8.987471e+01
   1.525750e+02  -9.509924e-01
   1.246236e+01  -2.718027e+00
  -4.011616e+01   4.175359e+01
  -7.449341e+01  -1.579638e+01
  -3.568483e+01  -6.782494e+01
   4.866683e+01  -3.126093e+01
   4.196871e+01  -1.679001e+01
   5.386106e+01   7.448394e+01
   7.626028e+01   1.833659e+01
   4.413487e+01  -1.107322e+01
   6.944464e+01  -7.514772e+00
   2.527235e+01   1.111824e+02
  -2.739931e+01   1.596383e+02
  -1.082942e+02   1.660117e+02
  -1.646201e+02   7.717228e+01
  -1.022884e+02  -9.181778e+01
   9.766543e+00  -9.049599e+01
   9.263743e+01  -4.644040e+01
   7.891619e+01   1.106622e+01
  -7.048090e+01   2.228557e+01
  -1.582504e+02  -4.917508e+01
  -6.853866e+01  -8.262263e+01
   8.896061e+01  -1.189267e+02
   1.932202e+02  -3.663944e+01
   1.372515e+02   4.383925e+01
   4.122948e+01   8.546174e+01
  -5.539035e+01   1.008507e+02
  -1.396052e+01  -1.583504e+01
   4.361197e+01  -3.170821e+01
   1.106545e+02  -1.071724e+01
   4.387469e+01   1.232133e+02
  -4.207018e+01   1.629555e+02
  -1.796592e+02   6.927459e+01
  -1.427595e+02  -8.053562e+01
  -8.328206e+00  -1.964507e+02
   1.252335e+02  -1.718786e+02
   1.046276e+02   2.211832e+01
   7.789232e+01   1.055485e+02
  -1.032010e+01   7.402093e+01
  -5.536620e+01   1.401201e+01
  -6.795096e+01  -4.331979e+01
  -1.382822e+01  -3.048100e+01
   1.331596e+01   5.884881e+01
   1.603256e+01  -4.349543e+01
  -2.576298e+00  -1.410035e+02
  -4.425084e+01  -1.129508e+02
   7.817965e+01  -8.540803e+01
   1.344361e+02  -2.286360e+01
   1.247318e+02   9.579669e+01
   1.658918e+01   5.223241e+01
  -9.003182e+01   7.381369e+00
  -1.062617e+02   5.251624e+00
  -6.553033e+00  -4.765892e+00
   4.504543e+01  -1.425950e+01
  -3.050086e+00  -2.043597e+01
  -2.013899e+01  -3.308234e+01
   1.027752e+01  -3.295144e+01
   6.810163e+01  -2.822947e+01
   8.926409e+01   1.939755e+01
  -2.024145e+00   9.417807e+01
  -1.222073e+02   1.103583e+02
  -1.666121e+02   9.005206e+01
  -1.725847e+02  -1.012650e+02
  -2.400621e+01  -1.772242e+02
   5.733749e+01  -1.439544e+02
   1.388455e+02  -6.217357e+01
   7.191938e+01  -6.764738e+00
   3.851017e+01   1.923510e+01
   9.439877e-01  -5.648201e-01
  -1.503488e+01   7.531404e+00
   3.621190e+01   4.558050e+01
  -1.145782e+01   1.113577e+02
  -5.901391e+01   7.377845e+01
  -9.752471e+01  -3.823393e+01
  -6.687309e+01  -1.355504e+02
  -5.141885e+01  -8.852173e+01
   8.688325e+01  -3.758809e+01
   1.346311e+02   5.491731e+01
   3.201990e+01   1.045809e+02
  -4.429535e+01   7.710375e+01
  -9.142013e+01  -2.603205e+01
  -7.180942e+01  -5.453326e+01
   2.069679e+01  -6.377404e+01
   2.046139e+01  -2.773920e+01
  -1.770528e+01  -4.712076e+00
  -6.671009e+01  -2.216376e+01
   2.182589e+00  -3.218499e+01
   7.978549e+01  -8.745514e+01
   1.015438e+02  -6.220093e+01
   1.188959e+02   6.255015e+00
  -3.568295e+01   1.164582e+02
  -3.993676e+01   1.083059e+02
  -7.695117e+01   1.048231e+01
   1.890330e+00  -3.666654e+01
   1.568677e+00  -5.373332e+01
   4.482723e+01   1.724332e+01
   6.563107e+01   4.211156e+01
   4.975246e+00   5.159342e+00
  -2.379276e+01   1.526705e+01
  -3.677241e+01  -6.207587e+01
  -2.586676e+01  -1.408385e+01
  -1.388941e+01   2.720315e+01
  -2.576856e+00  -4.590956e+00
  -9.237207e+00  -3.313090e+01
   3.719598e+01  -6.513969e+01
   7.323979e+01  -8.949994e+00
  -1.917999e+00   4.247976e+01
   2.365582e+01   4.607370e+01
  -4.591806e+01   5.010904e+00
  -7.236292e+01  -4.225917e+01
  -5.853931e+01  -4.705961e+01
   6.911399e+01  -5.962760e+01
   1.010418e+02   2.309834e+01
   5.565619e+01   2.701902e+01
  -3.241262e+01   3.523521e+01
  -2.902780e+01   7.837191e+01
  -1.704935e+01   4.852716e+01
   5.786516e+01  -4.342168e+00
   5.182427e+01   7.877721e+00
  -4.681192e+00   3.994645e+00
  -3.588670e+01   2.633572e+01
