
 $NMID
 id='ANONYMOUS ', fmtdat='(2E16.6)'
 volume=1.0
 tramp=1.0
 $END
  -3.683033e+03  -8.522272e+01
  -2.092880e+03  -1.892938e+03
   4.373293e+02  -2.087159e+03
   1.584830e+03  -8.688351e+02
   1.150159e+03   1.946086e+02
  -2.698321e+02   2.291614e+02
  -4.426244e+02  -2.041469e+02
  -5.059222e+00  -7.735331e+02
   5.964990e+02  -6.632265e+02
   6.016172e+02   1.178938e+02
   3.671171e+02   6.217781e+02
  -1.586747e+02   6.632628e+02
  -3.223429e+02   9.645521e+01
  -2.907274e+02  -5.225034e+02
   2.238138e+02  -5.542977e+02
   4.248745e+02  -4.036830e+01
   2.617288e+02   5.422074e+02
  -2.439414e+02   6.211879e+02
  -4.902291e+02   1.709075e+02
  -3.260530e+02  -2.585048e+02
  -6.376551e+01  -3.262705e+02
   1.434180e+02  -2.229308e+02
   7.017866e+01  -1.725014e+01
  -1.438966e+02   2.325841e+00
  -3.110173e+02  -2.546491e+02
  -7.881787e+01  -4.641904e+02
   4.398087e+02  -2.844102e+02
   6.617691e+02   1.219877e+02
   2.795889e+02   4.268512e+02
  -3.930379e+02   3.162178e+02
  -5.585116e+02  -1.308152e+02
  -2.010814e+02  -4.398785e+02
   2.896833e+02  -4.669794e+02
   4.334967e+02  -1.020213e+02
   3.023895e+02   2.009323e+02
   5.019814e+01   3.678468e+02
  -5.066230e+01   2.656729e+02
  -1.193684e+00  -1.695610e+02
   1.922689e+02  -2.488978e+02
   3.243058e+02   1.107912e+02
   4.936852e+01   6.204127e+02
  -3.139500e+02   5.267763e+02
  -4.985409e+02   5.230932e+01
  -1.657647e+02  -4.309057e+02
   2.931266e+02  -1.307197e+02
   2.493253e+02   2.749615e+02
  -1.562450e+02   4.677178e+02
  -4.575700e+02   8.310656e+01
  -4.965747e+02  -3.485701e+02
  -1.691597e+02  -4.758173e+02
   3.120732e+02  -2.857537e+02
   5.748876e+02   6.501709e+01
   3.169087e+02   3.245260e+02
  -1.573144e+02   2.650972e+02
  -4.010216e+02   6.427503e+01
  -1.472524e+02  -1.269741e+02
   9.552654e+01  -2.576579e+01
   9.004392e+01   1.033147e+02
  -1.306523e+02   6.183499e+01
  -2.417120e+02  -6.739690e+01
  -1.083330e+02  -2.308754e+02
   1.783737e+02  -2.449697e+02
   3.204619e+02  -9.467324e+01
   2.067355e+02   3.615675e+01
  -1.433552e+01   2.931790e+02
  -2.443081e+02   3.308503e+02
  -2.894646e+02   1.915164e+02
  -2.663052e+02  -1.505497e+02
  -8.680248e+01  -4.458422e+02
   1.115613e+02  -3.321517e+02
   3.432861e+01  -1.197213e+02
   9.466607e+00  -1.682675e+01
   1.076256e+02  -1.311232e+02
   2.263553e+02  -1.110677e+02
   3.034836e+02   1.061827e+02
   1.301683e+02   2.649533e+02
  -6.721594e+01   1.959557e+02
  -2.174212e+02   2.432942e+01
  -1.482129e+02  -1.800704e+02
   2.763566e+01  -2.595728e+02
   2.376877e+02  -8.725574e+01
   3.094825e+02   1.748184e+02
   1.397152e+02   3.165161e+02
  -8.018330e+01   2.460044e+02
  -1.911345e+02   1.136376e+02
  -7.741972e+01   2.934119e+01
  -6.180431e+01   5.973517e+01
  -2.212438e+02   3.273978e+01
  -4.104989e+02  -1.118985e+02
  -3.403908e+02  -3.102199e+02
  -2.544037e+01  -4.269915e+02
   3.560687e+02  -4.062128e+02
   4.595635e+02  -1.568832e+02
   2.649628e+02   1.131123e+02
   1.718670e+01   2.540559e+02
  -1.047614e+02   2.112432e+02
  -2.327315e+01   8.418198e+00
   1.256071e+02  -9.202023e+01
   1.521525e+02  -2.555199e+01
  -3.000661e+01   1.800534e+02
  -1.246708e+02   1.063657e+02
  -1.247887e+02  -2.326791e+01
   6.764121e+01  -1.766688e+02
   1.685716e+02   3.433846e+01
   1.468697e+02   2.015112e+02
  -7.352084e+01   3.331612e+02
  -2.205361e+02   1.646257e+02
  -2.939417e+02  -7.721671e+01
  -2.875226e+02  -2.144861e+02
  -7.927290e+01  -2.416359e+02
   8.766992e+01  -1.553154e+02
   1.518581e+02  -3.646798e+01
   4.091450e+01   4.044205e+01
  -7.112474e+01  -8.338338e+01
  -3.399105e+01  -1.217132e+02
   1.222013e+02  -5.451998e+01
   1.637921e+02   5.219105e+01
   1.525693e+01   7.303356e+01
  -1.128053e+02   2.301979e+01
  -6.910842e+01  -5.816608e+01
   1.404993e+02  -4.539643e+01
   2.848067e+02   1.326241e+01
   2.782580e+02   1.166061e+02
   3.833408e+01   2.394355e+02
  -1.764884e+02   2.411603e+02
  -2.912517e+02   1.436842e+02
  -1.318918e+02  -1.679463e+01
   3.666988e+01  -6.106759e+01
   8.943184e+01   1.630497e+01
  -4.124176e+01   4.288418e+01
  -1.819461e+02   8.156656e+01
  -1.862711e+02  -7.269719e+01
  -4.688144e+01  -1.955271e+02
   1.062726e+02  -1.562191e+02
   1.201413e+02  -3.659538e+01
   7.585672e+01   8.689951e+01
  -1.359394e+00  -2.381042e+01
  -1.277444e+01  -1.406959e+02
   5.931063e+01  -1.255287e+02
   1.827817e+02  -3.901241e+01
   1.995681e+02   1.265665e+02
   5.928883e+01   2.276361e+02
  -1.489483e+02   8.743238e+01
  -1.841847e+02   2.594028e+01
  -5.176792e+01  -7.584048e+01
   5.298168e+01  -8.664187e+01
   6.661644e+01  -1.128404e+01
   8.257895e+00   5.892186e+01
  -9.913056e+00   4.321689e+01
   1.509489e+01  -3.764725e+01
   5.812958e+01  -1.307479e+01
   9.364153e+01   8.559017e+01
   2.575823e+01   1.694890e+02
  -1.257832e+02   1.568037e+02
  -2.045947e+02  -3.284472e+00
  -1.660066e+02  -1.486203e+02
  -1.174339e+01  -2.277175e+02
   1.163723e+02  -1.468798e+02
   1.264761e+02  -4.059968e+01
   7.079784e+01   4.007827e+01
   1.902881e+01   1.094391e+01
   5.470389e+01  -5.842490e+01
   8.445550e+01   2.050689e+01
   1.842767e+01   3.961132e+01
  -3.028953e+01   1.067101e+02
  -1.247394e+02   6.083469e+01
  -8.746485e+01  -3.689226e+01
  -9.380036e+00  -9.511871e+01
   1.267375e+02  -7.789899e+01
   2.303649e+02   8.820142e+01
   1.029619e+02   2.030045e+02
  -1.197829e+02   2.547401e+02
  -2.914944e+02   5.252797e+01
  -2.642152e+02  -7.584536e+01
  -7.980311e+01  -1.706229e+02
   4.731577e+01  -1.250252e+02
   6.520495e+01  -8.864256e+01
   9.359573e+01  -8.091169e+01
   7.448988e+01  -1.182647e+02
   8.590372e+01  -7.626164e+01
   1.015064e+02   9.276532e+00
   1.398360e+02   1.516532e+02
   7.549623e+01   1.944428e+02
  -1.221381e+02   1.541986e+02
  -1.350747e+02   1.547057e+01
  -9.720293e+01  -1.235446e+02
   6.478175e+00  -1.639744e+02
   8.386254e+01  -9.996295e+01
   3.414193e+01   6.694463e+00
   9.469762e+00   8.040856e+01
  -1.732292e+01   4.124892e+01
   1.383147e+01  -9.669632e+00
   5.421095e+01   3.969063e+01
   4.598251e+01   4.943335e+01
  -5.819083e+01   1.964330e+01
  -1.910207e+02   1.799277e+00
  -1.144838e+02  -7.640505e+01
   3.045751e+00  -9.888449e+01
   1.057794e+02  -4.677175e+01
   1.098239e+02  -9.278942e+00
   3.110830e+01   7.467993e+01
  -5.514075e+01   5.106486e+01
  -7.539183e+01  -4.463015e+01
  -3.403416e+01  -9.232713e+01
   9.173874e+01  -5.536036e+01
   6.785090e+01   7.036971e+00
   8.127900e+01   8.289393e+01
   5.843409e+01   5.287023e+01
   1.079766e+01  -6.896946e+00
   6.274336e+01   3.164390e+01
   5.588108e+01   4.896762e+01
   2.194961e+01   1.536888e+02
  -1.253043e+02   9.644639e+01
  -1.604727e+02   4.049633e+01
  -1.201766e+02  -1.122773e+02
  -2.280025e+01  -9.429281e+01
   7.552064e+01  -6.505469e+01
   1.308921e+01   1.282764e+01
  -8.150073e+01   1.430300e+01
  -1.263409e+02  -3.877095e+01
  -7.333309e+01  -1.363279e+02
   8.592711e+01  -1.007032e+02
   2.074684e+02  -8.650066e+01
   1.320186e+02  -8.669714e+00
   4.334171e+01   4.525840e+01
  -3.557637e+01   3.728317e+01
  -9.697967e+01   9.051707e+00
   3.673313e+01  -1.985791e+01
   8.637473e+01   1.121166e+01
   3.580584e+01   1.071364e+02
  -9.363784e+01   1.343431e+02
  -1.178796e+02   6.166233e+01
  -8.574800e+01  -1.173560e+02
  -2.540022e+01  -2.260347e+02
   8.022281e+01  -1.489251e+02
   7.663476e+01   1.460411e+01
   4.492254e+01   1.224241e+02
   7.333128e+00   7.850222e+01
  -7.062667e+01   2.143466e+01
  -4.283881e+01  -1.583365e+01
  -4.465392e+01  -1.487061e+01
   2.022676e+01  -7.007790e+00
  -5.708405e+01  -9.281545e+00
  -6.812441e+01  -1.025378e+02
  -1.780640e+01  -7.900118e+01
  -1.228332e+01  -2.171550e+01
   1.496800e+02   1.357123e+00
   1.058336e+02   8.837618e+01
   1.718941e+00   4.680379e+01
  -9.404876e+01  -1.043306e+01
  -7.261536e+01   1.993137e+01
  -4.775872e+01  -5.192128e+00
   6.850699e+01  -4.394135e+01
   4.414160e+01  -2.365640e+01
  -1.973222e+00   3.073820e+01
   2.365224e+00   2.178265e+01
   8.948321e+01   1.617378e+01
   5.406848e+01  -1.002124e+01
   1.399376e+01   6.162704e+01
  -1.257852e+02   8.349046e+01
  -1.972767e+02   7.555684e+01
  -1.311711e+02  -8.418962e+00
  -7.946356e+00  -1.415733e+02
   8.110678e+01  -1.341243e+02
   1.196863e+02  -3.599059e+01
   9.549364e+01   2.453577e+01
   5.583106e+01   3.611134e+01
  -7.296862e-01  -5.784496e+00
   3.035879e+01   5.282656e+01
   6.398449e+01   6.488898e+01
   2.249861e+01   6.802858e+01
   9.626639e+00   7.102454e+01
  -9.766947e+01  -5.334405e+00
  -6.986748e+01  -7.569041e+01
  -4.030979e+01  -1.000762e+02
   6.381595e+01   6.270439e+00
   1.028207e+02   8.475927e+01
   4.407662e+01   1.083764e+02
  -6.947807e+01   5.080365e+01
  -1.086620e+02  -1.535125e+01
  -2.491855e+01  -4.476186e+01
   5.799773e+01  -8.320922e+01
   1.968212e+01  -7.081574e+01
  -6.206856e+00   9.799325e-01
  -8.183348e+01  -4.471328e+00
  -1.518227e+01  -8.090834e+01
   1.082992e+02  -9.187828e+01
   1.201053e+02  -7.732469e+01
   6.369343e+01   3.592117e+01
  -2.763986e+00   8.742110e+01
  -4.352898e+01   9.230081e+01
  -7.111405e+01   6.626961e+00
  -2.016421e+00  -7.817067e+01
   5.491201e+01  -3.239121e+01
   1.243215e+01   3.781598e+01
   5.166807e+01   4.888958e+00
  -9.827481e-01   4.315705e+01
  -3.327978e+01  -6.330988e+00
  -3.957070e+01  -3.207858e+01
  -3.236122e+01  -2.440975e+01
   3.693388e-01   2.779503e+00
  -2.898483e+00  -3.057907e+01
   2.148090e+01  -5.033457e+01
   1.797125e+01  -4.712941e+01
   2.662719e+01  -3.957279e+01
   5.919703e+01   1.101465e+00
   2.655625e+00   4.691343e+01
  -2.904079e+01   2.115283e+01
  -1.989471e+01  -2.942948e+01
  -5.377835e+00  -5.846326e+01
   4.902795e+01  -3.744221e+01
   9.717761e+01   3.315568e+01
   7.444450e+01   5.127159e+01
  -3.227459e+01   2.002416e+01
  -5.654229e+01   2.269050e+01
  -3.618181e+01  -1.098364e+01
   9.715107e+00  -1.509601e+00
   4.010129e+01  -4.121195e+01
  -2.366352e+01   4.709949e+01
  -7.203092e+01   1.490600e+01
