
 $NMID
 id='ANONYMOUS ', fmtdat='(2E16.6)'
 volume=1.0
 tramp=1.0
 $END
  -4.368864e+03  -3.242369e+02
  -2.484465e+03  -2.602834e+03
   5.452957e+02  -2.932054e+03
   2.209717e+03  -1.251713e+03
   1.060410e+03   4.448975e+02
  -4.969758e+02   6.315105e+02
  -9.113862e+02  -3.192444e+02
  -9.696083e+01  -9.430995e+02
   8.536217e+02  -7.916697e+02
   1.002754e+03  -9.510292e+01
   4.739157e+02   7.618582e+02
  -1.921647e+02   8.967409e+02
  -6.937509e+02   1.699275e+02
  -4.270654e+02  -6.730895e+02
   2.312566e+02  -7.566235e+02
   6.081385e+02  -6.708135e+01
   3.086097e+02   6.750772e+02
  -2.903493e+02   7.212558e+02
  -5.535130e+02   1.763091e+02
  -4.069917e+02  -2.986253e+02
  -5.963057e+01  -4.879133e+02
   2.639134e+02  -3.093720e+02
   1.691762e+02  -6.561285e+01
  -8.410694e+01   4.945660e-01
  -4.118175e+02  -1.325478e+02
  -1.476094e+02  -3.457699e+02
   4.488923e+02  -3.530831e+02
   7.972611e+02   1.612628e+02
   3.938604e+02   5.413184e+02
  -4.304437e+02   3.909338e+02
  -6.763413e+02  -2.221091e+01
  -3.156849e+02  -3.997062e+02
   2.459097e+02  -4.513868e+02
   4.909434e+02  -2.393284e+02
   4.080184e+02   1.547429e+02
   9.553791e+01   3.869033e+02
  -2.234088e+02   2.805394e+02
  -1.498932e+02  -9.241660e+01
   1.476053e+02  -3.392700e+02
   4.058755e+02   4.395872e+01
   2.551857e+02   5.331790e+02
  -3.068412e+02   6.226853e+02
  -5.277803e+02   6.559334e+00
  -3.217823e+02  -4.856008e+02
   1.303789e+02  -3.864641e+02
   3.710254e+02   2.324083e+02
  -6.614305e+01   5.744580e+02
  -5.527426e+02   1.567298e+02
  -6.280596e+02  -3.949034e+02
  -2.405689e+02  -5.976184e+02
   4.344130e+02  -3.542818e+02
   6.354969e+02   4.997728e+01
   3.421457e+02   3.763060e+02
  -1.065788e+02   3.735922e+02
  -4.294078e+02   8.189792e+01
  -2.701844e+02  -1.086748e+02
   1.158970e+02  -1.135019e+02
   1.283825e+02   1.627467e+02
  -1.916223e+02   1.938073e+02
  -2.970474e+02  -3.891931e+00
  -1.504761e+02  -2.796080e+02
   2.498959e+02  -2.480806e+02
   3.778434e+02  -9.615889e+01
   2.207803e+02   9.675034e+01
  -4.995750e+01   2.697050e+02
  -2.329970e+02   3.683055e+02
  -3.913480e+02   2.040955e+02
  -3.114332e+02  -1.571407e+02
  -7.450027e+01  -4.955947e+02
   8.115900e+01  -4.486912e+02
   8.957219e+01  -8.086072e+01
   3.242531e+01  -4.968922e+01
   5.506247e+01  -7.999729e+01
   2.406297e+02  -1.574741e+02
   2.886899e+02   9.955445e+01
   1.361204e+02   2.627691e+02
  -7.004770e+01   2.241645e+02
  -2.522033e+02  -8.973579e+00
  -1.968667e+02  -2.631887e+02
  -1.487350e+01  -2.813351e+02
   2.603472e+02  -8.630756e+01
   3.859333e+02   2.040081e+02
   2.145399e+02   3.339365e+02
  -5.896479e+01   2.801444e+02
  -2.510451e+02   1.339020e+02
  -1.904573e+02   5.484402e+01
  -1.328786e+02   6.227788e+01
  -2.287369e+02   6.235641e+01
  -3.935291e+02  -9.066508e+01
  -3.677344e+02  -2.909655e+02
   1.891113e+01  -4.574999e+02
   4.226504e+02  -4.165198e+02
   5.210936e+02  -1.877425e+02
   3.409819e+02   1.009355e+02
   7.788498e+01   3.088483e+02
  -9.333688e+01   2.614372e+02
  -5.634822e+01   4.439747e+01
   6.280807e+01  -9.279413e+01
   2.156256e+02  -3.691995e+00
   4.273182e+01   1.996124e+02
  -1.656936e+02   1.468536e+02
  -1.851475e+02  -5.624771e+01
   3.312915e+01  -1.454133e+02
   1.995244e+02  -5.486983e+01
   1.487458e+02   2.452832e+02
  -6.374993e+01   4.200931e+02
  -2.235580e+02   1.808755e+02
  -3.426685e+02  -1.185611e+02
  -3.126310e+02  -2.573354e+02
  -1.087850e+02  -2.839464e+02
   1.143182e+02  -1.784364e+02
   1.629542e+02  -1.039358e+01
   4.313025e+01   3.235106e+00
  -6.809782e+01  -8.589026e+01
  -1.956508e+00  -1.181707e+02
   1.090409e+02  -7.721118e+01
   1.941127e+02   2.574920e+01
   4.626421e+01   7.430159e+01
  -1.116474e+02  -2.497229e+00
  -8.422753e+00  -5.762333e+01
   1.038465e+02  -1.015873e+02
   2.539748e+02  -1.147065e+01
   2.370944e+02   1.601520e+02
   2.150275e+01   2.587555e+02
  -2.210014e+02   2.563202e+02
  -2.842415e+02   1.354495e+02
  -1.443161e+02  -1.951477e+01
   5.459472e+01  -9.271692e+01
   1.001561e+02  -3.617503e+01
  -3.429805e+01   5.281115e+01
  -2.387096e+02   7.974522e+01
  -2.145208e+02  -8.004330e+01
  -6.078651e+01  -2.114248e+02
   1.059193e+02  -1.775816e+02
   1.227916e+02  -2.293116e+01
   9.307011e+01   1.433172e+01
  -3.179343e+00  -2.987160e+01
  -8.005792e+01  -8.484065e+01
   8.215326e+01  -1.200075e+02
   2.033687e+02  -1.009918e+01
   1.893464e+02   1.067448e+02
   5.251871e+01   1.605623e+02
  -1.608305e+02   1.979419e+02
  -1.704119e+02   4.488865e+01
  -8.626292e+01  -1.029391e+02
   7.270601e+01  -1.262756e+02
   8.061932e+01  -2.891124e+01
   1.488654e+00  -1.210595e+00
  -2.375999e+01   6.744592e+00
   3.173368e+01  -8.617496e+00
   6.056897e+01   1.240988e+01
   9.838237e+01   1.079494e+02
   3.572660e+01   1.977309e+02
  -1.376285e+02   1.523882e+02
  -2.325894e+02   2.418400e+01
  -2.011958e+02  -1.127445e+02
  -3.853794e+01  -2.558148e+02
   1.114526e+02  -1.566577e+02
   1.465527e+02  -1.773580e+01
   7.640331e+01   4.575424e+01
   2.530792e+01   4.449867e+01
   6.478512e+01  -4.267032e+01
   9.374394e+01  -2.421537e+01
   4.435728e+01   6.361552e+01
  -7.037020e+01   1.134987e+02
  -1.120881e+02   3.829025e+01
  -8.378829e+01  -5.510024e+01
   1.319508e+01  -1.333619e+02
   1.463741e+02  -7.558382e+01
   1.984695e+02   3.368483e+01
   9.566986e+01   2.315674e+02
  -9.710241e+01   2.472903e+02
  -2.852298e+02   7.411191e+01
  -2.915053e+02  -9.546551e+01
  -1.117471e+02  -1.289863e+02
   4.590274e+01  -1.595520e+02
   9.611400e+01  -7.669059e+01
   9.441786e+01  -8.130780e+01
   8.288632e+01  -6.224078e+01
   1.007870e+02  -4.422349e+01
   1.220281e+02   2.864169e+01
   8.226258e+01   1.419650e+02
   2.555204e+01   2.326468e+02
  -7.959571e+01   1.492907e+02
  -1.447600e+02   2.549520e+01
  -1.230127e+02  -1.340201e+02
  -1.553721e+00  -1.687660e+02
   9.607680e+01  -9.077073e+01
   9.275526e+01   2.529693e+01
   1.119231e+01   8.837352e+01
  -2.246497e+01   5.214991e+01
   5.952881e+01  -2.409831e+01
   5.131511e+01   5.815788e+01
   5.287580e+01   5.803258e+01
  -7.812894e+01   4.159313e+01
  -1.699445e+02   7.334282e+00
  -1.403973e+02  -8.368814e+01
   1.471925e+01  -1.079539e+02
   1.452519e+02  -8.114911e+01
   1.103574e+02  -1.739600e+01
   5.813799e+01   4.484997e+01
  -9.820555e+01   6.054596e+01
  -4.413867e+01  -7.882107e+00
   2.481342e-01  -5.846632e+01
   1.030929e+02  -6.165009e+01
   8.137933e+01   3.116653e+01
   8.270471e+01   5.556350e+01
   3.313343e+01   7.711800e+01
   4.143883e+01   2.231915e+01
   6.830735e+01  -1.102004e+01
   1.911895e+01   4.358277e+01
  -4.070852e+01   1.147005e+02
  -1.119176e+02   1.456502e+02
  -2.116287e+02   5.278701e+01
  -1.209420e+02  -9.125324e+01
  -2.571878e+01  -9.343590e+01
   6.756358e+01  -7.941570e+01
   3.536096e+01   5.026155e+01
  -5.895030e+01   1.449715e+01
  -1.139234e+02  -4.818616e+01
  -7.160273e+01  -9.113541e+01
   6.437549e+01  -1.151457e+02
   2.111719e+02  -6.517416e+01
   1.693979e+02   2.123234e+01
   1.972050e+01   1.022310e+02
  -9.876108e+01   5.932845e+01
  -2.985618e+00   3.226053e+01
   3.437284e+01  -4.017559e+01
   1.158113e+02  -8.498928e+00
   5.290428e+01   8.376369e+01
  -9.128250e+01   1.518548e+02
  -1.858543e+02   8.093938e+01
  -1.572457e+02  -1.090404e+02
   4.629571e+00  -2.046310e+02
   7.705073e+01  -1.730679e+02
   1.495112e+02   2.660719e+00
   6.867596e+01   1.118322e+02
  -3.453470e+01   9.687042e+01
  -4.178415e+01   3.163701e+01
  -7.589050e+01  -3.065803e+01
  -2.190878e+01  -1.271431e+01
   5.134386e+01  -1.408944e+00
   3.563582e+00   1.881922e+01
  -5.691701e+01  -9.246064e+01
  -6.891029e+01  -6.113954e+01
   5.794973e+01  -1.727653e+01
   1.391130e+02   3.792371e+01
   1.339787e+02   5.743411e+01
   4.531021e+01   9.463555e+01
  -9.369222e+01   4.574528e+01
  -7.696292e+01   9.616119e-01
   9.228447e+00   2.997751e+01
   4.714875e+01  -4.060992e+01
   4.276102e+01  -4.308138e+01
  -1.589715e+01   5.811945e+00
  -2.872434e+00   2.669833e+01
   6.992796e+01   7.287482e-01
   1.021213e+02   4.470215e+01
  -5.602560e+00   8.605823e+01
  -1.130723e+02   1.325695e+02
  -2.194024e+02   4.971630e+01
  -1.702626e+02  -6.608662e+01
  -3.425435e+01  -1.785664e+02
   7.037933e+01  -1.571553e+02
   9.576736e+01  -1.830334e+01
   9.592635e+01   9.614240e+00
  -3.109873e+00   3.596265e+01
   2.634921e+01   4.427424e+00
   1.044659e+01  -4.556574e+00
   8.213719e+01   4.393083e+01
   3.452367e+01   7.362073e+01
  -2.240757e+01   4.913959e+01
  -9.477844e+01  -1.607483e+01
  -8.728507e+01  -1.081970e+02
  -2.678664e+01  -1.453527e+02
   9.822037e+01  -4.362765e+01
   8.631627e+01   4.526326e+01
   2.397475e+01   8.726821e+01
  -7.014553e+01   6.403891e+01
  -1.181121e+02   3.468008e+00
  -2.927584e+01  -5.058113e+01
   6.265700e+01  -8.075744e+01
   5.133516e+01  -4.802233e+01
  -4.635257e+01   4.831901e+00
  -1.035867e+02  -1.142852e+01
  -1.887299e+01   1.795834e+00
   1.170860e+02  -6.545836e+01
   9.873402e+01  -8.924169e+01
   8.036714e+01   1.133206e+01
  -9.709013e+00   1.328435e+02
  -7.421123e+01   7.455988e+01
  -3.842228e+01   2.311017e+01
   2.009093e+01  -2.215723e+01
   4.802067e+01  -5.290569e+01
   1.818745e+00   7.448982e+01
   4.626561e+01   5.838130e+01
  -1.453329e+01   3.001449e+01
  -2.355333e+01  -1.631406e+00
  -2.760696e+01  -2.027202e+01
  -5.380977e+01   3.828179e+00
  -1.084429e+01   2.684165e+00
  -1.554845e+01   5.369235e+01
   3.720389e+00  -5.008603e+01
   4.559268e+01  -3.861625e+01
   5.566720e+01  -2.220651e+00
   5.157869e+01   3.038848e+01
  -2.163168e+01   9.363303e+01
  -5.152598e+01   5.757541e+01
  -8.343207e+01  -8.603639e+00
  -2.009196e+01  -5.750217e+01
   3.064779e+01  -3.522568e+01
   9.156596e+01   2.524557e+01
   3.280606e+01   5.734512e+01
  -4.586785e+01   5.831378e+01
  -1.162470e+02  -5.010101e+00
  -8.132347e+01   1.823700e+01
   6.446999e+01  -2.976634e+00
   6.261962e+01   3.337946e+01
  -2.687384e+01   3.966047e+01
  -6.963051e+01   7.273899e+01
