
 $NMID
 id='ANONYMOUS ', fmtdat='(2E16.6)'
 volume=1.0
 tramp=1.0
 $END
   3.460226e+03   8.110230e+01
   2.193520e+03   1.987985e+03
  -2.514462e+02   2.173610e+03
  -1.534189e+03   1.132827e+03
  -9.476550e+02  -1.913621e+02
   1.863490e+02  -4.013546e+02
   5.795081e+02   2.158459e+02
   1.408749e+02   8.727184e+02
  -6.488938e+02   7.447303e+02
  -7.794857e+02   1.030197e+02
  -4.709053e+02  -6.568543e+02
   9.453766e+01  -7.193368e+02
   3.582062e+02  -1.784750e+02
   3.713739e+02   6.116372e+02
  -2.766197e+01   6.454355e+02
  -4.717377e+02   7.873509e+01
  -2.821612e+02  -5.038740e+02
   1.437489e+02  -6.918600e+02
   5.209423e+02  -1.958091e+02
   4.170191e+02   1.929922e+02
   8.694521e+01   3.969341e+02
  -1.615852e+02   2.571004e+02
  -1.015600e+02   1.113958e+02
   1.027702e+02   2.049351e+01
   3.386592e+02   2.839540e+02
   9.882839e+01   3.380832e+02
  -4.221625e+02   2.204246e+02
  -6.631124e+02  -1.568854e+02
  -3.302181e+02  -3.675486e+02
   3.607835e+02  -2.656272e+02
   5.763461e+02   5.477987e+01
   2.397785e+02   3.347764e+02
  -2.623055e+02   3.752334e+02
  -4.967330e+02   2.083384e+02
  -3.221166e+02  -1.377823e+02
  -1.216361e+02  -2.984709e+02
   8.888822e+01  -2.148341e+02
   4.352842e+01   5.126872e+01
  -1.411497e+02   2.116753e+02
  -1.882455e+02  -3.515540e+01
  -1.068480e+02  -4.635376e+02
   1.798820e+02  -5.401146e+02
   4.261463e+02  -3.706966e+00
   2.570415e+02   3.665226e+02
  -1.522644e+02   2.697819e+02
  -2.571601e+02  -2.259950e+02
   1.375608e+01  -3.976931e+02
   4.462816e+02  -1.060119e+02
   5.344896e+02   3.933932e+02
   1.751145e+02   4.554139e+02
  -3.093480e+02   3.136235e+02
  -5.480409e+02  -5.302947e+01
  -3.532007e+02  -2.992355e+02
   9.617811e+01  -3.150690e+02
   3.637422e+02  -1.035923e+02
   2.203616e+02   7.301843e+01
  -3.053804e+01   1.016691e+02
  -1.492347e+02  -7.502171e+01
   9.315634e+01  -1.214872e+02
   2.165777e+02   1.564857e+01
   1.093427e+02   2.214072e+02
  -1.908463e+02   2.359534e+02
  -3.750301e+02   1.221457e+02
  -1.906245e+02  -9.826008e+01
   7.041513e+00  -3.103565e+02
   2.925757e+02  -3.542661e+02
   3.539407e+02  -1.725924e+02
   2.404568e+02   1.541774e+02
   4.605422e+01   4.002860e+02
  -5.239604e+01   3.469115e+02
  -9.046588e+01   1.308708e+02
  -5.306859e+01   3.682673e+01
  -1.034929e+02   8.077772e+01
  -2.343331e+02   7.071775e+01
  -2.668648e+02  -9.655652e+01
  -8.930134e+01  -2.278430e+02
   5.757715e+01  -2.279137e+02
   1.733812e+02   1.553579e+01
   1.246125e+02   2.762346e+02
  -2.508456e+01   2.489104e+02
  -2.592353e+02   7.231479e+01
  -2.803106e+02  -1.884087e+02
  -1.838724e+02  -3.536598e+02
   5.051767e+01  -2.964396e+02
   2.253596e+02  -1.503982e+02
   1.683717e+02  -4.814248e+01
   2.024295e+02  -2.714768e+01
   2.808100e+02  -7.454364e+01
   4.032994e+02   9.108296e+01
   2.906485e+02   2.701269e+02
  -2.324809e+00   4.479645e+02
  -4.152333e+02   3.845594e+02
  -4.830630e+02   1.618022e+02
  -2.584863e+02  -1.094459e+02
  -5.172033e+01  -2.578572e+02
   1.168724e+02  -1.979928e+02
   1.872989e+01  -8.575553e+01
  -1.144675e+02   6.394276e+01
  -1.458872e+02   1.028818e+01
  -8.002278e+00  -1.482900e+02
   1.027186e+02  -8.524619e+01
   1.482606e+02   7.212601e+01
   2.526894e+01   1.132211e+02
  -1.793532e+02   1.452878e+01
  -1.656582e+02  -2.415595e+02
   4.449732e+01  -3.214594e+02
   2.371295e+02  -1.619135e+02
   3.514322e+02   9.944092e+01
   2.720823e+02   2.881784e+02
   4.421079e+01   2.670777e+02
  -9.177547e+01   1.331907e+02
  -1.583314e+02  -1.406565e+00
  -6.612184e+01   2.250858e+00
   7.566693e+01   5.287813e+01
   9.270200e+00   1.016692e+02
  -1.398109e+02   6.982264e+01
  -1.763506e+02  -3.515590e+01
  -8.520714e+00  -7.663695e+01
   8.268423e+01  -2.901613e+01
   3.638540e+01   1.031591e+02
  -1.560945e+02   1.118574e+02
  -2.886171e+02  -2.532407e+01
  -2.526465e+02  -1.415491e+02
  -3.510193e+01  -3.147199e+02
   2.241773e+02  -2.603721e+02
   2.832321e+02  -9.817497e+01
   1.375183e+02   4.113273e+01
  -3.233185e+01   7.315165e+01
  -6.557401e+01   6.171515e+01
   5.120685e+01  -7.897662e+01
   1.898197e+02  -7.214206e+01
   2.155228e+02   1.088965e+02
   7.002370e+01   1.885934e+02
  -6.662094e+01   1.289005e+02
  -1.221402e+02   3.803589e+01
  -6.715872e+01  -1.257567e+01
  -2.255616e+01  -8.503021e+00
  -8.200912e+00   8.288170e+01
  -6.759816e+01   1.209969e+02
  -1.955866e+02   9.058418e+00
  -1.837183e+02  -1.279537e+02
  -9.400761e+00  -2.080709e+02
   1.274720e+02  -1.420291e+02
   1.789174e+02   7.608244e+00
   5.976788e+01   1.307775e+02
  -5.215270e+01   1.148419e+02
  -7.471738e+01   3.335050e+01
   7.591132e+00  -1.042048e+01
   3.911918e+01   5.682519e+00
  -4.672629e+01  -7.900551e+00
  -8.554662e+01   1.382718e+01
  -5.804991e+01  -7.176382e+01
  -2.392550e+01  -1.736757e+02
   1.301243e+02  -1.378081e+02
   2.386821e+02  -2.392270e+01
   1.855139e+02   1.351558e+02
   4.624964e+01   2.576469e+02
  -8.209475e+01   1.525350e+02
  -1.322419e+02   3.345961e+01
  -5.051629e+01  -3.878774e+01
  -3.799306e+01  -4.405965e+01
  -6.508304e+01   3.688485e+01
  -7.871051e+01  -9.741838e+00
  -3.957989e+01  -7.177603e+01
   3.757746e+01  -1.191549e+02
   1.271250e+02  -2.703382e+01
   1.115162e+02   5.696210e+01
  -5.027593e+01   8.693820e+01
  -1.821459e+02   1.176799e+02
  -1.974323e+02  -9.544092e+01
  -1.144157e+02  -2.476734e+02
   1.395041e+02  -2.421527e+02
   2.516600e+02  -9.599845e+01
   2.433790e+02   1.302336e+02
   1.045602e+02   1.878160e+02
  -3.179986e+01   1.897571e+02
  -5.429183e+01   6.360264e+01
  -6.312656e+01   1.555649e+01
  -4.646998e+01   1.111972e+02
  -1.053735e+02   4.588294e+01
  -1.390421e+02  -2.285718e+01
  -1.406921e+02  -1.368713e+02
  -2.105515e+01  -2.152961e+02
   1.294260e+02  -2.018731e+02
   1.825523e+02   1.581361e+01
   9.860287e+01   1.393262e+02
   2.669347e+01   1.829556e+02
  -5.526532e+01   1.094133e+02
  -4.970055e+01  -3.135174e+00
  -1.141508e+01  -6.720131e+01
  -2.850656e+00  -3.624393e+01
  -4.682496e+01  -2.480253e+01
  -1.116298e+02  -4.652823e+01
  -4.953246e+01  -5.905494e+01
   6.164150e+01  -6.276344e+01
   1.789421e+02  -1.053241e+01
   1.497235e+02   8.459193e+01
  -3.144491e+01   9.653720e+01
  -1.063689e+02   4.444548e+01
  -1.311256e+02   3.108965e+01
  -6.533348e+01  -2.794471e+01
   5.904242e+01  -7.526532e+01
   6.039187e+01   3.376927e+01
   2.121345e+01   8.139139e+01
  -5.289928e+01   7.766388e+01
  -5.367011e+01  -1.482837e+00
  -2.485660e+01  -6.741112e+01
  -4.011350e+01  -1.381944e+01
  -4.593857e+01  -4.180910e+00
  -8.321714e+01  -1.000941e+01
  -1.775550e+01  -7.080584e+01
   2.155242e+01  -1.488249e+02
   1.171265e+02  -1.543507e+02
   1.923283e+02  -4.661541e+01
   8.361183e+01   9.795816e+01
  -7.484531e+00   1.450321e+02
  -6.620152e+01   6.795770e+01
  -8.403452e+01  -3.045317e+01
   2.047990e+01  -9.618755e+00
   1.311870e+02   2.325165e+01
   6.926128e+01   9.499322e+01
  -5.295525e+01   8.251490e+01
  -1.742310e+02   2.786545e+01
  -1.558965e+02  -1.075452e+01
  -7.845701e+01  -1.045896e+02
   6.368384e+01  -4.026093e+01
   4.479753e+01  -1.677187e+01
  -6.213202e+01   4.056990e+01
  -1.002618e+02  -3.109625e+01
  -3.551168e+01  -1.039976e+02
   7.018108e+01  -1.198051e+02
   2.117647e+02  -1.031371e+02
   1.370160e+02   8.361790e+01
   1.235774e+01   1.739112e+02
  -1.138288e+02   1.207171e+02
  -1.421906e+02   1.437846e+01
  -1.014006e+02  -1.096690e+02
   3.532280e+01  -6.541469e+01
   5.249236e+01  -5.207616e+01
   3.334242e+01   2.613757e+01
  -6.248981e+00   1.660015e+01
  -5.246972e+00  -3.975504e+01
   5.195385e+01  -1.870643e+01
   1.742675e+01   9.350077e+01
   2.016518e+01   1.254055e+02
  -5.606324e+01   2.558799e+01
  -1.476934e+02  -5.510475e+01
  -1.085027e+02  -4.470064e+01
  -4.769000e+01  -4.261405e+01
   8.504316e+01  -3.191836e+01
   7.258666e+01   1.346641e+01
   2.836114e+01   4.418110e+00
   7.343401e+00   5.129134e+01
  -2.869542e+01   1.172775e+01
   1.138299e+01   1.556828e+01
   1.375688e+01   8.612055e+00
  -7.923944e+01  -1.080464e+01
  -7.439608e+01  -3.111974e+01
  -3.005678e+00  -4.581182e+01
   1.257554e+02  -9.191963e+01
   1.761383e+02  -6.859837e+01
   1.802113e+02   6.587032e+01
   5.068175e+01   1.610612e+02
  -7.107451e+01   1.710183e+02
  -1.053289e+02   6.047191e+01
  -7.821760e+01  -5.590655e+00
   1.051835e+01  -3.199466e+01
  -1.028647e+01  -3.225775e+01
  -1.505359e+01  -1.570002e+01
  -3.330761e+01  -3.957677e+01
  -1.494670e+01  -4.148138e+01
   6.552470e+01  -5.835327e+01
   7.301828e+01   1.757247e+01
   5.504007e+01   1.078878e+02
   1.223710e+01   1.234692e+02
  -7.817610e+01   3.870770e+01
  -1.277549e+02  -2.685127e+01
  -3.240190e+01  -9.264218e+01
   7.140923e+01  -5.237862e+01
   9.363858e+01   3.872223e+01
   4.315786e+01   1.712026e+01
  -1.550763e+01   6.731635e+01
  -3.649122e+01   3.291940e+01
   1.157464e+01  -1.637857e+01
   3.199967e+01   8.121377e+00
   1.418335e+01   3.086790e+01
  -1.050845e+02   5.728736e+01
  -9.806178e+01   6.855284e+01
  -8.025328e+01   1.214353e+01
   4.396076e+01  -9.566279e+01
   9.162816e+01  -7.770732e+01
   2.377216e+01  -3.886472e+01
   3.212175e+01   8.007375e+01
  -6.323530e+01  -6.147436e-01
  -2.356421e+01  -1.425558e+01
  -3.041725e+01  -2.544547e+01
  -8.453735e+00  -2.285959e+00
   3.411821e+01   2.769373e+00
   4.506400e+01   5.624328e+01
   3.815129e+01  -2.452195e-01
  -4.920103e+01  -2.798799e+01
  -6.896414e+00  -3.943991e+01
   1.931541e+01   1.799239e+01
  -2.259113e+00   6.208890e+01
  -3.539993e+00   1.678001e+01
   9.010972e-01  -2.475734e+01
  -3.554639e+00  -3.686666e+01
   4.461119e+00  -3.438500e-01
   9.245738e+01   1.560630e+01
   3.308051e+00   4.051918e+01
  -8.321746e+01   8.889298e+00
  -1.203720e+02  -2.857412e+01
   1.520459e+01  -2.989621e+01
   3.653366e+01  -2.611687e+01
   9.880175e+01   9.012905e+00
   2.205691e+01  -1.631982e+01
  -3.957709e+01   8.476645e+00
  -2.096196e+01  -6.161707e+00
   4.396410e+01  -2.404285e+01
   8.496956e+01   7.347593e+00
