
 $NMID
 id='ANONYMOUS ', fmtdat='(2E16.6)'
 volume=1.0
 tramp=1.0
 $END
  -4.014041e+03  -4.835810e+01
  -2.713918e+03  -2.170905e+03
   6.685315e+02  -2.845897e+03
   2.011365e+03  -1.288663e+03
   1.072984e+03   3.696503e+02
  -6.623554e+02   6.269492e+02
  -9.311880e+02  -5.689858e+02
  -5.678259e+01  -1.049235e+03
   7.256585e+02  -8.891178e+02
   8.977962e+02  -3.007586e+01
   4.335833e+02   7.408944e+02
  -2.414168e+02   9.061626e+02
  -6.744258e+02   1.897255e+02
  -4.029854e+02  -5.956967e+02
   1.753415e+02  -6.409854e+02
   5.195301e+02  -9.245836e+01
   2.918416e+02   7.093664e+02
  -2.793787e+02   6.597260e+02
  -5.690151e+02   8.986239e+01
  -3.804912e+02  -3.660263e+02
  -6.188605e+01  -4.553284e+02
   1.922692e+02  -2.037103e+02
   2.146124e+02  -6.540432e+01
  -8.528936e+01   1.851862e+01
  -3.744048e+02  -9.322393e+01
  -2.335586e+02  -4.210828e+02
   3.968900e+02  -3.736633e+02
   8.073917e+02   3.724916e+00
   5.025502e+02   3.851428e+02
  -2.683841e+02   5.097782e+02
  -6.499506e+02   3.822924e+01
  -3.218303e+02  -4.777434e+02
   2.927860e+02  -5.115085e+02
   5.330682e+02  -2.400322e+02
   3.938545e+02   1.995765e+02
   1.565980e+02   4.727263e+02
  -1.417901e+02   3.112806e+02
  -1.544911e+02  -1.444852e+02
   4.314806e+01  -3.912094e+02
   4.387790e+02   3.805123e+01
   1.744288e+02   6.095262e+02
  -2.454032e+02   7.205115e+02
  -5.622109e+02   2.972310e+01
  -2.271795e+02  -4.522016e+02
   2.476664e+02  -3.072633e+02
   3.364285e+02   1.897544e+02
  -2.082342e+01   5.037574e+02
  -4.957972e+02   1.293974e+02
  -5.856596e+02  -3.571945e+02
  -2.180322e+02  -5.416645e+02
   3.312515e+02  -3.145995e+02
   5.937300e+02   4.697760e+01
   3.739646e+02   4.001696e+02
  -1.321996e+02   3.430159e+02
  -4.373823e+02   6.890847e+01
  -2.701114e+02  -1.627099e+02
   5.641493e+01  -1.150334e+02
   1.590581e+02   1.190370e+02
  -1.280804e+02   1.500189e+02
  -2.874776e+02  -3.245617e+01
  -1.380307e+02  -2.214907e+02
   1.784963e+02  -2.511880e+02
   3.065078e+02  -6.328585e+01
   1.622948e+02   9.670586e+01
  -6.598312e+01   2.373004e+02
  -2.472592e+02   2.677732e+02
  -3.292520e+02   1.953791e+02
  -2.740220e+02  -1.770791e+02
  -5.725475e+01  -4.396383e+02
   1.085246e+02  -3.569800e+02
   1.611851e+02  -1.366941e+02
   4.705623e+01  -1.944938e+01
   2.690363e+01  -6.019990e+01
   1.845320e+02  -1.520335e+02
   2.424108e+02   5.559252e+01
   1.616543e+02   2.347414e+02
  -2.676184e+01   2.056744e+02
  -2.347125e+02   2.359249e+01
  -1.813345e+02  -2.080052e+02
   3.820586e+01  -2.941291e+02
   2.282598e+02  -1.027119e+02
   3.406981e+02   1.195283e+02
   2.230574e+02   3.190596e+02
  -8.814473e+01   3.078148e+02
  -2.174640e+02   1.245772e+02
  -1.175625e+02   1.597649e+01
  -7.968213e+01   2.063122e+01
  -2.566039e+02   1.007800e+02
  -4.047573e+02  -5.814173e+01
  -3.120232e+02  -2.333292e+02
  -5.980200e+01  -4.355729e+02
   3.466087e+02  -3.976968e+02
   4.584229e+02  -1.705024e+02
   3.450943e+02   1.236692e+02
   8.489189e+01   2.558110e+02
  -1.046588e+02   2.001819e+02
  -4.959520e+01   2.758367e+01
   1.481874e+02  -6.927203e+01
   1.300829e+02   2.821391e+01
   7.211442e+01   2.129190e+02
  -1.370555e+02   1.420020e+02
  -1.943608e+02  -6.190879e+01
  -2.757191e+01  -1.707130e+02
   2.174414e+02  -2.498766e+01
   1.760118e+02   2.478275e+02
  -4.270593e+01   3.175495e+02
  -2.472164e+02   2.140350e+02
  -3.486682e+02  -7.562113e+01
  -2.714150e+02  -2.846603e+02
  -8.106780e+01  -2.749552e+02
   9.682562e+01  -1.595651e+02
   1.473701e+02  -3.749704e+01
   4.515182e+01   5.039063e+01
  -3.224426e+01  -3.322796e+01
  -4.087957e+01  -1.602124e+02
   7.330005e+01  -1.143047e+02
   1.342780e+02   5.183399e+01
   5.018424e+01   4.762685e+01
  -7.887874e+01   6.045717e+00
  -8.483677e+01  -8.529849e+01
   1.290584e+02  -5.471876e+01
   2.485057e+02   4.282460e+00
   2.160586e+02   1.664035e+02
   6.088726e+01   2.716563e+02
  -1.502560e+02   2.645478e+02
  -2.678443e+02   1.425649e+02
  -2.147871e+02  -4.877773e+01
   1.373988e+01  -1.196277e+02
   7.022491e+01  -6.417910e+00
  -1.280609e+01   1.084296e+02
  -1.911924e+02   5.714739e+01
  -1.886389e+02  -1.197420e+02
  -8.426612e+01  -1.946002e+02
   6.463091e+01  -1.367813e+02
   1.214617e+02  -5.057273e+01
   1.323408e+01   5.950579e+01
  -4.922960e+01  -4.897899e+00
  -7.094182e+00  -3.908356e+01
   6.707061e+01  -8.210532e+01
   1.955646e+02  -6.276763e+01
   1.540766e+02   1.430065e+02
   1.515778e+00   1.869564e+02
  -1.752730e+02   1.987709e+02
  -2.324681e+02   2.424379e+01
  -6.466186e+01  -5.208557e+01
   5.836801e+01  -1.103940e+02
   9.605898e+01  -2.529833e+01
   2.212346e+01   4.641890e+01
  -3.425981e+01   2.028453e+01
   2.059466e+01  -4.896467e+01
   7.343630e+01  -9.654837e+00
   1.004410e+02   8.220729e+01
   1.896996e+01   1.578202e+02
  -1.129112e+02   1.474697e+02
  -2.018502e+02   5.237199e+01
  -1.619331e+02  -1.354045e+02
  -3.969857e+01  -2.156264e+02
   1.246596e+02  -2.066030e+02
   1.067467e+02  -3.228328e+01
   8.400850e+01   6.847661e+01
   2.821442e+01   3.350537e-01
   6.497242e+01   5.144383e-01
   9.645471e+01   6.355825e+00
   6.460631e+01   5.022885e+01
  -1.971459e+01   7.557347e+01
  -1.261173e+02   3.040123e+01
  -1.429682e+02  -2.303365e+00
   4.445203e+01  -1.554543e+02
   1.394421e+02  -7.018188e+01
   1.949564e+02   5.414583e+01
   8.467231e+01   2.165838e+02
  -8.034760e+01   2.063290e+02
  -2.762330e+02   7.498640e+01
  -2.674914e+02  -4.646814e+01
  -1.229560e+02  -1.830862e+02
   2.708744e+01  -1.391278e+02
   1.370380e+02  -8.546579e+01
   4.600022e+01  -4.698480e+01
   8.940218e+01  -9.997916e+01
   7.600476e+01  -8.515513e+01
   1.014532e+02   8.376730e+00
   1.465015e+02   1.215038e+02
   2.236553e+01   2.275448e+02
  -1.195247e+02   1.596154e+02
  -1.676394e+02   3.196843e+01
  -1.271196e+02  -1.050440e+02
  -1.885785e+01  -1.297735e+02
   5.640431e+01  -1.028947e+02
   5.621698e+01   2.470870e+00
  -2.031723e+01   1.170288e+02
   3.412179e+00   4.178420e+01
   7.865042e+01   4.300070e+01
   6.274223e+01   3.839149e+01
   6.254375e+01   4.791189e+01
  -4.760701e+01   5.115857e+01
  -1.651276e+02  -1.627693e+01
  -1.296960e+02  -5.260991e+01
  -7.963466e+00  -7.551996e+01
   1.102067e+02  -7.404699e+01
   1.571963e+02   3.051162e+01
   3.298497e+01   4.235483e+01
  -7.796780e+01   4.376323e+01
  -1.075113e+02  -1.077620e+01
   5.656120e+00  -4.223886e+01
   4.992845e+01  -4.341857e+01
   6.966916e+01  -1.973848e+01
   3.688665e+01   2.400133e+01
   3.757823e+01   4.359165e+01
   7.120342e+01  -2.614149e+01
   8.007988e+01  -1.423171e+00
   2.286227e+01   7.306112e+01
  -2.850821e+01   1.432053e+02
  -1.357976e+02   1.482657e+02
  -1.510710e+02  -2.400273e+01
  -1.621468e+02  -7.939399e+01
   3.713308e+01  -1.071005e+02
   8.870338e+01  -7.071032e+01
   6.263092e+01   2.678494e+01
  -5.323253e+01   3.632180e+01
  -1.705943e+02  -1.443879e+01
  -1.187786e+02  -7.593191e+01
   8.421793e+01  -1.362200e+02
   2.016736e+02  -3.307454e+01
   1.543148e+02   2.383910e+01
   8.050822e-01   1.115173e+02
  -3.245990e+01   6.263789e+01
  -3.258844e+01   2.383148e+01
   2.031017e+01  -4.737413e+00
   6.055306e+01  -6.787895e-01
   1.978829e+01   1.220321e+02
  -7.155903e+01   1.443914e+02
  -1.527096e+02   5.162266e+01
  -1.084585e+02  -5.670960e+01
  -1.717510e+01  -1.739125e+02
   6.138651e+01  -1.284580e+02
   6.554368e+01   1.101795e+01
   3.423810e+01   1.163320e+02
  -2.381700e+00   9.178365e+01
  -5.198520e+01   5.932627e+01
  -3.850679e+01  -2.756365e+01
  -3.493844e+01   2.577565e+01
  -3.764692e+01   2.106303e+01
  -1.662649e+01  -3.679739e+01
  -6.812003e+01  -8.518392e+01
  -5.460580e+01  -1.361949e+02
   4.552791e+01  -3.474497e+01
   1.222713e+02   3.825289e+01
   1.587881e+02   9.803981e+01
  -6.899369e+00   4.123506e+01
  -7.168586e+01  -1.944021e+01
  -6.498547e+01   5.402881e+00
  -4.320765e+01  -8.276177e+00
   3.044172e+01  -8.008626e+00
  -1.235367e-01   2.337421e-01
  -2.400131e+01  -1.030490e+01
   2.664100e+00   3.975823e+00
   7.642286e+01  -2.004704e+01
   1.087978e+02  -2.982251e+00
   3.804000e+01   9.514770e+01
  -1.088104e+02   1.468238e+02
  -1.827054e+02   4.404117e+01
  -1.922786e+02  -5.249631e+01
  -3.302672e+01  -1.325987e+02
   1.047540e+02  -1.731583e+02
   9.422880e+01  -6.000700e+01
   7.584953e+01   2.942926e+01
   1.592428e+01   3.796597e+01
  -1.093012e+00   2.976220e+01
  -8.691370e+00  -2.791033e+01
   5.344523e-01   7.128490e+01
   4.404981e+01   1.042417e+02
  -2.929975e+01   9.963551e+01
  -4.669445e+01  -1.869043e+01
  -7.313647e+01  -1.045474e+02
   1.551797e+01  -8.933269e+01
   8.005858e+01  -4.814133e+01
   1.052880e+02   9.286954e+01
   1.443637e+01   1.098439e+02
  -5.877707e+01   8.104443e+01
  -1.023936e+02  -2.872489e+00
  -4.889048e+01  -4.395380e+01
   1.920270e+01  -3.603593e+01
   2.510477e+01  -3.861464e+00
  -2.392777e+01   1.364923e+01
  -5.635958e+01   4.021254e+01
  -3.972402e+00  -3.398495e+01
   8.553747e+01  -1.219324e+02
   1.029445e+02  -2.156545e+01
   7.699177e+01   4.765082e+01
  -2.728427e+01   1.061658e+02
  -5.741933e+01   1.033472e+02
  -3.463419e+01   1.809963e+01
   3.778790e+00  -5.808728e+01
   7.052190e+00  -2.764663e+01
   5.920577e+01   1.882054e+01
   4.496044e+01   4.107016e+01
   1.208439e+01   3.919621e+01
  -3.791106e+01  -3.704588e+01
  -9.324249e+00  -2.166526e+01
  -1.487360e+01  -2.524114e+01
   7.416226e+00   3.320923e+01
  -4.721691e+01  -3.410247e+01
  -2.656975e+01  -1.959379e+01
   4.731326e+01  -4.911210e+01
   2.791281e-01  -4.764352e+01
   2.079690e+01   6.746354e+01
   2.066738e+01   7.738343e+01
  -5.648277e+01   3.238838e+01
  -9.069064e+01  -6.651784e+01
  -4.670997e-01  -5.637537e+01
   3.220312e+01  -2.723041e+01
   8.669514e+01   1.810904e+01
   7.377171e+01   3.253099e+01
  -1.402451e+01   5.792335e+01
  -4.804250e+01   6.795359e+01
  -1.034435e+01  -5.513621e+00
   4.764453e+01   1.011703e+01
   6.322301e+01   6.662798e+00
  -2.604752e+01   1.828038e+01
  -8.501128e+01   2.921492e+01
