
 $NMID
 id='ANONYMOUS ', fmtdat='(2E16.6)'
 volume=1.0
 tramp=1.0
 $END
  -4.759022e+03   1.635734e+02
  -2.978392e+03  -3.043553e+03
   9.295661e+02  -2.905772e+03
   2.336556e+03  -8.313854e+02
   1.100099e+03   7.472327e+02
  -5.757727e+02   5.983904e+02
  -9.916410e+02  -3.970350e+02
  -8.868920e+01  -1.075740e+03
   8.191315e+02  -7.797525e+02
   1.040694e+03   1.514117e+02
   4.570559e+02   9.236071e+02
  -2.890343e+02   9.768395e+02
  -8.429424e+02   1.201134e+02
  -4.443633e+02  -6.857228e+02
   3.504114e+02  -8.196070e+02
   6.974521e+02  -3.663802e+01
   2.470979e+02   7.447886e+02
  -3.986328e+02   6.456506e+02
  -6.466931e+02   1.586592e+02
  -3.605934e+02  -4.465800e+02
   3.650316e+01  -4.710255e+02
   2.955231e+02  -2.214150e+02
   1.869262e+02  -2.503392e+01
  -1.101146e+02   1.170603e+02
  -4.773662e+02  -5.955578e+01
  -1.852493e+02  -3.425631e+02
   4.573505e+02  -4.449220e+02
   9.023397e+02   5.263104e+01
   5.713889e+02   4.924530e+02
  -3.666111e+02   5.588880e+02
  -8.033728e+02   6.842608e+01
  -3.738522e+02  -4.843135e+02
   3.190926e+02  -5.830916e+02
   5.478761e+02  -3.028248e+02
   4.689108e+02   2.242896e+02
   7.128745e+01   4.989984e+02
  -2.128652e+02   3.862483e+02
  -1.897598e+02  -2.479730e+02
   1.023866e+02  -5.321608e+02
   4.843903e+02   3.775210e+00
   2.026725e+02   6.936877e+02
  -2.650996e+02   7.508940e+02
  -6.678798e+02   9.655163e+00
  -3.047000e+02  -5.566492e+02
   3.253622e+02  -3.227131e+02
   3.625665e+02   3.409764e+02
  -9.661810e+01   5.954849e+02
  -6.147405e+02   1.550034e+02
  -6.334112e+02  -3.932046e+02
  -1.933348e+02  -5.970873e+02
   3.625295e+02  -4.059422e+02
   7.083403e+02   7.824714e+01
   3.845944e+02   3.772693e+02
  -1.365544e+02   3.829748e+02
  -4.737610e+02   6.463735e+01
  -2.581819e+02  -2.288205e+02
   1.732314e+02  -1.611979e+02
   1.456161e+02   1.077703e+02
  -1.927805e+02   2.546400e+02
  -3.916893e+02  -5.185193e+01
  -1.493119e+02  -3.532991e+02
   1.890637e+02  -2.873461e+02
   3.500384e+02  -1.094004e+02
   2.030828e+02   6.290753e+01
  -4.890931e+01   1.780670e+02
  -2.261092e+02   3.384944e+02
  -3.459361e+02   2.730247e+02
  -3.490873e+02  -1.095263e+02
  -7.188330e+01  -4.860090e+02
   1.059569e+02  -4.265651e+02
   1.641384e+02  -1.542966e+02
   1.232502e+01   3.590956e+01
   4.241845e+01  -5.305038e+01
   2.074390e+02  -1.340671e+02
   3.177987e+02   5.436046e+01
   1.456090e+02   2.727512e+02
  -4.848746e+01   2.708945e+02
  -2.438386e+02   4.283253e+01
  -2.210423e+02  -2.483449e+02
   3.872216e-01  -3.224122e+02
   3.009868e+02  -1.501075e+02
   3.755246e+02   1.575699e+02
   2.128758e+02   3.472781e+02
  -1.147659e+02   2.833670e+02
  -2.758805e+02   1.208373e+02
  -1.421710e+02  -1.646312e+01
  -1.164883e+02   4.972177e+01
  -2.080668e+02   7.060526e+01
  -3.856301e+02  -4.430962e+01
  -3.487499e+02  -2.675071e+02
   5.946771e+00  -4.410749e+02
   3.950689e+02  -4.088273e+02
   4.482274e+02  -2.406990e+02
   3.594998e+02   7.999573e+01
   2.033136e+01   3.072790e+02
  -1.442580e+02   2.939883e+02
  -8.691467e+01   3.190487e+01
   8.260930e+01  -1.419651e+02
   2.031294e+02   4.058783e+01
   9.616524e+01   2.017196e+02
  -1.570151e+02   2.332813e+02
  -1.843736e+02  -4.959040e+01
   2.423125e+00  -2.058101e+02
   2.375289e+02  -8.766510e+01
   1.980678e+02   2.288407e+02
  -1.971702e+01   3.604744e+02
  -2.470333e+02   2.053980e+02
  -3.447619e+02  -6.035797e+01
  -3.025557e+02  -2.334694e+02
  -1.308854e+02  -2.704668e+02
   1.322685e+02  -1.739367e+02
   1.656025e+02  -3.260710e+01
   2.901831e+01   2.534154e+01
  -5.465855e+01  -2.518182e+01
  -5.556533e+01  -1.277183e+02
   1.192464e+02  -9.794816e+01
   2.067610e+02   4.748294e+01
   5.963756e+01   4.636765e+01
  -6.738963e+01   2.006748e+01
  -4.677513e+01  -8.410919e+01
   1.222629e+02  -7.276123e+01
   2.438595e+02   1.111394e+01
   2.601447e+02   1.396139e+02
   6.582576e+01   2.386471e+02
  -1.953400e+02   2.917984e+02
  -2.971146e+02   1.425837e+02
  -1.806360e+02  -2.898013e+01
   1.863981e+00  -1.219797e+02
   1.264553e+02   1.070694e+01
  -4.863250e+01   1.106094e+02
  -2.168116e+02   7.713395e+01
  -2.342775e+02  -6.367070e+01
  -6.895974e+01  -2.206374e+02
   8.306633e+01  -1.553713e+02
   1.537812e+02  -4.960566e+01
   8.414276e+01   4.423262e+01
  -2.465060e+01   5.534580e+00
  -4.853104e+01  -5.358699e+01
   4.933432e+01  -1.170682e+02
   2.224501e+02  -1.350378e+01
   2.403368e+02   1.298476e+02
   2.849227e+01   2.227640e+02
  -1.351858e+02   1.526961e+02
  -1.862604e+02   5.045990e-01
  -1.054133e+02  -1.403360e+02
   6.481262e+01  -1.088711e+02
   5.134230e+01  -4.038233e+01
   3.460439e+01   5.064423e+00
  -1.788169e+01   1.745950e+01
  -7.781870e+00  -2.071080e+01
   8.882831e+01   2.554047e+00
   1.074856e+02   8.874043e+01
   1.439242e+01   1.619107e+02
  -1.152156e+02   1.387663e+02
  -2.698693e+02   5.054919e+01
  -1.648045e+02  -1.455772e+02
  -7.208391e+01  -2.442558e+02
   1.103479e+02  -1.970912e+02
   1.691583e+02  -2.518158e+01
   6.847818e+01   8.608684e+01
   1.915425e+01   1.664520e+00
   4.209899e+01  -1.437070e+01
   9.799890e+01  -4.186999e+01
   5.210531e+01   6.821990e+01
  -4.945640e+01   8.991123e+01
  -1.160760e+02   7.127084e+01
  -5.956261e+01  -5.305540e+01
   1.007402e+01  -8.935263e+01
   1.311265e+02  -8.274815e+01
   2.217975e+02   6.701509e+01
   1.048026e+02   2.430893e+02
  -8.842928e+01   2.216456e+02
  -2.770696e+02   9.009337e+01
  -2.400720e+02  -8.672256e+01
  -1.153310e+02  -2.122560e+02
   5.189119e+01  -1.380346e+02
   7.515952e+01  -8.724449e+01
   8.004946e+01  -8.884379e+01
   7.481641e+01  -9.369768e+01
   9.343935e+01  -8.604428e+01
   1.127201e+02   4.862450e+01
   9.712460e+01   1.493569e+02
   5.410941e+01   2.298189e+02
  -7.272077e+01   1.599159e+02
  -1.657200e+02   3.652076e+01
  -1.396189e+02  -9.400668e+01
  -1.511721e+01  -1.765113e+02
   7.602323e+01  -1.082361e+02
   4.971330e+01   1.628808e+01
   2.906772e+01   7.706978e+01
  -1.673068e+01  -4.426514e+00
   2.342918e+01   4.647608e+01
   8.414566e+01   3.167198e+01
  -2.670273e+00   4.326410e+01
  -6.330168e+01   3.268680e+01
  -1.498845e+02   3.527245e+00
  -1.492112e+02  -5.339337e+01
  -7.020365e+00  -9.236347e+01
   1.250288e+02  -6.427149e+01
   1.310744e+02  -2.477199e+01
   3.821295e+01   2.775514e+01
  -7.362603e+01   2.253363e+01
  -3.552682e+01  -2.401452e+01
  -2.485857e+01  -8.187531e+01
   3.850324e+01  -3.901251e+01
   7.932556e+01   8.849638e+00
   4.278014e+01   5.504927e+01
   3.039071e+01   2.822916e+01
   1.084504e+02   1.085632e+01
   1.018389e+02  -3.978623e+01
   3.816899e+01   4.314144e+01
  -2.926885e+01   1.308708e+02
  -1.163581e+02   1.708684e+02
  -2.043719e+02   2.463320e+01
  -1.176924e+02  -9.186413e+01
  -3.249158e+00  -1.146527e+02
   1.401331e+02  -6.493491e+01
   5.037943e+01   1.661613e+01
  -6.930862e+01   1.109233e+01
  -1.133513e+02  -3.794098e+01
  -9.981913e+01  -9.234034e+01
   8.013826e+01  -9.321690e+01
   2.158037e+02  -5.454674e+01
   1.698975e+02   8.431415e+00
   4.821308e+01   1.019611e+02
  -6.915444e+01   6.974710e+01
  -4.115737e+01  -2.293197e+00
   2.933708e+01  -2.005342e+01
   8.581194e+01   3.191680e+01
   4.480021e+01   6.763913e+01
  -1.074796e+02   1.556774e+02
  -1.450156e+02   5.607319e+01
  -1.701671e+02  -1.468221e+02
  -2.171405e+00  -1.681348e+02
   8.049524e+01  -1.232560e+02
   9.370333e+01   1.961665e+01
   8.287671e+01   5.024311e+01
   1.567672e+00   1.401618e+02
  -5.305033e+00   3.085587e+01
  -4.181393e+01  -3.970221e+01
  -3.442256e+01  -2.063561e+01
   2.935408e+00  -7.244393e+00
  -2.112692e+01  -1.285691e+01
  -3.114696e+01  -1.035496e+02
  -5.511875e+01  -1.170697e+02
   2.569352e+00  -1.925770e+01
   1.151730e+02   2.968106e+01
   1.175265e+02   8.559154e+01
  -3.396510e+00   5.948979e+01
  -1.016901e+02   1.136639e+01
  -1.001657e+02   1.250779e+01
   1.463904e+01  -7.335175e+00
   3.851340e+01  -5.102561e+01
   1.940202e+01  -1.195169e+01
  -8.449244e+00   3.387927e+00
  -1.893356e+01  -1.753287e+01
   2.581395e+01   5.810213e+00
   9.858211e+01   3.435775e+01
   1.653975e+00   5.712772e+01
  -1.558387e+02   1.057319e+02
  -1.715218e+02   6.928016e+01
  -1.472094e+02  -8.302401e+01
  -3.783346e+01  -1.787811e+02
   7.742649e+01  -1.487032e+02
   1.270370e+02  -4.024055e+01
   1.258246e+02   5.902949e+01
   2.135106e+01   4.374499e+01
  -2.880637e+00   3.540502e+00
   7.961008e+00  -3.642159e+01
   7.746236e+01   6.637274e+01
  -5.813715e+00   7.783945e+01
  -4.107031e+01   8.282014e+01
  -3.486428e+01  -1.844882e+00
  -9.458174e+01  -1.080215e+02
   6.633403e+00  -5.625716e+01
   7.181574e+01  -1.784639e+01
   7.459618e+01   4.895750e+01
   3.216048e+01   7.125000e+01
  -9.204145e+01   7.714845e+01
  -8.877996e+01  -2.402427e+01
  -4.876603e+01  -2.794071e+01
   4.101724e+01  -6.288877e+01
   4.955868e+01  -4.150341e+01
   2.606657e+00   1.727989e+01
  -8.541122e+01   2.789024e+01
  -2.046318e+01  -9.808064e+00
   4.423190e+01  -7.457603e+01
   1.327070e+02  -8.560256e+01
   2.981280e+01   9.339928e+00
  -2.018362e+01   8.922792e+01
  -4.271352e+01   8.076369e+01
  -6.111317e+01   1.255834e+01
   1.854848e+01  -1.042784e+02
   3.623855e+01  -1.477891e+01
   3.459765e+01  -3.657323e+01
   5.613107e+00   3.220481e+01
   7.574156e+00  -2.232583e+01
  -4.232390e+01   1.059901e+00
  -4.310177e+01   1.046651e+01
   9.631010e+00  -2.590363e+01
   1.065386e+01  -3.890160e+00
  -9.935984e-01   3.248014e+01
   2.843862e+01  -3.585817e+01
   1.381248e+01  -4.810104e+01
   2.944829e+01   2.862014e+01
   2.831136e+01   5.881980e+01
   1.222675e+01   5.804292e+01
  -4.540262e+01   4.668971e+01
  -9.593071e+01  -6.279217e+01
  -4.493421e+01  -4.644292e+01
   4.213245e+01  -4.747692e+01
   1.158015e+02   6.157218e+00
   6.942934e+01   1.994413e+01
  -7.303676e+01   3.091197e+01
  -8.980475e+01   5.233407e+01
  -3.586207e+01   3.236668e+01
   5.277244e+01  -1.430729e+01
   5.012324e+01  -2.646806e+00
  -3.563951e+01   2.747561e+01
  -1.268864e+02   1.306505e+01
