
 $NMID
 id='ANONYMOUS ', fmtdat='(2E16.6)'
 volume=1.0
 tramp=1.0
 $END
   3.735346e+03  -1.665447e+02
   2.373391e+03   2.346007e+03
  -3.544812e+02   2.721939e+03
  -1.561792e+03   1.237152e+03
  -1.163018e+03  -3.158361e+02
   2.981748e+02  -7.904694e+02
   7.593355e+02   1.628648e+02
   8.396773e+01   8.580879e+02
  -7.034541e+02   8.144471e+02
  -9.175726e+02   1.047783e+02
  -5.185924e+02  -7.394556e+02
   1.331959e+02  -8.584481e+02
   4.992893e+02  -2.290819e+02
   4.046769e+02   5.436471e+02
  -4.391886e+01   8.189339e+02
  -5.914789e+02   6.953837e+01
  -2.419727e+02  -6.005307e+02
   2.566656e+02  -6.882950e+02
   5.637842e+02  -2.351735e+02
   4.562783e+02   3.018089e+02
   8.870300e+01   4.562491e+02
  -2.313643e+02   2.799516e+02
  -1.407897e+02   9.434912e+01
   8.605145e+01  -8.858464e+00
   3.321350e+02   1.809463e+02
   1.962827e+02   3.412446e+02
  -3.810064e+02   2.602229e+02
  -6.482965e+02  -1.069889e+02
  -4.763889e+02  -4.783566e+02
   3.586133e+02  -3.261564e+02
   6.462844e+02  -1.967647e+01
   3.166802e+02   3.952208e+02
  -2.555793e+02   4.690558e+02
  -4.775668e+02   2.622493e+02
  -4.484197e+02  -2.063777e+02
  -1.561181e+02  -3.345289e+02
   1.376335e+02  -2.557401e+02
   1.606615e+02   1.528547e+02
  -8.739292e+01   3.646356e+02
  -3.299752e+02  -2.280269e+01
  -3.042093e+02  -5.939701e+02
   1.779839e+02  -5.863012e+02
   5.384292e+02   2.276077e+01
   3.250246e+02   4.958138e+02
  -1.741441e+02   3.284122e+02
  -3.433627e+02  -2.627891e+02
   6.079275e+01  -4.913935e+02
   5.314210e+02  -1.650053e+02
   5.876295e+02   3.704985e+02
   1.741902e+02   5.703417e+02
  -3.746277e+02   3.379007e+02
  -6.279680e+02  -2.557722e+01
  -3.877227e+02  -3.769334e+02
   7.657252e+01  -3.158318e+02
   3.602249e+02  -7.273113e+01
   2.618717e+02   7.370729e+01
  -5.933488e+01   1.047019e+02
  -1.116753e+02  -8.177919e+01
   1.308588e+02  -1.394025e+02
   3.451348e+02   1.803352e+01
   1.656222e+02   2.479844e+02
  -1.705634e+02   2.967684e+02
  -3.399992e+02   1.646316e+02
  -2.300809e+02  -1.496454e+02
   5.075308e+01  -2.865128e+02
   2.306032e+02  -3.424683e+02
   3.313928e+02  -2.310779e+02
   2.541123e+02   1.630223e+02
   9.004540e+01   3.856412e+02
  -6.920329e+01   4.514235e+02
  -9.559331e+01   1.277442e+02
  -6.385291e+01   3.895972e+01
  -1.124501e+02   9.496252e+01
  -2.231123e+02   9.043750e+01
  -2.840962e+02  -1.430137e+02
  -1.522073e+02  -2.490418e+02
   4.337811e+01  -2.233307e+02
   1.697116e+02   3.059765e+00
   1.946070e+02   2.565743e+02
  -1.396925e+01   2.323185e+02
  -3.113465e+02   1.020319e+02
  -3.575485e+02  -8.401392e+01
  -2.160740e+02  -2.977655e+02
   1.174301e+02  -2.850773e+02
   2.437961e+02  -1.791948e+02
   1.544629e+02  -4.393617e+01
   1.312698e+02  -7.875199e+01
   2.388349e+02  -4.359089e+01
   4.102178e+02   6.288457e+01
   3.557110e+02   3.104175e+02
  -2.988176e+00   4.125322e+02
  -3.720953e+02   3.568478e+02
  -4.492357e+02   2.351210e+02
  -3.657372e+02  -7.270481e+01
  -5.710076e+01  -3.020530e+02
   1.348702e+02  -2.581570e+02
   6.178760e+01  -9.102983e+01
  -9.577398e+01   1.201162e+02
  -1.904486e+02   2.880900e+00
  -5.178150e+01  -1.849367e+02
   1.212005e+02  -1.549376e+02
   1.547534e+02   4.647495e+01
   3.252797e+01   2.152154e+02
  -1.909258e+02   1.341883e+01
  -1.885304e+02  -2.470820e+02
   4.783209e+01  -3.589310e+02
   2.482161e+02  -2.128358e+02
   3.659133e+02   6.089065e+01
   2.560592e+02   2.527429e+02
   1.114804e+02   2.953404e+02
  -1.396909e+02   1.503184e+02
  -1.776223e+02  -3.341587e+00
  -5.167281e+01  -3.497523e+01
   4.795486e+01   1.833258e+01
   2.545229e+01   1.090936e+02
  -1.302064e+02   1.041718e+02
  -1.637625e+02  -2.597087e+01
  -3.668591e+01  -4.030113e+01
   8.583879e+01   2.967643e+01
   3.853012e+01   7.913369e+01
  -1.307093e+02   9.253499e+01
  -2.835478e+02   1.210351e+01
  -2.420690e+02  -1.703921e+02
  -2.261086e+01  -2.742362e+02
   2.068416e+02  -2.845003e+02
   2.776725e+02  -1.173247e+02
   1.534506e+02   9.757476e+00
  -4.111469e+01   7.550361e+01
  -7.481182e+01   7.343172e+00
   4.857403e+01  -8.487690e+01
   1.739705e+02  -1.378073e+01
   2.551967e+02   1.175720e+02
   7.803976e+01   1.861267e+02
  -1.320695e+02   1.364580e+02
  -1.348942e+02   2.668735e+00
  -1.046331e+02  -4.889808e+01
   8.668006e+00   1.652577e+01
   1.641116e+01   9.856509e+01
  -7.611731e+01   1.410754e+02
  -2.164353e+02   7.108131e+01
  -1.894936e+02  -1.350717e+02
  -5.260458e+01  -1.906466e+02
   1.410863e+02  -1.464799e+02
   2.003073e+02  -1.403811e+01
   7.126369e+01   1.231438e+02
  -2.823740e+01   8.675766e+01
  -1.187480e+02   4.317746e+01
   8.595845e-01  -1.347306e+01
   4.136603e+01  -4.328841e+01
  -7.667492e+00   1.996875e+01
  -6.735866e+01  -1.202035e+01
  -8.656137e+01  -1.223999e+02
   5.515060e+00  -1.585622e+02
   1.491400e+02  -9.543231e+01
   2.606590e+02   3.399203e+00
   2.029622e+02   1.447093e+02
   4.841128e+01   2.599909e+02
  -1.411625e+02   1.705457e+02
  -1.372435e+02   1.458818e+01
  -4.780109e+01  -9.213779e+01
  -1.085633e+01  -4.391675e+01
  -6.578839e+01   1.092337e+01
  -1.015569e+02   6.985189e+00
   1.478731e+00  -6.796612e+01
   3.566410e+01  -1.093702e+02
   1.330383e+02  -1.166949e+02
   2.730159e+01   2.650894e+01
   3.953052e+01   1.220586e+02
  -1.457645e+02   7.048971e+01
  -1.783499e+02  -9.562873e+01
  -8.893156e+01  -2.144387e+02
   1.659302e+02  -2.312712e+02
   2.901655e+02  -6.532056e+01
   2.745478e+02   1.107160e+02
   1.177767e+02   1.698952e+02
  -3.492267e+01   1.980580e+02
  -7.225155e+01   9.224286e+01
  -6.618045e+01   6.418362e+01
  -7.211371e+01   1.306336e+02
  -1.033513e+02   6.499525e+01
  -1.273694e+02  -5.118899e+01
  -1.468265e+02  -1.566162e+02
  -5.484524e+01  -2.420010e+02
   1.161673e+02  -1.481868e+02
   1.900834e+02  -5.121426e+01
   1.262086e+02   1.098785e+02
  -3.955870e-01   1.538998e+02
  -8.664658e+01   1.106994e+02
  -4.461657e+01  -4.085464e+01
   4.232652e+01  -5.699525e+01
   2.713178e+01  -4.474083e+01
  -2.009644e+01   2.571629e+01
  -8.243096e+01  -4.742628e+01
  -3.771524e+01  -2.259502e+01
   9.969722e+01  -4.112296e+01
   1.548585e+02  -4.289150e+01
   1.494658e+02   6.994319e+01
   1.109368e+01   8.024114e+01
  -1.017164e+02   5.660411e+01
  -1.429036e+02   1.329147e+01
  -8.173127e+01  -1.356355e+01
   5.588373e+01  -4.827646e+01
   8.192107e+01   2.152807e+01
  -1.883115e+01   8.908597e+01
  -8.101440e+01   4.158831e+01
  -4.477091e+01   4.162794e+00
  -2.669979e+01  -5.931160e+01
  -4.317182e+01  -5.477197e+01
  -3.124198e+01  -8.056991e+00
  -7.118257e+01  -1.522214e+01
  -8.105421e+01  -4.615597e+01
   8.149650e-01  -1.540748e+02
   1.200581e+02  -1.440940e+02
   1.723827e+02  -2.453307e+01
   1.226731e+02   8.653684e+01
  -1.255780e+01   1.267818e+02
  -1.040595e+02   1.183548e+01
  -1.084513e+02  -3.101664e+01
   5.007901e+01  -1.994186e+01
   1.508128e+02   4.314651e+01
   5.852867e+01   7.170764e+01
  -8.058803e+01   1.054325e+02
  -2.365075e+02   6.126824e+01
  -1.474610e+02  -2.794005e+01
  -4.117407e+01  -7.653671e+01
   4.991959e+01  -7.463745e+01
   1.660175e+01  -6.630566e-01
  -5.037965e+01  -1.621297e+00
  -8.619789e+01  -6.063929e+01
  -7.141293e+01  -1.189636e+02
   9.254709e+01  -1.270503e+02
   1.574310e+02  -6.973166e+01
   1.125932e+02   1.387296e+02
   1.090027e+01   1.956641e+02
  -9.658932e+01   1.094828e+02
  -9.429938e+01  -2.271306e+01
  -8.679865e+01  -1.076304e+02
   1.265095e+01  -8.545774e+01
   3.228863e+01  -1.484952e+01
   8.183901e+01   3.181323e+01
   6.723544e+01   2.834870e+01
  -2.001589e+01   1.715033e+01
   3.568317e+01   6.143670e+00
   5.984357e+01   1.249189e+02
   5.336130e+01   9.018603e+01
  -5.568548e+01   2.996858e+01
  -1.498394e+02  -3.983187e+01
  -1.149500e+02  -6.592239e+01
  -7.161613e+00  -4.597823e+01
   4.955134e+01  -2.749302e+01
   8.483041e+01   2.520913e+01
   2.658377e+01   2.383526e+01
  -4.031486e+01   3.740366e-01
   1.535200e+01  -1.451458e+01
   1.975496e+01  -1.700463e+00
   1.306652e+01   6.091877e-01
  -6.373325e+01  -1.346023e+01
  -8.147236e+01  -6.473776e+01
  -3.792081e+01  -1.159817e+02
   1.231822e+02  -1.167466e+02
   2.048039e+02  -8.204289e+01
   1.548825e+02   8.880998e+01
   5.507593e+01   1.524533e+02
  -6.460642e+01   2.122219e+02
  -1.234598e+02   8.034478e+01
  -7.227688e+01  -2.764476e+01
  -2.776376e+01  -1.866277e+01
  -1.933082e+01  -3.814324e+01
  -1.953505e+01   9.244699e-01
  -2.921057e+01  -7.241220e+01
  -9.408356e+00  -8.789715e+01
   7.664519e+01  -6.546795e+01
   7.424140e+01   3.544332e+01
   9.809592e+01   8.278610e+01
   3.931248e+01   1.231999e+02
  -1.065130e+02   4.703356e+01
  -9.378834e+01  -5.191477e+01
  -4.089051e+01  -9.215280e+01
   7.458073e+01  -6.704985e+01
   1.121906e+02   1.400976e+01
   3.017457e+01   5.654993e+01
  -2.122183e+01   7.345601e+01
  -5.724085e+01   6.417696e+00
   1.824566e+01   1.198403e+01
   5.699019e+01  -2.603237e+00
  -1.616201e+01   6.228312e+01
  -7.268753e+01   8.664810e+01
  -7.642289e+01   3.953058e+01
  -3.141638e+01  -5.730395e+01
   3.417275e+01  -8.401349e+01
   7.034131e+01  -7.811827e+01
   7.289855e+01  -2.482001e+01
  -4.358613e+00   4.670699e+01
  -2.306757e+01   4.432785e+01
  -5.901394e+01  -2.641159e+01
  -2.611036e+01  -5.069039e+01
   1.492135e+01  -2.285324e+01
   6.082061e+01   1.559820e+01
   5.014795e+01   1.104299e+01
   3.405210e+00   1.737485e+01
  -4.979655e+01  -1.540311e+01
   5.304627e-02   2.129619e+01
  -3.646579e+01   3.920034e+01
   3.816830e+00   6.898323e+01
  -1.609818e+01   3.919344e+01
  -1.381184e+01  -5.611624e+01
  -5.494434e+00  -2.206623e+01
   4.270602e+01  -3.717417e+01
   9.040549e+01   4.812926e+01
   5.073527e+01   7.893397e+01
  -6.038287e+01   7.224968e+01
  -8.802740e+01  -5.679056e+00
  -6.292398e+01  -3.737075e+01
   4.461820e+01  -3.494661e+01
   9.180259e+01  -1.942049e+01
   6.570658e+01  -3.853865e+00
  -3.428951e+01  -1.975183e+00
  -2.544142e+01  -7.115162e+00
   5.147928e+01  -2.066151e+01
   1.244455e+02   6.659380e-01
