
 $NMID
 id='ANONYMOUS ', fmtdat='(2E16.6)'
 volume=1.0
 tramp=1.0
 $END
  -3.465870e+03  -2.271665e+02
  -2.015533e+03  -2.182925e+03
   4.528630e+02  -2.213912e+03
   1.341355e+03  -9.817180e+02
   1.046825e+03   7.601429e+01
  -3.011025e+02   1.505687e+02
  -6.908156e+02  -7.965682e+01
  -9.377983e+00  -7.234107e+02
   5.936619e+02  -5.366658e+02
   7.765509e+02   6.255144e+01
   4.650108e+02   6.566910e+02
  -2.196661e+01   6.717536e+02
  -4.948816e+02   9.544056e+01
  -2.964506e+02  -5.928245e+02
   2.385440e+02  -6.055125e+02
   4.474441e+02   1.248789e+01
   3.089884e+02   5.278750e+02
  -2.201279e+02   5.842030e+02
  -5.406022e+02   2.370329e+02
  -4.585565e+02  -2.489430e+02
  -7.356354e+01  -3.676725e+02
   1.568336e+02  -2.117274e+02
   1.016476e+02  -5.643998e+00
  -1.623896e+02  -3.113482e+01
  -3.722325e+02  -2.355850e+02
  -3.440646e+01  -4.464782e+02
   5.162383e+02  -2.168344e+02
   7.132962e+02   1.751836e+02
   3.157735e+02   4.676212e+02
  -4.398913e+02   2.871510e+02
  -5.556013e+02  -1.924696e+02
  -2.045361e+02  -4.207308e+02
   2.480489e+02  -3.993695e+02
   5.020944e+02  -1.201393e+02
   3.524128e+02   1.696510e+02
   2.868752e+01   4.020558e+02
  -1.189303e+02   2.145900e+02
   8.775227e+00  -1.967015e+02
   2.422019e+02  -2.601693e+02
   3.124801e+02   7.268828e+01
   1.282662e+02   6.313124e+02
  -3.966617e+02   4.756234e+02
  -3.875846e+02  -2.501435e+00
  -2.201880e+01  -3.895759e+02
   2.465505e+02  -1.695070e+02
   1.480029e+02   3.751182e+02
  -2.109174e+02   4.685013e+02
  -5.153109e+02   4.065694e+01
  -5.166650e+02  -3.757375e+02
  -1.106251e+02  -6.018279e+02
   2.917216e+02  -2.575713e+02
   5.600951e+02   1.110928e+02
   3.683820e+02   2.875610e+02
  -5.537515e+01   2.788740e+02
  -3.992591e+02   6.204387e+01
  -2.156510e+02  -1.097502e+02
   9.597907e+00  -6.532506e+01
   8.738738e+01   1.157490e+02
  -1.368200e+02   8.317175e+01
  -2.864650e+02  -9.682516e+01
  -1.142182e+02  -2.271578e+02
   1.457588e+02  -2.528530e+02
   3.280210e+02  -1.018999e+02
   1.927859e+02   6.670764e+01
   1.807124e+01   2.711111e+02
  -2.861555e+02   3.711241e+02
  -4.002735e+02   1.687488e+02
  -2.306607e+02  -1.539659e+02
  -7.029116e+01  -4.004360e+02
   1.132017e+02  -3.481640e+02
   5.403581e+01  -2.173867e+02
   3.079809e+01  -1.430033e+02
   1.146484e+02  -7.960385e+01
   2.228645e+02  -5.467940e+01
   2.921745e+02   9.908865e+01
   1.113742e+02   2.778168e+02
  -1.251669e+02   2.057559e+02
  -1.910872e+02  -1.692453e+01
  -1.684390e+02  -2.431876e+02
   2.020528e+01  -2.545344e+02
   2.841837e+02  -5.594192e+01
   3.328393e+02   2.235235e+02
   1.853195e+02   3.308997e+02
  -7.997019e+01   2.857751e+02
  -1.597392e+02   1.148891e+02
  -1.053020e+02   7.367557e+01
  -1.263203e+02   8.465936e+01
  -3.087027e+02   2.380015e+01
  -4.467088e+02  -8.759859e+01
  -3.370576e+02  -3.231591e+02
   2.559373e+01  -4.573397e+02
   4.030352e+02  -4.524189e+02
   5.121776e+02  -1.404701e+02
   2.903000e+02   6.717545e+01
  -4.344989e+01   2.929988e+02
  -9.900589e+01   2.147641e+02
  -6.333103e+01  -1.287319e+01
   1.535346e+02  -7.888231e+01
   1.378878e+02   5.191534e+01
   1.278493e+01   1.282838e+02
  -1.605329e+02   1.345289e+02
  -1.352657e+02  -7.611949e+01
   5.989396e+01  -1.240292e+02
   1.700886e+02   3.838024e+00
   1.430773e+02   2.173847e+02
  -3.100677e+01   3.910714e+02
  -2.567875e+02   2.067716e+02
  -3.619448e+02  -4.339281e+01
  -2.901626e+02  -2.332026e+02
  -9.190040e+01  -2.888721e+02
   1.251823e+02  -1.328790e+02
   1.345448e+02   1.333415e+01
   4.605372e+01   5.496499e+01
  -4.798068e+01  -6.846923e+01
  -2.606729e+00  -1.530023e+02
   1.497650e+02  -8.436421e+01
   1.809244e+02   7.212076e+01
   5.529657e+01   6.378273e+01
  -1.086766e+02  -4.243499e+01
  -5.218383e+01  -1.010314e+02
   1.874210e+02  -9.699330e+01
   2.789736e+02  -1.770892e+01
   2.607895e+02   1.573619e+02
   1.717912e+01   3.216515e+02
  -1.928831e+02   2.479731e+02
  -2.734394e+02   8.388686e+01
  -1.894802e+02  -4.502945e+01
   2.069567e+01  -6.750045e+01
   6.491747e+01   2.592602e+00
  -3.404452e+01   1.009672e+02
  -1.975689e+02   2.211521e+01
  -1.760494e+02  -6.641012e+01
  -5.010108e+01  -1.700449e+02
   9.640875e+01  -1.530219e+02
   1.347443e+02  -3.569348e+01
   4.693020e+01   6.386446e+01
  -4.893540e+01  -9.204920e+00
  -2.800675e+01  -7.612039e+01
   9.601405e+01  -1.530991e+02
   1.898147e+02  -6.304014e+00
   1.545672e+02   1.534274e+02
  -1.412538e+01   1.904940e+02
  -1.534694e+02   1.814911e+02
  -1.917764e+02   4.292445e+01
  -3.212508e+01  -1.391162e+02
   2.689798e+01  -1.256466e+02
   7.372249e+01  -8.283009e+01
   4.775636e+00   2.244489e+01
  -5.263673e+01   3.478126e+01
  -3.305166e+00  -1.789491e+01
   8.249897e+01  -1.564563e+01
   9.188943e+01   7.931668e+01
   2.157801e+01   1.773453e+02
  -1.432775e+02   1.861622e+02
  -2.590486e+02  -1.575105e+01
  -1.936462e+02  -1.778068e+02
  -4.734140e+01  -1.984506e+02
   1.205681e+02  -1.907975e+02
   1.383919e+02  -5.496437e+01
   3.031471e+01   4.702216e+01
   2.837953e+01   1.802977e+01
   7.687342e+01  -7.211579e+00
   1.049119e+02  -3.222275e+01
   5.350458e+01   5.544779e+01
  -6.707154e+01   1.335639e+02
  -1.125883e+02   9.046042e+01
  -1.170971e+02  -5.082191e+01
   3.891600e+01  -1.430835e+02
   1.681391e+02  -8.430515e+01
   2.346885e+02   9.129036e+01
   3.881516e+01   2.531582e+02
  -1.221289e+02   2.348586e+02
  -2.626576e+02   4.512850e+01
  -2.552512e+02  -9.595129e+01
  -1.265257e+02  -2.014871e+02
   5.656815e+01  -1.246161e+02
   1.181363e+02  -7.842691e+01
   6.346302e+01  -5.095051e+01
   5.909313e+01  -8.100131e+01
   5.284084e+01  -5.924138e+01
   1.377315e+02  -9.876915e+00
   1.323426e+02   1.616736e+02
   5.014674e+01   2.423100e+02
  -6.494232e+01   1.556568e+02
  -1.886681e+02   2.853634e+00
  -1.672551e+02  -1.345499e+02
  -2.254661e+00  -1.399392e+02
   7.661421e+01  -1.025088e+02
   7.421854e+01   1.784578e+01
   2.998913e+01   5.028864e+01
   1.403110e+01   3.819104e+01
   6.680044e+01   2.895164e+01
   5.924037e+01   1.039960e+01
   7.275420e+01   1.524700e+01
  -7.260927e+01   2.088874e+01
  -1.772095e+02   2.475074e+01
  -1.569825e+02  -7.128549e+01
   8.657797e+00  -1.083812e+02
   1.552443e+02  -8.746468e+01
   1.580515e+02  -1.061654e+01
   7.463483e+01   3.586490e+01
  -5.010726e+01   2.728542e+01
  -7.392544e+01  -5.448800e+01
  -9.055742e+00  -5.040313e+01
   4.893484e+01  -6.818718e+01
   3.429377e+01   9.083256e+00
   6.378952e+01   5.795843e+01
   5.279955e+01   6.974598e+01
   3.932156e+01  -1.939961e+01
   9.213012e+01   2.104553e+01
   3.926561e+01   6.167090e+01
  -3.820704e+01   1.685991e+02
  -1.374668e+02   9.462228e+01
  -1.517197e+02   2.432396e+01
  -1.312309e+02  -9.569924e+01
   2.930853e+01  -1.675646e+02
   8.109865e+01  -9.538002e+01
   8.821870e+01   2.588605e+01
  -4.956984e+01   1.163061e+01
  -1.235808e+02  -5.979894e+01
  -3.570802e+01  -1.211012e+02
   6.394316e+01  -1.378134e+02
   2.176335e+02  -3.554360e+01
   1.803254e+02   3.666374e+01
   4.459844e+01   9.706239e+01
  -8.065325e+01   1.503064e+01
  -9.976179e+01  -2.114152e+01
  -1.986462e+00   1.112096e+01
   7.199169e+01   1.855836e+01
   5.056420e+01   1.451778e+02
  -8.672005e+01   1.533023e+02
  -1.865771e+02   3.568804e+01
  -1.129546e+02  -1.106762e+02
  -2.414248e+01  -1.324591e+02
   5.015735e+01  -1.478101e+02
   7.484148e+01  -4.246063e+00
   3.696327e+01   1.177006e+02
  -5.602903e+01   1.034675e+02
  -2.864438e+01  -6.259064e+00
  -4.423148e+01  -1.725473e+01
  -3.099275e+01  -5.313793e+01
  -1.650621e+01  -3.901726e+00
  -1.305034e+01  -2.964687e+00
  -7.631667e+01  -9.806951e+01
  -6.710671e+01  -9.010817e+01
   3.765037e+01  -4.849167e+01
   1.438610e+02   9.621848e+00
   1.157912e+02   1.030484e+02
   6.991050e+00   4.577848e+01
  -9.328448e+01   1.667488e+00
  -1.001922e+02  -4.174533e+00
  -1.102613e+01  -2.743254e+01
   5.358762e+01  -4.219147e+01
   3.438064e+01  -2.162444e+01
  -2.209830e+01   1.665015e+01
   3.173573e+01   1.437731e+01
   7.343688e+01  -1.369902e+01
   5.847450e+01   5.140774e+01
   2.178398e+01   1.135981e+02
  -1.247507e+02   1.080696e+02
  -2.096309e+02   6.790349e+01
  -1.664244e+02  -6.248618e+01
  -2.956761e+01  -1.475535e+02
   7.439851e+01  -1.842558e+02
   1.100116e+02  -3.983975e+01
   7.135397e+01   4.131270e-01
   5.186452e+01   6.887306e+01
   2.944089e+01   1.871617e+01
   4.455317e+01   1.878936e+00
   4.792142e+01   3.493582e+01
  -2.561872e+01   1.362287e+02
  -7.684131e+01   5.996131e+01
  -1.027016e+02   8.290241e+00
  -4.810483e+01  -1.322628e+02
  -6.994681e+00  -1.514115e+02
   3.989808e+01  -2.792598e+01
   1.199639e+02   4.764360e+01
   1.573926e+01   9.434130e+01
  -4.149546e+01   4.535902e+01
  -1.260936e+02  -9.468958e+00
  -4.223149e+01  -8.092525e+01
   2.298435e-01  -4.758302e+01
   3.051860e+01  -2.738820e+01
  -2.933849e+00   1.422921e+01
  -1.046854e+02   2.946368e+01
  -3.584744e+01  -4.622888e+01
   6.407664e+01  -8.458953e+01
   1.202028e+02  -7.614656e+01
   6.406069e+01   4.036663e+01
  -2.165802e+01   8.412816e+01
  -4.772704e+01   1.029274e+02
  -2.803028e+01   6.428444e+01
  -1.785721e+01  -8.915823e+01
   3.169882e+01  -7.993979e+01
   3.152416e+01   2.757968e+01
   4.764634e+01   7.216894e+01
  -4.200714e+01   5.600434e+01
  -2.735231e+01   1.157802e+01
  -4.837425e+01  -2.641143e+01
   1.352159e+01   1.017824e+01
   3.459323e+01   1.692681e+01
   1.627680e+01   1.637663e+01
   4.616253e+01  -3.153572e+01
   2.037057e+01  -2.555721e+01
   6.052269e+01  -2.910974e+01
   4.318309e+01   2.592512e+00
   3.225817e+01   6.491939e+01
  -2.178281e+01   2.003997e+01
  -2.981786e+01  -5.730897e+01
  -5.135156e+01  -7.029177e+01
   1.068053e+02  -3.767854e+01
   8.168317e+01  -4.711380e-01
   5.665513e+01   3.134675e+01
  -3.840974e+01   5.549104e+01
  -4.976870e+01   1.373636e+01
  -3.640515e+01   5.502716e+00
   6.918028e+01   1.954358e+01
   2.908665e+01   4.270359e+00
  -3.005283e+01   4.451408e+01
  -6.180639e+01  -2.034168e+01
