
 $NMID
 id='ANONYMOUS ', fmtdat='(2E16.6)'
 volume=1.0
 tramp=1.0
 $END
   3.446674e+03  -1.541571e+02
   2.485150e+03   2.000828e+03
   1.803323e+02   1.979940e+03
  -1.337133e+03   1.069584e+03
  -9.043544e+02  -1.544363e+02
   9.584882e+01  -4.556151e+02
   5.489115e+02   1.246479e+02
   5.016205e+01   5.560795e+02
  -4.960281e+02   6.343197e+02
  -6.942570e+02  -5.824968e+00
  -3.607624e+02  -5.946947e+02
   4.370207e+01  -7.080619e+02
   3.994723e+02  -1.732612e+02
   1.961666e+02   4.674943e+02
  -1.715860e+02   5.949087e+02
  -5.521275e+02   7.714033e+01
  -3.481926e+02  -5.428947e+02
   1.929588e+02  -6.009617e+02
   4.971215e+02  -2.645160e+02
   4.614690e+02   2.351050e+02
   1.397034e+02   3.776798e+02
  -1.496084e+02   2.296794e+02
  -7.628004e+00   1.012885e+02
   1.368987e+02   2.884731e+01
   2.945431e+02   2.523179e+02
   2.738082e+01   4.124592e+02
  -4.301955e+02   2.902310e+02
  -5.936402e+02  -1.638261e+02
  -2.445435e+02  -4.397875e+02
   3.882510e+02  -2.379029e+02
   5.790007e+02   1.480625e+02
   2.255876e+02   3.924970e+02
  -2.559454e+02   3.873725e+02
  -4.679467e+02   2.058852e+02
  -3.413083e+02  -1.710330e+02
  -8.509721e+01  -3.406164e+02
   4.587281e+01  -2.111107e+02
   4.835399e+00   1.004715e+02
  -1.860629e+02   2.362271e+02
  -2.883036e+02  -1.189719e+02
  -5.846846e+01  -6.642509e+02
   2.917552e+02  -5.428918e+02
   3.172036e+02   2.527058e+01
   1.188164e+02   3.864570e+02
  -1.598363e+02   1.720959e+02
  -1.954921e+02  -2.600136e+02
   1.887695e+02  -4.844132e+02
   4.987123e+02  -1.257090e+02
   5.488261e+02   2.418124e+02
   1.423706e+02   5.392991e+02
  -2.568277e+02   2.806177e+02
  -5.543725e+02  -8.068123e+01
  -3.942954e+02  -3.321071e+02
   6.699923e+01  -3.373645e+02
   2.956157e+02  -9.463958e+01
   1.942302e+02   7.188802e+01
   7.870617e+00   5.988218e+01
  -7.893235e+01  -6.064689e+01
   1.587397e+02  -1.479333e+02
   2.528220e+02   6.475031e+01
   1.315108e+02   1.880084e+02
  -1.957530e+02   2.376995e+02
  -3.545236e+02   1.174193e+02
  -2.239025e+02  -7.593550e+01
   7.874928e+01  -3.543359e+02
   2.759430e+02  -3.966633e+02
   3.967761e+02  -1.576528e+02
   2.411347e+02   1.719660e+02
   8.322258e+01   4.144348e+02
  -5.862461e+01   3.521513e+02
  -2.185261e+01   1.558941e+02
  -2.856340e+01   8.305657e+01
  -1.001373e+02   8.774462e+01
  -2.242507e+02   1.184893e+02
  -3.071522e+02  -1.279342e+02
  -5.331751e+01  -2.544886e+02
   1.076550e+02  -1.962700e+02
   2.233735e+02  -5.224530e+00
   1.529224e+02   2.369510e+02
  -6.507544e+01   2.975486e+02
  -2.916894e+02   1.139335e+02
  -3.049832e+02  -2.139811e+02
  -1.759888e+02  -2.438744e+02
   7.316357e+01  -3.097108e+02
   1.714869e+02  -1.512695e+02
   1.267232e+02  -4.357779e+01
   1.461944e+02  -6.994282e+01
   2.496770e+02  -6.913931e+01
   4.713784e+02   9.908879e+01
   3.259421e+02   2.983608e+02
  -3.076773e+01   4.332024e+02
  -3.696419e+02   4.766731e+02
  -4.977807e+02   1.671360e+02
  -3.035525e+02  -3.723178e+01
  -2.255961e+01  -2.042115e+02
   1.170086e+02  -1.827049e+02
   1.570707e+01  -1.686866e+01
  -1.126843e+02   5.929805e+01
  -1.560939e+02  -4.013003e+01
  -3.697902e+01  -1.442592e+02
   1.350820e+02  -1.510352e+02
   9.594196e+01   2.831023e+01
  -9.797266e+00   1.492880e+02
  -1.576207e+02   3.254741e+01
  -1.691455e+02  -2.214329e+02
   1.664142e+01  -4.019058e+02
   2.673856e+02  -2.037967e+02
   3.582321e+02   2.842528e+01
   2.773535e+02   2.812337e+02
   2.649724e+01   3.174693e+02
  -9.251834e+01   1.638244e+02
  -1.737660e+02   4.509239e+01
  -1.787113e+01  -4.558960e+01
   8.077778e+01   6.810538e+01
   2.889375e+01   9.112490e+01
  -1.305536e+02   5.941447e+01
  -1.966621e+02  -2.939413e+01
  -3.990318e+01  -9.966367e+01
   7.672223e+01  -1.560839e+00
   5.270424e+01   1.143484e+02
  -1.481995e+02   7.917556e+01
  -2.852233e+02  -2.910012e+01
  -2.689565e+02  -1.752656e+02
  -7.020236e+01  -2.487461e+02
   2.148510e+02  -2.044425e+02
   2.840490e+02  -7.893502e+01
   1.494782e+02   2.483234e+01
  -1.250390e+01   7.951512e+01
  -5.002981e+01  -8.802423e-01
   6.010682e+01  -1.080891e+02
   2.018946e+02  -3.168459e+01
   1.735083e+02   7.073169e+01
   1.461395e+01   1.977683e+02
  -8.938460e+01   1.483382e+02
  -1.060005e+02   2.729045e+00
  -7.118006e+01  -6.541587e+01
   5.700821e+01   1.697982e+01
   2.077276e+01   8.746372e+01
  -1.292967e+02   1.559493e+02
  -2.068663e+02   3.356105e+01
  -2.102574e+02  -1.527696e+02
  -6.915601e+00  -2.194182e+02
   1.672133e+02  -1.911787e+02
   1.948904e+02   1.206429e+01
   7.090454e+01   1.082953e+02
  -7.615541e+01   9.875234e+01
  -8.868502e+01   6.477491e+01
   1.793738e+01  -1.997263e+01
   3.922424e+01  -3.420388e+01
   8.257219e-01   1.918275e+00
  -6.178816e+01  -1.734727e+01
  -9.931280e+01  -8.417765e+01
  -6.533639e+01  -1.786529e+02
   1.756647e+02  -1.976222e+02
   2.476960e+02  -3.784879e+01
   2.490586e+02   1.605444e+02
   5.726945e+01   2.265287e+02
  -1.274345e+02   1.643302e+02
  -1.598594e+02   2.745529e+01
  -1.043045e+02  -6.077022e+01
  -7.060245e+01  -3.320425e+01
  -4.528586e+01   1.300006e+01
  -8.067905e+01   3.556728e+01
  -6.631601e+01  -5.932932e+01
   4.398159e+01  -1.528818e+02
   1.123923e+02  -8.746701e+01
   9.928608e+01   4.864908e+01
  -2.350103e+01   1.302162e+02
  -1.773167e+02   1.108063e+02
  -2.659793e+02  -7.954169e+01
  -6.357755e+01  -2.162095e+02
   1.718874e+02  -2.244607e+02
   2.211631e+02  -8.919564e+01
   2.585310e+02   1.200113e+02
   1.256038e+02   1.883879e+02
  -1.058906e+01   1.529324e+02
  -5.728809e+01   6.376474e+01
  -3.777547e+01   8.705863e+01
  -5.512928e+01   5.537445e+01
  -1.106726e+02   9.089828e+01
  -1.236584e+02  -6.500649e+00
  -1.433517e+02  -1.572326e+02
  -4.674548e+01  -2.298229e+02
   8.093718e+01  -1.674546e+02
   1.816636e+02   1.835700e+01
   1.371468e+02   1.503916e+02
   3.325481e+01   1.255070e+02
  -9.647031e+01   6.978077e+01
  -7.017606e+01  -6.218014e+00
   6.246747e-01  -3.879391e+01
   1.075214e+01  -1.741484e+01
  -4.504558e+01  -5.075068e+01
  -1.168634e+02   4.653499e-01
  -8.056920e+01  -7.525578e+01
   8.248217e+01  -5.217638e+01
   2.314556e+02  -2.263015e+01
   1.809065e+02   5.591907e+01
  -2.411012e+01   1.177775e+02
  -1.321916e+02   6.265420e+01
  -1.598110e+02   4.628516e+01
  -4.766886e+01  -2.386458e+01
   4.972768e+01  -2.036951e+01
   8.035888e+01  -1.030769e+01
   1.656786e+01   1.114220e+02
  -6.214716e+01   7.411273e+01
  -1.206737e+02  -3.988165e+00
  -6.901734e+01  -4.628283e+01
  -8.212607e+01  -2.790304e+01
  -6.627813e+01   2.697038e+01
  -8.431752e+01  -2.264005e+01
  -1.083812e+01  -7.626725e+01
   4.315744e+00  -1.735065e+02
   1.446798e+02  -1.249704e+02
   1.915436e+02  -2.083848e+01
   1.184384e+02   7.851580e+01
   5.038987e+00   9.992365e+01
  -1.113097e+02   8.389545e+01
  -1.045167e+02  -1.767761e+01
   3.169207e+01   3.120831e+00
   1.341370e+02   6.829250e+01
   6.936943e+01   1.038194e+02
  -7.092112e+01   1.161895e+02
  -2.041178e+02   6.162862e+01
  -1.582436e+02  -5.636836e+01
  -4.423111e+01  -8.544988e+01
   6.759701e+01  -2.590023e+01
   5.678184e+01   1.308563e+01
  -1.277619e+01   7.599271e+01
  -9.892865e+01  -2.937991e+01
  -5.504624e+01  -1.427529e+02
   8.403475e+01  -1.387990e+02
   1.457986e+02  -7.766015e+01
   1.178207e+02   7.629176e+01
   2.438195e+00   1.992957e+02
  -6.758008e+01   1.133615e+02
  -1.237387e+02  -5.354188e+01
  -4.272393e+01  -1.164416e+02
   4.283112e+01  -8.898585e+01
   7.667979e+01   7.428110e+00
   6.829979e+01   3.721507e+01
   4.102376e+01   2.943956e+01
  -8.818670e-01  -1.856020e+01
   3.482696e+01   2.541188e+01
   3.059924e+01   3.495951e+01
   3.363448e+01   1.354815e+02
  -1.570670e+01   2.765187e+01
  -1.250315e+02  -7.628302e+00
  -1.461450e+02  -4.633490e+01
  -2.062724e+01  -3.920053e+01
   6.674947e+01  -3.644664e+01
   1.099954e+02  -3.755609e+01
   1.042205e+01   1.776278e+01
  -2.084649e+01   3.726162e+01
  -2.851933e+01   2.850897e+01
  -2.702002e+00  -1.267525e+00
  -2.263794e+01  -1.188272e+01
  -8.701266e+01  -1.346967e+01
  -1.046933e+02  -1.874582e+01
  -2.968653e+01  -7.113848e+01
   9.581464e+01  -1.446638e+02
   1.774814e+02  -3.869738e+01
   1.781099e+02   1.036511e+02
   9.739296e+00   1.765173e+02
  -8.164632e+01   1.513220e+02
  -1.131013e+02   9.974345e+01
  -9.610496e+01  -3.045631e+01
  -2.917904e+01  -5.137032e+01
  -3.936242e+00  -2.475510e+01
   3.413544e+01  -1.910899e+01
  -3.423342e+01  -1.671465e+01
  -1.500442e+01  -1.242619e+02
   4.870306e+01  -7.214683e+01
   6.580746e+01   3.873586e+01
   5.086034e+01   1.115089e+02
   1.785318e+01   1.038016e+02
  -1.056030e+02   5.291859e+01
  -1.265708e+02  -8.264770e+01
  -2.917965e+01  -8.816053e+01
   5.302302e+01  -5.949923e+01
   9.317704e+01  -8.607193e+00
   6.085552e+01   6.822378e+01
  -4.150372e+01   9.381128e+01
  -2.060484e+01   3.440283e+01
   6.835259e+01  -2.404550e+01
   8.638813e+01   8.564209e+00
   3.472541e+01   6.224759e+01
  -6.994776e+01   8.732189e+01
  -1.116693e+02   5.437764e+01
  -5.415512e+01   3.902189e+01
   3.742625e+01  -9.655437e+01
   5.135405e+01  -5.483046e+01
   4.176380e+01   3.961995e+00
   3.709289e+00   7.557310e+01
  -5.606621e+01   3.808260e+01
  -2.047187e+01   3.581300e-01
  -1.279998e+01  -1.974925e+01
  -3.230226e+00  -4.501608e+00
   3.711132e+01  -2.472669e+01
   4.217296e+01   5.735663e+01
   2.054912e+01  -2.767731e+01
  -2.837975e+01  -3.540624e+00
  -1.262700e+01  -3.792606e+01
   1.197510e+01   4.191393e+01
  -4.889157e+01   2.824710e+01
  -2.598365e+01   2.226590e+01
  -3.628732e+01  -4.081929e+01
   4.240013e+00  -8.532011e+01
   2.052964e+01  -6.202028e+00
   6.985633e+01   2.725967e+01
  -6.396697e+00   8.370167e+01
  -4.738723e+01   6.996689e+01
  -1.073776e+02   1.649889e+01
  -5.602990e+01  -3.596513e+01
   4.859006e+01  -6.182168e+01
   6.825900e+01  -1.980831e+01
   2.834833e+01  -4.771942e+01
  -1.612957e+01   2.268731e+00
  -5.295105e+01   7.264481e+00
   2.567047e+01  -2.784878e+01
   1.002751e+02   5.209859e+00
