
 $NMID
 id='ANONYMOUS ', fmtdat='(2E16.6)'
 volume=1.0
 tramp=1.0
 $END
  -4.014727e+03   3.206419e+02
  -2.703195e+03  -2.033222e+03
   3.092540e+02  -2.371341e+03
   1.729855e+03  -1.265041e+03
   8.251226e+02   4.856604e+02
  -2.337700e+02   5.269435e+02
  -5.135455e+02  -3.398312e+02
  -3.745587e+01  -8.023303e+02
   6.024852e+02  -6.906560e+02
   7.635411e+02   5.198157e+01
   4.844123e+02   6.236191e+02
  -1.631348e+02   7.410360e+02
  -4.343525e+02   1.574290e+02
  -2.738819e+02  -4.636457e+02
   1.756030e+02  -6.442078e+02
   5.380187e+02  -3.978183e+01
   2.189563e+02   6.356398e+02
  -3.014313e+02   6.588065e+02
  -4.903455e+02   1.041764e+02
  -4.503600e+02  -2.302259e+02
  -1.297307e+02  -4.128839e+02
   1.570110e+02  -2.673974e+02
   1.558104e+02  -5.642102e+01
  -1.427025e+02  -1.999346e-01
  -3.863423e+02  -1.376332e+02
  -1.182483e+02  -3.923810e+02
   4.250979e+02  -3.733412e+02
   6.720975e+02   1.047927e+02
   3.370085e+02   4.595427e+02
  -3.195812e+02   2.976096e+02
  -6.432632e+02  -5.130860e+01
  -3.163758e+02  -4.382850e+02
   3.079866e+02  -4.503602e+02
   4.843131e+02  -1.831630e+02
   3.343360e+02   1.958228e+02
   1.114371e+02   4.051704e+02
  -6.654052e+01   2.030566e+02
  -6.618899e+01  -7.960350e+01
   1.203600e+02  -3.083525e+02
   3.738664e+02   7.804709e+01
   3.819697e+01   6.168312e+02
  -1.921536e+02   6.571051e+02
  -4.632533e+02   5.852667e+01
  -2.115751e+02  -4.380881e+02
   2.603690e+02  -2.350710e+02
   2.642368e+02   2.343370e+02
  -8.297858e+01   4.298036e+02
  -5.304970e+02   1.168167e+02
  -5.601064e+02  -4.095031e+02
  -1.799722e+02  -5.337926e+02
   3.481284e+02  -3.248912e+02
   5.802108e+02   5.239261e+01
   4.053247e+02   3.774614e+02
  -1.236641e+02   3.763833e+02
  -3.558884e+02   7.873058e+01
  -2.650443e+02  -1.331837e+02
   7.679450e+01  -7.582091e+01
   1.118459e+02   1.077430e+02
  -1.223548e+02   1.025310e+02
  -2.596775e+02  -4.390827e+01
  -1.810198e+02  -1.786846e+02
   1.341232e+02  -2.544462e+02
   3.650853e+02  -1.471035e+02
   2.132410e+02   7.830569e+01
  -3.621131e+01   2.959664e+02
  -2.101137e+02   3.628763e+02
  -3.343299e+02   1.836956e+02
  -2.285300e+02  -1.307052e+02
  -5.290367e+01  -3.989394e+02
   7.681180e+01  -3.434158e+02
   6.568508e+01  -9.723814e+01
   1.993837e+01  -5.233020e+01
   9.172133e+01  -9.893906e+01
   2.400526e+02  -1.176565e+02
   2.259537e+02   7.400193e+01
   7.669630e+01   2.751755e+02
  -6.613498e+01   2.135092e+02
  -2.229808e+02   2.024874e+01
  -1.454391e+02  -2.169697e+02
   3.748340e+01  -2.784854e+02
   2.584309e+02  -1.096424e+02
   3.198517e+02   1.656796e+02
   1.730384e+02   2.911279e+02
  -6.836130e+01   2.749425e+02
  -2.180253e+02   1.110394e+02
  -1.426875e+02   4.723050e+01
  -1.600404e+02   6.643853e+01
  -2.676942e+02   7.231487e+01
  -4.285019e+02  -1.133467e+02
  -3.364894e+02  -2.858812e+02
   2.461572e+01  -4.359064e+02
   3.693250e+02  -4.010160e+02
   4.943751e+02  -1.431507e+02
   3.029613e+02   1.102932e+02
   7.173505e+01   2.602661e+02
  -1.502871e+02   2.694214e+02
  -1.349745e+01   1.638063e+00
   1.336226e+02  -3.170424e+01
   1.590769e+02   3.092101e+01
   1.737226e+01   1.478944e+02
  -1.267867e+02   1.403876e+02
  -1.516949e+02  -6.135504e+01
   2.519213e+01  -1.291571e+02
   2.019719e+02  -4.645686e+01
   1.792922e+02   2.504241e+02
  -1.407135e+01   3.468403e+02
  -2.501338e+02   1.930236e+02
  -3.354518e+02  -5.566863e+01
  -3.026626e+02  -2.451575e+02
  -9.731304e+01  -2.577167e+02
   1.132473e+02  -1.555640e+02
   1.677137e+02   8.365839e+00
   4.431969e+01   3.836842e+01
  -7.821799e+01  -4.955630e+01
  -6.862474e+00  -1.229832e+02
   8.327184e+01  -7.893235e+01
   1.496846e+02  -3.898055e+01
   4.833021e+01   5.018652e+01
  -7.018107e+01   3.759761e+00
  -4.547129e+01  -6.408487e+01
   1.391633e+02  -8.403284e+01
   3.004631e+02   4.451513e+01
   2.869858e+02   1.661380e+02
   5.605563e+01   2.508133e+02
  -1.680522e+02   2.143232e+02
  -3.042772e+02   1.438270e+02
  -1.393553e+02  -4.931149e+01
   1.365620e+01  -6.566331e+01
   6.594298e+01   5.924838e+00
  -2.001443e+01   9.407636e+01
  -1.496406e+02   3.538025e+01
  -1.909851e+02  -4.990758e+01
  -7.122850e+01  -2.364346e+02
   1.017910e+02  -1.139272e+02
   1.032034e+02  -2.409078e+01
   7.333110e+01   5.777995e+01
  -4.844890e+01  -2.108518e+01
  -5.422061e+01  -8.526570e+01
   9.089359e+01  -1.172850e+02
   1.749201e+02  -3.778101e+01
   1.798901e+02   1.178815e+02
   2.287110e+01   1.586849e+02
  -1.363059e+02   2.161932e+02
  -2.097912e+02  -5.468459e+00
  -5.161490e+01  -9.943103e+01
   8.446812e+01  -1.133204e+02
   9.307583e+01  -4.213252e+01
   5.680440e+00   2.631495e+01
  -3.953557e+01   2.427637e+01
   1.235831e+00  -4.954887e+01
   1.312858e+02   3.832972e+01
   7.335489e+01   9.547922e+01
  -1.590497e+01   1.902923e+02
  -1.397415e+02   1.735674e+02
  -2.580557e+02   1.802944e+01
  -1.874754e+02  -1.609313e+02
  -8.200235e+01  -2.107269e+02
   1.286663e+02  -1.817218e+02
   1.348463e+02  -2.981322e+01
   7.621198e+01   5.542399e+01
   2.966967e+01   2.051050e+01
   6.605624e+01  -5.493494e+01
   9.340311e+01  -3.399959e-01
   8.732612e+01   4.378229e+01
  -4.814523e+01   1.022235e+02
  -1.197311e+02   9.405351e+01
  -8.797327e+01  -1.074867e+01
   3.241639e+01  -1.155760e+02
   1.508374e+02  -6.016514e+01
   2.484719e+02   7.262338e+01
   5.895722e+01   2.003084e+02
  -9.168937e+01   2.491095e+02
  -2.720800e+02   5.750239e+01
  -2.531085e+02  -7.362131e+01
  -1.049912e+02  -1.717033e+02
   1.853460e+01  -1.331235e+02
   7.682824e+01  -9.134659e+01
   5.903581e+01  -9.882528e+01
   6.637329e+00  -7.810603e+01
   8.926576e+01  -2.804023e+01
   1.220855e+02  -2.045937e+01
   1.265930e+02   1.603885e+02
   1.167446e+01   2.093460e+02
  -8.912641e+01   1.190667e+02
  -1.548843e+02   1.137646e+01
  -1.274808e+02  -9.695491e+01
  -1.762699e+01  -1.199578e+02
   7.288868e+01  -8.089989e+01
   4.664012e+01  -2.331214e+01
   4.409771e+01   6.235289e+01
  -3.282406e+01   4.737977e+01
   5.852052e+01   1.011672e+01
   6.014811e+01   3.153887e+01
   5.930351e+01   4.440695e+01
  -8.683243e+01   1.311050e+01
  -2.051243e+02  -7.854824e+00
  -1.683665e+02  -7.443132e+01
   2.004643e+01  -1.421381e+02
   1.124229e+02  -6.810734e+01
   1.301611e+02  -9.356744e+00
   6.237231e+01   5.480442e+01
  -7.320234e+01   6.102304e+01
  -8.754327e+01  -2.070302e+01
  -1.876000e+01  -4.287353e+01
   5.556411e+01  -8.263990e+01
   4.201743e+01  -2.007596e+01
   3.131668e+01   9.539403e+01
   4.141214e+01   7.812798e+01
   6.350525e+01  -7.037147e+00
   6.307302e+01   5.488528e+01
   2.147566e+01   1.043950e+02
  -2.871122e+01   2.001958e+02
  -9.350568e+01   1.466853e+02
  -1.893183e+02   3.284807e+01
  -1.137768e+02  -8.202511e+01
   4.278596e+00  -1.038380e+02
   1.099057e+02  -6.513483e+01
   5.787023e+01  -5.664345e+00
  -5.704126e+01   3.268663e+01
  -1.782030e+02  -4.618813e+01
  -4.952532e+01  -1.110527e+02
   1.016826e+02  -9.936719e+01
   1.840242e+02  -9.716470e+00
   1.476631e+02   5.479059e+01
   6.231566e+01   3.921919e+01
  -5.684979e+01   4.528340e+01
  -1.900090e+01   1.921927e+01
   1.110836e+01  -3.453111e+01
   1.122062e+02   2.521431e+01
   7.850597e+01   1.031675e+02
  -9.753927e+01   1.600682e+02
  -2.086503e+02   6.053063e+01
  -1.333792e+02  -9.158956e+01
  -1.099764e+01  -1.902210e+02
   1.199649e+02  -1.188655e+02
   6.324329e+01   4.839775e+01
   4.368567e+01   1.311455e+02
   1.420284e+01   8.601578e+01
  -8.405718e+01   1.183555e+01
  -3.888023e+01   2.281509e+01
  -4.933366e+01  -4.425230e+01
   3.850496e+01   1.445180e+01
  -1.032829e+00  -1.147758e+01
  -6.148269e+01  -6.619712e+01
   6.095233e-01  -1.234717e+02
   2.831321e+01  -7.974377e+01
   1.295798e+02   4.168271e+01
   1.234286e+02   6.271166e+01
  -1.480720e+01   4.654473e+01
  -7.398218e+01   2.411640e+01
  -7.912990e+01   4.412616e+01
  -1.161520e+01  -6.825893e+00
   5.698478e+01  -1.567250e+01
   3.170169e+01  -5.526474e+01
  -5.380758e-02   2.318521e+01
   2.594092e+01   9.462739e+00
   8.518142e+01  -6.432239e+00
   1.172590e+02   1.987236e+01
   2.796753e+01   6.796611e+01
  -1.501558e+02   1.632242e+02
  -1.904784e+02   7.567075e+01
  -1.815263e+02  -7.103420e+01
  -3.943320e+01  -1.796645e+02
   9.321267e+01  -1.641560e+02
   1.101877e+02  -9.863585e+01
   1.057702e+02  -4.408307e+00
   2.546754e+01   4.786895e+01
   1.254307e+01   4.393632e+00
  -2.694052e+01   1.235031e+01
   4.473214e+01   3.469974e+01
   2.955650e+01   1.195812e+02
  -4.157129e+01   8.905240e+01
  -7.960391e+01  -1.178097e+01
  -7.473329e+01  -1.122344e+02
  -1.093243e+01  -1.380685e+02
   7.378249e+01  -2.610359e+01
   1.632778e+02   8.628558e+01
   2.111432e+01   1.160504e+02
  -6.396121e+01   6.898517e+01
  -9.135718e+01  -1.057159e+01
  -1.397930e+01  -3.667863e+01
   3.649002e+01  -7.811979e+01
   2.713592e+01  -2.925103e+01
  -5.604129e+01  -2.785789e+01
  -8.117997e+01   1.400691e+01
  -3.992023e+01  -2.408563e+01
   6.763707e+01  -7.845207e+01
   8.934629e+01  -5.052797e+01
   5.078710e+01  -1.145917e+01
  -2.436576e+01   9.096829e+01
  -8.248572e+01   5.543218e+01
  -5.610062e+01  -1.835002e+01
  -4.929296e+00  -2.217597e+01
   3.183216e+00  -4.535697e+01
   4.313592e+01   4.003259e-01
   4.625057e+01  -4.947695e+00
  -2.494959e+01   1.052828e+01
  -3.867464e+01  -2.115352e+01
  -9.321902e+00  -3.154571e+00
  -2.943934e+01  -3.073708e+00
   2.963494e+01   2.162883e+01
   3.174602e+00   7.530242e+00
   2.013539e+01  -6.376538e+01
   2.880318e+01  -4.463222e+01
   3.045028e+01  -7.879101e+00
   9.271190e+00   4.578260e+01
   1.541515e+01   6.746853e+01
  -4.845141e+01   3.482860e+01
  -5.034162e+01  -5.941496e+01
  -1.973950e+01  -4.537673e+01
   4.411564e+01  -2.716658e+01
   1.301067e+02  -7.187205e+00
   2.916938e+01   4.867016e+01
  -2.743647e+01   4.332712e+01
  -9.194652e+01   3.286993e+00
  -4.012955e+01   5.154446e+00
   5.937037e+01  -1.416103e+01
   3.101726e+01  -2.475605e+01
  -1.691214e+01   3.614039e+01
  -7.401255e+01   4.669662e+01
