
 $NMID
 id='ANONYMOUS ', fmtdat='(2E16.6)'
 volume=1.0
 tramp=1.0
 $END
  -4.046501e+03   6.422332e+02
  -2.326920e+03  -2.095965e+03
   6.594110e+02  -2.547066e+03
   1.844546e+03  -6.947328e+02
   1.115831e+03   3.501352e+02
  -4.437385e+02   4.360362e+02
  -5.872827e+02  -4.082301e+02
  -8.204579e+00  -8.652218e+02
   7.009616e+02  -6.532590e+02
   7.943622e+02   7.150061e+01
   4.796376e+02   6.865671e+02
  -1.980863e+02   8.272965e+02
  -4.414678e+02   1.276685e+02
  -2.825897e+02  -6.093986e+02
   1.940191e+02  -6.522121e+02
   5.260968e+02  -2.663685e+01
   3.361962e+02   5.605431e+02
  -2.318475e+02   5.615032e+02
  -5.738159e+02   1.091857e+02
  -4.918652e+02  -2.706465e+02
  -3.010776e+01  -4.142825e+02
   2.066241e+02  -2.346718e+02
   5.670265e+01  -4.712154e+01
  -1.830324e+02  -2.988036e+01
  -3.628545e+02  -1.516342e+02
  -6.200831e+01  -3.909166e+02
   5.029319e+02  -3.129237e+02
   7.748964e+02   1.183756e+02
   3.219277e+02   5.089420e+02
  -3.720954e+02   3.788833e+02
  -7.243250e+02  -6.998810e+01
  -2.835225e+02  -4.271087e+02
   2.937286e+02  -4.631640e+02
   5.125694e+02  -1.584765e+02
   3.840304e+02   1.884914e+02
   6.977683e+01   3.842308e+02
  -1.640644e+02   2.670758e+02
  -9.385652e+00  -1.952351e+02
   2.007146e+02  -3.037483e+02
   3.609366e+02   7.958856e+01
   2.667381e+01   6.360677e+02
  -2.431103e+02   5.748981e+02
  -4.731143e+02  -2.151810e+01
  -2.148804e+02  -5.620642e+02
   2.759509e+02  -2.924604e+02
   2.610822e+02   3.103885e+02
  -8.381883e+01   5.494909e+02
  -5.206697e+02   1.281201e+02
  -4.851335e+02  -4.054456e+02
  -1.301287e+02  -5.978032e+02
   3.602728e+02  -3.084529e+02
   6.012966e+02   4.734074e+01
   3.648353e+02   3.051012e+02
  -1.080614e+02   2.648773e+02
  -3.737379e+02   8.731630e+01
  -1.733296e+02  -1.025034e+02
   9.163285e+01  -5.906291e+01
   1.190886e+02   1.010778e+02
  -1.262862e+02   1.403526e+02
  -2.899172e+02  -3.811324e+01
  -1.195457e+02  -2.765078e+02
   2.036023e+02  -2.768365e+02
   3.666240e+02  -1.010999e+02
   1.993456e+02   1.215796e+02
   6.165578e+00   2.590730e+02
  -2.519558e+02   3.466761e+02
  -3.182681e+02   1.973482e+02
  -2.638679e+02  -1.376354e+02
  -6.004288e+01  -4.022954e+02
   7.538731e+01  -3.288453e+02
   1.135626e+02  -1.176519e+02
   1.630512e+01  -9.233627e+00
   6.914864e+01  -7.372610e+01
   1.947145e+02  -1.033872e+02
   2.905833e+02   1.099375e+02
   1.216620e+02   2.942217e+02
  -8.338334e+01   2.145194e+02
  -2.317560e+02  -3.895728e+01
  -2.171470e+02  -2.265311e+02
   2.848612e+01  -2.529502e+02
   2.313299e+02  -8.954279e+01
   3.280464e+02   1.894863e+02
   1.970344e+02   3.360054e+02
  -9.772140e+01   3.191063e+02
  -2.199365e+02   1.266600e+02
  -1.705075e+02   2.826891e+01
  -1.376051e+02   6.579669e+01
  -2.329987e+02   6.823813e+01
  -4.119053e+02  -8.547726e+01
  -2.950214e+02  -2.775268e+02
   2.602285e+01  -4.800982e+02
   3.603987e+02  -4.211779e+02
   5.088732e+02  -1.810471e+02
   3.620669e+02   9.873656e+01
  -2.175068e+01   3.066392e+02
  -1.489572e+02   2.256291e+02
  -5.008632e+01   3.307488e+01
   1.121009e+02  -1.023703e+02
   1.714331e+02   4.138462e+00
   7.141809e+01   1.809872e+02
  -1.220773e+02   1.277833e+02
  -1.706339e+02  -1.065531e+01
   5.405333e+01  -1.448505e+02
   1.981389e+02   3.519448e-01
   1.658605e+02   2.551491e+02
  -3.468886e+01   3.682852e+02
  -2.252287e+02   2.413468e+02
  -3.300412e+02  -1.649840e+01
  -2.902726e+02  -2.670428e+02
  -6.989806e+01  -2.629716e+02
   9.822589e+01  -1.532583e+02
   1.495835e+02   2.453904e+01
   3.314995e+01   4.229381e+01
  -5.327301e+01  -5.557703e+01
  -1.779027e+01  -1.701161e+02
   1.420123e+02  -9.019954e+01
   2.003529e+02   2.757118e+01
   5.241091e+01   7.537484e+01
  -1.153865e+02   2.145422e+01
  -4.970428e+01  -9.767989e+01
   1.085826e+02  -1.191376e+02
   2.848802e+02  -5.365997e+00
   2.479375e+02   1.491625e+02
   5.256177e+01   2.923614e+02
  -1.786022e+02   2.644644e+02
  -2.667206e+02   1.241048e+02
  -1.372672e+02  -5.154875e+01
   2.355898e+01  -7.476796e+01
   7.523428e+01  -5.342697e+00
  -5.003406e+01   9.909982e+01
  -2.091765e+02   7.453787e+01
  -2.254916e+02  -5.998219e+01
  -5.082739e+01  -2.072588e+02
   7.219308e+01  -1.586528e+02
   1.223656e+02  -2.140967e+01
   5.808892e+01   2.250157e+01
  -4.604332e+01   6.353519e+00
  -3.926991e+00  -9.218856e+01
   7.416301e+01  -8.838665e+01
   2.104553e+02  -5.997103e+00
   1.771585e+02   1.414503e+02
   8.178679e+00   2.326836e+02
  -1.133520e+02   1.536485e+02
  -1.888896e+02   3.252524e+01
  -5.300065e+01  -7.637049e+01
   9.533085e+01  -8.795518e+01
   6.098666e+01  -3.528755e+01
  -2.614812e+00   1.131343e+01
  -1.626361e+01  -1.685702e+00
   3.129923e+01  -2.911735e+01
   7.492965e+01  -3.342110e+00
   8.488864e+01   7.401261e+01
   1.330351e+01   1.659091e+02
  -1.299625e+02   1.444181e+02
  -2.112281e+02   1.575707e+01
  -2.058412e+02  -1.199991e+02
  -2.739286e+01  -2.620044e+02
   9.765893e+01  -1.778682e+02
   1.594843e+02  -4.560934e+01
   4.216313e+01   5.375497e+01
   3.677305e+01   2.944476e+01
   3.532505e+01  -4.663869e+01
   7.442954e+01  -2.432054e+01
   4.778981e+01   2.009764e+01
  -5.428435e+01   1.325939e+02
  -1.162943e+02   5.573463e+01
  -5.777262e+01  -2.906458e+01
   3.962697e+01  -1.344438e+02
   1.323724e+02  -8.410923e+01
   1.809212e+02   5.495830e+01
   7.577158e+01   2.461474e+02
  -1.377909e+02   2.537857e+02
  -2.494425e+02   1.053313e+02
  -2.743069e+02  -5.354100e+01
  -1.079790e+02  -2.138766e+02
   5.006031e+01  -1.604701e+02
   8.076882e+01  -9.623558e+01
   1.117314e+02  -5.642828e+01
   8.305457e+01  -9.779013e+01
   1.188094e+02  -8.055493e+01
   1.189380e+02   1.396566e+01
   1.278805e+02   1.382623e+02
   2.457284e+01   2.067617e+02
  -1.240079e+02   1.412123e+02
  -1.869850e+02   3.730874e+01
  -1.402737e+02  -1.530832e+02
  -2.644349e+01  -1.612604e+02
   3.764792e+01  -9.149119e+01
   3.915419e+01   3.416806e+01
  -1.356029e+01   6.143445e+01
  -1.873348e+01   3.910811e+01
   3.476398e+01   3.337826e+00
   1.050660e+02  -1.062044e+01
   5.931947e+01   2.367586e+01
  -4.278648e+01   5.837166e+01
  -1.474071e+02   1.360203e+01
  -1.411226e+02  -4.812259e+01
  -6.550107e+01  -8.052781e+01
   1.021008e+02  -6.455655e+01
   1.768611e+02  -1.295746e+01
   3.471232e+01   5.322016e+01
  -3.149904e+01   4.250229e+01
  -7.766365e+01  -1.654230e+01
   4.391771e+00  -8.247811e+01
   5.106392e+01  -8.439570e+01
   5.042455e+01   8.654812e+00
   2.152533e+01   5.769027e+01
   5.604674e+01   4.321749e+01
   1.688712e+01  -3.612182e+01
   7.777595e+01  -1.312405e+00
   4.974812e+01   8.703901e+01
  -3.546872e+01   1.411210e+02
  -8.816708e+01   1.194125e+02
  -1.326712e+02   4.211046e+01
  -1.487383e+02  -6.461807e+01
   1.393236e+01  -1.826311e+02
   8.992354e+01  -5.157182e+01
   6.131059e+01   9.877725e-01
  -4.508867e+01   4.667676e+00
  -1.243657e+02  -2.442622e+01
  -7.422996e+01  -1.082730e+02
   7.452681e+01  -1.330208e+02
   1.916630e+02  -6.565717e+01
   1.470424e+02   7.783249e+01
   4.123343e+01   9.381605e+01
  -2.243040e+01   6.473673e+01
  -7.433262e+01   1.037396e+01
   3.280739e+01  -1.500953e+01
   1.046001e+02   1.079007e+01
   5.439837e+01   1.134314e+02
  -1.115936e+02   1.631927e+02
  -1.841326e+02   5.283216e+01
  -1.062494e+02  -1.105470e+02
  -1.795923e+01  -2.357934e+02
   1.008140e+02  -1.385317e+02
   8.350975e+01   1.150745e+01
   8.792247e+01   9.087059e+01
   2.885189e+01   9.894269e+01
  -4.815185e+01   1.556146e+01
  -3.787608e+01  -4.504335e+01
  -1.744937e+01  -2.856938e+01
  -7.213102e+00  -1.249507e+01
  -1.444504e+01  -9.904597e+00
  -6.658769e+01  -1.116172e+02
  -1.767596e+01  -1.290331e+02
   7.089629e+01  -5.422217e+01
   1.667658e+02   1.198620e+01
   1.453386e+02   9.333967e+01
  -7.362510e+00   5.828551e+01
  -1.151938e+02   4.173470e+01
  -9.781433e+01  -1.601579e+01
  -3.374160e+01   1.576061e+01
   4.976997e+01  -4.794506e+01
  -1.065086e+01  -4.858825e+01
  -3.770472e+01   2.590295e+01
  -1.872727e+01  -4.985206e+01
   8.655849e+01   2.454277e+01
   9.210217e+01   8.516488e+00
   1.003303e+01   6.532501e+01
  -9.257036e+01   1.370260e+02
  -1.544779e+02   7.627141e+01
  -1.166819e+02  -8.971108e+01
  -3.036583e+00  -1.655046e+02
   8.656506e+01  -1.622617e+02
   1.262424e+02  -7.699751e+01
   6.231540e+01   5.623888e+01
  -3.792414e-01   1.991448e+01
   2.060878e+01  -7.010750e+00
   8.898487e+00   3.827082e+00
   1.481519e+01   6.481567e+01
   1.420538e+01   9.126998e+01
  -4.588476e+01   1.027799e+02
  -6.358348e+01  -2.579336e+01
  -4.609505e+01  -8.380178e+01
  -4.027433e+01  -1.363762e+02
   8.253617e+01  -1.743442e+01
   1.192925e+02   6.678046e+01
   4.865584e+01   1.004181e+02
  -4.281026e+01   9.693705e+01
  -1.047130e+02  -4.795933e+01
  -3.065162e+01  -6.945362e+01
   2.884868e+01  -5.426679e+01
   3.158760e+01  -2.139180e+01
  -3.523837e+01  -2.219716e+01
  -5.896200e+01   1.475681e+01
   1.434114e+01  -1.324607e+01
   7.337988e+01  -8.220841e+01
   8.039735e+01  -5.788901e+01
   7.438796e+01   3.849284e+00
  -1.901881e+01   8.755205e+01
  -3.773745e+01   9.420265e+01
  -5.896364e+01  -1.058471e+01
   2.772656e+00  -4.513262e+01
   1.316478e+01  -2.977969e+01
   7.377321e+01   4.159613e+01
   6.654800e+00   3.658673e+01
   7.304604e+00   7.270412e+01
  -3.295509e+01  -2.715026e+00
  -3.299103e+01  -2.817943e+01
  -1.336943e+01  -1.367218e+01
   1.381161e+01  -2.096985e+01
   1.560506e+01   5.941195e+00
   1.810571e+01  -3.848429e+01
   4.613103e+01  -5.496320e+01
  -5.207484e+00  -3.137629e+01
   3.198972e+01   5.633974e+01
  -1.986592e+01   5.708786e+01
  -2.124016e+01   4.893839e+01
  -8.067317e+01   1.580832e+00
  -4.234372e+01  -3.412057e+01
   5.413146e+01  -2.944367e+01
   4.492679e+01   2.022084e+01
   7.610077e+01   5.628433e+01
  -4.289637e+01   5.111926e+01
  -8.414109e+01   5.349208e+00
  -8.097978e+00  -4.493019e+00
  -5.622783e+00   8.524865e+00
   4.933736e+01   3.083432e+01
  -3.229629e+01   1.864248e+01
  -6.776416e+01  -1.102711e+01
