
 $NMID
 id='ANONYMOUS ', fmtdat='(2E16.6)'
 volume=1.0
 tramp=1.0
 $END
   4.357864e+03   3.654575e+02
   2.500892e+03   2.785213e+03
  -9.539523e+02   2.777957e+03
  -2.287497e+03   7.572112e+02
  -8.467492e+02  -8.436764e+02
   6.130462e+02  -5.547105e+02
   9.423014e+02   6.115504e+02
  -2.252232e+02   1.217316e+03
  -9.307529e+02   6.592031e+02
  -9.259171e+02  -1.442849e+02
  -3.169190e+02  -9.730644e+02
   3.295749e+02  -8.348576e+02
   6.829760e+02  -4.833042e+01
   4.106930e+02   7.971739e+02
  -3.883050e+02   7.546551e+02
  -5.449388e+02  -3.071890e+01
  -2.418481e+02  -7.195560e+02
   3.121366e+02  -6.622676e+02
   6.018262e+02  -8.354615e+01
   3.039152e+02   3.865200e+02
  -2.283586e+01   4.135440e+02
  -2.858985e+02   2.384778e+02
  -2.097780e+02   1.448608e+01
   1.457511e+02  -1.197415e+02
   4.482629e+02   1.322139e+02
   1.304110e+02   4.976256e+02
  -4.829827e+02   5.599576e+02
  -9.479251e+02  -1.074087e+02
  -4.152569e+02  -6.261227e+02
   5.116236e+02  -4.797094e+02
   7.653286e+02   1.043178e+02
   3.509868e+02   5.874511e+02
  -3.086065e+02   5.168353e+02
  -6.458444e+02   1.989910e+02
  -4.507244e+02  -2.559734e+02
  -5.332209e+01  -5.000379e+02
   1.862454e+02  -2.292653e+02
   2.342026e+02   2.927314e+02
  -2.015417e+02   4.430618e+02
  -6.084985e+02  -9.903442e+01
  -2.321627e+02  -7.945840e+02
   4.671051e+02  -6.549379e+02
   6.419497e+02   8.607863e+00
   2.671262e+02   6.455670e+02
  -3.383925e+02   2.848937e+02
  -3.972793e+02  -3.612891e+02
   9.716272e+01  -5.732647e+02
   5.362465e+02  -1.524803e+02
   5.549276e+02   4.825120e+02
   2.073551e+02   6.416560e+02
  -4.490892e+02   3.498063e+02
  -6.687573e+02  -1.613565e+02
  -3.238750e+02  -3.873785e+02
   2.580430e+02  -3.539031e+02
   5.206512e+02  -2.704103e+01
   1.691701e+02   2.310922e+02
  -1.048825e+02   1.332540e+02
  -7.986643e+01  -1.672483e+02
   1.581017e+02  -2.151472e+02
   3.362575e+02   1.099653e+02
   1.097667e+02   3.503410e+02
  -2.176626e+02   2.468190e+02
  -3.095508e+02   3.827305e+01
  -1.982739e+02  -1.280509e+02
  -3.359475e+01  -2.048677e+02
   2.492178e+02  -3.894875e+02
   3.395102e+02  -2.532777e+02
   3.292383e+02   1.353878e+02
   8.726648e+01   4.849101e+02
  -1.646337e+02   3.990761e+02
  -1.430931e+02   6.386523e+01
   1.765325e+01  -1.593980e+01
  -4.918403e+01   9.764066e+01
  -1.610781e+02   1.685831e+02
  -3.042257e+02  -6.996728e+01
  -1.915004e+02  -2.705237e+02
   1.427193e+02  -2.851877e+02
   1.942201e+02  -1.881607e+01
   1.609930e+02   2.334850e+02
  -6.470871e+01   3.157731e+02
  -2.802158e+02   1.190063e+02
  -3.680402e+02  -2.057632e+02
  -1.960547e+02  -4.224020e+02
   1.157275e+02  -3.365447e+02
   2.493522e+02  -7.945436e+01
   1.517517e+02  -3.180669e+01
   6.417033e+01  -3.783023e+01
   2.468772e+02  -5.826046e+01
   3.920164e+02   8.003760e+01
   3.561875e+02   2.939074e+02
  -3.558477e+01   4.662954e+02
  -3.690323e+02   4.177684e+02
  -5.088304e+02   2.009881e+02
  -3.541944e+02  -7.595716e+01
  -1.244167e+01  -3.346491e+02
   1.724162e+02  -2.645528e+02
   1.388784e+02  -1.099484e+01
  -1.548889e+02   8.268294e+01
  -2.189462e+02   1.904171e+01
  -4.888221e+01  -2.686906e+02
   1.946344e+02  -1.255462e+02
   1.821677e+02   2.267176e+01
  -7.184880e+01   2.391184e+02
  -1.946438e+02   1.005213e+01
  -1.645112e+02  -2.637932e+02
   2.769685e+01  -3.355504e+02
   2.227399e+02  -1.845440e+02
   3.213779e+02   7.906213e+01
   2.349816e+02   2.850595e+02
   1.101750e+02   2.785190e+02
  -1.384761e+02   2.022063e+02
  -1.617490e+02   2.022636e+01
  -1.812944e+01  -5.553162e+01
   7.986518e+01   1.905606e+01
   4.678958e+01   1.194974e+02
  -1.457131e+02   6.861427e+01
  -2.029567e+02   4.802323e+01
  -7.261028e+01  -5.318078e+01
   1.039300e+02  -3.394475e+01
   4.687336e+01   8.045724e+01
  -1.147400e+02   8.520099e+01
  -3.067718e+02  -4.975577e+01
  -2.785347e+02  -1.518214e+02
  -3.716108e+01  -2.769919e+02
   1.992843e+02  -2.584153e+02
   2.649813e+02  -8.538421e+01
   1.731252e+02   5.925358e+01
  -3.254656e+01   9.024363e+01
  -1.114478e+02   3.234141e+00
   2.848294e+01  -8.687436e+01
   2.270520e+02  -1.054816e+02
   2.346206e+02   1.510012e+02
   8.300624e+01   2.205098e+02
  -9.617895e+01   1.341142e+02
  -1.478069e+02  -2.696215e+01
  -1.003595e+02  -1.693903e+01
   2.984498e+01  -2.605059e+00
   6.794112e+01   8.381869e+01
  -4.910032e+01   1.426581e+02
  -2.368056e+02   2.039494e+01
  -1.977163e+02  -1.635007e+02
  -5.046585e+01  -2.198674e+02
   1.684645e+02  -1.724578e+02
   1.827069e+02  -1.174456e+00
   3.100947e+01   1.434548e+02
  -8.810594e+01   6.546732e+01
  -9.056779e+01   4.887510e+00
   2.797979e+00   1.208243e+01
   5.130683e+01  -1.729574e+01
  -1.698065e+01  -8.835118e+00
  -8.235306e+01  -2.746353e+01
  -3.743834e+01  -7.993518e+01
  -1.183621e+01  -1.719229e+02
   1.565683e+02  -1.413219e+02
   2.315843e+02  -3.597219e+01
   1.886102e+02   1.326707e+02
   2.053100e+01   2.568205e+02
  -9.959976e+01   1.708756e+02
  -1.239052e+02   2.883371e-01
  -9.924098e+01  -3.893596e+01
  -3.309471e+01  -5.219497e+01
  -1.483381e+01   4.297114e+01
  -1.043167e+02   1.067627e+01
  -4.209399e+01  -8.401016e+01
   9.486490e+00  -5.761433e+01
   1.208225e+02  -7.065015e+01
   8.567648e+01   2.837586e+01
  -6.895825e+01   1.270514e+02
  -1.479091e+02   7.937713e+01
  -2.234502e+02  -6.310517e+01
  -6.490449e+01  -2.284603e+02
   9.553729e+01  -2.488242e+02
   3.081707e+02  -1.121021e+02
   2.896746e+02   1.024149e+02
   1.300412e+02   2.005091e+02
  -4.051233e+01   1.107848e+02
  -8.535635e+01   1.098265e+02
  -8.324547e+01   4.166071e+01
  -3.746027e+01   1.232162e+02
  -8.830770e+01   4.448070e+01
  -1.456189e+02  -3.572849e+01
  -1.135295e+02  -1.557120e+02
  -5.102098e+01  -2.113968e+02
   9.578032e+01  -1.355189e+02
   1.547152e+02  -9.931567e+00
   1.496488e+02   1.080348e+02
   1.771109e+01   1.382145e+02
  -1.047853e+02   5.999617e+01
  -4.426823e+01   8.509519e+00
  -1.833026e+01  -4.562874e+01
   3.183730e+01  -1.127964e+01
  -6.585428e+01  -3.340770e+01
  -7.684331e+01  -2.936376e+01
  -5.669401e+01  -3.438644e+01
   6.517943e+01  -1.286077e+01
   7.857711e+01  -4.274576e+00
   1.740848e+02   3.036337e+01
   3.540250e+01   7.835398e+01
  -9.438690e+01   9.578301e+01
  -1.109382e+02   5.031471e+00
  -3.315297e+01  -5.878797e+01
   8.402482e+01  -5.573529e+01
   8.393125e+01   1.993462e+01
   1.236480e+01   9.525561e+01
  -3.638593e+01   7.618367e+01
  -4.767844e+01   4.590164e+00
  -3.956037e+01   4.968133e-01
   5.643094e+00  -4.730439e+01
  -4.789116e+01   1.194310e+01
  -8.797683e+01   1.896709e+01
  -3.580125e+01  -8.680048e+01
   5.080551e+01  -1.304988e+02
   1.259984e+02  -1.238815e+02
   1.716693e+02   3.296283e+00
   1.429772e+02   8.729342e+01
   2.052992e+01   1.159151e+02
  -5.703818e+01   5.961481e+01
  -3.535579e+01  -2.838495e+01
   1.708989e+01  -1.518293e+01
   9.895942e+01   5.495321e+01
   7.402675e+01   1.247278e+02
  -5.704250e+01   1.136320e+02
  -1.910752e+02   3.616338e+01
  -1.645115e+02  -3.113957e+01
   9.988794e+00  -1.048160e+02
   6.477639e+01  -8.048434e+01
   8.170326e+00  -2.643687e+01
  -4.221456e+01   2.589126e+01
  -6.899694e+01  -3.203505e+01
  -2.605843e+01  -1.092800e+02
   1.182747e+02  -1.321807e+02
   1.524050e+02  -4.705858e+01
   1.580866e+02   8.885906e+01
  -2.772881e+01   2.170872e+02
  -1.135391e+02   1.737012e+02
  -9.267867e+01  -3.427597e+01
  -1.020006e+02  -7.984491e+01
   1.287108e+01  -1.045835e+02
   5.575931e+01  -3.604903e+01
   1.717233e+01   4.472072e+01
  -1.112829e+01   9.733715e-01
   7.120137e+00  -5.355218e+00
   1.163584e+01   4.979926e+01
   7.592367e+01   8.430518e+01
   1.354568e+00   1.118897e+02
  -2.436240e+01   2.343182e+01
  -1.492916e+02  -3.627893e+01
  -1.270366e+02  -5.244592e+01
  -1.952835e+01  -4.243168e+01
   9.537110e+01  -8.374211e+00
   1.396748e+02   3.647150e+01
   1.409854e+01   2.794874e+01
  -5.146120e+01  -1.150120e+01
  -1.148116e+01   2.278017e+01
  -2.766839e+01  -2.627912e+00
   1.259472e+01   2.153174e+00
  -8.760827e+01  -1.759477e+01
  -8.959335e+01  -7.534449e+00
  -4.798143e+01  -8.355807e+01
   1.176002e+02  -1.162623e+02
   1.919272e+02  -6.748731e+01
   1.172204e+02   1.048371e+02
   3.954653e+01   1.466988e+02
  -8.600769e+01   1.639037e+02
  -5.607165e+01   2.742352e+01
  -6.985621e+01  -5.804224e+01
  -2.407071e+01  -7.364392e+01
   2.343549e+00   2.253689e+01
   2.521435e+01  -7.895028e+00
  -4.726196e+01  -3.291014e+01
  -1.671819e+01  -1.097396e+02
   1.306241e+01  -7.947674e+01
   8.714156e+01   6.409396e+01
   1.056794e+02   1.312982e+02
   3.323777e+01   1.086210e+02
  -4.506851e+01   8.751121e+00
  -8.943491e+01  -7.433039e+01
  -4.730824e+00  -1.036573e+02
   1.024819e+02  -3.567922e+01
   1.049162e+02   2.994014e+01
   3.803764e+01   9.144031e+01
  -4.086228e+01   5.257648e+01
  -2.798669e+01   4.010109e+01
   2.687803e+01   1.477223e+01
   7.477437e+01  -4.285864e+00
   4.002030e+01   2.689004e+01
  -4.490713e+01   8.079057e+01
  -1.502231e+02   8.771456e+01
  -7.725454e+01  -1.538302e+01
   5.893433e+00  -5.980866e+01
   4.720418e+01  -1.114627e+02
   6.869773e+01  -2.935404e+01
   7.316879e+00   3.640674e+01
  -4.769262e+01   5.053992e+01
  -3.423937e+01  -3.065694e+01
  -1.965069e+01  -1.204132e+01
   9.166348e+00  -1.323451e+01
   3.238425e+01   1.487911e+01
   4.296716e+01   3.865864e+01
   2.100636e+01   6.598948e-01
  -2.717297e-01  -3.200035e+00
   9.172377e-01  -8.229525e+00
  -6.252589e+00   3.750011e+01
  -4.877559e+01   4.743795e+01
  -2.800756e+01  -2.214126e+01
  -7.613605e+00  -4.400726e+01
  -1.971693e+01  -5.908208e+01
   6.241919e+01  -1.202437e+01
   8.084616e+01   6.355952e+01
   2.696347e+01   4.812615e+01
  -6.567403e+01   7.604598e+00
  -5.818494e+01   1.014468e+01
  -2.049251e+01  -2.948869e+01
   3.380263e+01  -2.720578e+01
   3.040976e+01  -1.055393e+01
   4.587606e+01   3.285654e-01
  -7.130070e+01  -6.455430e+00
  -3.315815e+01   2.710714e+01
   2.704408e+01  -7.942111e+00
   1.093066e+02  -2.450156e+01
