
 $NMID
 id='ANONYMOUS ', fmtdat='(2E16.6)'
 volume=1.0
 tramp=1.0
 $END
  -4.418104e+03  -1.012210e+02
  -2.604651e+03  -3.007387e+03
   9.567651e+02  -2.921271e+03
   2.259485e+03  -6.906241e+02
   9.019574e+02   8.316435e+02
  -7.308960e+02   5.120360e+02
  -9.681916e+02  -6.724905e+02
   6.256508e+01  -1.260687e+03
   9.044673e+02  -6.920831e+02
   9.720441e+02   2.409829e+02
   4.338590e+02   9.637803e+02
  -2.353178e+02   9.200961e+02
  -6.988072e+02  -8.067445e+00
  -3.727944e+02  -7.685438e+02
   3.901332e+02  -7.641712e+02
   6.376126e+02   4.983561e+01
   2.105271e+02   7.255370e+02
  -4.200758e+02   6.615745e+02
  -6.382543e+02   5.670256e+01
  -3.839805e+02  -3.709078e+02
  -4.549767e+00  -4.737207e+02
   3.168173e+02  -2.616066e+02
   1.531669e+02   4.908890e+00
  -9.627366e+01   1.512747e+02
  -3.884761e+02  -1.092312e+02
  -1.778693e+02  -4.274089e+02
   4.897933e+02  -5.098380e+02
   9.240853e+02   5.160606e+01
   5.030445e+02   6.024369e+02
  -3.719168e+02   5.371095e+02
  -8.005017e+02   4.143943e+01
  -3.355011e+02  -4.577672e+02
   2.998766e+02  -5.893401e+02
   5.938374e+02  -1.880786e+02
   4.180206e+02   2.190739e+02
   1.316452e+01   4.765023e+02
  -2.284114e+02   3.046619e+02
  -1.279903e+02  -3.191318e+02
   1.835112e+02  -4.939046e+02
   4.582098e+02   6.846019e+01
   1.714488e+02   7.489824e+02
  -3.746127e+02   8.590422e+02
  -6.413434e+02  -1.247031e+01
  -2.837649e+02  -5.956990e+02
   3.366350e+02  -3.128205e+02
   3.393319e+02   3.983134e+02
  -8.365514e+01   5.062221e+02
  -6.354711e+02   1.994374e+02
  -6.516544e+02  -4.213372e+02
  -1.734330e+02  -6.052738e+02
   3.731859e+02  -3.554524e+02
   6.677264e+02   1.619595e+02
   3.617057e+02   3.702237e+02
  -1.870454e+02   3.883256e+02
  -4.275124e+02   2.888923e+01
  -2.478503e+02  -2.349841e+02
   1.711723e+02  -1.123492e+02
   1.074518e+02   1.749876e+02
  -1.561672e+02   2.712877e+02
  -3.690345e+02  -6.395759e+01
  -1.271573e+02  -3.605883e+02
   2.272377e+02  -2.726049e+02
   3.095108e+02  -7.495478e+01
   1.805878e+02   1.023990e+02
  -1.384496e+01   2.048719e+02
  -2.304138e+02   3.371735e+02
  -3.851799e+02   2.209801e+02
  -3.229586e+02  -1.807464e+02
  -5.138565e+01  -4.729318e+02
   1.460349e+02  -3.563550e+02
   1.477494e+02  -1.133499e+02
   8.380357e+00   3.400115e+01
  -4.906313e+00  -9.489942e+01
   1.936814e+02  -1.713412e+02
   2.665799e+02  -4.924657e+00
   1.687836e+02   3.089960e+02
  -7.555452e+01   2.669016e+02
  -2.991221e+02   1.997229e+01
  -2.296665e+02  -2.492706e+02
   2.960297e+01  -3.153644e+02
   3.174890e+02  -1.361165e+02
   3.921188e+02   2.044409e+02
   1.900616e+02   3.481133e+02
  -1.305251e+02   3.317287e+02
  -2.593148e+02   1.309588e+02
  -9.394072e+01   1.864650e+01
  -8.572779e+01   5.799920e+01
  -2.650777e+02   8.995837e+01
  -4.424253e+02  -1.022638e+02
  -3.753883e+02  -3.308626e+02
   2.916663e+01  -5.042304e+02
   3.493181e+02  -4.126582e+02
   4.666682e+02  -2.502097e+02
   3.470249e+02   7.021169e+01
   7.735451e+01   3.211359e+02
  -1.335090e+02   2.689901e+02
  -1.222873e+02   3.662780e+01
   1.262544e+02  -9.325965e+01
   2.137440e+02   2.439737e+01
   1.824250e+01   2.347169e+02
  -1.889498e+02   1.983022e+02
  -1.993172e+02  -7.757933e+01
   1.634738e+01  -1.710989e+02
   1.760883e+02  -6.899019e+01
   1.328857e+02   2.195947e+02
  -3.320587e+01   3.414844e+02
  -1.937406e+02   1.951986e+02
  -3.470967e+02  -9.776591e+01
  -2.775470e+02  -2.568243e+02
  -1.324480e+02  -2.427812e+02
   1.039026e+02  -2.020788e+02
   1.765176e+02  -3.533599e+01
   4.237209e+01   3.456226e+01
  -1.036565e+02  -2.898300e+01
  -2.430070e+01  -1.362105e+02
   1.399630e+02  -6.650192e+01
   2.217892e+02   1.092842e+01
   3.696492e+01   1.056506e+02
  -9.905700e+01   3.977366e+01
  -5.430556e+01  -6.429349e+01
   1.106484e+02  -9.162253e+01
   2.603010e+02   2.091757e+01
   2.697101e+02   1.565665e+02
   5.267511e+01   2.084548e+02
  -1.744210e+02   3.109008e+02
  -2.697986e+02   1.168302e+02
  -1.427931e+02  -8.501330e+00
   6.321609e+01  -7.075028e+01
   5.665665e+01  -3.342707e+01
  -3.399422e+01   1.138499e+02
  -1.583138e+02   6.703460e+01
  -2.196762e+02  -1.074224e+02
  -8.288160e+01  -2.289576e+02
   1.113423e+02  -1.774128e+02
   1.888996e+02  -7.084651e+00
   8.794079e+01   5.183414e+01
  -4.140515e+01  -2.946506e+01
  -3.165699e+01  -9.279449e+01
   5.272043e+01  -1.139693e+02
   2.249929e+02  -2.654017e+01
   2.383532e+02   1.133720e+02
   3.104373e+01   2.132035e+02
  -1.862107e+02   1.850213e+02
  -1.944662e+02   6.187446e+00
  -6.112873e+01  -1.223889e+02
   5.562607e+01  -1.509326e+02
   1.047199e+02  -1.926215e+01
   3.937707e+01   2.700950e+01
  -1.747849e+01   3.209745e+01
   1.051554e+01   3.258736e-01
   4.032859e+01   1.926685e+01
   6.493543e+01   8.355262e+01
   2.150522e+01   1.561814e+02
  -1.258326e+02   1.405453e+02
  -2.405205e+02   3.085750e+01
  -2.126906e+02  -1.922119e+02
  -2.106959e+01  -2.571809e+02
   1.097221e+02  -1.760619e+02
   1.417034e+02  -4.379611e+00
   6.843591e+01   8.761912e+01
   2.469437e+01   2.256752e+01
   5.345933e+01  -2.675820e+01
   7.516312e+01  -2.129402e+01
   4.842644e+01   4.265569e+00
  -4.526316e+01   6.475336e+01
  -1.335290e+02   8.456724e+01
  -4.533436e+01  -3.375063e+01
   2.819442e+01  -1.059031e+02
   1.068408e+02  -6.575345e+01
   1.866280e+02   7.020191e+01
   7.097157e+01   2.110987e+02
  -8.386372e+01   2.138663e+02
  -2.686339e+02   9.508280e+01
  -2.476198e+02  -1.030217e+02
  -1.352952e+02  -1.954100e+02
   3.601560e+01  -1.693819e+02
   7.943009e+01  -9.675796e+01
   9.787198e+01  -3.420160e+01
   9.602472e+01  -1.121630e+02
   6.895072e+01  -6.803079e+01
   1.295425e+02   4.646315e+01
   1.175791e+02   1.447332e+02
   5.671832e+01   2.196420e+02
  -8.078083e+01   1.745134e+02
  -1.649339e+02   2.179155e+01
  -1.432950e+02  -1.080494e+02
  -1.464504e+01  -1.433177e+02
   6.843384e+01  -7.451883e+01
   5.819895e+01   5.454947e+00
  -1.147833e+01   4.636599e+01
   3.326746e+01   4.786129e+01
   4.379266e+00   1.367516e+01
   6.735586e+01   2.304906e+01
   3.233399e+01   2.287931e+01
  -6.036450e+01  -4.923709e+00
  -1.319767e+02   2.441714e+01
  -1.425849e+02  -5.148685e+01
  -1.803538e+01  -1.293135e+02
   1.439907e+02  -5.747413e+01
   1.328104e+02  -2.894734e+01
   3.712681e+01  -8.521990e+00
  -6.213709e+01   4.464875e+01
  -5.064174e+01  -3.640421e+01
  -1.702200e+01  -4.985356e+01
   5.213079e+01  -4.929007e+01
   5.817392e+01  -3.075997e+00
   4.326665e+01   4.607043e+01
   5.125904e+01   2.546131e+01
   5.730560e+01   6.878257e+00
   4.456002e+01   1.157403e+01
   2.735580e+01   3.478985e+01
  -9.762412e+00   1.057700e+02
  -1.371627e+02   1.288388e+02
  -1.688431e+02   1.806903e+01
  -9.372760e+01  -7.498515e+01
  -1.257559e+01  -1.195147e+02
   1.628342e+02  -4.371041e+01
   1.674450e+01  -1.151786e+01
  -4.271695e+01   1.495246e+01
  -1.741304e+02  -2.221907e+00
  -2.428240e+01  -1.063725e+02
   9.165061e+01  -1.151150e+02
   2.116015e+02  -3.486211e+01
   1.623231e+02   1.251624e+01
   4.761735e+01   1.046937e+02
  -7.324828e+01   7.776938e+01
  -1.088580e+02   2.381362e+01
   4.469996e+01  -2.312624e+01
   1.155795e+02   5.188091e+01
   4.546756e+01   1.006933e+02
  -7.283847e+01   1.389260e+02
  -1.698153e+02   3.391116e+01
  -1.154655e+02  -1.436749e+02
  -3.220908e+01  -2.063691e+02
   1.116148e+02  -1.376336e+02
   1.188121e+02   1.381658e+01
   5.359432e+01   1.365877e+02
   3.939182e+01   8.921286e+01
  -3.036708e+01   1.437809e+01
  -5.330580e+01  -3.388362e+01
  -2.371378e+01  -5.087582e+01
   1.861425e+01  -1.270104e+01
  -8.248180e+00  -2.029503e+01
  -9.278336e+01  -8.299345e+01
  -7.039409e+01  -1.436043e+02
   4.006674e+01  -6.523453e+01
   1.608423e+02   3.233654e+01
   1.359624e+02   5.207557e+01
   2.109919e+01   3.536536e+01
  -3.992366e+01  -3.554286e+01
  -1.031519e+02   5.212606e+01
   3.784877e+00  -1.587763e+01
   3.445375e+01   1.716453e+01
   4.866121e+01  -5.730948e+01
   4.089390e+01  -1.479622e-01
  -3.213556e+01   2.782166e+01
   8.568735e+01   2.156928e+01
   1.176648e+02   5.604959e+01
  -3.352913e+01   8.288921e+01
  -1.091099e+02   9.541179e+01
  -2.077968e+02   6.535439e+01
  -1.518377e+02  -3.111400e+01
   1.131652e+01  -1.461170e+02
   1.065135e+02  -1.600510e+02
   1.325789e+02  -6.541359e+01
   5.744454e+01   8.303831e+00
   2.913082e+01   2.839676e+01
   8.920703e+00  -1.795554e+01
  -1.786353e-01   1.605727e+01
   2.081711e+01   4.582961e+01
   1.811049e+01   1.066355e+02
  -4.405626e+01   3.221523e+01
  -1.031970e+02  -2.899147e+01
  -7.087829e+01  -1.045019e+02
   4.152238e+01  -1.136200e+02
   4.221546e+01  -5.269999e+01
   1.016000e+02   6.611046e+01
   1.959032e+00   1.097381e+02
  -8.854607e+01   2.870520e+01
  -6.788764e+01  -4.573123e+01
  -1.580183e+01  -4.747672e+01
   4.044105e+01  -5.555435e+01
   2.306629e+01  -6.230856e+01
  -1.793377e+01  -1.627144e+01
  -6.694106e+01   3.911129e+01
  -5.098414e+01  -3.601335e+01
   8.192898e+01  -1.119615e+01
   1.048488e+02  -5.049745e+01
   3.970449e+01  -1.809348e+01
  -1.264585e+01   1.006266e+02
  -7.799440e+01   8.006438e+01
  -5.099066e+01  -8.533676e+00
   7.507267e+00  -5.850308e+01
   5.242146e+01  -2.842460e+01
   4.161880e+01   2.145356e+01
   6.447241e+01   1.477878e+01
  -2.440268e+01   6.085350e+01
  -3.395468e+01  -7.146592e+00
  -4.784497e+01  -1.087100e+01
  -1.686865e+01  -4.329831e+01
   4.557794e+00   1.816099e+01
  -6.562300e+00   3.094109e+00
   2.750195e+01  -3.125353e+01
   1.455225e+01  -4.689767e+01
   5.148700e+01  -4.086340e+00
   3.325592e+01   2.760657e+01
  -5.369478e+00   6.076724e+01
  -5.726582e+01   2.095973e+01
  -8.862072e+01  -6.898476e+01
   1.483029e+01  -7.757460e+01
   7.011464e+01  -3.901932e+01
   1.003790e+02   5.743535e+01
   5.142864e+01   4.490756e+01
  -1.352638e+01   4.536349e+01
  -1.006928e+02   9.748636e+00
  -3.759945e+01  -5.621446e+00
   2.120881e+01   1.106888e+01
   3.404658e+01   1.172543e+01
  -1.854018e+01   1.559424e+01
  -7.477311e+01  -1.853724e+00
