
 $NMID
 id='ANONYMOUS ', fmtdat='(2E16.6)'
 volume=1.0
 tramp=1.0
 $END
  -3.333240e+03   1.594517e+02
  -2.198001e+03  -1.922309e+03
  -3.947150e+01  -2.170858e+03
   1.209894e+03  -1.235972e+03
   1.056961e+03   1.832153e+02
  -1.880678e+02   4.977510e+02
  -5.181558e+02  -4.203968e+01
  -7.879529e+01  -6.318725e+02
   6.265117e+02  -7.169145e+02
   7.564010e+02  -1.445549e+02
   5.326504e+02   5.398077e+02
  -1.153829e+02   7.973931e+02
  -3.411022e+02   2.136045e+02
  -3.334084e+02  -4.136938e+02
   1.156026e+02  -7.038592e+02
   5.264546e+02  -6.615192e+01
   2.618349e+02   5.891746e+02
  -1.365217e+02   6.444989e+02
  -5.545150e+02   2.053213e+02
  -4.112725e+02  -2.321442e+02
  -8.193737e+01  -4.158318e+02
   1.207589e+02  -2.213950e+02
   1.383146e+02  -1.006976e+02
  -8.930202e+01  -5.456351e+01
  -2.519450e+02  -2.301135e+02
  -1.853723e+02  -3.602650e+02
   4.436006e+02  -2.524498e+02
   5.249970e+02   6.795961e+01
   3.572150e+02   4.408031e+02
  -2.802132e+02   3.118410e+02
  -5.952645e+02  -5.402411e+01
  -3.164435e+02  -3.857226e+02
   2.590149e+02  -3.907936e+02
   5.225224e+02  -1.907702e+02
   3.676936e+02   1.502694e+02
   1.753489e+02   3.586816e+02
  -5.134101e+01   2.415861e+02
   4.043713e+00  -6.490215e+01
   9.726283e+01  -3.358457e+02
   3.098527e+02   2.561178e+01
   2.324363e+02   5.399068e+02
  -1.993692e+02   4.699805e+02
  -4.236766e+02  -7.046337e+00
  -2.109888e+02  -3.943640e+02
   1.223901e+02  -2.311459e+02
   3.176188e+02   2.422688e+02
  -6.057530e+01   5.027892e+02
  -5.055951e+02   1.344010e+02
  -4.728770e+02  -3.707080e+02
  -1.896398e+02  -4.928120e+02
   2.819387e+02  -2.844294e+02
   4.997213e+02   3.769862e+01
   4.068385e+02   3.569357e+02
  -9.024977e+01   3.109493e+02
  -2.494443e+02   1.171654e+02
  -2.463851e+02  -8.375865e+01
  -7.051696e-01  -9.162292e+01
   1.103901e+02   5.559036e+01
  -6.228252e+01   7.241685e+01
  -3.055393e+02  -3.753868e+01
  -1.602343e+02  -2.444579e+02
   1.681151e+02  -2.569030e+02
   2.887978e+02  -1.190196e+02
   2.231963e+02   1.164843e+02
  -5.266340e+01   3.254319e+02
  -2.478681e+02   3.429646e+02
  -3.799395e+02   1.830419e+02
  -2.397096e+02  -1.726420e+02
  -2.511080e+01  -3.650335e+02
   1.820941e+01  -3.382137e+02
   4.971602e+01  -1.401728e+02
   5.529794e+01  -7.958244e+01
   7.716288e+01  -1.135000e+02
   2.247869e+02  -1.330144e+02
   2.441036e+02   4.586276e+01
   1.117828e+02   2.581861e+02
  -4.856814e+01   1.889773e+02
  -1.845738e+02  -8.352351e+00
  -1.545650e+02  -2.558084e+02
   3.217083e+00  -2.506714e+02
   2.061844e+02  -1.032226e+02
   3.215628e+02   1.012384e+02
   1.598192e+02   2.847653e+02
  -4.413981e+01   2.760206e+02
  -1.847550e+02   1.817100e+02
  -1.713606e+02   9.946335e+00
  -1.309758e+02   8.547917e+01
  -2.676732e+02   5.074870e+01
  -3.907106e+02  -5.124815e+01
  -3.452828e+02  -2.071812e+02
   3.553407e+01  -3.887340e+02
   3.669950e+02  -3.883467e+02
   4.206974e+02  -1.845852e+02
   2.427523e+02   1.167615e+02
   1.964879e+01   2.722053e+02
  -7.363754e+01   2.008914e+02
  -1.493151e+01   5.910948e+01
   1.129759e+02  -6.245742e+01
   1.483045e+02  -6.180794e+00
  -1.906001e+00   1.420586e+02
  -1.082961e+02   9.671125e+01
  -1.278311e+02  -2.354785e+01
   2.683130e+01  -1.628642e+02
   1.509965e+02  -4.350685e+01
   1.756430e+02   2.217273e+02
  -3.284662e+01   3.519353e+02
  -2.528129e+02   2.054298e+02
  -3.730441e+02  -2.985857e+01
  -2.830697e+02  -2.388841e+02
  -9.847326e+01  -2.675532e+02
   1.147387e+02  -1.309676e+02
   1.876718e+02  -6.363751e+01
   3.939846e+01   1.217136e+01
  -4.435904e+01  -6.325539e+01
  -8.201762e+00  -9.049451e+01
   8.300053e+01  -9.528068e+01
   1.675614e+02   5.457293e+01
   1.822735e+01   4.664770e+01
  -9.343817e+01   2.898790e+01
  -4.460307e+01  -9.458851e+01
   1.197120e+02  -9.921191e+01
   2.897427e+02  -1.594356e+01
   2.823928e+02   9.482075e+01
   2.813166e+01   2.254124e+02
  -2.004501e+02   2.499408e+02
  -2.451462e+02   1.368986e+02
  -1.287189e+02  -3.255109e+01
   7.291263e+00  -9.476517e+01
   8.792987e+01  -5.683668e+00
  -2.969591e+01   9.566316e+01
  -2.163335e+02   9.706362e+01
  -2.125380e+02  -1.073994e+02
  -1.127877e+02  -1.841284e+02
   6.626704e+01  -1.253792e+02
   9.941898e+01  -1.181942e+01
   7.395626e+01   1.040018e+01
  -3.500542e+01  -2.429424e+01
  -2.981381e+01  -1.077619e+02
   1.281317e+02  -1.082431e+02
   1.710850e+02   1.311472e+01
   1.720099e+02   8.954473e+01
   2.011809e+01   2.180624e+02
  -1.489888e+02   1.418439e+02
  -1.403129e+02   3.826374e+01
  -1.070043e+02  -1.150171e+02
   7.328531e+01  -1.223417e+02
   9.145884e+01  -4.265887e+01
   3.828687e+01   2.961944e+01
  -6.290278e+01   1.665585e+01
  -1.419517e+01  -6.285915e+01
   8.390858e+01   4.135986e+00
   1.104380e+02   1.298936e+02
   5.298728e+01   1.857044e+02
  -1.437686e+02   1.496545e+02
  -2.315232e+02   1.070921e+00
  -2.103945e+02  -1.412262e+02
  -2.482870e+01  -2.346995e+02
   1.170320e+02  -1.854749e+02
   1.416731e+02  -6.187432e+01
   5.069973e+01   3.259479e+01
   4.333137e+01   5.244464e+01
   9.408932e+01  -8.308222e+00
   7.046656e+01  -2.435867e+01
   4.709205e+01   6.457376e+01
  -5.748590e+01   9.923999e+01
  -1.225527e+02   3.806286e+01
  -6.934744e+01  -2.178408e+00
   2.401315e+01  -9.807338e+01
   1.480326e+02  -4.745072e+01
   2.165720e+02   8.133352e+01
   1.107951e+02   2.067901e+02
  -1.228587e+02   2.511600e+02
  -2.631523e+02   4.700417e+01
  -1.962860e+02  -9.662815e+01
  -1.320129e+02  -1.598606e+02
   4.793855e+01  -1.638988e+02
   8.623573e+01  -7.246058e+01
   6.016055e+01  -4.836056e+01
   2.939964e+01  -1.134384e+02
   1.003478e+02  -7.262247e+01
   1.388820e+02   3.035860e+01
   9.138658e+01   1.266997e+02
   3.409156e+01   2.259507e+02
  -9.512150e+01   1.780870e+02
  -1.837263e+02  -3.378777e+00
  -1.509352e+02  -1.169353e+02
   4.842553e+00  -1.506486e+02
   1.123854e+02  -9.794678e+01
   8.006609e+01  -1.804958e+01
   2.175697e+01   4.469358e+01
  -7.757548e+01   1.400611e+01
   9.580098e+00   3.776070e+01
   5.403751e+01   6.775797e+00
   5.852870e+01   4.246330e+01
  -1.554484e+01   4.987064e+01
  -1.357637e+02  -2.273462e+01
  -1.234448e+02  -6.263231e+01
  -4.105176e+01  -1.053761e+02
   1.231758e+02  -7.360481e+01
   1.429279e+02  -1.457016e+00
   2.388896e+01   8.012035e+01
  -4.969687e+01   2.905659e+01
  -1.204700e+02  -2.521513e+01
  -2.705361e+01  -8.027870e+01
   3.381831e+01  -6.814191e+01
   5.807229e+01  -8.951524e-01
   3.740043e+01   9.151139e+01
   6.080397e+01   3.993240e+01
   4.815323e+01  -1.624696e+01
   8.285252e+01   1.690910e+01
   4.343270e+00   5.235137e+01
  -1.690037e+01   1.333743e+02
  -1.305279e+02   1.255415e+02
  -1.373338e+02   5.575924e+01
  -9.111844e+01  -1.045989e+02
  -3.764102e+00  -1.251391e+02
   7.418223e+01  -3.577149e+01
   9.205956e+01   2.899998e+01
  -7.724449e+01   1.169491e+01
  -1.497292e+02  -6.741793e+00
  -7.887873e+01  -6.583035e+01
   4.651445e+01  -9.311412e+01
   1.423579e+02  -7.227805e+01
   1.626030e+02   5.188142e+01
   6.455042e+01   6.358566e+01
  -4.967621e+01   8.941846e+01
  -4.597750e+01  -9.423987e+00
   9.015693e+01  -2.879469e+00
   7.550903e+01   4.929287e+00
   5.110794e+01   1.033658e+02
  -9.467399e+01   1.617013e+02
  -1.425503e+02   4.990599e+01
  -1.566552e+02  -9.295570e+01
  -1.792486e+00  -1.672789e+02
   5.970497e+01  -1.515091e+02
   8.455670e+01  -7.830664e-01
   4.060867e+01   1.183527e+02
   4.817215e+00   7.985173e+01
  -2.269082e+01   1.541560e+01
  -6.319174e+01  -2.179802e+01
  -2.951797e+01   2.089838e+00
   8.330319e+00  -8.788096e+00
  -5.290638e+01  -3.464777e+01
  -5.836824e+01  -7.883127e+01
  -1.761225e+01  -1.075174e+02
   4.136729e+01  -4.832104e+01
   1.386044e+02   5.446126e+01
   1.127712e+02   7.927142e+01
   1.427558e+01   4.721009e+01
  -7.549321e+01   4.605044e+01
  -6.428086e+01   9.559612e+00
   1.104045e+01   2.256727e+00
  -1.098415e+01  -6.745803e+00
   1.812291e+01  -3.893350e+01
  -2.765484e-01  -2.158865e+01
   9.918953e+00   1.021449e+00
   8.517192e+01  -1.100540e-01
   5.858926e+01   3.132647e+01
   3.327763e+01   1.345221e+02
  -1.047602e+02   8.531826e+01
  -1.979833e+02   7.163539e+01
  -1.343434e+02  -3.390035e+01
  -5.484177e+01  -1.191558e+02
   5.915380e+01  -1.670296e+02
   1.196541e+02  -5.810209e+01
   7.176006e+01   4.902158e+00
   4.510983e+01   7.124960e+01
   7.103367e+00  -2.230847e+01
   9.454644e+00   3.594429e+01
   5.932088e+01   7.247157e+01
   2.107251e+01   8.912275e+01
  -3.985641e+01   6.793867e+01
  -7.002697e+01  -9.037594e+00
  -9.261267e+01  -8.073452e+01
  -1.226383e+01  -1.218871e+02
   5.101857e+01  -3.564574e+01
   9.578281e+01   9.848287e+01
   4.941204e+01   8.778722e+01
  -4.560389e+01   7.520425e+01
  -6.124154e+01  -1.636673e+01
  -4.400965e+01  -4.393802e+01
   6.045923e+01  -9.057051e+00
   4.784871e+01  -1.863745e+01
   8.704953e-01  -3.604796e+00
  -4.095555e+01   3.569308e+01
  -1.089096e+00  -6.266438e+01
   1.158116e+02  -9.968508e+01
   1.204832e+02  -6.412160e+01
   4.878766e+01   3.337825e+01
   7.154202e+00   6.607698e+01
  -6.024689e+01   6.820209e+01
  -2.209127e+01   2.309874e+01
   1.174443e+01  -3.906568e+01
   3.153142e+01  -5.361593e+01
   5.918421e+01  -6.184144e+00
   4.275493e+01   5.042946e+00
  -6.955737e+00   2.043889e+01
  -9.682182e+00  -2.833995e+01
  -1.839912e+01  -4.637766e+00
  -3.725041e+00  -2.438946e+01
   4.062833e+00   1.626338e+01
  -2.175685e+01   3.950442e+01
  -2.936165e+01  -4.187506e+01
  -2.580009e+01  -4.735874e+01
   1.655824e+01  -7.233210e+01
   3.055439e+01   3.402515e+01
  -8.812167e+00   6.697697e+01
  -1.840031e+01   1.983735e+01
  -4.596907e+01  -3.517964e+01
  -1.994278e+01  -6.188780e+01
   7.802961e+01  -1.640643e+01
   8.912542e+01   1.199748e+01
   3.524304e+01   3.533995e+01
  -9.690988e+00   1.764450e+01
  -5.846164e+01   1.799532e+01
  -2.387480e+01   4.766538e+01
   4.103193e+01  -3.485512e+01
   3.432368e+01   2.349445e+01
  -2.575155e+01   4.540911e+00
  -5.078284e+01  -5.673289e-01
