
 $NMID
 id='ANONYMOUS ', fmtdat='(2E16.6)'
 volume=1.0
 tramp=1.0
 $END
  -4.418273e+03   1.578883e+01
  -2.422816e+03  -2.378712e+03
   3.078348e+02  -2.706342e+03
   1.811292e+03  -1.065248e+03
   9.547529e+02   3.845987e+02
  -4.217227e+02   3.249833e+02
  -8.090836e+02  -4.218347e+02
   4.683347e+01  -9.667091e+02
   8.159499e+02  -8.107796e+02
   8.449395e+02   1.080573e+01
   5.499085e+02   7.993666e+02
  -2.296365e+02   9.109864e+02
  -7.117851e+02   7.214143e+01
  -4.352125e+02  -6.384178e+02
   1.938595e+02  -8.003515e+02
   6.040991e+02   2.980917e+01
   3.657686e+02   7.368710e+02
  -1.617432e+02   6.499189e+02
  -5.108904e+02   1.692903e+02
  -3.985323e+02  -3.612430e+02
  -2.154019e+01  -4.421875e+02
   1.692208e+02  -2.486049e+02
   1.516449e+02  -4.042269e+01
  -1.173397e+02   7.866817e+01
  -3.790495e+02  -1.167156e+02
  -1.810582e+02  -4.384702e+02
   4.838319e+02  -3.545164e+02
   8.889460e+02   1.083846e+02
   4.104722e+02   5.919378e+02
  -3.862392e+02   4.018429e+02
  -6.703062e+02  -6.487392e+01
  -2.786179e+02  -5.052392e+02
   2.867568e+02  -4.863311e+02
   5.618482e+02  -2.113998e+02
   4.244178e+02   1.989519e+02
   6.961572e+01   4.581393e+02
  -1.884588e+02   3.363770e+02
  -1.474617e+02  -2.025008e+02
   1.390805e+02  -3.981804e+02
   3.946832e+02  -2.162718e+01
   2.558353e+02   6.130443e+02
  -3.797579e+02   6.905484e+02
  -6.016569e+02   4.485161e+00
  -2.405161e+02  -4.589350e+02
   2.841499e+02  -2.833598e+02
   4.061804e+02   2.903409e+02
  -2.995639e+01   5.189631e+02
  -5.826081e+02   1.460841e+02
  -6.086001e+02  -3.918184e+02
  -1.916241e+02  -5.765420e+02
   4.362953e+02  -2.895649e+02
   5.917866e+02   1.576455e+01
   3.817192e+02   3.707619e+02
  -1.171165e+02   3.129975e+02
  -3.977101e+02   1.296755e+02
  -2.605200e+02  -1.787852e+02
   2.783156e+01  -9.082707e+01
   1.153503e+02   1.497531e+02
  -1.338935e+02   1.499311e+02
  -3.256736e+02  -3.097409e+01
  -1.645409e+02  -2.980044e+02
   1.661014e+02  -2.363598e+02
   3.110797e+02  -9.876768e+01
   2.221129e+02   1.379126e+02
   2.685838e+01   2.279053e+02
  -2.735274e+02   3.431216e+02
  -3.278576e+02   2.636878e+02
  -2.682505e+02  -1.480800e+02
  -9.835081e+01  -4.192230e+02
   1.244710e+02  -4.079005e+02
   6.592939e+01  -1.147637e+02
   2.154097e-01  -1.176718e+00
   6.713564e+01  -6.018901e+01
   2.025945e+02  -1.134330e+02
   2.689993e+02   5.295013e+01
   1.530894e+02   2.165545e+02
  -5.462767e+01   2.561577e+02
  -2.197704e+02   8.602136e+00
  -1.938495e+02  -2.520100e+02
  -9.345567e+00  -2.826975e+02
   2.622100e+02  -9.932129e+01
   3.729975e+02   1.475823e+02
   1.982293e+02   2.996997e+02
  -7.098187e+01   2.747406e+02
  -2.184960e+02   9.226675e+01
  -1.384284e+02   1.828431e+01
  -8.878931e+01   2.790233e+01
  -2.284290e+02   5.264170e+01
  -4.403892e+02  -4.162385e+01
  -3.342574e+02  -2.343188e+02
  -1.034231e+01  -4.692879e+02
   3.383227e+02  -4.791355e+02
   4.608898e+02  -2.226600e+02
   3.462882e+02   7.165324e+01
   4.890654e+01   3.170207e+02
  -1.157923e+02   2.736781e+02
  -9.059455e+01   3.771498e+01
   1.027318e+02  -8.850840e+01
   1.442606e+02  -1.485372e+01
   3.511705e+01   2.146978e+02
  -1.916975e+02   1.963180e+02
  -2.020634e+02  -6.842674e+01
   2.914038e+01  -2.379745e+02
   1.966530e+02   5.798777e+00
   1.862367e+02   2.697114e+02
  -1.260228e+01   3.436908e+02
  -2.210124e+02   1.971695e+02
  -3.223199e+02  -8.678594e+01
  -3.165010e+02  -2.610303e+02
  -9.956708e+01  -2.910491e+02
   1.257402e+02  -1.492743e+02
   1.903459e+02  -5.130716e+01
   6.122523e+01   2.066021e+01
  -1.017723e+02  -1.630493e+01
   9.625434e+00  -1.342259e+02
   1.178617e+02  -1.157099e+02
   1.544368e+02   5.834859e+01
   2.584338e+01   9.577438e+01
  -1.000766e+02  -2.267124e+01
  -4.688001e+01  -7.748412e+01
   1.081978e+02  -6.539094e+01
   2.831679e+02   2.672511e+01
   2.574297e+02   1.041137e+02
   4.077366e+01   2.473593e+02
  -1.700845e+02   2.673243e+02
  -2.529475e+02   1.183802e+02
  -1.805860e+02  -4.738611e+01
   1.350850e+01  -1.019054e+02
   1.342119e+02   3.112144e-01
  -5.890594e+01   9.382019e+01
  -1.985467e+02   8.841884e+01
  -2.230143e+02  -1.308423e+02
  -2.365533e+01  -1.733408e+02
   8.937653e+01  -1.577531e+02
   1.499417e+02  -2.296385e+01
   7.160792e+01   2.356817e+01
  -2.418714e+01  -1.805635e+01
  -4.615311e+01  -1.025472e+02
   1.000643e+02  -1.275264e+02
   2.005363e+02   2.517228e+00
   1.806410e+02   1.278814e+02
  -1.371271e+01   2.259839e+02
  -1.746921e+02   1.688607e+02
  -1.897058e+02   2.921361e+01
  -6.558252e+01  -1.050113e+02
   8.827976e+01  -9.344700e+01
   8.571990e+01  -2.289730e+01
   7.681186e+00   4.985496e+01
  -5.453248e+01   1.209006e+00
   4.197176e+01   5.924758e+00
   6.945056e+01  -2.607762e+00
   1.202319e+02   5.060067e+01
  -1.475897e+01   1.816532e+02
  -1.074424e+02   1.288201e+02
  -1.708432e+02   3.120951e+01
  -1.884035e+02  -1.307664e+02
  -3.243550e+01  -2.448180e+02
   1.199613e+02  -1.875849e+02
   1.171552e+02  -1.198876e+01
   8.186703e+01   7.840735e+01
   2.003760e+01   2.778448e+01
   2.876133e+01  -2.727174e+01
   1.201582e+02   7.314184e+00
   2.451444e+01   4.619378e+01
  -5.934449e+01   8.641633e+01
  -1.190860e+02   5.289375e+01
  -2.525379e+01  -4.857702e+01
   3.929530e+01  -1.675983e+02
   1.758569e+02  -1.183441e+02
   2.121982e+02   6.144472e+01
   1.460669e+02   2.481101e+02
  -8.595498e+01   2.119591e+02
  -2.801940e+02   7.607271e+01
  -2.403378e+02  -7.697731e+01
  -1.484710e+02  -1.667430e+02
   2.993555e+01  -1.565259e+02
   8.031101e+01  -9.478179e+01
   1.035303e+02  -5.992519e+01
   4.277666e+01  -8.167278e+01
   1.133060e+02  -6.501201e+01
   1.258267e+02   1.027519e+01
   1.321815e+02   1.720719e+02
   3.188213e+01   2.472500e+02
  -1.109497e+02   1.738992e+02
  -2.089505e+02   2.451973e+01
  -1.784027e+02  -1.128460e+02
   2.684161e+01  -1.340532e+02
   6.972108e+01  -5.089049e+01
   3.401837e+01  -1.027656e+01
  -4.552524e+01   2.535295e+01
   1.953994e+01   5.354773e+01
   5.147867e+01  -8.617153e+00
   6.420373e+01   4.256178e+01
   4.701464e+01   3.665472e+01
  -6.447651e+01   7.570485e+00
  -1.672614e+02   9.997253e+00
  -1.569506e+02  -4.017743e+01
  -2.628090e+01  -6.970311e+01
   1.169206e+02  -6.375431e+01
   1.388251e+02   1.010468e+00
   1.818512e+01   6.340973e+01
  -9.049805e+01   6.928052e+01
  -5.043892e+01   1.222204e+01
   1.259397e+01  -8.888137e+01
   7.846614e+01  -5.320407e+01
   6.088128e+01   2.849328e+01
   5.021790e+01   6.678731e+01
   4.622024e+01   1.167119e+01
   4.856815e+01  -2.706467e+01
   5.524769e+01   2.687093e+01
   2.348614e+01   4.330697e+01
  -3.215341e+01   1.661345e+02
  -8.086445e+01   1.339020e+02
  -1.328369e+02  -1.641029e+01
  -1.356310e+02  -1.143964e+02
   3.867881e+01  -1.294287e+02
   5.493728e+01  -9.774039e+01
   6.909183e+01   2.464842e+00
  -6.537600e+01   3.305543e+01
  -1.166582e+02  -2.227650e+01
  -9.820692e+01  -1.016604e+02
   7.646760e+01  -9.472790e+01
   2.272171e+02  -5.360322e+01
   1.669055e+02  -5.335562e-01
   6.040139e+01   1.270476e+02
  -2.422098e+01   6.373181e+01
  -8.572668e+01   1.729836e+01
   6.131092e+01  -3.879248e+01
   7.397912e+01   1.120791e+01
   1.662954e+01   1.123099e+02
  -8.230539e+01   1.691021e+02
  -1.657953e+02   6.269898e+01
  -1.530554e+02  -1.105254e+02
   5.814759e+00  -2.301808e+02
   8.534766e+01  -1.473908e+02
   8.497659e+01   8.693879e+00
   1.081967e+02   6.596081e+01
  -3.373223e+01   1.181137e+02
  -5.741818e+01   3.896728e+01
  -6.712438e+01  -4.239169e+01
  -1.675899e+01   3.086149e+01
  -3.106810e+01   4.586484e+01
  -5.612581e+00  -1.265653e+01
  -3.104821e+01  -9.465918e+01
  -6.742462e+01  -1.201851e+02
   6.249939e+01  -5.149985e+01
   1.886035e+02   8.237816e+01
   1.255962e+02   7.019273e+01
   1.508940e+00   3.709392e+01
  -8.298982e+01  -1.988084e+01
  -1.196011e+02   7.689737e+00
  -4.051687e+01   2.071609e+01
   2.177231e+01  -3.074865e+01
   5.497268e+00  -5.654912e+00
  -2.757600e+00   1.917721e+01
  -1.081343e+01  -2.061766e+01
   8.599495e+01   1.516405e+01
   1.034170e+02  -3.516371e+01
   3.804690e+01   7.707137e+01
  -1.119640e+02   1.014770e+02
  -1.570574e+02   6.888257e+01
  -1.398027e+02  -5.428107e+01
  -1.859504e+01  -1.846817e+02
   7.253468e+01  -1.629653e+02
   1.052806e+02  -8.866041e+01
   5.049951e+01   4.142572e+01
   2.358746e+01   3.437611e+01
   1.563317e+01  -6.548000e+00
   3.292040e+01  -5.557388e+00
   4.417559e+01   5.309651e+01
   1.601018e+01   1.161954e+02
  -5.074926e+01   7.087883e+01
  -7.336440e+01  -1.465082e+01
  -8.208920e+01  -1.050874e+02
  -9.643739e+00  -1.232011e+02
   7.695788e+01  -3.403918e+01
   7.960820e+01   1.042571e+02
   3.566968e+01   8.596800e+01
  -8.453345e+01   8.248900e+01
  -1.338898e+02  -4.484504e+01
  -3.240794e+01  -8.348104e+01
   3.484001e+01  -5.132473e+01
   2.941875e+01  -5.700177e+01
  -1.789479e+01   1.278142e+01
  -6.809843e+01  -1.109767e+01
  -7.781005e+00  -3.938203e+01
   6.291733e+01  -8.805741e+01
   7.638921e+01  -9.891478e+01
   5.116672e+01  -4.493075e+01
  -1.475675e+01   8.116573e+01
  -8.489698e+01   7.382502e+01
  -3.672745e+01  -8.012411e+00
   2.320721e+01  -3.721687e+01
   2.886519e+01  -4.839066e+01
   2.315719e+01   2.592012e+01
   2.176975e+01   6.814897e+01
  -1.952485e+01   4.949576e+01
  -7.015063e+01   1.184505e+01
  -8.022850e+01  -2.289835e+01
  -3.116591e+01   1.938440e+01
   1.321364e+01   2.613842e+01
   1.210688e+01  -7.700580e+00
   4.647072e+00  -2.615554e+01
   1.036320e+00  -5.323050e+01
   4.961357e+01  -1.708669e+01
   4.260626e+01   3.703975e+01
  -4.952491e+00   6.237523e+01
  -3.941832e+01   2.609369e+01
  -7.307150e+01  -1.355847e+01
  -3.682671e+01  -8.255922e+01
   7.746282e+01  -4.522259e+01
   9.404398e+01  -3.678062e-01
   2.613509e+01   3.048480e+01
  -2.074563e+01   2.594730e+01
  -5.711211e+01   4.456715e+01
  -3.181894e+00  -8.086140e+00
   2.405843e+01   2.385131e+01
   2.041668e-01  -1.495505e+01
  -4.870384e+01   4.531149e+00
  -9.454743e+01   2.331000e+01
