
 $NMID
 id='ANONYMOUS ', fmtdat='(2E16.6)'
 volume=1.0
 tramp=1.0
 $END
   3.536811e+03   1.492061e+01
   2.418180e+03   2.079738e+03
  -9.658980e+00   2.271568e+03
  -1.621761e+03   1.012676e+03
  -8.000671e+02  -2.025704e+02
   1.609062e+02  -1.134340e+02
   5.020980e+02   2.534498e+02
   6.116609e+01   8.608161e+02
  -6.098754e+02   8.857699e+02
  -7.833824e+02   4.043603e+01
  -3.381103e+02  -6.089692e+02
   6.322537e+01  -7.000467e+02
   5.027662e+02  -1.675917e+02
   4.001727e+02   6.372104e+02
  -1.835671e+02   6.546089e+02
  -4.910064e+02   3.227313e+01
  -3.740258e+02  -5.347391e+02
   2.807858e+02  -6.245315e+02
   5.295262e+02  -2.374025e+02
   4.494038e+02   2.394421e+02
   8.514086e+01   3.895150e+02
  -1.920628e+02   2.472720e+02
  -1.216506e+02   7.784999e+01
   1.727036e+02  -2.101131e+00
   2.978546e+02   2.543960e+02
   6.077888e+01   3.628099e+02
  -4.746092e+02   3.324633e+02
  -6.943887e+02  -1.308988e+02
  -2.821470e+02  -4.676597e+02
   2.676043e+02  -3.324221e+02
   5.426736e+02   1.055929e+02
   2.345135e+02   4.593996e+02
  -2.117758e+02   3.798087e+02
  -4.480744e+02   1.407376e+02
  -3.148013e+02  -1.685209e+02
  -8.702738e+01  -3.662208e+02
   8.466042e+01  -2.328260e+02
   1.069804e+02   1.650542e+02
  -2.021660e+02   3.214359e+02
  -3.453883e+02  -1.870026e+01
  -1.070885e+02  -4.771921e+02
   2.729305e+02  -5.863428e+02
   4.872244e+02   4.124971e+01
   2.219084e+02   4.000235e+02
  -2.310831e+02   2.716558e+02
  -3.201605e+02  -2.523167e+02
   1.257843e+02  -4.894986e+02
   4.990029e+02  -1.009311e+02
   5.720923e+02   4.252085e+02
   1.822079e+02   5.591623e+02
  -3.921220e+02   2.710506e+02
  -6.306651e+02  -1.790009e+01
  -3.429744e+02  -2.997288e+02
   1.031579e+02  -3.005738e+02
   4.020201e+02  -9.842535e+01
   2.269207e+02   9.303323e+01
  -7.257659e+01   1.192374e+02
  -7.522607e+01  -8.667515e+01
   1.219546e+02  -7.164371e+01
   2.506726e+02   2.677136e+01
   1.752551e+02   2.646586e+02
  -1.513446e+02   2.534589e+02
  -3.039615e+02   1.344262e+02
  -2.271871e+02  -8.368015e+01
   2.151742e+01  -2.874541e+02
   2.514707e+02  -3.104609e+02
   3.468700e+02  -1.941132e+02
   2.868439e+02   1.317078e+02
   6.705896e+01   4.026596e+02
  -1.181914e+02   3.508606e+02
  -4.342676e+00   1.514257e+02
  -5.608403e+01   3.865673e+01
  -8.122666e+01   1.308342e+02
  -2.296219e+02   6.433430e+01
  -2.430658e+02  -5.215112e+01
  -1.310596e+02  -2.244813e+02
   1.023152e+02  -1.731214e+02
   2.415711e+02   1.415821e+01
   1.403470e+02   2.255059e+02
  -1.240927e+01   2.391938e+02
  -2.504981e+02   9.051078e+01
  -3.639458e+02  -1.198178e+02
  -1.474489e+02  -3.489824e+02
   4.242524e+01  -2.988684e+02
   2.039015e+02  -1.424823e+02
   1.465242e+02  -2.275230e+01
   7.983077e+01  -6.241112e+01
   2.866816e+02  -6.295064e+01
   4.141243e+02   9.114209e+01
   3.240836e+02   2.864638e+02
   7.244483e+00   4.321646e+02
  -3.611709e+02   4.101970e+02
  -4.316770e+02   1.952260e+02
  -2.795308e+02  -8.590615e+01
  -6.856490e+01  -2.769598e+02
   1.078635e+02  -2.635221e+02
   2.811160e+01  -4.195629e+01
  -8.552010e+01   8.225214e+01
  -1.531074e+02   2.604055e+01
  -3.000259e+01  -1.608202e+02
   1.631311e+02  -1.054343e+02
   1.360787e+02   6.791332e+01
  -1.172880e+01   1.168214e+02
  -1.828758e+02  -2.419901e+01
  -1.861583e+02  -2.206746e+02
   3.496748e+01  -3.773792e+02
   2.170829e+02  -2.044589e+02
   3.118958e+02   4.139465e+01
   2.602999e+02   2.336933e+02
   4.533336e+01   2.804079e+02
  -1.452533e+02   1.524080e+02
  -1.637537e+02  -9.558891e+00
  -7.550627e+01  -3.328121e+01
   6.444233e+01   4.464228e+01
   3.224380e+00   1.305689e+02
  -1.124523e+02   7.726749e+01
  -1.875053e+02  -1.513129e+00
  -5.144703e+01  -5.738676e+01
   8.690552e+01  -2.966377e+01
   5.208382e+01   8.181596e+01
  -1.241169e+02   8.201626e+01
  -3.203587e+02   2.334015e+00
  -2.390715e+02  -1.389279e+02
  -5.233586e+01  -2.838574e+02
   2.051296e+02  -2.739488e+02
   2.476459e+02  -1.272738e+02
   1.305172e+02   3.725947e+01
  -5.364074e+01   7.557267e+01
  -1.039631e+02  -5.142129e+00
   4.671444e+01  -7.887157e+01
   2.140739e+02  -7.988855e+01
   2.001682e+02   9.943739e+01
   2.078672e+01   1.572613e+02
  -9.874108e+01   1.553173e+02
  -1.030413e+02   3.839504e+01
  -5.808950e+01  -4.425735e+01
   9.434688e+00   1.729829e+01
   4.437255e+01   1.096822e+02
  -8.463089e+01   1.121195e+02
  -2.132972e+02   1.848876e+01
  -1.892706e+02  -7.820509e+01
  -6.228307e+01  -1.919026e+02
   1.508276e+02  -1.273826e+02
   1.657038e+02  -9.393217e-01
   2.491971e+01   9.649334e+01
  -6.703131e+01   9.951016e+01
  -1.011979e+02   3.534395e+01
  -1.952808e+01  -7.005632e+01
  -8.470576e+00   1.753499e+01
   2.275845e+01   1.284430e+01
  -7.883572e+01  -2.965684e+01
  -4.526938e+01  -1.239883e+02
  -1.617981e+01  -1.789433e+02
   1.574079e+02  -1.509030e+02
   2.508614e+02   4.766753e+00
   2.469649e+02   1.269717e+02
   1.880601e+01   2.237565e+02
  -1.502349e+02   1.783413e+02
  -1.604334e+02   4.197110e+01
  -6.982850e+01  -8.812377e+01
  -5.446932e+01  -7.306235e+01
  -5.862699e+01   1.409760e+01
  -9.014292e+01   2.900077e+01
  -6.405274e+01  -2.968599e+01
   5.181572e+01  -9.612585e+01
   1.508492e+02  -6.417163e+01
   9.636931e+01   2.498961e+01
  -2.476663e+01   1.208591e+02
  -1.812329e+02   6.193444e+01
  -1.724266e+02  -9.211834e+01
  -9.020567e+01  -2.419463e+02
   1.366023e+02  -2.409389e+02
   2.789578e+02  -6.913179e+01
   2.327914e+02   7.768796e+01
   9.582769e+01   1.875111e+02
  -3.801777e+01   1.454500e+02
  -7.646840e+01   4.135172e+01
  -6.862927e+01   6.549472e+01
  -7.597304e+01   7.612196e+01
  -9.129351e+01   7.498210e+01
  -1.306024e+02  -3.476816e+01
  -9.179510e+01  -1.385436e+02
  -9.362046e+00  -2.154838e+02
   9.850973e+01  -1.506203e+02
   1.660656e+02  -2.920040e+01
   1.617712e+02   7.155088e+01
   1.570603e+01   1.381999e+02
  -6.843647e+01   8.953969e+01
  -6.386854e+01  -2.913654e+00
  -9.184303e+00  -3.357822e+01
  -1.681203e+01  -5.283332e+01
  -3.521751e+00  -3.857503e+01
  -6.215027e+01  -3.453292e+01
  -4.663129e+01  -2.623051e+01
   8.748497e+01  -2.587370e+01
   1.728302e+02   1.008878e+01
   1.443065e+02   3.798414e+01
   2.771209e-01   4.815597e+01
  -1.292702e+02   1.110316e+02
  -1.521672e+02   5.364984e+00
  -3.745782e+01  -2.769406e+01
   6.010840e+01  -7.262180e+00
   7.962367e+01   3.065722e+01
  -4.094215e+00   5.376592e+01
  -4.949906e+01   6.554519e+01
  -6.720249e+01   9.826327e+00
  -3.044349e+01  -3.147159e+01
  -6.314705e+01  -7.179483e+01
  -6.142475e+01   1.089245e+01
  -1.137205e+02  -1.985610e+01
  -3.806957e+01  -3.608328e+01
   2.395262e+01  -1.430796e+02
   1.196849e+02  -1.123974e+02
   1.599626e+02  -4.304107e+01
   1.221208e+02   1.005748e+02
  -2.125600e+00   1.257258e+02
  -8.104796e+01   3.437488e+01
  -6.061442e+01  -2.826855e+01
   4.457699e+01  -3.401622e+01
   1.417239e+02   5.174152e+01
   9.592707e+01   7.829435e+01
  -8.393138e+01   1.063203e+02
  -2.248844e+02   5.590913e+01
  -1.420496e+02  -6.033777e+01
  -4.741978e+01  -4.255389e+01
   6.998216e+01  -2.453950e+01
   3.156752e+01  -2.424109e+01
  -3.026315e+01   6.991342e+01
  -1.042686e+02   1.387979e+01
  -1.758207e+01  -8.778847e+01
   6.489894e+01  -1.778649e+02
   1.500060e+02  -7.255643e+01
   9.872394e+01   1.297158e+02
   2.105499e+01   1.918756e+02
  -1.164186e+02   1.518264e+02
  -9.258643e+01   2.241152e+01
  -8.597573e+01  -1.421600e+02
   1.278752e+01  -1.017999e+02
   3.310525e+01  -1.229227e+01
   7.246609e+01   3.346169e+01
   3.206040e+01   3.411959e+01
   2.268389e+01  -2.751546e+01
   3.296976e+01   1.684974e+01
   3.356165e+01   4.540638e+01
   5.811918e+01   8.974560e+01
  -3.779804e+01   5.565811e+01
  -1.255871e+02  -1.202003e+01
  -1.544093e+02  -7.887336e+01
   3.017134e+01  -5.835542e+01
   7.365862e+01  -1.957315e+01
   9.110994e+01   9.864319e+00
   1.788709e+01   8.846802e+00
  -4.874914e+01   3.450575e+01
  -3.005907e+01   3.300113e+01
  -1.093107e+01   8.264870e+00
  -4.321234e+01   1.254387e+01
  -1.096908e+02  -1.042349e+01
  -1.133609e+02  -1.876834e+01
  -5.527182e+01  -1.157421e+02
   1.046091e+02  -1.347505e+02
   2.124333e+02  -3.083525e+01
   1.268613e+02   4.775588e+01
   4.173548e+01   1.722838e+02
  -4.347323e+01   1.529319e+02
  -1.336843e+02   6.539764e+01
  -6.702278e+01  -6.584168e-01
  -2.878198e+01  -1.899590e+01
   1.263971e+01  -3.233202e+01
  -2.525430e+01  -4.230437e+01
  -3.980119e+01  -5.243050e+01
  -2.018888e+01  -1.087644e+02
   2.158310e+01  -4.037707e+01
   7.697709e+01  -7.322954e+00
   9.610953e+01   9.588243e+01
  -3.643487e+00   7.535437e+01
  -7.328780e+01   2.402163e+01
  -9.601922e+01  -9.029204e+01
  -2.573537e+01  -9.089886e+01
   5.407325e+01  -6.987519e+01
   9.878292e+01  -1.322540e+01
  -2.229430e+01   3.893918e+01
  -3.778281e+01   3.189120e+01
  -3.007260e+01   4.304926e+01
   2.591713e+01   1.493329e-01
   7.921811e+01  -9.702678e+00
  -5.747047e-01   3.745030e+01
  -1.234789e+02   4.091636e+01
  -1.256001e+02   2.700935e+01
  -1.101181e+02   4.173098e+01
   3.940562e+01  -1.023169e+02
   5.904503e+01  -1.010820e+02
  -1.689260e+01  -4.429912e+01
   2.202674e+01   1.541816e+01
  -2.222946e+01   6.642454e+01
  -2.381565e+01   4.498210e+00
  -3.526606e+01  -3.502527e+01
  -1.946187e+01  -2.878281e+01
   3.782341e+01   3.374445e+01
   1.074531e+01   4.096711e+01
   1.505943e+01   3.955789e+01
  -1.935925e+01  -4.759887e+01
  -1.247245e+01  -1.621334e+00
  -1.556057e+01   6.648782e+01
  -1.560489e+00   4.689667e+01
  -2.018531e+01  -3.470679e+01
  -3.867179e+01  -3.503117e+01
  -2.194666e+01  -7.036488e+01
   2.662027e+01  -4.636260e+01
   5.330893e+01   4.709580e+01
   1.947831e+01   1.150105e+02
  -5.787459e+01   1.103550e+01
  -1.297089e+02  -6.382197e+00
  -6.822485e+01  -3.486884e+01
   3.459282e+01  -5.385404e+01
   6.544627e+01   7.212388e+00
  -1.158142e+01   8.382410e+00
  -4.909970e+01  -6.474536e+00
  -1.367041e+00  -1.295958e+01
   1.847604e+01  -2.981240e+01
   7.900892e+01  -3.200549e+01
