
 $NMID
 id='ANONYMOUS ', fmtdat='(2E16.6)'
 volume=1.0
 tramp=1.0
 $END
   3.645800e+03  -1.256401e+02
   2.472593e+03   1.987691e+03
  -2.843433e+02   2.400585e+03
  -1.776565e+03   1.039577e+03
  -7.696936e+02  -1.939136e+02
   2.091142e+02  -3.334822e+02
   6.059835e+02   2.991541e+02
   1.061572e+01   7.833346e+02
  -6.798409e+02   6.483479e+02
  -7.916931e+02  -1.420295e+02
  -3.729349e+02  -6.494435e+02
   1.184383e+02  -6.890034e+02
   4.357418e+02  -7.909592e+01
   1.751466e+02   6.995000e+02
  -2.620173e+02   6.495242e+02
  -4.279021e+02  -1.845835e+01
  -2.535946e+02  -5.513503e+02
   2.847871e+02  -7.090612e+02
   5.822846e+02  -1.533730e+02
   4.630879e+02   2.527125e+02
   3.222920e+01   3.665097e+02
  -1.563294e+02   2.446457e+02
  -1.370271e+02  -2.427043e+00
   2.299449e+02  -1.231985e+01
   3.168632e+02   2.551168e+02
   1.881453e+01   4.608505e+02
  -4.040965e+02   2.798949e+02
  -7.840207e+02  -1.279127e+02
  -2.830129e+02  -4.558275e+02
   5.315722e+02  -2.704053e+02
   6.015994e+02   1.273806e+02
   2.102970e+02   4.324180e+02
  -2.198176e+02   4.118239e+02
  -5.586099e+02   1.325589e+02
  -3.476751e+02  -2.416145e+02
  -1.912158e+01  -4.915941e+02
   1.195700e+02  -1.512211e+02
   4.122781e+01   2.059636e+02
  -2.439054e+02   1.825864e+02
  -3.476043e+02  -1.275562e+02
  -1.111106e+02  -6.552358e+02
   3.240024e+02  -5.430791e+02
   4.744484e+02   6.666404e+01
   1.763936e+02   3.759928e+02
  -2.253637e+02   1.949032e+02
  -2.577268e+02  -3.332262e+02
   1.767687e+02  -4.541585e+02
   4.995753e+02  -3.401165e+01
   5.103781e+02   4.504751e+02
   1.524166e+02   5.820213e+02
  -3.833586e+02   2.291162e+02
  -6.563235e+02  -7.037796e+01
  -3.160526e+02  -3.091118e+02
   8.112234e+01  -2.688904e+02
   3.550751e+02  -1.227277e+01
   2.024911e+02   1.190292e+02
  -1.208581e+01   6.105201e+01
  -3.064171e+01  -1.070761e+02
   1.383811e+02  -8.863947e+01
   3.057337e+02   7.515430e+01
   1.368352e+02   2.571409e+02
  -1.482387e+02   2.335330e+02
  -3.346577e+02   6.781557e+01
  -2.443719e+02  -8.233592e+01
   2.235346e+01  -2.905573e+02
   2.818301e+02  -3.529763e+02
   3.725340e+02  -1.830869e+02
   2.786379e+02   1.755916e+02
   5.737373e+01   3.885738e+02
  -8.999012e+01   3.471964e+02
  -3.701897e+01   1.446792e+02
   1.720904e+01   8.628518e+01
  -3.816841e+01   1.101861e+02
  -2.754139e+02   9.178027e+01
  -2.981100e+02  -8.881287e+01
  -1.007818e+02  -2.096993e+02
   9.295826e+01  -2.375960e+02
   1.718733e+02   4.661935e+00
   1.118980e+02   2.331947e+02
  -5.017189e+01   2.585268e+02
  -2.406994e+02   7.842952e+01
  -3.614390e+02  -1.880642e+02
  -1.242033e+02  -3.518124e+02
   5.507037e+01  -3.114564e+02
   2.246352e+02  -1.409817e+02
   1.341591e+02  -2.777578e+01
   1.234853e+02  -8.244803e+01
   2.502152e+02  -3.158941e+01
   3.778669e+02   1.001689e+02
   3.310353e+02   3.160358e+02
  -2.891697e+01   4.265595e+02
  -4.167787e+02   4.099324e+02
  -5.162545e+02   2.172833e+02
  -2.868802e+02  -9.140845e+01
  -1.942086e+01  -2.715170e+02
   9.742729e+01  -2.327377e+02
   6.805357e+01  -9.441701e+00
  -1.162837e+02   7.267131e+01
  -1.622703e+02  -6.629456e+01
  -4.851055e+01  -1.614826e+02
   1.623345e+02  -1.094375e+02
   1.496180e+02   1.086984e+02
  -3.515155e+01   1.306607e+02
  -1.725065e+02  -1.128413e+01
  -1.045759e+02  -2.465632e+02
   3.046500e+01  -2.958270e+02
   2.292517e+02  -1.985319e+02
   3.536810e+02   6.960078e+01
   2.998412e+02   3.178305e+02
   5.282957e+01   2.701017e+02
  -1.344757e+02   1.452666e+02
  -1.650930e+02  -9.214101e+00
  -5.187905e+01  -2.191675e+01
   6.202540e+01   8.045109e+01
   1.806545e+01   9.790741e+01
  -1.572962e+02   5.238141e+01
  -1.756593e+02  -7.550878e+01
  -4.328179e+01  -2.360444e+01
   7.166428e+01  -2.085898e+01
   3.732286e+01   3.660609e+01
  -1.462161e+02   4.666921e+01
  -2.803246e+02   8.713296e+00
  -2.914750e+02  -1.562745e+02
  -3.286826e+01  -2.877049e+02
   2.191161e+02  -2.308630e+02
   2.413639e+02  -1.187323e+02
   1.831863e+02   6.984167e+01
  -1.751926e+01   9.601490e+01
  -1.172164e+02   1.511426e+01
   5.372447e+01  -9.756151e+01
   2.176821e+02  -7.929311e+00
   1.847016e+02   1.074312e+02
   4.650848e+01   1.784074e+02
  -1.052212e+02   1.466137e+02
  -1.159842e+02   3.181341e+01
  -7.440984e+01  -3.031327e+01
   4.299180e+01  -8.987464e+00
   9.484241e+00   1.066370e+02
  -5.985678e+01   1.189220e+02
  -1.940550e+02  -1.105800e+01
  -1.785921e+02  -1.519549e+02
   6.519723e-01  -2.133027e+02
   1.500891e+02  -9.394566e+01
   1.532976e+02  -1.141297e+01
   6.652641e+01   1.131303e+02
  -1.054297e+02   6.801082e+01
  -8.880040e+01  -1.605701e+00
   1.570780e+01  -2.786564e+01
   3.720763e+01  -3.132847e+01
   2.208974e+01   1.513983e+01
  -7.632826e+01  -2.330758e+01
  -6.583585e+01  -7.345363e+01
  -7.260926e+00  -1.902500e+02
   1.327459e+02  -1.786541e+02
   2.316659e+02  -6.198853e+00
   1.437659e+02   1.339515e+02
   3.387314e+01   2.576956e+02
  -1.107209e+02   1.952519e+02
  -1.529258e+02   5.667711e+01
  -7.408394e+01  -2.625555e-01
  -2.595893e+01  -7.707856e+01
  -4.984093e+01   7.165390e-02
  -6.948756e+01  -1.198085e+00
  -4.573740e+01  -9.283744e+01
   5.251277e+01  -1.150800e+02
   1.592102e+02  -4.727562e+01
   1.029495e+02   3.718445e+01
   7.778559e+00   1.182698e+02
  -1.414818e+02   4.785720e+01
  -1.890274e+02  -5.919533e+01
  -9.383164e+01  -2.031901e+02
   1.495935e+02  -2.310861e+02
   2.853368e+02  -9.681609e+01
   2.200772e+02   9.007264e+01
   1.135046e+02   1.750141e+02
  -6.196958e+01   1.290113e+02
  -1.188849e+02   1.000555e+02
  -6.401607e+01   6.914524e+01
  -6.246731e+01   9.071941e+01
  -1.220271e+02   1.027686e+02
  -1.121735e+02  -4.078796e+01
  -1.056199e+02  -1.261761e+02
  -5.274640e+01  -2.582235e+02
   9.469970e+01  -1.695073e+02
   1.496016e+02  -2.042611e+01
   1.151161e+02   1.045641e+02
   1.877989e+01   1.719114e+02
  -7.483915e+01   4.927652e+01
  -9.465215e+01  -1.846240e+01
  -1.042615e+01  -8.649747e+01
   3.642943e+01  -6.507596e+01
  -3.616461e+01  -1.160501e+01
  -6.374439e+01  -6.484837e+00
  -9.110661e+01  -4.443628e+01
   5.772380e+01  -3.868057e+01
   1.438323e+02  -2.307376e+01
   9.780275e+01   8.193180e+01
   3.635259e+00   1.063550e+02
  -1.451404e+02   7.170525e+01
  -1.053513e+02   3.495725e+00
  -2.104691e+01  -4.742510e+01
   8.506441e+01  -2.753352e+01
   7.134497e+01   2.238476e+01
  -7.079699e+00   8.544591e+01
  -5.743926e+01   5.840287e+01
  -2.807526e+01   1.847976e+01
  -4.192237e+01   4.641231e+00
  -5.050477e+01  -6.639052e+01
  -7.759690e+01   1.684133e+01
  -9.906000e+01   2.243385e+01
  -4.381501e+01  -1.017587e+02
   4.746431e+01  -1.823568e+02
   1.042764e+02  -1.577016e+02
   1.888878e+02  -3.192209e+01
   1.032540e+02   8.536828e+01
  -4.753972e+01   1.408025e+02
  -5.466499e+01   7.675827e+01
  -8.634964e+01  -5.531050e+01
   8.237574e+01  -5.516618e+00
   1.075678e+02   4.995531e+01
   5.599868e+01   1.071507e+02
  -1.389066e+02   8.675617e+01
  -2.062543e+02   3.503178e+01
  -1.665673e+02  -5.058480e+01
  -5.392295e+01  -8.115888e+01
   5.471033e+01  -9.581240e+01
   3.468815e+01  -4.533124e+01
  -4.807152e+01   2.605062e+01
  -1.008680e+02  -3.068040e+01
  -3.126538e+01  -1.198719e+02
   6.800572e+01  -1.688683e+02
   1.524042e+02  -5.511959e+01
   1.547337e+02   1.108655e+02
   7.930096e+00   2.050851e+02
  -8.926070e+01   1.369964e+02
  -1.273254e+02   1.204252e+01
  -2.234956e+01  -1.441007e+02
   5.136353e+00  -1.103711e+02
   6.999130e+01  -4.951218e+01
   4.151142e+01   8.085599e+01
   5.194731e+01  -8.372022e+00
   4.224491e+00   5.077204e+00
   3.873947e+01   1.131541e+01
   7.170424e+01   7.510626e+01
   5.286353e+01   9.373842e+01
  -5.731648e+01   2.106732e+01
  -1.507492e+02  -3.057472e+01
  -8.855214e+01  -7.267382e+01
  -2.705585e+01  -3.491561e+01
   8.984340e+01  -2.231421e+01
   5.367412e+01   1.973155e+01
   1.930274e+01   3.637470e+01
  -5.471110e+01   2.959796e+01
  -1.665439e+01   6.837103e+01
   7.681497e+00  -1.957863e+01
  -3.114256e+01  -3.759126e+01
  -4.715497e+01  -1.063561e+01
  -9.291771e+01  -2.065278e+01
  -5.347945e+00  -7.839918e+01
   1.139701e+02  -1.249142e+02
   2.009322e+02  -3.652459e+01
   1.540914e+02   9.451903e+01
   3.568511e+01   1.448599e+02
  -9.374484e+01   1.762562e+02
  -9.133336e+01   4.302330e+01
  -6.737692e+01   1.329854e+00
  -4.830059e+01  -4.773828e+01
   3.165592e+01  -5.874847e+01
   5.463913e+00   3.743698e+01
  -6.814657e+01  -3.738958e+01
  -2.495541e+01  -9.453472e+01
   7.094503e+01  -7.958753e+01
   6.167822e+01   2.744132e+01
   8.086006e+01   1.392881e+02
   2.011567e+00   9.637483e+01
  -6.287395e+01   4.584310e+01
  -9.114301e+01  -4.317303e+01
  -3.059213e+01  -1.214181e+02
   5.888062e+01  -5.171936e+01
   1.039019e+02   4.823202e+01
  -2.232152e+00   1.720552e+01
  -2.220355e+01   6.903941e+01
   1.223126e+01   1.679614e+01
   3.154335e+01   2.652579e+00
   5.961662e+01  -1.402954e+01
   4.315501e+01   6.641715e+01
  -1.088097e+02   5.898478e+01
  -1.248786e+02   5.545225e+01
  -6.049350e+01  -1.824201e+00
   9.299808e+00  -7.081339e+01
   6.505659e+01  -9.559899e+01
   3.197091e+01  -1.516136e+01
  -6.209592e+00   6.206733e+01
  -1.878273e+01   6.158049e+01
  -6.688745e+00  -5.151630e+01
  -6.053422e-01  -1.538008e+01
  -3.282784e+01  -4.017591e+01
   2.140164e+01  -2.777384e+00
   1.401463e+00  -3.036340e+01
   1.998717e+00  -1.565471e+01
  -2.797714e+01  -3.431838e+01
  -3.062646e+01  -6.094195e+00
   9.760621e+00   3.769103e+01
  -2.136962e+01   6.506912e+01
  -1.675573e+01   2.330366e+01
  -1.093056e+01  -2.474269e+01
   2.368040e+01  -7.698490e+01
   5.125024e+01  -2.068208e+01
   3.690542e+01   5.345336e+01
   3.021514e+01   5.718175e+01
  -3.566622e+01   4.365729e+01
  -8.547006e+01   1.404519e+00
  -4.885410e+01  -8.589287e+00
   6.219183e+01  -4.002921e+01
   5.979047e+01  -5.771694e+01
   2.768957e+01  -2.783596e+01
  -4.984207e+01   1.395263e+01
  -4.742062e+01   4.634688e+00
   4.932435e+01  -2.044748e+01
   1.024021e+02   1.676887e+01
