
 $NMID
 id='ANONYMOUS ', fmtdat='(2E16.6)'
 volume=1.0
 tramp=1.0
 $END
  -4.033775e+03   2.590355e+02
  -2.293093e+03  -1.875757e+03
   3.228708e+02  -2.596455e+03
   1.415693e+03  -1.210116e+03
   1.158793e+03   1.273205e+02
  -4.691601e+02   5.406554e+02
  -7.856074e+02  -7.648745e+01
  -2.360453e+02  -8.333882e+02
   5.758013e+02  -8.049112e+02
   7.483605e+02  -6.884406e+01
   5.108340e+02   7.872700e+02
  -8.421698e+01   7.540933e+02
  -4.989918e+02   2.311496e+02
  -3.867056e+02  -5.501392e+02
   1.027851e+02  -6.390130e+02
   5.536465e+02  -9.988441e+01
   3.386007e+02   6.266676e+02
  -2.485984e+02   6.176855e+02
  -5.407462e+02   2.032721e+02
  -4.363424e+02  -2.979497e+02
  -1.308179e+02  -4.608704e+02
   1.864595e+02  -2.480374e+02
   1.211880e+02  -9.435650e+01
  -1.604430e+02  -1.723778e+01
  -2.764058e+02  -2.055892e+02
  -1.235666e+02  -3.917824e+02
   4.853606e+02  -2.883620e+02
   6.785431e+02   1.003667e+02
   4.151956e+02   4.732874e+02
  -2.347471e+02   3.643334e+02
  -6.206685e+02  -1.161276e+01
  -3.691594e+02  -4.162187e+02
   2.465903e+02  -4.658820e+02
   5.228462e+02  -2.431150e+02
   3.477159e+02   1.791154e+02
   1.125586e+02   3.663459e+02
  -5.224479e+01   2.903968e+02
  -2.757914e+01  -1.520558e+02
   1.408000e+02  -2.892479e+02
   3.342447e+02   3.756351e+01
   1.920000e+02   5.926003e+02
  -2.317766e+02   5.745282e+02
  -4.899399e+02   6.118242e+01
  -2.803368e+02  -4.341308e+02
   2.021367e+02  -3.273277e+02
   2.223166e+02   2.879977e+02
  -7.372711e+01   4.108474e+02
  -5.110235e+02   1.596483e+02
  -5.901194e+02  -3.860543e+02
  -1.560829e+02  -5.291261e+02
   3.015093e+02  -3.145614e+02
   5.218311e+02   3.709928e+01
   4.027168e+02   2.808320e+02
  -8.982384e+01   2.957277e+02
  -3.879319e+02   8.291187e+01
  -2.534682e+02  -1.531444e+02
   5.834000e+01  -7.084587e+01
   1.142549e+02   6.575870e+01
  -1.287349e+02   1.209666e+02
  -2.884249e+02  -5.623100e+01
  -1.474034e+02  -2.416455e+02
   1.454901e+02  -2.825279e+02
   3.436106e+02  -8.683131e+01
   2.689640e+02   1.511525e+02
  -2.542379e+01   2.987269e+02
  -2.478394e+02   3.234611e+02
  -3.676078e+02   1.957545e+02
  -2.676820e+02  -1.670358e+02
  -6.708176e+01  -4.058272e+02
   7.164268e+01  -3.436829e+02
   1.081879e+02  -1.395523e+02
   1.560458e+01  -1.022707e+01
   9.858303e+01  -1.110353e+02
   2.264622e+02  -1.264970e+02
   2.252813e+02   5.357780e+01
   1.379491e+02   2.103966e+02
  -1.808773e+01   2.103373e+02
  -2.442645e+02  -2.149383e+01
  -1.731170e+02  -2.495273e+02
   1.062607e-02  -2.469703e+02
   2.410023e+02  -8.940924e+01
   3.221354e+02   1.399726e+02
   1.739619e+02   3.192019e+02
  -8.740741e+01   2.926711e+02
  -2.082552e+02   1.562009e+02
  -1.454847e+02   5.367878e+01
  -1.380845e+02   1.902474e+01
  -2.226697e+02   7.833185e+01
  -4.233191e+02  -6.695943e+01
  -3.553139e+02  -2.875647e+02
  -1.431867e+01  -4.031540e+02
   3.759738e+02  -3.628701e+02
   5.180105e+02  -1.719004e+02
   3.030604e+02   7.605393e+01
   2.913732e+01   2.927378e+02
  -1.077303e+02   2.519921e+02
  -2.750792e+01   5.596144e+01
   5.698698e+01  -5.236109e+01
   1.516699e+02   1.251935e+01
   3.045088e+01   2.144405e+02
  -1.184910e+02   1.485866e+02
  -2.008521e+02  -3.014211e+01
  -3.078577e+01  -1.631384e+02
   1.326753e+02  -5.903698e+01
   1.506156e+02   2.449579e+02
  -1.932360e+01   3.457228e+02
  -2.507038e+02   2.053782e+02
  -3.088640e+02  -2.833296e+01
  -2.431031e+02  -2.336294e+02
  -1.039598e+02  -2.754380e+02
   1.578852e+02  -1.649297e+02
   1.461098e+02  -3.099905e+01
   3.982885e+01   2.253419e+01
  -3.314355e+01  -3.263935e+01
  -5.171327e+00  -9.015516e+01
   1.167839e+02  -4.548447e+01
   1.794235e+02   2.391640e+01
   1.895722e+01   6.373707e+01
  -8.893465e+01   2.476647e+01
  -5.384973e+01  -7.751843e+01
   1.550785e+02  -6.395346e+01
   3.305315e+02  -3.114384e+01
   2.398465e+02   1.384141e+02
   5.198906e+01   2.340236e+02
  -2.096069e+02   2.565992e+02
  -2.501250e+02   1.061263e+02
  -1.402334e+02  -3.277950e+01
   1.088958e+01  -9.752779e+01
   4.479792e+01  -2.676609e+01
  -1.371564e+01   6.854756e+01
  -1.831429e+02   3.663656e+01
  -2.323654e+02  -7.867363e+01
  -1.002372e+02  -1.775507e+02
   8.058512e+01  -1.647595e+02
   1.132281e+02  -3.845097e+01
   8.906753e+01   3.986757e+01
  -2.556770e+01  -2.390500e+01
  -6.154114e+01  -1.312578e+02
   1.021631e+02  -8.517773e+01
   2.122921e+02  -1.990781e+01
   1.751289e+02   1.535176e+02
   4.614127e+01   2.148211e+02
  -1.669083e+02   1.415345e+02
  -2.004920e+02  -1.360993e+01
  -1.559269e+01  -1.299933e+02
   7.279205e+01  -1.380695e+02
   3.989936e+01  -7.946146e+01
   4.796173e+01  -2.988817e+00
  -7.530331e+01   4.245315e+01
  -2.808944e+01   1.426495e+00
   3.566114e+01   4.931808e+01
   7.674483e+01   1.022298e+02
   1.812041e+01   1.687570e+02
  -1.594709e+02   1.463233e+02
  -2.402327e+02   1.659962e+01
  -1.871707e+02  -1.426011e+02
  -7.725434e+01  -2.046900e+02
   1.232332e+02  -1.911553e+02
   1.348186e+02  -5.395121e+01
   5.708169e+01   5.859193e+01
   2.909775e+01   7.584599e+01
   6.600497e+01  -4.563607e+01
   1.337562e+02  -1.640266e+01
   8.544887e+01   4.605047e+01
  -5.049500e+01   9.522987e+01
  -1.258034e+02   6.080432e+01
  -1.226973e+02  -7.509806e+01
   3.435254e+01  -1.136725e+02
   1.772144e+02  -8.504016e+01
   1.723171e+02   5.512729e+01
   9.631556e+01   2.084499e+02
  -1.254403e+02   2.165050e+02
  -2.738522e+02   1.215163e+02
  -2.662904e+02  -9.188857e+01
  -1.102163e+02  -1.403125e+02
  -2.061942e+00  -1.345394e+02
   1.158905e+02  -8.263841e+01
   6.185785e+01  -4.916816e+01
   7.708956e+01  -9.791173e+01
   8.696414e+01  -9.515229e+01
   1.580595e+02   3.040417e+00
   1.025298e+02   1.405081e+02
   3.870989e+01   2.327826e+02
  -1.016367e+02   1.690175e+02
  -2.263613e+02   4.847090e+01
  -1.625975e+02  -1.290441e+02
  -2.840001e+01  -1.454560e+02
   9.313823e+01  -5.627385e+01
   1.979129e+01   4.733108e+01
  -3.089492e+01   7.350052e+01
   2.041580e+01   8.188320e+00
   4.291768e+01   1.304802e+01
   8.098060e+01   2.563118e+01
   2.124499e+01   2.838422e+01
  -6.849470e+01   2.743174e+01
  -1.317774e+02  -9.070687e+00
  -1.782060e+02  -9.001314e+01
  -6.232651e+00  -1.071383e+02
   1.626460e+02  -4.199165e+01
   1.617226e+02  -1.322944e+01
   7.047381e+01   7.124721e+01
  -5.016929e+01   5.586311e+01
  -7.304971e+01  -4.094752e+01
   1.567906e+01  -1.025458e+02
   9.110072e+01  -5.945525e+01
   9.323201e+01   1.074002e+01
   6.342185e+01   3.416600e+01
   5.080828e+01   7.160989e+01
   3.642101e+01   4.954295e+00
   7.041048e+01  -2.160662e+01
   8.223242e+01   8.992621e+01
  -4.560629e+01   1.461219e+02
  -7.586218e+01   1.456120e+02
  -1.707972e+02   6.077317e+01
  -1.260948e+02  -8.113494e+01
   1.617899e+01  -9.716985e+01
   1.380122e+02  -6.383136e+01
   4.149902e+01   1.335685e+01
  -1.829635e+01  -1.896806e+00
  -1.410663e+02   8.157747e-01
  -4.190445e+01  -7.380241e+01
   4.480575e+01  -1.156327e+02
   1.627207e+02  -2.868702e+01
   1.920902e+02   3.543225e+01
   5.950121e+01   5.845074e+01
  -2.920956e+01   6.827763e+01
  -4.023316e+01   2.789093e-01
   5.945178e+01  -1.579951e+01
   4.599585e+01   7.414614e+00
   3.776003e+01   7.835992e+01
  -9.147930e+01   1.417970e+02
  -1.828084e+02   4.822501e+01
  -1.450568e+02  -7.581869e+01
   1.642638e+01  -1.718399e+02
   7.111474e+01  -1.426875e+02
   1.108814e+02  -2.665047e+01
   6.446078e+01   9.818743e+01
   7.219175e+00   1.207331e+02
  -4.521059e+01   1.529786e+01
  -6.174891e+01  -2.188882e+01
  -3.989036e+00  -1.035121e+01
  -8.022702e-01  -1.063922e+01
  -4.591595e+01  -2.300602e+01
  -1.314066e+02  -7.915180e+01
  -1.555850e+01  -1.266805e+02
   2.883945e+01  -6.167559e+01
   1.014941e+02   5.081792e+01
   9.216489e+01   6.451968e+01
   4.708852e+01   8.373698e+01
  -8.389277e+01   2.270739e+01
  -7.244562e+01   5.699116e+01
  -1.986890e+01   1.267153e+01
   4.545652e+01   6.582007e+00
   1.517898e+00  -2.459301e+01
  -9.886746e+00  -6.537443e+00
  -1.392912e+01  -1.898391e+01
   9.020138e+01  -6.462452e+00
   5.305310e+01   2.415930e+00
   3.902207e+01   1.066202e+02
  -9.417903e+01   1.058079e+02
  -1.647346e+02   5.172522e+01
  -1.732493e+02  -5.932279e+01
   2.073006e+01  -1.509097e+02
   8.210223e+01  -1.627483e+02
   8.722212e+01  -1.018163e+02
   1.156188e+02   1.007820e+01
   5.592712e+01   3.365312e+01
   1.044434e+01   1.437823e+01
  -1.067931e+01   1.029878e+01
   2.589097e+01  -5.815916e-01
   5.744750e+01   9.213229e+01
   1.305628e+01   5.477271e+01
  -7.705026e+01  -2.203842e+01
  -1.253141e+02  -9.380449e+01
   1.981739e+00  -1.163190e+02
   7.014306e+01  -2.466168e+00
   1.423917e+02   7.484041e+01
   4.443222e+01   1.210849e+02
  -6.896516e+01   2.898422e+01
  -1.176511e+02  -2.748568e+00
  -2.407518e+01  -7.104474e+01
   3.028828e+00  -4.377492e+01
   1.750940e+01  -4.295274e+01
  -2.209732e+01  -1.908737e+01
  -7.035585e+01   3.087188e+01
  -2.799840e+01  -5.240572e+01
   7.144742e+01  -5.931107e+01
   1.075976e+02  -7.545040e+01
   1.759377e+01   1.084973e+01
  -1.119439e+01   1.039450e+02
  -2.260488e+01   4.953898e+01
  -3.885582e+01   4.055468e+01
  -1.188870e+01  -5.933825e+01
   1.145672e+01  -8.940349e+01
   1.977553e+01  -2.950047e+01
   4.982140e+01   5.224399e+01
  -2.366618e+01   2.145836e+01
  -6.714222e+01  -3.344382e+01
  -5.033197e+01  -3.643748e+01
  -2.602702e+01  -2.047572e+01
   2.911947e+00   1.490545e+01
  -3.508644e+01   3.307035e+01
  -1.346878e+01  -5.028490e+01
   1.162039e+01  -7.904002e+01
   8.529959e+00  -3.135197e+01
   4.841422e+01   6.517666e-01
  -1.144935e+01   9.923957e+01
  -6.503067e+01   2.144601e+01
  -7.724675e+01  -2.385131e+01
  -6.261097e+00  -1.067198e+02
   5.148077e+01  -3.620934e+01
   8.353215e+01   4.984274e+00
   5.706717e+01   1.066868e+01
  -4.277201e+01   4.817633e+01
  -6.346990e+01  -9.528616e+00
  -2.789782e+01  -1.956486e+01
   2.336849e+01  -8.250772e+00
   1.211246e+01   5.743292e+01
  -6.175505e+01   1.241711e+01
  -6.152519e+01  -7.895633e+00
