
 $NMID
 id='ANONYMOUS ', fmtdat='(2E16.6)'
 volume=1.0
 tramp=1.0
 $END
  -3.911016e+03  -4.589028e+01
  -2.409625e+03  -2.087959e+03
   3.294469e+02  -2.060257e+03
   2.026468e+03  -1.377337e+03
   1.025449e+03   4.450525e+02
  -1.443718e+02   3.281307e+02
  -4.287631e+02  -3.970907e+02
   8.729960e+01  -7.821913e+02
   6.313505e+02  -7.149693e+02
   8.388395e+02  -1.186170e+01
   4.011434e+02   6.599128e+02
  -1.679180e+02   7.795284e+02
  -4.222239e+02   5.197752e+01
  -3.628605e+02  -5.765698e+02
   2.383863e+02  -5.754520e+02
   5.471404e+02  -9.345226e+00
   2.338527e+02   5.262730e+02
  -1.979475e+02   6.352835e+02
  -5.048102e+02   2.380544e+02
  -4.287695e+02  -2.634797e+02
  -7.509212e+01  -3.956903e+02
   1.613830e+02  -2.981076e+02
   1.667808e+02  -8.243598e+01
  -9.927600e+01   4.183815e-01
  -3.362747e+02  -1.288143e+02
  -1.348488e+02  -3.860989e+02
   4.018086e+02  -3.034690e+02
   8.281860e+02   1.034118e+02
   2.710087e+02   4.740183e+02
  -3.589717e+02   3.841998e+02
  -6.869408e+02  -1.218846e+02
  -2.217832e+02  -4.283759e+02
   2.837735e+02  -4.198330e+02
   4.805126e+02  -1.192137e+02
   3.620060e+02   1.973474e+02
   1.156582e+02   4.051907e+02
  -1.858026e+02   1.759902e+02
  -1.281887e+02  -1.434449e+02
   2.329157e+02  -3.331869e+02
   2.611605e+02   5.814404e+01
   1.350092e+02   5.539940e+02
  -3.573886e+02   5.809333e+02
  -4.171548e+02  -2.095030e+00
  -1.907770e+02  -3.735193e+02
   2.393448e+02  -2.610496e+02
   3.605753e+02   2.857803e+02
  -8.455738e+01   5.172991e+02
  -5.120408e+02   9.702640e+01
  -5.029042e+02  -3.999984e+02
  -2.110986e+02  -5.654420e+02
   3.354322e+02  -2.733764e+02
   5.992239e+02   7.464530e+01
   3.336516e+02   3.811129e+02
  -1.500200e+02   3.403938e+02
  -3.508134e+02   1.119637e+02
  -2.068706e+02  -1.819296e+02
   6.416054e+01  -9.388518e+01
   9.230320e+01   1.533025e+02
  -1.091297e+02   1.013462e+02
  -2.830904e+02  -5.799253e+01
  -1.110165e+02  -2.451264e+02
   1.361812e+02  -2.282637e+02
   3.312574e+02  -6.556511e+01
   1.773943e+02   8.745640e+01
  -4.295421e+01   2.596359e+02
  -2.345330e+02   3.353422e+02
  -3.398126e+02   1.563108e+02
  -2.579269e+02  -1.573045e+02
  -8.208173e+01  -3.231297e+02
   1.017865e+02  -3.706728e+02
   5.974942e+01  -1.578785e+02
   1.605643e+01  -5.256362e+01
   5.697500e+01  -1.317935e+02
   2.316560e+02  -7.995918e+01
   2.475054e+02   4.603839e+01
   9.256740e+01   2.729607e+02
  -6.103520e+01   2.620432e+02
  -2.215070e+02  -3.665187e+01
  -1.209652e+02  -2.088978e+02
  -2.108591e+00  -2.467426e+02
   2.391810e+02  -1.021200e+02
   3.141262e+02   1.769348e+02
   1.566218e+02   3.780631e+02
  -9.073727e+01   3.076434e+02
  -2.257466e+02   1.430315e+02
  -1.605245e+02   8.926460e+00
  -1.263335e+02   1.064926e+02
  -2.263188e+02   3.412844e+01
  -3.680735e+02  -3.598549e+01
  -3.662479e+02  -2.628146e+02
   2.615858e+01  -4.291852e+02
   3.511211e+02  -3.937158e+02
   4.712507e+02  -2.344314e+02
   2.923034e+02   5.967076e+01
   4.706260e+01   2.694286e+02
  -1.042049e+02   2.149718e+02
  -2.153978e+01   1.490793e+01
   1.366639e+02  -7.588179e+01
   1.578306e+02   9.253860e+00
   1.393400e+01   1.236605e+02
  -1.564564e+02   1.597568e+02
  -1.474290e+02  -6.535151e+01
   4.363536e+01  -1.735011e+02
   2.142770e+02  -1.043314e+01
   1.548388e+02   2.449108e+02
  -2.209940e+01   3.588898e+02
  -2.337918e+02   1.914632e+02
  -3.357055e+02  -6.958483e+01
  -2.617310e+02  -2.560652e+02
  -9.728715e+01  -2.502643e+02
   1.052576e+02  -1.413615e+02
   1.465913e+02   1.292665e+01
   3.072939e+01   1.832981e+01
  -3.725505e+01  -3.686577e+01
  -1.912901e+01  -1.353990e+02
   1.416967e+02  -3.635060e+01
   1.648916e+02  -4.805982e+00
   6.443130e+01   6.514140e+01
  -1.092669e+02  -1.443125e+01
  -7.294199e+01  -7.350603e+01
   1.419557e+02  -6.447243e+01
   2.647593e+02  -3.920826e+01
   2.479545e+02   1.567041e+02
   6.300628e+01   2.326207e+02
  -2.270615e+02   2.841682e+02
  -3.003546e+02   1.299774e+02
  -1.701902e+02  -4.763099e+01
   2.004976e+01  -5.079584e+01
   8.549743e+01   1.854005e+01
   3.214999e+00   6.094219e+01
  -1.927493e+02   6.082420e+01
  -1.774304e+02  -9.279676e+01
  -4.644256e+01  -1.974512e+02
   3.028428e+01  -1.311003e+02
   1.528209e+02  -1.126931e+01
   1.386978e+02   4.804800e+01
   1.430511e+01  -3.609941e+01
  -4.982908e+00  -1.158557e+02
   4.793252e+01  -9.770978e+01
   1.959038e+02  -1.753127e+01
   1.793542e+02   1.242965e+02
  -2.231567e+00   2.231961e+02
  -1.360452e+02   1.399956e+02
  -1.261548e+02   2.475949e+00
  -8.285294e+01  -1.215750e+02
   9.636197e+01  -1.128767e+02
   9.356349e+01  -1.669127e+01
   4.927137e+01   3.176165e+01
  -1.060254e+01   3.300399e+01
   2.062419e+01  -3.373991e+00
   4.972988e+01   2.638588e+01
   6.113435e+01   4.899548e+01
   7.238333e+00   1.377729e+02
  -9.645008e+01   1.870754e+02
  -2.159707e+02   6.289238e+01
  -1.972178e+02  -1.223337e+02
  -4.332619e+01  -2.261068e+02
   9.882141e+01  -1.183839e+02
   1.155274e+02  -6.486524e+01
   5.429216e+01   3.366582e+01
   2.553883e+01   5.531815e+01
   3.927500e+01  -2.074877e+01
   9.295023e+01  -2.261104e+01
   7.331975e+01   5.671092e+01
  -3.719645e+01   6.132579e+01
  -1.301722e+02   1.026387e+02
  -9.039210e+01  -5.310918e+01
   2.792765e+01  -1.155378e+02
   1.108304e+02  -5.413809e+01
   1.552442e+02   7.566196e+01
   9.244277e+01   2.106114e+02
  -1.024376e+02   2.161642e+02
  -2.572605e+02   1.195000e+02
  -2.579013e+02  -9.998151e+01
  -1.255303e+02  -1.531109e+02
   2.162614e+01  -1.328411e+02
   9.501916e+01  -7.434393e+01
   4.595934e+01  -5.666764e+01
   6.689547e+01  -9.149512e+01
   1.235866e+02  -6.967424e+01
   1.349668e+02   2.872163e+01
   7.904334e+01   1.207526e+02
   3.890985e+00   2.053597e+02
  -8.887165e+01   1.719817e+02
  -1.422856e+02   2.761383e+01
  -1.512708e+02  -1.027245e+02
   9.593654e+00  -1.455623e+02
   6.001643e+01  -1.340089e+02
   9.289538e+01  -8.682687e+00
  -3.947549e+00   4.696960e+01
  -1.962227e+01   1.442047e+01
   4.268150e+01   5.050762e+01
   6.993274e+01   1.908455e+00
   8.362290e+01   6.001830e+01
  -2.873877e+01   5.997131e+01
  -1.107351e+02   4.324223e+01
  -1.142879e+02  -5.819581e+01
  -1.190331e+01  -1.065908e+02
   9.296539e+01  -9.530383e+01
   1.276966e+02  -1.644923e+01
   8.653411e+01   4.265086e+01
  -7.029953e+01   5.717876e+01
  -1.014656e+02  -3.369609e+01
  -2.505808e+01  -9.969581e+01
   5.849260e+01  -2.709375e+01
   3.996280e+01  -3.029928e+00
   8.049028e+01   4.213336e+01
   6.142166e+01   2.173377e+01
   6.372677e+01  -4.810127e+01
   4.205592e+01  -1.766771e+01
   4.267076e+01   6.189240e+01
  -1.803451e+01   1.415131e+02
  -9.913330e+01   1.622440e+02
  -1.503839e+02   1.924740e+01
  -1.625895e+02  -3.857791e+01
  -1.414135e+01  -1.562069e+02
   8.962954e+01  -9.273962e+01
   3.779936e+01   3.508036e+00
  -2.755568e+01  -1.237689e+01
  -1.448415e+02  -3.979401e+01
  -4.898606e+01  -1.302682e+02
   7.726402e+01  -1.362280e+02
   1.612669e+02  -4.349254e+01
   1.312165e+02  -5.790002e+00
   7.454623e+00   7.714823e+01
  -4.754188e+01   6.396397e+01
  -4.178925e+01  -1.054642e+01
   4.552199e+01  -3.328041e+01
   8.176490e+01  -1.239263e+00
   7.265210e+01   1.674389e+02
  -8.263730e+01   1.107366e+02
  -1.920581e+02   6.920205e+01
  -1.545381e+02  -1.078382e+02
   1.541997e+01  -1.472377e+02
   6.136922e+01  -1.460197e+02
   8.447162e+01  -9.766341e+00
   5.149236e+01   7.376630e+01
  -5.182987e+00   9.779608e+01
  -3.952951e+01  -4.296964e-01
  -2.575444e+01  -4.585053e+01
  -2.011370e+01   3.181880e+01
  -8.772799e+00  -2.204609e+01
   1.727768e+01   3.019628e+01
  -6.446499e+01  -6.325635e+01
  -4.321396e+01  -8.299434e+01
   2.928395e+01  -9.339896e+01
   1.088937e+02   3.868310e+01
   8.800349e+01   8.364310e+01
   7.004139e+01   7.986651e+01
  -9.183686e+01   3.132982e+00
  -7.620802e+01   1.389166e+01
  -4.133018e+00  -1.009140e+01
   1.436391e+01  -5.444556e+01
   1.981626e+01   3.846126e+00
   1.575588e+01  -1.198983e+01
   4.120433e+01   2.432629e+00
   5.910570e+01  -2.724459e+01
   1.090533e+02   6.700228e+01
  -2.188072e+00   5.881148e+01
  -1.198817e+02   1.265033e+02
  -1.743297e+02   7.150198e+01
  -1.413376e+02  -3.689368e+01
  -1.314562e+01  -1.483172e+02
   1.062315e+02  -1.642839e+02
   7.974814e+01  -8.555382e+01
   6.190914e+01   1.746819e+01
   6.284050e+00   1.019115e+01
  -1.482432e+01  -1.085781e+01
   3.779564e+01   4.356118e+01
   2.918570e+01   5.616569e+01
   6.610552e+01   1.369905e+02
  -5.267070e+01   5.964553e+01
  -8.279118e+01  -3.640306e+01
  -8.407347e+01  -1.011531e+02
  -2.535416e+01  -9.786944e+01
   7.456452e+01  -4.134932e+01
   8.008978e+01   5.484284e+01
   5.260208e+01   1.110632e+02
  -3.833621e+01   9.569684e+01
  -9.446807e+01  -5.861368e-02
  -2.850409e+01  -6.376938e+01
   4.067197e+01  -2.428930e+01
   4.028745e+01  -3.692834e+01
  -2.869830e+01  -4.161630e+01
  -8.468658e+01  -2.323852e+01
  -3.368031e+01   4.352500e+00
   8.199664e+01  -7.369185e+01
   1.329185e+02  -5.750765e+01
   1.908008e+01   2.808833e+01
  -7.119096e+00   6.115057e+01
  -2.212232e+01   4.034983e+01
  -6.134991e+01   2.567983e+01
   1.773007e+01  -5.074378e+01
   4.634204e+01  -2.731387e+01
   4.469067e+01   5.083881e+01
   3.127496e+01   4.961515e+00
  -3.550311e+00   5.559793e+01
  -5.590902e+01  -1.593166e+01
  -5.490763e+01  -3.125297e+01
   9.443800e+00   2.178265e+01
  -3.514434e+01   2.493907e+01
   2.422908e+01  -3.773283e+01
   2.199206e+01  -2.418832e+01
   1.088607e+01  -2.439756e+01
   3.480289e+01  -1.120489e+01
   3.570149e+01   1.966674e+01
   4.810226e+01   6.427290e+01
  -3.001359e+01   1.592234e+01
  -6.148070e+01  -2.568867e+01
  -1.312289e+01  -3.872756e+01
   2.276714e+01  -3.596005e+01
   1.187642e+02   1.711320e+01
   4.680628e+01   4.453558e+01
  -6.181993e+01   3.923146e+01
  -4.689091e+01   2.344485e+01
   2.203459e+00   5.743492e+01
   1.786746e+01  -4.733706e+00
   3.830317e+01   6.064681e+01
  -9.252314e+01   3.618721e+01
  -1.196236e+02   6.189061e+00
