
 $NMID
 id='ANONYMOUS ', fmtdat='(2E16.6)'
 volume=1.0
 tramp=1.0
 $END
  -3.609371e+03   2.861211e+02
  -2.391720e+03  -1.844914e+03
   3.208294e+02  -2.403255e+03
   1.259187e+03  -1.242237e+03
   6.552299e+02   6.798316e+01
  -1.194059e+02   2.746392e+02
  -5.032679e+02  -5.477569e+01
  -2.365228e+01  -6.224552e+02
   4.199350e+02  -5.533704e+02
   6.409719e+02  -1.834072e+01
   4.130240e+02   5.199673e+02
  -5.238986e+01   7.572168e+02
  -4.298068e+02   1.805520e+02
  -3.285355e+02  -5.090465e+02
   1.411380e+02  -4.870029e+02
   4.014641e+02  -1.083019e+02
   2.541283e+02   5.018212e+02
  -1.332302e+02   5.773725e+02
  -4.637008e+02   1.870691e+02
  -3.902927e+02  -1.629026e+02
  -1.195786e+02  -3.616727e+02
   1.439843e+02  -2.032927e+02
   1.125966e+02  -6.466862e+01
  -1.491062e+02  -3.458180e+01
  -2.827654e+02  -2.040653e+02
  -2.771074e+01  -3.993839e+02
   4.104912e+02  -1.724721e+02
   6.122894e+02   1.186494e+02
   2.764506e+02   4.237397e+02
  -4.052519e+02   2.888391e+02
  -5.166940e+02  -3.008518e+01
  -1.619554e+02  -3.521378e+02
   2.259902e+02  -3.195519e+02
   4.550892e+02  -1.992242e+02
   3.117505e+02   1.732745e+02
   1.141941e+02   3.094209e+02
  -1.239087e+02   2.251574e+02
  -4.985333e-01  -1.390001e+02
   9.299670e+01  -2.096804e+02
   2.354626e+02   1.616566e+02
   9.437990e+01   5.511541e+02
  -2.461960e+02   5.431139e+02
  -3.589740e+02   1.573095e+01
  -1.541791e+02  -3.810775e+02
   1.687793e+02  -1.584806e+02
   2.684381e+02   2.105329e+02
  -7.520781e+01   3.715359e+02
  -4.484621e+02   6.624251e+01
  -4.760051e+02  -3.537657e+02
  -1.521775e+02  -5.589761e+02
   3.163055e+02  -2.774806e+02
   4.806795e+02   6.330112e+01
   3.310891e+02   2.586807e+02
  -4.889176e+01   2.453580e+02
  -3.157438e+02   8.142473e+01
  -1.988431e+02  -4.870963e+01
   4.141866e+01  -2.802600e+01
   5.420182e+01   5.162796e+01
  -1.487183e+02   1.104368e+02
  -2.312696e+02  -5.122244e+01
  -9.919222e+01  -1.907447e+02
   1.264842e+02  -2.137768e+02
   3.031522e+02  -1.210818e+02
   2.723800e+02   7.077362e+01
  -3.632626e+01   2.642347e+02
  -2.155279e+02   3.375616e+02
  -3.431966e+02   1.746632e+02
  -2.116406e+02  -1.370377e+02
  -6.800918e+01  -3.549270e+02
   4.259481e+01  -3.116266e+02
   8.631081e+01  -1.297676e+02
   6.851469e+01  -6.940406e+01
   6.060965e+01  -1.077918e+02
   2.680192e+02  -5.143840e+01
   2.647954e+02   1.220305e+02
   7.265909e+01   2.484733e+02
  -1.070142e+02   2.250664e+02
  -2.126495e+02   1.548944e+01
  -1.292198e+02  -2.613664e+02
   4.922551e+01  -2.392437e+02
   2.641883e+02  -3.621042e+01
   3.123471e+02   1.183846e+02
   1.182839e+02   2.876281e+02
  -8.486581e+01   2.456278e+02
  -1.472361e+02   1.665294e+02
  -8.556315e+01   6.718591e+01
  -1.302032e+02   8.413100e+01
  -2.401377e+02   4.337587e+01
  -3.430621e+02  -6.621381e+01
  -2.838050e+02  -2.622625e+02
   1.944850e+01  -4.090864e+02
   3.111769e+02  -3.557477e+02
   4.330312e+02  -1.827981e+02
   2.373194e+02   1.074031e+02
   3.638083e+01   2.300273e+02
  -1.215361e+02   1.944021e+02
  -2.718824e+01   3.314152e+01
   8.002251e+01  -6.637349e+01
   1.600069e+02   2.339470e+01
  -8.363958e+00   1.316337e+02
  -1.442569e+02   1.003223e+02
  -1.169702e+02  -4.675170e+01
   1.167088e+01  -1.192885e+02
   1.886690e+02   1.495305e+01
   1.484003e+02   2.005145e+02
   2.501157e+01   3.461101e+02
  -2.061059e+02   1.694206e+02
  -3.282153e+02  -8.190343e+01
  -3.002710e+02  -2.388090e+02
  -7.283706e+01  -2.615565e+02
   1.230792e+02  -1.755392e+02
   1.812502e+02   5.221600e+00
   3.359789e+01  -2.141563e+01
  -4.020872e+01  -4.626062e+00
  -3.370614e+01  -9.285211e+01
   1.193434e+02  -6.348115e+01
   1.450742e+02   2.333678e+01
   3.333316e+01   6.745653e+01
  -7.057844e+01  -3.273365e+01
  -6.608851e+01  -1.061986e+02
   1.561818e+02  -1.204120e+02
   3.218877e+02  -1.391506e+01
   2.556864e+02   1.497182e+02
   1.864113e+01   2.300359e+02
  -1.929747e+02   2.483636e+02
  -2.671899e+02   1.378141e+02
  -1.569768e+02  -3.173139e+01
   2.800167e+01  -9.024462e+01
   1.160184e+02   1.032916e+01
  -5.457319e+01   9.617383e+01
  -1.873707e+02   4.980912e+01
  -2.345253e+02  -1.023746e+02
  -4.852589e+01  -1.311865e+02
   6.867553e+01  -1.429350e+02
   1.303935e+02   1.816555e+00
   1.131427e+01   3.772466e+01
  -3.935911e+00  -3.427201e+01
  -2.479964e+01  -8.494853e+01
   8.450552e+01  -9.182472e+01
   2.061684e+02  -2.293741e+01
   1.641342e+02   1.441964e+02
  -3.996334e+00   1.805966e+02
  -2.097593e+02   1.762630e+02
  -1.666237e+02   1.507233e+01
  -5.828907e+01  -1.165456e+02
   7.851533e+01  -1.082388e+02
   6.240321e+01   1.278134e+01
   2.114017e+00   4.242500e+01
  -5.950574e+01  -2.471547e+00
   1.406939e+01  -4.268098e+01
   9.201860e+01  -2.516078e+01
   8.649970e+01   6.496577e+01
  -3.348542e+00   1.626180e+02
  -1.339826e+02   1.701648e+02
  -2.275209e+02   1.357750e+01
  -2.052684e+02  -1.197090e+02
  -4.318150e+01  -1.987063e+02
   1.249736e+02  -1.440637e+02
   1.264272e+02  -5.398147e+01
   5.207958e+01   3.298534e+01
   3.302839e+01   3.647785e+01
   3.158374e+01  -1.981210e+01
   7.033362e+01  -1.194945e+01
   1.830154e+01   7.523511e+01
  -2.640064e+01   4.409927e+01
  -8.611753e+01   4.385257e+01
  -1.112328e+02  -3.132848e+01
   8.041442e-01  -1.164273e+02
   1.547306e+02  -5.626955e+01
   1.734531e+02   1.105072e+02
   1.079173e+02   1.827994e+02
  -1.186164e+02   2.056470e+02
  -2.402488e+02   9.578427e+01
  -2.023741e+02  -8.098597e+01
  -7.811711e+01  -1.978573e+02
   4.844681e+01  -1.125336e+02
   5.604836e+01  -8.879170e+01
   5.203081e+01  -4.114730e+01
   5.752555e+01  -1.219198e+02
   1.108951e+02  -4.475043e+01
   1.185553e+02   1.329124e+01
   1.210296e+02   1.568347e+02
   2.474450e+01   1.971587e+02
  -1.051732e+02   1.554755e+02
  -9.454169e+01   4.467895e+01
  -1.037130e+02  -1.505193e+02
  -9.530701e+00  -1.635781e+02
   7.126985e+01  -7.958195e+01
   7.734266e+01   1.537345e+01
  -2.010415e+01   4.334523e+01
  -4.020814e+01   4.852745e+01
   2.859879e+01   4.413560e+00
   7.529342e+01   1.282044e+01
   6.177633e+01   1.671502e+01
  -7.527296e+01   8.435574e+00
  -1.701500e+02   5.507850e+01
  -1.798006e+02  -6.572926e+01
  -7.463802e+00  -9.552124e+01
   9.775877e+01  -7.626929e+01
   1.227015e+02  -1.477611e+01
   3.209410e+01   4.969059e+01
  -6.559726e+01   2.186797e+01
  -5.158747e+01  -3.962330e+01
  -5.638177e+01  -8.587028e+01
   2.871034e+01  -2.933803e+01
   4.587998e+01  -1.348035e+01
   8.657988e+01   3.042952e+01
   5.945206e+01   5.325430e+01
   3.766842e+01  -1.186210e+00
   9.061318e+01   2.134730e+01
   3.173023e+01   1.779701e+01
  -4.289302e+01   1.317401e+02
  -8.916928e+01   1.539316e+02
  -1.679198e+02   1.306740e+00
  -7.604700e+01  -9.980027e+01
  -1.041869e+01  -9.373953e+01
   1.019028e+02  -7.604571e+01
   3.391230e+01   1.341513e+01
  -5.150682e+01   2.306260e+01
  -1.133737e+02  -3.042480e+01
  -8.363602e+01  -1.228523e+02
   5.467917e+01  -1.207670e+02
   1.703558e+02  -1.333928e+01
   1.100221e+02   3.295272e+01
   6.432509e+01   8.504230e+01
  -8.835585e+01   3.707502e+01
  -5.389471e+01  -1.693306e+01
   1.937190e+01  -3.309987e+01
   1.011525e+02   5.902053e+01
   4.333642e+01   1.178783e+02
  -7.947566e+01   1.519691e+02
  -1.737008e+02   6.220578e+01
  -1.248151e+02  -1.094194e+02
  -3.464199e+01  -1.666680e+02
   7.148165e+01  -1.412721e+02
   8.498682e+01  -1.473977e+01
   8.425788e+01   1.165713e+02
  -4.113919e+01   1.220432e+02
  -2.856174e+01  -1.774466e+01
  -4.925834e+01  -3.507036e+01
  -1.293878e+01  -3.450211e+01
   5.949103e+00   1.771981e+01
  -3.404045e+01  -3.289867e+01
  -9.436348e+01  -6.308062e+01
  -6.011032e-01  -7.173132e+01
   5.365345e+01  -4.675949e+01
   1.119331e+02   2.605308e+01
   1.045624e+02   3.943749e+01
   1.976421e+01   3.232147e+01
  -6.855604e+01   2.931911e+01
  -7.007640e+01   2.337025e-01
  -3.012233e+00   1.687039e+01
   4.440729e+01  -6.508775e+00
   2.619306e+01  -3.535467e+01
  -2.997784e+01   1.057408e+00
   3.917352e+01   2.633693e+01
   7.752054e+01  -1.263311e+01
   1.074399e+02   4.148685e+01
  -1.602625e+00   1.043059e+02
  -1.086936e+02   1.275431e+02
  -1.765211e+02   6.852295e+01
  -1.219538e+02  -1.750301e+01
  -1.816432e+01  -1.115598e+02
   5.987637e+01  -1.381312e+02
   1.122611e+02  -1.550979e+01
   9.568844e+01   1.164344e+01
   3.081285e+00   5.530195e+01
  -1.962816e+01   2.904677e+01
  -1.473013e+01   4.151880e+00
   4.335714e+01   7.048640e+01
   5.155431e+01   8.470749e+01
   5.118578e+00   6.172223e+01
  -4.183255e+01  -5.510734e+01
  -8.220733e+01  -9.561242e+01
  -1.824611e+01  -7.403471e+01
   4.665362e+01  -4.592961e+01
   1.308707e+02   8.407707e+01
   2.191327e+01   9.428410e+01
  -6.345715e+01   4.723988e+01
  -8.910041e+01  -2.257829e+01
  -4.540722e+01   4.263932e+00
   6.417653e+00  -4.874991e+01
   2.167572e+01  -1.640707e+01
  -3.410810e+01   1.484676e+01
  -5.276383e+01   4.692341e+01
  -1.217569e+01  -5.611079e+01
   1.157954e+02  -3.661716e+01
   8.204761e+01  -4.349906e+01
   5.797600e+01   3.505179e+01
  -2.303009e+01   5.785424e+01
  -4.496425e+01   9.403253e+01
  -1.404366e+01   8.457893e+00
  -1.857402e+01  -1.812246e+00
   2.152238e+01  -6.456400e+01
   4.104712e+01   2.133323e+01
  -5.684409e+00   2.999902e+01
   2.492262e+01   1.728521e+01
  -7.275860e+00  -1.305316e+01
  -8.817404e+01   4.627925e+00
  -1.707458e+01  -2.050601e+01
   1.213319e+01  -1.413630e+01
   7.784531e+00   2.272739e+00
   7.776635e+00  -4.752840e+01
   6.869870e+00  -4.259070e+01
  -3.127510e-02  -4.148583e+01
  -1.184784e+01   5.908062e+01
  -7.074700e+00  -5.524861e+00
  -2.502176e+01   3.665664e+01
  -2.980160e+01  -4.491101e+01
  -3.489569e+01  -7.450957e+01
   3.095411e+01  -1.928515e+01
   8.626615e+01   1.214073e+01
   6.193317e+01   4.623889e+01
  -3.093937e+01   4.627160e+01
  -7.535178e+01   1.520903e+01
  -3.146194e+01   2.337249e+01
   2.444939e+01   2.458196e+01
   3.981340e+01  -1.150019e+01
   1.191483e+01   3.534541e+01
  -6.301437e+01   2.086281e+01
