
 $NMID
 id='ANONYMOUS ', fmtdat='(2E16.6)'
 volume=1.0
 tramp=1.0
 $END
  -2.202190e+07  -1.088304e+06
  -1.442727e+07  -9.886960e+06
  -1.613354e+05  -1.341324e+07
   9.270778e+06  -9.874145e+06
   8.279027e+06  -1.885001e+06
   9.403649e+05   3.964822e+06
  -4.588821e+06   2.680494e+06
  -3.979967e+06  -3.419234e+06
   6.470039e+05  -6.770752e+06
   4.243149e+06  -3.233393e+06
   3.799197e+06   3.121792e+06
   3.961098e+05   5.113366e+06
  -2.413682e+06   8.860901e+05
  -1.935685e+06  -4.480076e+06
   1.274635e+06  -5.158158e+06
   3.884683e+06  -6.389746e+05
   2.955500e+06   4.530054e+06
  -1.015214e+06   5.761090e+06
  -4.438414e+06   2.567817e+06
  -4.327190e+06  -1.656031e+06
  -1.429329e+06  -3.337738e+06
   7.399826e+05  -2.156335e+06
  -9.081977e+04  -8.516619e+05
  -2.405440e+06  -1.736048e+06
  -2.625684e+06  -3.935320e+06
   8.097474e+05  -4.573218e+06
   5.402257e+06  -2.277602e+06
   6.847279e+06   1.301122e+06
   3.456513e+06   3.381467e+06
  -1.791263e+06   2.669941e+06
  -4.014651e+06   7.810036e+04
  -1.421665e+06  -2.248289e+06
   2.862811e+06  -2.336668e+06
   4.323591e+06   1.727442e+05
   1.942126e+06   3.261456e+06
  -1.198427e+06   3.938195e+06
  -1.920194e+06   1.392123e+06
  -3.678008e+05  -1.643938e+06
   9.754249e+05  -1.743344e+06
   5.708627e+05   1.095206e+06
  -8.952274e+05   3.319119e+06
  -1.925315e+06   2.132385e+06
  -1.712099e+06  -1.120431e+06
  -3.493739e+05  -2.681270e+06
   1.297552e+06  -8.642854e+05
   1.713207e+06   2.189111e+06
  -1.473249e+05   3.147458e+06
  -3.192533e+06   1.022597e+06
  -4.490291e+06  -2.177624e+06
  -2.232689e+06  -3.711634e+06
   1.884209e+06  -2.575599e+06
   4.143228e+06  -4.262061e+04
   2.715317e+06   1.731905e+06
  -5.597223e+05   1.581820e+06
  -2.393905e+06   1.344674e+05
  -1.457918e+06  -9.923928e+05
   6.763190e+05  -7.597132e+05
   1.543226e+06   4.289391e+05
   3.458136e+05   1.275852e+06
  -1.371464e+06   8.911288e+05
  -1.445054e+06  -3.805391e+05
   4.641876e+05  -1.256669e+06
   2.265789e+06  -6.452462e+05
   1.608951e+06   1.277622e+06
  -1.386948e+06   2.974557e+06
  -4.085031e+06   2.746862e+06
  -4.186717e+06   3.463110e+05
  -2.097198e+06  -2.603039e+06
  -5.641933e+04  -4.043091e+06
   5.740410e+05  -3.429324e+06
   4.445907e+05  -2.054030e+06
   8.364000e+05  -1.354250e+06
   1.965754e+06  -1.228482e+06
   2.908787e+06  -4.353600e+05
   2.686037e+06   1.437136e+06
   1.115483e+06   2.997462e+06
  -1.025055e+06   2.474407e+06
  -2.359195e+06  -8.321853e+04
  -1.802039e+06  -2.535993e+06
   3.841733e+05  -2.751929e+06
   2.498948e+06  -7.103620e+05
   2.834004e+06   1.675590e+06
   1.333703e+06   2.611177e+06
  -4.292633e+05   1.991018e+06
  -1.040625e+06   1.027349e+06
  -7.505486e+05   7.332542e+05
  -9.591930e+05   9.818038e+05
  -2.309255e+06   8.604914e+05
  -3.631024e+06  -2.991525e+05
  -3.057809e+06  -2.192475e+06
  -2.060268e+05  -3.638250e+06
   3.007755e+06  -3.444958e+06
   4.035994e+06  -1.473663e+06
   2.245237e+06   1.005632e+06
  -4.306298e+05   2.215470e+06
  -1.512205e+06   1.437143e+06
  -4.414053e+05  -2.623177e+05
   1.175209e+06  -1.060413e+06
   1.549385e+06  -2.622441e+05
   5.066892e+05   9.802161e+05
  -6.795874e+05   1.024127e+06
  -7.739225e+05  -2.676849e+05
   3.230246e+05  -1.224682e+06
   1.610093e+06  -2.661914e+05
   1.787500e+06   2.110310e+06
   2.670603e+05   3.623891e+06
  -2.163267e+06   2.583478e+06
  -3.710114e+06  -2.979796e+05
  -3.061653e+06  -2.652728e+06
  -7.291195e+05  -2.851244e+06
   1.318147e+06  -1.401460e+06
   1.574555e+06  -6.523793e+04
   4.521346e+05   4.482299e+04
  -3.430673e+05  -6.681855e+05
   2.242830e+05  -1.051745e+06
   1.425025e+06  -5.013356e+05
   1.696540e+06   5.237233e+05
   4.966330e+05   1.061932e+06
  -9.810685e+05   6.133041e+05
  -1.045286e+06  -3.692511e+05
   5.877550e+05  -8.630381e+05
   2.307732e+06  -2.116570e+05
   2.201622e+06   1.201285e+06
   1.012591e+05   2.199303e+06
  -2.158095e+06   1.847856e+06
  -2.602142e+06   3.631092e+05
  -1.082146e+06  -1.010378e+06
   7.329319e+05  -1.140340e+06
   1.152942e+06  -1.131495e+05
   3.738756e+04   8.411823e+05
  -1.324386e+06   6.214568e+05
  -1.592158e+06  -5.727808e+05
  -5.622242e+05  -1.469919e+06
   7.787635e+05  -1.143994e+06
   1.217525e+06  -3.101753e+04
   4.543497e+05   6.042517e+05
  -5.756784e+05   9.927862e+04
  -6.086597e+05  -9.161859e+05
   5.889183e+05  -1.254506e+06
   1.856555e+06  -4.076511e+05
   1.811949e+06   1.002366e+06
   3.508437e+05   1.850846e+06
  -1.213768e+06   1.498427e+06
  -1.533576e+06   2.972598e+05
  -5.660858e+05  -7.341806e+05
   5.391089e+05  -8.046884e+05
   7.235157e+05  -6.423289e+04
   2.272599e+04   5.831993e+05
  -6.472040e+05   4.657297e+05
  -5.317651e+05  -1.173332e+05
   1.862926e+05  -2.869658e+05
   5.963388e+05   3.161895e+05
   2.627943e+04   1.032273e+06
  -1.181913e+06   8.849551e+05
  -1.907404e+06  -3.284844e+05
  -1.336754e+06  -1.760858e+06
   1.944767e+05  -2.286842e+06
   1.513422e+06  -1.503259e+06
   1.751844e+06  -4.609436e+04
   1.095041e+06   9.965326e+05
   4.008175e+05   1.041189e+06
   2.179106e+05   4.809946e+05
   2.990428e+05   1.911702e+05
   4.216798e+04   5.228948e+05
  -7.118918e+05   8.844873e+05
  -1.386603e+06   4.609164e+05
  -1.182629e+06  -7.069885e+05
   8.099823e+04  -1.581718e+06
   1.608131e+06  -1.172050e+06
   2.177459e+06   3.849863e+05
   1.196864e+06   1.886633e+06
  -7.074013e+05   2.170609e+06
  -2.179483e+06   1.117329e+06
  -2.281123e+06  -3.611162e+05
  -1.217425e+06  -1.214431e+06
   1.658906e+03  -1.149749e+06
   5.475968e+05  -7.362484e+05
   4.297204e+05  -6.751465e+05
   2.752278e+05  -9.927927e+05
   5.603684e+05  -1.025061e+06
   1.084103e+06  -2.394479e+05
   1.186853e+06   1.023435e+06
   4.884672e+05   1.770263e+06
  -6.079468e+05   1.333969e+06
  -1.214046e+06   4.719773e+04
  -8.163526e+05  -1.079209e+06
   1.858257e+05  -1.271864e+06
   8.698649e+05  -5.790905e+05
   7.201769e+05   3.281794e+05
   1.026969e+05   8.136707e+05
  -2.175069e+05   7.567556e+05
   3.757832e+04   4.949109e+05
   3.514071e+05   3.734899e+05
   2.235524e+04   3.814260e+05
  -9.662086e+05   2.301698e+05
  -1.774683e+06  -2.505575e+05
  -1.495012e+06  -8.622728e+05
  -1.338862e+05  -1.195337e+06
   1.271167e+06  -9.958967e+05
   1.620861e+06  -3.831872e+05
   8.309653e+05   2.270138e+05
  -1.531488e+05   4.185651e+05
  -4.104927e+05   1.236446e+05
   4.505574e+04  -2.554767e+05
   4.859022e+05  -1.996162e+05
   4.186377e+05   3.238497e+05
   6.580527e+04   7.240078e+05
  -7.000782e+04   4.602637e+05
   1.440324e+05  -2.044104e+05
   3.858378e+05  -4.185264e+05
   2.873577e+05   1.960376e+05
  -2.146861e+05   9.753546e+05
  -8.293070e+05   9.561857e+05
  -1.070529e+06   4.332953e+04
  -5.920201e+05  -8.628341e+05
   3.929823e+05  -8.999568e+05
   1.060029e+06  -1.446321e+05
   6.551188e+05   5.904102e+05
  -6.104383e+05   6.353355e+05
  -1.552472e+06   4.836715e+03
  -1.160163e+06  -7.562776e+05
   2.844532e+05  -1.058709e+06
   1.440288e+06  -6.843032e+05
   1.302066e+06   5.144333e+04
   2.131420e+05   5.190759e+05
  -5.859492e+05   3.313672e+05
  -3.035642e+05  -2.241934e+05
   6.290014e+05  -4.065125e+05
   1.092722e+06   2.066652e+05
   4.712299e+05   1.177136e+06
  -7.441043e+05   1.531092e+06
  -1.487262e+06   7.077733e+05
  -1.167716e+06  -7.874164e+05
  -1.528306e+05  -1.731421e+06
   7.119741e+05  -1.305682e+06
   9.035181e+05   7.011344e+04
   5.084175e+05   1.115661e+06
  -7.592207e+04   9.929251e+05
  -4.910627e+05   1.341258e+05
  -5.399757e+05  -3.829387e+05
  -2.655869e+05  -1.655147e+05
  -3.681674e+03   1.240218e+05
  -1.028787e+05  -2.079764e+05
  -4.157517e+05  -8.879720e+05
  -3.075585e+05  -1.047561e+06
   5.270218e+05  -3.918743e+05
   1.418519e+06   4.566644e+05
   1.334579e+06   8.021242e+05
   1.850339e+05   6.371264e+05
  -9.230319e+05   3.788662e+05
  -9.759214e+05   2.067518e+05
  -2.483646e+05   1.053065e+04
   1.833596e+05  -2.013853e+05
  -9.345975e+04  -2.565884e+05
  -3.875751e+05  -1.647544e+05
   7.199802e+03  -1.359880e+05
   7.767807e+05  -1.626321e+05
   9.725066e+05   7.135006e+04
   1.962289e+05   6.425971e+05
  -9.480719e+05   1.016451e+06
  -1.530381e+06   5.791221e+05
  -1.157823e+06  -5.157307e+05
  -1.774148e+05  -1.357789e+06
   7.179751e+05  -1.237077e+06
   1.000920e+06  -3.944939e+05
   6.342212e+05   3.075856e+05
   6.100344e+04   3.398574e+05
  -1.839764e+05  -1.522657e+04
   3.263013e+04  -1.031126e+05
   3.367090e+05   3.124272e+05
   2.689005e+05   7.665017e+05
  -2.116744e+05   6.092191e+05
  -6.671501e+05  -2.173241e+05
  -5.992155e+05  -1.002498e+06
   5.737171e+04  -9.643971e+05
   7.951593e+05  -9.496672e+04
   9.194411e+05   8.195373e+05
   2.190375e+05   1.031137e+06
  -7.116646e+05   5.291445e+05
  -9.921014e+05  -1.359234e+05
  -4.133202e+05  -5.076641e+05
   2.814020e+05  -5.193704e+05
   2.660385e+05  -3.087221e+05
  -3.451334e+05  -5.596308e+04
  -6.432653e+05   2.905606e+03
  -9.131068e+04  -2.732992e+05
   7.952746e+05  -6.348773e+05
   1.104091e+06  -5.598496e+05
   6.014069e+05   1.011023e+05
  -1.240323e+05   7.729860e+05
  -4.461866e+05   7.454432e+05
  -2.962580e+05   5.886077e+04
   1.997878e+04  -5.002029e+05
   2.593758e+05  -3.442870e+05
   3.363146e+05   2.468143e+05
   2.082505e+05   5.553680e+05
  -9.003910e+04   3.112090e+05
  -3.639674e+05  -9.654344e+04
  -4.044400e+05  -2.089880e+05
  -2.236229e+05  -3.544289e+04
  -2.355455e+04   6.559870e+04
   7.180597e+04  -1.181339e+05
   1.352697e+05  -4.004479e+05
   2.606797e+05  -4.121340e+05
   3.734887e+05  -1.686986e+04
   2.915519e+05   4.918223e+05
  -4.697955e+04   6.346126e+05
  -4.456677e+05   2.364104e+05
  -5.530336e+05  -3.505613e+05
  -1.721667e+05  -5.893303e+05
   4.595831e+05  -3.142012e+05
   7.716297e+05   1.434414e+05
   4.107343e+05   3.733839e+05
  -2.905379e+05   2.939027e+05
  -5.844196e+05   1.037018e+05
  -1.590431e+05  -7.914876e+03
   4.392603e+05   2.367515e+04
   4.276339e+05   1.825392e+05
  -2.550584e+05   3.377804e+05
  -8.555450e+05   2.325222e+05
