
 $NMID
 id='ANONYMOUS ', fmtdat='(2E16.6)'
 volume=1.0
 tramp=1.0
 $END
  -2.153017e+07  -1.561207e+06
  -1.243147e+07  -1.304742e+07
   2.880155e+06  -1.395362e+07
   1.040263e+07  -6.096213e+06
   6.588494e+06   1.760288e+06
  -8.462946e+05   3.557556e+06
  -3.885424e+06   1.991281e+05
  -1.636609e+06  -3.640219e+06
   2.038829e+06  -4.261465e+06
   3.826056e+06  -1.230892e+06
   2.844183e+06   2.700406e+06
   1.738027e+05   3.790082e+06
  -1.823799e+06   9.320429e+05
  -1.172780e+06  -2.760479e+06
   1.490167e+06  -3.123325e+06
   3.182414e+06   3.591692e+05
   1.807298e+06   4.132915e+06
  -1.575311e+06   4.733219e+06
  -4.133496e+06   2.105912e+06
  -4.130198e+06  -1.263727e+06
  -2.054026e+06  -3.143364e+06
   2.215759e+05  -3.005260e+06
   9.363107e+05  -1.823567e+06
  -8.828352e+04  -1.136068e+06
  -1.009485e+06  -1.662187e+06
   2.035575e+05  -2.412343e+06
   3.047559e+06  -1.756917e+06
   4.559585e+06   3.848599e+05
   2.823343e+06   2.201178e+06
  -5.108763e+05   2.157285e+06
  -2.183319e+06   6.918602e+05
  -1.102335e+06  -6.515166e+05
   9.389167e+05  -9.190444e+05
   1.824577e+06  -8.486245e+04
   1.143148e+06   1.324282e+06
  -1.903844e+05   2.202254e+06
  -1.112867e+06   1.423274e+06
  -1.017428e+06  -5.615500e+05
  -1.329683e+05  -1.539339e+06
   4.369446e+05  -2.179570e+05
  -1.719263e+05   1.604542e+06
  -1.239407e+06   1.174468e+06
  -1.072286e+06  -1.229830e+06
   7.021134e+05  -2.348100e+06
   2.281150e+06  -3.419557e+05
   1.714511e+06   2.618384e+06
  -7.584837e+05   3.151183e+06
  -2.966691e+06   7.813304e+05
  -3.044206e+06  -1.949916e+06
  -1.001288e+06  -2.695663e+06
   1.511226e+06  -1.382728e+06
   2.539425e+06   4.960781e+05
   1.342725e+06   1.467196e+06
  -8.525412e+05   9.852760e+05
  -1.875345e+06  -3.045347e+05
  -8.809733e+05  -1.054591e+06
   6.812152e+05  -5.503985e+05
   8.817440e+05   4.256874e+05
  -2.728855e+05   5.637671e+05
  -9.982308e+05  -2.840595e+05
  -1.424435e+05  -1.012402e+06
   1.432416e+06  -7.464883e+05
   2.034016e+06   3.120248e+05
   9.856098e+05   1.487104e+06
  -9.857342e+05   2.231860e+06
  -2.598933e+06   1.999336e+06
  -2.896640e+06   4.580065e+05
  -1.783039e+06  -1.682428e+06
  -1.592907e+05  -2.834313e+06
   7.566810e+05  -2.212914e+06
   6.184135e+05  -8.593500e+05
   2.555658e+05  -3.071094e+05
   5.433625e+05  -6.290498e+05
   1.279482e+06  -6.040440e+05
   1.534587e+06   3.684139e+05
   8.531624e+05   1.392818e+06
  -2.964532e+05   1.285178e+06
  -1.081071e+06   2.595021e+04
  -9.358570e+05  -1.288038e+06
   1.460756e+05  -1.570201e+06
   1.483736e+06  -6.102654e+05
   2.000555e+06   8.727526e+05
   1.185855e+06   1.825215e+06
  -2.188198e+05   1.718127e+06
  -9.769037e+05   9.823272e+05
  -8.460432e+05   4.618770e+05
  -7.761020e+05   4.179153e+05
  -1.447104e+06   3.150456e+05
  -2.178426e+06  -3.679706e+05
  -1.752404e+06  -1.424142e+06
  -2.442077e+04  -2.138900e+06
   1.775253e+06  -1.971554e+06
   2.300962e+06  -9.277957e+05
   1.353260e+06   4.341812e+05
  -7.246690e+04   1.238682e+06
  -7.526471e+05   9.217527e+05
  -2.808138e+05  -8.844485e+04
   6.435624e+05  -6.391707e+05
   9.602390e+05  -1.526550e+05
   3.762765e+05   6.205767e+05
  -3.439053e+05   5.864644e+05
  -3.221554e+05  -1.797425e+05
   3.859630e+05  -5.004970e+05
   9.125738e+05   3.169269e+05
   5.943503e+05   1.539883e+06
  -4.193899e+05   1.887771e+06
  -1.461115e+06   9.513311e+05
  -1.894781e+06  -5.304692e+05
  -1.423748e+06  -1.516217e+06
  -2.878761e+05  -1.506467e+06
   7.286348e+05  -7.721223e+05
   8.755472e+05  -5.825493e+04
   2.608180e+05   3.308359e+04
  -1.810183e+05  -3.965231e+05
   1.999370e+05  -6.516197e+05
   9.300773e+05  -2.636156e+05
   1.012296e+06   4.245139e+05
   2.184932e+05   6.882490e+05
  -5.996389e+05   3.064081e+05
  -5.221171e+05  -2.364821e+05
   4.002724e+05  -3.585868e+05
   1.221142e+06   6.756421e+04
   1.058863e+06   7.262609e+05
  -7.089002e+04   1.137427e+06
  -1.254504e+06   9.254516e+05
  -1.486498e+06   1.302402e+05
  -6.134576e+05  -6.497662e+05
   4.838271e+05  -7.158233e+05
   7.556797e+05  -5.632296e+04
   4.889400e+04   5.363833e+05
  -7.965651e+05   3.502010e+05
  -8.989204e+05  -4.024042e+05
  -2.191183e+05  -8.640371e+05
   5.299027e+05  -5.625464e+05
   6.724993e+05   9.887095e+04
   1.778172e+05   3.825966e+05
  -3.778122e+05   2.602034e+04
  -3.516766e+05  -5.560239e+05
   3.456885e+05  -7.291777e+05
   1.076209e+06  -2.289185e+05
   1.045551e+06   6.010061e+05
   1.678603e+05   1.090976e+06
  -7.614084e+05   8.428091e+05
  -9.038122e+05   1.107416e+05
  -2.804315e+05  -4.494130e+05
   3.419656e+05  -4.319375e+05
   3.736438e+05  -3.263450e+04
  -2.942629e+04   2.510899e+05
  -3.094448e+05   1.762773e+05
  -1.735638e+05  -4.470353e+04
   1.715756e+05  -4.054100e+04
   2.888981e+05   2.850057e+05
  -7.516465e+04   6.064824e+05
  -7.240098e+05   4.648611e+05
  -1.093339e+06  -2.417264e+05
  -7.402296e+05  -1.048362e+06
   1.532153e+05  -1.296134e+06
   8.840501e+05  -7.767862e+05
   9.439271e+05   4.910466e+04
   5.243602e+05   5.308849e+05
   1.940038e+05   4.669245e+05
   1.954915e+05   2.026987e+05
   2.514047e+05   1.566431e+05
   1.977739e+04   3.606479e+05
  -4.559258e+05   4.753265e+05
  -7.857100e+05   1.890119e+05
  -6.010711e+05  -4.103437e+05
   1.158489e+05  -8.299997e+05
   9.350457e+05  -5.870842e+05
   1.210932e+06   2.776970e+05
   6.047675e+05   1.117497e+06
  -5.168196e+05   1.231056e+06
  -1.320004e+06   5.454895e+05
  -1.262266e+06  -3.220257e+05
  -5.734134e+05  -7.151403e+05
   7.056396e+04  -5.682451e+05
   2.602712e+05  -3.376126e+05
   1.487503e+05  -3.998314e+05
   1.277704e+05  -6.395671e+05
   3.649486e+05  -6.290489e+05
   6.642881e+05  -1.314333e+05
   6.803323e+05   6.035600e+05
   2.580971e+05   1.021255e+06
  -3.624905e+05   7.554687e+05
  -6.885263e+05  -8.812165e+03
  -4.252798e+05  -6.657752e+05
   1.849828e+05  -7.270311e+05
   5.665916e+05  -2.458713e+05
   4.052835e+05   3.015150e+05
  -3.006585e+04   5.177130e+05
  -2.241456e+05   4.098427e+05
  -1.915389e+04   2.465017e+05
   2.130595e+05   2.038580e+05
   1.684655e+04   2.129215e+05
  -5.886178e+05   9.948555e+04
  -1.054937e+06  -1.996420e+05
  -8.399528e+05  -5.528031e+05
   2.407484e+03  -7.235681e+05
   8.126509e+05  -5.601653e+05
   9.564465e+05  -1.491390e+05
   4.459731e+05   2.147778e+05
  -1.274955e+05   2.681896e+05
  -2.544295e+05   3.210771e+04
   1.296342e+04  -1.916117e+05
   2.612504e+05  -1.219015e+05
   2.441803e+05   1.926629e+05
   8.034760e+04   4.071730e+05
   2.510200e+03   2.644098e+05
   7.696462e+04  -7.855639e+04
   1.832247e+05  -1.911988e+05
   1.496654e+05   1.233343e+05
  -1.129374e+05   5.401849e+05
  -4.960790e+05   5.433755e+05
  -6.805116e+05   3.531157e+04
  -3.876555e+05  -5.090712e+05
   2.452696e+05  -5.596126e+05
   6.518485e+05  -1.135474e+05
   3.764593e+05   3.329700e+05
  -3.736388e+05   3.417947e+05
  -8.629251e+05  -5.169294e+04
  -5.784268e+05  -4.604224e+05
   2.295201e+05  -5.513305e+05
   8.138071e+05  -2.922381e+05
   6.908839e+05   8.681415e+04
   8.639232e+04   2.847421e+05
  -3.441162e+05   1.530170e+05
  -1.852994e+05  -1.515767e+05
   3.433924e+05  -2.511260e+05
   6.308984e+05   9.484824e+04
   3.033713e+05   6.639619e+05
  -3.911818e+05   8.913896e+05
  -8.354720e+05   4.237313e+05
  -6.608897e+05  -4.446366e+05
  -7.281382e+04  -9.769616e+05
   4.192609e+05  -7.049710e+05
   4.993603e+05   8.508862e+04
   2.373200e+05   6.422818e+05
  -9.933671e+04   5.325540e+05
  -2.920961e+05   4.835180e+04
  -2.691201e+05  -2.139533e+05
  -1.133488e+05  -8.196455e+04
  -1.647694e+04   5.772085e+04
  -1.050431e+05  -1.500627e+05
  -2.426350e+05  -5.229043e+05
  -1.173419e+05  -5.862043e+05
   3.542223e+05  -2.019002e+05
   7.922984e+05   2.762100e+05
   7.054444e+05   4.692075e+05
   9.033098e+04   3.728496e+05
  -4.934875e+05   2.114457e+05
  -5.419554e+05   9.217583e+04
  -1.698167e+05  -2.241722e+04
   9.266360e+04  -1.177987e+05
  -9.064517e+03  -1.211824e+05
  -1.747581e+05  -6.864816e+04
  -1.247567e+04  -7.606554e+04
   3.961346e+05  -1.071294e+05
   5.605652e+05   3.611034e+04
   1.732840e+05   3.820597e+05
  -5.078036e+05   6.034347e+05
  -9.120728e+05   3.488085e+05
  -7.159925e+05  -2.824999e+05
  -1.093990e+05  -7.696109e+05
   4.332845e+05  -7.142388e+05
   5.778757e+05  -2.483996e+05
   3.548704e+05   1.540560e+05
   5.186611e+04   1.967535e+05
  -6.749165e+04   2.046481e+04
   3.150125e+04  -2.609531e+04
   1.669353e+05   1.928376e+05
   1.290792e+05   4.378170e+05
  -1.164446e+05   3.566584e+05
  -3.728054e+05  -9.683486e+04
  -3.652993e+05  -5.480190e+05
  -1.085393e+04  -5.593664e+05
   4.311598e+05  -9.491537e+04
   5.382467e+05   4.343105e+05
   1.481700e+05   5.949556e+05
  -4.049671e+05   3.314928e+05
  -5.886700e+05  -7.225346e+04
  -2.556641e+05  -3.242865e+05
   1.700030e+05  -3.345553e+05
   1.902716e+05  -1.811369e+05
  -1.587711e+05  -1.527093e+04
  -3.575475e+05   5.337673e+03
  -6.375079e+04  -1.655212e+05
   4.573355e+05  -3.526250e+05
   6.652655e+05  -2.807863e+05
   3.800659e+05   9.561752e+04
  -7.266243e+04   4.570796e+05
  -2.950090e+05   4.369362e+05
  -2.116064e+05   5.761264e+04
  -8.526356e+03  -2.710164e+05
   1.441122e+05  -2.176596e+05
   1.916058e+05   1.069981e+05
   1.222085e+05   3.173525e+05
  -4.577309e+04   2.108130e+05
  -2.103406e+05  -4.111201e+04
  -2.407719e+05  -1.470985e+05
  -1.262844e+05  -4.366674e+04
   2.119783e+03   6.681293e+04
   3.758544e+04  -9.031848e+03
   2.733339e+04  -2.090392e+05
   8.290018e+04  -2.793946e+05
   1.958769e+05  -7.556160e+04
   2.158911e+05   2.429733e+05
   3.517181e+04   3.617094e+05
  -2.385723e+05   1.528320e+05
  -3.408434e+05  -1.800433e+05
  -1.160666e+05  -3.242182e+05
   2.750043e+05  -1.825769e+05
   4.632733e+05   6.975519e+04
   2.444761e+05   2.145722e+05
  -1.689107e+05   1.943186e+05
  -3.466132e+05   9.027595e+04
  -1.198653e+05  -1.224395e+03
   2.132418e+05  -1.749170e+04
   2.312863e+05   6.366548e+04
  -1.122199e+05   1.705095e+05
  -4.361537e+05   1.360945e+05
