
 $NMID
 id='ANONYMOUS ', fmtdat='(2E16.6)'
 volume=1.0
 tramp=1.0
 $END
  -4.711774e+07  -2.010359e+06
  -2.753373e+07  -2.923194e+07
   6.614373e+06  -3.123846e+07
   2.309306e+07  -1.246473e+07
   1.400102e+07   5.152738e+06
  -2.471330e+06   7.763440e+06
  -8.347902e+06  -4.974409e+05
  -2.771387e+06  -8.125489e+06
   4.981655e+06  -8.413209e+06
   8.231002e+06  -2.015196e+06
   5.941824e+06   5.570398e+06
   4.565364e+05   7.671249e+06
  -3.644352e+06   2.133143e+06
  -2.291575e+06  -5.231383e+06
   3.274540e+06  -6.032182e+06
   6.741779e+06   1.050556e+06
   3.724663e+06   8.799366e+06
  -3.391696e+06   1.004416e+07
  -8.753994e+06   4.704266e+06
  -9.012081e+06  -2.262827e+06
  -5.017148e+06  -6.578880e+06
  -4.679534e+04  -6.948103e+06
   2.314548e+06  -4.574112e+06
   8.175186e+05  -2.347105e+06
  -1.455980e+06  -2.617686e+06
   1.204505e+05  -4.269575e+06
   5.497578e+06  -3.689835e+06
   8.905488e+06   2.332468e+05
   5.967629e+06   4.116316e+06
  -4.238897e+05   4.438939e+06
  -3.860328e+06   1.824036e+06
  -2.209754e+06  -6.419458e+05
   1.198385e+06  -1.303527e+06
   2.816887e+06  -2.802782e+05
   2.101322e+06   1.954984e+06
   1.043540e+05   3.946822e+06
  -1.939071e+06   3.151802e+06
  -2.482907e+06  -6.077987e+05
  -8.984566e+05  -3.190917e+06
   7.928912e+05  -1.108857e+06
  -3.251319e+04   2.689275e+06
  -2.366781e+06   2.183380e+06
  -2.146751e+06  -2.705478e+06
   1.874653e+06  -5.119218e+06
   5.468340e+06  -7.484843e+05
   3.992170e+06   5.814810e+06
  -1.701885e+06   7.020352e+06
  -6.359273e+06   1.820282e+06
  -6.146078e+06  -4.032045e+06
  -1.767053e+06  -5.443285e+06
   3.115805e+06  -2.563606e+06
   4.894801e+06   1.253366e+06
   2.387916e+06   3.074505e+06
  -1.982247e+06   1.950639e+06
  -3.918729e+06  -7.756004e+05
  -1.729976e+06  -2.311239e+06
   1.478250e+06  -1.152871e+06
   1.651012e+06   9.128083e+05
  -9.007255e+05   9.624369e+05
  -2.113065e+06  -1.124901e+06
   1.835627e+05  -2.593188e+06
   3.570308e+06  -1.576168e+06
   4.434790e+06   9.833806e+05
   2.000903e+06   3.317540e+06
  -1.838655e+06   4.595921e+06
  -4.887255e+06   4.142472e+06
  -5.700951e+06   1.201300e+06
  -3.830748e+06  -3.136556e+06
  -5.356115e+05  -5.624139e+06
   1.649538e+06  -4.346070e+06
   1.436860e+06  -1.381371e+06
   3.216990e+05  -1.715842e+05
   5.178412e+05  -1.059551e+06
   1.998955e+06  -1.401196e+06
   2.795492e+06   2.717876e+05
   1.747164e+06   2.266862e+06
  -3.008934e+05   2.240078e+06
  -1.772389e+06   9.780175e+04
  -1.662171e+06  -2.237299e+06
   1.734497e+05  -2.888593e+06
   2.742478e+06  -1.333803e+06
   4.009468e+06   1.441108e+06
   2.617721e+06   3.547568e+06
  -2.633237e+05   3.636078e+06
  -2.030112e+06   2.203297e+06
  -1.873038e+06   9.623193e+05
  -1.618318e+06   7.072557e+05
  -2.785984e+06   4.981840e+05
  -4.138562e+06  -7.591623e+05
  -3.298807e+06  -2.712056e+06
  -3.789269e+04  -4.005904e+06
   3.263573e+06  -3.699933e+06
   4.202641e+06  -1.844787e+06
   2.546462e+06   6.455606e+05
   3.466701e+04   2.245649e+06
  -1.262953e+06   1.782730e+06
  -5.338078e+05  -1.102270e+05
   1.149108e+06  -1.219753e+06
   1.830104e+06  -3.111376e+05
   7.830208e+05   1.177082e+06
  -5.907121e+05   1.080839e+06
  -5.068185e+05  -3.682545e+05
   8.924181e+05  -8.000952e+05
   1.750621e+06   9.422613e+05
   8.356888e+05   3.146961e+06
  -1.207676e+06   3.413076e+06
  -2.913192e+06   1.398162e+06
  -3.367175e+06  -1.240061e+06
  -2.402344e+06  -2.792410e+06
  -4.550631e+05  -2.685668e+06
   1.302825e+06  -1.418126e+06
   1.587897e+06  -1.447241e+05
   4.825814e+05   5.945990e+04
  -3.341790e+05  -7.433263e+05
   4.066967e+05  -1.260084e+06
   1.809516e+06  -5.049041e+05
   1.928673e+06   8.588274e+05
   3.717396e+05   1.343114e+06
  -1.144336e+06   5.492038e+05
  -9.168012e+05  -4.596120e+05
   7.995284e+05  -5.801723e+05
   2.204781e+06   2.508809e+05
   1.821543e+06   1.367648e+06
  -2.173467e+05   2.022204e+06
  -2.322568e+06   1.640139e+06
  -2.746442e+06   2.173863e+05
  -1.150561e+06  -1.242053e+06
   9.211590e+05  -1.391576e+06
   1.471704e+06  -1.251755e+05
   1.301113e+05   1.032852e+06
  -1.496557e+06   6.676248e+05
  -1.669823e+06  -7.832441e+05
  -3.441461e+05  -1.621560e+06
   1.046857e+06  -9.861901e+05
   1.240058e+06   2.673967e+05
   2.722763e+05   7.473108e+05
  -7.481287e+05   4.136217e+04
  -6.785059e+05  -1.046085e+06
   6.216634e+05  -1.373194e+06
   1.994833e+06  -4.560419e+05
   1.960173e+06   1.100374e+06
   3.178002e+05   2.039691e+06
  -1.438526e+06   1.571995e+06
  -1.691619e+06   1.810880e+05
  -4.929905e+05  -8.536502e+05
   6.555391e+05  -7.866083e+05
   6.589278e+05  -5.672347e+04
  -9.408579e+04   4.095857e+05
  -5.332664e+05   2.572056e+05
  -2.177594e+05  -7.779327e+04
   3.825818e+05   6.416920e+03
   5.156040e+05   6.042465e+05
  -1.873661e+05   1.146286e+06
  -1.364626e+06   8.550371e+05
  -2.034821e+06  -4.548694e+05
  -1.383918e+06  -1.948433e+06
   2.803388e+05  -2.390426e+06
   1.634282e+06  -1.391689e+06
   1.703531e+06   1.328704e+05
   8.910559e+05   9.438842e+05
   3.229352e+05   7.525335e+05
   4.141293e+05   2.965783e+05
   5.423203e+05   3.059124e+05
   5.643374e+04   7.129070e+05
  -8.655176e+05   8.734566e+05
  -1.445345e+06   3.161805e+05
  -1.062729e+06  -7.485318e+05
   2.511414e+05  -1.483004e+06
   1.728812e+06  -1.049247e+06
   2.223015e+06   5.250185e+05
   1.090797e+06   2.087108e+06
  -1.010136e+06   2.295899e+06
  -2.493112e+06   9.797206e+05
  -2.319575e+06  -6.583525e+05
  -9.801344e+05  -1.337621e+06
   1.838812e+05  -9.874607e+05
   4.387691e+05  -5.543232e+05
   1.810079e+05  -7.382686e+05
   1.820967e+05  -1.236592e+06
   6.846024e+05  -1.211634e+06
   1.258199e+06  -2.638747e+05
   1.276473e+06   1.107846e+06
   4.897865e+05   1.886620e+06
  -6.603237e+05   1.400107e+06
  -1.271854e+06  -2.686318e+04
  -7.779361e+05  -1.262149e+06
   3.842847e+05  -1.358317e+06
   1.108025e+06  -4.112671e+05
   7.694873e+05   6.379115e+05
  -1.040520e+05   1.012767e+06
  -4.868338e+05   7.603017e+05
  -6.803965e+04   4.313368e+05
   4.071465e+05   3.575081e+05
   4.127535e+04   3.857193e+05
  -1.115508e+06   1.820244e+05
  -1.992805e+06  -3.734454e+05
  -1.563394e+06  -1.044862e+06
   4.072616e+04  -1.381495e+06
   1.553713e+06  -1.064389e+06
   1.794793e+06  -2.499866e+05
   8.187052e+05   4.581900e+05
  -2.543997e+05   5.284752e+05
  -4.901671e+05   3.895222e+04
  -1.067977e+03  -3.868323e+05
   4.606280e+05  -2.348130e+05
   4.596023e+05   3.519306e+05
   1.943276e+05   7.331234e+05
   4.756274e+04   4.802281e+05
   1.403491e+05  -1.150328e+05
   3.091513e+05  -3.138315e+05
   2.718956e+05   2.320877e+05
  -1.832694e+05   9.827459e+05
  -9.148359e+05   1.020108e+06
  -1.308264e+06   1.090029e+05
  -7.742926e+05  -9.298828e+05
   4.431505e+05  -1.079786e+06
   1.229040e+06  -2.631257e+05
   7.039668e+05   5.971116e+05
  -7.012673e+05   6.270235e+05
  -1.579106e+06  -1.178806e+05
  -1.014277e+06  -8.673522e+05
   4.695307e+05  -9.890854e+05
   1.498803e+06  -4.801231e+05
   1.241412e+06   1.951399e+05
   1.364782e+05   5.182884e+05
  -6.439986e+05   2.638054e+05
  -3.603998e+05  -2.917213e+05
   6.087373e+05  -4.865052e+05
   1.166855e+06   1.352352e+05
   6.055688e+05   1.200633e+06
  -6.624493e+05   1.660529e+06
  -1.509768e+06   8.183341e+05
  -1.223362e+06  -7.952462e+05
  -1.493079e+05  -1.788253e+06
   7.679160e+05  -1.278826e+06
   9.163060e+05   1.814052e+05
   4.139901e+05   1.189214e+06
  -2.191705e+05   9.660853e+05
  -5.517133e+05   7.744760e+04
  -4.693454e+05  -3.891568e+05
  -1.775470e+05  -1.447131e+05
  -4.315913e+04   9.820639e+04
  -2.421709e+05  -2.906854e+05
  -4.694366e+05  -9.677966e+05
  -1.826588e+05  -1.076612e+06
   6.943020e+05  -3.738910e+05
   1.454615e+06   5.007495e+05
   1.267717e+06   8.618432e+05
   1.669418e+05   6.934942e+05
  -8.745717e+05   3.937841e+05
  -9.867456e+05   1.620005e+05
  -3.415614e+05  -5.418488e+04
   1.568363e+05  -2.192320e+05
   2.093301e+04  -2.093753e+05
  -2.813317e+05  -1.084134e+05
  -3.949826e+04  -1.357242e+05
   6.840870e+05  -2.128048e+05
   1.036926e+06   4.458659e+04
   3.841070e+05   6.993120e+05
  -8.846414e+05   1.138802e+06
  -1.696441e+06   6.915577e+05
  -1.369339e+06  -4.779627e+05
  -2.305088e+05  -1.406749e+06
   7.931837e+05  -1.338988e+06
   1.057135e+06  -4.958603e+05
   6.486064e+05   2.560528e+05
   1.165939e+05   3.601343e+05
  -8.720951e+04   5.722373e+04
   7.384697e+04  -2.440588e+04
   2.952314e+05   3.665963e+05
   2.308430e+05   8.073213e+05
  -1.988173e+05   6.670441e+05
  -6.780701e+05  -1.462151e+05
  -7.035842e+05  -9.738389e+05
  -7.412101e+04  -1.028474e+06
   7.643437e+05  -2.167971e+05
   1.008252e+06   7.529187e+05
   3.109552e+05   1.091185e+06
  -7.284739e+05   6.464626e+05
  -1.103153e+06  -1.062652e+05
  -5.036349e+05  -6.139632e+05
   3.031470e+05  -6.547104e+05
   3.760210e+05  -3.509016e+05
  -2.572788e+05  -1.662030e+04
  -6.490086e+05   2.224313e+04
  -1.338333e+05  -3.081410e+05
   8.356306e+05  -6.551989e+05
   1.252112e+06  -5.111670e+05
   7.396898e+05   1.890122e+05
  -1.186816e+05   8.566731e+05
  -5.608482e+05   8.298975e+05
  -4.181387e+05   1.404002e+05
  -3.769007e+04  -4.825234e+05
   2.511455e+05  -4.216575e+05
   3.490294e+05   1.629741e+05
   2.373571e+05   5.798757e+05
  -6.692909e+04   4.156913e+05
  -3.878217e+05  -5.734916e+04
  -4.608675e+05  -2.846915e+05
  -2.368515e+05  -9.614609e+04
   2.437246e+04   1.444002e+05
   7.705077e+04   3.123919e+04
   6.450431e+03  -3.599841e+05
   8.135939e+04  -5.406924e+05
   3.313686e+05  -1.961202e+05
   4.383122e+05   4.000276e+05
   1.268621e+05   6.523339e+05
  -4.178167e+05   3.003196e+05
  -6.497426e+05  -2.994874e+05
  -2.360255e+05  -5.796469e+05
   5.103211e+05  -3.494980e+05
   8.713148e+05   9.995544e+04
   4.649474e+05   3.868436e+05
  -3.026645e+05   3.851856e+05
  -6.400670e+05   2.044912e+05
  -2.437644e+05   9.423072e+03
   3.553212e+05  -5.698378e+04
   4.092470e+05   7.938532e+04
  -1.782267e+05   2.924583e+05
  -7.548028e+05   2.563778e+05
