
 $NMID
 id='ANONYMOUS ', fmtdat='(2E16.6)'
 volume=1.0
 tramp=1.0
 $END
  -2.585943e+07   1.525479e+06
  -1.799838e+07  -1.235878e+07
  -2.169313e+05  -1.707944e+07
   1.135730e+07  -1.065245e+07
   9.361539e+06  -3.757338e+05
   3.548799e+05   4.698695e+06
  -5.164662e+06   1.809217e+06
  -3.531316e+06  -4.248510e+06
   1.494416e+06  -6.602757e+06
   4.770610e+06  -2.861238e+06
   4.110919e+06   3.019366e+06
   7.232816e+05   5.004550e+06
  -2.185826e+06   1.270497e+06
  -1.823216e+06  -3.907944e+06
   1.510699e+06  -4.815272e+06
   4.274756e+06  -3.984135e+05
   3.229567e+06   4.961104e+06
  -1.026110e+06   6.415773e+06
  -4.769977e+06   3.335981e+06
  -5.123436e+06  -1.026602e+06
  -2.625810e+06  -3.368714e+06
  -1.288697e+05  -3.113257e+06
   1.761760e+05  -2.033726e+06
  -1.250571e+06  -2.002536e+06
  -1.803615e+06  -3.124091e+06
   5.164323e+05  -3.749564e+06
   4.468288e+06  -2.357364e+06
   6.270992e+06   5.528982e+05
   3.715255e+06   2.751717e+06
  -9.176044e+05   2.568799e+06
  -3.132386e+06   5.317333e+05
  -1.240037e+06  -1.363560e+06
   2.063551e+06  -1.531728e+06
   3.219348e+06   1.415458e+05
   1.629792e+06   2.371291e+06
  -5.695341e+05   3.242727e+06
  -1.421085e+06   1.733530e+06
  -8.163756e+05  -8.443818e+05
   1.323020e+05  -1.676841e+06
   3.255207e+05   2.945480e+05
  -5.662595e+05   2.568261e+06
  -1.751960e+06   1.901186e+06
  -1.754553e+06  -1.316523e+06
   5.830681e+04  -3.167588e+06
   2.270393e+06  -1.127867e+06
   2.455657e+06   2.634472e+06
  -1.728282e+05   3.915951e+06
  -3.525258e+06   1.422927e+06
  -4.482036e+06  -2.190626e+06
  -1.972217e+06  -3.681634e+06
   1.913856e+06  -2.323308e+06
   3.857229e+06   2.104246e+05
   2.393170e+06   1.828777e+06
  -7.738282e+05   1.570620e+06
  -2.520249e+06   5.010695e+04
  -1.465756e+06  -1.126326e+06
   7.258112e+05  -8.185171e+05
   1.386846e+06   4.564535e+05
  -5.683901e+04   1.095973e+06
  -1.549822e+06   2.919163e+05
  -9.959413e+05  -1.063041e+06
   1.220751e+06  -1.464594e+06
   2.703870e+06  -3.418024e+05
   1.707831e+06   1.608905e+06
  -1.122803e+06   3.075462e+06
  -3.560040e+06   2.878573e+06
  -3.921812e+06   7.335957e+05
  -2.362639e+06  -2.176287e+06
  -3.944716e+05  -3.840373e+06
   6.438461e+05  -3.304512e+06
   6.940336e+05  -1.700674e+06
   6.923367e+05  -8.149405e+05
   1.309599e+06  -8.750800e+05
   2.141609e+06  -5.465461e+05
   2.203712e+06   8.886364e+05
   1.059468e+06   2.269829e+06
  -6.732673e+05   1.954176e+06
  -1.806305e+06  -7.080109e+04
  -1.468189e+06  -2.065115e+06
   2.298786e+05  -2.348539e+06
   2.116417e+06  -8.205732e+05
   2.733533e+06   1.213982e+06
   1.626953e+06   2.343768e+06
  -1.234273e+05   2.154171e+06
  -1.038213e+06   1.333352e+06
  -9.369539e+05   8.268014e+05
  -1.035045e+06   8.400624e+05
  -2.145264e+06   6.907346e+05
  -3.301573e+06  -3.178771e+05
  -2.751894e+06  -1.977532e+06
  -1.854208e+05  -3.224459e+06
   2.599226e+06  -3.056749e+06
   3.441594e+06  -1.407949e+06
   1.958408e+06   7.031219e+05
  -2.205108e+05   1.843071e+06
  -1.156290e+06   1.303489e+06
  -3.693010e+05  -1.588907e+05
   9.666182e+05  -9.382412e+05
   1.370993e+06  -2.726724e+05
   5.281910e+05   8.432778e+05
  -5.223772e+05   8.648867e+05
  -5.714971e+05  -2.787686e+05
   4.768732e+05  -9.640007e+05
   1.524199e+06   1.094684e+05
   1.369893e+06   2.181995e+06
  -1.830189e+05   3.174521e+06
  -2.161605e+06   1.959089e+06
  -3.175854e+06  -5.235600e+05
  -2.466567e+06  -2.343120e+06
  -5.485630e+05  -2.409825e+06
   1.108962e+06  -1.214755e+06
   1.335747e+06  -9.896281e+04
   3.968819e+05   3.040712e+04
  -2.940569e+05  -5.871743e+05
   2.202649e+05  -9.642671e+05
   1.311131e+06  -4.661753e+05
   1.530149e+06   5.027185e+05
   4.119548e+05   9.732478e+05
  -8.765604e+05   5.036986e+05
  -8.435315e+05  -3.554697e+05
   6.049202e+05  -6.703786e+05
   1.991215e+06  -3.588239e+04
   1.788877e+06   1.106228e+06
  -1.557241e+04   1.855819e+06
  -1.897348e+06   1.543552e+06
  -2.267473e+06   3.031172e+05
  -9.702375e+05  -9.023990e+05
   6.380217e+05  -1.058702e+06
   1.059305e+06  -1.420937e+05
   7.732290e+04   7.502778e+05
  -1.163699e+06   5.592166e+05
  -1.394496e+06  -5.283191e+05
  -4.392763e+05  -1.302710e+06
   7.393415e+05  -9.505579e+05
   1.057273e+06   4.897005e+04
   3.399643e+05   5.568207e+05
  -5.458139e+05   6.707215e+04
  -5.439198e+05  -8.230078e+05
   5.101597e+05  -1.111212e+06
   1.625806e+06  -3.776082e+05
   1.603672e+06   8.632948e+05
   3.186142e+05   1.632140e+06
  -1.077483e+06   1.327052e+06
  -1.352993e+06   2.529477e+05
  -4.733582e+05  -6.480997e+05
   4.836039e+05  -6.817098e+05
   5.832570e+05  -4.733436e+04
  -4.410318e+04   4.503934e+05
  -5.439774e+05   3.155552e+05
  -3.528011e+05  -1.276377e+05
   2.578739e+05  -1.811953e+05
   5.255823e+05   3.675526e+05
  -2.473534e+04   9.468513e+05
  -1.068748e+06   7.760399e+05
  -1.685902e+06  -2.968635e+05
  -1.186597e+06  -1.549422e+06
   1.620470e+05  -1.992935e+06
   1.321825e+06  -1.273449e+06
   1.496655e+06  -2.117911e+02
   8.830436e+05   8.380697e+05
   3.085922e+05   8.021851e+05
   2.384015e+05   3.360732e+05
   3.472324e+05   1.788943e+05
   6.640274e+04   5.136947e+05
  -6.539056e+05   7.843664e+05
  -1.227853e+06   3.701558e+05
  -9.966125e+05  -6.268305e+05
   1.190595e+05  -1.349733e+06
   1.423856e+06  -9.916911e+05
   1.895681e+06   3.544882e+05
   1.018780e+06   1.675926e+06
  -6.736704e+05   1.922259e+06
  -1.960027e+06   9.540111e+05
  -1.985042e+06  -3.767469e+05
  -9.851085e+05  -1.082380e+06
   6.285997e+04  -9.460519e+05
   4.441081e+05  -5.677021e+05
   2.780055e+05  -5.775892e+05
   1.738994e+05  -9.162861e+05
   4.895409e+05  -9.478706e+05
   9.742188e+05  -2.362213e+05
   1.055764e+06   8.816647e+05
   4.408270e+05   1.541432e+06
  -5.179450e+05   1.165893e+06
  -1.057355e+06   2.962397e+04
  -7.067970e+05  -9.756428e+05
   2.035022e+05  -1.130202e+06
   8.269308e+05  -4.670945e+05
   6.596328e+05   3.697646e+05
   4.475649e+04   7.751183e+05
  -2.666324e+05   6.701035e+05
  -1.649367e+03   4.083133e+05
   3.247675e+05   3.063962e+05
   3.176391e+04   3.290315e+05
  -8.787821e+05   2.049543e+05
  -1.603699e+06  -2.205005e+05
  -1.321338e+06  -7.780200e+05
  -7.944135e+04  -1.093150e+06
   1.163483e+06  -9.049230e+05
   1.443976e+06  -3.124422e+05
   7.233294e+05   2.618873e+05
  -1.509343e+05   4.039409e+05
  -3.835036e+05   8.911114e+04
   5.837833e+03  -2.610622e+05
   3.993362e+05  -1.906240e+05
   3.794625e+05   2.751467e+05
   1.110550e+05   6.107143e+05
  -1.302433e+04   3.903099e+05
   1.283405e+05  -1.489544e+05
   3.130714e+05  -3.198790e+05
   2.498110e+05   1.848639e+05
  -1.641399e+05   8.429146e+05
  -7.290263e+05   8.544351e+05
  -9.933091e+05   8.470016e+04
  -5.810397e+05  -7.420288e+05
   3.306074e+05  -8.376780e+05
   9.523341e+05  -1.886759e+05
   5.841861e+05   4.946826e+05
  -5.440063e+05   5.550665e+05
  -1.344831e+06  -1.512969e+04
  -9.613474e+05  -6.815647e+05
   2.972865e+05  -9.009315e+05
   1.258647e+06  -5.378060e+05
   1.103956e+06   8.328846e+04
   1.616023e+05   4.464827e+05
  -5.205773e+05   2.689847e+05
  -2.831455e+05  -2.074638e+05
   5.215343e+05  -3.772318e+05
   9.537000e+05   1.371329e+05
   4.609117e+05   9.973245e+05
  -5.799739e+05   1.351886e+06
  -1.259265e+06   6.609366e+05
  -1.025554e+06  -6.553964e+05
  -1.549834e+05  -1.495273e+06
   6.134923e+05  -1.118412e+06
   7.854448e+05   8.679313e+04
   4.191662e+05   9.798116e+05
  -1.069956e+05   8.496618e+05
  -4.441231e+05   1.031617e+05
  -4.406704e+05  -3.299913e+05
  -1.952274e+05  -1.384651e+05
  -1.613228e+04   9.947734e+04
  -1.430020e+05  -1.945746e+05
  -3.879138e+05  -7.754045e+05
  -2.333038e+05  -9.078219e+05
   5.030851e+05  -3.459624e+05
   1.230603e+06   3.851348e+05
   1.129901e+06   6.943203e+05
   1.638117e+05   5.633091e+05
  -7.656363e+05   3.364801e+05
  -8.378993e+05   1.732019e+05
  -2.491984e+05  -3.283284e+03
   1.424178e+05  -1.774833e+05
  -4.161037e+04  -2.106394e+05
  -2.922654e+05  -1.269033e+05
  -9.793808e+03  -1.143414e+05
   6.270143e+05  -1.574264e+05
   8.506705e+05   3.736668e+04
   2.427403e+05   5.518226e+05
  -7.663056e+05   9.146028e+05
  -1.347390e+06   5.623914e+05
  -1.064093e+06  -3.978533e+05
  -1.891662e+05  -1.170012e+06
   6.180625e+05  -1.105265e+06
   8.633690e+05  -3.862832e+05
   5.460306e+05   2.386224e+05
   7.494858e+04   2.933387e+05
  -1.195098e+05   6.360599e+03
   4.702291e+04  -6.456220e+04
   2.802916e+05   2.853523e+05
   2.262190e+05   6.679664e+05
  -1.662442e+05   5.393578e+05
  -5.690848e+05  -1.544151e+05
  -5.545212e+05  -8.307433e+05
  -1.164277e+04  -8.344759e+05
   6.568593e+05  -1.294066e+05
   8.191502e+05   6.586546e+05
   2.350789e+05   8.911228e+05
  -5.985222e+05   5.016399e+05
  -8.847181e+05  -8.678841e+04
  -3.969280e+05  -4.596727e+05
   2.333280e+05  -4.947381e+05
   2.593266e+05  -2.876036e+05
  -2.623882e+05  -3.527961e+04
  -5.503525e+05   1.708818e+04
  -9.874838e+04  -2.413626e+05
   6.834167e+05  -5.606601e+05
   9.897679e+05  -4.842918e+05
   5.682467e+05   9.904353e+04
  -8.856922e+04   6.888761e+05
  -4.051707e+05   6.788130e+05
  -2.884822e+05   9.105676e+04
  -7.738138e+03  -4.168590e+05
   2.089594e+05  -3.233578e+05
   2.884482e+05   1.766517e+05
   1.960642e+05   4.779094e+05
  -5.755820e+04   3.009780e+05
  -3.166812e+05  -6.287681e+04
  -3.721869e+05  -1.953430e+05
  -2.003894e+05  -4.729975e+04
   2.601714e+03   7.993296e+04
   7.262789e+04  -5.054826e+04
   6.943338e+04  -3.195994e+05
   1.461423e+05  -3.855835e+05
   2.904210e+05  -7.762642e+04
   2.983394e+05   3.734687e+05
   2.873039e+04   5.353920e+05
  -3.633841e+05   2.271078e+05
  -5.059134e+05  -2.681831e+05
  -1.749848e+05  -4.933330e+05
   4.038221e+05  -2.894271e+05
   6.913177e+05   9.145241e+04
   3.742202e+05   3.144922e+05
  -2.417553e+05   2.860694e+05
  -5.084879e+05   1.340848e+05
  -1.634990e+05   8.077957e+03
   3.394031e+05  -5.857865e+03
   3.521935e+05   1.162928e+05
  -1.904993e+05   2.691093e+05
  -6.901856e+05   2.087961e+05
