
 $NMID
 id='ANONYMOUS ', fmtdat='(2E16.6)'
 volume=1.0
 tramp=1.0
 $END
   1.496294e+07   5.550977e+05
   9.718028e+06   6.954279e+06
  -1.136404e+05   9.191878e+06
  -6.367525e+06   6.353198e+06
  -5.400281e+06   9.116808e+05
  -3.931048e+05  -2.642393e+06
   3.081193e+06  -1.534519e+06
   2.454498e+06   2.375557e+06
  -6.063088e+05   4.346802e+06
  -2.842948e+06   1.980951e+06
  -2.463923e+06  -2.075456e+06
  -2.269090e+05  -3.313543e+06
   1.587698e+06  -5.741592e+05
   1.243230e+06   2.889430e+06
  -8.756473e+05   3.309098e+06
  -2.563017e+06   3.564096e+05
  -1.921971e+06  -2.995436e+06
   6.744674e+05  -3.781047e+06
   2.908541e+06  -1.719252e+06
   2.889472e+06   1.024835e+06
   1.054834e+06   2.201432e+06
  -4.218013e+05   1.542406e+06
  -3.735627e+04   6.688814e+05
   1.401218e+06   1.073609e+06
   1.651403e+06   2.389249e+06
  -4.390665e+05   2.883206e+06
  -3.404852e+06   1.543258e+06
  -4.426819e+06  -7.453382e+05
  -2.292340e+06  -2.175479e+06
   1.102158e+06  -1.785717e+06
   2.568726e+06  -1.302698e+05
   9.552217e+05   1.366718e+06
  -1.728660e+06   1.455660e+06
  -2.658459e+06  -6.117624e+04
  -1.226918e+06  -1.968470e+06
   6.927510e+05  -2.452081e+06
   1.190561e+06  -9.308634e+05
   3.030479e+05   1.004658e+06
  -5.435124e+05   1.169144e+06
  -3.792163e+05  -5.932782e+05
   5.043116e+05  -2.072472e+06
   1.206968e+06  -1.358974e+06
   1.090922e+06   7.692963e+05
   1.348346e+05   1.803966e+06
  -9.980919e+05   5.539482e+05
  -1.207089e+06  -1.533625e+06
   1.244108e+05  -2.170477e+06
   2.143802e+06  -7.157169e+05
   2.930909e+06   1.416547e+06
   1.417391e+06   2.397122e+06
  -1.233609e+06   1.629066e+06
  -2.644534e+06  -1.122693e+04
  -1.680547e+06  -1.133639e+06
   4.406125e+05  -1.001929e+06
   1.579930e+06  -3.590487e+04
   9.083795e+05   6.894732e+05
  -4.811377e+05   4.959415e+05
  -9.726227e+05  -2.955913e+05
  -1.491044e+05  -7.907247e+05
   8.966666e+05  -4.671583e+05
   8.301059e+05   3.458665e+05
  -4.249093e+05   8.177348e+05
  -1.509172e+06   3.537325e+05
  -1.037631e+06  -8.739455e+05
   8.526299e+05  -1.939814e+06
   2.559297e+06  -1.812107e+06
   2.681138e+06  -2.899431e+05
   1.406149e+06   1.635781e+06
   7.732890e+04   2.599913e+06
  -3.881067e+05   2.183660e+06
  -2.971342e+05   1.245625e+06
  -4.704078e+05   7.981936e+05
  -1.149746e+06   7.916833e+05
  -1.793496e+06   3.547822e+05
  -1.719524e+06  -8.319694e+05
  -7.517011e+05  -1.859948e+06
   6.118775e+05  -1.562557e+06
   1.475236e+06   3.780799e+04
   1.145863e+06   1.587099e+06
  -2.246573e+05   1.745941e+06
  -1.585246e+06   4.855740e+05
  -1.841298e+06  -1.027026e+06
  -9.049523e+05  -1.665643e+06
   2.474988e+05  -1.314328e+06
   6.768912e+05  -6.975854e+05
   4.999947e+05  -4.768448e+05
   6.169619e+05  -6.182771e+05
   1.466959e+06  -5.532807e+05
   2.310795e+06   1.679173e+05
   1.953451e+06   1.371517e+06
   1.543359e+05   2.307292e+06
  -1.873309e+06   2.209423e+06
  -2.535489e+06   9.734593e+05
  -1.434364e+06  -6.101899e+05
   2.397587e+05  -1.404577e+06
   9.407675e+05  -9.222062e+05
   2.867130e+05   1.701982e+05
  -7.418156e+05   6.876943e+05
  -9.974600e+05   1.686887e+05
  -3.330574e+05  -6.329986e+05
   4.359817e+05  -6.503382e+05
   4.896784e+05   1.814248e+05
  -2.279019e+05   7.698191e+05
  -1.036660e+06   1.335222e+05
  -1.109972e+06  -1.362240e+06
  -1.298604e+05  -2.276282e+06
   1.376851e+06  -1.597353e+06
   2.319047e+06   1.967790e+05
   1.914259e+06   1.652318e+06
   4.691208e+05   1.782342e+06
  -8.147480e+05   8.900863e+05
  -9.876609e+05   5.108194e+04
  -2.828253e+05  -2.740229e+04
   2.231254e+05   4.269661e+05
  -1.442048e+05   6.814659e+05
  -9.197203e+05   3.275625e+05
  -1.089761e+06  -3.428247e+05
  -3.100185e+05  -6.929797e+05
   6.374305e+05  -3.973837e+05
   6.711638e+05   2.376702e+05
  -3.703200e+05   5.532077e+05
  -1.456476e+06   1.430931e+05
  -1.389135e+06  -7.467582e+05
  -6.957111e+04  -1.383410e+06
   1.354705e+06  -1.174983e+06
   1.643354e+06  -2.388894e+05
   6.879117e+05   6.435103e+05
  -4.680679e+05   7.347058e+05
  -7.426304e+05   7.384330e+04
  -3.048422e+04  -5.455027e+05
   8.445150e+05  -4.051962e+05
   1.014952e+06   3.635231e+05
   3.515944e+05   9.359097e+05
  -5.044710e+05   7.213771e+05
  -7.769275e+05   7.431930e+03
  -2.820855e+05  -3.979481e+05
   3.811704e+05  -7.533183e+04
   4.085956e+05   5.784287e+05
  -3.538615e+05   8.098598e+05
  -1.172643e+06   2.836634e+05
  -1.159660e+06  -6.179526e+05
  -2.349503e+05  -1.172895e+06
   7.653428e+05  -9.557498e+05
   9.714019e+05  -1.866845e+05
   3.534636e+05   4.732556e+05
  -3.489539e+05   5.139504e+05
  -4.614669e+05   3.827748e+04
  -1.538075e+04  -3.736832e+05
   4.058099e+05  -2.993580e+05
   3.321965e+05   6.942171e+04
  -1.183387e+05   1.799249e+05
  -3.785260e+05  -1.968507e+05
  -2.508809e+04  -6.526495e+05
   7.383623e+05  -5.707332e+05
   1.209621e+06   1.899912e+05
   8.612950e+05   1.101646e+06
  -1.076720e+05   1.443679e+06
  -9.488206e+05   9.513489e+05
  -1.099703e+06   3.175147e+04
  -6.805399e+05  -6.193257e+05
  -2.461887e+05  -6.390357e+05
  -1.426180e+05  -2.864356e+05
  -2.011947e+05  -1.120063e+05
  -3.873070e+04  -3.279939e+05
   4.375413e+05  -5.613369e+05
   8.637746e+05  -3.031049e+05
   7.440115e+05   4.279077e+05
  -3.941744e+04   9.898555e+05
  -1.001360e+06   7.514090e+05
  -1.375909e+06  -2.242954e+05
  -7.705303e+05  -1.187338e+06
   4.360168e+05  -1.385100e+06
   1.378582e+06  -7.215607e+05
   1.445789e+06   2.228757e+05
   7.671460e+05   7.670247e+05
  -3.836901e+03   7.217353e+05
  -3.386256e+05   4.574636e+05
  -2.547538e+05   4.236115e+05
  -1.580843e+05   6.318910e+05
  -3.463043e+05   6.572464e+05
  -6.860896e+05   1.629222e+05
  -7.590925e+05  -6.364674e+05
  -3.225120e+05  -1.115059e+06
   3.746215e+05  -8.477731e+05
   7.696340e+05  -3.672134e+04
   5.259611e+05   6.814485e+05
  -1.128973e+05   8.102052e+05
  -5.570156e+05   3.716371e+05
  -4.666465e+05  -2.098462e+05
  -6.974439e+04  -5.240884e+05
   1.406948e+05  -4.871714e+05
  -1.969339e+04  -3.122321e+05
  -2.229429e+05  -2.269581e+05
  -1.836763e+04  -2.357929e+05
   6.087893e+05  -1.554734e+05
   1.126149e+06   1.383386e+05
   9.547022e+05   5.342417e+05
   9.435126e+04   7.649875e+05
  -7.994480e+05   6.481521e+05
  -1.027811e+06   2.516619e+05
  -5.322506e+05  -1.469549e+05
   9.218238e+04  -2.707450e+05
   2.615819e+05  -8.082175e+04
  -2.039032e+04   1.595349e+05
  -2.993491e+05   1.248664e+05
  -2.642428e+05  -1.995451e+05
  -4.894229e+04  -4.466510e+05
   3.735344e+04  -2.847496e+05
  -9.018282e+04   1.257816e+05
  -2.391676e+05   2.617550e+05
  -1.844265e+05  -1.171551e+05
   1.218617e+05  -6.099207e+05
   5.102587e+05  -6.142419e+05
   6.760009e+05  -5.073202e+04
   3.872012e+05   5.303938e+05
  -2.334880e+05   5.753850e+05
  -6.631564e+05   1.086133e+05
  -4.152814e+05  -3.638102e+05
   3.817458e+05  -4.043188e+05
   9.775868e+05  -9.186612e+03
   7.310681e+05   4.751997e+05
  -1.796650e+05   6.692484e+05
  -9.080827e+05   4.338538e+05
  -8.210121e+05  -3.049310e+04
  -1.345191e+05  -3.275893e+05
   3.716329e+05  -2.122821e+05
   1.982507e+05   1.394703e+05
  -3.881316e+05   2.624287e+05
  -6.874961e+05  -1.168592e+05
  -3.085595e+05  -7.309566e+05
   4.498800e+05  -9.650021e+05
   9.242204e+05  -4.558660e+05
   7.376163e+05   4.851189e+05
   1.074956e+05   1.085778e+06
  -4.414178e+05   8.239855e+05
  -5.722642e+05  -4.094303e+04
  -3.268444e+05  -7.030697e+05
   4.641083e+04  -6.303996e+05
   3.120663e+05  -8.986237e+04
   3.403681e+05   2.401100e+05
   1.649825e+05   1.063366e+05
   4.742492e+03  -7.853477e+04
   7.447524e+04   1.261065e+05
   2.712867e+05   5.553918e+05
   1.956843e+05   6.629895e+05
  -3.348817e+05   2.560599e+05
  -8.951705e+05  -2.785446e+05
  -8.419100e+05  -5.002441e+05
  -1.221367e+05  -4.001763e+05
   5.737901e+05  -2.405166e+05
   6.129354e+05  -1.345805e+05
   1.612244e+05  -1.081305e+04
  -1.130761e+05   1.261317e+05
   5.388406e+04   1.633085e+05
   2.391381e+05   1.033817e+05
  -6.626086e+02   8.317160e+04
  -4.805658e+05   1.045819e+05
  -6.117649e+05  -3.464901e+04
  -1.355319e+05  -3.947858e+05
   5.814391e+05  -6.436581e+05
   9.562021e+05  -3.830524e+05
   7.331206e+05   3.053524e+05
   1.231031e+05   8.488205e+05
  -4.394155e+05   7.868092e+05
  -6.216974e+05   2.602723e+05
  -3.984853e+05  -1.859362e+05
  -4.418805e+04  -2.110288e+05
   1.088838e+05   1.027319e+04
  -2.464836e+04   6.459715e+04
  -2.149583e+05  -1.974010e+05
  -1.747567e+05  -4.831608e+05
   1.265001e+05  -3.858293e+05
   4.179775e+05   1.296330e+05
   3.839294e+05   6.204768e+05
  -2.402170e+04   6.013952e+05
  -4.918144e+05   6.585889e+04
  -5.804346e+05  -5.028257e+05
  -1.487094e+05  -6.424965e+05
   4.377099e+05  -3.401263e+05
   6.247843e+05   7.269425e+04
   2.708795e+05   3.144316e+05
  -1.667139e+05   3.332133e+05
  -1.666169e+05   2.029962e+05
   2.112140e+05   3.666430e+04
   4.020589e+05  -6.795709e+03
   6.175992e+04   1.693842e+05
  -4.954726e+05   4.051057e+05
  -6.962390e+05   3.629653e+05
  -3.859590e+05  -5.609605e+04
   6.958269e+04  -4.876488e+05
   2.748770e+05  -4.779059e+05
   1.846864e+05  -4.705412e+04
  -8.957379e+03   3.100662e+05
  -1.562732e+05   2.190762e+05
  -2.082050e+05  -1.496022e+05
  -1.357998e+05  -3.462076e+05
   4.883168e+04  -1.975571e+05
   2.276587e+05   5.633336e+04
   2.601770e+05   1.285207e+05
   1.435580e+05   2.216990e+04
   8.901738e+03  -4.143090e+04
  -5.188390e+04   7.024003e+04
  -8.080834e+04   2.444315e+05
  -1.496820e+05   2.548233e+05
  -2.240356e+05   1.564458e+04
  -1.851927e+05  -2.969050e+05
   1.992244e+04  -3.899733e+05
   2.739159e+05  -1.512400e+05
   3.490067e+05   2.101022e+05
   1.129848e+05   3.648965e+05
  -2.859049e+05   2.033174e+05
  -4.855607e+05  -7.919827e+04
  -2.620079e+05  -2.296544e+05
   1.766994e+05  -1.892900e+05
   3.628528e+05  -7.364236e+04
   1.010975e+05  -1.547303e+02
  -2.697851e+05  -1.425957e+04
  -2.637363e+05  -1.104910e+05
   1.584209e+05  -2.083909e+05
   5.313874e+05  -1.461437e+05
