
 $NMID
 id='ANONYMOUS ', fmtdat='(2E16.6)'
 volume=1.0
 tramp=1.0
 $END
   1.777547e+07   2.472630e+05
   1.076084e+07   1.012168e+07
  -1.785187e+06   1.156695e+07
  -8.259858e+06   5.449891e+06
  -5.431766e+06  -1.200845e+06
   5.964693e+05  -3.043627e+06
   3.238338e+06  -4.020636e+05
   1.567716e+06   2.934063e+06
  -1.448544e+06   3.666178e+06
  -3.109796e+06   1.211966e+06
  -2.497469e+06  -2.155551e+06
  -2.893528e+05  -3.193145e+06
   1.559439e+06  -8.638505e+05
   1.199583e+06   2.266232e+06
  -1.024216e+06   2.679569e+06
  -2.611529e+06  -1.346497e+05
  -1.654591e+06  -3.283157e+06
   1.094472e+06  -3.888042e+06
   3.290527e+06  -1.834361e+06
   3.415512e+06   9.103388e+05
   1.781532e+06   2.524829e+06
  -1.084753e+05   2.489575e+06
  -7.530428e+05   1.498678e+06
   9.941883e+04   8.322322e+05
   9.553284e+05   1.235347e+06
   2.328300e+04   2.000749e+06
  -2.404784e+06   1.677893e+06
  -3.835958e+06  -3.166643e+04
  -2.507102e+06  -1.715306e+06
   3.154090e+05  -1.924611e+06
   1.845985e+06  -7.793017e+05
   1.032370e+06   4.785397e+05
  -6.874474e+05   8.743241e+05
  -1.504045e+06   2.156245e+05
  -1.008314e+06  -1.044337e+06
   8.173626e+04  -1.854497e+06
   8.984294e+05  -1.205373e+06
   8.976156e+05   4.900191e+05
   1.768195e+05   1.325699e+06
  -3.879639e+05   2.079080e+05
   1.817085e+04  -1.348432e+06
   9.336978e+05  -1.025985e+06
   9.392860e+05   9.741555e+05
  -4.472893e+05   1.962000e+06
  -1.848076e+06   3.783506e+05
  -1.551352e+06  -2.061669e+06
   4.370508e+05  -2.609018e+06
   2.379877e+06  -8.042885e+05
   2.608198e+06   1.398902e+06
   9.789932e+05   2.133146e+06
  -1.166835e+06   1.232139e+06
  -2.118850e+06  -2.533029e+05
  -1.166745e+06  -1.157410e+06
   6.899337e+05  -8.936757e+05
   1.594149e+06   1.568580e+05
   7.814773e+05   8.704764e+05
  -5.545239e+05   5.231361e+05
  -7.649305e+05  -3.143109e+05
   1.930223e+05  -5.005109e+05
   8.371675e+05   1.800074e+05
   1.714340e+05   8.299717e+05
  -1.124455e+06   6.752438e+05
  -1.658681e+06  -1.671722e+05
  -8.626830e+05  -1.161087e+06
   6.956599e+05  -1.853720e+06
   2.016823e+06  -1.754664e+06
   2.343745e+06  -5.201772e+05
   1.546193e+06   1.296835e+06
   2.672104e+05   2.329622e+06
  -5.235476e+05   1.845123e+06
  -4.669996e+05   6.975739e+05
  -1.673078e+05   2.319746e+05
  -3.706130e+05   5.586514e+05
  -1.000178e+06   6.173604e+05
  -1.308581e+06  -1.773351e+05
  -8.266028e+05  -1.104300e+06
   1.518018e+05  -1.117102e+06
   9.148776e+05  -1.199692e+05
   8.849356e+05   1.005126e+06
  -1.763053e+04   1.324649e+06
  -1.203214e+06   6.026472e+05
  -1.706241e+06  -6.134916e+05
  -1.060354e+06  -1.449886e+06
   1.127187e+05  -1.418469e+06
   7.597154e+05  -8.294483e+05
   6.579838e+05  -3.919946e+05
   5.914355e+05  -3.739684e+05
   1.143809e+06  -3.522846e+05
   1.784008e+06   1.546305e+05
   1.512346e+06   1.047034e+06
   1.643197e+05   1.744701e+06
  -1.313382e+06   1.728451e+06
  -1.831407e+06   9.102513e+05
  -1.160913e+06  -2.759640e+05
  -2.849397e+04  -1.040969e+06
   5.821427e+05  -8.215630e+05
   2.647151e+05   6.075926e+04
  -4.881731e+05   5.887160e+05
  -8.028318e+05   1.969517e+05
  -3.615438e+05  -5.046612e+05
   2.601639e+05  -5.356882e+05
   3.053955e+05   1.121580e+05
  -2.592427e+05   4.509463e+05
  -7.528286e+05  -1.681379e+05
  -5.827116e+05  -1.194014e+06
   2.071219e+05  -1.558205e+06
   1.107329e+06  -8.714473e+05
   1.564739e+06   3.071836e+05
   1.262025e+06   1.143898e+06
   3.400517e+05   1.210572e+06
  -5.478676e+05   6.743357e+05
  -7.214037e+05   9.695829e+04
  -2.166551e+05  -1.701803e+04
   1.845197e+05   3.128781e+05
  -1.122704e+05   5.557970e+05
  -7.506176e+05   2.884368e+05
  -8.768253e+05  -2.800216e+05
  -2.424546e+05  -5.673527e+05
   4.716212e+05  -3.209589e+05
   4.679135e+05   1.378180e+05
  -2.698852e+05   3.254246e+05
  -9.848940e+05   5.175789e+04
  -9.209132e+05  -5.015059e+05
  -3.449863e+04  -9.321517e+05
   9.583811e+05  -8.478248e+05
   1.214031e+06  -2.046395e+05
   5.491004e+05   5.031968e+05
  -3.573998e+05   6.283025e+05
  -6.297301e+05   9.321503e+04
  -8.330790e+04  -4.492791e+05
   6.330737e+05  -3.519459e+05
   7.734662e+05   2.673490e+05
   2.452325e+05   7.024064e+05
  -3.987773e+05   5.115795e+05
  -5.731429e+05  -2.696099e+04
  -1.920027e+05  -3.100799e+05
   2.980827e+05  -7.046489e+04
   3.352632e+05   4.094704e+05
  -2.137462e+05   6.139374e+05
  -8.514481e+05   2.667631e+05
  -8.939521e+05  -4.148342e+05
  -2.122485e+05  -8.821454e+05
   5.711326e+05  -7.431506e+05
   7.440915e+05  -1.460674e+05
   2.706143e+05   3.640404e+05
  -2.520463e+05   3.948885e+05
  -3.219942e+05   6.268742e+04
  -1.934144e+04  -2.127046e+05
   2.265391e+05  -1.849148e+05
   1.545902e+05   4.407326e+03
  -1.128635e+05   3.993944e+04
  -2.378000e+05  -1.996483e+05
   1.934214e+04  -4.816998e+05
   5.479584e+05  -4.198059e+05
   8.989217e+05   1.203744e+05
   6.695610e+05   8.006444e+05
  -4.270098e+04   1.068648e+06
  -6.751556e+05   6.965816e+05
  -7.781999e+05   2.068263e+04
  -4.651304e+05  -4.103668e+05
  -1.864570e+05  -3.845109e+05
  -1.619526e+05  -1.621919e+05
  -1.981275e+05  -1.066986e+05
  -2.799945e+04  -2.765363e+05
   3.353208e+05  -4.006832e+05
   6.097374e+05  -1.995073e+05
   5.031859e+05   2.883287e+05
  -3.658967e+04   6.727681e+05
  -7.096701e+05   5.348902e+05
  -9.973117e+05  -1.417068e+05
  -5.725497e+05  -8.624822e+05
   3.270020e+05  -1.035103e+06
   1.032693e+06  -5.379763e+05
   1.055323e+06   1.717629e+05
   5.272624e+05   5.455673e+05
  -1.181118e+04   4.765644e+05
  -1.940773e+05   3.009946e+05
  -1.077196e+05   3.372117e+05
  -7.244710e+04   5.251877e+05
  -2.581173e+05   5.317225e+05
  -5.304339e+05   1.481326e+05
  -5.933543e+05  -4.486580e+05
  -2.781919e+05  -8.173144e+05
   2.466552e+05  -6.429728e+05
   5.645850e+05  -4.375917e+04
   3.946124e+05   5.083689e+05
  -9.550953e+04   6.035147e+05
  -4.356121e+05   2.463139e+05
  -3.458761e+05  -2.042459e+05
  -1.830142e+04  -4.135278e+05
   1.409170e+05  -3.493109e+05
  -5.529836e+03  -2.091009e+05
  -1.786590e+05  -1.560756e+05
  -2.154986e+04  -1.698722e+05
   4.639862e+05  -1.155265e+05
   8.570567e+05   9.278672e+04
   7.174513e+05   3.882679e+05
   5.781005e+04   5.808697e+05
  -6.127913e+05   5.064282e+05
  -7.679230e+05   1.905835e+05
  -3.821898e+05  -1.338343e+05
   8.266623e+04  -2.191595e+05
   1.999612e+05  -4.543117e+04
  -8.801542e+03   1.474765e+05
  -2.134563e+05   1.075881e+05
  -2.065456e+05  -1.463018e+05
  -7.643785e+04  -3.300847e+05
  -8.174406e+03  -2.172184e+05
  -5.735830e+04   7.138335e+04
  -1.376097e+05   1.745583e+05
  -1.232536e+05  -8.268149e+04
   6.291938e+04  -4.396875e+05
   3.606264e+05  -4.665675e+05
   5.317247e+05  -6.675262e+04
   3.333812e+05   3.867344e+05
  -1.633392e+05   4.586667e+05
  -5.149566e+05   1.206791e+05
  -3.233563e+05  -2.523142e+05
   2.821176e+05  -3.012366e+05
   7.089302e+05  -1.338044e+04
   5.089601e+05   3.364348e+05
  -1.448995e+05   4.677344e+05
  -6.455114e+05   3.001313e+05
  -5.750796e+05  -1.949043e+04
  -9.361320e+04  -2.285189e+05
   2.692814e+05  -1.533937e+05
   1.594656e+05   1.065574e+05
  -2.660874e+05   2.220622e+05
  -5.184585e+05  -4.352192e+04
  -2.791939e+05  -5.256880e+05
   2.767173e+05  -7.463559e+05
   6.624066e+05  -3.871704e+05
   5.643886e+05   3.290825e+05
   1.144360e+05   7.951185e+05
  -3.000531e+05   6.048101e+05
  -4.131047e+05  -3.199134e+04
  -2.402525e+05  -5.063404e+05
   3.596784e+04  -4.448670e+05
   2.296719e+05  -6.312380e+04
   2.398086e+05   1.572013e+05
   1.069677e+05   6.100645e+04
   7.920657e+03  -5.143884e+04
   8.430767e+04   1.098635e+05
   2.269092e+05   4.099885e+05
   1.419309e+05   4.746223e+05
  -2.662195e+05   1.888682e+05
  -6.654110e+05  -1.784155e+05
  -6.123653e+05  -3.405243e+05
  -9.613254e+04  -2.955323e+05
   3.980155e+05  -1.998040e+05
   4.388779e+05  -1.104916e+05
   1.322866e+05   3.667465e+03
  -7.302870e+04   1.018687e+05
   2.209701e+04   1.029776e+05
   1.557132e+05   4.854120e+04
   1.201499e+04   5.931432e+04
  -3.254868e+05   1.069637e+05
  -4.572420e+05   2.153443e+03
  -1.492850e+05  -2.991212e+05
   3.883083e+05  -5.162732e+05
   7.164820e+05  -3.300505e+05
   5.867412e+05   1.950151e+05
   1.291263e+05   6.219289e+05
  -3.075990e+05   6.021030e+05
  -4.536249e+05   2.291363e+05
  -2.986057e+05  -1.081496e+05
  -5.071082e+04  -1.552431e+05
   6.140645e+04  -1.489824e+04
  -2.040697e+04   2.961207e+04
  -1.520017e+05  -1.430681e+05
  -1.368392e+05  -3.482649e+05
   7.426418e+04  -2.968104e+05
   3.120912e+05   6.169228e+04
   3.255351e+05   4.318394e+05
   3.071866e+04   4.555494e+05
  -3.528954e+05   9.319419e+04
  -4.607985e+05  -3.325916e+05
  -1.478323e+05  -4.758791e+05
   3.124852e+05  -2.853295e+05
   4.778592e+05   2.768196e+04
   2.212000e+05   2.411886e+05
  -1.168945e+05   2.725111e+05
  -1.348009e+05   1.575789e+05
   1.390855e+05   8.543058e+03
   2.922000e+05  -2.283403e+04
   5.756487e+04   1.292322e+05
  -3.526169e+05   3.148318e+05
  -5.185541e+05   2.737233e+05
  -3.063555e+05  -4.969410e+04
   3.425542e+04  -3.736138e+05
   2.079403e+05  -3.688827e+05
   1.598853e+05  -5.182159e+04
   1.702659e+04   2.239596e+05
  -1.068076e+05   1.799071e+05
  -1.622950e+05  -8.470271e+04
  -1.160082e+05  -2.517737e+05
   2.769527e+04  -1.668626e+05
   1.737254e+05   2.509248e+04
   2.019813e+05   1.008030e+05
   1.050972e+05   2.379942e+04
  -1.761468e+03  -4.783820e+04
  -2.989263e+04   2.258018e+04
  -2.149595e+04   1.773882e+05
  -6.809208e+04   2.238663e+05
  -1.610960e+05   5.768871e+04
  -1.788996e+05  -1.960257e+05
  -3.424813e+04  -2.941383e+05
   1.898382e+05  -1.335234e+05
   2.817886e+05   1.329650e+05
   1.084120e+05   2.603008e+05
  -2.108696e+05   1.625725e+05
  -3.762035e+05  -3.431759e+04
  -2.089540e+05  -1.612522e+05
   1.269159e+05  -1.621364e+05
   2.760269e+05  -8.556340e+04
   9.181627e+04  -3.443296e+03
  -1.825057e+05   2.070782e+04
  -1.967085e+05  -4.812966e+04
   8.899477e+04  -1.516430e+05
   3.603712e+05  -1.355732e+05
