
 $NMID
 id='ANONYMOUS ', fmtdat='(2E16.6)'
 volume=1.0
 tramp=1.0
 $END
   3.468402e+07  -1.423915e+05
   2.267196e+07   1.901666e+07
  -2.023819e+06   2.321476e+07
  -1.652828e+07   1.213777e+07
  -1.203089e+07  -1.593612e+06
   6.280660e+05  -6.318892e+06
   6.987398e+06  -1.167354e+06
   3.643784e+06   6.170132e+06
  -3.077210e+06   7.980150e+06
  -6.565151e+06   2.772232e+06
  -4.950680e+06  -4.305064e+06
  -4.241499e+05  -6.366825e+06
   2.917081e+06  -1.519665e+06
   1.919397e+06   4.866172e+06
  -2.481136e+06   5.686936e+06
  -5.532212e+06  -1.326844e+05
  -3.545261e+06  -6.739923e+06
   2.053079e+06  -8.097657e+06
   6.489144e+06  -3.880236e+06
   6.651349e+06   1.639521e+06
   3.449337e+06   4.617707e+06
   1.177952e+05   4.463402e+06
  -7.679537e+05   3.049021e+06
   6.696599e+05   2.535695e+06
   1.598115e+06   3.472256e+06
  -7.347935e+05   4.212296e+06
  -5.325347e+06   2.674242e+06
  -7.599099e+06  -8.765804e+05
  -4.590855e+06  -3.610529e+06
   1.001562e+06  -3.280329e+06
   3.670766e+06  -7.328884e+05
   1.490406e+06   1.369570e+06
  -2.208311e+06   1.404966e+06
  -3.407752e+06  -3.588961e+05
  -1.650045e+06  -2.621783e+06
   7.301488e+05  -3.652713e+06
   1.770667e+06  -2.169089e+06
   1.239007e+06   8.548382e+05
   7.964370e+04   2.188342e+06
  -3.553452e+05   5.736288e+04
   6.967861e+05  -2.785049e+06
   2.236152e+06  -2.064501e+06
   2.029313e+06   1.969409e+06
  -6.747451e+05   4.179726e+06
  -3.497468e+06   1.205658e+06
  -3.165613e+06  -3.859349e+06
   6.729924e+05  -5.273821e+06
   4.742148e+06  -1.608823e+06
   5.365868e+06   3.161722e+06
   1.945864e+06   4.726986e+06
  -2.639128e+06   2.562784e+06
  -4.617194e+06  -7.777223e+05
  -2.556749e+06  -2.591805e+06
   1.336672e+06  -1.880875e+06
   3.258321e+06   2.982408e+05
   1.670528e+06   1.711525e+06
  -1.079206e+06   1.006233e+06
  -1.605121e+06  -7.488335e+05
   4.164268e+05  -1.258923e+06
   2.020429e+06   1.596065e+05
   8.152483e+05   1.794647e+06
  -2.098406e+06   1.739616e+06
  -3.577364e+06  -8.335801e+04
  -1.950757e+06  -2.357045e+06
   1.575597e+06  -3.735803e+06
   4.422122e+06  -3.282609e+06
   4.817556e+06  -7.217589e+05
   2.872192e+06   2.750709e+06
   2.574470e+05   4.739158e+06
  -1.209834e+06   3.937896e+06
  -1.146417e+06   1.760274e+06
  -7.702548e+05   6.098194e+05
  -1.271449e+06   8.387330e+05
  -2.300076e+06   6.567443e+05
  -2.479505e+06  -9.494254e+05
  -1.167273e+06  -2.559052e+06
   8.024951e+05  -2.168839e+06
   1.990981e+06   1.918775e+05
   1.519880e+06   2.458928e+06
  -4.102635e+05   2.730142e+06
  -2.550746e+06   9.067563e+05
  -3.270998e+06  -1.549938e+06
  -1.935720e+06  -2.976589e+06
   2.569154e+05  -2.763749e+06
   1.454920e+06  -1.674397e+06
   1.332545e+06  -9.278664e+05
   1.371525e+06  -8.458978e+05
   2.608112e+06  -5.834348e+05
   3.868856e+06   6.785872e+05
   3.066655e+06   2.569627e+06
  -4.831417e+04   3.798476e+06
  -3.255089e+06   3.377562e+06
  -4.094281e+06   1.430203e+06
  -2.263840e+06  -8.956035e+05
   3.055338e+05  -2.114994e+06
   1.399995e+06  -1.475841e+06
   4.495750e+05   1.945368e+05
  -1.184275e+06   1.055506e+06
  -1.678824e+06   2.272755e+05
  -6.082534e+05  -1.062960e+06
   6.753489e+05  -9.873533e+05
   6.204112e+05   3.914224e+05
  -7.321656e+05   1.033951e+06
  -1.813787e+06  -4.380774e+05
  -1.266773e+06  -2.824571e+06
   7.319824e+05  -3.642172e+06
   2.801081e+06  -1.891453e+06
   3.562952e+06   1.032052e+06
   2.533407e+06   2.932044e+06
   3.930314e+05   2.790978e+06
  -1.365610e+06   1.309111e+06
  -1.549059e+06   1.659196e+04
  -4.591899e+05  -7.407892e+04
   3.037286e+05   7.167210e+05
  -3.504010e+05   1.151118e+06
  -1.628762e+06   4.589191e+05
  -1.798311e+06  -7.584157e+05
  -3.960761e+05  -1.233793e+06
   1.092574e+06  -5.339471e+05
   9.520928e+05   4.846922e+05
  -7.691375e+05   6.946495e+05
  -2.282112e+06  -1.737286e+05
  -1.919476e+06  -1.436841e+06
   2.110619e+05  -2.114032e+06
   2.336480e+06  -1.605766e+06
   2.670772e+06  -1.499709e+05
   1.068676e+06   1.167357e+06
  -8.539906e+05   1.231591e+06
  -1.303907e+06   8.874305e+04
  -5.923848e+04  -9.180846e+05
   1.421630e+06  -5.799044e+05
   1.597972e+06   7.539583e+05
   3.737621e+05   1.581875e+06
  -9.888449e+05   1.030480e+06
  -1.246310e+06  -1.910817e+05
  -3.351128e+05  -7.164565e+05
   6.682576e+05  -5.619519e+04
   5.987125e+05   9.940377e+05
  -6.525256e+05   1.265530e+06
  -1.914030e+06   3.370510e+05
  -1.812633e+06  -1.121599e+06
  -2.446387e+05  -1.941247e+06
   1.386529e+06  -1.468402e+06
   1.620270e+06  -1.627397e+05
   4.907106e+05   8.253340e+05
  -6.389210e+05   7.652299e+05
  -6.832760e+05   1.013693e+04
   9.121584e+04  -4.995010e+05
   6.285289e+05  -3.006265e+05
   3.497208e+05   1.618586e+05
  -3.348259e+05   1.433349e+05
  -5.602793e+05  -5.025020e+05
   1.294948e+05  -1.099954e+06
   1.309734e+06  -8.088277e+05
   1.937015e+06   4.814844e+05
   1.260378e+06   1.898295e+06
  -3.537736e+05   2.300545e+06
  -1.649330e+06   1.347919e+06
  -1.720822e+06  -1.530560e+05
  -9.074478e+05  -1.039149e+06
  -2.596835e+05  -9.063615e+05
  -2.660387e+05  -3.664723e+05
  -4.222343e+05  -2.349601e+05
  -4.166113e+04  -6.122228e+05
   8.302648e+05  -8.409405e+05
   1.435927e+06  -3.065057e+05
   1.064812e+06   7.972505e+05
  -2.689504e+05   1.518838e+06
  -1.723836e+06   1.011461e+06
  -2.158470e+06  -5.691191e+05
  -1.038252e+06  -2.038913e+06
   9.604611e+05  -2.194336e+06
   2.384633e+06  -9.403787e+05
   2.277095e+06   6.341957e+05
   1.019543e+06   1.355289e+06
  -1.806539e+05   1.068043e+06
  -5.456849e+05   5.855843e+05
  -3.250015e+05   6.421556e+05
  -2.502269e+05   1.075019e+06
  -6.514152e+05   1.086767e+06
  -1.166396e+06   2.068363e+05
  -1.164670e+06  -1.106729e+06
  -3.937309e+05  -1.828102e+06
   6.929983e+05  -1.317140e+06
   1.235004e+06   5.418296e+04
   7.430271e+05   1.206530e+06
  -3.473945e+05   1.308016e+06
  -1.031150e+06   4.614698e+05
  -7.516672e+05  -5.176024e+05
   2.836053e+04  -9.331417e+05
   3.955301e+05  -7.656000e+05
   5.352684e+04  -4.685251e+05
  -3.507487e+05  -3.721132e+05
  -1.046190e+04  -3.758999e+05
   1.045428e+06  -1.640938e+05
   1.857180e+06   3.846863e+05
   1.477536e+06   1.018861e+06
  -4.247879e+03   1.299746e+06
  -1.443960e+06   9.756872e+05
  -1.721012e+06   2.361554e+05
  -8.253435e+05  -3.914306e+05
   2.134732e+05  -4.714687e+05
   4.617170e+05  -6.395441e+04
  -1.946022e+04   3.104940e+05
  -4.717038e+05   1.832341e+05
  -4.172571e+05  -3.518686e+05
  -9.050538e+04  -7.045494e+05
   3.217436e+04  -4.445850e+05
  -1.619192e+05   1.460730e+05
  -3.759642e+05   3.263313e+05
  -2.676010e+05  -2.290694e+05
   2.493317e+05  -9.461653e+05
   9.058177e+05  -9.358724e+05
   1.169279e+06  -4.419819e+04
   6.347292e+05   8.944341e+05
  -4.418392e+05   9.608865e+05
  -1.122992e+06   1.629793e+05
  -6.360766e+05  -6.153467e+05
   6.841699e+05  -5.961027e+05
   1.554586e+06   1.441638e+05
   1.035122e+06   8.843983e+05
  -4.438847e+05   1.010540e+06
  -1.509422e+06   4.919989e+05
  -1.262870e+06  -2.063097e+05
  -1.402225e+05  -5.312157e+05
   6.330360e+05  -2.644403e+05
   3.231498e+05   2.657279e+05
  -6.213992e+05   4.025697e+05
  -1.091987e+06  -2.197758e+05
  -4.680299e+05  -1.179968e+06
   7.613335e+05  -1.519312e+06
   1.500669e+06  -6.702447e+05
   1.132284e+06   8.381614e+05
   5.613037e+04   1.740270e+06
  -8.065513e+05   1.235510e+06
  -9.040487e+05  -1.763705e+05
  -3.961988e+05  -1.174936e+06
   2.083551e+05  -9.751464e+05
   5.284216e+05  -8.199768e+04
   4.733023e+05   4.189364e+05
   2.038107e+05   1.777857e+05
   3.423272e+04  -1.131439e+05
   1.710349e+05   2.361504e+05
   3.951861e+05   9.313383e+05
   1.814972e+05   1.077402e+06
  -6.288685e+05   3.659538e+05
  -1.392108e+06  -5.484314e+05
  -1.238632e+06  -9.036109e+05
  -1.429068e+05  -6.679904e+05
   9.021400e+05  -3.213902e+05
   9.820354e+05  -1.256493e+05
   3.005204e+05   2.595267e+04
  -1.760108e+05   1.934456e+05
   1.248226e+04   2.469505e+05
   3.100457e+05   1.677811e+05
   9.305375e+03   1.274504e+05
  -7.189508e+05   1.301694e+05
  -9.818415e+05  -1.041300e+05
  -2.598120e+05  -6.494273e+05
   9.426256e+05  -1.000296e+06
   1.609419e+06  -5.596520e+05
   1.212960e+06   5.281871e+05
   1.299788e+05   1.363543e+06
  -8.028545e+05   1.236468e+06
  -1.023065e+06   3.896122e+05
  -6.070510e+05  -3.102155e+05
  -7.172242e+04  -3.412784e+05
   1.213332e+05  -2.187047e+02
  -6.867996e+04   6.390514e+04
  -2.982968e+05  -3.592357e+05
  -2.058758e+05  -7.944737e+05
   2.293028e+05  -6.150805e+05
   6.404891e+05   2.137669e+05
   5.820479e+05   9.923762e+05
  -3.609992e+04   9.618824e+05
  -7.564973e+05   1.069033e+05
  -8.945872e+05  -8.131451e+05
  -2.109012e+05  -1.045909e+06
   7.242698e+05  -5.418659e+05
   1.021019e+06   1.616296e+05
   4.366468e+05   5.664663e+05
  -3.010978e+05   5.668058e+05
  -3.307271e+05   3.233418e+05
   2.859646e+05   6.513831e+04
   6.330264e+05   2.326414e+04
   1.002184e+05   2.866465e+05
  -8.363759e+05   5.938850e+05
  -1.199438e+06   4.799086e+05
  -6.672094e+05  -1.624121e+05
   1.533128e+05  -7.951823e+05
   5.301089e+05  -7.645318e+05
   3.474950e+05  -9.762239e+04
  -2.069095e+04   4.744309e+05
  -2.610429e+05   3.624194e+05
  -3.128586e+05  -2.171082e+05
  -1.908754e+05  -5.669044e+05
   8.178802e+04  -3.517829e+05
   3.598053e+05   9.265618e+04
   4.237970e+05   2.607739e+05
   2.319030e+05   7.732066e+04
  -7.317607e+03  -9.795617e+04
  -9.807094e+04   3.567834e+04
  -9.438605e+04   3.494905e+05
  -1.719202e+05   4.347813e+05
  -3.247533e+05   8.246363e+04
  -3.229595e+05  -4.351146e+05
  -9.211590e+03  -6.092307e+05
   4.295066e+05  -2.364362e+05
   5.671851e+05   3.382087e+05
   1.672614e+05   5.763991e+05
  -4.915701e+05   3.068603e+05
  -7.963659e+05  -1.506841e+05
  -4.119282e+05  -3.909063e+05
   2.976458e+05  -3.207716e+05
   5.969166e+05  -1.271192e+05
   1.974201e+05  -2.235062e+03
  -3.774824e+05  -1.696725e+04
  -3.879995e+05  -1.530004e+05
   2.359395e+05  -2.848329e+05
   7.994973e+05  -1.797349e+05
