
 $NMID
 id='ANONYMOUS ', fmtdat='(2E16.6)'
 volume=1.0
 tramp=1.0
 $END
   2.791299e+07  -2.318438e+05
   1.851769e+07   1.334731e+07
  -2.550659e+05   1.775149e+07
  -1.204808e+07   1.140062e+07
  -9.881043e+06   8.600569e+05
  -4.838986e+05  -4.958527e+06
   5.525743e+06  -2.323767e+06
   4.072032e+06   4.426667e+06
  -1.334575e+06   7.436983e+06
  -5.136238e+06   3.305715e+06
  -4.515893e+06  -3.522544e+06
  -6.586558e+05  -5.752881e+06
   2.654539e+06  -1.287661e+06
   2.206472e+06   4.661711e+06
  -1.550334e+06   5.558799e+06
  -4.620048e+06   5.041839e+05
  -3.465022e+06  -5.426839e+06
   1.227161e+06  -6.914279e+06
   5.306000e+06  -3.362662e+06
   5.491151e+06   1.526701e+06
   2.441729e+06   3.930220e+06
  -3.496778e+05   3.220840e+06
  -2.625965e+05   1.753932e+06
   1.834309e+06   1.954194e+06
   2.490067e+06   3.702552e+06
  -5.610730e+05   4.598205e+06
  -5.415774e+06   2.781977e+06
  -7.424319e+06  -8.289621e+05
  -4.188238e+06  -3.415981e+06
   1.391568e+06  -3.102865e+06
   3.994318e+06  -5.627073e+05
   1.623460e+06   1.879060e+06
  -2.535436e+06   2.182084e+06
  -4.076933e+06  -1.218823e+04
  -2.061476e+06  -2.987963e+06
   8.307705e+05  -4.008314e+06
   1.860021e+06  -1.854519e+06
   8.388038e+05   1.366421e+06
  -4.901469e+05   2.047791e+06
  -5.800963e+05  -6.207040e+05
   6.578737e+05  -3.245139e+06
   1.997599e+06  -2.257214e+06
   1.930547e+06   1.418248e+06
   4.521423e+04   3.329200e+06
  -2.197328e+06   1.046111e+06
  -2.430248e+06  -2.878340e+06
   2.536253e+05  -4.101546e+06
   3.877946e+06  -1.419612e+06
   5.064991e+06   2.432227e+06
   2.346195e+06   4.112304e+06
  -2.113555e+06   2.724014e+06
  -4.434662e+06  -8.917519e+04
  -2.800006e+06  -1.989946e+06
   8.156453e+05  -1.761658e+06
   2.798465e+06  -6.705176e+04
   1.623784e+06   1.243043e+06
  -8.246200e+05   9.080694e+05
  -1.627908e+06  -4.929698e+05
  -1.115628e+05  -1.270290e+06
   1.606550e+06  -5.439722e+05
   1.217832e+06   8.801592e+05
  -1.091792e+06   1.477041e+06
  -2.818600e+06   4.526310e+05
  -1.836578e+06  -1.681475e+06
   1.369707e+06  -3.439070e+06
   4.213045e+06  -3.247003e+06
   4.556410e+06  -7.099696e+05
   2.604894e+06   2.648307e+06
   3.327504e+05   4.445849e+06
  -6.855631e+05   3.752280e+06
  -6.335556e+05   2.001829e+06
  -7.495769e+05   1.133683e+06
  -1.667939e+06   1.219103e+06
  -2.725119e+06   6.989301e+05
  -2.761280e+06  -1.137045e+06
  -1.331323e+06  -2.846574e+06
   8.286109e+05  -2.476482e+06
   2.276303e+06   5.002300e+02
   1.869362e+06   2.476940e+06
  -2.635231e+05   2.840058e+06
  -2.558740e+06   9.382271e+05
  -3.182633e+06  -1.536259e+06
  -1.744559e+06  -2.780857e+06
   2.860391e+05  -2.390922e+06
   1.202576e+06  -1.366366e+06
   9.782230e+05  -8.596136e+05
   1.102829e+06  -9.938835e+05
   2.447530e+06  -8.823744e+05
   3.839001e+06   2.836028e+05
   3.252500e+06   2.253893e+06
   2.899742e+05   3.791334e+06
  -3.017663e+06   3.663531e+06
  -4.098813e+06   1.703154e+06
  -2.370630e+06  -8.740469e+05
   2.758020e+05  -2.261824e+06
   1.435776e+06  -1.574455e+06
   4.718188e+05   2.183853e+05
  -1.157184e+06   1.148053e+06
  -1.631203e+06   3.325812e+05
  -6.113487e+05  -1.017303e+06
   6.422917e+05  -1.073098e+06
   7.429414e+05   2.818619e+05
  -4.321728e+05   1.187715e+06
  -1.708683e+06   6.276128e+04
  -1.716797e+06  -2.359806e+06
  -5.097148e+04  -3.698626e+06
   2.338507e+06  -2.470156e+06
   3.755296e+06   4.141013e+05
   3.062859e+06   2.674520e+06
   7.595282e+05   2.863285e+06
  -1.301785e+06   1.470341e+06
  -1.604915e+06   1.287979e+05
  -4.698574e+05  -3.488818e+04
   3.695818e+05   6.882299e+05
  -2.305072e+05   1.130313e+06
  -1.521621e+06   5.664844e+05
  -1.807401e+06  -5.492370e+05
  -5.204744e+05  -1.133459e+06
   1.020116e+06  -6.452689e+05
   1.051820e+06   3.708863e+05
  -6.313160e+05   8.433100e+05
  -2.343102e+06   1.773952e+05
  -2.204350e+06  -1.213275e+06
  -9.036870e+04  -2.214529e+06
   2.192634e+06  -1.907573e+06
   2.681040e+06  -4.180924e+05
   1.156023e+06   1.047255e+06
  -7.464348e+05   1.244918e+06
  -1.240863e+06   1.625809e+05
  -8.893333e+04  -8.944745e+05
   1.368585e+06  -6.875181e+05
   1.664779e+06   5.814921e+05
   5.741377e+05   1.524001e+06
  -8.249655e+05   1.165090e+06
  -1.256622e+06   3.298363e+03
  -4.468517e+05  -6.402277e+05
   6.230222e+05  -1.107766e+05
   6.657261e+05   9.429634e+05
  -5.687388e+05   1.322711e+06
  -1.910696e+06   4.831069e+05
  -1.912182e+06  -9.874812e+05
  -4.099131e+05  -1.920198e+06
   1.241545e+06  -1.587143e+06
   1.594447e+06  -3.278378e+05
   5.872962e+05   7.608554e+05
  -5.524179e+05   8.364004e+05
  -7.223194e+05   8.235696e+04
  -8.101891e+03  -5.606947e+05
   6.301059e+05  -4.439894e+05
   4.765717e+05   1.077096e+05
  -2.351375e+05   2.417839e+05
  -6.104287e+05  -3.710977e+05
  -1.374184e+04  -1.084946e+06
   1.221690e+06  -9.362528e+05
   1.987408e+06   3.042635e+05
   1.430356e+06   1.797782e+06
  -1.486301e+05   2.364340e+06
  -1.531710e+06   1.557136e+06
  -1.782444e+06   5.645927e+04
  -1.100208e+06  -9.819709e+05
  -4.116780e+05  -9.920971e+05
  -2.716066e+05  -4.382986e+05
  -3.668372e+05  -2.029442e+05
  -6.737613e+04  -5.730910e+05
   7.353793e+05  -9.258786e+05
   1.420219e+06  -4.800504e+05
   1.202527e+06   7.019039e+05
  -7.852472e+04   1.601425e+06
  -1.638626e+06   1.218990e+06
  -2.247543e+06  -3.602128e+05
  -1.258613e+06  -1.938168e+06
   7.212604e+05  -2.272254e+06
   2.264550e+06  -1.183082e+06
   2.356569e+06   3.664669e+05
   1.229987e+06   1.239566e+06
  -1.408217e+04   1.144805e+06
  -5.210829e+05   7.238204e+05
  -3.637924e+05   7.058476e+05
  -2.241427e+05   1.069942e+06
  -5.629004e+05   1.106299e+06
  -1.135969e+06   2.863392e+05
  -1.262160e+06  -1.025760e+06
  -5.527811e+05  -1.817467e+06
   5.915338e+05  -1.394332e+06
   1.252354e+06  -6.856528e+04
   8.615510e+05   1.118776e+06
  -1.933025e+05   1.328553e+06
  -9.282591e+05   5.877090e+05
  -7.655239e+05  -3.794231e+05
  -9.025035e+04  -8.773760e+05
   2.583384e+05  -7.884141e+05
  -2.750146e+04  -4.939513e+05
  -3.806657e+05  -3.659848e+05
  -3.775435e+04  -3.890377e+05
   1.013405e+06  -2.569534e+05
   1.869295e+06   2.246082e+05
   1.570886e+06   8.746113e+05
   1.392057e+05   1.261904e+06
  -1.327351e+06   1.076563e+06
  -1.685064e+06   4.142790e+05
  -8.596697e+05  -2.582045e+05
   1.624540e+05  -4.586078e+05
   4.355142e+05  -1.222986e+05
  -2.428493e+04   2.888393e+05
  -4.836697e+05   2.243500e+05
  -4.463070e+05  -3.232840e+05
  -1.156614e+05  -7.346447e+05
   3.240490e+04  -4.719403e+05
  -1.436164e+05   1.933463e+05
  -3.691350e+05   4.126774e+05
  -2.966019e+05  -2.005486e+05
   1.847974e+05  -1.002055e+06
   8.357024e+05  -1.015703e+06
   1.140131e+06  -9.648447e+04
   6.699450e+05   8.720423e+05
  -3.802983e+05   9.698718e+05
  -1.110019e+06   2.088251e+05
  -6.960377e+05  -5.837800e+05
   6.248200e+05  -6.670256e+05
   1.594194e+06  -2.339958e+04
   1.177825e+06   7.679425e+05
  -3.025869e+05   1.079933e+06
  -1.470111e+06   6.971584e+05
  -1.322082e+06  -4.870886e+04
  -2.156658e+05  -5.261327e+05
   6.033005e+05  -3.421495e+05
   3.305553e+05   2.327285e+05
  -6.232905e+05   4.490322e+05
  -1.134368e+06  -1.621339e+05
  -5.438448e+05  -1.188354e+06
   6.940140e+05  -1.608578e+06
   1.498783e+06  -7.889824e+05
   1.226243e+06   7.702683e+05
   2.061941e+05   1.774981e+06
  -7.025861e+05   1.348756e+06
  -9.305739e+05  -6.952398e+04
  -5.325381e+05  -1.143191e+06
   8.117683e+04  -1.014439e+06
   5.122893e+05  -1.405349e+05
   5.468146e+05   3.792694e+05
   2.559970e+05   1.598759e+05
   9.576040e+03  -1.224712e+05
   1.436194e+05   2.223745e+05
   4.636622e+05   9.096954e+05
   3.176647e+05   1.070755e+06
  -5.632961e+05   4.166367e+05
  -1.469788e+06  -4.340931e+05
  -1.372297e+06  -7.959124e+05
  -2.048645e+05  -6.577401e+05
   9.203277e+05  -4.143526e+05
   9.939371e+05  -2.293410e+05
   2.754297e+05  -6.997688e+03
  -1.750512e+05   2.136677e+05
   7.644965e+04   2.529853e+05
   3.753495e+05   1.487067e+05
   6.446112e+03   1.373362e+05
  -7.664733e+05   1.955437e+05
  -1.007364e+06  -3.737807e+04
  -2.607698e+05  -6.560296e+05
   9.209003e+05  -1.088283e+06
   1.577260e+06  -6.641507e+05
   1.240412e+06   4.782304e+05
   2.325646e+05   1.389359e+06
  -7.104641e+05   1.307222e+06
  -1.018959e+06   4.545522e+05
  -6.572154e+05  -2.844234e+05
  -8.444703e+04  -3.475587e+05
   1.649080e+05  -1.938598e+03
  -4.193429e+04   9.060273e+04
  -3.453270e+05  -3.223774e+05
  -2.892468e+05  -7.846207e+05
   1.940199e+05  -6.396192e+05
   6.868289e+05   1.872340e+05
   6.613189e+05   9.963115e+05
  -7.464272e+02   9.950726e+05
  -7.979728e+05   1.446161e+05
  -9.783494e+05  -7.929326e+05
  -2.745431e+05  -1.055887e+06
   7.109320e+05  -5.859568e+05
   1.039177e+06   1.005133e+05
   4.591483e+05   5.262065e+05
  -2.726113e+05   5.677993e+05
  -2.849773e+05   3.353110e+05
   3.336055e+05   4.182286e+04
   6.569786e+05  -2.550615e+04
   1.112529e+05   2.823984e+05
  -8.015878e+05   6.761477e+05
  -1.144360e+06   5.971235e+05
  -6.493418e+05  -1.003700e+05
   1.006804e+05  -8.101680e+05
   4.560427e+05  -7.954229e+05
   3.241551e+05  -9.012801e+04
   5.592125e+03   5.052819e+05
  -2.505750e+05   3.750702e+05
  -3.501119e+05  -2.238845e+05
  -2.353354e+05  -5.651531e+05
   7.456504e+04  -3.418447e+05
   3.779607e+05   7.896449e+04
   4.333532e+05   2.161880e+05
   2.341258e+05   4.245156e+04
   9.208822e+03  -8.293744e+04
  -7.611828e+04   9.062040e+04
  -1.003459e+05   3.994082e+05
  -2.113965e+05   4.495620e+05
  -3.655307e+05   6.495880e+04
  -3.399431e+05  -4.689168e+05
  -8.043691e+03  -6.468887e+05
   4.399643e+05  -2.666878e+05
   5.933849e+05   3.278410e+05
   2.057802e+05   5.923032e+05
  -4.698484e+05   3.429582e+05
  -8.114840e+05  -1.118133e+05
  -4.418422e+05  -3.704639e+05
   2.876741e+05  -3.282048e+05
   6.020087e+05  -1.459716e+05
   1.801920e+05  -3.052808e+03
  -4.280979e+05   2.800245e+03
  -4.341046e+05  -1.525615e+05
   2.356971e+05  -3.395518e+05
   8.439841e+05  -2.632447e+05
