
 $NMID
 id='ANONYMOUS ', fmtdat='(2E16.6)'
 volume=1.0
 tramp=1.0
 $END
   5.452783e+07   1.824255e+06
   3.138192e+07   3.491701e+07
  -8.634230e+06   3.651295e+07
  -2.700515e+07   1.304404e+07
  -1.541293e+07  -7.380306e+06
   3.563834e+06  -8.791288e+06
   9.282616e+06   1.569319e+06
   2.252539e+06   9.406436e+06
  -6.202559e+06   8.637664e+06
  -9.258926e+06   1.558908e+06
  -6.560697e+06  -6.150011e+06
  -5.937256e+05  -8.284648e+06
   3.931800e+06  -2.572882e+06
   2.456763e+06   5.225392e+06
  -3.731883e+06   6.114264e+06
  -7.484886e+06  -1.548684e+06
  -3.949371e+06  -9.935966e+06
   4.000489e+06  -1.122381e+07
   9.935452e+06  -5.398564e+06
   1.042676e+07   2.301768e+06
   6.222242e+06   7.500798e+06
   3.629408e+05   8.480202e+06
  -3.130059e+06   5.751060e+06
  -1.951132e+06   2.367109e+06
   1.084464e+06   1.909574e+06
   2.911978e+05   3.996372e+06
  -5.231056e+06   4.226926e+06
  -9.337516e+06   3.746739e+05
  -6.749378e+06  -4.127107e+06
  -1.780854e+05  -4.979139e+06
   3.644551e+06  -2.529675e+06
   2.495004e+06  -3.059288e+04
  -4.329227e+05   9.604421e+05
  -2.131604e+06   5.885004e+05
  -2.182096e+06  -1.315076e+06
  -7.146923e+05  -3.824196e+06
   1.833505e+06  -3.736042e+06
   3.233036e+06   1.982348e+05
   1.607085e+06   3.644491e+06
  -8.969550e+05   1.908183e+06
  -4.047097e+05  -2.367613e+06
   2.362058e+06  -2.161095e+06
   2.235021e+06   3.134834e+06
  -2.571504e+06   5.780177e+06
  -6.772900e+06   6.716168e+05
  -4.708986e+06  -6.894483e+06
   2.152626e+06  -8.160785e+06
   7.248436e+06  -2.109746e+06
   6.548004e+06   4.428968e+06
   1.611415e+06   5.780939e+06
  -3.361969e+06   2.491768e+06
  -4.946901e+06  -1.565286e+06
  -2.198784e+06  -3.357176e+06
   2.385896e+06  -2.007018e+06
   4.307564e+06   1.025017e+06
   1.773982e+06   2.664020e+06
  -1.695614e+06   1.263592e+06
  -1.626948e+06  -1.007949e+06
   1.288904e+06  -7.783861e+05
   2.252001e+06   1.801102e+06
  -8.003408e+05   3.253188e+06
  -4.549000e+06   1.611216e+06
  -5.021029e+06  -1.505387e+06
  -2.079983e+06  -3.894249e+06
   1.850290e+06  -5.042663e+06
   4.900348e+06  -4.604879e+06
   6.016538e+06  -1.586857e+06
   4.391223e+06   3.149702e+06
   8.036789e+05   5.973906e+06
  -1.884459e+06   4.506357e+06
  -1.677365e+06   1.069735e+06
  -5.914156e+04  -2.521655e+05
   9.258400e+04   1.023722e+06
  -1.561591e+06   1.803420e+06
  -2.768353e+06   2.636581e+05
  -2.008716e+06  -1.860964e+06
  -6.574129e+04  -2.090738e+06
   1.476011e+06  -2.412299e+05
   1.617335e+06   1.967105e+06
  -1.493623e+03   2.825580e+06
  -2.696168e+06   1.585655e+06
  -4.329589e+06  -1.211178e+06
  -3.058732e+06  -3.714165e+06
   1.426888e+05  -4.110744e+06
   2.292925e+06  -2.572382e+06
   2.193112e+06  -1.018491e+06
   1.761969e+06  -5.954850e+05
   2.811559e+06  -4.065105e+05
   4.150716e+06   7.907406e+05
   3.306198e+06   2.694408e+06
   8.267557e+04   3.958204e+06
  -3.109665e+06   3.722742e+06
  -4.035864e+06   2.027165e+06
  -2.581714e+06  -4.135316e+05
  -2.778685e+05  -2.174917e+06
   1.070992e+06  -1.883527e+06
   5.546852e+05   3.495063e+04
  -1.056449e+06   1.262605e+06
  -1.846988e+06   3.614464e+05
  -8.813087e+05  -1.185921e+06
   4.994140e+05  -1.076272e+06
   3.907538e+05   3.630695e+05
  -1.025455e+06   6.086046e+05
  -1.705710e+06  -1.308003e+06
  -4.945543e+05  -3.333459e+06
   1.596080e+06  -3.158678e+06
   2.974662e+06  -9.481056e+05
   3.087614e+06   1.421773e+06
   2.127474e+06   2.618821e+06
   4.217772e+05   2.477948e+06
  -1.195384e+06   1.402464e+06
  -1.520907e+06   2.172987e+05
  -4.738389e+05  -4.854813e+04
   3.360877e+05   7.277910e+05
  -4.266542e+05   1.287925e+06
  -1.858572e+06   5.245656e+05
  -1.943621e+06  -8.964666e+05
  -3.384743e+05  -1.372869e+06
   1.135260e+06  -5.296482e+05
   8.380980e+05   4.393330e+05
  -8.141534e+05   4.637059e+05
  -2.056445e+06  -3.414266e+05
  -1.632578e+06  -1.297111e+06
   2.576829e+05  -1.858870e+06
   2.221493e+06  -1.554298e+06
   2.665825e+06  -2.324402e+05
   1.154450e+06   1.241167e+06
  -9.180832e+05   1.445599e+06
  -1.523209e+06   1.570577e+05
  -1.838019e+05  -1.059014e+06
   1.475967e+06  -6.950342e+05
   1.640622e+06   7.789150e+05
   2.908295e+05   1.586970e+06
  -1.064297e+06   9.043649e+05
  -1.189508e+06  -3.304441e+05
  -2.088824e+05  -7.521575e+05
   7.762555e+05  -3.401879e+04
   7.020271e+05   1.030135e+06
  -5.682412e+05   1.374866e+06
  -1.945848e+06   5.106338e+05
  -1.959135e+06  -1.033207e+06
  -3.471000e+05  -2.008863e+06
   1.413296e+06  -1.565449e+06
   1.665586e+06  -1.754381e+05
   4.651956e+05   8.424249e+05
  -6.450267e+05   7.604775e+05
  -6.031209e+05   7.460377e+04
   1.140778e+05  -3.238805e+05
   4.498281e+05  -1.882795e+05
   9.343331e+04   3.969320e+04
  -4.278574e+05  -1.131172e+05
  -4.691353e+05  -6.667532e+05
   2.286441e+05  -1.135331e+06
   1.344895e+06  -8.407026e+05
   2.001253e+06   4.240428e+05
   1.393171e+06   1.891169e+06
  -2.299314e+05   2.328240e+06
  -1.559125e+06   1.333553e+06
  -1.606173e+06  -1.394579e+05
  -8.058429e+05  -8.458072e+05
  -3.143608e+05  -5.966797e+05
  -4.865745e+05  -2.087737e+05
  -6.148905e+05  -3.286360e+05
  -7.375365e+04  -7.517059e+05
   8.572713e+05  -8.510188e+05
   1.387264e+06  -2.900532e+05
   9.916351e+05   6.927825e+05
  -2.539375e+05   1.380418e+06
  -1.659536e+06   1.005046e+06
  -2.151748e+06  -4.870078e+05
  -1.059036e+06  -2.031413e+06
   1.012937e+06  -2.260034e+06
   2.464266e+06  -9.490454e+05
   2.239108e+06   6.704954e+05
   8.835023e+05   1.284262e+06
  -2.070847e+05   8.804191e+05
  -3.533592e+05   4.790099e+05
  -5.851299e+04   7.450159e+05
  -1.101742e+05   1.283072e+06
  -6.708439e+05   1.244402e+06
  -1.260652e+06   2.934899e+05
  -1.284553e+06  -1.054180e+06
  -5.225748e+05  -1.831249e+06
   6.096842e+05  -1.381154e+06
   1.234814e+06   1.630561e+04
   7.606610e+05   1.249145e+06
  -4.032740e+05   1.334310e+06
  -1.128912e+06   3.543816e+05
  -7.610588e+05  -7.044838e+05
   1.540501e+05  -1.037629e+06
   5.432880e+05  -7.319365e+05
   8.885047e+04  -3.859098e+05
  -4.218400e+05  -3.251126e+05
  -5.842478e+04  -3.696204e+05
   1.114522e+06  -1.844097e+05
   1.992970e+06   3.499586e+05
   1.544667e+06   1.021263e+06
  -6.935405e+04   1.384363e+06
  -1.560761e+06   1.079753e+06
  -1.767256e+06   2.374262e+05
  -7.824402e+05  -4.990426e+05
   2.693094e+05  -5.502304e+05
   4.937330e+05  -1.725600e+04
   2.512243e+04   4.210514e+05
  -4.246783e+05   2.530240e+05
  -4.644125e+05  -3.342017e+05
  -2.566915e+05  -7.030782e+05
  -1.040123e+05  -4.696855e+05
  -1.254599e+05   8.065982e+04
  -2.523151e+05   2.730670e+05
  -2.596712e+05  -2.262235e+05
   1.328826e+05  -9.486941e+05
   8.771204e+05  -1.023805e+06
   1.338993e+06  -1.600563e+05
   8.348837e+05   8.970338e+05
  -4.160011e+05   1.111342e+06
  -1.234717e+06   3.275804e+05
  -7.093833e+05  -5.530664e+05
   6.844223e+05  -6.140933e+05
   1.517438e+06   1.108192e+05
   9.364694e+05   8.330476e+05
  -4.848178e+05   9.257746e+05
  -1.430774e+06   4.259556e+05
  -1.163376e+06  -1.995124e+05
  -1.176390e+05  -4.874979e+05
   6.262268e+05  -2.442549e+05
   3.721516e+05   2.952928e+05
  -5.620283e+05   5.148525e+05
  -1.149976e+06  -6.884661e+04
  -6.658110e+05  -1.142582e+06
   5.555710e+05  -1.659399e+06
   1.429966e+06  -8.697862e+05
   1.214334e+06   7.268764e+05
   1.947740e+05   1.725208e+06
  -7.138301e+05   1.233345e+06
  -8.813999e+05  -1.872918e+05
  -3.939647e+05  -1.147206e+06
   2.322602e+05  -9.138668e+05
   5.452857e+05  -6.732721e+04
   4.336343e+05   3.566243e+05
   1.417519e+05   1.212663e+05
   5.203012e+04  -8.381669e+04
   2.896744e+05   3.070972e+05
   4.957206e+05   9.423557e+05
   1.597470e+05   1.028801e+06
  -7.141343e+05   3.652616e+05
  -1.417232e+06  -4.511814e+05
  -1.210400e+06  -8.037083e+05
  -1.719926e+05  -6.779203e+05
   8.056142e+05  -4.111202e+05
   9.399669e+05  -1.682138e+05
   3.605779e+05   6.936460e+04
  -1.337234e+05   2.221799e+05
  -5.474979e+04   1.781931e+05
   2.343455e+05   6.917965e+04
   5.962157e+04   1.302404e+05
  -6.139915e+05   2.473916e+05
  -1.017516e+06  -2.772309e+03
  -4.574391e+05  -6.852503e+05
   7.907287e+05  -1.164437e+06
   1.666561e+06  -7.493289e+05
   1.404633e+06   4.083229e+05
   2.821630e+05   1.357511e+06
  -7.486240e+05   1.339454e+06
  -1.019908e+06   5.427177e+05
  -6.352151e+05  -2.055251e+05
  -1.428006e+05  -3.503657e+05
   4.794698e+04  -8.870777e+04
  -8.214387e+04  -5.787857e+03
  -2.756294e+05  -3.598055e+05
  -2.297029e+05  -7.779923e+05
   1.666466e+05  -6.658810e+05
   6.594364e+05   9.212878e+04
   7.431934e+05   9.019212e+05
   1.499436e+05   1.009893e+06
  -7.168528e+05   2.782471e+05
  -1.023059e+06  -6.663784e+05
  -3.633907e+05  -1.059280e+06
   6.869779e+05  -6.839872e+05
   1.100443e+06   6.045278e+04
   5.301023e+05   6.147142e+05
  -2.829464e+05   6.852033e+05
  -3.915662e+05   3.584303e+05
   2.147582e+05  -1.058584e+04
   6.223409e+05  -4.856189e+04
   1.521125e+05   3.051258e+05
  -7.940173e+05   6.580863e+05
  -1.234269e+06   5.030085e+05
  -7.612481e+05  -1.963639e+05
   8.806814e+04  -8.540156e+05
   5.567158e+05  -8.376106e+05
   4.444796e+05  -1.729979e+05
   7.355999e+04   4.555185e+05
  -2.268510e+05   4.402492e+05
  -3.467802e+05  -1.136810e+05
  -2.548550e+05  -5.570685e+05
   4.651988e+04  -4.396516e+05
   3.829346e+05   2.886797e+04
   4.674244e+05   2.885212e+05
   2.318093e+05   1.079392e+05
  -4.267269e+04  -1.689200e+05
  -7.047040e+04  -8.406893e+04
   5.536829e+04   3.341206e+05
   1.601690e+03   5.750056e+05
  -3.018974e+05   2.671292e+05
  -4.904270e+05  -3.398544e+05
  -2.064820e+05  -6.330931e+05
   3.819175e+05  -3.252376e+05
   6.687292e+05   2.505331e+05
   2.680966e+05   5.453968e+05
  -4.972741e+05   3.610937e+05
  -8.750162e+05  -5.597003e+04
  -4.762141e+05  -3.623948e+05
   2.854672e+05  -4.114370e+05
   6.302934e+05  -2.511329e+05
   2.653106e+05  -1.969098e+04
  -3.093024e+05   9.942064e+04
  -3.907549e+05  -2.337380e+04
   1.302919e+05  -2.710068e+05
   6.760918e+05  -2.816201e+05
