
 $NMID
 id='ANONYMOUS ', fmtdat='(2E16.6)'
 volume=1.0
 tramp=1.0
 $END
  -2.549147e+07  -2.262633e+06
  -1.551198e+07  -1.334482e+07
   1.624404e+06  -1.577790e+07
   1.150569e+07  -9.546949e+06
   8.856182e+06  -4.337433e+05
   2.113852e+05   4.408371e+06
  -5.047499e+06   1.941159e+06
  -3.519556e+06  -4.128085e+06
   1.479803e+06  -6.760173e+06
   4.808112e+06  -2.792576e+06
   3.940237e+06   3.565866e+06
   2.423833e+05   5.419337e+06
  -2.605737e+06   9.920191e+05
  -1.854396e+06  -4.545687e+06
   1.676390e+06  -5.111436e+06
   4.221227e+06  -2.140772e+05
   2.822604e+06   5.183073e+06
  -1.585137e+06   6.238070e+06
  -5.131524e+06   2.660807e+06
  -4.934959e+06  -1.917368e+06
  -1.824481e+06  -3.902400e+06
   7.647167e+05  -2.879655e+06
   4.070279e+05  -1.361936e+06
  -1.796543e+06  -1.752020e+06
  -2.351364e+06  -3.657004e+06
   7.540540e+05  -4.432174e+06
   5.379288e+06  -2.357433e+06
   7.034104e+06   1.276546e+06
   3.703987e+06   3.551938e+06
  -1.628290e+06   2.899212e+06
  -3.951758e+06   2.889917e+05
  -1.520512e+06  -1.990530e+06
   2.550219e+06  -2.118213e+06
   4.001954e+06   1.312662e+05
   1.905629e+06   3.023071e+06
  -1.033797e+06   3.871137e+06
  -1.953736e+06   1.609037e+06
  -6.957402e+05  -1.507188e+06
   7.256496e+05  -1.969253e+06
   6.340303e+05   7.380408e+05
  -7.796292e+05   3.156330e+06
  -1.992783e+06   2.050222e+06
  -1.683341e+06  -1.388980e+06
   1.220175e+05  -2.957206e+06
   1.943167e+06  -6.934570e+05
   1.903219e+06   2.807945e+06
  -5.489646e+05   3.650273e+06
  -3.665903e+06   9.873095e+05
  -4.570037e+06  -2.547235e+06
  -2.001036e+06  -3.933452e+06
   2.083264e+06  -2.453755e+06
   4.140432e+06   2.550043e+05
   2.540695e+06   1.945975e+06
  -8.095978e+05   1.559399e+06
  -2.562708e+06  -9.407891e+04
  -1.418477e+06  -1.212437e+06
   8.120863e+05  -7.729524e+05
   1.507401e+06   5.256342e+05
   1.277893e+05   1.171558e+06
  -1.421174e+06   5.093997e+05
  -1.090592e+06  -7.041775e+05
   9.770166e+05  -1.189300e+06
   2.529421e+06  -2.761068e+05
   1.560405e+06   1.612447e+06
  -1.524258e+06   3.132948e+06
  -4.210925e+06   2.818278e+06
  -4.367326e+06   3.618241e+05
  -2.268747e+06  -2.715202e+06
  -1.949852e+04  -4.222189e+06
   8.159134e+05  -3.463763e+06
   6.101999e+05  -1.870078e+06
   7.293020e+05  -1.137517e+06
   1.711416e+06  -1.180206e+06
   2.735940e+06  -5.531090e+05
   2.652467e+06   1.271043e+06
   1.159923e+06   2.853731e+06
  -9.243579e+05   2.386245e+06
  -2.219062e+06  -7.739060e+04
  -1.705945e+06  -2.461638e+06
   3.933336e+05  -2.714087e+06
   2.513274e+06  -7.447929e+05
   2.937862e+06   1.683019e+06
   1.439264e+06   2.761844e+06
  -4.721780e+05   2.207084e+06
  -1.225005e+06   1.147857e+06
  -9.318308e+05   7.110545e+05
  -1.053155e+06   8.831189e+05
  -2.341002e+06   7.319539e+05
  -3.616960e+06  -4.422477e+05
  -2.979401e+06  -2.287692e+06
  -1.023439e+05  -3.618315e+06
   3.050796e+06  -3.353418e+06
   4.012109e+06  -1.427268e+06
   2.237658e+06   9.736648e+05
  -3.865182e+05   2.178122e+06
  -1.474308e+06   1.442300e+06
  -4.461707e+05  -2.423124e+05
   1.168365e+06  -1.043514e+06
   1.566539e+06  -2.304925e+05
   5.177460e+05   1.006468e+06
  -6.697126e+05   1.002106e+06
  -7.075119e+05  -2.837626e+05
   4.159788e+05  -1.110149e+06
   1.569951e+06  -3.720183e+04
   1.534217e+06   2.235202e+06
  -2.927503e+04   3.478496e+06
  -2.249029e+06   2.283126e+06
  -3.546714e+06  -4.959228e+05
  -2.842758e+06  -2.653692e+06
  -6.254656e+05  -2.769679e+06
   1.312427e+06  -1.352125e+06
   1.546594e+06  -4.911288e+04
   4.462924e+05   5.474746e+04
  -3.207871e+05  -6.714446e+05
   2.720715e+05  -1.053493e+06
   1.464239e+06  -4.563907e+05
   1.679154e+06   6.009027e+05
   4.405973e+05   1.088786e+06
  -9.945360e+05   5.686738e+05
  -9.935231e+05  -3.900737e+05
   6.162256e+05  -7.835935e+05
   2.233424e+06  -9.646927e+04
   2.069173e+06   1.229931e+06
   1.534306e+04   2.117551e+06
  -2.164571e+06   1.733983e+06
  -2.572103e+06   2.836707e+05
  -1.046520e+06  -1.046008e+06
   7.734145e+05  -1.138307e+06
   1.181200e+06  -8.443221e+04
   3.176895e+04   8.566468e+05
  -1.335315e+06   5.881108e+05
  -1.555048e+06  -6.233619e+05
  -4.864194e+05  -1.466404e+06
   8.199491e+05  -1.074032e+06
   1.187549e+06   3.833506e+04
   4.016037e+05   6.166858e+05
  -5.906557e+05   7.316620e+04
  -5.871521e+05  -9.296777e+05
   6.066295e+05  -1.235401e+06
   1.847368e+06  -3.707001e+05
   1.776970e+06   1.031913e+06
   3.011715e+05   1.846612e+06
  -1.251364e+06   1.451357e+06
  -1.528066e+06   2.420527e+05
  -5.267670e+05  -7.450780e+05
   5.592356e+05  -7.722290e+05
   6.985772e+05  -5.113279e+04
  -1.728905e+03   5.401750e+05
  -6.176562e+05   4.143985e+05
  -4.694425e+05  -1.092935e+05
   2.107003e+05  -2.255991e+05
   5.576044e+05   3.635460e+05
  -2.926406e+04   1.023227e+06
  -1.200430e+06   8.360119e+05
  -1.878057e+06  -3.780366e+05
  -1.280383e+06  -1.777651e+06
   2.461727e+05  -2.249126e+06
   1.523322e+06  -1.424382e+06
   1.703015e+06   1.208988e+04
   1.023875e+06   9.803699e+05
   3.700184e+05   9.781471e+05
   2.412297e+05   4.507150e+05
   3.248907e+05   2.172631e+05
   2.924080e+04   5.432775e+05
  -7.363670e+05   8.475919e+05
  -1.370765e+06   4.024825e+05
  -1.125227e+06  -7.159983e+05
   1.310593e+05  -1.526590e+06
   1.610233e+06  -1.096577e+06
   2.128072e+06   4.379610e+05
   1.116568e+06   1.896163e+06
  -7.813104e+05   2.123907e+06
  -2.198493e+06   1.025638e+06
  -2.224480e+06  -4.409304e+05
  -1.129675e+06  -1.222649e+06
   4.589905e+04  -1.094566e+06
   5.264182e+05  -6.853007e+05
   3.944687e+05  -6.702716e+05
   2.783394e+05  -1.008287e+06
   5.909399e+05  -1.019923e+06
   1.093538e+06  -2.148243e+05
   1.155972e+06   1.038010e+06
   4.446507e+05   1.759609e+06
  -6.281101e+05   1.304251e+06
  -1.196190e+06   1.195719e+04
  -7.692940e+05  -1.098345e+06
   2.376665e+05  -1.249949e+06
   8.945691e+05  -5.186142e+05
   6.985396e+05   3.841909e+05
   4.817010e+04   8.241078e+05
  -2.687979e+05   7.300633e+05
   1.328439e+04   4.720455e+05
   3.468718e+05   3.706989e+05
   1.817875e+04   3.750145e+05
  -9.721643e+05   1.968633e+05
  -1.764062e+06  -3.014405e+05
  -1.454271e+06  -9.006531e+05
  -7.754712e+04  -1.196980e+06
   1.308133e+06  -9.559297e+05
   1.617005e+06  -3.212404e+05
   8.010750e+05   2.728426e+05
  -1.762529e+05   4.217290e+05
  -4.142624e+05   9.828879e+04
   4.480736e+04  -2.715367e+05
   4.760633e+05  -1.934215e+05
   4.100083e+05   3.298010e+05
   7.216583e+04   7.148936e+05
  -5.829046e+04   4.557670e+05
   1.414888e+05  -1.835145e+05
   3.698205e+05  -3.884431e+05
   2.743907e+05   2.022781e+05
  -2.222681e+05   9.531200e+05
  -8.436694e+05   9.293623e+05
  -1.088219e+06   2.769137e+04
  -5.916985e+05  -8.705233e+05
   4.131583e+05  -9.013108e+05
   1.070267e+06  -1.374524e+05
   6.387040e+05   5.916188e+05
  -6.226544e+05   6.075783e+05
  -1.520561e+06  -4.218529e+04
  -1.096358e+06  -7.738461e+05
   3.241331e+05  -1.015242e+06
   1.425215e+06  -6.109825e+05
   1.259980e+06   9.390915e+04
   1.875420e+05   5.094883e+05
  -5.865470e+05   3.019108e+05
  -3.003865e+05  -2.369559e+05
   6.216811e+05  -4.003194e+05
   1.079770e+06   2.118096e+05
   4.616961e+05   1.167786e+06
  -7.452923e+05   1.508747e+06
  -1.474614e+06   6.842056e+05
  -1.138129e+06  -7.936070e+05
  -1.177166e+05  -1.706363e+06
   7.274943e+05  -1.259998e+06
   8.821171e+05   1.022178e+05
   4.613925e+05   1.109840e+06
  -1.134225e+05   9.622935e+05
  -4.910174e+05   1.120959e+05
  -5.105302e+05  -3.831347e+05
  -2.436811e+05  -1.607897e+05
  -1.126789e+04   1.161342e+05
  -1.169356e+05  -2.223793e+05
  -3.979910e+05  -8.904855e+05
  -2.624040e+05  -1.031768e+06
   5.486674e+05  -3.669848e+05
   1.385157e+06   4.793733e+05
   1.280261e+06   8.157013e+05
   1.657076e+05   6.352966e+05
  -9.027393e+05   3.587289e+05
  -9.592946e+05   1.781863e+05
  -2.562994e+05  -6.864348e+03
   1.791998e+05  -1.975647e+05
  -7.022511e+04  -2.420837e+05
  -3.612046e+05  -1.560237e+05
   1.997658e+03  -1.342496e+05
   7.498173e+05  -1.563867e+05
   9.616650e+05   8.411688e+04
   2.092981e+05   6.466404e+05
  -9.388034e+05   9.998681e+05
  -1.537482e+06   5.537950e+05
  -1.159147e+06  -5.246360e+05
  -1.573941e+05  -1.341384e+06
   7.388739e+05  -1.212643e+06
   9.983036e+05  -3.834470e+05
   6.192159e+05   3.042127e+05
   6.210600e+04   3.384847e+05
  -1.664742e+05  -3.856147e+03
   3.806391e+04  -8.670052e+04
   3.160864e+05   3.190539e+05
   2.428220e+05   7.602958e+05
  -2.172277e+05   6.022019e+05
  -6.529860e+05  -2.131948e+05
  -5.866836e+05  -9.899160e+05
   5.360654e+04  -9.568516e+05
   7.784641e+05  -9.953399e+04
   9.018910e+05   8.098781e+05
   2.096176e+05   1.025204e+06
  -7.116640e+05   5.238970e+05
  -9.872525e+05  -1.485070e+05
  -4.072019e+05  -5.234589e+05
   2.916427e+05  -5.244255e+05
   2.843689e+05  -3.012055e+05
  -3.240311e+05  -5.198063e+04
  -6.311698e+05  -5.307266e+03
  -9.046545e+04  -2.758260e+05
   7.963315e+05  -6.098783e+05
   1.112500e+06  -5.171463e+05
   6.064622e+05   1.271404e+05
  -1.361725e+05   7.679486e+05
  -4.701449e+05   7.322154e+05
  -3.126701e+05   6.206692e+04
   1.848409e+04  -4.880895e+05
   2.606730e+05  -3.450786e+05
   3.293378e+05   2.344020e+05
   1.982409e+05   5.519085e+05
  -9.273828e+04   3.203343e+05
  -3.594944e+05  -9.518704e+04
  -3.991369e+05  -2.251227e+05
  -2.186880e+05  -4.855383e+04
  -1.877982e+04   7.767167e+04
   6.895945e+04  -9.050998e+04
   1.176722e+05  -3.868272e+05
   2.373389e+05  -4.244007e+05
   3.642063e+05  -3.977926e+04
   3.028424e+05   4.759444e+05
  -2.974885e+04   6.280730e+05
  -4.376688e+05   2.346919e+05
  -5.521151e+05  -3.472455e+05
  -1.688136e+05  -5.800739e+05
   4.643173e+05  -3.038394e+05
   7.698987e+05   1.495509e+05
   4.038652e+05   3.761956e+05
  -2.939184e+05   2.968603e+05
  -5.854983e+05   1.059383e+05
  -1.695038e+05  -1.008796e+04
   4.184589e+05   1.554039e+04
   4.154134e+05   1.690939e+05
  -2.419674e+05   3.211933e+05
  -8.260780e+05   2.195268e+05
