
 $NMID
 id='ANONYMOUS ', fmtdat='(2E16.6)'
 volume=1.0
 tramp=1.0
 $END
   5.448424e+07   2.285469e+06
   3.140345e+07   3.478739e+07
  -8.511283e+06   3.640958e+07
  -2.707330e+07   1.333046e+07
  -1.569673e+07  -7.075846e+06
   3.413515e+06  -8.860111e+06
   9.449356e+06   1.353578e+06
   2.482510e+06   9.479473e+06
  -6.194457e+06   8.958279e+06
  -9.395379e+06   1.720386e+06
  -6.594000e+06  -6.292843e+06
  -4.857008e+05  -8.452950e+06
   4.018511e+06  -2.491340e+06
   2.421778e+06   5.506471e+06
  -3.845123e+06   6.352558e+06
  -7.594815e+06  -1.508707e+06
  -3.991616e+06  -1.005477e+07
   4.056895e+06  -1.133043e+07
   1.001978e+07  -5.352037e+06
   1.039170e+07   2.447606e+06
   6.047937e+06   7.535857e+06
   2.536831e+05   8.323058e+06
  -2.987892e+06   5.620159e+06
  -1.671332e+06   2.529332e+06
   1.189368e+06   2.302265e+06
   7.300979e+04   4.262819e+06
  -5.608533e+06   4.134429e+06
  -9.592398e+06   5.540733e+04
  -6.723575e+06  -4.371072e+06
   7.325638e+04  -4.976072e+06
   3.884034e+06  -2.315345e+06
   2.458645e+06   2.299647e+05
  -7.705364e+05   1.062175e+06
  -2.464204e+06   4.211727e+05
  -2.190110e+06  -1.629007e+06
  -4.667888e+05  -4.010648e+06
   1.967506e+06  -3.670259e+06
   3.082212e+06   3.437729e+05
   1.406491e+06   3.626933e+06
  -8.727568e+05   1.708656e+06
  -2.057684e+05  -2.569951e+06
   2.513309e+06  -2.237314e+06
   2.291663e+06   3.160336e+06
  -2.492686e+06   5.835506e+06
  -6.653797e+06   7.215255e+05
  -4.652444e+06  -6.867502e+06
   2.142467e+06  -8.153093e+06
   7.296899e+06  -2.061008e+06
   6.682802e+06   4.578371e+06
   1.678503e+06   5.978626e+06
  -3.481857e+06   2.600133e+06
  -5.164262e+06  -1.606265e+06
  -2.337298e+06  -3.463284e+06
   2.385616e+06  -2.068205e+06
   4.375486e+06   1.028484e+06
   1.822623e+06   2.688160e+06
  -1.713234e+06   1.269435e+06
  -1.701815e+06  -1.050497e+06
   1.241876e+06  -8.861927e+05
   2.331359e+06   1.675430e+06
  -6.261441e+05   3.208756e+06
  -4.445694e+06   1.677665e+06
  -5.070268e+06  -1.426396e+06
  -2.135267e+06  -3.903338e+06
   1.977993e+06  -5.101256e+06
   5.167242e+06  -4.590507e+06
   6.190526e+06  -1.458208e+06
   4.356246e+06   3.322324e+06
   6.804243e+05   6.128016e+06
  -1.948193e+06   4.652423e+06
  -1.708371e+06   1.224231e+06
  -1.797918e+05  -1.304225e+05
  -1.401330e+05   1.045336e+06
  -1.794892e+06   1.690062e+06
  -2.877246e+06   3.737518e+04
  -1.950100e+06  -2.108767e+06
   1.088787e+05  -2.215984e+06
   1.645188e+06  -1.523242e+05
   1.656629e+06   2.188708e+06
  -1.143389e+05   2.969769e+06
  -2.848458e+06   1.524473e+06
  -4.387266e+06  -1.395362e+06
  -3.004076e+06  -3.847205e+06
   2.193824e+05  -4.128161e+06
   2.320613e+06  -2.550663e+06
   2.195764e+06  -1.040028e+06
   1.814180e+06  -6.489285e+05
   2.953647e+06  -4.171692e+05
   4.339591e+06   8.817459e+05
   3.421154e+06   2.882581e+06
   4.228443e+03   4.165736e+06
  -3.373207e+06   3.835405e+06
  -4.308737e+06   1.983887e+06
  -2.668234e+06  -5.553601e+05
  -1.633661e+05  -2.290831e+06
   1.212672e+06  -1.904596e+06
   5.652628e+05   7.245855e+04
  -1.159124e+06   1.282951e+06
  -1.931341e+06   3.299032e+05
  -8.682377e+05  -1.246652e+06
   5.747800e+05  -1.111287e+06
   4.431398e+05   4.008897e+05
  -1.055312e+06   6.995488e+05
  -1.813808e+06  -1.274498e+06
  -6.016159e+05  -3.463965e+06
   1.605492e+06  -3.406329e+06
   3.146983e+06  -1.111920e+06
   3.328157e+06   1.494832e+06
   2.273482e+06   2.860960e+06
   3.991082e+05   2.681176e+06
  -1.314091e+06   1.449342e+06
  -1.615049e+06   1.730332e+05
  -4.976364e+05  -6.246741e+04
   3.380932e+05   7.746699e+05
  -4.604016e+05   1.335203e+06
  -1.938871e+06   5.154085e+05
  -2.019451e+06  -9.585361e+05
  -3.437179e+05  -1.436909e+06
   1.205994e+06  -5.408220e+05
   8.977735e+05   4.908066e+05
  -8.676320e+05   5.177351e+05
  -2.213387e+06  -3.703045e+05
  -1.753906e+06  -1.427145e+06
   2.987133e+05  -2.007155e+06
   2.397215e+06  -1.617053e+06
   2.825680e+06  -1.893899e+05
   1.187802e+06   1.319281e+06
  -9.831262e+05   1.480201e+06
  -1.577725e+06   1.317483e+05
  -1.569613e+05  -1.099814e+06
   1.564718e+06  -6.925889e+05
   1.717045e+06   8.477911e+05
   2.942410e+05   1.684649e+06
  -1.131432e+06   9.597752e+05
  -1.263817e+06  -3.491702e+05
  -2.271718e+05  -7.960213e+05
   8.079584e+05  -2.671865e+04
   7.112305e+05   1.098008e+06
  -6.377198e+05   1.430295e+06
  -2.063595e+06   4.820490e+05
  -2.033959e+06  -1.138938e+06
  -3.189809e+05  -2.120832e+06
   1.516253e+06  -1.618697e+06
   1.757466e+06  -1.567276e+05
   4.810501e+05   8.965043e+05
  -6.956629e+05   7.939008e+05
  -6.514125e+05   5.571740e+04
   1.266206e+05  -3.712880e+05
   5.120212e+05  -2.080831e+05
   1.393451e+05   6.806969e+04
  -4.402451e+05  -8.207802e+04
  -5.048036e+05  -6.876531e+05
   2.426457e+05  -1.195394e+06
   1.431990e+06  -8.654762e+05
   2.102569e+06   4.893356e+05
   1.424270e+06   2.024928e+06
  -3.001767e+05   2.455694e+06
  -1.686772e+06   1.387863e+06
  -1.716303e+06  -1.767697e+05
  -8.533001e+05  -9.396825e+05
  -3.107098e+05  -6.846429e+05
  -4.750967e+05  -2.506022e+05
  -6.174557e+05  -3.399963e+05
  -6.449820e+04  -7.748142e+05
   9.159456e+05  -8.879495e+05
   1.482643e+06  -2.892843e+05
   1.051608e+06   7.663190e+05
  -2.938655e+05   1.481100e+06
  -1.784474e+06   1.039838e+06
  -2.272156e+06  -5.630388e+05
  -1.085794e+06  -2.170160e+06
   1.100499e+06  -2.368117e+06
   2.612728e+06  -9.650124e+05
   2.366882e+06   7.412015e+05
   9.352491e+05   1.387597e+06
  -2.321028e+05   9.593636e+05
  -4.140817e+05   5.160078e+05
  -1.149135e+05   7.678746e+05
  -1.565960e+05   1.321649e+06
  -7.250698e+05   1.282015e+06
  -1.323589e+06   2.779717e+05
  -1.323572e+06  -1.143938e+06
  -5.032277e+05  -1.945656e+06
   6.806474e+05  -1.441359e+06
   1.307177e+06   4.375446e+04
   7.832359e+05   1.328671e+06
  -4.395714e+05   1.403414e+06
  -1.187766e+06   3.754557e+05
  -7.963436e+05  -7.288081e+05
   1.583802e+05  -1.082134e+06
   5.647270e+05  -7.742547e+05
   9.623804e+04  -4.206467e+05
  -4.300412e+05  -3.569128e+05
  -4.893424e+04  -3.926334e+05
   1.172223e+06  -1.759659e+05
   2.083977e+06   4.054767e+05
   1.609433e+06   1.105349e+06
  -8.456998e+04   1.453465e+06
  -1.650928e+06   1.104059e+06
  -1.868284e+06   2.230841e+05
  -8.289886e+05  -5.253073e+05
   2.839190e+05  -5.670983e+05
   5.189898e+05  -1.842971e+04
   1.538496e+04   4.279816e+05
  -4.592247e+05   2.495850e+05
  -4.786965e+05  -3.628345e+05
  -2.348917e+05  -7.457713e+05
  -8.174234e+04  -4.926908e+05
  -1.407856e+05   9.346018e+04
  -2.923905e+05   2.919919e+05
  -2.738534e+05  -2.443503e+05
   1.733673e+05  -1.001198e+06
   9.489011e+05  -1.057114e+06
   1.393249e+06  -1.332107e+05
   8.391191e+05   9.599196e+05
  -4.599290e+05   1.146830e+06
  -1.292765e+06   3.036370e+05
  -7.299922e+05  -6.054042e+05
   7.341435e+05  -6.366196e+05
   1.610436e+06   1.472756e+05
   9.932471e+05   9.068054e+05
  -5.230219e+05   9.867892e+05
  -1.535620e+06   4.373753e+05
  -1.244617e+06  -2.327592e+05
  -1.195054e+05  -5.255009e+05
   6.688504e+05  -2.514292e+05
   3.822397e+05   3.137035e+05
  -6.112587e+05   5.178274e+05
  -1.205478e+06  -1.142132e+05
  -6.552617e+05  -1.223430e+06
   6.447556e+05  -1.723060e+06
   1.535808e+06  -8.658289e+05
   1.259550e+06   8.050777e+05
   1.567884e+05   1.830062e+06
  -7.902774e+05   1.293535e+06
  -9.343873e+05  -2.112229e+05
  -3.987430e+05  -1.226026e+06
   2.583772e+05  -9.745056e+05
   5.766916e+05  -6.515309e+04
   4.587471e+05   3.953936e+05
   1.567510e+05   1.409179e+05
   5.422982e+04  -9.265944e+04
   2.847461e+05   3.168947e+05
   4.942658e+05   1.002683e+06
   1.548182e+05   1.100181e+06
  -7.491381e+05   3.769109e+05
  -1.488037e+06  -5.154277e+05
  -1.271629e+06  -8.867996e+05
  -1.670929e+05  -7.187701e+05
   8.731359e+05  -4.068401e+05
   1.004105e+06  -1.556868e+05
   3.723364e+05   7.135032e+04
  -1.512285e+05   2.277280e+05
  -5.154120e+04   1.996159e+05
   2.573004e+05   9.389856e+04
   5.339290e+04   1.378768e+05
  -6.686325e+05   2.321401e+05
  -1.070500e+06  -3.454817e+04
  -4.434610e+05  -7.240808e+05
   8.769454e+05  -1.192258e+06
   1.764951e+06  -7.383848e+05
   1.449268e+06   4.701152e+05
   2.533457e+05   1.440564e+06
  -8.210668e+05   1.389953e+06
  -1.086954e+06   5.347859e+05
  -6.634798e+05  -2.438020e+05
  -1.347767e+05  -3.709697e+05
   6.207094e+04  -7.817248e+04
  -8.614007e+04   3.662133e+03
  -2.897608e+05  -3.860210e+05
  -2.266164e+05  -8.301477e+05
   1.963534e+05  -6.936054e+05
   6.919329e+05   1.270216e+05
   7.457930e+05   9.785797e+05
   1.143776e+05   1.061147e+06
  -7.667115e+05   2.557050e+05
  -1.050124e+06  -7.427157e+05
  -3.444396e+05  -1.122919e+06
   7.418007e+05  -6.907383e+05
   1.150564e+06   9.596471e+04
   5.381273e+05   6.506162e+05
  -3.114661e+05   7.027526e+05
  -4.107316e+05   3.690726e+05
   2.371143e+05   5.175234e+03
   6.603525e+05  -3.018221e+04
   1.485824e+05   3.217846e+05
  -8.570413e+05   6.734563e+05
  -1.309680e+06   5.098786e+05
  -7.891829e+05  -2.132492e+05
   1.161178e+05  -8.927556e+05
   5.976962e+05  -8.673975e+05
   4.571422e+05  -1.662946e+05
   5.565458e+04   4.848000e+05
  -2.511722e+05   4.500216e+05
  -3.582818e+05  -1.413294e+05
  -2.508843e+05  -5.944960e+05
   6.016733e+04  -4.506706e+05
   4.003363e+05   4.624559e+04
   4.841656e+05   3.080623e+05
   2.443654e+05   1.132949e+05
  -3.831502e+04  -1.680042e+05
  -7.981879e+04  -7.216588e+04
   2.972987e+04   3.543496e+05
  -3.182630e+04   5.840456e+05
  -3.240908e+05   2.490121e+05
  -4.862056e+05  -3.794648e+05
  -1.784049e+05  -6.664788e+05
   4.154686e+05  -3.237181e+05
   6.869629e+05   2.878016e+05
   2.590234e+05   5.849747e+05
  -5.306728e+05   3.662205e+05
  -9.120187e+05  -8.661408e+04
  -4.880565e+05  -3.947844e+05
   3.092310e+05  -4.168667e+05
   6.641162e+05  -2.371605e+05
   2.703859e+05  -1.518368e+04
  -3.376112e+05   8.084874e+04
  -4.105444e+05  -5.118108e+04
   1.591043e+05  -2.850335e+05
   7.378719e+05  -2.691657e+05
