
 $NMID
 id='ANONYMOUS ', fmtdat='(2E16.6)'
 volume=1.0
 tramp=1.0
 $END
   2.995254e+07   1.824986e+06
   1.794412e+07   1.657488e+07
  -2.671356e+06   1.894363e+07
  -1.371326e+07   9.988872e+06
  -9.649562e+06  -8.179399e+05
   4.064703e+05  -5.002702e+06
   5.557410e+06  -1.337738e+06
   3.231454e+06   4.837318e+06
  -2.124669e+06   6.873853e+06
  -5.369231e+06   2.559373e+06
  -4.347231e+06  -3.850985e+06
  -3.997115e+05  -5.765489e+06
   2.758366e+06  -1.292046e+06
   2.013759e+06   4.493687e+06
  -1.873664e+06   5.156909e+06
  -4.648485e+06  -3.681780e+04
  -3.013537e+06  -5.814560e+06
   1.867732e+06  -6.948851e+06
   5.796775e+06  -3.139945e+06
   5.806829e+06   1.870148e+06
   2.605388e+06   4.432429e+06
  -5.378716e+05   3.820441e+06
  -8.965858e+05   2.075925e+06
   1.117701e+06   1.716980e+06
   2.173692e+06   3.164413e+06
  -4.279438e+05   4.257613e+06
  -5.158605e+06   2.759076e+06
  -7.289309e+06  -7.956742e+05
  -4.218084e+06  -3.493243e+06
   1.213243e+06  -3.246540e+06
   3.802559e+06  -7.814884e+05
   1.724406e+06   1.547963e+06
  -2.032261e+06   1.942458e+06
  -3.565561e+06   1.255337e+05
  -1.996854e+06  -2.586021e+06
   5.942008e+05  -3.796524e+06
   1.859781e+06  -1.989606e+06
   1.178836e+06   1.244694e+06
  -2.618762e+05   2.255560e+06
  -7.136246e+05  -2.346957e+05
   4.565302e+05  -2.958749e+06
   1.948567e+06  -2.056317e+06
   1.745391e+06   1.621362e+06
  -5.119170e+05   3.343750e+06
  -2.724101e+06   6.593637e+05
  -2.366089e+06  -3.436009e+06
   7.792725e+05  -4.337215e+06
   4.182046e+06  -1.207025e+06
   4.828856e+06   2.713617e+06
   1.951284e+06   4.089600e+06
  -2.186660e+06   2.425875e+06
  -4.152308e+06  -3.839722e+05
  -2.437459e+06  -2.069587e+06
   1.031393e+06  -1.593619e+06
   2.787565e+06   2.128392e+05
   1.452263e+06   1.402272e+06
  -9.315831e+05   8.467618e+05
  -1.491626e+06  -5.588377e+05
   9.261942e+04  -1.046644e+06
   1.485147e+06  -1.108244e+05
   7.097142e+05   1.084188e+06
  -1.556260e+06   1.210191e+06
  -2.867572e+06  -1.357960e+04
  -1.619849e+06  -1.935817e+06
   1.480307e+06  -3.414403e+06
   4.159058e+06  -3.151592e+06
   4.537141e+06  -6.598949e+05
   2.642372e+06   2.680514e+06
   2.442220e+05   4.417688e+06
  -9.054914e+05   3.554254e+06
  -7.232370e+05   1.675603e+06
  -5.423698e+05   8.849698e+05
  -1.309320e+06   1.184358e+06
  -2.449282e+06   8.432360e+05
  -2.647057e+06  -8.955361e+05
  -1.361489e+06  -2.575290e+06
   6.575339e+05  -2.299854e+06
   2.028506e+06  -4.694025e+04
   1.709182e+06   2.257470e+06
  -2.445974e+05   2.669207e+06
  -2.463439e+06   9.338000e+05
  -3.147112e+06  -1.492135e+06
  -1.742830e+06  -2.832566e+06
   3.668618e+05  -2.495595e+06
   1.366208e+06  -1.384746e+06
   1.113288e+06  -7.531016e+05
   1.121618e+06  -8.246552e+05
   2.333113e+06  -7.071525e+05
   3.612717e+06   4.048150e+05
   3.003648e+06   2.220373e+06
   1.843277e+05   3.569763e+06
  -2.890555e+06   3.398150e+06
  -3.869629e+06   1.594126e+06
  -2.264813e+06  -7.930752e+05
   2.018602e+05  -2.131896e+06
   1.328318e+06  -1.520660e+06
   4.610001e+05   1.887171e+05
  -1.090569e+06   1.083023e+06
  -1.566187e+06   2.832546e+05
  -5.903210e+05  -1.000186e+06
   5.955570e+05  -1.004904e+06
   6.370429e+05   2.678768e+05
  -4.774866e+05   9.920844e+05
  -1.530869e+06  -1.637803e+05
  -1.348883e+06  -2.312332e+06
   2.131263e+05  -3.301423e+06
   2.236875e+06  -2.028405e+06
   3.362682e+06   5.488766e+05
   2.701013e+06   2.488125e+06
   6.455515e+05   2.618335e+06
  -1.219157e+06   1.356449e+06
  -1.497433e+06   1.173025e+05
  -4.394896e+05  -4.096858e+04
   3.305826e+05   6.538709e+05
  -2.675659e+05   1.069358e+06
  -1.480570e+06   4.876277e+05
  -1.688586e+06  -5.962548e+05
  -4.336951e+05  -1.094945e+06
   9.757002e+05  -5.687769e+05
   9.464769e+05   3.603591e+05
  -6.093585e+05   7.176571e+05
  -2.129071e+06   7.555645e+04
  -1.962058e+06  -1.147552e+06
  -2.390006e+04  -2.006091e+06
   2.064746e+06  -1.706102e+06
   2.505468e+06  -3.308779e+05
   1.059213e+06   1.024562e+06
  -7.511950e+05   1.177349e+06
  -1.205938e+06   1.206644e+05
  -7.705473e+04  -8.685918e+05
   1.307560e+06  -6.222237e+05
   1.538725e+06   5.940805e+05
   4.733994e+05   1.430062e+06
  -8.098761e+05   1.030407e+06
  -1.150587e+06  -5.885361e+04
  -3.696483e+05  -6.102449e+05
   6.042201e+05  -7.700907e+04
   6.131521e+05   9.067944e+05
  -5.520913e+05   1.240209e+06
  -1.803062e+06   4.308993e+05
  -1.783714e+06  -9.586614e+05
  -3.457503e+05  -1.814178e+06
   1.207715e+06  -1.459052e+06
   1.500607e+06  -2.604184e+05
   5.180913e+05   7.264029e+05
  -5.383899e+05   7.607542e+05
  -6.602920e+05   7.261928e+04
   5.189782e+03  -4.849800e+05
   5.566608e+05  -3.802134e+05
   3.929148e+05   7.722357e+04
  -2.330422e+05   1.619462e+05
  -5.313337e+05  -3.910936e+05
   3.871465e+04  -1.011457e+06
   1.169442e+06  -8.414733e+05
   1.854065e+06   3.284243e+05
   1.307083e+06   1.714257e+06
  -1.794569e+05   2.203729e+06
  -1.447490e+06   1.405053e+06
  -1.634662e+06   1.043323e+04
  -9.818328e+05  -8.988880e+05
  -3.788654e+05  -8.716292e+05
  -2.920893e+05  -3.913074e+05
  -3.710622e+05  -2.256917e+05
  -4.783610e+04  -5.639869e+05
   7.143550e+05  -8.408155e+05
   1.321765e+06  -4.059003e+05
   1.087290e+06   6.602591e+05
  -1.079562e+05   1.457831e+06
  -1.542521e+06   1.089040e+06
  -2.080605e+06  -3.795015e+05
  -1.120667e+06  -1.835361e+06
   7.467418e+05  -2.103150e+06
   2.154080e+06  -1.035140e+06
   2.170459e+06   4.119846e+05
   1.083471e+06   1.165936e+06
  -4.257056e+04   1.023805e+06
  -4.603073e+05   6.442016e+05
  -3.070908e+05   6.779792e+05
  -2.178545e+05   1.036557e+06
  -5.643714e+05   1.043984e+06
  -1.086571e+06   2.484682e+05
  -1.171285e+06  -9.824240e+05
  -4.896169e+05  -1.710337e+06
   5.740147e+05  -1.295984e+06
   1.167408e+06  -3.672601e+04
   7.715801e+05   1.073150e+06
  -2.290793e+05   1.232429e+06
  -8.947218e+05   4.944418e+05
  -6.952423e+05  -4.125683e+05
  -2.950041e+04  -8.342183e+05
   2.909376e+05  -7.126920e+05
  -7.848312e+03  -4.413963e+05
  -3.600206e+05  -3.436832e+05
  -3.449454e+04  -3.630255e+05
   9.636836e+05  -2.121568e+05
   1.760116e+06   2.586419e+05
   1.449373e+06   8.594719e+05
   7.768348e+04   1.191502e+06
  -1.291609e+06   9.804429e+05
  -1.587090e+06   3.365583e+05
  -7.786460e+05  -2.842761e+05
   1.782770e+05  -4.355807e+05
   4.127365e+05  -9.073620e+04
  -2.585326e+04   2.919783e+05
  -4.486643e+05   2.110547e+05
  -4.159762e+05  -3.110173e+05
  -1.212050e+05  -6.920796e+05
   1.630939e+04  -4.482354e+05
  -1.285591e+05   1.637207e+05
  -3.268538e+05   3.675103e+05
  -2.687330e+05  -1.933062e+05
   1.753249e+05  -9.311328e+05
   8.021313e+05  -9.401912e+05
   1.101663e+06  -7.540474e+04
   6.395117e+05   8.373608e+05
  -3.808861e+05   9.227087e+05
  -1.066720e+06   1.926572e+05
  -6.480913e+05  -5.518849e+05
   5.998558e+05  -6.061240e+05
   1.475674e+06   1.415199e+04
   1.054982e+06   7.317024e+05
  -3.160638e+05   9.760248e+05
  -1.366613e+06   5.966903e+05
  -1.207105e+06  -7.649554e+04
  -1.829453e+05  -4.850486e+05
   5.680295e+05  -2.973885e+05
   3.097256e+05   2.335326e+05
  -5.839771e+05   4.255360e+05
  -1.067680e+06  -1.534214e+05
  -5.145504e+05  -1.119641e+06
   6.529285e+05  -1.512493e+06
   1.408081e+06  -7.352949e+05
   1.139330e+06   7.302509e+05
   1.713797e+05   1.657529e+06
  -6.711761e+05   1.237102e+06
  -8.577711e+05  -9.171079e+04
  -4.639065e+05  -1.071356e+06
   1.059833e+05  -9.270738e+05
   4.828915e+05  -1.128452e+05
   4.920677e+05   3.532591e+05
   2.230450e+05   1.416829e+05
   1.483538e+04  -1.068054e+05
   1.488736e+05   2.298869e+05
   4.258441e+05   8.645382e+05
   2.629189e+05   9.931172e+05
  -5.525327e+05   3.680580e+05
  -1.362824e+06  -4.252509e+05
  -1.251348e+06  -7.560918e+05
  -1.777498e+05  -6.200511e+05
   8.504521e+05  -3.817187e+05
   9.230673e+05  -1.959731e+05
   2.667368e+05   1.237437e+04
  -1.611199e+05   2.012284e+05
   5.292943e+04   2.204006e+05
   3.331355e+05   1.253389e+05
   1.250334e+04   1.303782e+05
  -7.007898e+05   1.887138e+05
  -9.464887e+05  -4.324785e+04
  -2.632866e+05  -6.320276e+05
   8.613287e+05  -1.025468e+06
   1.503376e+06  -6.101052e+05
   1.183461e+06   4.617664e+05
   2.090621e+05   1.302316e+06
  -6.893432e+05   1.218402e+06
  -9.648858e+05   4.257901e+05
  -6.128491e+05  -2.621170e+05
  -8.314742e+04  -3.300237e+05
   1.417338e+05  -1.830718e+04
  -4.148490e+04   6.822958e+04
  -3.073593e+05  -3.083789e+05
  -2.526412e+05  -7.348114e+05
   1.872284e+05  -6.020069e+05
   6.418617e+05   1.688461e+05
   6.235892e+05   9.320976e+05
   7.929418e+03   9.419214e+05
  -7.442222e+05   1.489284e+05
  -9.193044e+05  -7.389981e+05
  -2.565925e+05  -9.975850e+05
   6.748409e+05  -5.554319e+05
   9.832032e+05   1.045533e+05
   4.294380e+05   5.152872e+05
  -2.699605e+05   5.451569e+05
  -2.880107e+05   3.085993e+05
   2.971741e+05   2.981624e+04
   6.118485e+05  -2.067079e+04
   1.054754e+05   2.713185e+05
  -7.575239e+05   6.209540e+05
  -1.088094e+06   5.265528e+05
  -6.185953e+05  -1.219440e+05
   1.049883e+05  -7.647336e+05
   4.541832e+05  -7.404835e+05
   3.265561e+05  -8.642287e+04
   1.124784e+04   4.695224e+05
  -2.392805e+05   3.589012e+05
  -3.301509e+05  -1.978841e+05
  -2.165383e+05  -5.322162e+05
   7.498648e+04  -3.350078e+05
   3.563081e+05   7.170659e+04
   4.045826e+05   2.203397e+05
   2.151634e+05   5.221559e+04
   6.382687e+03  -9.276755e+04
  -6.289441e+04   5.863858e+04
  -7.303214e+04   3.711299e+05
  -1.788650e+05   4.474735e+05
  -3.440561e+05   8.896426e+04
  -3.409659e+05  -4.322483e+05
  -2.903888e+04  -6.140088e+05
   4.099745e+05  -2.557112e+05
   5.666069e+05   3.071089e+05
   1.967237e+05   5.537319e+05
  -4.494268e+05   3.165996e+05
  -7.708748e+05  -1.100643e+05
  -4.146444e+05  -3.532144e+05
   2.775225e+05  -3.160968e+05
   5.752302e+05  -1.430466e+05
   1.821154e+05   1.273249e+03
  -3.885549e+05   1.725217e+04
  -4.048531e+05  -1.273920e+05
   2.062851e+05  -3.103463e+05
   7.703575e+05  -2.469512e+05
