
 $NMID
 id='ANONYMOUS ', fmtdat='(2E16.6)'
 volume=1.0
 tramp=1.0
 $END
   5.698945e+07   1.424006e+06
   3.313582e+07   3.658831e+07
  -8.915988e+06   3.846862e+07
  -2.840754e+07   1.360674e+07
  -1.622051e+07  -7.999656e+06
   3.829625e+06  -9.283123e+06
   9.785823e+06   1.822659e+06
   2.236853e+06   9.957647e+06
  -6.665545e+06   8.925867e+06
  -9.730580e+06   1.508332e+06
  -6.805008e+06  -6.372865e+06
  -6.112667e+05  -8.538029e+06
   4.024287e+06  -2.701375e+06
   2.454070e+06   5.312978e+06
  -3.969857e+06   6.244804e+06
  -7.825769e+06  -1.676697e+06
  -4.096943e+06  -1.036914e+07
   4.176878e+06  -1.170334e+07
   1.032530e+07  -5.682514e+06
   1.088100e+07   2.272765e+06
   6.629156e+06   7.723777e+06
   5.616163e+05   8.913124e+06
  -3.258890e+06   6.192104e+06
  -2.270655e+06   2.562294e+06
   8.738529e+05   1.854226e+06
   2.857278e+05   3.933334e+06
  -5.226488e+06   4.293045e+06
  -9.486046e+06   4.501607e+05
  -6.971354e+06  -4.166110e+06
  -3.318615e+05  -5.083545e+06
   3.574264e+06  -2.640445e+06
   2.489939e+06  -1.934133e+05
  -3.349596e+05   7.673148e+05
  -1.967713e+06   5.255245e+05
  -2.111756e+06  -1.209583e+06
  -7.881936e+05  -3.767964e+06
   1.799093e+06  -3.882497e+06
   3.384658e+06   3.499271e+04
   1.812195e+06   3.712970e+06
  -8.337409e+05   2.122500e+06
  -4.233031e+05  -2.266328e+06
   2.433005e+06  -2.153375e+06
   2.312365e+06   3.299171e+06
  -2.748127e+06   6.092859e+06
  -7.195186e+06   7.742498e+05
  -5.015538e+06  -7.199385e+06
   2.225350e+06  -8.585205e+06
   7.545993e+06  -2.243428e+06
   6.737670e+06   4.619301e+06
   1.569419e+06   5.995186e+06
  -3.517689e+06   2.503638e+06
  -5.061602e+06  -1.724802e+06
  -2.185903e+06  -3.535870e+06
   2.534067e+06  -2.080635e+06
   4.486809e+06   1.098001e+06
   1.829148e+06   2.803865e+06
  -1.771342e+06   1.318141e+06
  -1.646985e+06  -1.072701e+06
   1.437537e+06  -7.919616e+05
   2.400256e+06   1.992913e+06
  -8.942341e+05   3.540098e+06
  -4.859062e+06   1.734030e+06
  -5.293095e+06  -1.626980e+06
  -2.165086e+06  -4.103146e+06
   1.884433e+06  -5.196107e+06
   4.972739e+06  -4.710059e+06
   6.142173e+06  -1.660305e+06
   4.541399e+06   3.175962e+06
   8.448423e+05   6.113916e+06
  -2.007593e+06   4.622175e+06
  -1.824040e+06   1.029688e+06
  -6.548880e+04  -3.953110e+05
   2.113635e+05   9.340069e+05
  -1.447992e+06   1.828416e+06
  -2.721967e+06   3.438438e+05
  -2.005911e+06  -1.784692e+06
  -9.526853e+04  -2.030638e+06
   1.411521e+06  -2.080771e+05
   1.559288e+06   1.966785e+06
  -1.426574e+04   2.826783e+06
  -2.709782e+06   1.619873e+06
  -4.413775e+06  -1.190068e+06
  -3.177743e+06  -3.783396e+06
   1.019513e+05  -4.260267e+06
   2.366685e+06  -2.704140e+06
   2.305779e+06  -1.065923e+06
   1.848607e+06  -5.761564e+05
   2.881286e+06  -3.541614e+05
   4.210451e+06   8.698817e+05
   3.315730e+06   2.779710e+06
   2.764417e+04   4.002014e+06
  -3.174017e+06   3.713934e+06
  -4.060564e+06   2.012944e+06
  -2.585779e+06  -3.995914e+05
  -2.938202e+05  -2.157022e+06
   1.055312e+06  -1.888664e+06
   5.552461e+05   2.294929e+04
  -1.063193e+06   1.261025e+06
  -1.876173e+06   3.539703e+05
  -9.011051e+05  -1.203122e+06
   5.026460e+05  -1.069686e+06
   3.639554e+05   3.916573e+05
  -1.111076e+06   5.804158e+05
  -1.760844e+06  -1.443733e+06
  -4.051153e+05  -3.489187e+06
   1.796555e+06  -3.188174e+06
   3.120795e+06  -8.261315e+05
   3.079762e+06   1.575768e+06
   2.030953e+06   2.695439e+06
   3.504464e+05   2.480395e+06
  -1.212718e+06   1.385416e+06
  -1.520620e+06   2.038580e+05
  -4.767127e+05  -5.521717e+04
   3.283380e+05   7.399820e+05
  -4.522623e+05   1.310720e+06
  -1.902623e+06   5.174181e+05
  -1.969459e+06  -9.449301e+05
  -3.206813e+05  -1.410748e+06
   1.161256e+06  -5.149286e+05
   8.229925e+05   4.663702e+05
  -8.556269e+05   4.342978e+05
  -2.063614e+06  -4.218616e+05
  -1.583887e+06  -1.355639e+06
   3.247367e+05  -1.852815e+06
   2.269425e+06  -1.509320e+06
   2.689386e+06  -1.869597e+05
   1.154575e+06   1.276384e+06
  -9.440466e+05   1.465927e+06
  -1.555384e+06   1.525602e+05
  -1.874078e+05  -1.075112e+06
   1.499648e+06  -6.866841e+05
   1.646812e+06   8.187860e+05
   2.541671e+05   1.616200e+06
  -1.110951e+06   8.866576e+05
  -1.201353e+06  -3.754322e+05
  -1.873556e+05  -7.778150e+05
   7.959749e+05  -2.569791e+04
   6.999788e+05   1.048888e+06
  -5.850993e+05   1.379064e+06
  -1.963295e+06   4.938933e+05
  -1.962686e+06  -1.063080e+06
  -3.242905e+05  -2.033043e+06
   1.453450e+06  -1.562945e+06
   1.688711e+06  -1.480920e+05
   4.518382e+05   8.639787e+05
  -6.678013e+05   7.548818e+05
  -5.977479e+05   6.202893e+04
   1.389963e+05  -3.106300e+05
   4.515290e+05  -1.551998e+05
   5.970389e+04   5.303575e+04
  -4.603101e+05  -1.383457e+05
  -4.658656e+05  -7.058141e+05
   2.603270e+05  -1.153538e+06
   1.375942e+06  -8.270838e+05
   2.013029e+06   4.587875e+05
   1.379264e+06   1.926421e+06
  -2.665875e+05   2.338320e+06
  -1.595071e+06   1.305599e+06
  -1.607706e+06  -1.825511e+05
  -7.706506e+05  -8.621548e+05
  -2.834711e+05  -5.765181e+05
  -4.933570e+05  -1.877184e+05
  -6.395503e+05  -3.364725e+05
  -7.375846e+04  -7.705125e+05
   8.849921e+05  -8.449211e+05
   1.404008e+06  -2.584455e+05
   9.714323e+05   7.171127e+05
  -2.956169e+05   1.375008e+06
  -1.691416e+06   9.744965e+05
  -2.155191e+06  -5.293932e+05
  -1.028813e+06  -2.070727e+06
   1.068507e+06  -2.271809e+06
   2.514479e+06  -9.152901e+05
   2.247078e+06   7.297017e+05
   8.474353e+05   1.320388e+06
  -2.457608e+05   8.701900e+05
  -3.585481e+05   4.502969e+05
  -4.156492e+04   7.375041e+05
  -1.071472e+05   1.300180e+06
  -6.912586e+05   1.258759e+06
  -1.280155e+06   2.863548e+05
  -1.281790e+06  -1.075953e+06
  -5.019194e+05  -1.849231e+06
   6.310747e+05  -1.380813e+06
   1.243328e+06   3.845541e+04
   7.476725e+05   1.279396e+06
  -4.374794e+05   1.346308e+06
  -1.165308e+06   3.333763e+05
  -7.709200e+05  -7.431267e+05
   1.792947e+05  -1.064868e+06
   5.798925e+05  -7.375812e+05
   1.079157e+05  -3.834807e+05
  -4.216633e+05  -3.267300e+05
  -5.511941e+04  -3.698196e+05
   1.133812e+06  -1.709794e+05
   2.014621e+06   3.797471e+05
   1.545062e+06   1.057585e+06
  -9.714605e+04   1.409705e+06
  -1.599923e+06   1.077609e+06
  -1.793585e+06   2.074955e+05
  -7.852310e+05  -5.334006e+05
   2.815829e+05  -5.619820e+05
   5.058481e+05  -5.777811e+03
   3.014972e+04   4.319117e+05
  -4.239317e+05   2.490589e+05
  -4.648783e+05  -3.414649e+05
  -2.595744e+05  -7.009749e+05
  -1.097872e+05  -4.670661e+05
  -1.307161e+05   6.983510e+04
  -2.538442e+05   2.551002e+05
  -2.565135e+05  -2.342899e+05
   1.431370e+05  -9.455280e+05
   8.967510e+05  -1.021177e+06
   1.360781e+06  -1.589390e+05
   8.428261e+05   9.061650e+05
  -4.277957e+05   1.125025e+06
  -1.249605e+06   3.297398e+05
  -7.062574e+05  -5.612616e+05
   7.023158e+05  -6.077039e+05
   1.523939e+06   1.433539e+05
   9.152566e+05   8.643984e+05
  -5.196398e+05   9.207979e+05
  -1.452232e+06   3.879899e+05
  -1.161174e+06  -2.333557e+05
  -1.029816e+05  -4.927143e+05
   6.385088e+05  -2.313710e+05
   3.766601e+05   3.042964e+05
  -5.631849e+05   5.133472e+05
  -1.152153e+06  -7.464725e+04
  -6.634417e+05  -1.147237e+06
   5.646950e+05  -1.659314e+06
   1.438537e+06  -8.608385e+05
   1.209216e+06   7.420111e+05
   1.723623e+05   1.733017e+06
  -7.381059e+05   1.222669e+06
  -8.851108e+05  -2.102172e+05
  -3.716286e+05  -1.164297e+06
   2.607552e+05  -9.145704e+05
   5.547840e+05  -5.685862e+04
   4.216344e+05   3.668348e+05
   1.302208e+05   1.255730e+05
   5.836943e+04  -8.246487e+04
   3.029401e+05   3.123186e+05
   4.911980e+05   9.542195e+05
   1.340471e+05   1.039692e+06
  -7.364085e+05   3.613858e+05
  -1.415849e+06  -4.738937e+05
  -1.194687e+06  -8.299667e+05
  -1.631779e+05  -6.865514e+05
   8.056661e+05  -3.984058e+05
   9.452591e+05  -1.507440e+05
   3.718167e+05   7.625659e+04
  -1.333433e+05   2.206036e+05
  -7.089126e+04   1.783976e+05
   2.199570e+05   7.228342e+04
   6.226941e+04   1.286802e+05
  -6.056556e+05   2.387450e+05
  -1.022001e+06  -1.157876e+04
  -4.686786e+05  -6.877412e+05
   7.947764e+05  -1.161412e+06
   1.687325e+06  -7.443498e+05
   1.417064e+06   4.141023e+05
   2.701627e+05   1.363139e+06
  -7.699040e+05   1.341839e+06
  -1.027744e+06   5.405417e+05
  -6.307942e+05  -2.088009e+05
  -1.441492e+05  -3.514777e+05
   3.607227e+04  -9.027574e+04
  -9.000260e+04  -1.266484e+04
  -2.689278e+05  -3.710055e+05
  -2.166765e+05  -7.868319e+05
   1.719931e+05  -6.682029e+05
   6.553151e+05   9.403050e+04
   7.387146e+05   9.041613e+05
   1.514920e+05   1.011338e+06
  -7.114229e+05   2.782739e+05
  -1.018438e+06  -6.698081e+05
  -3.600247e+05  -1.065366e+06
   6.923282e+05  -6.861763e+05
   1.108525e+06   6.782283e+04
   5.351768e+05   6.280317e+05
  -2.880942e+05   6.952039e+05
  -4.052590e+05   3.622343e+05
   2.042299e+05  -6.996573e+03
   6.223688e+05  -4.176458e+04
   1.535718e+05   3.084974e+05
  -8.060811e+05   6.503756e+05
  -1.257930e+06   4.876028e+05
  -7.760661e+05  -2.089918e+05
   9.561357e+04  -8.603324e+05
   5.755948e+05  -8.432434e+05
   4.547121e+05  -1.806126e+05
   7.177072e+04   4.517677e+05
  -2.284296e+05   4.439935e+05
  -3.420734e+05  -1.097379e+05
  -2.508091e+05  -5.614489e+05
   4.535116e+04  -4.479173e+05
   3.827416e+05   2.931488e+04
   4.723834e+05   2.997515e+05
   2.344790e+05   1.165408e+05
  -4.885787e+04  -1.748237e+05
  -7.717747e+04  -9.948352e+04
   6.120383e+04   3.243714e+05
   1.737861e+04   5.785001e+05
  -2.925395e+05   2.782171e+05
  -4.951976e+05  -3.304170e+05
  -2.152733e+05  -6.288747e+05
   3.805068e+05  -3.245002e+05
   6.717998e+05   2.502075e+05
   2.659258e+05   5.448795e+05
  -5.054854e+05   3.597707e+05
  -8.814590e+05  -5.929581e+04
  -4.767890e+05  -3.677055e+05
   2.879013e+05  -4.167312e+05
   6.340774e+05  -2.546500e+05
   2.729575e+05  -2.179570e+04
  -2.983044e+05   9.869354e+04
  -3.832974e+05  -1.973385e+04
   1.288146e+05  -2.607219e+05
   6.687269e+05  -2.691080e+05
