
 $NMID
 id='ANONYMOUS ', fmtdat='(2E16.6)'
 volume=1.0
 tramp=1.0
 $END
  -4.388254e+07   2.356951e+06
  -2.900243e+07  -2.420502e+07
   2.579505e+06  -2.984398e+07
   2.062069e+07  -1.457822e+07
   1.437917e+07   3.015487e+06
  -1.273845e+06   7.787321e+06
  -8.330810e+06   7.031936e+05
  -3.829698e+06  -7.609955e+06
   3.977596e+06  -8.995925e+06
   7.855383e+06  -2.957143e+06
   6.120691e+06   4.871090e+06
   9.276810e+05   7.371537e+06
  -3.297865e+06   2.186449e+06
  -2.456862e+06  -5.129019e+06
   2.786411e+06  -6.339766e+06
   6.642071e+06   2.743496e+05
   4.402758e+06   8.077568e+06
  -2.295156e+06   9.895566e+06
  -7.813132e+06   5.169640e+06
  -8.500978e+06  -1.408620e+06
  -5.050550e+06  -5.566798e+06
  -6.934214e+05  -6.142262e+06
   1.344463e+06  -4.396482e+06
   1.499762e+05  -2.765129e+06
  -1.537944e+06  -3.053526e+06
   2.300172e+05  -4.316476e+06
   5.345210e+06  -3.608882e+06
   8.584118e+06   8.991966e+03
   5.816010e+06   3.633192e+06
  -3.581077e+05   4.032247e+06
  -3.693762e+06   1.586644e+06
  -1.896100e+06  -7.940843e+05
   1.647022e+06  -1.289159e+06
   3.072369e+06  -2.799267e+04
   1.956769e+06   2.174606e+06
  -6.722986e+04   3.840772e+06
  -1.681287e+06   2.939525e+06
  -2.024083e+06  -4.644344e+05
  -8.404803e+05  -2.723279e+06
   4.386569e+05  -7.886164e+05
  -2.388698e+05   2.733472e+06
  -2.303118e+06   2.316624e+06
  -2.381092e+06  -2.393654e+06
   1.104563e+06  -5.146363e+06
   4.860166e+06  -1.458941e+06
   4.278076e+06   4.921160e+06
  -8.133911e+05   6.737762e+06
  -5.800324e+06   2.260910e+06
  -6.308318e+06  -3.471638e+06
  -2.209239e+06  -5.299026e+06
   2.933410e+06  -2.839833e+06
   5.070999e+06   8.785107e+05
   2.731211e+06   2.919498e+06
  -1.695515e+06   2.159102e+06
  -3.876388e+06  -3.600826e+05
  -1.940305e+06  -2.066652e+06
   1.296932e+06  -1.243886e+06
   1.749343e+06   8.095669e+05
  -7.333769e+05   1.229498e+06
  -2.333449e+06  -6.600046e+05
  -4.516705e+05  -2.497298e+06
   3.034497e+06  -2.049067e+06
   4.396824e+06   3.466174e+05
   2.313357e+06   2.947195e+06
  -1.503287e+06   4.499669e+06
  -4.594209e+06   4.167762e+06
  -5.417945e+06   1.371983e+06
  -3.727740e+06  -2.808753e+06
  -7.665916e+05  -5.390811e+06
   1.305426e+06  -4.455264e+06
   1.371654e+06  -1.691195e+06
   5.868095e+05  -3.130436e+05
   7.929573e+05  -9.104217e+05
   2.043349e+06  -1.157707e+06
   2.671939e+06   4.285332e+05
   1.599127e+06   2.328903e+06
  -4.377922e+05   2.228824e+06
  -1.885752e+06   7.610187e+03
  -1.709414e+06  -2.335136e+06
   1.554106e+05  -2.898321e+06
   2.650583e+06  -1.325047e+06
   3.874690e+06   1.289666e+06
   2.631179e+06   3.238961e+06
  -1.213524e+04   3.404939e+06
  -1.700932e+06   2.214008e+06
  -1.670248e+06   1.129607e+06
  -1.567286e+06   8.872626e+05
  -2.807347e+06   6.786028e+05
  -4.214474e+06  -5.657862e+05
  -3.438463e+06  -2.599660e+06
  -1.751983e+05  -4.050716e+06
   3.201805e+06  -3.815171e+06
   4.184892e+06  -1.899867e+06
   2.504912e+06   6.447401e+05
  -1.153247e+04   2.220877e+06
  -1.259794e+06   1.741390e+06
  -5.085610e+05  -1.187161e+05
   1.138814e+06  -1.229594e+06
   1.808677e+06  -3.743332e+05
   7.955052e+05   1.117312e+06
  -5.961051e+05   1.089133e+06
  -5.838827e+05  -3.900733e+05
   8.619311e+05  -9.856155e+05
   1.950011e+06   7.066183e+05
   1.212183e+06   3.158107e+06
  -9.590618e+05   3.751551e+06
  -2.995641e+06   1.783220e+06
  -3.651655e+06  -1.105198e+06
  -2.627165e+06  -2.890027e+06
  -5.252986e+05  -2.805407e+06
   1.311807e+06  -1.460917e+06
   1.606093e+06  -1.572646e+05
   4.904687e+05   4.724923e+04
  -3.637140e+05  -7.427877e+05
   3.363977e+05  -1.282186e+06
   1.773387e+06  -5.948233e+05
   1.988956e+06   7.589273e+05
   4.601794e+05   1.335395e+06
  -1.141929e+06   6.110794e+05
  -9.780785e+05  -4.597082e+05
   8.123960e+05  -6.834245e+05
   2.339924e+06   1.602084e+05
   1.969527e+06   1.397825e+06
  -1.643106e+05   2.145266e+06
  -2.351102e+06   1.766648e+06
  -2.797851e+06   3.054606e+05
  -1.213268e+06  -1.202547e+06
   8.528531e+05  -1.416762e+06
   1.443794e+06  -1.915084e+05
   1.581556e+05   1.006170e+06
  -1.482660e+06   7.187634e+05
  -1.732729e+06  -7.293300e+05
  -4.334719e+05  -1.656324e+06
   1.031571e+06  -1.087640e+06
   1.309123e+06   2.007756e+05
   3.406827e+05   7.606746e+05
  -7.416383e+05   8.727153e+04
  -7.135354e+05  -1.026473e+06
   5.936251e+05  -1.394822e+06
   2.000108e+06  -5.041124e+05
   2.005027e+06   1.058912e+06
   3.851080e+05   2.050617e+06
  -1.398016e+06   1.644458e+06
  -1.714303e+06   2.509467e+05
  -5.450630e+05  -8.547592e+05
   6.410846e+05  -8.321654e+05
   6.846102e+05  -5.885383e+04
  -9.510320e+04   4.668407e+05
  -5.911943e+05   2.900365e+05
  -2.728202e+05  -1.286678e+05
   3.986822e+05  -7.831099e+04
   5.904197e+05   5.713276e+05
  -1.220260e+05   1.184095e+06
  -1.354532e+06   9.232874e+05
  -2.080308e+06  -3.966232e+05
  -1.458534e+06  -1.931715e+06
   2.240732e+05  -2.439494e+06
   1.645261e+06  -1.480469e+06
   1.775960e+06   8.825486e+04
   9.510637e+05   9.905915e+05
   3.121454e+05   8.260733e+05
   3.660577e+05   3.014309e+05
   5.319085e+05   2.500154e+05
   9.211627e+04   6.920408e+05
  -8.468865e+05   9.278863e+05
  -1.482535e+06   3.762966e+05
  -1.122587e+06  -7.601725e+05
   2.208570e+05  -1.559917e+06
   1.748131e+06  -1.133930e+06
   2.289796e+06   4.751165e+05
   1.189736e+06   2.097098e+06
  -9.296149e+05   2.380197e+06
  -2.497968e+06   1.103585e+06
  -2.414061e+06  -5.834347e+05
  -1.078480e+06  -1.365502e+06
   1.658720e+05  -1.065719e+06
   4.859168e+05  -5.883387e+05
   2.094275e+05  -7.096403e+05
   1.505275e+05  -1.209334e+06
   6.342329e+05  -1.231940e+06
   1.247483e+06  -3.072780e+05
   1.315150e+06   1.086583e+06
   5.422482e+05   1.899729e+06
  -6.368207e+05   1.434883e+06
  -1.299911e+06   1.104125e+04
  -8.446616e+05  -1.252068e+06
   3.269159e+05  -1.405931e+06
   1.108539e+06  -4.987084e+05
   8.304669e+05   5.797585e+05
  -2.770643e+04   1.030660e+06
  -4.392444e+05   8.212491e+05
  -5.429270e+04   4.678095e+05
   4.086199e+05   3.544347e+05
   4.467501e+04   3.899421e+05
  -1.117655e+06   2.309103e+05
  -2.019898e+06  -3.015859e+05
  -1.625204e+06  -1.004231e+06
  -3.444813e+04  -1.404054e+06
   1.513159e+06  -1.136764e+06
   1.818438e+06  -3.279511e+05
   8.777921e+05   4.181573e+05
  -2.191370e+05   5.385090e+05
  -4.983378e+05   7.271710e+04
  -1.713809e+04  -3.654353e+05
   4.666643e+05  -2.362669e+05
   4.710494e+05   3.424205e+05
   1.871819e+05   7.260849e+05
   3.733654e+04   4.694374e+05
   1.553019e+05  -1.345315e+05
   3.400323e+05  -3.320337e+05
   2.887479e+05   2.292996e+05
  -1.783580e+05   1.000432e+06
  -8.964368e+05   1.055374e+06
  -1.283649e+06   1.516850e+05
  -7.811043e+05  -9.013325e+05
   4.033747e+05  -1.084553e+06
   1.205090e+06  -2.889032e+05
   7.194900e+05   5.921580e+05
  -6.930545e+05   6.644300e+05
  -1.627438e+06  -7.371036e+04
  -1.089234e+06  -8.736988e+05
   4.437708e+05  -1.055405e+06
   1.543465e+06  -5.548512e+05
   1.301886e+06   1.660724e+05
   1.597237e+05   5.386867e+05
  -6.537382e+05   2.983345e+05
  -3.717893e+05  -2.730760e+05
   6.072231e+05  -4.881898e+05
   1.170353e+06   1.242174e+05
   6.145699e+05   1.194669e+06
  -6.498568e+05   1.670542e+06
  -1.511126e+06   8.400941e+05
  -1.251635e+06  -7.863273e+05
  -1.854669e+05  -1.815002e+06
   7.611009e+05  -1.329295e+06
   9.521102e+05   1.515533e+05
   4.660389e+05   1.209729e+06
  -1.895572e+05   1.015002e+06
  -5.599836e+05   1.052110e+05
  -4.979072e+05  -4.002034e+05
  -1.957315e+05  -1.617154e+05
  -3.954536e+04   1.110902e+05
  -2.387567e+05  -2.590962e+05
  -4.946207e+05  -9.604221e+05
  -2.271832e+05  -1.110021e+06
   6.773543e+05  -4.184763e+05
   1.492487e+06   4.788699e+05
   1.326770e+06   8.622772e+05
   1.911628e+05   6.987861e+05
  -8.942894e+05   4.044409e+05
  -1.010186e+06   1.882009e+05
  -3.425698e+05  -2.598019e+04
   1.593030e+05  -2.190943e+05
   5.288371e+03  -2.388620e+05
  -2.993266e+05  -1.320878e+05
  -3.395000e+04  -1.314249e+05
   7.048647e+05  -2.044732e+05
   1.044551e+06   2.695271e+04
   3.769972e+05   6.721058e+05
  -8.816745e+05   1.144532e+06
  -1.678076e+06   7.334473e+05
  -1.362566e+06  -4.458665e+05
  -2.521879e+05  -1.417485e+06
   7.642031e+05  -1.371286e+06
   1.048601e+06  -5.110648e+05
   6.559971e+05   2.597264e+05
   1.171229e+05   3.547089e+05
  -9.484122e+04   3.300933e+04
   7.919271e+04  -4.564777e+04
   3.215554e+05   3.669151e+05
   2.592251e+05   8.197751e+05
  -1.879893e+05   6.719999e+05
  -6.823944e+05  -1.510705e+05
  -7.093675e+05  -9.751532e+05
  -7.577765e+04  -1.019308e+06
   7.656259e+05  -2.059786e+05
   1.014832e+06   7.542828e+05
   3.248791e+05   1.086561e+06
  -7.154873e+05   6.519842e+05
  -1.104441e+06  -8.285276e+04
  -5.221563e+05  -5.886623e+05
   2.775050e+05  -6.522094e+05
   3.539754e+05  -3.719055e+05
  -2.727427e+05  -3.302470e+04
  -6.587941e+05   2.892827e+04
  -1.384187e+05  -3.006972e+05
   8.346382e+05  -6.827403e+05
   1.253023e+06  -5.688373e+05
   7.464625e+05   1.477578e+05
  -9.853894e+04   8.611499e+05
  -5.293755e+05   8.569063e+05
  -3.920919e+05   1.522926e+05
  -3.236976e+04  -4.871320e+05
   2.411292e+05  -4.193226e+05
   3.444072e+05   1.746036e+05
   2.486925e+05   5.805803e+05
  -5.176394e+04   4.038462e+05
  -3.870676e+05  -5.677052e+04
  -4.755638e+05  -2.631630e+05
  -2.496260e+05  -8.245769e+04
   2.977818e+04   1.264539e+05
   9.968338e+04   3.932758e+03
   3.011786e+04  -3.563293e+05
   8.872604e+04  -5.050279e+05
   3.174010e+05  -1.673199e+05
   4.141658e+05   3.976319e+05
   1.104743e+05   6.364541e+05
  -4.183773e+05   2.971810e+05
  -6.433848e+05  -2.921483e+05
  -2.363210e+05  -5.813594e+05
   5.025367e+05  -3.649775e+05
   8.675644e+05   8.359901e+04
   4.725481e+05   3.786708e+05
  -2.886724e+05   3.832549e+05
  -6.267332e+05   2.078538e+05
  -2.315055e+05   2.206773e+04
   3.652532e+05  -3.679558e+04
   4.074517e+05   9.627135e+04
  -1.980654e+05   2.980092e+05
  -7.816925e+05   2.533904e+05
