
 $NMID
 id='ANONYMOUS ', fmtdat='(2E16.6)'
 volume=1.0
 tramp=1.0
 $END
   4.786786e+07  -7.058682e+05
   3.005628e+07   2.719407e+07
  -4.101914e+06   3.184952e+07
  -2.240080e+07   1.492877e+07
  -1.496460e+07  -3.459939e+06
   1.575723e+06  -8.104835e+06
   8.681468e+06  -6.072361e+05
   3.876785e+06   8.031135e+06
  -4.237022e+06   9.463168e+06
  -8.345523e+06   3.023099e+06
  -6.558614e+06  -5.412341e+06
  -9.342663e+05  -8.068718e+06
   3.699901e+06  -2.334673e+06
   2.762446e+06   5.622868e+06
  -2.959413e+06   6.820540e+06
  -7.081363e+06  -4.312782e+05
  -4.562156e+06  -8.816980e+06
   2.729696e+06  -1.064178e+07
   8.676528e+06  -5.380487e+06
   9.288945e+06   1.879927e+06
   5.277129e+06   6.403752e+06
   3.227010e+05   6.780575e+06
  -1.777554e+06   4.516009e+06
  -7.585305e+04   2.637307e+06
   2.005349e+06   3.220187e+06
  -9.850580e+04   4.891599e+06
  -5.996284e+06   4.117912e+06
  -9.598867e+06  -3.819638e+04
  -6.393959e+06  -4.147034e+06
   5.343998e+05  -4.599706e+06
   4.264519e+06  -1.840769e+06
   2.308703e+06   9.615530e+05
  -1.687876e+06   1.718702e+06
  -3.497940e+06   3.177151e+05
  -2.415166e+06  -2.391135e+06
  -3.220378e+04  -4.426675e+06
   1.990264e+06  -3.275649e+06
   2.343571e+06   7.405270e+05
   7.851936e+05   3.197560e+06
  -7.461219e+05   8.073740e+05
   1.155997e+05  -3.164890e+06
   2.476800e+06  -2.584609e+06
   2.494221e+06   2.592503e+06
  -1.335885e+06   5.384582e+06
  -5.230507e+06   1.219397e+06
  -4.360621e+06  -5.540615e+06
   1.172730e+06  -7.201755e+06
   6.394631e+06  -2.250010e+06
   6.818129e+06   3.830131e+06
   2.397694e+06   5.703467e+06
  -3.127807e+06   3.074176e+06
  -5.455087e+06  -8.823126e+05
  -2.951110e+06  -3.064362e+06
   1.817559e+06  -2.237774e+06
   4.141867e+06   4.567253e+05
   2.031879e+06   2.222216e+06
  -1.427208e+06   1.295607e+06
  -1.893107e+06  -8.407106e+05
   7.024247e+05  -1.219236e+06
   2.316720e+06   7.100905e+05
   3.183612e+05   2.480639e+06
  -3.271704e+06   1.945716e+06
  -4.620337e+06  -4.915972e+05
  -2.381700e+06  -3.198179e+06
   1.724433e+06  -4.946350e+06
   5.126139e+06  -4.638151e+06
   6.043449e+06  -1.478947e+06
   4.115464e+06   3.209966e+06
   8.066768e+05   5.976194e+06
  -1.394235e+06   4.816516e+06
  -1.347908e+06   1.808651e+06
  -4.950062e+05   4.708389e+05
  -8.669192e+05   1.234557e+06
  -2.382897e+06   1.442613e+06
  -3.126529e+06  -4.366537e+05
  -1.923909e+06  -2.629790e+06
   4.012242e+05  -2.578943e+06
   2.122057e+06  -1.374447e+05
   2.005686e+06   2.520271e+06
  -1.035895e+05   3.237326e+06
  -2.969504e+06   1.504615e+06
  -4.339236e+06  -1.464764e+06
  -2.870232e+06  -3.652309e+06
   1.218250e+05  -3.760318e+06
   1.946324e+06  -2.355924e+06
   1.821450e+06  -1.157235e+06
   1.660246e+06  -9.549424e+05
   3.035225e+06  -7.860479e+05
   4.621910e+06   5.514470e+05
   3.822720e+06   2.793835e+06
   2.767143e+05   4.455381e+06
  -3.459044e+06   4.292359e+06
  -4.623809e+06   2.208916e+06
  -2.834299e+06  -6.824350e+05
  -4.160149e+04  -2.520518e+06
   1.388318e+06  -1.992438e+06
   5.796736e+05   1.306772e+05
  -1.245481e+06   1.394405e+06
  -1.988025e+06   4.308106e+05
  -8.812919e+05  -1.242173e+06
   6.329727e+05  -1.229626e+06
   6.459439e+05   3.791270e+05
  -8.593216e+05   1.049539e+06
  -2.021233e+06  -7.196298e+05
  -1.327033e+06  -3.315865e+06
   8.840194e+05  -3.997657e+06
   3.091935e+06  -1.998749e+06
   3.968116e+06   1.040891e+06
   3.001558e+06   3.028136e+06
   6.995800e+05   3.060926e+06
  -1.409682e+06   1.664477e+06
  -1.784028e+06   2.236414e+05
  -5.421943e+05  -3.900395e+04
   4.146917e+05   8.092601e+05
  -3.583925e+05   1.401031e+06
  -1.937885e+06   6.610405e+05
  -2.174180e+06  -8.027281e+05
  -5.128562e+05  -1.439058e+06
   1.234827e+06  -6.864364e+05
   1.084786e+06   4.643531e+05
  -8.433182e+05   7.609395e+05
  -2.543728e+06  -8.385423e+04
  -2.213381e+06  -1.436740e+06
   8.622193e+04  -2.345602e+06
   2.520180e+06  -2.014547e+06
   3.067870e+06  -4.114376e+05
   1.349248e+06   1.296174e+06
  -9.286972e+05   1.564212e+06
  -1.585764e+06   2.149640e+05
  -1.772009e+05  -1.116077e+06
   1.622749e+06  -8.168473e+05
   1.911620e+06   7.600672e+05
   5.154892e+05   1.787612e+06
  -1.081513e+06   1.202251e+06
  -1.413469e+06  -1.797697e+05
  -3.817103e+05  -8.032305e+05
   8.104955e+05  -9.322540e+04
   8.029151e+05   1.127093e+06
  -6.335037e+05   1.560126e+06
  -2.208292e+06   6.014261e+05
  -2.240674e+06  -1.129717e+06
  -4.668371e+05  -2.252525e+06
   1.501777e+06  -1.834837e+06
   1.870625e+06  -3.146367e+05
   6.140515e+05   9.147600e+05
  -6.795398e+05   9.235111e+05
  -7.538754e+05   9.304265e+04
   7.036157e+04  -5.082400e+05
   6.242876e+05  -3.565894e+05
   3.174792e+05   9.695520e+04
  -4.005612e+05   8.113743e+04
  -6.397170e+05  -5.998543e+05
   1.081314e+05  -1.289469e+06
   1.466962e+06  -1.044955e+06
   2.301819e+06   3.886676e+05
   1.653611e+06   2.099079e+06
  -1.820499e+05   2.698249e+06
  -1.758420e+06   1.679344e+06
  -1.948006e+06  -3.034977e+04
  -1.097283e+06  -1.039088e+06
  -4.136910e+05  -8.983626e+05
  -4.383973e+05  -3.509810e+05
  -5.807422e+05  -2.912938e+05
  -1.011846e+05  -7.654730e+05
   9.052828e+05  -1.039365e+06
   1.615058e+06  -4.619101e+05
   1.269611e+06   7.910124e+05
  -1.781991e+05   1.718818e+06
  -1.886060e+06   1.301409e+06
  -2.536621e+06  -4.576401e+05
  -1.360614e+06  -2.270968e+06
   9.680108e+05  -2.626489e+06
   2.711234e+06  -1.263068e+06
   2.653846e+06   5.702782e+05
   1.225547e+06   1.445214e+06
  -1.257903e+05   1.164457e+06
  -4.971401e+05   6.849308e+05
  -2.209883e+05   8.254838e+05
  -1.611286e+05   1.353983e+06
  -6.860358e+05   1.366580e+06
  -1.373616e+06   3.571223e+05
  -1.480038e+06  -1.173021e+06
  -6.461093e+05  -2.086819e+06
   6.681298e+05  -1.602422e+06
   1.429550e+06  -4.629706e+04
   9.520918e+05   1.353827e+06
  -3.265245e+05   1.541315e+06
  -1.187800e+06   5.583224e+05
  -8.977294e+05  -6.193460e+05
   2.184002e+04  -1.113930e+06
   4.586063e+05  -8.884804e+05
   3.551288e+04  -5.062608e+05
  -4.671935e+05  -3.868748e+05
  -6.244287e+04  -4.339206e+05
   1.224211e+06  -2.738174e+05
   2.231811e+06   2.964726e+05
   1.809232e+06   1.068468e+06
   5.928687e+04   1.530532e+06
  -1.647558e+06   1.270354e+06
  -1.984893e+06   3.999244e+05
  -9.550920e+05  -4.315881e+05
   2.390740e+05  -5.898458e+05
   5.383058e+05  -8.724562e+04
   1.443903e+04   4.098720e+05
  -5.132483e+05   2.813397e+05
  -5.296313e+05  -3.683404e+05
  -2.300770e+05  -8.153785e+05
  -5.348812e+04  -5.342765e+05
  -1.559747e+05   1.561854e+05
  -3.539904e+05   3.904307e+05
  -3.247567e+05  -2.437286e+05
   1.658968e+05  -1.120973e+06
   9.687564e+05  -1.188307e+06
   1.426777e+06  -1.775471e+05
   8.855418e+05   9.981155e+05
  -4.355985e+05   1.207894e+06
  -1.341184e+06   3.367997e+05
  -8.159380e+05  -6.388465e+05
   7.441798e+05  -7.473350e+05
   1.789540e+06   3.036056e+04
   1.222612e+06   9.122206e+05
  -4.461953e+05   1.160575e+06
  -1.664945e+06   6.594849e+05
  -1.429837e+06  -1.325317e+05
  -1.951651e+05  -5.815986e+05
   7.054453e+05  -3.441163e+05
   4.110964e+05   2.982053e+05
  -6.684515e+05   5.629010e+05
  -1.310288e+06  -1.102776e+05
  -7.160690e+05  -1.321788e+06
   6.829790e+05  -1.882618e+06
   1.661242e+06  -9.771580e+05
   1.411510e+06   8.371537e+05
   2.580075e+05   2.004279e+06
  -7.957572e+05   1.490943e+06
  -1.045424e+06  -1.378841e+05
  -5.467270e+05  -1.312778e+06
   1.732179e+05  -1.112261e+06
   6.099158e+05  -1.267806e+05
   5.643521e+05   4.182601e+05
   2.250002e+05   1.614850e+05
   3.637863e+04  -1.190056e+05
   2.613244e+05   2.977209e+05
   5.683954e+05   1.054805e+06
   2.844947e+05   1.205436e+06
  -7.337207e+05   4.634812e+05
  -1.663350e+06  -4.861593e+05
  -1.490917e+06  -9.026808e+05
  -2.276167e+05  -7.656580e+05
   9.797682e+05  -4.842474e+05
   1.107335e+06  -2.405455e+05
   3.716446e+05   2.962359e+04
  -1.715403e+05   2.512042e+05
   9.149379e+03   2.497242e+05
   3.442195e+05   1.230872e+05
   4.159148e+04   1.513564e+05
  -7.818307e+05   2.619433e+05
  -1.161866e+06  -4.632593e+03
  -4.314661e+05  -7.573734e+05
   9.559795e+05  -1.305052e+06
   1.849737e+06  -8.452596e+05
   1.528923e+06   4.775172e+05
   3.194725e+05   1.569486e+06
  -8.153427e+05   1.534652e+06
  -1.159095e+06   5.929547e+05
  -7.425631e+05  -2.688728e+05
  -1.382773e+05  -3.970182e+05
   1.142853e+05  -5.232935e+04
  -7.569715e+04   4.804395e+04
  -3.613079e+05  -3.905814e+05
  -3.084069e+05  -8.949300e+05
   1.945010e+05  -7.520401e+05
   7.704903e+05   1.472624e+05
   8.210560e+05   1.071446e+06
   1.082418e+05   1.144045e+06
  -8.577864e+05   2.569270e+05
  -1.157769e+06  -8.144390e+05
  -3.874717e+05  -1.205377e+06
   7.870278e+05  -7.434833e+05
   1.230386e+06   7.050448e+04
   5.835100e+05   6.472309e+05
  -3.044504e+05   7.287287e+05
  -3.857340e+05   4.086950e+05
   3.087902e+05   1.564568e+04
   7.318555e+05  -5.301229e+04
   1.586447e+05   3.342558e+05
  -9.049754e+05   7.784729e+05
  -1.362766e+06   6.518323e+05
  -8.197880e+05  -1.572809e+05
   9.202972e+04  -9.577743e+05
   5.692804e+05  -9.513984e+05
   4.400310e+05  -1.652734e+05
   5.419032e+04   5.464703e+05
  -2.637342e+05   4.735942e+05
  -3.986018e+05  -1.840075e+05
  -2.913554e+05  -6.389989e+05
   5.806892e+04  -4.519907e+05
   4.358481e+05   5.350848e+04
   5.252559e+05   2.832452e+05
   2.711955e+05   8.465265e+04
  -2.641586e+04  -1.453482e+05
  -9.063877e+04  -1.328598e+03
  -1.669480e+04   4.130910e+05
  -9.935604e+04   5.859835e+05
  -3.701268e+05   2.009354e+05
  -4.837821e+05  -4.467494e+05
  -1.405211e+05  -7.247363e+05
   4.624528e+05  -3.466637e+05
   7.291814e+05   3.156292e+05
   2.821270e+05   6.451131e+05
  -5.495097e+05   4.141603e+05
  -9.696573e+05  -7.759934e+04
  -5.340682e+05  -4.112828e+05
   3.194033e+05  -4.321596e+05
   7.007396e+05  -2.431322e+05
   2.577256e+05  -2.088876e+04
  -4.144064e+05   6.348480e+04
  -4.682263e+05  -9.115706e+04
   2.039323e+05  -3.469189e+05
   8.612280e+05  -3.197014e+05
