
 $NMID
 id='ANONYMOUS ', fmtdat='(2E16.6)'
 volume=1.0
 tramp=1.0
 $END
  -3.552271e+07  -3.432551e+05
  -2.224446e+07  -1.913132e+07
   2.389362e+06  -2.292420e+07
   1.608324e+07  -1.217992e+07
   1.149270e+07   1.082338e+06
  -5.012758e+05   6.028230e+06
  -6.598175e+06   1.471141e+06
  -3.771771e+06  -5.760501e+06
   2.520739e+06  -7.986993e+06
   6.295468e+06  -3.009402e+06
   5.192591e+06   4.297921e+06
   6.814964e+05   6.599843e+06
  -3.088528e+06   1.650468e+06
  -2.400632e+06  -4.988674e+06
   2.095782e+06  -5.918094e+06
   5.473173e+06  -3.652392e+04
   3.721315e+06   6.713260e+06
  -1.932064e+06   8.214048e+06
  -6.632739e+06   3.982770e+06
  -6.914086e+06  -1.789500e+06
  -3.445977e+06  -4.986017e+06
   2.377396e+05  -4.641335e+06
   1.010536e+06  -2.749119e+06
  -1.013635e+06  -2.049353e+06
  -2.331283e+06  -3.370511e+06
   3.130367e+05  -4.670370e+06
   5.595470e+06  -3.319301e+06
   8.237299e+06   5.212993e+05
   5.012072e+06   3.735721e+06
  -1.077162e+06   3.735195e+06
  -4.116614e+06   1.109852e+06
  -1.958428e+06  -1.498595e+06
   2.092739e+06  -2.043102e+06
   3.787842e+06  -2.098398e+05
   2.231865e+06   2.683338e+06
  -4.482376e+05   4.158042e+06
  -1.938187e+06   2.402113e+06
  -1.480892e+06  -1.173515e+06
   9.413948e+03  -2.561246e+06
   7.288270e+05   3.258407e+04
  -3.771373e+05   3.195326e+06
  -2.140741e+06   2.347402e+06
  -2.072570e+06  -1.879471e+06
   5.892035e+05  -4.027679e+06
   3.384626e+06  -9.556652e+05
   3.061326e+06   3.984999e+06
  -7.368360e+05   5.239451e+06
  -4.855679e+06   1.644010e+06
  -5.641741e+06  -2.983377e+06
  -2.290924e+06  -4.653535e+06
   2.474435e+06  -2.787217e+06
   4.726629e+06   4.106457e+05
   2.767661e+06   2.365849e+06
  -1.225058e+06   1.877702e+06
  -3.268115e+06  -1.931143e+05
  -1.714053e+06  -1.629254e+06
   1.073070e+06  -1.028061e+06
   1.692910e+06   6.242410e+05
  -2.074826e+05   1.183044e+06
  -1.790830e+06   2.386241e+03
  -7.502517e+05  -1.453538e+06
   1.963746e+06  -1.533917e+06
   3.435211e+06   4.254212e+03
   1.958349e+06   2.270287e+06
  -1.524505e+06   3.978999e+06
  -4.534793e+06   3.750548e+06
  -5.104796e+06   9.842885e+05
  -3.169709e+06  -2.877064e+06
  -4.867721e+05  -5.005361e+06
   9.751546e+05  -4.078858e+06
   8.731910e+05  -1.845920e+06
   5.727253e+05  -8.623448e+05
   1.289933e+06  -1.273221e+06
   2.568786e+06  -1.051296e+06
   2.918943e+06   8.125771e+05
   1.600930e+06   2.726848e+06
  -6.162258e+05   2.513864e+06
  -2.186738e+06   9.440830e+04
  -1.924315e+06  -2.437305e+06
   1.810318e+05  -2.965766e+06
   2.701813e+06  -1.161057e+06
   3.617503e+06   1.504278e+06
   2.152801e+06   3.123198e+06
  -2.621492e+05   2.911668e+06
  -1.517436e+06   1.711861e+06
  -1.302719e+06   9.269888e+05
  -1.289532e+06   9.433492e+05
  -2.621732e+06   8.300840e+05
  -4.073222e+06  -3.750377e+05
  -3.423588e+06  -2.417018e+06
  -2.950714e+05  -3.986908e+06
   3.124677e+06  -3.869315e+06
   4.242383e+06  -1.902916e+06
   2.540140e+06   7.775633e+05
  -1.267715e+05   2.350175e+06
  -1.397540e+06   1.736525e+06
  -5.183037e+05  -1.829538e+05
   1.173206e+06  -1.241042e+06
   1.752735e+06  -3.668178e+05
   7.107939e+05   1.101565e+06
  -6.277597e+05   1.128867e+06
  -6.944947e+05  -3.031383e+05
   5.738768e+05  -1.097599e+06
   1.763569e+06   2.452339e+05
   1.508417e+06   2.657679e+06
  -2.951388e+05   3.700179e+06
  -2.540049e+06   2.224956e+06
  -3.740888e+06  -6.208323e+05
  -2.996987e+06  -2.724051e+06
  -7.495342e+05  -2.877288e+06
   1.311973e+06  -1.532442e+06
   1.651642e+06  -1.743835e+05
   4.900598e+05   3.480591e+04
  -3.853393e+05  -7.237245e+05
   2.778391e+05  -1.218597e+06
   1.663363e+06  -5.933481e+05
   1.920477e+06   6.407764e+05
   5.067218e+05   1.235166e+06
  -1.086678e+06   6.567701e+05
  -1.052336e+06  -3.899341e+05
   6.858947e+05  -7.963718e+05
   2.365462e+06  -9.445384e+04
   2.175046e+06   1.250299e+06
   4.214590e+04   2.217796e+06
  -2.265683e+06   1.929374e+06
  -2.783952e+06   4.216663e+05
  -1.212999e+06  -1.126772e+06
   8.102525e+05  -1.352755e+06
   1.361206e+06  -1.765403e+05
   1.228016e+05   9.750169e+05
  -1.446992e+06   7.335327e+05
  -1.734786e+06  -6.357442e+05
  -5.456699e+05  -1.595155e+06
   9.033952e+05  -1.157965e+06
   1.291208e+06   6.393680e+04
   4.138358e+05   6.896602e+05
  -6.873366e+05   1.048772e+05
  -7.167195e+05  -9.969562e+05
   5.755901e+05  -1.401002e+06
   1.995321e+06  -5.351317e+05
   2.016993e+06   1.017810e+06
   4.336542e+05   2.018086e+06
  -1.317784e+06   1.661238e+06
  -1.673669e+06   3.204858e+05
  -5.889357e+05  -8.069952e+05
   5.902070e+05  -8.597581e+05
   7.255866e+05  -9.240705e+04
  -1.033152e+04   5.289057e+05
  -6.057019e+05   4.138662e+05
  -4.089460e+05  -8.448234e+04
   2.819935e+05  -1.685207e+05
   6.028743e+05   4.464406e+05
  -2.985501e+04   1.138705e+06
  -1.289086e+06   9.668076e+05
  -2.077056e+06  -3.210267e+05
  -1.502873e+06  -1.878099e+06
   1.460849e+05  -2.455972e+06
   1.582311e+06  -1.586157e+06
   1.811526e+06  -3.420929e+04
   1.087144e+06   9.739312e+05
   4.204478e+05   9.318255e+05
   3.421311e+05   3.996309e+05
   4.431808e+05   2.386150e+05
   7.770189e+04   6.375419e+05
  -7.813062e+05   9.535683e+05
  -1.461664e+06   4.737992e+05
  -1.210546e+06  -7.094151e+05
   1.003310e+05  -1.613356e+06
   1.693625e+06  -1.239508e+06
   2.322026e+06   3.763546e+05
   1.286939e+06   2.025199e+06
  -7.941312e+05   2.371812e+06
  -2.392002e+06   1.202090e+06
  -2.429201e+06  -4.262683e+05
  -1.212571e+06  -1.284968e+06
   4.489709e+04  -1.127832e+06
   4.913842e+05  -7.033131e+05
   2.976139e+05  -7.523491e+05
   1.958547e+05  -1.169916e+06
   6.010759e+05  -1.191582e+06
   1.210632e+06  -3.123901e+05
   1.332858e+06   1.061102e+06
   5.904479e+05   1.890860e+06
  -6.044333e+05   1.457166e+06
  -1.300038e+06   6.615496e+04
  -8.862692e+05  -1.186293e+06
   2.360983e+05  -1.386547e+06
   1.006722e+06  -5.659680e+05
   7.986536e+05   4.640003e+05
   4.478419e+04   9.496818e+05
  -3.276494e+05   8.092120e+05
   7.099360e+03   4.876251e+05
   4.107537e+05   3.665215e+05
   4.935512e+04   3.995489e+05
  -1.075659e+06   2.619881e+05
  -1.978634e+06  -2.415300e+05
  -1.640285e+06  -9.270756e+05
  -1.097900e+05  -1.341738e+06
   1.426224e+06  -1.137289e+06
   1.769702e+06  -4.085448e+05
   8.788909e+05   3.163340e+05
  -1.898392e+05   5.008694e+05
  -4.652140e+05   1.071770e+05
   1.097457e+04  -3.322151e+05
   4.867105e+05  -2.457618e+05
   4.723010e+05   3.341050e+05
   1.628532e+05   7.566188e+05
   4.320109e+03   4.922292e+05
   1.416222e+05  -1.761655e+05
   3.502107e+05  -4.024814e+05
   3.028752e+05   2.096873e+05
  -1.662959e+05   1.032971e+06
  -8.671912e+05   1.070775e+06
  -1.234410e+06   1.295988e+05
  -7.481750e+05  -9.068221e+05
   3.934502e+05  -1.048690e+06
   1.183969e+06  -2.586803e+05
   7.351288e+05   5.923417e+05
  -6.567258e+05   6.889289e+05
  -1.640703e+06   1.162971e+04
  -1.177679e+06  -7.996147e+05
   3.447171e+05  -1.090109e+06
   1.511706e+06  -6.791385e+05
   1.338949e+06   6.983055e+04
   2.077661e+05   5.357265e+05
  -6.296832e+05   3.402658e+05
  -3.572347e+05  -2.539152e+05
   6.296263e+05  -4.918395e+05
   1.188276e+06   1.328693e+05
   6.103500e+05   1.221237e+06
  -6.710033e+05   1.696765e+06
  -1.535738e+06   8.591194e+05
  -1.283544e+06  -7.773902e+05
  -2.332660e+05  -1.834238e+06
   7.177522e+05  -1.385525e+06
   9.577950e+05   8.903076e+04
   5.355551e+05   1.184683e+06
  -1.077436e+05   1.033337e+06
  -5.395877e+05   1.353795e+05
  -5.475744e+05  -3.824827e+05
  -2.417729e+05  -1.538870e+05
  -1.867911e+04   1.181834e+05
  -1.869429e+05  -2.508779e+05
  -5.013982e+05  -9.502586e+05
  -3.059761e+05  -1.101131e+06
   6.177604e+05  -4.277872e+05
   1.523527e+06   4.386244e+05
   1.400168e+06   8.137771e+05
   2.134098e+05   6.871190e+05
  -9.261094e+05   4.422008e+05
  -1.019345e+06   2.364673e+05
  -3.067178e+05  -7.933699e+03
   1.702014e+05  -2.267477e+05
  -5.151372e+04  -2.438955e+05
  -3.597086e+05  -1.305137e+05
  -2.154057e+04  -1.415203e+05
   7.597432e+05  -2.261734e+05
   1.052556e+06   1.847741e+04
   3.264275e+05   6.880942e+05
  -9.156023e+05   1.163409e+06
  -1.656730e+06   7.305898e+05
  -1.337166e+06  -4.672629e+05
  -2.708861e+05  -1.436887e+06
   7.333414e+05  -1.377759e+06
   1.056387e+06  -5.071011e+05
   6.833437e+05   2.691700e+05
   1.064106e+05   3.620097e+05
  -1.441389e+05   2.538438e+04
   5.172275e+04  -7.173322e+04
   3.469507e+05   3.402459e+05
   2.967595e+05   8.122560e+05
  -1.881160e+05   6.753617e+05
  -7.119257e+05  -1.639307e+05
  -7.209182e+05  -1.007993e+06
  -4.689052e+04  -1.040882e+06
   8.108060e+05  -1.923207e+05
   1.039709e+06   7.843359e+05
   3.197563e+05   1.097684e+06
  -7.281042e+05   6.423390e+05
  -1.098429e+06  -8.277902e+04
  -5.013924e+05  -5.639275e+05
   2.798655e+05  -6.228985e+05
   3.184340e+05  -3.581200e+05
  -3.195785e+05  -2.670799e+04
  -6.757047e+05   4.019584e+04
  -1.289163e+05  -2.982924e+05
   8.250341e+05  -7.095890e+05
   1.206012e+06  -6.128262e+05
   7.038588e+05   1.201996e+05
  -9.245824e+04   8.556200e+05
  -4.897090e+05   8.436115e+05
  -3.655078e+05   1.170734e+05
  -2.825662e+04  -5.145493e+05
   2.510107e+05  -4.092790e+05
   3.669120e+05   2.026668e+05
   2.565867e+05   5.839662e+05
  -6.725741e+04   3.803978e+05
  -3.960529e+05  -6.584347e+04
  -4.618263e+05  -2.374710e+05
  -2.435043e+05  -5.705093e+04
   3.498420e+03   1.072676e+05
   7.617564e+04  -5.362551e+04
   6.235240e+04  -4.022965e+05
   1.645376e+05  -5.015552e+05
   3.655813e+05  -1.204483e+05
   3.960542e+05   4.541903e+05
   6.350156e+04   6.711523e+05
  -4.414017e+05   2.972389e+05
  -6.402570e+05  -3.161479e+05
  -2.365628e+05  -6.034788e+05
   4.918408e+05  -3.671182e+05
   8.619992e+05   9.362527e+04
   4.729234e+05   3.788348e+05
  -2.956032e+05   3.651953e+05
  -6.325628e+05   1.841255e+05
  -2.079441e+05   8.844142e+03
   4.181015e+05  -3.152423e+04
   4.442173e+05   1.228823e+05
  -2.161427e+05   3.406423e+05
  -8.360851e+05   2.892851e+05
