
 $NMID
 id='ANONYMOUS ', fmtdat='(2E16.6)'
 volume=1.0
 tramp=1.0
 $END
  -5.510536e+07   1.750965e+06
  -3.422732e+07  -3.296904e+07
   6.032176e+06  -3.746590e+07
   2.645986e+07  -1.527019e+07
   1.634037e+07   6.226607e+06
  -2.891825e+06   9.219456e+06
  -9.641557e+06  -8.112935e+05
  -3.084460e+06  -9.434634e+06
   5.704163e+06  -9.381008e+06
   9.364478e+06  -2.314516e+06
   7.066297e+06   5.848782e+06
   1.089364e+06   8.423788e+06
  -3.836156e+06   2.816302e+06
  -2.786820e+06  -5.277547e+06
   3.449232e+06  -6.575357e+06
   7.749764e+06   1.028009e+06
   4.698511e+06   9.842519e+06
  -3.306033e+06   1.167906e+07
  -9.704157e+06   6.108704e+06
  -1.064870e+07  -1.677441e+06
  -6.699673e+06  -7.129923e+06
  -9.263632e+05  -8.423877e+06
   2.642881e+06  -5.977577e+06
   1.660928e+06  -2.684881e+06
  -1.221422e+06  -2.118175e+06
  -3.913869e+05  -4.143098e+06
   5.204272e+06  -4.514953e+06
   9.511226e+06  -7.957493e+05
   7.056768e+06   3.840360e+06
   3.796438e+05   4.975716e+06
  -3.615172e+06   2.642051e+06
  -2.450630e+06   5.277542e+04
   6.002510e+05  -1.003883e+06
   2.291389e+06  -5.777658e+05
   2.243112e+06   1.378142e+06
   7.976041e+05   3.889042e+06
  -1.664723e+06   3.838242e+06
  -3.161344e+06  -3.806757e+04
  -1.760309e+06  -3.522256e+06
   7.180226e+05  -1.870354e+06
   4.137789e+05   2.454157e+06
  -2.343231e+06   2.369931e+06
  -2.513776e+06  -3.036827e+06
   2.145373e+06  -6.073400e+06
   6.728107e+06  -1.215034e+06
   5.218284e+06   6.600743e+06
  -1.584243e+06   8.392688e+06
  -7.192668e+06   2.607101e+06
  -6.986976e+06  -4.126824e+06
  -2.044489e+06  -5.863174e+06
   3.316181e+06  -2.804715e+06
   5.240885e+06   1.295545e+06
   2.529751e+06   3.332546e+06
  -2.279728e+06   2.242258e+06
  -4.470904e+06  -7.421315e+05
  -2.011738e+06  -2.593249e+06
   1.635159e+06  -1.401543e+06
   1.757379e+06   9.440756e+05
  -1.235968e+06   9.585201e+05
  -2.479381e+06  -1.593209e+06
   4.551127e+05  -3.349317e+06
   4.426924e+06  -2.013606e+06
   5.226090e+06   1.124130e+06
   2.410778e+06   3.803263e+06
  -1.605320e+06   5.237295e+06
  -4.791958e+06   4.937980e+06
  -6.051895e+06   1.914174e+06
  -4.604712e+06  -2.974309e+06
  -1.128120e+06  -6.054621e+06
   1.653910e+06  -4.768929e+06
   1.670889e+06  -1.291361e+06
   1.792733e+05   1.992884e+05
  -1.589808e+04  -9.948207e+05
   1.573154e+06  -1.817400e+06
   2.803655e+06  -3.012480e+05
   2.079834e+06   1.882721e+06
   8.261059e+04   2.156104e+06
  -1.565437e+06   2.630458e+05
  -1.759513e+06  -2.019677e+06
  -1.019464e+05  -2.926494e+06
   2.696927e+06  -1.727572e+06
   4.462971e+06   1.044054e+06
   3.293871e+06   3.610690e+06
   9.434100e+04   4.160345e+06
  -2.148770e+06   2.741411e+06
  -2.149725e+06   1.195863e+06
  -1.780560e+06   7.495665e+05
  -2.902260e+06   5.900649e+05
  -4.350312e+06  -5.973828e+05
  -3.567979e+06  -2.628030e+06
  -2.763798e+05  -4.109030e+06
   3.064331e+06  -4.002891e+06
   4.098123e+06  -2.256047e+06
   2.667170e+06   3.399070e+05
   3.420244e+05   2.229985e+06
  -1.042653e+06   1.967585e+06
  -5.645609e+05  -2.062297e+04
   1.045355e+06  -1.345707e+06
   1.888815e+06  -4.627357e+05
   9.568219e+05   1.171806e+06
  -4.818764e+05   1.133756e+06
  -4.482378e+05  -3.705764e+05
   1.026346e+06  -7.404846e+05
   1.889467e+06   1.196913e+06
   7.797978e+05   3.433994e+06
  -1.439686e+06   3.459788e+06
  -3.076999e+06   1.240666e+06
  -3.358709e+06  -1.309228e+06
  -2.382501e+06  -2.676079e+06
  -5.496447e+05  -2.597839e+06
   1.192539e+06  -1.508790e+06
   1.573305e+06  -2.815930e+05
   4.950367e+05   2.907747e+04
  -3.844536e+05  -7.408850e+05
   3.684004e+05  -1.355230e+06
   1.889041e+06  -6.425587e+05
   2.065072e+06   8.195630e+05
   4.333324e+05   1.404640e+06
  -1.154581e+06   6.118135e+05
  -9.067675e+05  -4.254772e+05
   8.311762e+05  -5.494833e+05
   2.193691e+06   2.456833e+05
   1.793528e+06   1.298100e+06
  -1.811703e+05   1.981797e+06
  -2.256231e+06   1.735145e+06
  -2.770260e+06   3.673612e+05
  -1.261956e+06  -1.227979e+06
   8.721370e+05  -1.536450e+06
   1.558305e+06  -2.414958e+05
   2.375883e+05   1.077830e+06
  -1.496913e+06   7.899495e+05
  -1.748983e+06  -7.273753e+05
  -3.917473e+05  -1.645408e+06
   1.063187e+06  -1.013325e+06
   1.269620e+06   2.734277e+05
   2.699731e+05   7.758082e+05
  -7.985029e+05   8.027464e+04
  -7.750475e+05  -1.033304e+06
   5.296073e+05  -1.449780e+06
   1.997167e+06  -6.136893e+05
   2.079541e+06   9.850282e+05
   4.548677e+05   2.070191e+06
  -1.391667e+06   1.696796e+06
  -1.725891e+06   2.669758e+05
  -5.313989e+05  -8.556358e+05
   6.349751e+05  -8.271673e+05
   6.317417e+05  -9.880815e+04
  -1.071295e+05   3.621852e+05
  -4.824452e+05   2.235995e+05
  -1.207251e+05  -5.857425e+04
   4.526988e+05   6.771318e+04
   5.384033e+05   6.600199e+05
  -1.711281e+05   1.197329e+06
  -1.358209e+06   9.430459e+05
  -2.102724e+06  -3.467363e+05
  -1.535616e+06  -1.901717e+06
   1.355760e+05  -2.435958e+06
   1.571586e+06  -1.468865e+06
   1.695768e+06   7.107240e+04
   8.872907e+05   8.665937e+05
   3.414116e+05   6.370379e+05
   4.905797e+05   2.018613e+05
   6.424659e+05   2.962673e+05
   1.161520e+05   7.663599e+05
  -8.501748e+05   9.315678e+05
  -1.440251e+06   3.717039e+05
  -1.073812e+06  -6.877584e+05
   2.032527e+05  -1.468008e+06
   1.690167e+06  -1.130568e+06
   2.269359e+06   4.101276e+05
   1.204903e+06   2.068891e+06
  -9.376057e+05   2.406129e+06
  -2.518059e+06   1.116081e+06
  -2.377228e+06  -5.862928e+05
  -9.980521e+05  -1.309361e+06
   1.764972e+05  -9.498115e+05
   3.685293e+05  -5.217344e+05
   4.721045e+04  -7.609989e+05
   5.770077e+04  -1.319514e+06
   6.309145e+05  -1.317959e+06
   1.289371e+06  -3.640516e+05
   1.380173e+06   1.037949e+06
   6.241956e+05   1.881569e+06
  -5.739772e+05   1.463429e+06
  -1.289078e+06   4.072697e+04
  -8.564578e+05  -1.261743e+06
   3.480579e+05  -1.413049e+06
   1.155348e+06  -4.407526e+05
   8.357472e+05   6.786320e+05
  -9.272062e+04   1.085363e+06
  -5.171998e+05   8.002117e+05
  -7.290307e+04   4.171137e+05
   4.479497e+05   3.208387e+05
   7.431643e+04   3.821405e+05
  -1.147240e+06   2.485282e+05
  -2.084036e+06  -2.649445e+05
  -1.657469e+06  -9.870270e+05
  -6.153063e+03  -1.443017e+06
   1.560729e+06  -1.199140e+06
   1.829190e+06  -3.376574e+05
   8.502546e+05   4.728107e+05
  -2.454125e+05   5.821495e+05
  -5.132780e+05   4.847793e+04
  -4.664412e+04  -4.258627e+05
   4.333015e+05  -2.768056e+05
   4.964059e+05   3.260448e+05
   2.863227e+05   7.158489e+05
   1.192017e+05   4.780115e+05
   1.331054e+05  -9.580414e+04
   2.643487e+05  -2.986474e+05
   2.830819e+05   2.240704e+05
  -1.033664e+05   9.931135e+05
  -8.649457e+05   1.102975e+06
  -1.369222e+06   2.280807e+05
  -8.964956e+05  -8.879510e+05
   3.764033e+05  -1.165317e+06
   1.256163e+06  -3.909942e+05
   7.588894e+05   5.460070e+05
  -6.835939e+05   6.737369e+05
  -1.593048e+06  -4.479304e+04
  -1.027790e+06  -8.321504e+05
   4.591432e+05  -1.001166e+06
   1.483477e+06  -5.200811e+05
   1.234839e+06   1.546392e+05
   1.478947e+05   5.085171e+05
  -6.432401e+05   2.881190e+05
  -3.994602e+05  -2.850942e+05
   5.633382e+05  -5.522363e+05
   1.193247e+06   2.778669e+04
   7.310293e+05   1.156913e+06
  -5.133537e+05   1.739404e+06
  -1.450249e+06   9.570958e+05
  -1.292352e+06  -7.069837e+05
  -2.749102e+05  -1.788825e+06
   6.935345e+05  -1.320696e+06
   9.325825e+05   1.513970e+05
   4.678696e+05   1.181428e+06
  -1.967998e+05   9.730363e+05
  -5.649488e+05   9.952493e+04
  -4.724395e+05  -3.585534e+05
  -1.583372e+05  -1.274633e+05
  -4.938195e+04   9.374198e+04
  -3.083594e+05  -2.949324e+05
  -5.549635e+05  -9.548237e+05
  -2.186428e+05  -1.072205e+06
   7.190505e+05  -4.201792e+05
   1.496738e+06   4.095000e+05
   1.303585e+06   7.901794e+05
   2.108238e+05   6.974655e+05
  -8.275263e+05   4.570863e+05
  -9.761052e+05   2.167514e+05
  -3.755331e+05  -4.798063e+04
   1.318230e+05  -2.343456e+05
   4.392977e+04  -1.981958e+05
  -2.523317e+05  -7.322838e+04
  -6.372784e+04  -1.309819e+05
   6.354111e+05  -2.734100e+05
   1.055656e+06  -3.883345e+04
   4.932155e+05   6.822947e+05
  -7.773529e+05   1.233654e+06
  -1.690792e+06   8.485657e+05
  -1.463825e+06  -3.618009e+05
  -3.467769e+05  -1.399022e+06
   7.169970e+05  -1.423957e+06
   1.033096e+06  -6.020492e+05
   6.671055e+05   1.925990e+05
   1.597130e+05   3.553696e+05
  -4.994559e+04   8.348998e+04
   8.718803e+04  -5.557227e+03
   3.080989e+05   3.627975e+05
   2.756808e+05   8.018978e+05
  -1.453706e+05   6.963920e+05
  -6.870781e+05  -7.496194e+04
  -8.016959e+05  -9.083613e+05
  -1.898743e+05  -1.035862e+06
   7.327822e+05  -3.076569e+05
   1.083594e+06   6.552713e+05
   4.174143e+05   1.081513e+06
  -6.821742e+05   7.329537e+05
  -1.140759e+06  -1.572192e+04
  -5.765288e+05  -6.074396e+05
   2.590424e+05  -7.171233e+05
   3.836969e+05  -3.924388e+05
  -2.283284e+05   1.160885e+04
  -6.461323e+05   7.409221e+04
  -1.694886e+05  -3.074194e+05
   7.985043e+05  -7.189335e+05
   1.259698e+06  -5.857842e+05
   7.965673e+05   1.603932e+05
  -5.391284e+04   8.881139e+05
  -5.344379e+05   8.961422e+05
  -4.431664e+05   1.986415e+05
  -8.935054e+04  -4.706915e+05
   2.157089e+05  -4.620561e+05
   3.607941e+05   1.107027e+05
   2.871377e+05   5.678604e+05
  -2.713887e+04   4.513907e+05
  -3.968030e+05  -1.668253e+04
  -4.991495e+05  -2.736932e+05
  -2.485860e+05  -9.809182e+04
   5.191436e+04   1.658791e+05
   8.479875e+04   7.316948e+04
  -5.882225e+04  -3.424790e+05
  -1.775873e+04  -5.802037e+05
   2.977991e+05  -2.746024e+05
   5.088986e+05   3.342263e+05
   2.281346e+05   6.415764e+05
  -3.843594e+05   3.480810e+05
  -6.975878e+05  -2.336176e+05
  -2.959090e+05  -5.558493e+05
   4.988902e+05  -3.966425e+05
   9.054013e+05   2.163902e+04
   5.079395e+05   3.553691e+05
  -2.756675e+05   4.343636e+05
  -6.380347e+05   2.823772e+05
  -2.686607e+05   3.443198e+04
   3.208538e+05  -1.051103e+05
   4.044355e+05   1.790746e+04
  -1.337122e+05   2.872114e+05
  -7.009558e+05   3.132075e+05
