
 $NMID
 id='ANONYMOUS ', fmtdat='(2E16.6)'
 volume=1.0
 tramp=1.0
 $END
   5.913362e+07  -4.653051e+05
   3.583277e+07   3.685321e+07
  -7.832000e+06   4.035929e+07
  -2.919964e+07   1.520649e+07
  -1.734848e+07  -7.790868e+06
   3.650928e+06  -9.876700e+06
   1.037914e+07   1.561948e+06
   2.710000e+06   1.039410e+07
  -6.746199e+06   9.608011e+06
  -1.017013e+07   1.899240e+06
  -7.256008e+06  -6.439259e+06
  -8.415349e+05  -8.859977e+06
   4.083394e+06  -2.897278e+06
   2.623172e+06   5.496855e+06
  -4.030099e+06   6.651373e+06
  -8.242482e+06  -1.499742e+06
  -4.591958e+06  -1.068381e+07
   3.984661e+06  -1.232041e+07
   1.053646e+07  -6.228446e+06
   1.132758e+07   1.999004e+06
   7.111877e+06   7.735015e+06
   9.377495e+05   9.168415e+06
  -3.084120e+06   6.581905e+06
  -2.271489e+06   2.895010e+06
   8.412399e+05   2.030249e+06
   2.797241e+05   4.055937e+06
  -5.335306e+06   4.479598e+06
  -9.785374e+06   6.284057e+05
  -7.297816e+06  -4.136054e+06
  -4.662279e+05  -5.179221e+06
   3.598909e+06  -2.729156e+06
   2.472349e+06  -2.419271e+05
  -4.424400e+05   6.992807e+05
  -2.039185e+06   4.423504e+05
  -2.111346e+06  -1.261538e+06
  -8.154359e+05  -3.834299e+06
   1.740186e+06  -4.029628e+06
   3.426527e+06  -1.072300e+05
   1.975930e+06   3.714180e+06
  -7.052379e+05   2.200217e+06
  -3.924051e+05  -2.309953e+06
   2.519868e+06  -2.282850e+06
   2.525981e+06   3.379947e+06
  -2.644096e+06   6.482740e+06
  -7.448873e+06   1.123633e+06
  -5.474031e+06  -7.279810e+06
   1.999742e+06  -9.012519e+06
   7.759932e+06  -2.573544e+06
   7.145948e+06   4.652577e+06
   1.783004e+06   6.253748e+06
  -3.643334e+06   2.707762e+06
  -5.362873e+06  -1.711584e+06
  -2.388357e+06  -3.683922e+06
   2.590307e+06  -2.271808e+06
   4.724021e+06   1.011379e+06
   2.004174e+06   2.880476e+06
  -1.804243e+06   1.430689e+06
  -1.752908e+06  -1.099113e+06
   1.501021e+06  -9.221160e+05
   2.639716e+06   1.990223e+06
  -7.434493e+05   3.777070e+06
  -4.994647e+06   2.036334e+06
  -5.607108e+06  -1.504959e+06
  -2.407432e+06  -4.214921e+06
   1.828266e+06  -5.431854e+06
   5.060288e+06  -4.962595e+06
   6.317078e+06  -1.844370e+06
   4.757681e+06   3.167910e+06
   1.003898e+06   6.315752e+06
  -1.999462e+06   4.887521e+06
  -1.931680e+06   1.157726e+06
  -1.592310e+05  -4.317884e+05
   1.916176e+05   8.741372e+05
  -1.448838e+06   1.833980e+06
  -2.753822e+06   3.586752e+05
  -2.037145e+06  -1.820462e+06
  -7.911826e+04  -2.069631e+06
   1.466776e+06  -1.778339e+05
   1.613108e+06   2.059742e+06
   6.057094e+02   2.930677e+06
  -2.773112e+06   1.705730e+06
  -4.572544e+06  -1.147835e+06
  -3.372380e+06  -3.831390e+06
  -1.990243e+04  -4.407142e+06
   2.362625e+06  -2.879321e+06
   2.368618e+06  -1.193795e+06
   1.935300e+06  -6.564893e+05
   3.021371e+06  -4.169320e+05
   4.417394e+06   8.514030e+05
   3.498613e+06   2.863233e+06
   6.969948e+04   4.178875e+06
  -3.275747e+06   3.896473e+06
  -4.198682e+06   2.117979e+06
  -2.667804e+06  -3.924599e+05
  -3.087747e+05  -2.215045e+06
   1.073755e+06  -1.950120e+06
   5.672073e+05   1.799658e+04
  -1.093760e+06   1.314194e+06
  -1.947823e+06   3.939351e+05
  -9.532353e+05  -1.229587e+06
   5.182013e+05  -1.109970e+06
   3.917633e+05   4.245307e+05
  -1.178253e+06   6.547083e+05
  -1.923160e+06  -1.472605e+06
  -5.194255e+05  -3.688451e+06
   1.857005e+06  -3.435796e+06
   3.323417e+06  -9.403314e+05
   3.286456e+06   1.643872e+06
   2.144870e+06   2.847915e+06
   3.654964e+05   2.606329e+06
  -1.258951e+06   1.446854e+06
  -1.578946e+06   2.170833e+05
  -4.977483e+05  -5.377841e+04
   3.501361e+05   7.700577e+05
  -4.501772e+05   1.377944e+06
  -1.976460e+06   5.724496e+05
  -2.076707e+06  -9.580461e+05
  -3.603177e+05  -1.474854e+06
   1.211420e+06  -5.531169e+05
   8.679269e+05   4.912987e+05
  -9.072878e+05   4.744870e+05
  -2.186591e+06  -4.337332e+05
  -1.672697e+06  -1.432463e+06
   3.404953e+05  -1.957538e+06
   2.373447e+06  -1.595269e+06
   2.811487e+06  -2.155724e+05
   1.223027e+06   1.319132e+06
  -9.594536e+05   1.541056e+06
  -1.615923e+06   1.860793e+05
  -2.109488e+05  -1.111252e+06
   1.555747e+06  -7.321847e+05
   1.733270e+06   8.400573e+05
   2.838035e+05   1.697470e+06
  -1.162845e+06   9.490266e+05
  -1.274456e+06  -3.818669e+05
  -2.104912e+05  -8.212733e+05
   8.314708e+05  -4.246585e+04
   7.414362e+05   1.084459e+06
  -5.966310e+05   1.440308e+06
  -2.039872e+06   5.303134e+05
  -2.054418e+06  -1.090247e+06
  -3.582722e+05  -2.118229e+06
   1.502093e+06  -1.648813e+06
   1.766121e+06  -1.723604e+05
   4.832227e+05   9.029511e+05
  -6.935675e+05   7.976922e+05
  -6.246177e+05   6.214723e+04
   1.542754e+05  -3.350668e+05
   4.864239e+05  -1.583895e+05
   6.418307e+04   7.754095e+04
  -4.979493e+05  -1.248486e+05
  -5.091745e+05  -7.358182e+05
   2.566619e+05  -1.216691e+06
   1.431261e+06  -8.798738e+05
   2.107160e+06   4.611185e+05
   1.456567e+06   1.997996e+06
  -2.620561e+05   2.443210e+06
  -1.664971e+06   1.376251e+06
  -1.689924e+06  -1.861352e+05
  -8.052774e+05  -9.115138e+05
  -2.781064e+05  -6.097257e+05
  -4.991512e+05  -1.829601e+05
  -6.723743e+05  -3.299764e+05
  -9.245619e+04  -7.992202e+05
   9.184569e+05  -8.944869e+05
   1.472049e+06  -2.800779e+05
   1.019529e+06   7.522222e+05
  -3.082839e+05   1.447651e+06
  -1.767045e+06   1.031526e+06
  -2.257689e+06  -5.398224e+05
  -1.094791e+06  -2.160136e+06
   1.093608e+06  -2.391374e+06
   2.623778e+06  -9.862218e+05
   2.365366e+06   7.467194e+05
   8.997202e+05   1.388840e+06
  -2.622640e+05   9.231249e+05
  -3.867036e+05   4.655377e+05
  -4.012011e+04   7.506426e+05
  -9.182407e+04   1.345823e+06
  -7.018368e+05   1.320572e+06
  -1.329531e+06   3.144706e+05
  -1.344399e+06  -1.110184e+06
  -5.372972e+05  -1.924596e+06
   6.481758e+05  -1.444333e+06
   1.300775e+06   3.101472e+04
   7.969757e+05   1.331553e+06
  -4.429137e+05   1.417705e+06
  -1.222231e+06   3.704160e+05
  -8.271463e+05  -7.643787e+05
   1.665762e+05  -1.122420e+06
   5.981009e+05  -7.897112e+05
   1.142688e+05  -4.085036e+05
  -4.386560e+05  -3.355874e+05
  -5.864241e+04  -3.839350e+05
   1.182697e+06  -1.930105e+05
   2.106978e+06   3.723971e+05
   1.626007e+06   1.090239e+06
  -8.116515e+04   1.479618e+06
  -1.655693e+06   1.147435e+06
  -1.876151e+06   2.361392e+05
  -8.368034e+05  -5.511615e+05
   2.825894e+05  -5.923089e+05
   5.321455e+05  -1.444369e+04
   4.133500e+04   4.449969e+05
  -4.390783e+05   2.586260e+05
  -4.870701e+05  -3.512640e+05
  -2.715563e+05  -7.207755e+05
  -1.156113e+05  -4.780220e+05
  -1.423797e+05   7.422346e+04
  -2.722710e+05   2.628868e+05
  -2.708950e+05  -2.439200e+05
   1.461417e+05  -9.837961e+05
   9.258581e+05  -1.072544e+06
   1.410045e+06  -1.858389e+05
   8.836144e+05   9.282091e+05
  -4.290362e+05   1.175148e+06
  -1.290904e+06   3.578743e+05
  -7.378046e+05  -5.793853e+05
   7.295640e+05  -6.422564e+05
   1.597459e+06   1.410456e+05
   9.668145e+05   9.069623e+05
  -5.410875e+05   9.756154e+05
  -1.526319e+06   4.161183e+05
  -1.222302e+06  -2.418213e+05
  -1.099670e+05  -5.187679e+05
   6.688809e+05  -2.483099e+05
   3.976075e+05   3.110695e+05
  -5.801721e+05   5.343895e+05
  -1.195304e+06  -6.999731e+04
  -6.949805e+05  -1.184152e+06
   5.755902e+05  -1.724038e+06
   1.488927e+06  -9.019261e+05
   1.262710e+06   7.657736e+05
   1.891561e+05   1.805621e+06
  -7.667612e+05   1.281318e+06
  -9.310785e+05  -2.138617e+05
  -3.976583e+05  -1.218242e+06
   2.687634e+05  -9.648008e+05
   5.813104e+05  -6.614713e+04
   4.422032e+05   3.859946e+05
   1.359909e+05   1.370190e+05
   6.185372e+04  -8.932014e+04
   3.206214e+05   3.136225e+05
   5.199408e+05   9.883403e+05
   1.468734e+05   1.091915e+06
  -7.654469e+05   3.911349e+05
  -1.480155e+06  -4.864468e+05
  -1.253292e+06  -8.653884e+05
  -1.765046e+05  -7.156884e+05
   8.383455e+05  -4.142249e+05
   9.879955e+05  -1.615298e+05
   3.910722e+05   7.081708e+04
  -1.374709e+05   2.282764e+05
  -7.502896e+04   1.949593e+05
   2.271192e+05   8.296397e+04
   6.464498e+04   1.306534e+05
  -6.284715e+05   2.435344e+05
  -1.062694e+06  -4.702384e+03
  -4.920373e+05  -7.014483e+05
   8.172534e+05  -1.207055e+06
   1.746429e+06  -7.913709e+05
   1.472887e+06   4.129155e+05
   2.885965e+05   1.415817e+06
  -7.901544e+05   1.405146e+06
  -1.061782e+06   5.692543e+05
  -6.544410e+05  -2.154228e+05
  -1.520222e+05  -3.617523e+05
   3.361520e+04  -8.635123e+04
  -9.881878e+04  -8.865486e+03
  -2.859642e+05  -3.880747e+05
  -2.318141e+05  -8.217225e+05
   1.733187e+05  -6.954414e+05
   6.783298e+05   9.623163e+04
   7.694450e+05   9.333792e+05
   1.637014e+05   1.043692e+06
  -7.326830e+05   2.883844e+05
  -1.057864e+06  -6.898328e+05
  -3.815643e+05  -1.102200e+06
   7.111076e+05  -7.170026e+05
   1.152177e+06   5.982913e+04
   5.661014e+05   6.451367e+05
  -2.882881e+05   7.252421e+05
  -4.167761e+05   3.860786e+05
   2.113941e+05  -1.142599e+03
   6.472556e+05  -4.561167e+04
   1.629032e+05   3.176261e+05
  -8.363205e+05   6.831173e+05
  -1.311201e+06   5.234392e+05
  -8.139207e+05  -2.044179e+05
   9.116912e+04  -8.956373e+05
   5.898129e+05  -8.877740e+05
   4.659512e+05  -1.971260e+05
   7.414143e+04   4.669477e+05
  -2.314158e+05   4.618794e+05
  -3.508605e+05  -1.136660e+05
  -2.645378e+05  -5.821362e+05
   3.884372e+04  -4.639560e+05
   3.960049e+05   2.825606e+04
   4.979386e+05   3.059424e+05
   2.489071e+05   1.189483e+05
  -5.634886e+04  -1.775751e+05
  -9.123861e+04  -1.009224e+05
   6.008349e+04   3.294817e+05
   2.637622e+04   5.885236e+05
  -2.920827e+05   2.853721e+05
  -5.086725e+05  -3.339130e+05
  -2.251053e+05  -6.424260e+05
   3.915740e+05  -3.365928e+05
   6.961403e+05   2.526694e+05
   2.773277e+05   5.628576e+05
  -5.226278e+05   3.797217e+05
  -9.146182e+05  -5.265903e+04
  -4.983829e+05  -3.778362e+05
   2.922307e+05  -4.348863e+05
   6.523385e+05  -2.699180e+05
   2.820403e+05  -2.929277e+04
  -3.062314e+05   9.672659e+04
  -3.926627e+05  -2.218656e+04
   1.378046e+05  -2.674645e+05
   6.961319e+05  -2.751894e+05
