
 $NMID
 id='ANONYMOUS ', fmtdat='(2E16.6)'
 volume=1.0
 tramp=1.0
 $END
  -4.732919e+07   2.211624e+06
  -3.086372e+07  -2.614142e+07
   3.022552e+06  -3.191453e+07
   2.204218e+07  -1.552551e+07
   1.522021e+07   3.168866e+06
  -1.378895e+06   8.241276e+06
  -8.804680e+06   7.773481e+05
  -4.082311e+06  -8.051757e+06
   4.149294e+06  -9.597060e+06
   8.344622e+06  -3.186678e+06
   6.603176e+06   5.234429e+06
   1.043837e+06   7.955392e+06
  -3.582990e+06   2.368385e+06
  -2.745912e+06  -5.525340e+06
   2.899699e+06  -6.832731e+06
   7.096415e+06   2.787435e+05
   4.735505e+06   8.665683e+06
  -2.461053e+06   1.063118e+07
  -8.434287e+06   5.549400e+06
  -9.191094e+06  -1.575321e+06
  -5.406862e+06  -6.095104e+06
  -6.225819e+05  -6.653559e+06
   1.540586e+06  -4.630077e+06
   8.886853e+04  -2.810166e+06
  -1.845956e+06  -3.224887e+06
   1.275655e+05  -4.744715e+06
   5.802728e+06  -4.040276e+06
   9.372237e+06  -7.516167e+04
   6.339431e+06   3.941241e+06
  -4.108683e+05   4.449166e+06
  -4.080268e+06   1.802811e+06
  -2.165878e+06  -8.815369e+05
   1.714524e+06  -1.552940e+06
   3.381186e+06  -1.958282e+05
   2.260567e+06   2.330552e+06
   1.700877e+04   4.248239e+06
  -1.849912e+06   3.218556e+06
  -2.247448e+06  -5.858388e+05
  -8.764636e+05  -3.032313e+06
   5.857475e+05  -8.321037e+05
  -1.602627e+05   3.035745e+06
  -2.441046e+06   2.552723e+06
  -2.548944e+06  -2.548096e+06
   1.192486e+06  -5.464449e+06
   5.196734e+06  -1.463190e+06
   4.537386e+06   5.340338e+06
  -9.268321e+05   7.216046e+06
  -6.264055e+06   2.411382e+06
  -6.821362e+06  -3.691944e+06
  -2.440811e+06  -5.657848e+06
   3.101446e+06  -3.087329e+06
   5.448279e+06   8.560647e+05
   2.964987e+06   3.065059e+06
  -1.795125e+06   2.295054e+06
  -4.149353e+06  -3.757578e+05
  -2.076082e+06  -2.195658e+06
   1.394118e+06  -1.329395e+06
   1.889571e+06   8.361123e+05
  -7.360274e+05   1.280659e+06
  -2.423299e+06  -6.828574e+05
  -4.359578e+05  -2.582325e+06
   3.234471e+06  -2.116669e+06
   4.668366e+06   3.742640e+05
   2.466233e+06   3.145114e+06
  -1.605807e+06   4.888625e+06
  -4.957489e+06   4.591572e+06
  -5.888710e+06   1.536251e+06
  -4.076684e+06  -3.052301e+06
  -8.756358e+05  -5.850106e+06
   1.344166e+06  -4.800859e+06
   1.392162e+06  -1.821572e+06
   5.607509e+05  -4.016434e+05
   8.434865e+05  -1.102311e+06
   2.261434e+06  -1.357009e+06
   2.985900e+06   4.165839e+05
   1.834364e+06   2.536339e+06
  -4.136317e+05   2.478136e+06
  -2.066109e+06   8.758722e+04
  -1.935728e+06  -2.489666e+06
   1.054274e+05  -3.164360e+06
   2.881058e+06  -1.486889e+06
   4.246597e+06   1.373053e+06
   2.876007e+06   3.517420e+06
  -2.251150e+04   3.693743e+06
  -1.849268e+06   2.381195e+06
  -1.787076e+06   1.204315e+06
  -1.657474e+06   9.703825e+05
  -3.008932e+06   7.870410e+05
  -4.565508e+06  -5.298398e+05
  -3.773484e+06  -2.744979e+06
  -2.758114e+05  -4.385908e+06
   3.394381e+06  -4.214365e+06
   4.520027e+06  -2.160856e+06
   2.756851e+06   6.581026e+05
   3.753638e+04   2.441713e+06
  -1.346773e+06   1.934936e+06
  -5.619792e+05  -1.245366e+05
   1.217291e+06  -1.364905e+06
   1.955784e+06  -4.341037e+05
   8.770916e+05   1.208450e+06
  -6.251732e+05   1.201008e+06
  -6.403211e+05  -3.947918e+05
   8.829941e+05  -1.063912e+06
   2.066823e+06   7.157283e+05
   1.348237e+06   3.335471e+06
  -9.179200e+05   4.017210e+06
  -3.132254e+06   1.984088e+06
  -3.945773e+06  -1.074945e+06
  -2.929506e+06  -3.031373e+06
  -6.570360e+05  -3.021342e+06
   1.388314e+06  -1.623489e+06
   1.745346e+06  -2.114062e+05
   5.326336e+05   3.984941e+04
  -4.096643e+05  -7.975142e+05
   3.444473e+05  -1.389739e+06
   1.909482e+06  -6.683539e+05
   2.158289e+06   7.857021e+05
   5.165838e+05   1.429737e+06
  -1.222330e+06   6.827574e+05
  -1.070973e+06  -4.688171e+05
   8.487608e+05  -7.561394e+05
   2.523930e+06   1.026907e+05
   2.172307e+06   1.445293e+06
  -1.096388e+05   2.320142e+06
  -2.496506e+06   1.974011e+06
  -3.022947e+06   3.974137e+05
  -1.334511e+06  -1.277142e+06
   9.039036e+05  -1.547423e+06
   1.561222e+06  -2.254879e+05
   1.842134e+05   1.093339e+06
  -1.594954e+06   8.081419e+05
  -1.888700e+06  -7.513538e+05
  -5.059840e+05  -1.774629e+06
   1.082025e+06  -1.193223e+06
   1.409692e+06   1.845674e+05
   3.811198e+05   8.067128e+05
  -8.013854e+05   1.034622e+05
  -7.950856e+05  -1.102576e+06
   6.166489e+05  -1.530819e+06
   2.164395e+06  -5.921363e+05
   2.200824e+06   1.107169e+06
   4.609518e+05   2.215623e+06
  -1.479171e+06   1.809468e+06
  -1.847445e+06   3.084844e+05
  -6.063997e+05  -9.093306e+05
   6.743981e+05  -9.132209e+05
   7.424961e+05  -8.375208e+04
  -8.169032e+04   5.061692e+05
  -6.259459e+05   3.394518e+05
  -3.061517e+05  -1.160314e+05
   4.129831e+05  -8.846403e+04
   6.422422e+05   5.977112e+05
  -1.052798e+05   1.277825e+06
  -1.445103e+06   1.029958e+06
  -2.264227e+06  -3.827130e+05
  -1.625347e+06  -2.063064e+06
   1.848483e+05  -2.651593e+06
   1.741880e+06  -1.645755e+06
   1.922192e+06   4.495844e+04
   1.063996e+06   1.039360e+06
   3.782909e+05   8.864206e+05
   4.153626e+05   3.302016e+05
   5.771808e+05   2.705789e+05
   1.086986e+05   7.492699e+05
  -8.932671e+05   1.023328e+06
  -1.593251e+06   4.477150e+05
  -1.240455e+06  -7.885511e+05
   1.907961e+05  -1.693258e+06
   1.862629e+06  -1.274025e+06
   2.493954e+06   4.574446e+05
   1.337731e+06   2.241404e+06
  -9.535970e+05   2.593858e+06
  -2.676522e+06   1.247882e+06
  -2.621727e+06  -5.713156e+05
  -1.202234e+06  -1.441562e+06
   1.419584e+05  -1.153427e+06
   5.030616e+05  -6.598147e+05
   2.143370e+05  -7.905583e+05
   1.464586e+05  -1.321759e+06
   6.668313e+05  -1.347012e+06
   1.348057e+06  -3.564689e+05
   1.452465e+06   1.151234e+06
   6.322954e+05   2.050076e+06
  -6.583154e+05   1.572719e+06
  -1.408203e+06   4.280295e+04
  -9.407137e+05  -1.335763e+06
   3.222745e+05  -1.524933e+06
   1.181039e+06  -5.585898e+05
   9.002686e+05   6.093206e+05
  -1.302943e+04   1.108247e+06
  -4.547365e+05   8.890997e+05
  -4.274426e+04   5.040884e+05
   4.543149e+05   3.772034e+05
   5.902134e+04   4.235693e+05
  -1.205038e+06   2.728192e+05
  -2.195634e+06  -2.856630e+05
  -1.782426e+06  -1.051709e+06
  -6.455813e+04  -1.514818e+06
   1.617372e+06  -1.259152e+06
   1.959294e+06  -3.947863e+05
   9.519929e+05   4.298200e+05
  -2.294863e+05   5.848817e+05
  -5.345462e+05   8.833188e+04
  -2.129237e+04  -3.982742e+05
   5.022476e+05  -2.703147e+05
   5.189925e+05   3.613666e+05
   2.217014e+05   7.907645e+05
   5.128955e+04   5.153839e+05
   1.600711e+05  -1.512413e+05
   3.556933e+05  -3.750575e+05
   3.189806e+05   2.404092e+05
  -1.672317e+05   1.094249e+06
  -9.497578e+05   1.166450e+06
  -1.394301e+06   1.857058e+05
  -8.685211e+05  -9.687932e+05
   4.194184e+05  -1.185969e+06
   1.307720e+06  -3.361452e+05
   7.969016e+05   6.269646e+05
  -7.345128e+05   7.352876e+05
  -1.763334e+06  -3.787430e+04
  -1.201353e+06  -9.119110e+05
   4.494041e+05  -1.148709e+06
   1.651024e+06  -6.414950e+05
   1.411609e+06   1.421367e+05
   1.881204e+05   5.769930e+05
  -6.987921e+05   3.383309e+05
  -4.072570e+05  -2.901526e+05
   6.517862e+05  -5.474172e+05
   1.278913e+06   1.087052e+05
   6.974359e+05   1.289431e+06
  -6.695858e+05   1.836273e+06
  -1.625673e+06   9.509512e+05
  -1.379969e+06  -8.243011e+05
  -2.463508e+05  -1.966716e+06
   7.902038e+05  -1.461557e+06
   1.032548e+06   1.398030e+05
   5.347332e+05   1.296983e+06
  -1.774123e+05   1.100507e+06
  -6.027392e+05   1.260607e+05
  -5.516642e+05  -4.180815e+05
  -2.183840e+05  -1.660826e+05
  -3.851069e+04   1.195582e+05
  -2.612834e+05  -2.826502e+05
  -5.580783e+05  -1.033312e+06
  -2.747242e+05  -1.193260e+06
   7.234903e+05  -4.634267e+05
   1.631728e+06   4.828702e+05
   1.461366e+06   8.981122e+05
   2.232907e+05   7.530806e+05
  -9.619335e+05   4.656695e+05
  -1.090260e+06   2.307392e+05
  -3.691154e+05  -2.395961e+04
   1.683842e+05  -2.434633e+05
  -3.627415e+03  -2.534837e+05
  -3.324009e+05  -1.301542e+05
  -4.032691e+04  -1.447176e+05
   7.636965e+05  -2.457532e+05
   1.137130e+06   5.440541e+03
   4.236390e+05   7.304631e+05
  -9.348050e+05   1.269840e+06
  -1.809613e+06   8.317381e+05
  -1.493642e+06  -4.601021e+05
  -3.086278e+05  -1.536300e+06
   7.994955e+05  -1.505958e+06
   1.131442e+06  -5.797562e+05
   7.226508e+05   2.659764e+05
   1.353809e+05   3.855257e+05
  -1.065308e+05   4.344883e+04
   8.044891e+04  -4.976819e+04
   3.563609e+05   3.878837e+05
   3.011040e+05   8.819737e+05
  -1.900112e+05   7.357067e+05
  -7.494336e+05  -1.472291e+05
  -7.975666e+05  -1.046873e+06
  -1.051167e+05  -1.112464e+06
   8.331877e+05  -2.451299e+05
   1.125811e+06   7.979056e+05
   3.780967e+05   1.176837e+06
  -7.665339e+05   7.260478e+05
  -1.203609e+06  -6.699802e+04
  -5.769637e+05  -6.305479e+05
   2.916719e+05  -7.145830e+05
   3.769838e+05  -4.074020e+05
  -2.995011e+05  -2.395683e+04
  -7.161428e+05   4.853062e+04
  -1.563708e+05  -3.252403e+05
   8.899032e+05  -7.615653e+05
   1.343441e+06  -6.431991e+05
   8.097451e+05   1.480799e+05
  -8.896867e+04   9.382692e+05
  -5.568171e+05   9.385646e+05
  -4.260291e+05   1.690234e+05
  -4.881890e+04  -5.315922e+05
   2.551154e+05  -4.622274e+05
   3.833154e+05   1.815439e+05
   2.841277e+05   6.257886e+05
  -5.131488e+04   4.410970e+05
  -4.241007e+05  -5.293789e+04
  -5.193608e+05  -2.762540e+05
  -2.700642e+05  -8.350999e+04
   3.126438e+04   1.390026e+05
   1.003248e+05   1.461881e+03
   2.159028e+04  -3.950624e+05
   9.063033e+04  -5.603360e+05
   3.502513e+05  -1.918468e+05
   4.649575e+05   4.293475e+05
   1.353156e+05   6.979635e+05
  -4.502950e+05   3.352679e+05
  -7.092845e+05  -3.058457e+05
  -2.724764e+05  -6.289834e+05
   5.381886e+05  -4.070204e+05
   9.469602e+05   7.350934e+04
   5.225300e+05   4.019222e+05
  -3.085006e+05   4.230544e+05
  -6.807547e+05   2.389536e+05
  -2.515372e+05   2.546029e+04
   4.005673e+05  -5.375942e+04
   4.508209e+05   9.328936e+04
  -2.052435e+05   3.332787e+05
  -8.443134e+05   3.012050e+05
