
 $NMID
 id='ANONYMOUS ', fmtdat='(2E16.6)'
 volume=1.0
 tramp=1.0
 $END
   5.866932e+07   6.007806e+05
   3.474026e+07   3.707026e+07
  -8.493704e+06   3.973051e+07
  -2.903413e+07   1.455515e+07
  -1.690611e+07  -7.896079e+06
   3.751695e+06  -9.643439e+06
   1.014960e+07   1.661265e+06
   2.525732e+06   1.023493e+07
  -6.713911e+06   9.378531e+06
  -1.002713e+07   1.753723e+06
  -7.119555e+06  -6.479963e+06
  -7.454635e+05  -8.817899e+06
   4.117458e+06  -2.829403e+06
   2.605091e+06   5.492802e+06
  -4.010555e+06   6.549830e+06
  -8.110549e+06  -1.585751e+06
  -4.400461e+06  -1.063254e+07
   4.117025e+06  -1.214067e+07
   1.055126e+07  -6.010541e+06
   1.122778e+07   2.189316e+06
   6.913217e+06   7.843482e+06
   7.065621e+05   9.127236e+06
  -3.215024e+06   6.401926e+06
  -2.233550e+06   2.718509e+06
   9.471441e+05   1.985608e+06
   3.060108e+05   4.100995e+06
  -5.392000e+06   4.480170e+06
  -9.810773e+06   5.468399e+05
  -7.238065e+06  -4.226592e+06
  -3.706157e+05  -5.224002e+06
   3.686663e+06  -2.726686e+06
   2.547683e+06  -1.823434e+05
  -4.113773e+05   8.130802e+05
  -2.090202e+06   5.292911e+05
  -2.189328e+06  -1.282842e+06
  -8.129496e+05  -3.904239e+06
   1.816974e+06  -4.008856e+06
   3.447636e+06   1.045410e+04
   1.882703e+06   3.784243e+06
  -8.127333e+05   2.153600e+06
  -4.245723e+05  -2.368612e+06
   2.504208e+06  -2.272328e+06
   2.449342e+06   3.364416e+06
  -2.707552e+06   6.333504e+06
  -7.366810e+06   9.337252e+05
  -5.273587e+06  -7.317721e+06
   2.141145e+06  -8.873444e+06
   7.739240e+06  -2.425917e+06
   7.042532e+06   4.676781e+06
   1.729310e+06   6.191433e+06
  -3.608575e+06   2.660289e+06
  -5.289646e+06  -1.702963e+06
  -2.340303e+06  -3.631007e+06
   2.575068e+06  -2.200635e+06
   4.654189e+06   1.055823e+06
   1.942041e+06   2.862985e+06
  -1.805466e+06   1.389150e+06
  -1.730744e+06  -1.087857e+06
   1.457557e+06  -8.665721e+05
   2.526294e+06   1.982950e+06
  -8.183222e+05   3.653196e+06
  -4.949477e+06   1.885482e+06
  -5.489214e+06  -1.567690e+06
  -2.310866e+06  -4.190112e+06
   1.882442e+06  -5.391071e+06
   5.100190e+06  -4.923388e+06
   6.331775e+06  -1.779834e+06
   4.716982e+06   3.231426e+06
   9.416720e+05   6.312663e+06
  -2.006344e+06   4.824796e+06
  -1.871205e+06   1.125481e+06
  -1.046676e+05  -3.811850e+05
   1.799179e+05   9.576138e+05
  -1.510284e+06   1.876344e+06
  -2.816728e+06   3.465142e+05
  -2.077380e+06  -1.859076e+06
  -9.011122e+04  -2.114877e+06
   1.487276e+06  -2.149475e+05
   1.644006e+06   2.050092e+06
   4.698400e+03   2.941698e+06
  -2.796113e+06   1.696751e+06
  -4.573544e+06  -1.193807e+06
  -3.319895e+06  -3.870470e+06
   5.101971e+04  -4.389621e+06
   2.396426e+06  -2.817745e+06
   2.356370e+06  -1.140759e+06
   1.905980e+06  -6.355416e+05
   2.992497e+06  -4.132860e+05
   4.390223e+06   8.483896e+05
   3.482960e+06   2.850524e+06
   7.452702e+04   4.165302e+06
  -3.266759e+06   3.897712e+06
  -4.207741e+06   2.125796e+06
  -2.686143e+06  -4.017722e+05
  -3.106763e+05  -2.240148e+06
   1.087702e+06  -1.964596e+06
   5.743096e+05   2.298584e+04
  -1.096926e+06   1.319349e+06
  -1.944619e+06   3.878304e+05
  -9.443108e+05  -1.237173e+06
   5.174692e+05  -1.117104e+06
   3.933347e+05   4.062919e+05
  -1.141950e+06   6.372472e+05
  -1.862612e+06  -1.449750e+06
  -4.986951e+05  -3.616646e+06
   1.801896e+06  -3.369510e+06
   3.241197e+06  -9.380408e+05
   3.250970e+06   1.591409e+06
   2.165372e+06   2.799015e+06
   3.937318e+05   2.593735e+06
  -1.253182e+06   1.455067e+06
  -1.582888e+06   2.234824e+05
  -4.969433e+05  -5.256354e+04
   3.503775e+05   7.669149e+05
  -4.516022e+05   1.367356e+06
  -1.968078e+06   5.617430e+05
  -2.060223e+06  -9.547141e+05
  -3.547288e+05  -1.461933e+06
   1.202960e+06  -5.517914e+05
   8.683434e+05   4.784847e+05
  -8.860134e+05   4.730255e+05
  -2.166592e+06  -4.084097e+05
  -1.678982e+06  -1.400457e+06
   3.148044e+05  -1.946098e+06
   2.352026e+06  -1.603466e+06
   2.801403e+06  -2.252092e+05
   1.216607e+06   1.313114e+06
  -9.625390e+05   1.532086e+06
  -1.610876e+06   1.767420e+05
  -2.045454e+05  -1.112585e+06
   1.552411e+06  -7.304328e+05
   1.725694e+06   8.320283e+05
   2.883408e+05   1.682185e+06
  -1.145054e+06   9.435775e+05
  -1.260232e+06  -3.714287e+05
  -2.100866e+05  -8.080684e+05
   8.256906e+05  -3.826816e+04
   7.392972e+05   1.082974e+06
  -5.954406e+05   1.440643e+06
  -2.038717e+06   5.330117e+05
  -2.053506e+06  -1.086541e+06
  -3.598375e+05  -2.112488e+06
   1.494368e+06  -1.643993e+06
   1.756950e+06  -1.750855e+05
   4.828234e+05   8.947449e+05
  -6.867962e+05   7.956210e+05
  -6.253855e+05   6.907684e+04
   1.410055e+05  -3.328126e+05
   4.764880e+05  -1.711315e+05
   7.249713e+04   6.060436e+04
  -4.791863e+05  -1.278310e+05
  -4.989748e+05  -7.239194e+05
   2.527869e+05  -1.205012e+06
   1.422585e+06  -8.785444e+05
   2.101748e+06   4.549845e+05
   1.456939e+06   1.990807e+06
  -2.534101e+05   2.439528e+06
  -1.650318e+06   1.381216e+06
  -1.682843e+06  -1.713732e+05
  -8.171366e+05  -8.973000e+05
  -2.989407e+05  -6.093034e+05
  -5.072540e+05  -1.945075e+05
  -6.639741e+05  -3.380443e+05
  -8.610323e+04  -7.966752e+05
   9.108418e+05  -8.917230e+05
   1.462440e+06  -2.875752e+05
   1.024137e+06   7.397729e+05
  -2.921554e+05   1.442575e+06
  -1.753715e+06   1.037206e+06
  -2.253486e+06  -5.281265e+05
  -1.097772e+06  -2.146284e+06
   1.083197e+06  -2.379750e+06
   2.607034e+06  -9.858473e+05
   2.353641e+06   7.314957e+05
   9.049957e+05   1.369579e+06
  -2.453077e+05   9.178428e+05
  -3.762772e+05   4.771342e+05
  -4.400807e+04   7.640086e+05
  -9.985629e+04   1.348010e+06
  -7.033889e+05   1.314949e+06
  -1.326976e+06   3.116671e+05
  -1.344900e+06  -1.107199e+06
  -5.414069e+05  -1.920968e+06
   6.436466e+05  -1.444612e+06
   1.296644e+06   2.603675e+04
   7.951051e+05   1.322820e+06
  -4.369503e+05   1.408437e+06
  -1.207558e+06   3.669006e+05
  -8.137304e+05  -7.577546e+05
   1.680998e+05  -1.109079e+06
   5.897640e+05  -7.784225e+05
   1.068072e+05  -4.046082e+05
  -4.406565e+05  -3.367759e+05
  -6.020844e+04  -3.848223e+05
   1.177114e+06  -1.920678e+05
   2.099691e+06   3.712571e+05
   1.621551e+06   1.082836e+06
  -8.059844e+04   1.468088e+06
  -1.649477e+06   1.140152e+06
  -1.865630e+06   2.389649e+05
  -8.276626e+05  -5.423481e+05
   2.839083e+05  -5.866680e+05
   5.263169e+05  -1.437751e+04
   3.571396e+04   4.452866e+05
  -4.402870e+05   2.619198e+05
  -4.869626e+05  -3.506110e+05
  -2.728598e+05  -7.266765e+05
  -1.150907e+05  -4.838352e+05
  -1.371687e+05   7.681362e+04
  -2.665982e+05   2.706087e+05
  -2.707260e+05  -2.411243e+05
   1.418572e+05  -9.868363e+05
   9.227525e+05  -1.072382e+06
   1.409474e+06  -1.792406e+05
   8.822776e+05   9.329729e+05
  -4.320819e+05   1.172282e+06
  -1.293388e+06   3.536136e+05
  -7.401313e+05  -5.783542e+05
   7.245111e+05  -6.416627e+05
   1.591905e+06   1.319077e+05
   9.686475e+05   8.923159e+05
  -5.291018e+05   9.700687e+05
  -1.512694e+06   4.248552e+05
  -1.217447e+06  -2.295766e+05
  -1.141797e+05  -5.142684e+05
   6.632298e+05  -2.499829e+05
   3.947909e+05   3.111324e+05
  -5.824629e+05   5.375594e+05
  -1.199081e+06  -6.899860e+04
  -6.981022e+05  -1.188178e+06
   5.752846e+05  -1.730414e+06
   1.490699e+06  -9.072649e+05
   1.266150e+06   7.624026e+05
   1.958535e+05   1.804491e+06
  -7.579031e+05   1.283557e+06
  -9.264132e+05  -2.077854e+05
  -4.019885e+05  -1.210366e+06
   2.598176e+05  -9.593863e+05
   5.771501e+05  -6.693063e+04
   4.454223e+05   3.798657e+05
   1.394747e+05   1.318874e+05
   5.930548e+04  -8.795735e+04
   3.155149e+05   3.183718e+05
   5.201861e+05   9.877436e+05
   1.533334e+05   1.084376e+06
  -7.599329e+05   3.865212e+05
  -1.480569e+06  -4.800559e+05
  -1.256521e+06  -8.544708e+05
  -1.776491e+05  -7.131963e+05
   8.382790e+05  -4.213798e+05
   9.850611e+05  -1.670898e+05
   3.865016e+05   7.279192e+04
  -1.377754e+05   2.302896e+05
  -6.943737e+04   1.899593e+05
   2.326654e+05   7.690910e+04
   6.460063e+04   1.329918e+05
  -6.319258e+05   2.513069e+05
  -1.063732e+06  -3.049030e+03
  -4.897057e+05  -7.086402e+05
   8.191435e+05  -1.213531e+06
   1.746579e+06  -7.900644e+05
   1.474406e+06   4.176127e+05
   2.927271e+05   1.417202e+06
  -7.874372e+05   1.404312e+06
  -1.064013e+06   5.704333e+05
  -6.586018e+05  -2.137416e+05
  -1.519727e+05  -3.638947e+05
   3.885304e+04  -9.068374e+04
  -9.386651e+04  -9.256331e+03
  -2.859410e+05  -3.835578e+05
  -2.347423e+05  -8.181840e+05
   1.731402e+05  -6.964989e+05
   6.829993e+05   9.450959e+04
   7.746661e+05   9.360955e+05
   1.635587e+05   1.049592e+06
  -7.388357e+05   2.920643e+05
  -1.064322e+06  -6.906403e+05
  -3.827846e+05  -1.104852e+06
   7.138822e+05  -7.182836e+05
   1.152912e+06   6.034395e+04
   5.624701e+05   6.456568e+05
  -2.916854e+05   7.236960e+05
  -4.154100e+05   3.817399e+05
   2.151899e+05  -6.456913e+03
   6.483679e+05  -4.845935e+04
   1.620466e+05   3.186879e+05
  -8.335906e+05   6.854138e+05
  -1.303939e+06   5.234231e+05
  -8.082534e+05  -2.063066e+05
   9.115041e+04  -8.955035e+05
   5.880997e+05  -8.836655e+05
   4.675729e+05  -1.916034e+05
   7.666815e+04   4.703145e+05
  -2.334930e+05   4.625153e+05
  -3.560871e+05  -1.139999e+05
  -2.659549e+05  -5.822510e+05
   4.255269e+04  -4.639139e+05
   3.981426e+05   2.815088e+04
   4.947133e+05   3.052735e+05
   2.461085e+05   1.173687e+05
  -5.215293e+04  -1.786706e+05
  -8.349286e+04  -9.820876e+04
   6.189222e+04   3.371671e+05
   1.934731e+04   5.964144e+05
  -3.013511e+05   2.863363e+05
  -5.132956e+05  -3.410759e+05
  -2.247002e+05  -6.508955e+05
   3.940138e+05  -3.393254e+05
   6.990611e+05   2.553142e+05
   2.799410e+05   5.654042e+05
  -5.219820e+05   3.793364e+05
  -9.161284e+05  -5.405341e+04
  -4.990205e+05  -3.781587e+05
   2.949129e+05  -4.344600e+05
   6.558851e+05  -2.687495e+05
   2.815393e+05  -2.584239e+04
  -3.118001e+05   1.016561e+05
  -3.990214e+05  -2.086974e+04
   1.352848e+05  -2.733807e+05
   6.981279e+05  -2.842207e+05
