
 $NMID
 id='ANONYMOUS ', fmtdat='(2E16.6)'
 volume=1.0
 tramp=1.0
 $END
  -4.555137e+07  -6.977262e+05
  -2.752329e+07  -2.740920e+07
   5.411835e+06  -3.039158e+07
   2.202891e+07  -1.283660e+07
   1.383941e+07   4.500568e+06
  -2.112582e+06   7.635156e+06
  -8.178178e+06  -1.709197e+05
  -2.999806e+06  -7.831993e+06
   4.602815e+06  -8.404851e+06
   7.972076e+06  -2.236836e+06
   5.910887e+06   5.268160e+06
   6.114182e+05   7.457925e+06
  -3.485853e+06   2.136568e+06
  -2.329515e+06  -5.085365e+06
   3.055572e+06  -6.002080e+06
   6.595448e+06   8.158721e+05
   3.861421e+06   8.447983e+06
  -3.020556e+06   9.843991e+06
  -8.354746e+06   4.777902e+06
  -8.752742e+06  -1.972861e+06
  -4.980169e+06  -6.206834e+06
  -2.315757e+05  -6.650777e+06
   2.038436e+06  -4.466366e+06
   6.477009e+05  -2.387858e+06
  -1.468903e+06  -2.638237e+06
   1.001038e+05  -4.196241e+06
   5.325548e+06  -3.651480e+06
   8.668780e+06   1.029945e+05
   5.858142e+06   3.885513e+06
  -3.613317e+05   4.276669e+06
  -3.735260e+06   1.778840e+06
  -2.112198e+06  -6.391251e+05
   1.250358e+06  -1.288978e+06
   2.811053e+06  -2.526975e+05
   2.051716e+06   1.943028e+06
   1.040028e+05   3.851200e+06
  -1.824296e+06   3.065961e+06
  -2.350794e+06  -5.478770e+05
  -8.971561e+05  -3.029232e+06
   6.993582e+05  -1.029567e+06
  -4.729537e+04   2.646772e+06
  -2.287478e+06   2.187948e+06
  -2.174792e+06  -2.570190e+06
   1.638385e+06  -5.036804e+06
   5.230100e+06  -9.203467e+05
   4.018266e+06   5.485814e+06
  -1.430741e+06   6.836449e+06
  -6.104843e+06   1.926056e+06
  -6.090704e+06  -3.784950e+06
  -1.868518e+06  -5.289306e+06
   2.993375e+06  -2.596062e+06
   4.843259e+06   1.108371e+06
   2.437502e+06   2.960589e+06
  -1.866634e+06   1.971963e+06
  -3.838969e+06  -6.414085e+05
  -1.759229e+06  -2.200893e+06
   1.401477e+06  -1.161831e+06
   1.646684e+06   8.583943e+05
  -8.385534e+05   1.004116e+06
  -2.122925e+06  -9.896741e+05
   3.042611e+04  -2.520995e+06
   3.377083e+06  -1.667897e+06
   4.346084e+06   7.985713e+05
   2.051395e+06   3.159884e+06
  -1.696280e+06   4.501942e+06
  -4.697209e+06   4.108991e+06
  -5.522305e+06   1.261315e+06
  -3.762418e+06  -2.976832e+06
  -6.208243e+05  -5.462783e+06
   1.509378e+06  -4.296699e+06
   1.382622e+06  -1.428750e+06
   3.665742e+05  -2.001792e+05
   5.533389e+05  -1.014779e+06
   1.956310e+06  -1.343851e+06
   2.719196e+06   2.720278e+05
   1.705453e+06   2.218951e+06
  -3.004601e+05   2.197804e+06
  -1.759339e+06   9.606181e+04
  -1.660690e+06  -2.196514e+06
   1.392043e+05  -2.835668e+06
   2.658456e+06  -1.331177e+06
   3.917210e+06   1.347120e+06
   2.600048e+06   3.394004e+06
  -1.771819e+05   3.520956e+06
  -1.906164e+06   2.178901e+06
  -1.787367e+06   9.919077e+05
  -1.569255e+06   7.429061e+05
  -2.729739e+06   5.491606e+05
  -4.077860e+06  -6.683742e+05
  -3.285612e+06  -2.606073e+06
  -1.010867e+05  -3.934894e+06
   3.152900e+06  -3.679285e+06
   4.099715e+06  -1.857970e+06
   2.494669e+06   6.091872e+05
   4.579133e+04   2.196710e+06
  -1.221319e+06   1.752022e+06
  -5.198308e+05  -1.042153e+05
   1.112685e+06  -1.208480e+06
   1.786650e+06  -3.350226e+05
   7.812260e+05   1.134690e+06
  -5.694195e+05   1.067526e+06
  -5.155202e+05  -3.591842e+05
   8.596135e+05  -8.286063e+05
   1.761814e+06   8.598411e+05
   9.220107e+05   3.077252e+06
  -1.101528e+06   3.422311e+06
  -2.857032e+06   1.473596e+06
  -3.367909e+06  -1.156986e+06
  -2.425948e+06  -2.733792e+06
  -4.853026e+05  -2.652058e+06
   1.266095e+06  -1.410794e+06
   1.559339e+06  -1.591528e+05
   4.753846e+05   5.144728e+04
  -3.403495e+05  -7.250906e+05
   3.727736e+05  -1.242805e+06
   1.761351e+06  -5.294015e+05
   1.910126e+06   8.035236e+05
   3.949335e+05   1.310833e+06
  -1.115051e+06   5.614113e+05
  -9.147300e+05  -4.409086e+05
   7.799888e+05  -5.956722e+05
   2.189133e+06   2.073342e+05
   1.827260e+06   1.328883e+06
  -1.832675e+05   2.008094e+06
  -2.266649e+06   1.654314e+06
  -2.700316e+06   2.561650e+05
  -1.151916e+06  -1.198921e+06
   8.764291e+05  -1.377573e+06
   1.435918e+06  -1.495559e+05
   1.428327e+05   1.005783e+06
  -1.457673e+06   6.784587e+05
  -1.656367e+06  -7.411776e+05
  -3.705346e+05  -1.592747e+06
   1.013136e+06  -9.966572e+05
   1.231291e+06   2.365604e+05
   2.878779e+05   7.317710e+05
  -7.306428e+05   5.633185e+04
  -6.809287e+05  -1.014760e+06
   5.912863e+05  -1.355337e+06
   1.951940e+06  -4.744552e+05
   1.940138e+06   1.052415e+06
   3.436152e+05   1.998453e+06
  -1.387414e+06   1.568543e+06
  -1.661078e+06   2.073115e+05
  -5.020139e+05  -8.320526e+05
   6.317609e+05  -7.862856e+05
   6.503811e+05  -6.287304e+04
  -8.794672e+04   4.130062e+05
  -5.310195e+05   2.636302e+05
  -2.249294e+05  -8.356305e+04
   3.777067e+05  -1.333444e+04
   5.250544e+05   5.810871e+05
  -1.606147e+05   1.132375e+06
  -1.327790e+06   8.636918e+05
  -2.007470e+06  -4.158875e+05
  -1.388931e+06  -1.893936e+06
   2.416730e+05  -2.355580e+06
   1.591118e+06  -1.397128e+06
   1.685524e+06   1.053337e+05
   8.947812e+05   9.262163e+05
   3.222704e+05   7.497776e+05
   3.993824e+05   2.887367e+05
   5.317183e+05   2.844700e+05
   6.812120e+04   6.942694e+05
  -8.370649e+05   8.745623e+05
  -1.421192e+06   3.346307e+05
  -1.060330e+06  -7.265431e+05
   2.265990e+05  -1.471102e+06
   1.688754e+06  -1.060797e+06
   2.196897e+06   4.844674e+05
   1.107795e+06   2.037379e+06
  -9.529570e+05   2.275790e+06
  -2.435228e+06   1.007532e+06
  -2.298127e+06  -6.087049e+05
  -9.928752e+05  -1.307008e+06
   1.668908e+05  -9.850157e+05
   4.340651e+05  -5.547117e+05
   1.766959e+05  -7.203434e+05
   1.614872e+05  -1.208642e+06
   6.502463e+05  -1.197779e+06
   1.228781e+06  -2.785325e+05
   1.269041e+06   1.070136e+06
   5.078186e+05   1.847447e+06
  -6.297145e+05   1.385432e+06
  -1.252325e+06  -6.979569e+03
  -7.871251e+05  -1.227727e+06
   3.527174e+05  -1.343990e+06
   1.081732e+06  -4.303664e+05
   7.713924e+05   6.064800e+05
  -7.780911e+04   9.965254e+05
  -4.603981e+05   7.611274e+05
  -5.956478e+04   4.305559e+05
   4.027234e+05   3.464960e+05
   4.452619e+04   3.787764e+05
  -1.092146e+06   1.979487e+05
  -1.961860e+06  -3.341364e+05
  -1.553947e+06  -1.001800e+06
   1.252541e+04  -1.358291e+06
   1.505081e+06  -1.071245e+06
   1.761305e+06  -2.769637e+05
   8.179332e+05   4.332001e+05
  -2.377709e+05   5.219893e+05
  -4.814764e+05   4.924349e+04
  -7.204555e+03  -3.751372e+05
   4.510168e+05  -2.349006e+05
   4.561103e+05   3.391122e+05
   1.956552e+05   7.161707e+05
   4.882913e+04   4.686768e+05
   1.393254e+05  -1.180402e+05
   3.060712e+05  -3.143849e+05
   2.716891e+05   2.245645e+05
  -1.700044e+05   9.687586e+05
  -8.840016e+05   1.014939e+06
  -1.276490e+06   1.263007e+05
  -7.684576e+05  -8.994161e+05
   4.171925e+05  -1.063193e+06
   1.198019e+06  -2.736358e+05
   6.987501e+05   5.781678e+05
  -6.800232e+05   6.284376e+05
  -1.558579e+06  -9.212373e+04
  -1.017216e+06  -8.416965e+05
   4.456577e+05  -9.867922e+05
   1.473198e+06  -4.995369e+05
   1.230533e+06   1.736563e+05
   1.433521e+05   5.106680e+05
  -6.304893e+05   2.713996e+05
  -3.579423e+05  -2.789685e+05
   5.922811e+05  -4.828344e+05
   1.146047e+06   1.199519e+05
   6.063391e+05   1.170780e+06
  -6.322042e+05   1.636336e+06
  -1.473384e+06   8.204566e+05
  -1.212417e+06  -7.668255e+05
  -1.699550e+05  -1.757235e+06
   7.395583e+05  -1.270854e+06
   9.067589e+05   1.633337e+05
   4.271002e+05   1.165725e+06
  -1.997041e+05   9.583713e+05
  -5.414676e+05   8.636411e+04
  -4.694843e+05  -3.790910e+05
  -1.792332e+05  -1.432526e+05
  -4.049979e+04   9.918136e+04
  -2.388881e+05  -2.768462e+05
  -4.738852e+05  -9.431040e+05
  -1.980965e+05  -1.059986e+06
   6.735278e+05  -3.813031e+05
   1.438186e+06   4.731738e+05
   1.262593e+06   8.330031e+05
   1.746964e+05   6.793201e+05
  -8.579518e+05   3.964869e+05
  -9.704537e+05   1.732115e+05
  -3.351919e+05  -4.463122e+04
   1.523216e+05  -2.165038e+05
   1.511004e+04  -2.110436e+05
  -2.807370e+05  -1.080889e+05
  -3.873223e+04  -1.319744e+05
   6.732229e+05  -2.135517e+05
   1.018545e+06   3.089078e+04
   3.811278e+05   6.772998e+05
  -8.567749e+05   1.125960e+06
  -1.653409e+06   7.012929e+05
  -1.345493e+06  -4.504635e+05
  -2.430581e+05  -1.379424e+06
   7.598297e+05  -1.326104e+06
   1.030477e+06  -4.985313e+05
   6.398796e+05   2.459251e+05
   1.175390e+05   3.510660e+05
  -8.692597e+04   5.231954e+04
   7.286979e+04  -2.879515e+04
   2.979213e+05   3.564965e+05
   2.393617e+05   7.915996e+05
  -1.867765e+05   6.567496e+05
  -6.672350e+05  -1.381587e+05
  -6.999710e+05  -9.489450e+05
  -8.211737e+04  -1.006278e+06
   7.481857e+05  -2.174518e+05
   9.969947e+05   7.295903e+05
   3.173805e+05   1.066353e+06
  -7.061262e+05   6.414197e+05
  -1.082764e+06  -8.982067e+04
  -5.025506e+05  -5.924338e+05
   2.865663e+05  -6.438589e+05
   3.609631e+05  -3.511606e+05
  -2.558497e+05  -1.690533e+04
  -6.381521e+05   2.906298e+04
  -1.347652e+05  -2.995331e+05
   8.130494e+05  -6.554496e+05
   1.222653e+06  -5.237803e+05
   7.277786e+05   1.706508e+05
  -1.047353e+05   8.418324e+05
  -5.360876e+05   8.236778e+05
  -4.036244e+05   1.432618e+05
  -4.033629e+04  -4.739495e+05
   2.406852e+05  -4.151860e+05
   3.431306e+05   1.590803e+05
   2.402027e+05   5.665749e+05
  -5.921162e+04   4.057557e+05
  -3.807497e+05  -5.266768e+04
  -4.570450e+05  -2.706605e+05
  -2.354080e+05  -8.930459e+04
   2.591168e+04   1.378274e+05
   7.973346e+04   2.424552e+04
   7.744384e+03  -3.528711e+05
   7.703509e+04  -5.243044e+05
   3.211002e+05  -1.895117e+05
   4.287930e+05   3.884233e+05
   1.268051e+05   6.359396e+05
  -4.073010e+05   2.977036e+05
  -6.386040e+05  -2.866466e+05
  -2.367613e+05  -5.667554e+05
   4.956298e+05  -3.502075e+05
   8.544789e+05   8.714817e+04
   4.608240e+05   3.735396e+05
  -2.907286e+05   3.798927e+05
  -6.233315e+05   2.067381e+05
  -2.364353e+05   1.365625e+04
   3.502723e+05  -5.537900e+04
   4.020927e+05   7.746813e+04
  -1.759017e+05   2.898932e+05
  -7.432957e+05   2.581652e+05
