
 $NMID
 id='ANONYMOUS ', fmtdat='(2E16.6)'
 volume=1.0
 tramp=1.0
 $END
   4.348255e+07  -1.524378e+06
   2.792622e+07   2.387468e+07
  -2.907160e+06   2.892839e+07
  -1.997279e+07   1.427064e+07
  -1.378436e+07  -2.566119e+06
   1.143222e+06  -7.433943e+06
   7.943991e+06  -9.309609e+05
   3.875776e+06   7.208389e+06
  -3.555598e+06   8.899330e+06
  -7.565071e+06   3.070389e+06
  -6.136521e+06  -4.848352e+06
  -1.001029e+06  -7.438932e+06
   3.387478e+06  -2.179458e+06
   2.688958e+06   5.219361e+06
  -2.541110e+06   6.431512e+06
  -6.495013e+06  -1.772911e+05
  -4.393262e+06  -7.954060e+06
   2.244810e+06  -9.785652e+06
   7.805780e+06  -5.061409e+06
   8.473888e+06   1.588979e+06
   4.836775e+06   5.742288e+06
   3.548517e+05   6.073611e+06
  -1.453327e+06   4.036218e+06
   1.796866e+05   2.433398e+06
   2.027669e+06   3.077566e+06
  -4.642721e+04   4.635789e+06
  -5.578661e+06   3.902635e+06
  -8.928739e+06   6.082618e+04
  -5.944784e+06  -3.765520e+06
   5.203584e+05  -4.250369e+06
   4.016671e+06  -1.706186e+06
   2.155633e+06   9.751488e+05
  -1.668211e+06   1.727098e+06
  -3.393402e+06   3.347393e+05
  -2.304307e+06  -2.302247e+06
  -1.049556e+04  -4.176014e+06
   1.828920e+06  -3.000968e+06
   2.086177e+06   7.400422e+05
   6.682019e+05   2.916971e+06
  -6.806530e+05   6.300249e+05
   1.074033e+05  -3.030739e+06
   2.259543e+06  -2.474763e+06
   2.365967e+06   2.302645e+06
  -1.022055e+06   4.941543e+06
  -4.637576e+06   1.244065e+06
  -4.058758e+06  -4.913489e+06
   8.774515e+05  -6.555633e+06
   5.781975e+06  -2.179729e+06
   6.387464e+06   3.368635e+06
   2.390207e+06   5.220700e+06
  -2.818027e+06   2.954973e+06
  -5.111694e+06  -6.531390e+05
  -2.852595e+06  -2.756732e+06
   1.591913e+06  -2.122835e+06
   3.820429e+06   3.033748e+05
   1.934894e+06   1.984175e+06
  -1.276692e+06   1.225678e+06
  -1.795006e+06  -7.321442e+05
   5.616164e+05  -1.186789e+06
   2.150024e+06   4.990528e+05
   4.494508e+05   2.192003e+06
  -2.847116e+06   1.868805e+06
  -4.219000e+06  -2.811599e+05
  -2.270674e+06  -2.840369e+06
   1.512675e+06  -4.581156e+06
   4.699652e+06  -4.363560e+06
   5.571541e+06  -1.438902e+06
   3.819231e+06   2.923140e+06
   8.271567e+05   5.518848e+06
  -1.166742e+06   4.502672e+06
  -1.176489e+06   1.765038e+06
  -4.880306e+05   5.235148e+05
  -8.843810e+05   1.191378e+06
  -2.279287e+06   1.345560e+06
  -2.952859e+06  -4.288875e+05
  -1.824411e+06  -2.496908e+06
   3.801874e+05  -2.461234e+06
   2.042534e+06  -1.587204e+05
   1.949927e+06   2.363296e+06
  -5.510342e+04   3.050009e+06
  -2.761819e+06   1.430817e+06
  -4.041306e+06  -1.324169e+06
  -2.681614e+06  -3.335635e+06
   6.581595e+04  -3.438459e+06
   1.731142e+06  -2.172428e+06
   1.621655e+06  -1.102152e+06
   1.502346e+06  -9.452210e+05
   2.813485e+06  -8.191491e+05
   4.330660e+06   4.065937e+05
   3.635547e+06   2.531366e+06
   3.516636e+05   4.171152e+06
  -3.166604e+06   4.091505e+06
  -4.310626e+06   2.139946e+06
  -2.668323e+06  -6.188214e+05
  -5.400204e+04  -2.377283e+06
   1.294724e+06  -1.882591e+06
   5.475216e+05   1.247860e+05
  -1.152399e+06   1.330189e+06
  -1.853283e+06   4.391289e+05
  -8.366150e+05  -1.146572e+06
   5.846876e+05  -1.171939e+06
   6.387261e+05   3.381621e+05
  -7.512480e+05   1.036217e+06
  -1.908478e+06  -5.581416e+05
  -1.372427e+06  -3.031165e+06
   6.644962e+05  -3.797336e+06
   2.827285e+06  -2.016971e+06
   3.779010e+06   8.491552e+05
   2.925957e+06   2.792583e+06
   7.323980e+05   2.883972e+06
  -1.300816e+06   1.592047e+06
  -1.678324e+06   2.355451e+05
  -5.098653e+05  -2.746593e+04
   4.076903e+05   7.510811e+05
  -2.998652e+05   1.315664e+06
  -1.791798e+06   6.593730e+05
  -2.052709e+06  -6.967987e+05
  -5.199712e+05  -1.333181e+06
   1.142522e+06  -6.786002e+05
   1.044314e+06   4.098400e+05
  -7.623134e+05   7.528411e+05
  -2.404222e+06   1.107562e+03
  -2.138805e+06  -1.301043e+06
   1.606365e+04  -2.224616e+06
   2.328759e+06  -1.959075e+06
   2.876838e+06  -4.516216e+05
   1.291116e+06   1.185182e+06
  -8.372234e+05   1.476543e+06
  -1.473000e+06   2.293108e+05
  -1.819260e+05  -1.039107e+06
   1.505309e+06  -7.980662e+05
   1.812843e+06   6.688445e+05
   5.332125e+05   1.668463e+06
  -9.818906e+05   1.165842e+06
  -1.337647e+06  -1.238363e+05
  -3.894816e+05  -7.434739e+05
   7.503652e+05  -1.106182e+05
   7.749952e+05   1.036315e+06
  -5.636027e+05   1.474007e+06
  -2.060036e+06   6.049339e+05
  -2.122896e+06  -1.017484e+06
  -4.827942e+05  -2.103268e+06
   1.369404e+06  -1.752281e+06
   1.749749e+06  -3.363715e+05
   6.015268e+05   8.467223e+05
  -6.174092e+05   8.872150e+05
  -7.168077e+05   1.029360e+05
   4.538001e+04  -4.934788e+05
   5.878060e+05  -3.646466e+05
   3.236816e+05   8.530219e+04
  -3.592366e+05   1.027554e+05
  -6.166166e+05  -5.325171e+05
   6.419161e+04  -1.207028e+06
   1.350019e+06  -1.012171e+06
   2.166916e+06   3.160978e+05
   1.592544e+06   1.935837e+06
  -1.186269e+05   2.539954e+06
  -1.620888e+06   1.622096e+06
  -1.840759e+06   1.715680e+04
  -1.065987e+06  -9.656500e+05
  -4.097756e+05  -8.610222e+05
  -4.043684e+05  -3.362421e+05
  -5.339672e+05  -2.553168e+05
  -1.065928e+05  -7.041678e+05
   8.234583e+05  -9.937593e+05
   1.506963e+06  -4.729131e+05
   1.216289e+06   7.188651e+05
  -1.255865e+05   1.627837e+06
  -1.744234e+06   1.267642e+06
  -2.394813e+06  -3.760809e+05
  -1.331049e+06  -2.101993e+06
   8.435949e+05  -2.484740e+06
   2.511575e+06  -1.249107e+06
   2.510263e+06   4.698612e+05
   1.198470e+06   1.332997e+06
  -8.499289e+04   1.112195e+06
  -4.645964e+05   6.674939e+05
  -2.120074e+05   7.775289e+05
  -1.353555e+05   1.261984e+06
  -6.143161e+05   1.287228e+06
  -1.276473e+06   3.591229e+05
  -1.409807e+06  -1.073978e+06
  -6.460596e+05  -1.948147e+06
   5.980694e+05  -1.518444e+06
   1.343484e+06  -7.476420e+04
   9.249291e+05   1.246255e+06
  -2.661001e+05   1.453032e+06
  -1.092765e+06   5.601922e+05
  -8.538385e+05  -5.449313e+05
  -1.460569e+04  -1.035944e+06
   3.964067e+05  -8.460422e+05
   1.701941e+04  -4.833443e+05
  -4.419894e+05  -3.577718e+05
  -6.432804e+04  -4.069460e+05
   1.137574e+06  -2.825760e+05
   2.091927e+06   2.310992e+05
   1.719463e+06   9.616773e+05
   9.691419e+04   1.428304e+06
  -1.509550e+06   1.222072e+06
  -1.852330e+06   4.220682e+05
  -9.099567e+05  -3.728769e+05
   2.073364e+05  -5.518615e+05
   4.998508e+05  -9.794384e+04
   1.639011e+04   3.755047e+05
  -4.815805e+05   2.701654e+05
  -5.020298e+05  -3.366786e+05
  -2.201262e+05  -7.638638e+05
  -5.026191e+04  -5.012118e+05
  -1.445793e+05   1.561833e+05
  -3.321193e+05   3.821358e+05
  -3.104878e+05  -2.200388e+05
   1.393806e+05  -1.057382e+06
   8.847166e+05  -1.131766e+06
   1.322313e+06  -1.880016e+05
   8.378364e+05   9.195720e+05
  -3.853572e+05   1.132162e+06
  -1.245044e+06   3.313722e+05
  -7.760933e+05  -5.879884e+05
   6.821862e+05  -7.178511e+05
   1.685897e+06  -1.086222e+04
   1.179352e+06   8.310449e+05
  -3.870414e+05   1.107179e+06
  -1.554366e+06   6.658487e+05
  -1.355289e+06  -8.941814e+04
  -1.999605e+05  -5.453048e+05
   6.550370e+05  -3.423679e+05
   3.889840e+05   2.684510e+05
  -6.215996e+05   5.361990e+05
  -1.231457e+06  -8.654579e+04
  -6.874743e+05  -1.231878e+06
   6.181919e+05  -1.776508e+06
   1.548063e+06  -9.407372e+05
   1.340692e+06   7.650718e+05
   2.773223e+05   1.881129e+06
  -7.208205e+05   1.421452e+06
  -9.872376e+05  -1.033910e+05
  -5.456236e+05  -1.222754e+06
   1.326264e+05  -1.054272e+06
   5.679253e+05  -1.349790e+05
   5.450129e+05   3.841240e+05
   2.221790e+05   1.501839e+05
   2.942861e+04  -1.151421e+05
   2.408178e+05   2.691913e+05
   5.501058e+05   9.786400e+05
   2.988802e+05   1.130302e+06
  -6.708810e+05   4.515997e+05
  -1.574126e+06  -4.267709e+05
  -1.426606e+06  -8.214602e+05
  -2.290592e+05  -7.134677e+05
   9.195145e+05  -4.716354e+05
   1.039278e+06  -2.491410e+05
   3.435788e+05   1.622714e+04
  -1.598312e+05   2.384295e+05
   2.148129e+04   2.393935e+05
   3.348713e+05   1.146121e+05
   3.835639e+04   1.414802e+05
  -7.397015e+05   2.560286e+05
  -1.090429e+06   1.370778e+04
  -4.049965e+05  -7.016812e+05
   8.840613e+05  -1.237011e+06
   1.716393e+06  -8.199583e+05
   1.432692e+06   4.268188e+05
   3.236432e+05   1.470359e+06
  -7.362557e+05   1.452796e+06
  -1.077681e+06   5.709523e+05
  -7.033561e+05  -2.445788e+05
  -1.330434e+05  -3.699458e+05
   1.141784e+05  -4.525749e+04
  -6.744315e+04   5.296424e+04
  -3.508595e+05  -3.577771e+05
  -3.095564e+05  -8.354432e+05
   1.712029e+05  -7.081311e+05
   7.281451e+05   1.310520e+05
   7.843564e+05   9.984014e+05
   1.112299e+05   1.071699e+06
  -8.067839e+05   2.470379e+05
  -1.098299e+06  -7.535617e+05
  -3.785460e+05  -1.124987e+06
   7.277908e+05  -7.049747e+05
   1.152271e+06   4.756126e+04
   5.543681e+05   5.913381e+05
  -2.722190e+05   6.814732e+05
  -3.475936e+05   3.891846e+05
   2.983059e+05   1.327956e+04
   6.884952e+05  -6.079420e+04
   1.518464e+05   3.095117e+05
  -8.369384e+05   7.479345e+05
  -1.262388e+06   6.421651e+05
  -7.649366e+05  -1.270191e+05
   7.079619e+04  -8.981018e+05
   5.112957e+05  -9.003575e+05
   4.020212e+05  -1.570638e+05
   5.556130e+04   5.155939e+05
  -2.410705e+05   4.446923e+05
  -3.776031e+05  -1.735165e+05
  -2.832623e+05  -5.955402e+05
   4.863229e+04  -4.187170e+05
   4.099251e+05   4.615236e+04
   4.958867e+05   2.519926e+05
   2.562731e+05   7.039142e+04
  -2.385694e+04  -1.301115e+05
  -8.557509e+04   1.228370e+04
  -1.920886e+04   3.926881e+05
  -9.780178e+04   5.433901e+05
  -3.484969e+05   1.811700e+05
  -4.516650e+05  -4.200586e+05
  -1.308136e+05  -6.790343e+05
   4.322167e+05  -3.294361e+05
   6.849154e+05   2.890514e+05
   2.717856e+05   6.040108e+05
  -5.068924e+05   3.971322e+05
  -9.074992e+05  -5.987723e+04
  -5.063087e+05  -3.775332e+05
   2.926440e+05  -4.057223e+05
   6.520262e+05  -2.332233e+05
   2.358821e+05  -2.277956e+04
  -3.963304e+05   6.027923e+04
  -4.443960e+05  -8.642713e+04
   1.927496e+05  -3.341370e+05
   8.148444e+05  -3.138693e+05
