
 $NMID
 id='ANONYMOUS ', fmtdat='(2E16.6)'
 volume=1.0
 tramp=1.0
 $END
   4.444744e+07   1.160980e+06
   2.626025e+07   2.744534e+07
  -6.025660e+06   2.964488e+07
  -2.168659e+07   1.177457e+07
  -1.313068e+07  -4.983981e+06
   2.354619e+06  -7.322398e+06
   7.787478e+06   5.652189e+05
   2.518040e+06   7.619002e+06
  -4.673433e+06   7.757235e+06
  -7.676111e+06   1.847102e+06
  -5.619110e+06  -5.098868e+06
  -5.634847e+05  -7.099136e+06
   3.334189e+06  -2.100050e+06
   2.184540e+06   4.701483e+06
  -2.996783e+06   5.532721e+06
  -6.305620e+06  -9.783038e+05
  -3.548279e+06  -8.204935e+06
   3.095375e+06  -9.443664e+06
   8.169262e+06  -4.549131e+06
   8.542389e+06   1.947423e+06
   4.919066e+06   6.117240e+06
   2.133552e+05   6.654913e+06
  -2.216534e+06   4.461740e+06
  -9.715515e+05   2.170647e+06
   1.252706e+06   2.213500e+06
   2.341348e+04   3.808452e+06
  -4.878583e+06   3.524609e+06
  -8.170372e+06   3.716693e+04
  -5.644709e+06  -3.647345e+06
   1.744895e+05  -4.140891e+06
   3.409058e+06  -1.861707e+06
   2.064167e+06   3.935729e+05
  -9.025792e+05   1.107853e+06
  -2.398742e+06   3.471278e+05
  -1.950243e+06  -1.613645e+06
  -2.825461e+05  -3.561293e+06
   1.697144e+06  -3.025883e+06
   2.434415e+06   4.163442e+05
   1.023584e+06   2.977740e+06
  -7.193577e+05   1.195579e+06
  -9.435928e+04  -2.364118e+06
   2.127160e+06  -2.004449e+06
   2.010216e+06   2.523350e+06
  -1.787510e+06   4.820147e+06
  -5.244754e+06   7.389633e+05
  -3.858049e+06  -5.461345e+06
   1.556647e+06  -6.645260e+06
   5.946118e+06  -1.794833e+06
   5.714557e+06   3.675891e+06
   1.634012e+06   4.999252e+06
  -2.850939e+06   2.352294e+06
  -4.472869e+06  -1.146799e+06
  -2.175202e+06  -2.827631e+06
   1.851913e+06  -1.816037e+06
   3.653185e+06   7.002568e+05
   1.621876e+06   2.149397e+06
  -1.366027e+06   1.092079e+06
  -1.507726e+06  -8.254904e+05
   8.863760e+05  -8.465438e+05
   1.967799e+06   1.139511e+06
  -2.614348e+05   2.502829e+06
  -3.438111e+06   1.488225e+06
  -4.177364e+06  -9.515273e+05
  -1.880092e+06  -3.119425e+06
   1.621409e+06  -4.298712e+06
   4.398477e+06  -3.922797e+06
   5.235169e+06  -1.243346e+06
   3.641706e+06   2.804696e+06
   6.171971e+05   5.180183e+06
  -1.496551e+06   4.010967e+06
  -1.350213e+06   1.213107e+06
  -2.464657e+05   6.614724e+04
  -3.298678e+05   9.481973e+05
  -1.695798e+06   1.371615e+06
  -2.523671e+06  -9.825957e+04
  -1.664558e+06  -1.940655e+06
   1.626902e+05  -1.996628e+06
   1.535018e+06  -1.405030e+05
   1.521324e+06   1.947238e+06
  -8.312971e+04   2.606839e+06
  -2.459178e+06   1.299852e+06
  -3.727388e+06  -1.207096e+06
  -2.520720e+06  -3.226474e+06
   1.654079e+05  -3.413620e+06
   1.877181e+06  -2.112027e+06
   1.766231e+06  -9.119154e+05
   1.498108e+06  -6.358036e+05
   2.531779e+06  -4.598940e+05
   3.769801e+06   6.548290e+05
   3.027011e+06   2.425003e+06
   8.682119e+04   3.625300e+06
  -2.889953e+06   3.396928e+06
  -3.756943e+06   1.760858e+06
  -2.324156e+06  -5.021759e+05
  -1.115913e+05  -2.017901e+06
   1.078937e+06  -1.656061e+06
   4.882622e+05   7.150216e+04
  -1.004591e+06   1.126938e+06
  -1.656786e+06   3.180914e+05
  -7.479468e+05  -1.056427e+06
   4.965845e+05  -9.863112e+05
   4.337405e+05   3.238300e+05
  -8.302042e+05   6.900773e+05
  -1.588005e+06  -9.203464e+05
  -7.171674e+05  -2.893472e+06
   1.147277e+06  -3.059337e+06
   2.648665e+06  -1.201098e+06
   3.013670e+06   1.133610e+06
   2.151457e+06   2.474185e+06
   4.330449e+05   2.388169e+06
  -1.145030e+06   1.298671e+06
  -1.425860e+06   1.665000e+05
  -4.381064e+05  -4.547603e+04
   3.109569e+05   6.656908e+05
  -3.582558e+05   1.151910e+06
  -1.644470e+06   4.831926e+05
  -1.761694e+06  -7.622217e+05
  -3.473504e+05  -1.216330e+06
   1.024752e+06  -5.042400e+05
   8.137577e+05   4.004241e+05
  -7.255386e+05   5.034821e+05
  -1.969809e+06  -2.300693e+05
  -1.622657e+06  -1.208635e+06
   1.870887e+05  -1.800411e+06
   2.068451e+06  -1.493347e+06
   2.472847e+06  -2.315704e+05
   1.060982e+06   1.112574e+06
  -8.168183e+05   1.285647e+06
  -1.344448e+06   1.403469e+05
  -1.431190e+05  -9.384752e+05
   1.343605e+06  -6.279338e+05
   1.516618e+06   6.898455e+05
   3.197933e+05   1.458509e+06
  -9.402895e+05   8.883634e+05
  -1.114861e+06  -2.405458e+05
  -2.416142e+05  -6.718311e+05
   6.808387e+05  -4.026513e+04
   6.269430e+05   9.385492e+05
  -5.408613e+05   1.249771e+06
  -1.794662e+06   4.437328e+05
  -1.789404e+06  -9.639121e+05
  -3.168943e+05  -1.840660e+06
   1.282145e+06  -1.441772e+06
   1.527792e+06  -1.844449e+05
   4.527748e+05   7.635798e+05
  -5.805261e+05   7.139827e+05
  -5.814684e+05   6.473701e+04
   8.732308e+04  -3.488737e+05
   4.613818e+05  -2.191176e+05
   1.666823e+05   6.109067e+04
  -3.611279e+05  -2.852409e+04
  -4.640865e+05  -5.613588e+05
   1.703820e+05  -1.042078e+06
   1.228212e+06  -7.861426e+05
   1.844893e+06   3.869137e+05
   1.278252e+06   1.743021e+06
  -2.178838e+05   2.160204e+06
  -1.451758e+06   1.268802e+06
  -1.527204e+06  -1.032586e+05
  -8.024007e+05  -8.254570e+05
  -3.018156e+05  -6.455015e+05
  -3.969647e+05  -2.467365e+05
  -5.121135e+05  -2.800453e+05
  -6.083154e+04  -6.587373e+05
   7.787016e+05  -7.981351e+05
   1.299745e+06  -2.935702e+05
   9.573929e+05   6.602457e+05
  -2.160520e+05   1.327819e+06
  -1.546363e+06   9.590415e+05
  -2.008360e+06  -4.473314e+05
  -1.003329e+06  -1.871304e+06
   8.951324e+05  -2.085418e+06
   2.246649e+06  -9.074775e+05
   2.094072e+06   5.757573e+05
   8.821166e+05   1.190772e+06
  -1.611898e+05   8.734134e+05
  -3.726755e+05   4.912892e+05
  -1.287127e+05   6.751580e+05
  -1.362636e+05   1.136599e+06
  -6.062029e+05   1.115247e+06
  -1.140633e+06   2.592230e+05
  -1.172581e+06  -9.807126e+05
  -4.718479e+05  -1.695368e+06
   5.731159e+05  -1.273768e+06
   1.145724e+06   8.757615e+03
   7.144544e+05   1.134781e+06
  -3.395332e+05   1.231107e+06
  -1.005782e+06   3.705200e+05
  -7.017011e+05  -5.874895e+05
   9.698722e+04  -9.256344e+05
   4.474522e+05  -6.869526e+05
   6.103524e+04  -3.811980e+05
  -3.779919e+05  -3.145027e+05
  -4.524043e+04  -3.476885e+05
   1.012406e+06  -1.763316e+05
   1.814703e+06   3.158831e+05
   1.425501e+06   9.284122e+05
  -3.119933e+04   1.254084e+06
  -1.402628e+06   9.842682e+05
  -1.620125e+06   2.424048e+05
  -7.380602e+05  -4.164661e+05
   2.302263e+05  -4.873632e+05
   4.455766e+05  -3.473469e+04
   9.665746e+03   3.614051e+05
  -4.088615e+05   2.243137e+05
  -4.235274e+05  -3.112980e+05
  -1.996048e+05  -6.594863e+05
  -6.175641e+04  -4.348955e+05
  -1.228507e+05   9.824726e+04
  -2.641190e+05   2.786659e+05
  -2.457882e+05  -2.087817e+05
   1.463419e+05  -8.886691e+05
   8.141657e+05  -9.358340e+05
   1.196195e+06  -1.207066e+05
   7.267048e+05   8.319721e+05
  -3.874163e+05   9.930524e+05
  -1.117606e+06   2.655566e+05
  -6.480565e+05  -5.256877e+05
   6.268817e+05  -5.741586e+05
   1.421879e+06   8.849146e+04
   9.125366e+05   7.685665e+05
  -4.193688e+05   8.882299e+05
  -1.339817e+06   4.394279e+05
  -1.110895e+06  -1.647059e+05
  -1.252179e+05  -4.616133e+05
   5.771715e+05  -2.413289e+05
   3.320945e+05   2.624452e+05
  -5.380863e+05   4.549975e+05
  -1.058539e+06  -9.588784e+04
  -5.771509e+05  -1.072697e+06
   5.604551e+05  -1.517610e+06
   1.346338e+06  -7.727092e+05
   1.119218e+06   6.941368e+05
   1.655811e+05   1.609757e+06
  -6.713551e+05   1.159946e+06
  -8.255848e+05  -1.567335e+05
  -3.833169e+05  -1.065765e+06
   1.919361e+05  -8.661067e+05
   4.984270e+05  -7.256539e+04
   4.219520e+05   3.403242e+05
   1.543900e+05   1.227812e+05
   3.964408e+04  -8.597216e+04
   2.332414e+05   2.672221e+05
   4.424912e+05   8.691310e+05
   1.723099e+05   9.635800e+05
  -6.313774e+05   3.433228e+05
  -1.318702e+06  -4.279539e+05
  -1.147896e+06  -7.552346e+05
  -1.596955e+05  -6.251546e+05
   7.750755e+05  -3.725083e+05
   8.839209e+05  -1.593163e+05
   3.149334e+05   5.046149e+04
  -1.346390e+05   2.022559e+05
  -2.390696e+04   1.821408e+05
   2.462495e+05   8.527794e+04
   4.150510e+04   1.222922e+05
  -6.039732e+05   2.099378e+05
  -9.387630e+05  -2.047566e+04
  -3.732693e+05  -6.307449e+05
   7.711972e+05  -1.051907e+06
   1.529290e+06  -6.588041e+05
   1.259284e+06   4.060691e+05
   2.364300e+05   1.265854e+06
  -6.978651e+05   1.225143e+06
  -9.485762e+05   4.721706e+05
  -5.896721e+05  -2.144337e+05
  -1.153394e+05  -3.245149e+05
   7.044216e+04  -6.144313e+04
  -6.788862e+04   1.526772e+04
  -2.668311e+05  -3.280478e+05
  -2.175060e+05  -7.237481e+05
   1.665437e+05  -6.080047e+05
   6.141160e+05   1.130162e+05
   6.598053e+05   8.617745e+05
   9.587568e+04   9.314119e+05
  -6.828168e+05   2.205307e+05
  -9.294436e+05  -6.541691e+05
  -3.062935e+05  -9.825478e+05
   6.472300e+05  -6.044197e+05
   1.003980e+06   7.549746e+04
   4.690977e+05   5.543090e+05
  -2.658983e+05   6.052235e+05
  -3.422250e+05   3.229590e+05
   2.249641e+05   4.501631e+03
   5.840436e+05  -3.328125e+04
   1.289152e+05   2.787546e+05
  -7.430320e+05   6.050321e+05
  -1.127935e+06   4.745502e+05
  -6.785943e+05  -1.673184e+05
   9.229989e+04  -7.796767e+05
   5.010679e+05  -7.610514e+05
   3.861632e+05  -1.382505e+05
   4.831076e+04   4.328662e+05
  -2.192134e+05   3.907277e+05
  -3.198914e+05  -1.329412e+05
  -2.259551e+05  -5.197411e+05
   5.294226e+04  -3.847207e+05
   3.526016e+05   4.143212e+04
   4.226730e+05   2.554059e+05
   2.144784e+05   8.778487e+04
  -2.690594e+04  -1.374285e+05
  -6.678295e+04  -4.011297e+04
   1.327723e+04   3.230046e+05
  -5.013574e+04   5.031356e+05
  -2.946486e+05   1.994376e+05
  -4.165982e+05  -3.466884e+05
  -1.411037e+05  -5.896795e+05
   3.691063e+05  -2.839347e+05
   5.993086e+05   2.550916e+05
   2.285585e+05   5.173551e+05
  -4.577145e+05   3.253520e+05
  -7.948054e+05  -7.241513e+04
  -4.294386e+05  -3.415930e+05
   2.680708e+05  -3.595645e+05
   5.787237e+05  -2.033503e+05
   2.270041e+05  -1.267720e+04
  -3.124230e+05   6.693596e+04
  -3.699487e+05  -5.398349e+04
   1.467353e+05  -2.637394e+05
   6.650753e+05  -2.487996e+05
