
 $NMID
 id='ANONYMOUS ', fmtdat='(2E16.6)'
 volume=1.0
 tramp=1.0
 $END
  -9.987347e+06  -2.415004e+06
  -5.342676e+06  -5.611630e+06
   1.215717e+06  -5.808422e+06
   4.677072e+06  -3.552806e+06
   3.506282e+06  -3.234988e+05
   1.239470e+05   1.680335e+06
  -2.028277e+06   9.032998e+05
  -1.487002e+06  -1.628847e+06
   5.858171e+05  -2.867766e+06
   1.983369e+06  -1.153683e+06
   1.522769e+06   1.652241e+06
  -1.028125e+05   2.357124e+06
  -1.193909e+06   2.720989e+05
  -7.103169e+05  -2.126574e+06
   7.865174e+05  -2.222203e+06
   1.714433e+06  -3.091740e+04
   1.000260e+06   2.203085e+06
  -8.570319e+05   2.487177e+06
  -2.217595e+06   8.224914e+05
  -1.897958e+06  -1.124762e+06
  -3.894699e+05  -1.748038e+06
   6.409420e+05  -1.001435e+06
   1.671135e+05  -2.754971e+05
  -1.014874e+06  -7.139386e+05
  -1.139725e+06  -1.826416e+06
   5.003180e+05  -2.099262e+06
   2.610935e+06  -8.663469e+05
   3.142771e+06   9.104613e+05
   1.440265e+06   1.777130e+06
  -9.873574e+05   1.232348e+06
  -1.922884e+06  -8.113755e+04
  -6.580699e+05  -1.110483e+06
   1.332695e+06  -1.059933e+06
   1.994988e+06   1.424108e+05
   8.493635e+05   1.563228e+06
  -6.740702e+05   1.829593e+06
  -1.009921e+06   5.758801e+05
  -1.681964e+05  -8.674430e+05
   5.711993e+05  -8.583164e+05
   3.337108e+05   5.302353e+05
  -4.838430e+05   1.532130e+06
  -9.509119e+05   8.927280e+05
  -6.714904e+05  -5.876506e+05
   4.203831e+04  -1.128555e+06
   6.135987e+05  -1.515488e+05
   5.373572e+05   1.164406e+06
  -3.545926e+05   1.357078e+06
  -1.529943e+06   2.121424e+05
  -1.893806e+06  -1.217600e+06
  -8.197451e+05  -1.745120e+06
   9.421581e+05  -1.059525e+06
   1.833801e+06   1.470394e+05
   1.123552e+06   8.627846e+05
  -3.225581e+05   6.388293e+05
  -1.055467e+06  -8.662661e+04
  -5.733249e+05  -5.133640e+05
   3.513658e+05  -2.883195e+05
   6.697892e+05   2.497319e+05
   1.346248e+05   5.348883e+05
  -5.576645e+05   3.298049e+05
  -5.432369e+05  -1.395370e+05
   2.660594e+05  -4.089178e+05
   9.773072e+05  -1.181243e+05
   5.960636e+05   6.542132e+05
  -8.086339e+05   1.294253e+06
  -2.024757e+06   1.087163e+06
  -1.967958e+06  -4.880448e+04
  -8.505346e+05  -1.342098e+06
   1.792930e+05  -1.875146e+06
   4.159301e+05  -1.499101e+06
   2.367182e+05  -8.779773e+05
   3.694865e+05  -6.178200e+05
   9.305104e+05  -5.691279e+05
   1.390702e+06  -1.506018e+05
   1.239272e+06   7.475810e+05
   4.513836e+05   1.436867e+06
  -5.349705e+05   1.135165e+06
  -1.085373e+06  -8.310721e+04
  -7.594751e+05  -1.209707e+06
   2.687595e+05  -1.257260e+06
   1.195893e+06  -2.344932e+05
   1.254918e+06   9.135050e+05
   4.816571e+05   1.299670e+06
  -3.400152e+05   9.053927e+05
  -5.663738e+05   3.883655e+05
  -3.780560e+05   2.563772e+05
  -4.564485e+05   3.862479e+05
  -1.065463e+06   2.970216e+05
  -1.628457e+06  -2.768088e+05
  -1.303686e+06  -1.111554e+06
   3.877673e+04  -1.662258e+06
   1.497148e+06  -1.467706e+06
   1.910987e+06  -5.382110e+05
   1.013095e+06   5.453797e+05
  -2.682143e+05   1.022472e+06
  -7.540270e+05   6.224333e+05
  -2.015016e+05  -1.377306e+05
   5.782406e+05  -4.494116e+05
   7.192786e+05  -5.822053e+04
   1.918227e+05   4.775539e+05
  -3.452890e+05   4.522102e+05
  -3.408300e+05  -1.327876e+05
   1.646836e+05  -5.221762e+05
   6.850573e+05  -6.486416e+04
   7.004334e+05   9.748043e+05
   1.851495e+04   1.594331e+06
  -1.013113e+06   1.077051e+06
  -1.642054e+06  -2.370654e+05
  -1.310194e+06  -1.278460e+06
  -2.514463e+05  -1.314060e+06
   6.484232e+05  -6.000997e+05
   7.265888e+05   2.056469e+04
   2.049230e+05   3.634587e+04
  -1.322748e+05  -3.157120e+05
   1.454597e+05  -4.648490e+05
   6.673394e+05  -1.659149e+05
   7.432949e+05   3.036293e+05
   1.808470e+05   4.948661e+05
  -4.639975e+05   2.420375e+05
  -4.618234e+05  -1.946413e+05
   2.817099e+05  -3.651147e+05
   1.038952e+06  -2.882172e+04
   9.606817e+05   6.002039e+05
  -1.437659e+04   9.933821e+05
  -1.035218e+06   7.690183e+05
  -1.194762e+06   7.700692e+04
  -4.521794e+05  -4.996199e+05
   3.831993e+05  -4.895175e+05
   5.316007e+05  -2.251626e+02
  -1.837640e+04   3.902397e+05
  -6.272700e+05   2.342507e+05
  -6.999844e+05  -3.156469e+05
  -2.038897e+05  -6.793633e+05
   3.841099e+05  -4.860656e+05
   5.433474e+05   2.457202e+04
   1.824663e+05   2.812790e+05
  -2.626365e+05   1.886133e+04
  -2.424656e+05  -4.410479e+05
   3.147919e+05  -5.527904e+05
   8.639918e+05  -1.205745e+05
   7.919876e+05   5.229855e+05
   9.278872e+04   8.559492e+05
  -6.060331e+05   6.362173e+05
  -7.054787e+05   8.016947e+04
  -2.305942e+05  -3.499536e+05
   2.705305e+05  -3.456600e+05
   3.325628e+05  -1.034356e+04
   9.471759e+02   2.611811e+05
  -2.999566e+05   1.980142e+05
  -2.411694e+05  -5.475130e+04
   7.975590e+04  -1.152330e+05
   2.481918e+05   1.597622e+05
  -2.663668e+04   4.622837e+05
  -5.672037e+05   3.580014e+05
  -8.555988e+05  -2.170758e+05
  -5.462562e+05  -8.500621e+05
   1.664581e+05  -1.035790e+06
   7.343840e+05  -6.340995e+05
   7.942925e+05   3.184692e+04
   4.724483e+05   4.808056e+05
   1.648992e+05   4.857493e+05
   9.338890e+04   2.370934e+05
   1.245940e+05   1.091512e+05
  -7.211589e+03   2.412464e+05
  -3.535313e+05   3.741878e+05
  -6.418133e+05   1.634390e+05
  -5.162448e+05  -3.554425e+05
   8.263951e+04  -7.125469e+05
   7.667474e+05  -4.788405e+05
   9.767403e+05   2.474977e+05
   4.777762e+05   8.953778e+05
  -3.982114e+05   9.552106e+05
  -1.025189e+06   4.266799e+05
  -1.017369e+06  -2.389261e+05
  -5.127521e+05  -5.821269e+05
   2.882480e+04  -5.170177e+05
   2.648866e+05  -3.250911e+05
   2.213806e+05  -3.076557e+05
   1.695955e+05  -4.500032e+05
   2.980040e+05  -4.449349e+05
   5.046062e+05  -6.654688e+04
   5.062978e+05   5.101488e+05
   1.616854e+05   8.252568e+05
  -3.234996e+05   5.883890e+05
  -5.530571e+05  -1.951921e+04
  -3.301822e+05  -5.173446e+05
   1.293422e+05  -5.659386e+05
   4.075332e+05  -2.256565e+05
   3.034090e+05   1.750625e+05
   1.143656e+04   3.648446e+05
  -1.232543e+05   3.257148e+05
   4.945930e+03   2.224370e+05
   1.496465e+05   1.850422e+05
  -2.263011e+03   1.762725e+05
  -4.468463e+05   6.706627e+04
  -7.974920e+05  -1.819287e+05
  -6.473184e+05  -4.450728e+05
  -1.427982e+04  -5.419002e+05
   6.161301e+05  -4.009896e+05
   7.467707e+05  -1.155331e+05
   3.613704e+05   1.291281e+05
  -8.879810e+04   1.813850e+05
  -1.873723e+05   3.959616e+04
   3.557858e+04  -1.177962e+05
   2.307325e+05  -7.725539e+04
   1.799351e+05   1.636253e+05
   6.490890e+03   3.400670e+05
  -4.777880e+04   2.144006e+05
   6.796029e+04  -8.921088e+04
   1.845557e+05  -1.831278e+05
   1.231455e+05   9.813625e+04
  -1.298843e+05   4.409792e+05
  -4.129240e+05   4.065025e+05
  -4.940275e+05  -2.650292e+04
  -2.397346e+05  -4.227617e+05
   2.174569e+05  -3.964551e+05
   4.954660e+05  -2.374390e+04
   2.806914e+05   2.934780e+05
  -2.989833e+05   2.668310e+05
  -7.044026e+05  -4.818807e+04
  -5.014992e+05  -3.753479e+05
   1.600015e+05  -4.661912e+05
   6.703432e+05  -2.648034e+05
   5.869479e+05   6.151106e+04
   8.125433e+04   2.403699e+05
  -2.750127e+05   1.302630e+05
  -1.282461e+05  -1.148804e+05
   3.047338e+05  -1.669329e+05
   4.969258e+05   1.330344e+05
   1.769475e+05   5.603613e+05
  -3.957215e+05   6.810843e+05
  -7.086838e+05   2.755180e+05
  -5.090290e+05  -4.001877e+05
  -1.221206e+04  -7.969935e+05
   3.657420e+05  -5.721683e+05
   4.055255e+05   6.119968e+04
   1.936808e+05   5.216675e+05
  -6.455299e+04   4.445915e+05
  -2.258737e+05   4.276065e+04
  -2.347078e+05  -1.886722e+05
  -1.174898e+05  -7.960706e+04
  -4.204485e+03   5.470659e+04
  -3.600852e+04  -1.053874e+05
  -1.580074e+05  -4.220927e+05
  -1.063846e+05  -4.826731e+05
   2.523543e+05  -1.541416e+05
   6.324168e+05   2.556469e+05
   5.824181e+05   4.058232e+05
   6.159790e+04   2.964279e+05
  -4.353024e+05   1.466088e+05
  -4.508535e+05   6.321901e+04
  -1.105192e+05  -7.738154e+03
   9.122872e+04  -8.774264e+04
  -3.723812e+04  -1.146672e+05
  -1.751303e+05  -8.232119e+04
   7.735606e+03  -6.432428e+04
   3.633335e+05  -5.443460e+04
   4.439894e+05   6.678220e+04
   6.621640e+04   3.097927e+05
  -4.724020e+05   4.381997e+05
  -7.241652e+05   2.078839e+05
  -5.151144e+05  -2.836070e+05
  -3.557278e+04  -6.296411e+05
   3.728671e+05  -5.393050e+05
   4.756076e+05  -1.457032e+05
   2.830288e+05   1.616693e+05
   1.597694e+04   1.602065e+05
  -8.757233e+04  -7.993454e+03
   1.409493e+04  -4.416068e+04
   1.414535e+05   1.513978e+05
   9.676372e+04   3.571861e+05
  -1.190649e+05   2.726105e+05
  -3.019864e+05  -1.212050e+05
  -2.437894e+05  -4.830713e+05
   6.024547e+04  -4.461502e+05
   3.731940e+05  -1.969474e+04
   3.981136e+05   4.088189e+05
   6.435301e+04   4.834453e+05
  -3.484423e+05   2.185454e+05
  -4.510188e+05  -9.938789e+04
  -1.674106e+05  -2.498343e+05
   1.521310e+05  -2.273495e+05
   1.334275e+05  -1.271002e+05
  -1.584062e+05  -3.212053e+04
  -2.954584e+05  -1.940596e+04
  -3.125460e+04  -1.301033e+05
   3.850141e+05  -2.632696e+05
   5.202316e+05  -2.137592e+05
   2.672877e+05   7.224720e+04
  -8.551892e+04   3.499660e+05
  -2.319315e+05   3.209922e+05
  -1.414276e+05   1.113932e+04
   2.418219e+04  -2.312897e+05
   1.336097e+05  -1.496252e+05
   1.503866e+05   1.244190e+05
   7.640475e+04   2.622076e+05
  -5.646716e+04   1.405741e+05
  -1.654824e+05  -5.698544e+04
  -1.744969e+05  -1.111967e+05
  -9.808908e+04  -2.387985e+04
  -1.698728e+04   3.158078e+04
   2.892420e+04  -5.178609e+04
   7.272273e+04  -1.856616e+05
   1.392545e+05  -1.893478e+05
   1.807460e+05   2.243304e+03
   1.223247e+05   2.420088e+05
  -4.281062e+04   2.978417e+05
  -2.147808e+05   9.539094e+04
  -2.444344e+05  -1.830117e+05
  -6.049541e+04  -2.784445e+05
   2.219977e+05  -1.265551e+05
   3.506314e+05   9.527229e+04
   1.753617e+05   1.866294e+05
  -1.469155e+05   1.245306e+05
  -2.758175e+05   2.595169e+04
  -7.330887e+04  -1.303174e+04
   2.045388e+05   2.053759e+04
   1.952686e+05   9.627857e+04
  -1.251951e+05   1.505377e+05
  -4.002855e+05   8.448350e+04
