
 $NMID
 id='ANONYMOUS ', fmtdat='(2E16.6)'
 volume=1.0
 tramp=1.0
 $END
  -4.340942e+07  -2.049784e+06
  -2.567844e+07  -2.617394e+07
   5.432143e+06  -2.852705e+07
   2.101703e+07  -1.236618e+07
   1.333964e+07   3.818584e+06
  -1.818091e+06   7.247689e+06
  -7.882266e+06   1.820107e+05
  -3.153679e+06  -7.438949e+06
   4.260843e+06  -8.413123e+06
   7.709587e+06  -2.356774e+06
   5.688431e+06   5.283967e+06
   4.212308e+05   7.426863e+06
  -3.527269e+06   1.920825e+06
  -2.270051e+06  -5.308704e+06
   3.006104e+06  -6.092184e+06
   6.392723e+06   7.377344e+05
   3.679385e+06   8.233500e+06
  -3.040903e+06   9.500335e+06
  -8.169727e+06   4.388120e+06
  -8.318541e+06  -2.256167e+06
  -4.386432e+06  -6.130486e+06
   1.438399e+05  -6.141414e+06
   1.860638e+06  -3.923754e+06
   1.221601e+05  -2.343207e+06
  -1.750956e+06  -3.070819e+06
   3.320201e+05  -4.522849e+06
   5.742252e+06  -3.474916e+06
   8.813255e+06   5.538664e+05
   5.622352e+06   4.158006e+06
  -7.808279e+05   4.206456e+06
  -4.064817e+06   1.461438e+06
  -2.099988e+06  -1.054873e+06
   1.663480e+06  -1.569763e+06
   3.290925e+06  -1.421363e+05
   2.125625e+06   2.365329e+06
  -2.304309e+05   4.109408e+06
  -2.031822e+06   2.868364e+06
  -2.086630e+06  -8.734853e+05
  -4.909775e+05  -2.984742e+06
   7.614345e+05  -6.422565e+05
  -2.681946e+05   2.945922e+06
  -2.392311e+06   2.252194e+06
  -2.135573e+06  -2.474943e+06
   1.463950e+06  -4.791821e+06
   4.755469e+06  -8.050418e+05
   3.628818e+06   5.247232e+06
  -1.441281e+06   6.439361e+06
  -5.919487e+06   1.692024e+06
  -6.020930e+06  -3.824432e+06
  -1.921854e+06  -5.309865e+06
   2.995202e+06  -2.666192e+06
   4.944007e+06   1.047757e+06
   2.558580e+06   2.928297e+06
  -1.754379e+06   1.950544e+06
  -3.744078e+06  -6.185857e+05
  -1.738862e+06  -2.121869e+06
   1.364231e+06  -1.108443e+06
   1.697317e+06   8.558282e+05
  -6.642871e+05   1.084139e+06
  -2.048768e+06  -7.190062e+05
  -1.873732e+05  -2.213220e+06
   3.021906e+06  -1.574740e+06
   4.141559e+06   6.672595e+05
   1.992221e+06   3.008947e+06
  -1.843054e+06   4.415113e+06
  -4.946536e+06   3.967739e+06
  -5.609031e+06   1.019253e+06
  -3.577261e+06  -3.171405e+06
  -4.127926e+05  -5.510812e+06
   1.505509e+06  -4.326742e+06
   1.293102e+06  -1.598693e+06
   4.724174e+05  -4.452998e+05
   8.906052e+05  -1.123892e+06
   2.302600e+06  -1.208817e+06
   2.879021e+06   5.810607e+05
   1.648077e+06   2.547774e+06
  -5.068432e+05   2.383287e+06
  -1.986532e+06   3.592108e+04
  -1.743797e+06  -2.424855e+06
   2.565231e+05  -2.982540e+06
   2.814904e+06  -1.225393e+06
   3.900715e+06   1.585643e+06
   2.414666e+06   3.500817e+06
  -3.295566e+05   3.414273e+06
  -1.900024e+06   2.022199e+06
  -1.704369e+06   9.478822e+05
  -1.549016e+06   7.948047e+05
  -2.810479e+06   5.826548e+05
  -4.205706e+06  -7.218436e+05
  -3.371311e+06  -2.743760e+06
  -4.337642e+04  -4.103654e+06
   3.385134e+06  -3.778411e+06
   4.367316e+06  -1.802557e+06
   2.580574e+06   7.793111e+05
  -9.337265e+04   2.334393e+06
  -1.390595e+06   1.767717e+06
  -5.331564e+05  -1.540607e+05
   1.216705e+06  -1.225798e+06
   1.849308e+06  -2.994126e+05
   7.450162e+05   1.188315e+06
  -6.470795e+05   1.109305e+06
  -5.885120e+05  -3.693128e+05
   8.133499e+05  -9.320153e+05
   1.801513e+06   7.203949e+05
   1.075330e+06   3.068037e+06
  -9.560055e+05   3.621524e+06
  -2.898561e+06   1.716414e+06
  -3.598025e+06  -1.114682e+06
  -2.638161e+06  -2.917482e+06
  -5.107602e+05  -2.853043e+06
   1.379034e+06  -1.465414e+06
   1.656976e+06  -1.176194e+05
   4.969905e+05   6.298794e+04
  -3.447018e+05  -7.626189e+05
   3.926234e+05  -1.266342e+06
   1.806437e+06  -5.134484e+05
   1.956852e+06   8.356350e+05
   4.076060e+05   1.342832e+06
  -1.163617e+06   5.789784e+05
  -9.837165e+05  -4.698201e+05
   7.959505e+05  -6.659653e+05
   2.331029e+06   1.784705e+05
   1.980034e+06   1.413411e+06
  -1.754837e+05   2.155972e+06
  -2.407765e+06   1.741224e+06
  -2.840621e+06   2.358145e+05
  -1.177216e+06  -1.254514e+06
   9.294137e+05  -1.389095e+06
   1.464922e+06  -1.175863e+05
   1.066028e+05   1.034732e+06
  -1.529823e+06   6.741440e+05
  -1.721638e+06  -7.850696e+05
  -3.961807e+05  -1.665108e+06
   1.043019e+06  -1.059944e+06
   1.291170e+06   2.219391e+05
   3.209597e+05   7.520474e+05
  -7.426293e+05   5.070640e+04
  -6.834978e+05  -1.069204e+06
   6.547560e+05  -1.401573e+06
   2.056787e+06  -4.469262e+05
   2.004396e+06   1.145025e+06
   3.218934e+05   2.091337e+06
  -1.465729e+06   1.614326e+06
  -1.734254e+06   2.017425e+05
  -5.252821e+05  -8.696416e+05
   6.656683e+05  -8.208850e+05
   7.037791e+05  -5.391633e+04
  -7.764752e+04   4.682647e+05
  -5.886928e+05   3.100408e+05
  -2.987773e+05  -9.651227e+04
   3.581422e+05  -5.962429e+04
   5.551093e+05   5.711928e+05
  -1.565356e+05   1.172510e+06
  -1.392954e+06   8.891798e+05
  -2.094185e+06  -4.649053e+05
  -1.418373e+06  -2.006139e+06
   2.953637e+05  -2.472601e+06
   1.694880e+06  -1.465767e+06
   1.792426e+06   1.145457e+05
   9.689578e+05   1.009676e+06
   3.451754e+05   8.574596e+05
   3.825315e+05   3.546589e+05
   5.088308e+05   2.959836e+05
   5.076222e+04   7.018647e+05
  -8.780813e+05   9.089432e+05
  -1.502265e+06   3.502857e+05
  -1.131833e+06  -7.849765e+05
   2.390225e+05  -1.572608e+06
   1.791028e+06  -1.109358e+06
   2.309367e+06   5.378691e+05
   1.146175e+06   2.146873e+06
  -1.006926e+06   2.363857e+06
  -2.544160e+06   1.034736e+06
  -2.412161e+06  -6.415287e+05
  -1.067559e+06  -1.381633e+06
   1.614809e+05  -1.069788e+06
   4.912511e+05  -6.159607e+05
   2.532856e+05  -7.524686e+05
   2.212338e+05  -1.233186e+06
   6.965074e+05  -1.217828e+06
   1.276997e+06  -2.597249e+05
   1.303396e+06   1.149836e+06
   4.943470e+05   1.949591e+06
  -6.909679e+05   1.442032e+06
  -1.316323e+06  -2.280958e+04
  -8.114810e+05  -1.284829e+06
   3.680945e+05  -1.397997e+06
   1.108781e+06  -4.603393e+05
   7.899089e+05   6.021272e+05
  -6.873920e+04   1.013667e+06
  -4.539686e+05   7.918772e+05
  -5.153289e+04   4.659417e+05
   4.090966e+05   3.808312e+05
   3.504850e+04   4.024986e+05
  -1.133819e+06   1.920665e+05
  -2.030175e+06  -3.792079e+05
  -1.609877e+06  -1.064479e+06
   1.385490e+04  -1.402222e+06
   1.568262e+06  -1.084335e+06
   1.839403e+06  -2.763875e+05
   8.564099e+05   4.335297e+05
  -2.465119e+05   5.255528e+05
  -4.952205e+05   5.633774e+04
   1.186884e+04  -3.736308e+05
   4.892312e+05  -2.327202e+05
   4.678916e+05   3.653644e+05
   1.664570e+05   7.647770e+05
   1.811717e+04   4.965568e+05
   1.496881e+05  -1.395275e+05
   3.451273e+05  -3.482855e+05
   2.858799e+05   2.373388e+05
  -2.085076e+05   1.023520e+06
  -9.459394e+05   1.043317e+06
  -1.312937e+06   8.825361e+04
  -7.587534e+05  -9.621843e+05
   4.603311e+05  -1.083239e+06
   1.246943e+06  -2.374103e+05
   7.188027e+05   6.289126e+05
  -7.181681e+05   6.514526e+05
  -1.644511e+06  -1.099134e+05
  -1.086588e+06  -8.923303e+05
   4.583639e+05  -1.047306e+06
   1.559866e+06  -5.350146e+05
   1.311123e+06   1.835256e+05
   1.552884e+05   5.440095e+05
  -6.629072e+05   2.856078e+05
  -3.613176e+05  -2.922219e+05
   6.448704e+05  -4.837886e+05
   1.200355e+06   1.685065e+05
   5.904164e+05   1.253968e+06
  -7.260588e+05   1.698386e+06
  -1.579616e+06   8.153713e+05
  -1.258189e+06  -8.406724e+05
  -1.401029e+05  -1.857459e+06
   8.024232e+05  -1.335950e+06
   9.541469e+05   1.727145e+05
   4.436349e+05   1.230985e+06
  -2.057446e+05   1.015214e+06
  -5.639840e+05   8.919526e+04
  -5.030848e+05  -4.106284e+05
  -2.042183e+05  -1.586669e+05
  -3.717564e+04   1.085847e+05
  -2.189354e+05  -2.856728e+05
  -4.696296e+05  -9.970835e+05
  -2.095823e+05  -1.121537e+06
   6.908483e+05  -3.898655e+05
   1.507586e+06   5.269524e+05
   1.332677e+06   9.000051e+05
   1.724870e+05   7.136692e+05
  -9.289787e+05   3.991735e+05
  -1.030881e+06   1.701616e+05
  -3.356298e+05  -4.408382e+04
   1.719517e+05  -2.232316e+05
  -2.052817e+03  -2.307228e+05
  -3.169199e+05  -1.301885e+05
  -2.910859e+04  -1.418562e+05
   7.379958e+05  -2.032145e+05
   1.068186e+06   6.225575e+04
   3.518465e+05   7.196617e+05
  -9.490824e+05   1.152763e+06
  -1.740351e+06   6.820358e+05
  -1.377388e+06  -5.194640e+05
  -2.154858e+05  -1.460750e+06
   8.237145e+05  -1.369023e+06
   1.095778e+06  -4.851047e+05
   6.715600e+05   2.857448e+05
   1.056708e+05   3.723113e+05
  -1.133321e+05   4.123787e+04
   6.871322e+04  -4.337078e+04
   3.151017e+05   3.739686e+05
   2.425623e+05   8.369837e+05
  -2.166814e+05   6.817079e+05
  -7.039934e+05  -1.757518e+05
  -7.014812e+05  -1.030215e+06
  -3.777643e+04  -1.059516e+06
   8.068491e+05  -1.907393e+05
   1.025326e+06   8.112064e+05
   2.937960e+05   1.128740e+06
  -7.626340e+05   6.416924e+05
  -1.126051e+06  -1.275492e+05
  -5.006130e+05  -6.211941e+05
   3.168840e+05  -6.503100e+05
   3.706259e+05  -3.544124e+05
  -2.886593e+05  -2.980063e+04
  -6.770633e+05   1.252176e+04
  -1.274291e+05  -3.149170e+05
   8.702354e+05  -6.723980e+05
   1.279975e+06  -5.348145e+05
   7.402481e+05   1.830553e+05
  -1.327501e+05   8.748559e+05
  -5.669463e+05   8.436138e+05
  -4.094699e+05   1.250876e+05
  -2.122615e+04  -5.082092e+05
   2.677305e+05  -4.203455e+05
   3.594590e+05   1.929538e+05
   2.359764e+05   6.024463e+05
  -7.828146e+04   4.094844e+05
  -3.988837e+05  -7.251089e+04
  -4.666580e+05  -2.839879e+05
  -2.441850e+05  -8.864510e+04
   1.378787e+04   1.324917e+05
   8.051398e+04  -1.127484e+03
   4.037440e+04  -3.842298e+05
   1.303775e+05  -5.328681e+05
   3.561679e+05  -1.599839e+05
   4.194493e+05   4.420704e+05
   8.631839e+04   6.772202e+05
  -4.454130e+05   2.948067e+05
  -6.533720e+05  -3.301665e+05
  -2.262140e+05  -6.097447e+05
   5.247308e+05  -3.526912e+05
   8.862756e+05   1.219888e+05
   4.698157e+05   4.051915e+05
  -3.163603e+05   3.786973e+05
  -6.571072e+05   1.848200e+05
  -2.351521e+05   4.352580e+03
   3.904634e+05  -3.664397e+04
   4.301602e+05   1.109188e+05
  -2.072950e+05   3.136118e+05
  -8.143933e+05   2.541138e+05
