
 $NMID
 id='ANONYMOUS ', fmtdat='(2E16.6)'
 volume=1.0
 tramp=1.0
 $END
   3.630068e+07  -9.609238e+04
   2.344676e+07   1.917924e+07
  -1.817535e+06   2.371327e+07
  -1.657138e+07   1.308432e+07
  -1.230712e+07  -8.367283e+05
   2.898708e+05  -6.401115e+06
   7.021901e+06  -1.739357e+06
   4.152870e+06   6.045316e+06
  -2.601627e+06   8.536161e+06
  -6.628723e+06   3.285361e+06
  -5.405978e+06  -4.441360e+06
  -6.827584e+05  -6.863933e+06
   3.162464e+06  -1.685311e+06
   2.397363e+06   5.252740e+06
  -2.256613e+06   6.242776e+06
  -5.749042e+06   1.107049e+05
  -3.929836e+06  -6.967315e+06
   1.950629e+06  -8.563101e+06
   6.817208e+06  -4.156345e+06
   7.068487e+06   1.798907e+06
   3.516177e+06   5.000471e+06
  -1.263458e+05   4.622565e+06
  -8.052381e+05   2.868562e+06
   1.168624e+06   2.401206e+06
   2.280523e+06   3.776284e+06
  -5.547270e+05   4.862980e+06
  -5.898646e+06   3.228494e+06
  -8.476022e+06  -7.421049e+05
  -5.088628e+06  -3.888165e+06
   1.179050e+06  -3.714388e+06
   4.234850e+06  -9.463305e+05
   1.858258e+06   1.648420e+06
  -2.412867e+06   2.003031e+06
  -4.030658e+06  -3.859398e+04
  -2.168124e+06  -2.963280e+06
   6.712180e+05  -4.292443e+06
   2.014191e+06  -2.398734e+06
   1.369201e+06   1.183967e+06
  -7.534239e+04   2.502720e+06
  -6.041579e+05  -1.427532e+05
   5.936506e+05  -3.316373e+06
   2.319925e+06  -2.419259e+06
   2.209895e+06   1.949199e+06
  -4.943128e+05   4.252848e+06
  -3.412567e+06   1.170223e+06
  -3.214777e+06  -3.978935e+06
   6.371292e+05  -5.406456e+06
   4.969211e+06  -1.726087e+06
   5.871210e+06   3.148296e+06
   2.377961e+06   4.933215e+06
  -2.644236e+06   2.931959e+06
  -5.012751e+06  -4.875691e+05
  -2.948690e+06  -2.552115e+06
   1.248093e+06  -2.023146e+06
   3.423689e+06   1.613899e+05
   1.839940e+06   1.691250e+06
  -1.089377e+06   1.084560e+06
  -1.792162e+06  -6.811324e+05
   2.130096e+05  -1.336758e+06
   1.986246e+06  -8.863119e+04
   9.695952e+05   1.557935e+06
  -1.955936e+06   1.735962e+06
  -3.632190e+06   9.045608e+04
  -2.100243e+06  -2.346035e+06
   1.629702e+06  -4.095531e+06
   4.793388e+06  -3.775516e+06
   5.290959e+06  -9.108116e+05
   3.192962e+06   3.007508e+06
   4.199188e+05   5.189596e+06
  -1.062566e+06   4.300397e+06
  -9.954460e+05   2.020112e+06
  -7.524807e+05   9.078232e+05
  -1.488730e+06   1.193741e+06
  -2.712285e+06   8.974851e+05
  -2.949822e+06  -1.006893e+06
  -1.507922e+06  -2.910515e+06
   7.791060e+05  -2.581213e+06
   2.311250e+06   2.146760e+04
   1.924104e+06   2.648783e+06
  -2.915985e+05   3.092247e+06
  -2.828851e+06   1.116385e+06
  -3.686774e+06  -1.643937e+06
  -2.162392e+06  -3.241187e+06
   2.787560e+05  -2.976713e+06
   1.542694e+06  -1.764087e+06
   1.347462e+06  -9.932181e+05
   1.384789e+06  -9.995807e+05
   2.792374e+06  -8.208966e+05
   4.279846e+06   4.955171e+05
   3.537531e+06   2.633406e+06
   1.950511e+05   4.199551e+06
  -3.403228e+06   3.959164e+06
  -4.502035e+06   1.842314e+06
  -2.607118e+06  -9.013352e+05
   2.347030e+05  -2.432829e+06
   1.516682e+06  -1.749583e+06
   5.238427e+05   2.033262e+05
  -1.263658e+06   1.252606e+06
  -1.836091e+06   3.456663e+05
  -7.126669e+05  -1.151591e+06
   6.910831e+05  -1.159145e+06
   7.331074e+05   3.490312e+05
  -6.411058e+05   1.184560e+06
  -1.912060e+06  -2.604510e+05
  -1.598463e+06  -2.868319e+06
   3.925586e+05  -3.990195e+06
   2.800146e+06  -2.349926e+06
   3.995824e+06   7.736747e+05
   3.095955e+06   3.015875e+06
   6.842210e+05   3.081452e+06
  -1.438673e+06   1.564127e+06
  -1.740952e+06   1.230934e+05
  -5.161908e+05  -5.100701e+04
   3.836439e+05   7.695320e+05
  -3.120518e+05   1.270712e+06
  -1.749008e+06   5.899336e+05
  -2.006658e+06  -7.065321e+05
  -5.172289e+05  -1.305665e+06
   1.154266e+06  -6.631675e+05
   1.096934e+06   4.470403e+05
  -7.605805e+05   8.299899e+05
  -2.522465e+06   2.040823e+04
  -2.265681e+06  -1.413006e+06
   3.566984e+04  -2.360816e+06
   2.459661e+06  -1.965824e+06
   2.947877e+06  -3.601499e+05
   1.250725e+06   1.212222e+06
  -8.724535e+05   1.395866e+06
  -1.422135e+06   1.613016e+05
  -1.050995e+05  -1.011395e+06
   1.533987e+06  -7.282540e+05
   1.810942e+06   7.140014e+05
   5.390043e+05   1.702423e+06
  -9.852717e+05   1.210712e+06
  -1.371098e+06  -9.402038e+04
  -4.298535e+05  -7.386416e+05
   7.156266e+05  -9.445013e+04
   7.148221e+05   1.063067e+06
  -6.514713e+05   1.443485e+06
  -2.108332e+06   4.913350e+05
  -2.082235e+06  -1.131965e+06
  -3.962321e+05  -2.131982e+06
   1.430809e+06  -1.712229e+06
   1.773668e+06  -2.961194e+05
   6.055426e+05   8.651335e+05
  -6.422350e+05   8.905448e+05
  -7.657617e+05   7.151512e+04
   3.661365e+04  -5.638456e+05
   6.672201e+05  -4.097173e+05
   4.330705e+05   1.255480e+05
  -3.162381e+05   1.872456e+05
  -6.381912e+05  -4.898115e+05
   6.147890e+04  -1.206947e+06
   1.389158e+06  -9.801175e+05
   2.175792e+06   4.037994e+05
   1.520610e+06   2.022120e+06
  -2.335002e+05   2.581372e+06
  -1.724278e+06   1.625655e+06
  -1.922648e+06  -2.405929e+04
  -1.118435e+06  -1.080240e+06
  -3.980210e+05  -1.015718e+06
  -3.271649e+05  -4.323067e+05
  -4.530689e+05  -2.516619e+05
  -6.572778e+04  -6.687093e+05
   8.569453e+05  -9.852059e+05
   1.566651e+06  -4.500130e+05
   1.255689e+06   8.028966e+05
  -1.678599e+05   1.710874e+06
  -1.834199e+06   1.251762e+06
  -2.436532e+06  -4.759245e+05
  -1.294501e+06  -2.175908e+06
   9.030314e+05  -2.477030e+06
   2.555070e+06  -1.200925e+06
   2.556336e+06   5.210745e+05
   1.247628e+06   1.403555e+06
  -8.898522e+04   1.202512e+06
  -5.580339e+05   7.245262e+05
  -3.481695e+05   7.651546e+05
  -2.389735e+05   1.209568e+06
  -6.601330e+05   1.231925e+06
  -1.276872e+06   2.934163e+05
  -1.365142e+06  -1.156877e+06
  -5.591072e+05  -2.006392e+06
   6.826341e+05  -1.511597e+06
   1.371077e+06  -2.901339e+04
   9.003875e+05   1.274578e+06
  -2.857125e+05   1.457444e+06
  -1.078280e+06   5.785099e+05
  -8.371698e+05  -5.021311e+05
  -3.118838e+04  -1.003286e+06
   3.625167e+05  -8.526043e+05
   7.892989e+03  -5.216739e+05
  -4.168090e+05  -4.006604e+05
  -3.605335e+04  -4.231795e+05
   1.140037e+06  -2.453388e+05
   2.072351e+06   3.127109e+05
   1.698895e+06   1.025320e+06
   8.264579e+04   1.415762e+06
  -1.527465e+06   1.155539e+06
  -1.876665e+06   3.810670e+05
  -9.252354e+05  -3.546419e+05
   2.089899e+05  -5.209087e+05
   4.950303e+05  -1.030782e+05
  -1.969953e+04   3.439208e+05
  -5.226418e+05   2.405436e+05
  -4.866576e+05  -3.664548e+05
  -1.397423e+05  -7.983704e+05
   1.689407e+04  -5.129713e+05
  -1.610905e+05   1.841434e+05
  -3.923429e+05   4.104864e+05
  -3.122049e+05  -2.341361e+05
   2.167990e+05  -1.081486e+06
   9.479471e+05  -1.095518e+06
   1.291960e+06  -9.678588e+04
   7.495268e+05   9.724960e+05
  -4.432565e+05   1.084817e+06
  -1.245177e+06   2.317448e+05
  -7.520097e+05  -6.487341e+05
   7.137332e+05  -7.073439e+05
   1.734717e+06   4.038215e+04
   1.223745e+06   8.877211e+05
  -3.984591e+05   1.148358e+06
  -1.624679e+06   6.723186e+05
  -1.417181e+06  -1.188984e+05
  -2.027883e+05  -5.752895e+05
   6.753717e+05  -3.410525e+05
   3.668216e+05   2.743919e+05
  -6.783620e+05   4.901814e+05
  -1.240146e+06  -1.829622e+05
  -5.941054e+05  -1.301740e+06
   7.658472e+05  -1.755008e+06
   1.643808e+06  -8.470220e+05
   1.323434e+06   8.625797e+05
   1.828525e+05   1.939717e+06
  -8.051703e+05   1.438112e+06
  -1.010264e+06  -1.233278e+05
  -5.282559e+05  -1.268458e+06
   1.461364e+05  -1.091153e+06
   5.728392e+05  -1.271796e+05
   5.657453e+05   4.254392e+05
   2.515676e+05   1.748754e+05
   2.290869e+04  -1.268166e+05
   1.851012e+05   2.617173e+05
   4.952825e+05   1.013254e+06
   2.899400e+05   1.174660e+06
  -6.595949e+05   4.362539e+05
  -1.590207e+06  -5.132038e+05
  -1.451805e+06  -9.080580e+05
  -2.030236e+05  -7.305628e+05
   9.937184e+05  -4.304317e+05
   1.084211e+06  -2.148347e+05
   3.217658e+05   1.308741e+04
  -1.874420e+05   2.313778e+05
   4.867841e+04   2.661117e+05
   3.759580e+05   1.576059e+05
   1.469549e+04   1.478607e+05
  -8.108273e+05   2.046272e+05
  -1.104229e+06  -5.607739e+04
  -3.134034e+05  -7.267790e+05
   1.004133e+06  -1.185427e+06
   1.760505e+06  -7.124950e+05
   1.382168e+06   5.336716e+05
   2.335106e+05   1.520068e+06
  -8.156006e+05   1.424064e+06
  -1.125212e+06   4.936129e+05
  -7.071293e+05  -3.103005e+05
  -9.687691e+04  -3.819498e+05
   1.540658e+05  -1.425237e+04
  -5.859590e+04   7.861663e+04
  -3.569432e+05  -3.704306e+05
  -2.863967e+05  -8.657863e+05
   2.203535e+05  -7.012229e+05
   7.402415e+05   2.008401e+05
   7.177304e+05   1.084484e+06
   9.457087e+03   1.090311e+06
  -8.575624e+05   1.674881e+05
  -1.061341e+06  -8.629216e+05
  -2.961849e+05  -1.162207e+06
   7.851993e+05  -6.465278e+05
   1.148683e+06   1.238332e+05
   5.079883e+05   6.043247e+05
  -3.114222e+05   6.410007e+05
  -3.418194e+05   3.678474e+05
   3.385888e+05   4.457325e+04
   7.127861e+05  -1.723934e+04
   1.247123e+05   3.160798e+05
  -8.923064e+05   7.190250e+05
  -1.288436e+06   6.105832e+05
  -7.351753e+05  -1.426226e+05
   1.247950e+05  -8.946746e+05
   5.381546e+05  -8.725369e+05
   3.812492e+05  -1.115443e+05
   8.238361e+03   5.419675e+05
  -2.767431e+05   4.188019e+05
  -3.757686e+05  -2.298877e+05
  -2.491923e+05  -6.225295e+05
   8.142966e+04  -3.931905e+05
   4.124414e+05   8.418935e+04
   4.788000e+05   2.612447e+05
   2.565352e+05   6.575666e+04
  -8.053271e+02  -1.078473e+05
  -8.781694e+04   6.033779e+04
  -8.709619e+04   4.183491e+05
  -1.938127e+05   5.102871e+05
  -3.843788e+05   1.047814e+05
  -3.914674e+05  -4.909482e+05
  -3.625024e+04  -7.021495e+05
   4.746415e+05  -2.936489e+05
   6.573682e+05   3.546845e+05
   2.244252e+05   6.424859e+05
  -5.281055e+05   3.696503e+05
  -8.991026e+05  -1.275969e+05
  -4.830254e+05  -4.134291e+05
   3.203508e+05  -3.708901e+05
   6.668152e+05  -1.695537e+05
   2.154347e+05  -4.683884e+03
  -4.417763e+05   1.169619e+04
  -4.604336e+05  -1.501413e+05
   2.447365e+05  -3.500397e+05
   8.946078e+05  -2.701288e+05
