
 $NMID
 id='ANONYMOUS ', fmtdat='(2E16.6)'
 volume=1.0
 tramp=1.0
 $END
   5.733546e+07   1.774529e+05
   3.396031e+07   3.573689e+07
  -8.009191e+06   3.858981e+07
  -2.790504e+07   1.443196e+07
  -1.629548e+07  -7.329651e+06
   3.507281e+06  -9.295912e+06
   9.724218e+06   1.410422e+06
   2.592033e+06   9.763414e+06
  -6.223929e+06   9.166745e+06
  -9.619556e+06   1.884254e+06
  -7.071981e+06  -6.217227e+06
  -9.137117e+05  -8.641361e+06
   4.032071e+06  -2.844118e+06
   2.765835e+06   5.343518e+06
  -3.684801e+06   6.478942e+06
  -7.870750e+06  -1.401046e+06
  -4.443853e+06  -1.027619e+07
   3.836496e+06  -1.187966e+07
   1.024788e+07  -5.985618e+06
   1.103460e+07   2.068265e+06
   6.802225e+06   7.692165e+06
   6.480714e+05   8.937301e+06
  -3.158341e+06   6.147911e+06
  -2.028079e+06   2.477285e+06
   1.207505e+06   1.867071e+06
   5.027576e+05   4.141392e+06
  -5.280673e+06   4.649486e+06
  -9.754587e+06   7.730280e+05
  -7.233075e+06  -4.071328e+06
  -3.956278e+05  -5.240922e+06
   3.709379e+06  -2.835255e+06
   2.648854e+06  -1.661994e+05
  -3.340473e+05   1.026809e+06
  -2.153648e+06   7.536328e+05
  -2.358005e+06  -1.235441e+06
  -9.451348e+05  -3.968102e+06
   1.783473e+06  -4.005001e+06
   3.448295e+06   8.784664e+04
   1.842715e+06   3.798419e+06
  -9.088888e+05   2.075781e+06
  -5.630012e+05  -2.441799e+06
   2.370167e+06  -2.334842e+06
   2.427198e+06   3.210623e+06
  -2.541127e+06   6.121436e+06
  -7.112825e+06   8.831796e+05
  -5.158454e+06  -7.107971e+06
   2.020042e+06  -8.630781e+06
   7.537865e+06  -2.446868e+06
   6.985599e+06   4.404424e+06
   1.865959e+06   5.964494e+06
  -3.413945e+06   2.699347e+06
  -5.188240e+06  -1.464729e+06
  -2.383555e+06  -3.416611e+06
   2.437386e+06  -2.159810e+06
   4.533123e+06   9.404390e+05
   1.930327e+06   2.730350e+06
  -1.736666e+06   1.375104e+06
  -1.722098e+06  -9.912974e+05
   1.331073e+06  -8.228534e+05
   2.384756e+06   1.846816e+06
  -7.911596e+05   3.431677e+06
  -4.745674e+06   1.800275e+06
  -5.295021e+06  -1.444128e+06
  -2.287040e+06  -4.017245e+06
   1.753453e+06  -5.346469e+06
   4.940727e+06  -5.009776e+06
   6.236701e+06  -1.894289e+06
   4.728216e+06   3.134842e+06
   1.067554e+06   6.218796e+06
  -1.812345e+06   4.755481e+06
  -1.704647e+06   1.138601e+06
  -2.783819e+04  -2.795732e+05
   1.859771e+05   1.089503e+06
  -1.539886e+06   1.988790e+06
  -2.892423e+06   4.241191e+05
  -2.200553e+06  -1.837983e+06
  -1.854457e+05  -2.176946e+06
   1.508117e+06  -3.339135e+05
   1.766244e+06   1.958143e+06
   1.237050e+05   2.939962e+06
  -2.750251e+06   1.773518e+06
  -4.583064e+06  -1.090840e+06
  -3.347599e+06  -3.778505e+06
   5.582446e+03  -4.321445e+06
   2.324247e+06  -2.777046e+06
   2.268480e+06  -1.130503e+06
   1.813885e+06  -6.700356e+05
   2.903498e+06  -5.215293e+05
   4.343087e+06   6.657912e+05
   3.540565e+06   2.672184e+06
   2.436421e+05   4.108604e+06
  -3.077732e+06   3.997622e+06
  -4.112330e+06   2.284531e+06
  -2.713391e+06  -3.140488e+05
  -3.951617e+05  -2.256343e+06
   1.030470e+06  -2.016208e+06
   5.830709e+05   1.017652e+04
  -1.044318e+06   1.360592e+06
  -1.909242e+06   4.493181e+05
  -9.684698e+05  -1.204315e+06
   4.701392e+05  -1.141593e+06
   4.106928e+05   3.560567e+05
  -1.043204e+06   6.493087e+05
  -1.800066e+06  -1.321109e+06
  -6.046063e+05  -3.442330e+06
   1.555437e+06  -3.302870e+06
   3.036344e+06  -1.059971e+06
   3.231204e+06   1.358995e+06
   2.298201e+06   2.611505e+06
   5.414281e+05   2.540447e+06
  -1.178967e+06   1.507605e+06
  -1.570453e+06   2.934637e+05
  -4.940851e+05  -3.089751e+04
   3.780017e+05   7.423057e+05
  -3.972012e+05   1.355836e+06
  -1.916205e+06   6.151765e+05
  -2.053106e+06  -8.610046e+05
  -3.998419e+05  -1.414201e+06
   1.157783e+06  -5.924934e+05
   8.823449e+05   4.189703e+05
  -8.236700e+05   5.030238e+05
  -2.133674e+06  -2.756625e+05
  -1.734767e+06  -1.270013e+06
   1.913692e+05  -1.926403e+06
   2.236411e+06  -1.698642e+06
   2.755567e+06  -3.490895e+05
   1.247475e+06   1.245578e+06
  -9.012028e+05   1.541740e+06
  -1.582493e+06   2.213816e+05
  -2.343767e+05  -1.098266e+06
   1.506933e+06  -7.819388e+05
   1.732493e+06   7.447520e+05
   3.604277e+05   1.632337e+06
  -1.068474e+06   9.729038e+05
  -1.241262e+06  -3.003766e+05
  -2.402971e+05  -7.706726e+05
   8.074094e+05  -6.283298e+04
   7.716985e+05   1.043787e+06
  -5.337943e+05   1.453551e+06
  -2.001583e+06   6.121105e+05
  -2.078923e+06  -9.932314e+05
  -4.415951e+05  -2.073299e+06
   1.406273e+06  -1.681647e+06
   1.721570e+06  -2.470226e+05
   5.138745e+05   8.551369e+05
  -6.390045e+05   8.132408e+05
  -6.202114e+05   1.048149e+05
   1.035157e+05  -3.330635e+05
   4.501361e+05  -2.116050e+05
   9.062720e+04   2.831483e+04
  -4.471918e+05  -1.119534e+05
  -5.062603e+05  -6.775315e+05
   1.967798e+05  -1.185694e+06
   1.363109e+06  -9.251683e+05
   2.094919e+06   3.597412e+05
   1.524012e+06   1.907795e+06
  -1.423896e+05   2.425880e+06
  -1.559982e+06   1.444746e+06
  -1.666217e+06  -7.879741e+04
  -8.680584e+05  -8.356099e+05
  -3.569935e+05  -5.948816e+05
  -5.241231e+05  -1.949293e+05
  -6.563807e+05  -3.235555e+05
  -1.049774e+05  -7.824536e+05
   8.563809e+05  -9.160171e+05
   1.424605e+06  -3.556630e+05
   1.054408e+06   6.737189e+05
  -2.058070e+05   1.435965e+06
  -1.678260e+06   1.108207e+06
  -2.251073e+06  -4.168518e+05
  -1.178718e+06  -2.064377e+06
   9.644709e+05  -2.384432e+06
   2.520602e+06  -1.079673e+06
   2.345400e+06   6.078014e+05
   9.622491e+05   1.291406e+06
  -1.778130e+05   9.129852e+05
  -3.380315e+05   5.096586e+05
  -2.266618e+04   7.833528e+05
  -6.187712e+04   1.345064e+06
  -6.500162e+05   1.322247e+06
  -1.300554e+06   3.555769e+05
  -1.378738e+06  -1.042352e+06
  -6.187443e+05  -1.880224e+06
   5.755885e+05  -1.459725e+06
   1.281389e+06  -3.310109e+04
   8.376080e+05   1.267056e+06
  -3.682698e+05   1.399151e+06
  -1.158373e+06   4.058199e+05
  -8.137949e+05  -7.079400e+05
   1.256821e+05  -1.083682e+06
   5.397056e+05  -7.762409e+05
   7.690184e+04  -3.996477e+05
  -4.537673e+05  -3.197841e+05
  -7.716813e+04  -3.814685e+05
   1.151231e+06  -2.346629e+05
   2.085851e+06   2.853619e+05
   1.644110e+06   9.992531e+05
  -2.154911e+04   1.440112e+06
  -1.582004e+06   1.182807e+06
  -1.824560e+06   3.148354e+05
  -8.271629e+05  -4.901137e+05
   2.611162e+05  -5.831558e+05
   5.116197e+05  -3.492087e+04
   4.251526e+04   4.406382e+05
  -4.295728e+05   2.826087e+05
  -4.967555e+05  -3.282559e+05
  -3.004069e+05  -7.215508e+05
  -1.312676e+05  -4.861546e+05
  -1.242943e+05   8.662993e+04
  -2.450519e+05   2.930806e+05
  -2.779367e+05  -2.240695e+05
   9.580860e+04  -9.909134e+05
   8.694544e+05  -1.099917e+06
   1.390627e+06  -2.202672e+05
   9.087138e+05   9.006878e+05
  -3.891323e+05   1.174904e+06
  -1.274397e+06   3.927765e+05
  -7.611414e+05  -5.442227e+05
   6.856621e+05  -6.642410e+05
   1.576524e+06   5.320395e+04
   1.000569e+06   8.229922e+05
  -4.663046e+05   9.747274e+05
  -1.462215e+06   4.966094e+05
  -1.210067e+06  -1.590802e+05
  -1.409826e+05  -4.986245e+05
   6.389806e+05  -2.771320e+05
   3.988351e+05   2.935428e+05
  -5.620096e+05   5.613244e+05
  -1.199783e+06  -2.118154e+04
  -7.436529e+05  -1.160243e+06
   5.049306e+05  -1.751205e+06
   1.448809e+06  -9.670614e+05
   1.292616e+06   7.027466e+05
   2.755453e+05   1.782584e+06
  -6.877687e+05   1.308159e+06
  -9.200073e+05  -1.595373e+05
  -4.539207e+05  -1.172660e+06
   2.047587e+05  -9.536883e+05
   5.630867e+05  -9.036407e+04
   4.630675e+05   3.495123e+05
   1.502172e+05   1.168448e+05
   5.084224e+04  -8.744873e+04
   3.158681e+05   3.118462e+05
   5.547465e+05   9.595952e+05
   2.060091e+05   1.057930e+06
  -7.293422e+05   4.052291e+05
  -1.489606e+06  -4.085614e+05
  -1.286987e+06  -7.811182e+05
  -2.059600e+05  -6.969161e+05
   8.166834e+05  -4.631170e+05
   9.668834e+05  -2.137679e+05
   3.781754e+05   6.048323e+04
  -1.286974e+05   2.374391e+05
  -5.122538e+04   1.829748e+05
   2.443674e+05   5.729001e+04
   6.888842e+04   1.336794e+05
  -6.246378e+05   2.870896e+05
  -1.058118e+06   4.054331e+04
  -5.084056e+05  -6.972273e+05
   7.707236e+05  -1.247369e+06
   1.703748e+06  -8.489010e+05
   1.481891e+06   3.665838e+05
   3.520604e+05   1.398578e+06
  -7.230230e+05   1.423065e+06
  -1.038502e+06   6.088875e+05
  -6.695369e+05  -1.844175e+05
  -1.644863e+05  -3.592091e+05
   4.483041e+04  -9.863638e+04
  -8.472241e+04  -5.770548e+03
  -2.989800e+05  -3.618064e+05
  -2.699362e+05  -7.972656e+05
   1.449827e+05  -6.999513e+05
   6.900975e+05   6.508792e+04
   8.138649e+05   9.049623e+05
   2.017164e+05   1.046135e+06
  -7.335648e+05   3.241294e+05
  -1.094409e+06  -6.469536e+05
  -4.242121e+05  -1.086989e+06
   6.862333e+05  -7.423885e+05
   1.148089e+06   1.673526e+04
   5.766145e+05   6.199568e+05
  -2.677048e+05   7.265016e+05
  -3.948819e+05   3.873220e+05
   2.206734e+05  -2.367327e+04
   6.440703e+05  -7.786799e+04
   1.714449e+05   3.119604e+05
  -7.966765e+05   7.167224e+05
  -1.261537e+06   5.703029e+05
  -8.000422e+05  -1.765989e+05
   5.613295e+04  -8.922541e+05
   5.465094e+05  -8.926700e+05
   4.591346e+05  -1.981608e+05
   9.825241e+04   4.701950e+05
  -2.178311e+05   4.690072e+05
  -3.670972e+05  -1.006727e+05
  -2.888250e+05  -5.681845e+05
   3.104300e+04  -4.617098e+05
   4.001274e+05   1.272969e+04
   4.971665e+05   2.825785e+05
   2.440230e+05   1.039963e+05
  -5.106552e+04  -1.768744e+05
  -7.320263e+04  -8.867564e+04
   7.676149e+04   3.461571e+05
   2.877023e+04   6.045915e+05
  -3.047233e+05   2.965411e+05
  -5.300784e+05  -3.321148e+05
  -2.463961e+05  -6.525296e+05
   3.827646e+05  -3.565400e+05
   7.086602e+05   2.316769e+05
   3.039270e+05   5.553591e+05
  -5.024734e+05   3.959562e+05
  -9.140699e+05  -2.119753e+04
  -5.109760e+05  -3.569314e+05
   2.808335e+05  -4.415646e+05
   6.469875e+05  -2.894840e+05
   2.772598e+05  -3.037795e+04
  -3.160213e+05   1.210219e+05
  -4.083314e+05  -3.757696e+03
   1.199763e+05  -2.873266e+05
   6.866472e+05  -3.247017e+05
