
 $NMID
 id='ANONYMOUS ', fmtdat='(2E16.6)'
 volume=1.0
 tramp=1.0
 $END
   6.064358e+07  -1.632284e+05
   3.628217e+07   3.809418e+07
  -8.456658e+06   4.125067e+07
  -2.989117e+07   1.517909e+07
  -1.746773e+07  -8.190697e+06
   3.841873e+06  -9.984693e+06
   1.042412e+07   1.749012e+06
   2.576728e+06   1.053037e+07
  -6.881451e+06   9.578687e+06
  -1.028946e+07   1.812312e+06
  -7.399706e+06  -6.543404e+06
  -9.165267e+05  -9.004047e+06
   4.155320e+06  -3.016873e+06
   2.725069e+06   5.475839e+06
  -4.053441e+06   6.657936e+06
  -8.351424e+06  -1.601667e+06
  -4.615650e+06  -1.090819e+07
   4.136936e+06  -1.255294e+07
   1.082758e+07  -6.346162e+06
   1.165591e+07   2.075877e+06
   7.326414e+06   8.014805e+06
   9.026891e+05   9.513228e+06
  -3.319506e+06   6.754163e+06
  -2.457747e+06   2.802070e+06
   8.788792e+05   1.861475e+06
   4.259930e+05   4.062690e+06
  -5.316770e+06   4.671281e+06
  -9.949535e+06   7.955029e+05
  -7.504671e+06  -4.150569e+06
  -5.867292e+05  -5.348849e+06
   3.603861e+06  -2.935572e+06
   2.605241e+06  -3.678420e+05
  -2.482780e+05   7.359021e+05
  -1.956222e+06   6.091471e+05
  -2.241807e+06  -1.143560e+06
  -9.985566e+05  -3.909206e+06
   1.759884e+06  -4.196864e+06
   3.636734e+06  -1.332224e+05
   2.101190e+06   3.872279e+06
  -8.034043e+05   2.345133e+06
  -5.376082e+05  -2.308307e+06
   2.504163e+06  -2.312731e+06
   2.535734e+06   3.445793e+06
  -2.790219e+06   6.550112e+06
  -7.678776e+06   1.020396e+06
  -5.547105e+06  -7.523762e+06
   2.146759e+06  -9.195857e+06
   7.950272e+06  -2.591813e+06
   7.227064e+06   4.716500e+06
   1.779175e+06   6.292939e+06
  -3.652979e+06   2.710527e+06
  -5.361856e+06  -1.717217e+06
  -2.377280e+06  -3.690504e+06
   2.631836e+06  -2.267110e+06
   4.778673e+06   1.046077e+06
   2.015736e+06   2.923952e+06
  -1.833209e+06   1.445094e+06
  -1.754685e+06  -1.088898e+06
   1.529425e+06  -8.534405e+05
   2.600664e+06   2.099253e+06
  -8.968359e+05   3.822566e+06
  -5.164314e+06   1.969625e+06
  -5.680413e+06  -1.619362e+06
  -2.400076e+06  -4.318624e+06
   1.844438e+06  -5.553376e+06
   5.097841e+06  -5.116823e+06
   6.431067e+06  -1.943385e+06
   4.907989e+06   3.206074e+06
   1.081482e+06   6.426065e+06
  -2.012156e+06   4.930280e+06
  -1.931865e+06   1.107059e+06
  -7.483374e+04  -4.663883e+05
   3.054159e+05   9.417082e+05
  -1.406080e+06   1.972096e+06
  -2.814453e+06   4.847841e+05
  -2.158888e+06  -1.758402e+06
  -1.931775e+05  -2.089005e+06
   1.425334e+06  -2.610256e+05
   1.664245e+06   1.985756e+06
   7.569263e+04   2.945759e+06
  -2.782756e+06   1.793213e+06
  -4.686732e+06  -1.101055e+06
  -3.485159e+06  -3.897002e+06
  -2.760569e+04  -4.526883e+06
   2.439876e+06  -2.949942e+06
   2.435661e+06  -1.192672e+06
   1.950278e+06  -6.382402e+05
   3.020094e+06  -4.243856e+05
   4.437774e+06   8.225609e+05
   3.541548e+06   2.837665e+06
   1.242554e+05   4.186282e+06
  -3.223886e+06   3.961639e+06
  -4.182830e+06   2.221463e+06
  -2.714034e+06  -3.240829e+05
  -3.872582e+05  -2.233019e+06
   1.028815e+06  -2.012719e+06
   5.792448e+05  -6.213577e+03
  -1.066809e+06   1.345134e+06
  -1.951369e+06   4.260779e+05
  -9.866567e+05  -1.230876e+06
   4.807247e+05  -1.128223e+06
   3.692939e+05   3.996676e+05
  -1.171036e+06   6.087466e+05
  -1.879831e+06  -1.521944e+06
  -4.685425e+05  -3.683390e+06
   1.863848e+06  -3.366363e+06
   3.276546e+06  -8.854404e+05
   3.242038e+06   1.613270e+06
   2.155580e+06   2.767837e+06
   4.134744e+05   2.568593e+06
  -1.228186e+06   1.476629e+06
  -1.579815e+06   2.585883e+05
  -5.011631e+05  -4.436266e+04
   3.594474e+05   7.633754e+05
  -4.436910e+05   1.384032e+06
  -1.982408e+06   5.900912e+05
  -2.085058e+06  -9.428318e+05
  -3.678661e+05  -1.467415e+06
   1.196567e+06  -5.594651e+05
   8.545759e+05   4.669341e+05
  -8.958748e+05   4.533350e+05
  -2.155341e+06  -4.174560e+05
  -1.661744e+06  -1.383853e+06
   3.101791e+05  -1.928688e+06
   2.333711e+06  -1.619014e+06
   2.803517e+06  -2.594085e+05
   1.242344e+06   1.307295e+06
  -9.489424e+05   1.564376e+06
  -1.629130e+06   2.054538e+05
  -2.302246e+05  -1.119190e+06
   1.548409e+06  -7.558827e+05
   1.738915e+06   8.175804e+05
   2.981575e+05   1.681647e+06
  -1.143401e+06   9.445076e+05
  -1.258940e+06  -3.713006e+05
  -2.063674e+05  -8.063721e+05
   8.322557e+05  -3.918122e+04
   7.526538e+05   1.081319e+06
  -5.799448e+05   1.452949e+06
  -2.038996e+06   5.628716e+05
  -2.077516e+06  -1.062536e+06
  -3.891499e+05  -2.117760e+06
   1.482600e+06  -1.670602e+06
   1.762540e+06  -1.968356e+05
   4.920619e+05   8.890918e+05
  -6.769609e+05   8.004821e+05
  -6.123850e+05   8.192529e+04
   1.463426e+05  -3.123854e+05
   4.599509e+05  -1.559487e+05
   4.226678e+04   5.486021e+04
  -4.990631e+05  -1.499719e+05
  -5.007367e+05  -7.437675e+05
   2.559790e+05  -1.217627e+06
   1.425212e+06  -8.945465e+05
   2.116140e+06   4.352650e+05
   1.488301e+06   1.982686e+06
  -2.212428e+05   2.449244e+06
  -1.633412e+06   1.397012e+06
  -1.678461e+06  -1.566020e+05
  -8.178474e+05  -8.753536e+05
  -3.091308e+05  -5.790124e+05
  -5.307895e+05  -1.747227e+05
  -6.883940e+05  -3.432350e+05
  -9.600179e+04  -8.152709e+05
   9.131138e+05  -9.047750e+05
   1.464875e+06  -2.949125e+05
   1.025878e+06   7.301243e+05
  -2.852355e+05   1.438112e+06
  -1.748058e+06   1.050682e+06
  -2.262372e+06  -5.064139e+05
  -1.117545e+06  -2.141789e+06
   1.072105e+06  -2.399073e+06
   2.612095e+06  -1.009933e+06
   2.360980e+06   7.171121e+05
   9.043919e+05   1.358549e+06
  -2.426989e+05   9.033553e+05
  -3.557371e+05   4.689844e+05
  -1.065990e+04   7.738488e+05
  -7.264688e+04   1.371442e+06
  -6.941035e+05   1.339750e+06
  -1.335696e+06   3.326612e+05
  -1.367958e+06  -1.092318e+06
  -5.707152e+05  -1.919346e+06
   6.239330e+05  -1.457868e+06
   1.297910e+06   1.204053e+04
   8.084987e+05   1.323043e+06
  -4.320404e+05   1.417567e+06
  -1.217372e+06   3.667140e+05
  -8.232831e+05  -7.722837e+05
   1.722188e+05  -1.124102e+06
   6.002625e+05  -7.813252e+05
   1.070798e+05  -3.977835e+05
  -4.524425e+05  -3.302940e+05
  -6.799597e+04  -3.860784e+05
   1.186967e+06  -2.038481e+05
   2.122227e+06   3.533778e+05
   1.639840e+06   1.073209e+06
  -7.679849e+04   1.479536e+06
  -1.655622e+06   1.165538e+06
  -1.871459e+06   2.549378e+05
  -8.289236e+05  -5.474916e+05
   2.857609e+05  -5.987459e+05
   5.314116e+05  -1.366937e+04
   4.459127e+04   4.593001e+05
  -4.350167e+05   2.752648e+05
  -4.972774e+05  -3.455967e+05
  -2.974876e+05  -7.269925e+05
  -1.339189e+05  -4.866658e+05
  -1.343382e+05   7.157624e+04
  -2.535344e+05   2.661252e+05
  -2.718722e+05  -2.424948e+05
   1.249092e+05  -9.920579e+05
   9.159206e+05  -1.089673e+06
   1.429584e+06  -2.002603e+05
   9.117642e+05   9.295336e+05
  -4.220514e+05   1.193950e+06
  -1.306044e+06   3.816794e+05
  -7.547012e+05  -5.675810e+05
   7.212828e+05  -6.515112e+05
   1.593730e+06   1.157197e+05
   9.682967e+05   8.821117e+05
  -5.273689e+05   9.686945e+05
  -1.505311e+06   4.309624e+05
  -1.211677e+06  -2.202870e+05
  -1.160302e+05  -5.098826e+05
   6.613375e+05  -2.532067e+05
   4.022308e+05   3.115253e+05
  -5.734629e+05   5.541637e+05
  -1.207759e+06  -4.437607e+04
  -7.295156e+05  -1.181345e+06
   5.410517e+05  -1.753903e+06
   1.479627e+06  -9.429242e+05
   1.284533e+06   7.421161e+05
   2.258037e+05   1.806043e+06
  -7.397624e+05   1.292652e+06
  -9.277827e+05  -2.024051e+05
  -4.116118e+05  -1.207079e+06
   2.559858e+05  -9.561763e+05
   5.795799e+05  -6.896724e+04
   4.445521e+05   3.707514e+05
   1.336539e+05   1.246385e+05
   6.015735e+04  -8.551821e+04
   3.308339e+05   3.244394e+05
   5.396204e+05   9.867265e+05
   1.602322e+05   1.079574e+06
  -7.673120e+05   3.929027e+05
  -1.490473e+06  -4.587957e+05
  -1.263322e+06  -8.356846e+05
  -1.865769e+05  -7.149644e+05
   8.269908e+05  -4.390710e+05
   9.816392e+05  -1.797525e+05
   3.944243e+05   7.493046e+04
  -1.313021e+05   2.352483e+05
  -7.477128e+04   1.838153e+05
   2.254668e+05   6.506752e+04
   7.028726e+04   1.333315e+05
  -6.206991e+05   2.691841e+05
  -1.069779e+06   1.559547e+04
  -5.171644e+05  -7.107540e+05
   7.953750e+05  -1.240488e+06
   1.750770e+06  -8.256224e+05
   1.502046e+06   3.948095e+05
   3.207383e+05   1.418064e+06
  -7.733029e+05   1.424608e+06
  -1.062401e+06   5.957012e+05
  -6.645694e+05  -1.985510e+05
  -1.620109e+05  -3.646484e+05
   3.077521e+04  -1.006119e+05
  -9.549263e+04  -1.615542e+04
  -2.867382e+05  -3.823010e+05
  -2.436313e+05  -8.159505e+05
   1.614288e+05  -7.041853e+05
   6.868648e+05   7.657813e+04
   8.007774e+05   9.223097e+05
   1.921888e+05   1.055910e+06
  -7.341233e+05   3.171921e+05
  -1.086374e+06  -6.681923e+05
  -4.086761e+05  -1.106274e+06
   7.064738e+05  -7.408636e+05
   1.164781e+06   4.122044e+04
   5.780998e+05   6.484648e+05
  -2.856848e+05   7.399629e+05
  -4.199689e+05   3.886199e+05
   2.086551e+05  -1.689639e+04
   6.487722e+05  -6.118784e+04
   1.704410e+05   3.205182e+05
  -8.255794e+05   7.004310e+05
  -1.306290e+06   5.370245e+05
  -8.216330e+05  -2.043617e+05
   7.734113e+04  -9.046435e+05
   5.856045e+05  -8.979560e+05
   4.780536e+05  -2.034012e+05
   9.082940e+04   4.691903e+05
  -2.271846e+05   4.739658e+05
  -3.619762e+05  -1.004636e+05
  -2.779891e+05  -5.806712e+05
   3.559608e+04  -4.748963e+05
   4.018704e+05   1.822150e+04
   5.026960e+05   3.051035e+05
   2.475199e+05   1.189715e+05
  -5.707208e+04  -1.863837e+05
  -8.094728e+04  -1.105929e+05
   8.094290e+04   3.362525e+05
   4.235156e+04   6.133944e+05
  -2.979875e+05   3.095050e+05
  -5.356324e+05  -3.280830e+05
  -2.515331e+05  -6.539690e+05
   3.875217e+05  -3.529282e+05
   7.139175e+05   2.414987e+05
   2.958142e+05   5.616036e+05
  -5.211182e+05   3.899547e+05
  -9.273144e+05  -3.723777e+04
  -5.100073e+05  -3.721958e+05
   2.910440e+05  -4.474571e+05
   6.590849e+05  -2.878748e+05
   2.894817e+05  -2.997029e+04
  -3.043685e+05   1.171794e+05
  -4.006752e+05  -3.496155e+03
   1.217431e+05  -2.737340e+05
   6.841859e+05  -3.018287e+05
