
 $NMID
 id='ANONYMOUS ', fmtdat='(2E16.6)'
 volume=1.0
 tramp=1.0
 $END
   3.948904e+07   1.416811e+06
   2.372880e+07   2.290373e+07
  -4.188359e+06   2.570410e+07
  -1.860885e+07   1.201565e+07
  -1.227768e+07  -2.632180e+06
   1.254839e+06  -6.585345e+06
   7.167510e+06  -7.032661e+05
   3.330811e+06   6.582569e+06
  -3.439310e+06   8.057206e+06
  -6.964364e+06   2.577372e+06
  -5.395243e+06  -4.784577e+06
  -5.400697e+05  -6.965740e+06
   3.294566e+06  -1.789610e+06
   2.316304e+06   5.075161e+06
  -2.550949e+06   5.908787e+06
  -5.889793e+06  -4.092742e+05
  -3.628042e+06  -7.465069e+06
   2.539701e+06  -8.807223e+06
   7.416203e+06  -4.143911e+06
   7.622287e+06   2.044783e+06
   3.926507e+06   5.594185e+06
  -2.140802e+05   5.447410e+06
  -1.518120e+06   3.355732e+06
   3.501750e+05   2.131185e+06
   2.005951e+06   3.108942e+06
  -2.774816e+05   4.523355e+06
  -5.584585e+06   3.398721e+06
  -8.456394e+06  -4.953591e+05
  -5.302914e+06  -3.913758e+06
   8.825355e+05  -3.974062e+06
   4.034525e+06  -1.330711e+06
   2.043743e+06   1.213219e+06
  -1.778928e+06   1.779036e+06
  -3.446249e+06   2.213094e+05
  -2.179031e+06  -2.442014e+06
   2.793538e+05  -4.089224e+06
   1.968256e+06  -2.650725e+06
   1.833409e+06   1.000003e+06
   2.793495e+05   2.792229e+06
  -7.695686e+05   3.594281e+05
   2.728725e+05  -3.016567e+06
   2.234007e+06  -2.265953e+06
   2.067693e+06   2.181477e+06
  -1.088107e+06   4.373432e+06
  -4.110626e+06   8.169015e+05
  -3.315146e+06  -4.658253e+06
   1.149088e+06  -5.828413e+06
   5.390136e+06  -1.635336e+06
   5.765011e+06   3.400611e+06
   2.052620e+06   4.931902e+06
  -2.711204e+06   2.674363e+06
  -4.759482e+06  -7.436115e+05
  -2.603644e+06  -2.623672e+06
   1.497715e+06  -1.877912e+06
   3.476603e+06   4.302161e+05
   1.695687e+06   1.875223e+06
  -1.219340e+06   1.054012e+06
  -1.666185e+06  -7.343111e+05
   4.513583e+05  -1.088946e+06
   1.879132e+06   4.090851e+05
   3.923256e+05   1.835289e+06
  -2.534282e+06   1.500657e+06
  -3.763163e+06  -3.913511e+05
  -1.934256e+06  -2.650276e+06
   1.677236e+06  -4.173788e+06
   4.692460e+06  -3.841678e+06
   5.320437e+06  -1.007142e+06
   3.370046e+06   3.002125e+06
   4.537880e+05   5.220909e+06
  -1.245222e+06   4.149433e+06
  -1.076199e+06   1.667914e+06
  -4.823228e+05   6.221713e+05
  -1.027957e+06   1.199013e+06
  -2.380852e+06   1.158479e+06
  -2.872841e+06  -6.448955e+05
  -1.635371e+06  -2.575972e+06
   5.185331e+05  -2.413574e+06
   2.037146e+06  -8.616854e+04
   1.813498e+06   2.372346e+06
  -1.989965e+05   2.932144e+06
  -2.723330e+06   1.198067e+06
  -3.739106e+06  -1.515446e+06
  -2.281297e+06  -3.293531e+06
   2.980100e+05  -3.160501e+06
   1.718523e+06  -1.861530e+06
   1.510511e+06  -9.181553e+05
   1.407425e+06  -8.429856e+05
   2.676851e+06  -6.875073e+05
   4.081007e+06   5.447060e+05
   3.350648e+06   2.543452e+06
   1.715281e+05   3.985661e+06
  -3.198213e+06   3.776256e+06
  -4.237160e+06   1.846568e+06
  -2.534427e+06  -7.495767e+05
   8.675742e+04  -2.311201e+06
   1.361506e+06  -1.742257e+06
   5.217541e+05   1.595982e+05
  -1.171299e+06   1.221711e+06
  -1.777068e+06   3.324167e+05
  -7.251429e+05  -1.131490e+06
   6.191374e+05  -1.105608e+06
   6.219887e+05   3.260515e+05
  -6.871362e+05   9.793291e+05
  -1.739699e+06  -5.039866e+05
  -1.239737e+06  -2.825218e+06
   6.381637e+05  -3.575359e+06
   2.670165e+06  -1.905110e+06
   3.590058e+06   8.602131e+05
   2.762726e+06   2.757798e+06
   6.257265e+05   2.807278e+06
  -1.317802e+06   1.480551e+06
  -1.628325e+06   1.525193e+05
  -4.865031e+05  -4.675375e+04
   3.601367e+05   7.310153e+05
  -3.329081e+05   1.225432e+06
  -1.713874e+06   5.450720e+05
  -1.910011e+06  -7.302542e+05
  -4.471553e+05  -1.270199e+06
   1.106332e+06  -6.067810e+05
   9.963747e+05   4.190826e+05
  -7.283268e+05   7.096290e+05
  -2.299783e+06  -4.483720e+04
  -2.034829e+06  -1.301333e+06
   6.375316e+04  -2.141209e+06
   2.292634e+06  -1.805607e+06
   2.766421e+06  -3.283109e+05
   1.178753e+06   1.173151e+06
  -8.583965e+05   1.355578e+06
  -1.397560e+06   1.462673e+05
  -1.164838e+05  -9.936268e+05
   1.465916e+06  -6.963088e+05
   1.700969e+06   6.985470e+05
   4.614710e+05   1.601605e+06
  -9.569359e+05   1.085772e+06
  -1.265635e+06  -1.435375e+05
  -3.567417e+05  -7.074003e+05
   7.059447e+05  -7.376087e+04
   6.910691e+05   1.018380e+06
  -6.034889e+05   1.382637e+06
  -1.995611e+06   4.889484e+05
  -1.984061e+06  -1.061285e+06
  -3.755863e+05  -2.024022e+06
   1.369541e+06  -1.614870e+06
   1.677257e+06  -2.585413e+05
   5.476700e+05   8.234682e+05
  -6.164065e+05   8.260499e+05
  -6.997123e+05   7.586642e+04
   4.257668e+04  -4.828512e+05
   5.795359e+05  -3.531224e+05
   3.394609e+05   8.218626e+04
  -3.162395e+05   1.017592e+05
  -5.649510e+05  -5.059798e+05
   9.559358e+04  -1.137461e+06
   1.320820e+06  -9.140587e+05
   2.054667e+06   3.845937e+05
   1.442360e+06   1.911032e+06
  -2.115601e+05   2.426478e+06
  -1.607259e+06   1.502510e+06
  -1.768638e+06  -3.646616e+04
  -1.010875e+06  -9.667340e+05
  -3.831033e+05  -8.693223e+05
  -3.666739e+05  -3.678864e+05
  -4.743689e+05  -2.688350e+05
  -6.289459e+04  -6.649232e+05
   8.175241e+05  -9.169654e+05
   1.456602e+06  -4.055818e+05
   1.151340e+06   7.307779e+05
  -1.645705e+05   1.562766e+06
  -1.711633e+06   1.156322e+06
  -2.278852e+06  -4.459477e+05
  -1.198081e+06  -2.051256e+06
   8.875221e+05  -2.330840e+06
   2.429888e+06  -1.100442e+06
   2.379211e+06   5.246462e+05
   1.117883e+06   1.306382e+06
  -9.965870e+04   1.073547e+06
  -4.746652e+05   6.474532e+05
  -2.620070e+05   7.471617e+05
  -2.017342e+05   1.191256e+06
  -6.400010e+05   1.190825e+06
  -1.227674e+06   2.840324e+05
  -1.301976e+06  -1.086128e+06
  -5.390625e+05  -1.889933e+06
   6.339495e+05  -1.429283e+06
   1.286845e+06  -2.328412e+04
   8.354315e+05   1.216569e+06
  -2.988671e+05   1.369706e+06
  -1.042332e+06   4.999206e+05
  -7.794201e+05  -5.310923e+05
   1.739961e+04  -9.678407e+05
   3.891504e+05  -7.842802e+05
   2.176817e+04  -4.653375e+05
  -4.068532e+05  -3.667163e+05
  -4.356531e+04  -3.951107e+05
   1.089649e+06  -2.236615e+05
   1.977390e+06   3.051255e+05
   1.601186e+06   9.797791e+05
   4.400648e+04   1.351515e+06
  -1.477859e+06   1.095391e+06
  -1.776254e+06   3.371541e+05
  -8.503777e+05  -3.717437e+05
   2.175381e+05  -5.071606e+05
   4.729916e+05  -7.843996e+04
  -1.072202e+04   3.522300e+05
  -4.790810e+05   2.391987e+05
  -4.648328e+05  -3.436801e+05
  -1.688185e+05  -7.504734e+05
  -1.618664e+04  -4.890541e+05
  -1.411390e+05   1.534238e+05
  -3.366578e+05   3.687673e+05
  -2.893645e+05  -2.200934e+05
   1.799086e+05  -1.013467e+06
   8.917868e+05  -1.043591e+06
   1.260884e+06  -1.093577e+05
   7.489613e+05   9.218410e+05
  -4.206209e+05   1.054708e+06
  -1.201999e+06   2.492562e+05
  -7.190548e+05  -5.989192e+05
   6.761058e+05  -6.603194e+05
   1.614856e+06   4.570539e+04
   1.111015e+06   8.283858e+05
  -3.949092e+05   1.047765e+06
  -1.506520e+06   5.963999e+05
  -1.299654e+06  -1.224723e+05
  -1.785049e+05  -5.289334e+05
   6.348810e+05  -3.073124e+05
   3.547624e+05   2.701787e+05
  -6.258678e+05   4.849909e+05
  -1.178901e+06  -1.428184e+05
  -5.990601e+05  -1.218237e+06
   6.802814e+05  -1.678169e+06
   1.531709e+06  -8.329176e+05
   1.255134e+06   7.919454e+05
   1.900868e+05   1.816821e+06
  -7.434040e+05   1.339975e+06
  -9.393189e+05  -1.284496e+05
  -4.822839e+05  -1.186699e+06
   1.539204e+05  -1.004692e+06
   5.431162e+05  -1.096996e+05
   5.160850e+05   3.869211e+05
   2.176728e+05   1.505376e+05
   2.761442e+04  -1.101590e+05
   2.032254e+05   2.681622e+05
   4.816331e+05   9.591760e+05
   2.539080e+05   1.090628e+06
  -6.465670e+05   4.011424e+05
  -1.493155e+06  -4.707135e+05
  -1.344661e+06  -8.379351e+05
  -1.910552e+05  -6.896640e+05
   9.096806e+05  -4.190560e+05
   1.007161e+06  -2.026424e+05
   3.176473e+05   2.798130e+04
  -1.668374e+05   2.230842e+05
   2.489611e+04   2.298755e+05
   3.312032e+05   1.233152e+05
   2.671397e+04   1.402028e+05
  -7.341191e+05   2.174049e+05
  -1.045680e+06  -3.591604e+04
  -3.409405e+05  -6.963081e+05
   9.129009e+05  -1.147878e+06
   1.675132e+06  -7.019529e+05
   1.344290e+06   4.827320e+05
   2.457765e+05   1.426833e+06
  -7.645892e+05   1.355869e+06
  -1.060285e+06   4.942443e+05
  -6.689191e+05  -2.690812e+05
  -1.069371e+05  -3.624352e+05
   1.250532e+05  -3.721540e+04
  -5.876425e+04   5.374145e+04
  -3.247903e+05  -3.508268e+05
  -2.666151e+05  -8.105636e+05
   1.970751e+05  -6.701512e+05
   6.986971e+05   1.623656e+05
   7.073400e+05   1.000716e+06
   4.863528e+04   1.037293e+06
  -7.962586e+05   1.959318e+05
  -1.022916e+06  -7.802867e+05
  -3.079348e+05  -1.097442e+06
   7.334232e+05  -6.378076e+05
   1.098496e+06   1.002239e+05
   4.958621e+05   5.858409e+05
  -2.942695e+05   6.310371e+05
  -3.415646e+05   3.509144e+05
   2.975210e+05   2.364919e+04
   6.659032e+05  -2.911850e+04
   1.279546e+05   3.029933e+05
  -8.326340e+05   6.830685e+05
  -1.223926e+06   5.653080e+05
  -7.133946e+05  -1.514440e+05
   1.086480e+05  -8.542300e+05
   5.213267e+05  -8.324156e+05
   3.859213e+05  -1.207984e+05
   2.849242e+04   5.035841e+05
  -2.547344e+05   4.116207e+05
  -3.601099e+05  -1.908769e+05
  -2.451020e+05  -5.838762e+05
   7.128812e+04  -3.923819e+05
   3.927407e+05   6.571117e+04
   4.579967e+05   2.579064e+05
   2.394421e+05   7.271685e+04
  -8.888665e+03  -1.211434e+05
  -7.426615e+04   2.271720e+04
  -4.432358e+04   3.883316e+05
  -1.400589e+05   5.166604e+05
  -3.566045e+05   1.455690e+05
  -4.090925e+05  -4.392513e+05
  -8.128221e+04  -6.667993e+05
   4.354188e+05  -2.954664e+05
   6.415028e+05   3.156331e+05
   2.321664e+05   5.967874e+05
  -5.007844e+05   3.562087e+05
  -8.641818e+05  -1.031275e+05
  -4.666610e+05  -3.851580e+05
   3.015748e+05  -3.696246e+05
   6.371563e+05  -1.860711e+05
   2.207937e+05  -6.347934e+03
  -3.965569e+05   3.917045e+04
  -4.319559e+05  -1.097542e+05
   2.037687e+05  -3.227595e+05
   8.081572e+05  -2.732923e+05
