
 $NMID
 id='ANONYMOUS ', fmtdat='(2E16.6)'
 volume=1.0
 tramp=1.0
 $END
   4.161627e+07  -1.753087e+06
   2.721744e+07   2.307445e+07
  -2.659038e+06   2.815003e+07
  -1.956560e+07   1.372799e+07
  -1.358718e+07  -2.809840e+06
   1.198869e+06  -7.342447e+06
   7.875274e+06  -7.071229e+05
   3.648362e+06   7.187541e+06
  -3.745556e+06   8.564847e+06
  -7.449793e+06   2.817490e+06
  -5.800129e+06  -4.683565e+06
  -8.370947e+05  -7.054605e+06
   3.178963e+06  -2.047414e+06
   2.345957e+06   4.950740e+06
  -2.655175e+06   6.066157e+06
  -6.300400e+06  -2.733853e+05
  -4.141268e+06  -7.698013e+06
   2.241208e+06  -9.386705e+06
   7.469845e+06  -4.836402e+06
   8.058699e+06   1.449434e+06
   4.695454e+06   5.358944e+06
   5.404773e+05   5.800328e+06
  -1.298969e+06   4.080500e+06
  -5.017866e+04   2.594280e+06
   1.550720e+06   2.983057e+06
  -2.475962e+05   4.204167e+06
  -5.206620e+06   3.436112e+06
  -8.263377e+06  -9.853082e+04
  -5.526896e+06  -3.550437e+06
   4.332529e+05  -3.870251e+06
   3.618208e+06  -1.474758e+06
   1.839416e+06   8.421498e+05
  -1.634128e+06   1.314659e+06
  -3.037239e+06   3.648201e+04
  -1.913097e+06  -2.158619e+06
   1.158459e+05  -3.746978e+06
   1.667604e+06  -2.784355e+06
   1.908012e+06   5.302261e+05
   7.171320e+05   2.625688e+06
  -4.617227e+05   6.822794e+05
   2.530314e+05  -2.686018e+06
   2.220297e+06  -2.229777e+06
   2.256886e+06   2.275334e+06
  -1.047982e+06   4.853944e+06
  -4.562049e+06   1.327375e+06
  -3.984993e+06  -4.691358e+06
   8.207155e+05  -6.358627e+06
   5.526859e+06  -2.090357e+06
   6.010049e+06   3.340297e+06
   2.113634e+06   5.066428e+06
  -2.802070e+06   2.722605e+06
  -4.858618e+06  -8.278942e+05
  -2.626989e+06  -2.778827e+06
   1.601957e+06  -2.048664e+06
   3.682996e+06   3.519814e+05
   1.841994e+06   1.963690e+06
  -1.236956e+06   1.173720e+06
  -1.680252e+06  -7.715369e+05
   6.617234e+05  -1.176139e+06
   2.193450e+06   5.866207e+05
   4.473439e+05   2.309758e+06
  -2.840198e+06   1.907437e+06
  -4.150879e+06  -3.286460e+05
  -2.182361e+06  -2.795200e+06
   1.479997e+06  -4.291091e+06
   4.456970e+06  -3.965537e+06
   5.214673e+06  -1.260716e+06
   3.535765e+06   2.742300e+06
   6.866699e+05   5.177672e+06
  -1.251830e+06   4.261019e+06
  -1.283969e+06   1.640579e+06
  -5.644646e+05   3.537683e+05
  -8.170206e+05   9.144473e+05
  -2.031283e+06   1.101890e+06
  -2.605958e+06  -4.618565e+05
  -1.537838e+06  -2.295553e+06
   4.473428e+05  -2.180387e+06
   1.850005e+06  -1.027174e+04
   1.663061e+06   2.271389e+06
  -1.644811e+05   2.806340e+06
  -2.572949e+06   1.253201e+06
  -3.714984e+06  -1.286325e+06
  -2.480750e+06  -3.134388e+06
   5.528966e+04  -3.244522e+06
   1.640225e+06  -2.081652e+06
   1.585591e+06  -1.061369e+06
   1.491357e+06  -8.532950e+05
   2.696442e+06  -6.557852e+05
   4.054364e+06   5.489937e+05
   3.307704e+06   2.510264e+06
   1.619108e+05   3.907499e+06
  -3.103368e+06   3.676167e+06
  -4.057920e+06   1.817566e+06
  -2.421903e+06  -6.464210e+05
   3.111311e+04  -2.159038e+06
   1.238036e+06  -1.678058e+06
   4.921860e+05   1.222736e+05
  -1.108510e+06   1.184099e+06
  -1.743245e+06   3.530490e+05
  -7.555968e+05  -1.081633e+06
   5.825087e+05  -1.054005e+06
   5.718915e+05   3.693061e+05
  -8.077335e+05   9.563741e+05
  -1.858189e+06  -6.482471e+05
  -1.181562e+06  -3.005790e+06
   8.791441e+05  -3.610286e+06
   2.854724e+06  -1.748832e+06
   3.528741e+06   1.036748e+06
   2.560541e+06   2.785497e+06
   5.172524e+05   2.718440e+06
  -1.273878e+06   1.412806e+06
  -1.557164e+06   1.470026e+05
  -4.737906e+05  -4.656053e+04
   3.499195e+05   7.169842e+05
  -3.253763e+05   1.230234e+06
  -1.704898e+06   5.657441e+05
  -1.910416e+06  -7.305581e+05
  -4.428007e+05  -1.281326e+06
   1.099326e+06  -5.890116e+05
   9.487839e+05   4.406185e+05
  -7.749456e+05   6.656636e+05
  -2.260165e+06  -1.410732e+05
  -1.915034e+06  -1.343595e+06
   1.479437e+05  -2.077196e+06
   2.270002e+06  -1.711365e+06
   2.702493e+06  -2.939147e+05
   1.166554e+06   1.159738e+06
  -8.263612e+05   1.358533e+06
  -1.387780e+06   1.768607e+05
  -1.448319e+05  -9.696803e+05
   1.431781e+06  -6.888880e+05
   1.670177e+06   7.030286e+05
   4.221223e+05   1.595097e+06
  -9.879508e+05   1.052095e+06
  -1.260712e+06  -1.861468e+05
  -3.324623e+05  -7.281684e+05
   7.107805e+05  -8.166974e+04
   6.839519e+05   9.920387e+05
  -5.785862e+05   1.344838e+06
  -1.934072e+06   4.803705e+05
  -1.933099e+06  -1.028346e+06
  -3.672391e+05  -1.979472e+06
   1.350149e+06  -1.583677e+06
   1.653049e+06  -2.416354e+05
   5.270974e+05   8.227947e+05
  -6.173752e+05   8.032933e+05
  -6.649865e+05   5.783952e+04
   8.531058e+04  -4.551987e+05
   5.725800e+05  -2.891619e+05
   2.753667e+05   1.201097e+05
  -3.737973e+05   8.112399e+04
  -5.678847e+05  -5.430429e+05
   1.152347e+05  -1.138535e+06
   1.306680e+06  -8.893516e+05
   2.007329e+06   3.857802e+05
   1.404194e+06   1.867837e+06
  -2.199055e+05   2.357283e+06
  -1.589380e+06   1.433005e+06
  -1.718237e+06  -8.093882e+04
  -9.281052e+05  -9.587098e+05
  -3.098684e+05  -8.092264e+05
  -3.511093e+05  -3.031181e+05
  -5.039692e+05  -2.442036e+05
  -8.355164e+04  -6.644098e+05
   8.165652e+05  -8.947241e+05
   1.431900e+06  -3.656661e+05
   1.089450e+06   7.346102e+05
  -2.087487e+05   1.510688e+06
  -1.688580e+06   1.097190e+06
  -2.212719e+06  -4.600410e+05
  -1.148583e+06  -2.023930e+06
   8.961880e+05  -2.293318e+06
   2.407461e+06  -1.063391e+06
   2.329924e+06   5.592044e+05
   1.048301e+06   1.315045e+06
  -1.525901e+05   1.033875e+06
  -4.716155e+05   5.777000e+05
  -2.138884e+05   6.900155e+05
  -1.558881e+05   1.164660e+06
  -6.157211e+05   1.183308e+06
  -1.203251e+06   2.912947e+05
  -1.267349e+06  -1.053397e+06
  -5.198831e+05  -1.836879e+06
   6.185123e+05  -1.385470e+06
   1.255488e+06  -1.011401e+04
   8.137174e+05   1.206860e+06
  -3.136964e+05   1.354150e+06
  -1.062698e+06   4.822049e+05
  -7.952959e+05  -5.531392e+05
   2.542979e+04  -9.870244e+05
   4.174277e+05  -7.889789e+05
   4.823122e+04  -4.530404e+05
  -3.937131e+05  -3.457979e+05
  -4.187184e+04  -3.781489e+05
   1.076881e+06  -2.204282e+05
   1.945978e+06   2.957028e+05
   1.566428e+06   9.703523e+05
   3.331773e+04   1.349806e+06
  -1.459042e+06   1.090396e+06
  -1.753004e+06   3.159230e+05
  -8.451382e+05  -3.980168e+05
   2.119270e+05  -5.153433e+05
   4.783025e+05  -7.090866e+04
   1.163171e+04   3.505752e+05
  -4.541397e+05   2.276028e+05
  -4.538651e+05  -3.323385e+05
  -1.756011e+05  -7.061562e+05
  -3.098090e+04  -4.566318e+05
  -1.489518e+05   1.332614e+05
  -3.303606e+05   3.262561e+05
  -2.790024e+05  -2.211818e+05
   1.757582e+05  -9.692910e+05
   8.684827e+05  -1.016739e+06
   1.236793e+06  -1.374276e+05
   7.474271e+05   8.759139e+05
  -3.945459e+05   1.042620e+06
  -1.164503e+06   2.702689e+05
  -6.942641e+05  -5.755459e+05
   6.690467e+05  -6.409729e+05
   1.572890e+06   7.015292e+04
   1.056529e+06   8.410630e+05
  -4.235958e+05   1.020206e+06
  -1.489611e+06   5.409841e+05
  -1.259885e+06  -1.565728e+05
  -1.565876e+05  -5.204334e+05
   6.301866e+05  -2.890986e+05
   3.562476e+05   2.639068e+05
  -5.913440e+05   4.695709e+05
  -1.132410e+06  -1.261758e+05
  -5.883389e+05  -1.160229e+06
   6.376156e+05  -1.614533e+06
   1.466686e+06  -8.072502e+05
   1.209226e+06   7.645026e+05
   1.758703e+05   1.756450e+06
  -7.367546e+05   1.286285e+06
  -9.192272e+05  -1.446672e+05
  -4.512866e+05  -1.167952e+06
   1.796120e+05  -9.807044e+05
   5.392445e+05  -1.016678e+05
   4.839816e+05   3.866748e+05
   1.928306e+05   1.557268e+05
   3.651618e+04  -1.076121e+05
   2.242423e+05   2.514716e+05
   4.741129e+05   9.294417e+05
   2.221613e+05   1.071854e+06
  -6.505453e+05   4.013685e+05
  -1.442848e+06  -4.653290e+05
  -1.284987e+06  -8.337403e+05
  -1.835222e+05  -6.748748e+05
   8.689312e+05  -3.909944e+05
   9.775042e+05  -1.821130e+05
   3.271767e+05   2.546812e+04
  -1.559192e+05   2.119794e+05
  -4.709354e+02   2.305777e+05
   2.946219e+05   1.280820e+05
   3.101082e+04   1.283677e+05
  -6.874180e+05   1.972476e+05
  -1.010115e+06  -3.001206e+04
  -3.564228e+05  -6.537250e+05
   8.606157e+05  -1.104512e+06
   1.623302e+06  -7.004834e+05
   1.312736e+06   4.398532e+05
   2.392642e+05   1.372956e+06
  -7.419649e+05   1.322024e+06
  -1.016793e+06   4.887021e+05
  -6.356433e+05  -2.547080e+05
  -1.105070e+05  -3.442595e+05
   9.685692e+04  -3.139320e+04
  -7.364868e+04   4.593063e+04
  -3.111770e+05  -3.531282e+05
  -2.502936e+05  -7.922066e+05
   1.847806e+05  -6.488988e+05
   6.619128e+05   1.500591e+05
   6.826875e+05   9.488940e+05
   6.595743e+04   9.881189e+05
  -7.456636e+05   1.948493e+05
  -9.803153e+05  -7.364080e+05
  -3.085986e+05  -1.052951e+06
   6.960407e+05  -6.260685e+05
   1.066526e+06   8.537221e+04
   4.994457e+05   5.692909e+05
  -2.720045e+05   6.261670e+05
  -3.405244e+05   3.558309e+05
   2.681027e+05   3.184211e+04
   6.384509e+05  -2.622365e+04
   1.314006e+05   2.912224e+05
  -8.085599e+05   6.585453e+05
  -1.208433e+06   5.476407e+05
  -7.161675e+05  -1.441920e+05
   9.872553e+04  -8.312583e+05
   5.119357e+05  -8.238719e+05
   3.776019e+05  -1.414519e+05
   2.901609e+04   4.738138e+05
  -2.361907e+05   4.033337e+05
  -3.347617e+05  -1.728456e+05
  -2.384977e+05  -5.625638e+05
   5.382398e+04  -3.880048e+05
   3.748885e+05   5.744098e+04
   4.566795e+05   2.542215e+05
   2.399173e+05   7.842799e+04
  -2.527157e+04  -1.208389e+05
  -9.312140e+04   1.116125e+03
  -3.329175e+04   3.493362e+05
  -9.571737e+04   4.885324e+05
  -3.130815e+05   1.563158e+05
  -3.975232e+05  -3.921807e+05
  -9.964992e+04  -6.198730e+05
   4.080899e+05  -2.856431e+05
   6.205656e+05   2.878519e+05
   2.260394e+05   5.652453e+05
  -4.863641e+05   3.504657e+05
  -8.377624e+05  -8.595983e+04
  -4.550142e+05  -3.682276e+05
   2.817600e+05  -3.673949e+05
   6.076774e+05  -1.957221e+05
   2.217441e+05  -1.860106e+04
  -3.585190e+05   3.413975e+04
  -3.974355e+05  -9.701928e+04
   1.939688e+05  -2.916247e+05
   7.616013e+05  -2.456736e+05
