
 $NMID
 id='ANONYMOUS ', fmtdat='(2E16.6)'
 volume=1.0
 tramp=1.0
 $END
   6.086107e+07  -1.096298e+06
   3.708540e+07   3.746119e+07
  -7.682532e+06   4.145388e+07
  -2.968760e+07   1.589780e+07
  -1.773283e+07  -7.733263e+06
   3.629410e+06  -1.010092e+07
   1.055875e+07   1.454003e+06
   2.889929e+06   1.053637e+07
  -6.697351e+06   9.888209e+06
  -1.033651e+07   2.089552e+06
  -7.563854e+06  -6.503340e+06
  -1.033650e+06  -9.106376e+06
   4.180242e+06  -3.057867e+06
   2.859429e+06   5.596538e+06
  -3.963193e+06   6.884947e+06
  -8.446510e+06  -1.416613e+06
  -4.863386e+06  -1.088965e+07
   3.916815e+06  -1.269810e+07
   1.076135e+07  -6.539226e+06
   1.170827e+07   1.935142e+06
   7.409177e+06   7.931570e+06
   1.004618e+06   9.458211e+06
  -3.162698e+06   6.743048e+06
  -2.263756e+06   2.869639e+06
   1.028239e+06   1.997464e+06
   4.529018e+05   4.219460e+06
  -5.429589e+06   4.806704e+06
  -1.013397e+07   8.746044e+05
  -7.627338e+06  -4.154307e+06
  -5.554384e+05  -5.405327e+06
   3.722936e+06  -2.950190e+06
   2.638516e+06  -2.849813e+05
  -3.738322e+05   8.441535e+05
  -2.121813e+06   6.221307e+05
  -2.304866e+06  -1.239020e+06
  -9.764110e+05  -4.006924e+06
   1.756627e+06  -4.214290e+06
   3.587836e+06  -1.017963e+05
   2.078417e+06   3.870861e+06
  -7.824897e+05   2.274531e+06
  -5.248849e+05  -2.425132e+06
   2.518633e+06  -2.420701e+06
   2.630767e+06   3.416797e+06
  -2.634328e+06   6.640867e+06
  -7.623984e+06   1.174972e+06
  -5.683309e+06  -7.440409e+06
   1.967739e+06  -9.264430e+06
   7.952160e+06  -2.741311e+06
   7.424506e+06   4.636014e+06
   1.963513e+06   6.353911e+06
  -3.655917e+06   2.851455e+06
  -5.514381e+06  -1.612268e+06
  -2.517491e+06  -3.689267e+06
   2.608017e+06  -2.349504e+06
   4.850281e+06   9.622592e+05
   2.090732e+06   2.911281e+06
  -1.831280e+06   1.491150e+06
  -1.818702e+06  -1.075245e+06
   1.491792e+06  -9.305406e+05
   2.669818e+06   1.996087e+06
  -7.600634e+05   3.816703e+06
  -5.088645e+06   2.091331e+06
  -5.733196e+06  -1.475964e+06
  -2.511348e+06  -4.278520e+06
   1.786369e+06  -5.638839e+06
   5.123813e+06  -5.251978e+06
   6.499017e+06  -2.037897e+06
   4.986496e+06   3.200296e+06
   1.167541e+06   6.504818e+06
  -1.937365e+06   5.047132e+06
  -1.905759e+06   1.206580e+06
  -1.087393e+05  -4.035046e+05
   2.347611e+05   9.853275e+05
  -1.491441e+06   1.998263e+06
  -2.900529e+06   4.595308e+05
  -2.211414e+06  -1.846160e+06
  -1.687287e+05  -2.178421e+06
   1.520626e+06  -2.722977e+05
   1.758707e+06   2.059461e+06
   9.825621e+04   3.036912e+06
  -2.837159e+06   1.844159e+06
  -4.770919e+06  -1.090900e+06
  -3.557852e+06  -3.906421e+06
  -7.964612e+04  -4.551580e+06
   2.401729e+06  -2.992565e+06
   2.410679e+06  -1.248687e+06
   1.953924e+06  -7.087373e+05
   3.078939e+06  -5.127058e+05
   4.559921e+06   7.467982e+05
   3.682448e+06   2.840039e+06
   2.025264e+05   4.298548e+06
  -3.253175e+06   4.124349e+06
  -4.278063e+06   2.327524e+06
  -2.788558e+06  -3.276115e+05
  -3.958508e+05  -2.303282e+06
   1.059161e+06  -2.065662e+06
   5.949137e+05   4.314069e+03
  -1.090893e+06   1.397166e+06
  -1.997807e+06   4.599497e+05
  -1.015322e+06  -1.250521e+06
   4.982776e+05  -1.169456e+06
   4.145614e+05   4.072870e+05
  -1.164082e+06   6.852356e+05
  -1.963814e+06  -1.453890e+06
  -6.104785e+05  -3.725268e+06
   1.772642e+06  -3.523597e+06
   3.319786e+06  -1.050037e+06
   3.394970e+06   1.551786e+06
   2.311378e+06   2.819590e+06
   4.836168e+05   2.660198e+06
  -1.247448e+06   1.540079e+06
  -1.626342e+06   2.805722e+05
  -5.145805e+05  -3.912407e+04
   3.848341e+05   7.812030e+05
  -4.265786e+05   1.426565e+06
  -2.017778e+06   6.391473e+05
  -2.156646e+06  -9.261762e+05
  -4.086010e+05  -1.500306e+06
   1.225737e+06  -6.051099e+05
   9.086373e+05   4.673780e+05
  -9.009930e+05   5.110358e+05
  -2.244604e+06  -3.596949e+05
  -1.769864e+06  -1.393345e+06
   2.678706e+05  -2.013813e+06
   2.377888e+06  -1.723695e+06
   2.884140e+06  -3.167480e+05
   1.295736e+06   1.320092e+06
  -9.487776e+05   1.612844e+06
  -1.660411e+06   2.312432e+05
  -2.459976e+05  -1.144194e+06
   1.581160e+06  -8.015955e+05
   1.806193e+06   8.077971e+05
   3.462055e+05   1.727516e+06
  -1.154861e+06   1.005840e+06
  -1.310752e+06  -3.480465e+05
  -2.388967e+05  -8.282921e+05
   8.526095e+05  -6.374774e+04
   7.966852e+05   1.096140e+06
  -5.703703e+05   1.505999e+06
  -2.088464e+06   6.132018e+05
  -2.153553e+06  -1.058938e+06
  -4.355802e+05  -2.170305e+06
   1.493727e+06  -1.742327e+06
   1.808584e+06  -2.329789e+05
   5.244040e+05   9.093240e+05
  -6.852703e+05   8.413790e+05
  -6.421437e+05   9.076662e+04
   1.360013e+05  -3.450522e+05
   4.839899e+05  -1.890518e+05
   7.276613e+04   5.860998e+04
  -4.997204e+05  -1.214956e+05
  -5.350712e+05  -7.346910e+05
   2.265532e+05  -1.251549e+06
   1.442453e+06  -9.493278e+05
   2.183343e+06   4.062455e+05
   1.564565e+06   2.011016e+06
  -1.872526e+05   2.525362e+06
  -1.660723e+06   1.474063e+06
  -1.739962e+06  -1.267594e+05
  -8.682526e+05  -8.988598e+05
  -3.272614e+05  -6.152305e+05
  -5.324730e+05  -1.832161e+05
  -6.981346e+05  -3.304541e+05
  -1.130341e+05  -8.216157e+05
   9.138427e+05  -9.473804e+05
   1.499854e+06  -3.399207e+05
   1.077660e+06   7.314238e+05
  -2.584714e+05   1.495224e+06
  -1.777963e+06   1.122283e+06
  -2.341021e+06  -4.768711e+05
  -1.196867e+06  -2.182159e+06
   1.047936e+06  -2.488951e+06
   2.662273e+06  -1.094880e+06
   2.450002e+06   6.855866e+05
   9.724916e+05   1.385478e+06
  -2.263717e+05   9.516528e+05
  -3.712956e+05   5.018806e+05
  -1.871488e+04   7.911696e+05
  -6.087866e+04   1.397107e+06
  -6.870817e+05   1.380202e+06
  -1.361509e+06   3.623354e+05
  -1.422508e+06  -1.101837e+06
  -6.176454e+05  -1.966287e+06
   6.200768e+05  -1.510807e+06
   1.338844e+06  -1.218058e+04
   8.600572e+05   1.342126e+06
  -4.099394e+05   1.466826e+06
  -1.236760e+06   4.129020e+05
  -8.624345e+05  -7.606025e+05
   1.423903e+05  -1.151116e+06
   5.877254e+05  -8.203602e+05
   9.877893e+04  -4.194895e+05
  -4.657634e+05  -3.337175e+05
  -7.426741e+04  -3.952029e+05
   1.210034e+06  -2.334712e+05
   2.179801e+06   3.202157e+05
   1.706509e+06   1.069312e+06
  -4.052959e+04   1.518690e+06
  -1.670046e+06   1.227148e+06
  -1.918850e+06   3.020035e+05
  -8.696153e+05  -5.367440e+05
   2.763671e+05  -6.150354e+05
   5.431990e+05  -2.977397e+04
   5.077615e+04   4.600689e+05
  -4.458458e+05   2.843574e+05
  -5.136096e+05  -3.470802e+05
  -3.056129e+05  -7.416952e+05
  -1.351644e+05  -4.961942e+05
  -1.387459e+05   8.234330e+04
  -2.652512e+05   2.863321e+05
  -2.864145e+05  -2.407260e+05
   1.153430e+05  -1.022548e+06
   9.199201e+05  -1.135342e+06
   1.451662e+06  -2.286219e+05
   9.411483e+05   9.365398e+05
  -4.106376e+05   1.224794e+06
  -1.325806e+06   4.058008e+05
  -7.820040e+05  -5.739059e+05
   7.286127e+05  -6.839282e+05
   1.646107e+06   8.840206e+04
   1.024579e+06   8.913510e+05
  -5.178626e+05   1.015511e+06
  -1.547268e+06   4.823028e+05
  -1.261672e+06  -2.007185e+05
  -1.327355e+05  -5.266703e+05
   6.769154e+05  -2.773544e+05
   4.173919e+05   3.097781e+05
  -5.841838e+05   5.736783e+05
  -1.240246e+06  -3.333661e+04
  -7.586053e+05  -1.204781e+06
   5.391855e+05  -1.804773e+06
   1.510262e+06  -9.834303e+05
   1.330400e+06   7.474954e+05
   2.577182e+05   1.856046e+06
  -7.426455e+05   1.346986e+06
  -9.618473e+05  -1.871005e+05
  -4.507137e+05  -1.236695e+06
   2.400232e+05  -9.968565e+05
   5.938626e+05  -8.599648e+04
   4.703156e+05   3.778710e+05
   1.469019e+05   1.311506e+05
   5.887212e+04  -9.209907e+04
   3.368471e+05   3.201827e+05
   5.676258e+05   1.003989e+06
   1.900676e+05   1.113767e+06
  -7.740162e+05   4.214553e+05
  -1.542455e+06  -4.499980e+05
  -1.321562e+06  -8.430080e+05
  -2.049303e+05  -7.308428e+05
   8.510782e+05  -4.610111e+05
   1.010931e+06  -2.022789e+05
   4.019237e+05   6.426424e+04
  -1.347052e+05   2.421441e+05
  -6.705413e+04   1.970935e+05
   2.412138e+05   7.102278e+04
   7.136966e+04   1.353406e+05
  -6.430400e+05   2.797920e+05
  -1.098299e+06   2.995281e+04
  -5.293446e+05  -7.171917e+05
   8.069672e+05  -1.278992e+06
   1.779703e+06  -8.699945e+05
   1.536707e+06   3.853253e+05
   3.464036e+05   1.453635e+06
  -7.700596e+05   1.474062e+06
  -1.080960e+06   6.225219e+05
  -6.863640e+05  -1.994476e+05
  -1.686971e+05  -3.711140e+05
   3.626849e+04  -9.602009e+04
  -9.737189e+04  -7.796651e+03
  -3.061272e+05  -3.873444e+05
  -2.668785e+05  -8.371078e+05
   1.570454e+05  -7.246270e+05
   7.078604e+05   7.543736e+04
   8.295621e+05   9.415991e+05
   2.027245e+05   1.078907e+06
  -7.531093e+05   3.258545e+05
  -1.120671e+06  -6.788795e+05
  -4.300808e+05  -1.128922e+06
   7.147526e+05  -7.645190e+05
   1.192676e+06   2.650962e+04
   6.010222e+05   6.502655e+05
  -2.791968e+05   7.572332e+05
  -4.182426e+05   4.068234e+05
   2.207758e+05  -1.414005e+04
   6.674519e+05  -7.031585e+04
   1.774629e+05   3.243104e+05
  -8.392250e+05   7.329906e+05
  -1.330578e+06   5.792079e+05
  -8.416173e+05  -1.893729e+05
   6.648906e+04  -9.276686e+05
   5.810270e+05  -9.304547e+05
   4.782325e+05  -2.127694e+05
   9.446878e+04   4.827404e+05
  -2.266803e+05   4.853646e+05
  -3.713032e+05  -1.055196e+05
  -2.926808e+05  -5.927856e+05
   2.957793e+04  -4.812906e+05
   4.120150e+05   1.627490e+04
   5.202436e+05   3.007389e+05
   2.574679e+05   1.142707e+05
  -5.968243e+04  -1.838715e+05
  -8.872117e+04  -1.006632e+05
   7.609683e+04   3.458058e+05
   4.031230e+04   6.169021e+05
  -3.020561e+05   3.071644e+05
  -5.422655e+05  -3.352457e+05
  -2.541431e+05  -6.652868e+05
   3.957826e+05  -3.631602e+05
   7.304445e+05   2.413718e+05
   3.071532e+05   5.746526e+05
  -5.274607e+05   4.077593e+05
  -9.481319e+05  -2.714395e+04
  -5.271328e+05  -3.749778e+05
   2.912197e+05  -4.584388e+05
   6.693069e+05  -2.986619e+05
   2.907691e+05  -3.531291e+04
  -3.176808e+05   1.158578e+05
  -4.123728e+05  -7.767049e+03
   1.299306e+05  -2.858781e+05
   7.101189e+05  -3.154796e+05
