
 $NMID
 id='ANONYMOUS ', fmtdat='(2E16.6)'
 volume=1.0
 tramp=1.0
 $END
  -4.351563e+07   1.871203e+05
  -2.737813e+07  -2.476256e+07
   3.708487e+06  -2.897552e+07
   2.058191e+07  -1.376971e+07
   1.392396e+07   3.026975e+06
  -1.360997e+06   7.505493e+06
  -8.113118e+06   6.930555e+05
  -3.704729e+06  -7.444431e+06
   3.936294e+06  -8.899979e+06
   7.768839e+06  -2.847245e+06
   5.979462e+06   5.090134e+06
   7.073643e+05   7.499400e+06
  -3.459856e+06   2.047271e+06
  -2.450325e+06  -5.360317e+06
   2.839712e+06  -6.389447e+06
   6.548124e+06   3.988798e+05
   4.140176e+06   8.149601e+06
  -2.593422e+06   9.752631e+06
  -7.986372e+06   4.805374e+06
  -8.399973e+06  -1.865875e+06
  -4.637321e+06  -5.855180e+06
  -2.082336e+05  -6.040162e+06
   1.509100e+06  -4.033203e+06
  -1.004976e+05  -2.573347e+06
  -1.826055e+06  -3.255019e+06
   3.139052e+05  -4.624047e+06
   5.750011e+06  -3.607693e+06
   8.903128e+06   3.452665e+05
   5.773369e+06   3.991857e+06
  -6.892462e+05   4.170918e+06
  -4.054530e+06   1.479716e+06
  -2.042450e+06  -1.075832e+06
   1.821720e+06  -1.588710e+06
   3.420274e+06  -9.003072e+04
   2.136099e+06   2.444019e+06
  -2.281059e+05   4.144705e+06
  -1.931431e+06   2.898766e+06
  -1.996658e+06  -7.834152e+05
  -5.545422e+05  -2.877861e+06
   6.282585e+05  -5.838690e+05
  -3.033310e+05   3.007735e+06
  -2.395057e+06   2.378047e+06
  -2.310440e+06  -2.406750e+06
   1.172607e+06  -4.968449e+06
   4.684917e+06  -1.164607e+06
   3.930057e+06   5.023053e+06
  -1.064897e+06   6.553555e+06
  -5.856643e+06   1.992984e+06
  -6.284935e+06  -3.639973e+06
  -2.190289e+06  -5.369129e+06
   2.975465e+06  -2.864082e+06
   5.139511e+06   8.873649e+05
   2.772691e+06   2.922410e+06
  -1.682537e+06   2.101823e+06
  -3.841073e+06  -4.387742e+05
  -1.888000e+06  -2.073591e+06
   1.322741e+06  -1.191979e+06
   1.781990e+06   8.220625e+05
  -6.260142e+05   1.214906e+06
  -2.204220e+06  -5.662964e+05
  -4.385251e+05  -2.266800e+06
   2.914277e+06  -1.841613e+06
   4.262653e+06   4.089738e+05
   2.201961e+06   2.938411e+06
  -1.698861e+06   4.517540e+06
  -4.891047e+06   4.142445e+06
  -5.621451e+06   1.193784e+06
  -3.679581e+06  -3.067176e+06
  -5.901518e+05  -5.550769e+06
   1.368300e+06  -4.491301e+06
   1.295459e+06  -1.753885e+06
   5.718640e+05  -4.884181e+05
   9.720276e+05  -1.090342e+06
   2.328391e+06  -1.182011e+06
   2.892219e+06   5.949477e+05
   1.662997e+06   2.585150e+06
  -5.282869e+05   2.424283e+06
  -2.056809e+06   2.668890e+04
  -1.820953e+06  -2.483945e+06
   2.147572e+05  -3.049128e+06
   2.821967e+06  -1.292076e+06
   3.964709e+06   1.502617e+06
   2.536105e+06   3.433796e+06
  -1.892049e+05   3.425762e+06
  -1.800101e+06   2.114001e+06
  -1.668084e+06   1.059342e+06
  -1.563142e+06   8.951887e+05
  -2.876370e+06   6.921103e+05
  -4.336092e+06  -6.175135e+05
  -3.529465e+06  -2.721927e+06
  -1.444618e+05  -4.207348e+06
   3.385181e+06  -3.942240e+06
   4.424982e+06  -1.918492e+06
   2.628313e+06   7.554883e+05
  -7.609100e+04   2.370153e+06
  -1.389525e+06   1.808059e+06
  -5.371197e+05  -1.512291e+05
   1.220870e+06  -1.271109e+06
   1.879061e+06  -3.533565e+05
   7.844249e+05   1.182654e+06
  -6.473099e+05   1.142597e+06
  -6.298638e+05  -3.811885e+05
   8.189594e+05  -1.025800e+06
   1.929600e+06   6.443979e+05
   1.263581e+06   3.142265e+06
  -8.648005e+05   3.834840e+06
  -2.984673e+06   1.912534e+06
  -3.786941e+06  -1.060704e+06
  -2.798021e+06  -2.985030e+06
  -5.758423e+05  -2.945890e+06
   1.391101e+06  -1.526729e+06
   1.694423e+06  -1.458323e+05
   5.108937e+05   5.386475e+04
  -3.721322e+05  -7.746963e+05
   3.607583e+05  -1.309101e+06
   1.829073e+06  -5.812531e+05
   2.034039e+06   7.959038e+05
   4.642074e+05   1.367561e+06
  -1.182261e+06   6.277759e+05
  -1.030553e+06  -4.695561e+05
   8.131085e+05  -7.241038e+05
   2.430129e+06   1.278266e+05
   2.085800e+06   1.433123e+06
  -1.392868e+05   2.245065e+06
  -2.448415e+06   1.849115e+06
  -2.915851e+06   3.058338e+05
  -1.241167e+06  -1.253962e+06
   9.074465e+05  -1.442388e+06
   1.487421e+06  -1.641017e+05
   1.343056e+05   1.046898e+06
  -1.549401e+06   7.268575e+05
  -1.791037e+06  -7.628454e+05
  -4.544047e+05  -1.710038e+06
   1.050817e+06  -1.130112e+06
   1.347405e+06   1.910526e+05
   3.596688e+05   7.719518e+05
  -7.577605e+05   7.839573e+04
  -7.254512e+05  -1.076171e+06
   6.395077e+05  -1.447503e+06
   2.095537e+06  -5.005671e+05
   2.077414e+06   1.128314e+06
   3.791736e+05   2.135894e+06
  -1.463313e+06   1.693194e+06
  -1.777687e+06   2.513204e+05
  -5.648095e+05  -8.836611e+05
   6.658474e+05  -8.626259e+05
   7.258724e+05  -6.362497e+04
  -7.657637e+04   4.979192e+05
  -6.173592e+05   3.317646e+05
  -3.211081e+05  -1.147073e+05
   3.750636e+05  -9.309596e+04
   6.009943e+05   5.682964e+05
  -1.237043e+05   1.214339e+06
  -1.408585e+06   9.495152e+05
  -2.160517e+06  -4.280478e+05
  -1.500170e+06  -2.024639e+06
   2.511010e+05  -2.544951e+06
   1.717160e+06  -1.546734e+06
   1.856001e+06   8.193100e+04
   1.018389e+06   1.035513e+06
   3.548766e+05   8.930009e+05
   3.783745e+05   3.543008e+05
   5.232007e+05   2.749239e+05
   7.504648e+04   7.098987e+05
  -8.795597e+05   9.581206e+05
  -1.542584e+06   3.958092e+05
  -1.183755e+06  -7.919124e+05
   2.165811e+05  -1.633943e+06
   1.822147e+06  -1.183018e+06
   2.387362e+06   5.036470e+05
   1.231044e+06   2.182611e+06
  -9.721275e+05   2.457754e+06
  -2.589282e+06   1.131643e+06
  -2.504821e+06  -6.017668e+05
  -1.138561e+06  -1.409779e+06
   1.490956e+05  -1.120282e+06
   5.102990e+05  -6.428413e+05
   2.551752e+05  -7.589711e+05
   1.958205e+05  -1.253206e+06
   6.775378e+05  -1.261469e+06
   1.297552e+06  -2.979259e+05
   1.359203e+06   1.149444e+06
   5.478988e+05   1.988536e+06
  -6.787617e+05   1.492994e+06
  -1.354308e+06   5.947005e+03
  -8.683593e+05  -1.299656e+06
   3.397296e+05  -1.450255e+06
   1.130144e+06  -5.141539e+05
   8.382329e+05   5.874064e+05
  -3.142704e+04   1.045619e+06
  -4.399246e+05   8.374681e+05
  -4.402921e+04   4.889529e+05
   4.229098e+05   3.814336e+05
   4.218943e+04   4.112903e+05
  -1.157042e+06   2.279357e+05
  -2.088724e+06  -3.357151e+05
  -1.679557e+06  -1.053134e+06
  -2.933311e+04  -1.442490e+06
   1.574805e+06  -1.154531e+06
   1.884616e+06  -3.319963e+05
   9.018284e+05   4.206693e+05
  -2.327112e+05   5.449869e+05
  -5.090833e+05   7.515907e+04
  -5.813552e+00  -3.747474e+05
   4.975095e+05  -2.438938e+05
   4.864071e+05   3.634999e+05
   1.783033e+05   7.741954e+05
   2.264704e+04   5.014680e+05
   1.569810e+05  -1.497819e+05
   3.585354e+05  -3.638565e+05
   3.005886e+05   2.379058e+05
  -1.976637e+05   1.052271e+06
  -9.456551e+05   1.089903e+06
  -1.331581e+06   1.246585e+05
  -7.911383e+05  -9.608271e+05
   4.408858e+05  -1.114930e+06
   1.261268e+06  -2.697837e+05
   7.469305e+05   6.304115e+05
  -7.227930e+05   6.871635e+05
  -1.697100e+06  -7.767591e+04
  -1.144760e+06  -9.018096e+05
   4.485908e+05  -1.098026e+06
   1.602810e+06  -5.891120e+05
   1.361429e+06   1.632382e+05
   1.722710e+05   5.608806e+05
  -6.774942e+05   3.113733e+05
  -3.776127e+05  -2.873182e+05
   6.501133e+05  -5.028235e+05
   1.227794e+06   1.515021e+05
   6.227224e+05   1.268480e+06
  -7.128510e+05   1.745408e+06
  -1.600646e+06   8.602312e+05
  -1.304222e+06  -8.383574e+05
  -1.789220e+05  -1.902820e+06
   8.005556e+05  -1.390347e+06
   9.891501e+05   1.551740e+05
   4.855124e+05   1.259130e+06
  -1.889668e+05   1.056355e+06
  -5.783648e+05   1.076692e+05
  -5.274147e+05  -4.172867e+05
  -2.153586e+05  -1.659676e+05
  -3.611290e+04   1.158206e+05
  -2.282467e+05  -2.771341e+05
  -5.016064e+05  -1.009038e+06
  -2.419070e+05  -1.154760e+06
   6.961614e+05  -4.233293e+05
   1.558289e+06   5.114306e+05
   1.390785e+06   9.031517e+05
   1.935698e+05   7.284662e+05
  -9.487074e+05   4.219166e+05
  -1.058135e+06   1.949776e+05
  -3.450329e+05  -3.074026e+04
   1.730235e+05  -2.296725e+05
  -8.462973e+03  -2.462339e+05
  -3.292571e+05  -1.375670e+05
  -3.013243e+04  -1.422931e+05
   7.557678e+05  -2.130797e+05
   1.093434e+06   4.312148e+04
   3.681546e+05   7.188220e+05
  -9.506990e+05   1.190245e+06
  -1.761046e+06   7.348627e+05
  -1.411016e+06  -4.988917e+05
  -2.465145e+05  -1.490968e+06
   8.129130e+05  -1.419799e+06
   1.108211e+06  -5.154733e+05
   6.906943e+05   2.836177e+05
   1.135020e+05   3.761740e+05
  -1.157716e+05   3.484562e+04
   7.276191e+04  -5.200076e+04
   3.352992e+05   3.787483e+05
   2.676563e+05   8.559774e+05
  -2.080379e+05   7.003298e+05
  -7.211239e+05  -1.712781e+05
  -7.311702e+05  -1.041138e+06
  -5.442788e+04  -1.076360e+06
   8.193659e+05  -2.018256e+05
   1.058403e+06   8.134858e+05
   3.201712e+05   1.145736e+06
  -7.643156e+05   6.674013e+05
  -1.151539e+06  -1.064552e+05
  -5.270018e+05  -6.188526e+05
   3.049772e+05  -6.682029e+05
   3.668173e+05  -3.751503e+05
  -2.986573e+05  -3.308897e+04
  -6.936595e+05   2.374950e+04
  -1.363364e+05  -3.169665e+05
   8.792416e+05  -7.068257e+05
   1.301573e+06  -5.824098e+05
   7.622595e+05   1.627458e+05
  -1.166314e+05   8.964602e+05
  -5.573406e+05   8.791184e+05
  -4.075606e+05   1.390924e+05
  -2.653969e+04  -5.188353e+05
   2.634375e+05  -4.320397e+05
   3.666074e+05   1.952871e+05
   2.526750e+05   6.117732e+05
  -6.808124e+04   4.154819e+05
  -4.073337e+05  -6.811746e+04
  -4.861076e+05  -2.766960e+05
  -2.554231e+05  -8.321989e+04
   1.903433e+04   1.291268e+05
   9.171252e+04  -9.931096e+03
   4.360779e+04  -3.892193e+05
   1.254292e+05  -5.322299e+05
   3.539558e+05  -1.591883e+05
   4.255784e+05   4.421796e+05
   9.293706e+04   6.824197e+05
  -4.498180e+05   3.055331e+05
  -6.688440e+05  -3.244582e+05
  -2.390066e+05  -6.188885e+05
   5.283477e+05  -3.725750e+05
   9.048699e+05   1.061740e+05
   4.876341e+05   4.042074e+05
  -3.122800e+05   3.907104e+05
  -6.628656e+05   1.995808e+05
  -2.363313e+05   1.286325e+04
   3.994030e+05  -3.518599e+04
   4.381416e+05   1.127140e+05
  -2.140828e+05   3.229858e+05
  -8.354429e+05   2.673417e+05
