
 $NMID
 id='ANONYMOUS ', fmtdat='(2E16.6)'
 volume=1.0
 tramp=1.0
 $END
  -1.790218e+07  -2.779238e+05
  -1.092871e+07  -1.041203e+07
   1.834459e+06  -1.181207e+07
   8.477951e+06  -5.406727e+06
   5.563227e+06   1.357489e+06
  -6.223535e+05   3.011967e+06
  -3.238362e+06   2.102656e+05
  -1.421264e+06  -3.008845e+06
   1.618673e+06  -3.540075e+06
   3.141687e+06  -1.095685e+06
   2.427934e+06   2.098969e+06
   2.845097e+05   3.067054e+06
  -1.428894e+06   8.468517e+05
  -1.016337e+06  -2.162481e+06
   1.150508e+06  -2.563575e+06
   2.647696e+06   2.106219e+05
   1.633770e+06   3.348645e+06
  -1.127361e+06   3.967371e+06
  -3.319178e+06   1.921399e+06
  -3.465526e+06  -8.268392e+05
  -1.884297e+06  -2.474955e+06
  -1.592849e+04  -2.527911e+06
   7.067875e+05  -1.634724e+06
  -2.473930e+01  -9.754418e+05
  -7.740668e+05  -1.264141e+06
   8.350631e+04  -1.885285e+06
   2.337989e+06  -1.510252e+06
   3.654836e+06   1.164953e+05
   2.378768e+06   1.642211e+06
  -2.688035e+05   1.744944e+06
  -1.663371e+06   6.543808e+05
  -8.807121e+05  -4.161711e+05
   6.787794e+05  -6.812332e+05
   1.376879e+06  -1.013883e+05
   9.198648e+05   9.665956e+05
  -4.536915e+04   1.718873e+06
  -8.086341e+05   1.214292e+06
  -8.710535e+05  -3.400932e+05
  -2.348194e+05  -1.224925e+06
   3.070533e+05  -2.625718e+05
  -7.730652e+04   1.232501e+06
  -9.631032e+05   9.678635e+05
  -9.198945e+05  -9.882580e+05
   5.288114e+05  -1.991733e+06
   1.936412e+06  -3.962713e+05
   1.559109e+06   2.107195e+06
  -5.064903e+05   2.665578e+06
  -2.416352e+06   7.732139e+05
  -2.539310e+06  -1.497888e+06
  -8.716727e+05  -2.169553e+06
   1.198780e+06  -1.149180e+06
   2.063129e+06   3.586288e+05
   1.109679e+06   1.172896e+06
  -6.866289e+05   8.337822e+05
  -1.552582e+06  -1.965774e+05
  -7.541206e+05  -8.465691e+05
   5.422055e+05  -4.767923e+05
   7.174068e+05   3.268925e+05
  -2.485535e+05   4.605281e+05
  -8.539881e+05  -2.549400e+05
  -1.198836e+05  -8.978207e+05
   1.212788e+06  -6.898397e+05
   1.716425e+06   2.120233e+05
   8.652855e+05   1.211800e+06
  -7.081806e+05   1.851483e+06
  -2.003645e+06   1.707384e+06
  -2.311703e+06   4.915393e+05
  -1.519168e+06  -1.269797e+06
  -2.429742e+05  -2.277554e+06
   5.600496e+05  -1.815843e+06
   5.110302e+05  -6.902005e+05
   1.978595e+05  -2.016127e+05
   3.681402e+05  -4.790037e+05
   9.470472e+05  -5.239332e+05
   1.202156e+06   2.116539e+05
   7.152640e+05   1.040237e+06
  -1.807823e+05   9.982458e+05
  -8.268541e+05   4.244984e+04
  -7.587601e+05  -9.837850e+05
   6.603815e+04  -1.241771e+06
   1.151340e+06  -5.440266e+05
   1.636177e+06   6.086431e+05
   1.043310e+06   1.419025e+06
  -9.336639e+04   1.415233e+06
  -7.591272e+05   8.591256e+05
  -6.912307e+05   4.149053e+05
  -6.302797e+05   3.518768e+05
  -1.157536e+06   2.802497e+05
  -1.754507e+06  -2.434346e+05
  -1.436219e+06  -1.093848e+06
  -7.297354e+04  -1.702597e+06
   1.356392e+06  -1.613041e+06
   1.791071e+06  -8.052767e+05
   1.081365e+06   2.904204e+05
  -9.883114e+03   9.708487e+05
  -5.545220e+05   7.528864e+05
  -2.226027e+05  -5.527584e+04
   4.877387e+05  -5.239894e+05
   7.607907e+05  -1.505687e+05
   3.245848e+05   4.808227e+05
  -2.512390e+05   4.698319e+05
  -2.491755e+05  -1.422709e+05
   3.199889e+05  -3.983123e+05
   7.536946e+05   2.683912e+05
   4.923263e+05   1.253340e+06
  -3.386045e+05   1.518240e+06
  -1.176244e+06   7.590854e+05
  -1.513587e+06  -4.094719e+05
  -1.141176e+06  -1.176699e+06
  -2.523114e+05  -1.180450e+06
   5.546371e+05  -6.281240e+05
   6.879788e+05  -7.144935e+04
   2.078994e+05   1.909994e+04
  -1.530558e+05  -3.109273e+05
   1.446364e+05  -5.286532e+05
   7.397946e+05  -2.371889e+05
   8.215899e+05   3.170339e+05
   1.890662e+05   5.479346e+05
  -4.717501e+05   2.553656e+05
  -4.131819e+05  -1.798824e+05
   3.209502e+05  -2.861226e+05
   9.703356e+05   4.218486e+04
   8.427376e+05   5.599828e+05
  -4.249586e+04   8.985078e+05
  -9.761234e+05   7.566488e+05
  -1.176561e+06   1.374521e+05
  -5.063500e+05  -5.032942e+05
   3.653976e+05  -5.880641e+05
   6.046046e+05  -6.943091e+04
   5.802363e+04   4.260526e+05
  -6.244434e+05   2.999412e+05
  -7.247579e+05  -3.009628e+05
  -1.891021e+05  -6.843787e+05
   4.155475e+05  -4.551799e+05
   5.377213e+05   7.148353e+04
   1.447611e+05   3.046192e+05
  -3.046905e+05   2.926717e+04
  -2.950661e+05  -4.344906e+05
   2.550086e+05  -5.887394e+05
   8.481295e+05  -2.108654e+05
   8.467018e+05   4.494042e+05
   1.616048e+05   8.635333e+05
  -5.858495e+05   6.901458e+05
  -7.169787e+05   1.090433e+05
  -2.314126e+05  -3.518360e+05
   2.630672e+05  -3.494934e+05
   2.906188e+05  -3.321115e+04
  -2.550816e+04   1.942633e+05
  -2.400954e+05   1.363366e+05
  -1.258238e+05  -3.606764e+04
   1.476327e+05  -2.957393e+04
   2.381082e+05   2.299498e+05
  -4.985291e+04   4.891039e+05
  -5.673198e+05   3.873348e+05
  -8.758629e+05  -1.659902e+05
  -6.152988e+05  -8.148348e+05
   8.948367e+04  -1.031616e+06
   6.838593e+05  -6.330670e+05
   7.471716e+05   2.194767e+04
   4.191571e+05   4.066730e+05
   1.575784e+05   3.540108e+05
   1.637566e+05   1.449363e+05
   2.136368e+05   1.176253e+05
   2.891039e+04   2.915360e+05
  -3.538506e+05   3.897454e+05
  -6.210084e+05   1.650704e+05
  -4.820219e+05  -3.127879e+05
   7.846708e+04  -6.580896e+05
   7.303710e+05  -4.847238e+05
   9.669746e+05   1.932925e+05
   5.044906e+05   8.759330e+05
  -3.862168e+05   9.938657e+05
  -1.041558e+06   4.635772e+05
  -1.010123e+06  -2.325494e+05
  -4.635406e+05  -5.581003e+05
   5.089306e+04  -4.470786e+05
   1.959358e+05  -2.643733e+05
   9.697712e+04  -3.172761e+05
   7.693425e+04  -5.151167e+05
   2.733243e+05  -5.143884e+05
   5.266974e+05  -1.242516e+05
   5.565687e+05   4.606111e+05
   2.312092e+05   8.033502e+05
  -2.677741e+05   6.082181e+05
  -5.465935e+05   8.366704e+03
  -3.537097e+05  -5.220652e+05
   1.336385e+05  -5.846983e+05
   4.525382e+05  -2.058129e+05
   3.344121e+05   2.385913e+05
  -1.517812e+04   4.202042e+05
  -1.767538e+05   3.335222e+05
  -1.388684e+04   1.941229e+05
   1.754583e+05   1.538984e+05
   1.971146e+04   1.676649e+05
  -4.685977e+05   9.427823e+04
  -8.480898e+05  -1.319025e+05
  -6.822798e+05  -4.208505e+05
  -1.247893e+04  -5.808691e+05
   6.367057e+05  -4.696068e+05
   7.593479e+05  -1.395711e+05
   3.603895e+05   1.671903e+05
  -9.583902e+04   2.207736e+05
  -2.044574e+05   2.992700e+04
   1.051535e+03  -1.559807e+05
   2.012108e+05  -1.041702e+05
   1.997775e+05   1.459244e+05
   7.919379e+04   3.174087e+05
   1.369489e+04   2.073046e+05
   6.014025e+04  -6.064738e+04
   1.388284e+05  -1.501832e+05
   1.216354e+05   9.565853e+04
  -7.408344e+04   4.294308e+05
  -3.803588e+05   4.453587e+05
  -5.445937e+05   5.137167e+04
  -3.270401e+05  -3.916185e+05
   1.783798e+05  -4.556509e+05
   5.161010e+05  -1.136706e+05
   3.076104e+05   2.524590e+05
  -2.895907e+05   2.804505e+05
  -6.851519e+05  -2.287063e+04
  -4.644031e+05  -3.551323e+05
   1.752035e+05  -4.413032e+05
   6.402037e+05  -2.444494e+05
   5.472918e+05   5.748753e+04
   7.239682e+04   2.236384e+05
  -2.708858e+05   1.276311e+05
  -1.531634e+05  -1.166687e+05
   2.625591e+05  -2.095356e+05
   5.018149e+05   5.490668e+04
   2.618160e+05   5.147809e+05
  -2.804531e+05   7.168605e+05
  -6.471949e+05   3.603961e+05
  -5.350495e+05  -3.330940e+05
  -8.335260e+04  -7.710520e+05
   3.152881e+05  -5.667396e+05
   3.984522e+05   5.854346e+04
   2.010492e+05   5.051098e+05
  -7.102986e+04   4.238920e+05
  -2.326313e+05   4.420536e+04
  -2.150210e+05  -1.634244e+05
  -8.756786e+04  -6.242378e+04
  -1.342442e+04   4.551614e+04
  -9.347607e+04  -1.167550e+05
  -2.080777e+05  -4.085034e+05
  -1.030252e+05  -4.624237e+05
   2.811126e+05  -1.702398e+05
   6.341195e+05   1.987122e+05
   5.668055e+05   3.554717e+05
   8.104666e+04   2.943994e+05
  -3.816852e+05   1.793221e+05
  -4.263218e+05   8.499676e+04
  -1.393114e+05  -1.438747e+04
   6.864221e+04  -9.551478e+04
  -5.086894e+03  -9.534241e+04
  -1.345279e+05  -4.931512e+04
  -1.352847e+04  -5.907333e+04
   3.053720e+05  -9.511705e+04
   4.452348e+05   1.215959e+04
   1.547829e+05   2.961907e+05
  -3.806182e+05   4.927605e+05
  -7.152672e+05   3.056028e+05
  -5.798315e+05  -1.995815e+05
  -1.089257e+05  -6.054042e+05
   3.249355e+05  -5.798232e+05
   4.502394e+05  -2.156204e+05
   2.836471e+05   1.103249e+05
   4.837085e+04   1.538919e+05
  -4.778398e+04   1.916666e+04
   2.710925e+04  -1.894361e+04
   1.358187e+05   1.507319e+05
   1.120194e+05   3.443107e+05
  -8.139957e+04   2.862764e+05
  -2.957680e+05  -6.399362e+04
  -3.057079e+05  -4.201124e+05
  -2.909394e+04  -4.412834e+05
   3.344187e+05  -9.022022e+04
   4.381134e+05   3.246857e+05
   1.367505e+05   4.664121e+05
  -3.097511e+05   2.768164e+05
  -4.701867e+05  -3.900061e+04
  -2.152431e+05  -2.521382e+05
   1.243548e+05  -2.740113e+05
   1.492487e+05  -1.510892e+05
  -1.215200e+05  -7.709020e+03
  -2.818878e+05   1.424643e+04
  -5.681685e+04  -1.296579e+05
   3.529780e+05  -2.913008e+05
   5.242116e+05  -2.389321e+05
   3.091407e+05   6.694320e+04
  -4.403352e+04   3.656045e+05
  -2.247046e+05   3.574140e+05
  -1.690111e+05   5.609562e+04
  -1.571536e+04  -2.119385e+05
   1.065390e+05  -1.783726e+05
   1.530714e+05   7.592781e+04
   1.060889e+05   2.477155e+05
  -2.810833e+04   1.712580e+05
  -1.672648e+05  -2.509886e+04
  -1.971203e+05  -1.119583e+05
  -1.022396e+05  -3.338990e+04
   6.526855e+03   5.502524e+04
   3.201353e+04  -2.222887e+03
   1.173160e+04  -1.618961e+05
   4.901450e+04  -2.247362e+05
   1.479905e+05  -7.109816e+04
   1.808919e+05   1.800886e+05
   4.423625e+04   2.823342e+05
  -1.821458e+05   1.287844e+05
  -2.765338e+05  -1.297126e+05
  -1.022482e+05  -2.513997e+05
   2.137323e+05  -1.532926e+05
   3.704989e+05   3.984883e+04
   2.006947e+05   1.626607e+05
  -1.272658e+05   1.613998e+05
  -2.716382e+05   8.498773e+04
  -9.765235e+04   4.211770e+03
   1.630639e+05  -2.106872e+04
   1.816123e+05   4.046512e+04
  -8.181897e+04   1.342740e+05
  -3.361087e+05   1.178280e+05
