
 $NMID
 id='ANONYMOUS ', fmtdat='(2E16.6)'
 volume=1.0
 tramp=1.0
 $END
  -3.997310e+07   2.670742e+05
  -2.537610e+07  -2.253794e+07
   3.152076e+06  -2.664796e+07
   1.889844e+07  -1.293190e+07
   1.298586e+07   2.580526e+06
  -1.138655e+06   6.964888e+06
  -7.554785e+06   7.812971e+05
  -3.560805e+06  -6.876024e+06
   3.581123e+06  -8.363932e+06
   7.204422e+06  -2.736152e+06
   5.542669e+06   4.711826e+06
   6.399319e+05   6.966757e+06
  -3.205700e+06   1.866643e+06
  -2.257293e+06  -5.038384e+06
   2.637097e+06  -5.996557e+06
   6.079286e+06   3.135390e+05
   3.871835e+06   7.526493e+06
  -2.357363e+06   9.031202e+06
  -7.351405e+06   4.443036e+06
  -7.712639e+06  -1.726340e+06
  -4.223133e+06  -5.359142e+06
  -1.944319e+05  -5.477232e+06
   1.289153e+06  -3.674173e+06
  -2.187824e+05  -2.461496e+06
  -1.715166e+06  -3.164461e+06
   3.756912e+05  -4.356263e+06
   5.425037e+06  -3.287188e+06
   8.282253e+06   4.183236e+05
   5.311060e+06   3.740558e+06
  -7.150990e+05   3.824398e+06
  -3.810480e+06   1.278556e+06
  -1.851366e+06  -1.087639e+06
   1.823157e+06  -1.492959e+06
   3.281082e+06  -4.200805e+03
   1.958843e+06   2.377506e+06
  -3.105292e+05   3.880412e+06
  -1.815035e+06   2.639459e+06
  -1.765136e+06  -7.623302e+05
  -4.422942e+05  -2.621533e+06
   5.470393e+05  -4.545474e+05
  -3.636444e+05   2.843260e+06
  -2.261125e+06   2.224876e+06
  -2.166188e+06  -2.215525e+06
   1.012767e+06  -4.610502e+06
   4.252231e+06  -1.136016e+06
   3.627495e+06   4.575945e+06
  -9.281155e+05   6.032081e+06
  -5.390518e+06   1.847810e+06
  -5.854180e+06  -3.382054e+06
  -2.065436e+06  -5.017787e+06
   2.780483e+06  -2.695051e+06
   4.829018e+06   8.167960e+05
   2.624941e+06   2.730813e+06
  -1.538914e+06   1.976310e+06
  -3.569038e+06  -3.832593e+05
  -1.773106e+06  -1.911786e+06
   1.216930e+06  -1.109306e+06
   1.676553e+06   7.695520e+05
  -5.546190e+05   1.176135e+06
  -2.078840e+06  -4.552255e+05
  -5.026079e+05  -2.077508e+06
   2.626721e+06  -1.752788e+06
   3.952764e+06   3.165175e+05
   2.069126e+06   2.697089e+06
  -1.595526e+06   4.181813e+06
  -4.590622e+06   3.813557e+06
  -5.230498e+06   1.063104e+06
  -3.375373e+06  -2.871800e+06
  -5.120089e+05  -5.162263e+06
   1.270274e+06  -4.202084e+06
   1.208594e+06  -1.688292e+06
   5.880470e+05  -4.956664e+05
   9.918289e+05  -9.984919e+05
   2.227129e+06  -1.033555e+06
   2.694308e+06   6.364497e+05
   1.502164e+06   2.472493e+06
  -5.567307e+05   2.276792e+06
  -1.960947e+06  -1.342904e+04
  -1.693085e+06  -2.374688e+06
   2.383214e+05  -2.862715e+06
   2.650791e+06  -1.168846e+06
   3.668677e+06   1.442803e+06
   2.320568e+06   3.197654e+06
  -1.876432e+05   3.154529e+06
  -1.653177e+06   1.944010e+06
  -1.530645e+06   9.938847e+05
  -1.459342e+06   8.529221e+05
  -2.704842e+06   6.491083e+05
  -4.068859e+06  -5.948908e+05
  -3.300579e+06  -2.573498e+06
  -1.096329e+05  -3.955339e+06
   3.213744e+06  -3.677765e+06
   4.176097e+06  -1.753214e+06
   2.450941e+06   7.473148e+05
  -1.138965e+05   2.223697e+06
  -1.331582e+06   1.671719e+06
  -4.981302e+05  -1.524984e+05
   1.161359e+06  -1.179272e+06
   1.762015e+06  -3.181889e+05
   7.200256e+05   1.108936e+06
  -6.240065e+05   1.066871e+06
  -6.034201e+05  -3.661554e+05
   7.656507e+05  -9.879790e+05
   1.829605e+06   5.719365e+05
   1.220965e+06   2.948232e+06
  -7.933873e+05   3.643646e+06
  -2.822554e+06   1.838857e+06
  -3.592217e+06  -1.002832e+06
  -2.639742e+06  -2.847603e+06
  -5.229949e+05  -2.795008e+06
   1.326553e+06  -1.424881e+06
   1.596770e+06  -1.179732e+05
   4.801051e+05   5.452385e+04
  -3.451428e+05  -7.308946e+05
   3.410395e+05  -1.225212e+06
   1.713500e+06  -5.373963e+05
   1.906312e+06   7.513133e+05
   4.350592e+05   1.284107e+06
  -1.114863e+06   5.862408e+05
  -9.742019e+05  -4.511608e+05
   7.698099e+05  -6.908268e+05
   2.302827e+06   1.261808e+05
   1.971874e+06   1.371255e+06
  -1.427290e+05   2.128721e+06
  -2.322983e+06   1.731553e+06
  -2.748457e+06   2.690897e+05
  -1.159443e+06  -1.182997e+06
   8.566732e+05  -1.343877e+06
   1.390037e+06  -1.458259e+05
   1.161652e+05   9.783438e+05
  -1.459499e+06   6.715557e+05
  -1.681779e+06  -7.260260e+05
  -4.240366e+05  -1.614160e+06
   9.930963e+05  -1.067047e+06
   1.273075e+06   1.799606e+05
   3.420977e+05   7.285459e+05
  -7.088464e+05   7.231274e+04
  -6.729795e+05  -1.014690e+06
   6.132378e+05  -1.353990e+06
   1.973576e+06  -4.521988e+05
   1.943093e+06   1.076812e+06
   3.417949e+05   2.009837e+06
  -1.384922e+06   1.583213e+06
  -1.673793e+06   2.276906e+05
  -5.293184e+05  -8.348083e+05
   6.314226e+05  -8.097814e+05
   6.878328e+05  -5.209445e+04
  -7.526205e+04   4.782642e+05
  -5.939792e+05   3.135652e+05
  -3.142629e+05  -1.188140e+05
   3.516186e+05  -1.003325e+05
   5.699371e+05   5.307959e+05
  -1.171046e+05   1.142760e+06
  -1.329877e+06   8.862448e+05
  -2.029619e+06  -4.166283e+05
  -1.396231e+06  -1.914326e+06
   2.557029e+05  -2.394019e+06
   1.630735e+06  -1.448628e+06
   1.754380e+06   8.844360e+04
   9.577998e+05   9.921553e+05
   3.238331e+05   8.590950e+05
   3.414475e+05   3.418622e+05
   4.823546e+05   2.547753e+05
   6.683827e+04   6.616012e+05
  -8.321193e+05   8.981126e+05
  -1.458298e+06   3.655085e+05
  -1.114214e+06  -7.584961e+05
   2.145700e+05  -1.545704e+06
   1.726408e+06  -1.105179e+06
   2.246495e+06   4.910478e+05
   1.147770e+06   2.062977e+06
  -9.249370e+05   2.307987e+06
  -2.441172e+06   1.053606e+06
  -2.359548e+06  -5.781024e+05
  -1.072203e+06  -1.339265e+06
   1.466505e+05  -1.065054e+06
   4.953558e+05  -6.068295e+05
   2.573299e+05  -7.056908e+05
   1.961152e+05  -1.167415e+06
   6.421303e+05  -1.177075e+06
   1.218255e+06  -2.705612e+05
   1.268044e+06   1.091482e+06
   4.994513e+05   1.874993e+06
  -6.508458e+05   1.399124e+06
  -1.275753e+06  -3.225885e+03
  -8.111653e+05  -1.226549e+06
   3.241940e+05  -1.363981e+06
   1.063392e+06  -4.854370e+05
   7.882762e+05   5.477256e+05
  -2.716552e+04   9.808329e+05
  -4.112617e+05   7.901760e+05
  -4.291481e+04   4.652341e+05
   3.923297e+05   3.633227e+05
   3.506799e+04   3.876132e+05
  -1.087532e+06   2.085602e+05
  -1.958890e+06  -3.273391e+05
  -1.573733e+06  -9.999883e+05
  -2.467049e+04  -1.355515e+06
   1.482449e+06  -1.075598e+06
   1.775005e+06  -3.037371e+05
   8.509989e+05   3.956552e+05
  -2.182688e+05   5.087442e+05
  -4.788516e+05   7.104763e+04
   3.125723e+03  -3.468205e+05
   4.718096e+05  -2.231453e+05
   4.538270e+05   3.454264e+05
   1.552944e+05   7.287990e+05
   1.185839e+04   4.699215e+05
   1.512771e+05  -1.434349e+05
   3.467608e+05  -3.425901e+05
   2.824086e+05   2.259404e+05
  -1.977239e+05   9.892077e+05
  -8.971925e+05   1.017237e+06
  -1.245161e+06   1.063089e+05
  -7.300325e+05  -9.071799e+05
   4.209017e+05  -1.040100e+06
   1.182227e+06  -2.402599e+05
   6.961175e+05   6.003379e+05
  -6.843329e+05   6.428996e+05
  -1.600359e+06  -8.388886e+04
  -1.078824e+06  -8.592390e+05
   4.269241e+05  -1.037276e+06
   1.518076e+06  -5.497158e+05
   1.287197e+06   1.620486e+05
   1.602492e+05   5.319073e+05
  -6.405040e+05   2.909783e+05
  -3.520589e+05  -2.705646e+05
   6.171157e+05  -4.639587e+05
   1.151533e+06   1.563502e+05
   5.695195e+05   1.198353e+06
  -6.899660e+05   1.631539e+06
  -1.514291e+06   7.912186e+05
  -1.219229e+06  -8.015886e+05
  -1.515087e+05  -1.793256e+06
   7.662749e+05  -1.305214e+06
   9.325645e+05   1.508548e+05
   4.509643e+05   1.190367e+06
  -1.827380e+05   9.978860e+05
  -5.447643e+05   9.947562e+04
  -4.963220e+05  -3.995512e+05
  -2.047973e+05  -1.610852e+05
  -3.396257e+04   1.106857e+05
  -2.081035e+05  -2.573271e+05
  -4.623463e+05  -9.517023e+05
  -2.227832e+05  -1.092093e+06
   6.535891e+05  -3.962750e+05
   1.463425e+06   4.946487e+05
   1.306416e+06   8.635901e+05
   1.772783e+05   6.865647e+05
  -9.002643e+05   3.870490e+05
  -9.998204e+05   1.757057e+05
  -3.222156e+05  -2.780231e+04
   1.661361e+05  -2.135942e+05
  -9.599179e+03  -2.363831e+05
  -3.125585e+05  -1.372715e+05
  -2.503204e+04  -1.335711e+05
   7.175781e+05  -1.896959e+05
   1.027166e+06   5.115209e+04
   3.331708e+05   6.752809e+05
  -9.081887e+05   1.106504e+06
  -1.658128e+06   6.740894e+05
  -1.315674e+06  -4.816121e+05
  -2.166451e+05  -1.404908e+06
   7.749699e+05  -1.327719e+06
   1.045445e+06  -4.719782e+05
   6.468300e+05   2.759855e+05
   1.013749e+05   3.538245e+05
  -1.122547e+05   2.682154e+04
   6.881419e+04  -5.245579e+04
   3.152318e+05   3.587685e+05
   2.464553e+05   8.085289e+05
  -2.023574e+05   6.555159e+05
  -6.763851e+05  -1.712714e+05
  -6.742577e+05  -9.878649e+05
  -3.649753e+04  -1.010063e+06
   7.734411e+05  -1.765729e+05
   9.849091e+05   7.783228e+05
   2.879708e+05   1.078950e+06
  -7.240908e+05   6.171118e+05
  -1.079286e+06  -1.106719e+05
  -4.889870e+05  -5.822804e+05
   2.905062e+05  -6.216273e+05
   3.439509e+05  -3.503902e+05
  -2.842566e+05  -3.741025e+04
  -6.535701e+05   1.496810e+04
  -1.243050e+05  -2.978525e+05
   8.336315e+05  -6.577551e+05
   1.227277e+06  -5.413483e+05
   7.127910e+05   1.544452e+05
  -1.172753e+05   8.403381e+05
  -5.274463e+05   8.219483e+05
  -3.788365e+05   1.259934e+05
  -1.721140e+04  -4.890637e+05
   2.514318e+05  -4.013008e+05
   3.416174e+05   1.909936e+05
   2.315146e+05   5.775992e+05
  -6.722619e+04   3.861415e+05
  -3.816027e+05  -6.938055e+04
  -4.546151e+05  -2.612601e+05
  -2.405701e+05  -7.808262e+04
   1.612752e+04   1.176527e+05
   8.913560e+04  -1.495638e+04
   5.113426e+04  -3.658289e+05
   1.286412e+05  -4.916941e+05
   3.336689e+05  -1.382074e+05
   3.889513e+05   4.221476e+05
   7.392803e+04   6.402336e+05
  -4.270106e+05   2.804427e+05
  -6.223293e+05  -3.127150e+05
  -2.164338e+05  -5.849837e+05
   4.988713e+05  -3.455840e+05
   8.469677e+05   1.088272e+05
   4.537491e+05   3.841873e+05
  -2.959477e+05   3.616538e+05
  -6.225794e+05   1.784888e+05
  -2.189824e+05   1.069122e+04
   3.789514e+05  -2.429342e+04
   4.108217e+05   1.152461e+05
  -2.090797e+05   3.029230e+05
  -7.940557e+05   2.410569e+05
