
 $NMID
 id='ANONYMOUS ', fmtdat='(2E16.6)'
 volume=1.0
 tramp=1.0
 $END
  -2.618979e+07   1.674892e+06
  -1.899867e+07  -1.090125e+07
  -1.623535e+06  -1.687419e+07
   1.092799e+07  -1.249780e+07
   1.023807e+07  -2.079199e+06
   1.153064e+06   5.002315e+06
  -5.633989e+06   3.049240e+06
  -4.730657e+06  -4.231678e+06
   8.702340e+05  -7.945342e+06
   5.061404e+06  -3.849887e+06
   4.591323e+06   3.330148e+06
   7.528046e+05   5.744474e+06
  -2.571542e+06   1.224930e+06
  -2.232867e+06  -4.850836e+06
   1.430288e+06  -5.878053e+06
   4.640850e+06  -8.769892e+05
   3.765995e+06   5.179515e+06
  -8.012295e+05   6.886628e+06
  -4.935527e+06   3.479618e+06
  -5.182224e+06  -1.293225e+06
  -2.256915e+06  -3.492465e+06
   1.774251e+05  -2.686138e+06
  -2.980993e+05  -1.530865e+06
  -2.379203e+06  -2.276785e+06
  -2.603231e+06  -4.242461e+06
   8.173208e+05  -4.836462e+06
   5.668390e+06  -2.631231e+06
   7.468063e+06   1.034408e+06
   4.064295e+06   3.414248e+06
  -1.592370e+06   2.900913e+06
  -4.121416e+06   2.516989e+05
  -1.440235e+06  -2.181562e+06
   3.037849e+06  -2.258226e+06
   4.478938e+06   2.864231e+05
   1.986729e+06   3.370617e+06
  -1.146755e+06   4.114660e+06
  -1.868935e+06   1.680186e+06
  -4.867917e+05  -1.439293e+06
   7.074772e+05  -1.811078e+06
   3.971711e+05   9.511688e+05
  -9.370584e+05   3.433899e+06
  -2.100577e+06   2.367789e+06
  -2.072194e+06  -1.295557e+06
  -4.609562e+05  -3.363843e+06
   1.791813e+06  -1.395243e+06
   2.476029e+06   2.431741e+06
   1.482498e+05   3.927719e+06
  -3.642488e+06   1.549392e+06
  -5.219013e+06  -2.309628e+06
  -2.582918e+06  -4.204260e+06
   2.132129e+06  -2.927947e+06
   4.685426e+06  -3.634937e+04
   3.062356e+06   2.011950e+06
  -6.822196e+05   1.903030e+06
  -2.823989e+06   2.470988e+05
  -1.752660e+06  -1.151680e+06
   7.540924e+05  -9.492516e+05
   1.732184e+06   4.852201e+05
   2.323334e+05   1.484531e+06
  -1.767380e+06   8.680932e+05
  -1.659185e+06  -7.859915e+05
   7.434287e+05  -1.734768e+06
   2.823466e+06  -8.027319e+05
   2.008577e+06   1.513460e+06
  -1.339981e+06   3.420035e+06
  -4.311823e+06   3.209091e+06
  -4.562025e+06   6.473605e+05
  -2.499392e+06  -2.652900e+06
  -3.068525e+05  -4.456276e+06
   5.945505e+05  -3.910317e+06
   6.335114e+05  -2.270049e+06
   9.799535e+05  -1.301858e+06
   2.001146e+06  -1.160998e+06
   2.946133e+06  -4.741308e+05
   2.787797e+06   1.416054e+06
   1.198594e+06   3.090627e+06
  -1.050511e+06   2.574126e+06
  -2.472063e+06  -1.242803e+05
  -1.914054e+06  -2.713923e+06
   3.629156e+05  -2.961443e+06
   2.645528e+06  -8.666660e+05
   3.151539e+06   1.638391e+06
   1.678883e+06   2.753461e+06
  -2.520113e+05   2.285238e+06
  -1.077160e+06   1.334655e+06
  -8.840492e+05   9.429209e+05
  -1.121184e+06   1.114017e+06
  -2.572150e+06   9.624422e+05
  -4.019789e+06  -2.870333e+05
  -3.394511e+06  -2.369362e+06
  -2.698707e+05  -3.978741e+06
   3.221299e+06  -3.788930e+06
   4.321707e+06  -1.668178e+06
   2.417017e+06   1.004742e+06
  -4.051175e+05   2.344622e+06
  -1.561430e+06   1.564595e+06
  -4.690371e+05  -2.556369e+05
   1.241630e+06  -1.163072e+06
   1.690479e+06  -3.284152e+05
   6.001960e+05   1.041671e+06
  -7.119704e+05   1.104439e+06
  -8.227775e+05  -3.230654e+05
   4.410563e+05  -1.347574e+06
   1.883607e+06  -2.008562e+05
   1.970066e+06   2.468902e+06
   1.510819e+05   4.055138e+06
  -2.520794e+06   2.776325e+06
  -4.080642e+06  -4.240062e+05
  -3.276285e+06  -2.931198e+06
  -7.607304e+05  -3.088759e+06
   1.411166e+06  -1.520925e+06
   1.691638e+06  -8.914857e+04
   4.928581e+05   4.339214e+04
  -3.816956e+05  -7.269402e+05
   2.293619e+05  -1.175763e+06
   1.569812e+06  -5.927577e+05
   1.892638e+06   5.596834e+05
   5.621955e+05   1.182274e+06
  -1.076948e+06   6.795432e+05
  -1.127932e+06  -4.149753e+05
   6.808852e+05  -9.321555e+05
   2.531961e+06  -1.876928e+05
   2.367077e+06   1.341377e+06
   7.329129e+04   2.392521e+06
  -2.356662e+06   2.006834e+06
  -2.836097e+06   4.105955e+05
  -1.206443e+06  -1.097404e+06
   7.732231e+05  -1.279312e+06
   1.271495e+06  -1.660037e+05
   7.530475e+04   9.146531e+05
  -1.436261e+06   7.020504e+05
  -1.752426e+06  -6.191971e+05
  -6.126425e+05  -1.621131e+06
   8.755493e+05  -1.254628e+06
   1.348811e+06  -1.602158e+04
   4.929352e+05   6.823473e+05
  -6.429804e+05   1.237719e+05
  -6.828706e+05  -9.898837e+05
   6.185290e+05  -1.372192e+06
   2.009223e+06  -4.707586e+05
   1.986528e+06   1.063761e+06
   4.079077e+05   2.016810e+06
  -1.313446e+06   1.656664e+06
  -1.680872e+06   3.374292e+05
  -6.220682e+05  -8.076409e+05
   5.894590e+05  -8.827624e+05
   7.749137e+05  -6.587055e+04
  -2.536003e+03   6.259355e+05
  -7.086190e+05   4.741548e+05
  -5.409844e+05  -1.550763e+05
   2.506833e+05  -3.055461e+05
   6.705096e+05   3.737401e+05
   2.737251e+04   1.148862e+06
  -1.291063e+06   9.800836e+05
  -2.087016e+06  -3.407263e+05
  -1.478952e+06  -1.904979e+06
   1.923283e+05  -2.488991e+06
   1.647964e+06  -1.635172e+06
   1.906258e+06  -3.871442e+04
   1.163735e+06   1.086645e+06
   4.001081e+05   1.103348e+06
   2.361094e+05   4.791098e+05
   3.594490e+05   1.884347e+05
   7.118032e+04   5.806873e+05
  -7.788683e+05   9.755820e+05
  -1.516151e+06   4.991219e+05
  -1.274860e+06  -7.735676e+05
   1.046873e+05  -1.718125e+06
   1.754106e+06  -1.277109e+06
   2.372890e+06   4.104377e+05
   1.315784e+06   2.059775e+06
  -7.647463e+05   2.392584e+06
  -2.390260e+06   1.241386e+06
  -2.501095e+06  -3.991306e+05
  -1.313228e+06  -1.341129e+06
   2.965734e+04  -1.246225e+06
   5.966786e+05  -7.691863e+05
   4.296084e+05  -7.097749e+05
   2.552561e+05  -1.085749e+06
   5.894216e+05  -1.141104e+06
   1.182264e+06  -2.866999e+05
   1.305136e+06   1.095414e+06
   5.511355e+05   1.918606e+06
  -6.455987e+05   1.455601e+06
  -1.323721e+06   5.784433e+04
  -9.044469e+05  -1.181271e+06
   2.017108e+05  -1.404083e+06
   9.761915e+05  -6.411245e+05
   8.182934e+05   3.733172e+05
   1.185677e+05   9.191662e+05
  -2.549208e+05   8.482961e+05
   2.678882e+04   5.397034e+05
   3.852451e+05   3.934344e+05
   2.878206e+04   4.100845e+05
  -1.061034e+06   2.664858e+05
  -1.951466e+06  -2.470158e+05
  -1.645731e+06  -9.311928e+05
  -1.560011e+05  -1.326159e+06
   1.384956e+06  -1.120426e+06
   1.778206e+06  -4.304249e+05
   9.227173e+05   2.628513e+05
  -1.600840e+05   4.742807e+05
  -4.592222e+05   1.369060e+05
   2.812517e+04  -2.834164e+05
   5.170313e+05  -2.192261e+05
   4.610010e+05   3.450396e+05
   8.870487e+04   7.679100e+05
  -5.945445e+04   4.861941e+05
   1.638148e+05  -2.128690e+05
   4.184631e+05  -4.358714e+05
   3.140477e+05   2.152247e+05
  -2.220971e+05   1.051739e+06
  -8.905646e+05   1.052768e+06
  -1.170587e+06   8.558482e+04
  -6.689095e+05  -9.140935e+05
   4.036038e+05  -9.963724e+05
   1.146278e+06  -1.924756e+05
   7.162721e+05   6.285258e+05
  -6.644347e+05   6.989641e+05
  -1.691992e+06   6.402420e+03
  -1.255801e+06  -8.357209e+05
   3.254874e+05  -1.158662e+06
   1.578612e+06  -7.350471e+05
   1.416114e+06   6.762019e+04
   2.260405e+05   5.674017e+05
  -6.433270e+05   3.613617e+05
  -3.417635e+05  -2.402155e+05
   6.658321e+05  -4.479361e+05
   1.179942e+06   2.015102e+05
   5.311753e+05   1.255213e+06
  -7.717933e+05   1.660622e+06
  -1.591023e+06   7.862348e+05
  -1.271613e+06  -8.372991e+05
  -1.817793e+05  -1.873888e+06
   7.686492e+05  -1.417629e+06
   9.892819e+05   7.911159e+04
   5.549993e+05   1.218546e+06
  -9.225952e+04   1.085571e+06
  -5.412463e+05   1.491188e+05
  -5.793078e+05  -4.184351e+05
  -2.771154e+05  -1.847623e+05
  -9.708791e+03   1.358170e+05
  -1.345071e+05  -2.163219e+05
  -4.681458e+05  -9.575380e+05
  -3.300168e+05  -1.145345e+06
   5.841461e+05  -4.430215e+05
   1.542395e+06   4.842593e+05
   1.446017e+06   8.705348e+05
   2.082390e+05   6.939667e+05
  -9.878831e+05   4.108674e+05
  -1.058193e+06   2.262732e+05
  -2.839492e+05   1.708841e+04
   1.921752e+05  -2.172957e+05
  -8.660338e+04  -2.845866e+05
  -4.032304e+05  -1.819056e+05
   2.636612e+03  -1.417314e+05
   8.233530e+05  -1.749002e+05
   1.053377e+06   6.140285e+04
   2.397149e+05   6.771360e+05
  -9.976791e+05   1.107694e+06
  -1.651681e+06   6.635627e+05
  -1.268857e+06  -5.226884e+05
  -2.103858e+05  -1.463437e+06
   7.632560e+05  -1.357802e+06
   1.072246e+06  -4.477798e+05
   6.822455e+05   3.217357e+05
   7.536566e+04   3.623195e+05
  -1.816655e+05  -1.914699e+04
   4.712667e+04  -1.086538e+05
   3.674728e+05   3.448512e+05
   2.959132e+05   8.337835e+05
  -2.171609e+05   6.629315e+05
  -7.147060e+05  -2.226068e+05
  -6.597172e+05  -1.064273e+06
   3.650252e+04  -1.032953e+06
   8.414646e+05  -1.155457e+05
   9.986876e+05   8.629076e+05
   2.581524e+05   1.107300e+06
  -7.536400e+05   5.885557e+05
  -1.079036e+06  -1.255601e+05
  -4.695092e+05  -5.455543e+05
   2.877553e+05  -5.775332e+05
   2.909916e+05  -3.509306e+05
  -3.603688e+05  -6.417311e+04
  -6.928470e+05   9.600483e+03
  -1.081220e+05  -2.930780e+05
   8.560966e+05  -6.966754e+05
   1.207643e+06  -6.229615e+05
   6.725285e+05   9.842854e+04
  -1.193423e+05   8.424930e+05
  -4.784963e+05   8.280626e+05
  -3.219593e+05   8.647036e+04
   1.494934e+04  -5.321096e+05
   2.685785e+05  -3.796729e+05
   3.565939e+05   2.550533e+05
   2.337159e+05   5.973390e+05
  -8.159228e+04   3.438056e+05
  -3.914353e+05  -9.563312e+04
  -4.515278e+05  -2.239812e+05
  -2.495536e+05  -4.110799e+04
  -1.185950e+04   7.310049e+04
   9.369339e+04  -1.145086e+05
   1.358598e+05  -4.151584e+05
   2.478240e+05  -4.389021e+05
   3.794016e+05  -3.278104e+04
   3.215218e+05   5.043276e+05
  -2.844514e+04   6.679251e+05
  -4.699907e+05   2.609495e+05
  -6.026915e+05  -3.595548e+05
  -1.944746e+05  -6.272024e+05
   4.950708e+05  -3.509568e+05
   8.384783e+05   1.349865e+05
   4.522989e+05   3.958103e+05
  -3.028959e+05   3.289940e+05
  -6.243686e+05   1.312045e+05
  -1.777995e+05   3.425318e+03
   4.575414e+05   2.447244e+04
   4.496808e+05   1.866846e+05
  -2.709781e+05   3.534980e+05
  -9.100024e+05   2.475204e+05
