
 $NMID
 id='ANONYMOUS ', fmtdat='(2E16.6)'
 volume=1.0
 tramp=1.0
 $END
  -6.027501e+07  -2.330567e+06
  -3.426601e+07  -3.920762e+07
   1.015046e+07  -4.041658e+07
   3.006642e+07  -1.377995e+07
   1.675258e+07   8.724187e+06
  -4.228762e+06   9.637620e+06
  -1.014432e+07  -2.116043e+06
  -2.123405e+06  -1.042820e+07
   7.071641e+06  -9.170886e+06
   1.017675e+07  -1.410327e+06
   7.105009e+06   6.769370e+06
   6.013133e+05   8.986915e+06
  -4.282799e+06   2.840770e+06
  -2.607318e+06  -5.550994e+06
   4.167558e+06  -6.467920e+06
   8.170217e+06   1.878678e+06
   4.171956e+06   1.094857e+07
  -4.544737e+06   1.225686e+07
  -1.097370e+07   5.869715e+06
  -1.150670e+07  -2.538672e+06
  -6.940710e+06  -8.310088e+06
  -4.251675e+05  -9.510038e+06
   3.642582e+06  -6.473517e+06
   2.482541e+06  -2.503058e+06
  -9.940974e+05  -1.788200e+06
  -4.106505e+05  -4.134136e+06
   5.480255e+06  -4.608169e+06
   1.003209e+07  -5.216696e+05
   7.376193e+06   4.430663e+06
   3.545260e+05   5.454850e+06
  -3.800905e+06   2.886173e+06
  -2.734772e+06   2.448382e+05
   2.038570e+05  -8.865096e+05
   2.020662e+06  -7.038701e+05
   2.319662e+06   1.189518e+06
   9.309973e+05   4.006750e+06
  -1.935074e+06   4.139182e+06
  -3.677787e+06  -9.215251e+04
  -1.916327e+06  -4.024960e+06
   9.973275e+05  -2.290205e+06
   5.550249e+05   2.394211e+06
  -2.519500e+06   2.256765e+06
  -2.369680e+06  -3.488357e+06
   3.014682e+06  -6.329079e+06
   7.630024e+06  -6.296241e+05
   5.176199e+06   7.712749e+06
  -2.504609e+06   9.017722e+06
  -7.999533e+06   2.271261e+06
  -7.031128e+06  -4.885846e+06
  -1.598385e+06  -6.253180e+06
   3.668804e+06  -2.581954e+06
   5.241610e+06   1.812699e+06
   2.231364e+06   3.674595e+06
  -2.684770e+06   2.124269e+06
  -4.686852e+06  -1.210098e+06
  -1.870194e+06  -2.959287e+06
   1.881655e+06  -1.361426e+06
   1.704702e+06   1.115890e+06
  -1.508438e+06   7.505952e+05
  -2.420246e+06  -2.162373e+06
   1.087743e+06  -3.670527e+06
   5.170846e+06  -1.681842e+06
   5.508386e+06   1.818684e+06
   2.196284e+06   4.342032e+06
  -2.007421e+06   5.475103e+06
  -5.231855e+06   4.987744e+06
  -6.490087e+06   1.758363e+06
  -4.812657e+06  -3.376044e+06
  -8.892114e+05  -6.450285e+06
   2.118551e+06  -4.809263e+06
   1.872066e+06  -1.009557e+06
  -2.770092e+04   4.172143e+05
  -3.003428e+05  -1.066842e+06
   1.514607e+06  -2.030097e+06
   2.918728e+06  -4.385296e+05
   2.195783e+06   1.845591e+06
   1.757912e+05   2.158472e+06
  -1.460196e+06   2.885230e+05
  -1.674967e+06  -2.003973e+06
  -3.047112e+04  -2.967296e+06
   2.850797e+06  -1.739572e+06
   4.680420e+06   1.241029e+06
   3.356543e+06   4.015051e+06
  -1.447470e+05   4.513833e+06
  -2.540168e+06   2.831264e+06
  -2.442075e+06   1.079066e+06
  -1.921634e+06   5.755527e+05
  -2.989451e+06   3.714052e+05
  -4.390121e+06  -8.879299e+05
  -3.475796e+06  -2.877581e+06
  -6.446876e+04  -4.173315e+06
   3.273556e+06  -3.916896e+06
   4.231680e+06  -2.168743e+06
   2.738910e+06   3.815486e+05
   3.571835e+05   2.278024e+06
  -1.084085e+06   2.016731e+06
  -5.933982e+05  -1.596570e+04
   1.097756e+06  -1.340324e+06
   1.963865e+06  -3.823863e+05
   9.556493e+05   1.265986e+06
  -5.072425e+05   1.131984e+06
  -3.696261e+05  -3.872275e+05
   1.139182e+06  -5.687067e+05
   1.780179e+06   1.528630e+06
   3.740458e+05   3.600821e+06
  -1.857222e+06   3.242520e+06
  -3.182820e+06   8.185929e+05
  -3.158493e+06  -1.600289e+06
  -2.129339e+06  -2.734265e+06
  -4.091589e+05  -2.554776e+06
   1.241504e+06  -1.466517e+06
   1.587946e+06  -2.400139e+05
   4.979231e+05   5.223568e+04
  -3.492318e+05  -7.681403e+05
   4.707403e+05  -1.368925e+06
   1.989159e+06  -5.445246e+05
   2.054058e+06   9.806037e+05
   3.336604e+05   1.467000e+06
  -1.203719e+06   5.427482e+05
  -8.552560e+05  -4.666995e+05
   8.722759e+05  -4.425105e+05
   2.122428e+06   4.140101e+05
   1.649065e+06   1.365701e+06
  -3.061085e+05   1.908473e+06
  -2.331845e+06   1.592931e+06
  -2.795651e+06   2.248403e+05
  -1.211269e+06  -1.324503e+06
   9.841694e+05  -1.539988e+06
   1.631399e+06  -1.630561e+05
   2.032272e+05   1.131332e+06
  -1.561528e+06   7.307633e+05
  -1.718766e+06  -8.390142e+05
  -2.736426e+05  -1.670916e+06
   1.141983e+06  -9.185882e+05
   1.238753e+06   3.836180e+05
   1.917920e+05   8.003464e+05
  -8.317991e+05   2.618829e+04
  -7.411562e+05  -1.091360e+06
   5.961109e+05  -1.449851e+06
   2.046972e+06  -5.402755e+05
   2.062713e+06   1.089127e+06
   3.579231e+05   2.118624e+06
  -1.502272e+06   1.640785e+06
  -1.755592e+06   1.674172e+05
  -4.744710e+05  -8.924695e+05
   6.866227e+05  -7.894994e+05
   6.195040e+05  -7.889547e+04
  -1.315516e+05   3.120315e+05
  -4.494589e+05   1.702385e+05
  -5.490253e+04  -3.069218e+04
   4.684255e+05   1.606306e+05
   4.744542e+05   7.323992e+05
  -2.674344e+05   1.195998e+06
  -1.424854e+06   8.716827e+05
  -2.102154e+06  -4.576991e+05
  -1.459057e+06  -1.995119e+06
   2.488255e+05  -2.439994e+06
   1.637431e+06  -1.375548e+06
   1.664839e+06   1.662305e+05
   8.142711e+05   8.695814e+05
   3.226748e+05   5.803897e+05
   5.374783e+05   1.944937e+05
   6.731053e+05   3.610819e+05
   7.715889e+04   8.097077e+05
  -9.129023e+05   8.845864e+05
  -1.451126e+06   2.840194e+05
  -1.017669e+06  -7.240284e+05
   2.839429e+05  -1.422935e+06
   1.742468e+06  -1.031776e+06
   2.247648e+06   5.236118e+05
   1.089774e+06   2.141222e+06
  -1.095232e+06   2.369851e+06
  -2.607644e+06   9.697792e+05
  -2.335559e+06  -7.362048e+05
  -8.886328e+05  -1.350073e+06
   2.366658e+05  -8.927910e+05
   3.495279e+05  -4.766490e+05
   2.642129e+04  -7.893075e+05
   1.035731e+05  -1.372564e+06
   7.169984e+05  -1.321933e+06
   1.337759e+06  -3.087958e+05
   1.351797e+06   1.109434e+06
   5.463760e+05   1.923751e+06
  -6.411782e+05   1.448949e+06
  -1.293828e+06  -2.581960e+04
  -7.869213e+05  -1.325103e+06
   4.465396e+05  -1.400186e+06
   1.206051e+06  -3.445551e+05
   7.963505e+05   7.762505e+05
  -1.902736e+05   1.105850e+06
  -6.019983e+05   7.600570e+05
  -1.053966e+05   3.919600e+05
   4.481943e+05   3.367821e+05
   6.410488e+04   3.860342e+05
  -1.181066e+06   1.852433e+05
  -2.105910e+06  -3.814785e+05
  -1.618347e+06  -1.087800e+06
   9.672116e+04  -1.465826e+06
   1.664718e+06  -1.133182e+06
   1.863336e+06  -2.296270e+05
   8.110578e+05   5.502894e+05
  -2.953696e+05   5.874816e+05
  -5.241744e+05   5.971391e+03
  -3.118595e+04  -4.576107e+05
   4.392685e+05  -2.697468e+05
   4.898485e+05   3.520030e+05
   2.863623e+05   7.356575e+05
   1.251199e+05   4.939919e+05
   1.286744e+05  -7.206860e+04
   2.502493e+05  -2.719167e+05
   2.683546e+05   2.400116e+05
  -1.325526e+05   9.905687e+05
  -9.251004e+05   1.076130e+06
  -1.429053e+06   1.745098e+05
  -8.958270e+05  -9.455700e+05
   4.413265e+05  -1.183024e+06
   1.311467e+06  -3.572863e+05
   7.470106e+05   5.768552e+05
  -7.245910e+05   6.387238e+05
  -1.583509e+06  -1.300096e+05
  -9.557671e+05  -8.794798e+05
   5.279431e+05  -9.532741e+05
   1.495263e+06  -4.175965e+05
   1.202297e+06   2.245843e+05
   1.129870e+05   5.065584e+05
  -6.591555e+05   2.455233e+05
  -3.951678e+05  -3.172875e+05
   5.833421e+05  -5.489876e+05
   1.210076e+06   6.100321e+04
   7.141700e+05   1.195062e+06
  -5.668597e+05   1.749710e+06
  -1.493710e+06   9.240458e+05
  -1.274556e+06  -7.573507e+05
  -2.047941e+05  -1.805569e+06
   7.490047e+05  -1.282231e+06
   9.189911e+05   2.090915e+05
   3.985809e+05   1.203590e+06
  -2.596543e+05   9.469535e+05
  -5.756465e+05   6.241722e+04
  -4.428224e+05  -3.706242e+05
  -1.362042e+05  -1.218581e+05
  -5.908939e+04   8.327618e+04
  -3.203126e+05  -3.331560e+05
  -5.245243e+05  -9.931316e+05
  -1.507668e+05  -1.074008e+06
   7.663700e+05  -3.768699e+05
   1.482258e+06   4.742895e+05
   1.252922e+06   8.426028e+05
   1.771232e+05   7.137308e+05
  -8.325059e+05   4.328205e+05
  -9.801789e+05   1.707357e+05
  -3.877266e+05  -8.202630e+04
   1.356112e+05  -2.347039e+05
   7.170594e+04  -1.775037e+05
  -2.306826e+05  -6.221932e+04
  -6.880812e+04  -1.363487e+05
   6.275636e+05  -2.673721e+05
   1.069839e+06  -1.634048e+03
   5.029656e+05   7.242000e+05
  -8.152681e+05   1.232981e+06
  -1.760295e+06   7.968834e+05
  -1.494473e+06  -4.212067e+05
  -3.031115e+05  -1.421985e+06
   7.897882e+05  -1.410283e+06
   1.071393e+06  -5.805830e+05
   6.652624e+05   2.061898e+05
   1.568038e+05   3.685974e+05
  -3.767113e+04   1.040611e+05
   9.003005e+04   1.736267e+04
   2.813787e+05   3.812927e+05
   2.349683e+05   8.154705e+05
  -1.716245e+05   7.025072e+05
  -6.901391e+05  -8.520606e+04
  -7.910985e+05  -9.364306e+05
  -1.751954e+05  -1.063248e+06
   7.443787e+05  -3.085799e+05
   1.080834e+06   6.849436e+05
   3.923836e+05   1.113140e+06
  -7.189648e+05   7.300379e+05
  -1.162836e+06  -5.868578e+04
  -5.643632e+05  -6.557944e+05
   2.988092e+05  -7.329577e+05
   4.232585e+05  -3.783449e+05
  -2.123768e+05   1.824616e+04
  -6.496704e+05   5.432868e+04
  -1.643933e+05  -3.232218e+05
   8.322586e+05  -6.895287e+05
   1.305107e+06  -5.174902e+05
   8.114027e+05   2.175698e+05
  -9.082622e+04   9.018871e+05
  -5.958339e+05   8.838300e+05
  -4.810215e+05   1.903847e+05
  -8.572146e+04  -4.731437e+05
   2.357443e+05  -4.700535e+05
   3.647497e+05   1.065294e+05
   2.702681e+05   5.839945e+05
  -4.617763e+04   4.730645e+05
  -4.030921e+05  -2.437790e+04
  -4.942667e+05  -3.111739e+05
  -2.426558e+05  -1.206339e+05
   5.011214e+04   1.875867e+05
   7.192827e+04   1.081115e+05
  -7.668365e+04  -3.446560e+05
  -2.531461e+04  -6.198727e+05
   3.112619e+05  -3.042995e+05
   5.334431e+05   3.430624e+05
   2.399935e+05   6.647150e+05
  -3.946678e+05   3.489288e+05
  -7.115867e+05  -2.544278e+05
  -2.893742e+05  -5.676622e+05
   5.251799e+05  -3.813191e+05
   9.265268e+05   5.234617e+04
   5.042591e+05   3.795637e+05
  -2.999143e+05   4.417180e+05
  -6.657558e+05   2.758778e+05
  -2.884199e+05   2.203488e+04
   3.119581e+05  -1.166325e+05
   4.064545e+05   9.166843e+03
  -1.240131e+05   2.777136e+05
  -6.907020e+05   2.996752e+05
