
 $NMID
 id='ANONYMOUS ', fmtdat='(2E16.6)'
 volume=1.0
 tramp=1.0
 $END
  -3.225576e+07   7.654600e+05
  -2.137159e+07  -1.689459e+07
   1.256139e+06  -2.137740e+07
   1.482910e+07  -1.183685e+07
   1.114703e+07   8.405155e+05
  -2.794745e+05   5.815530e+06
  -6.382184e+06   1.481552e+06
  -3.696290e+06  -5.504249e+06
   2.436719e+06  -7.615765e+06
   5.970177e+06  -2.900855e+06
   4.794342e+06   3.898999e+06
   6.086922e+05   6.025551e+06
  -2.744265e+06   1.501162e+06
  -2.046678e+06  -4.598645e+06
   2.063500e+06  -5.501302e+06
   5.148165e+06  -1.026303e+05
   3.535877e+06   6.176563e+06
  -1.666957e+06   7.625825e+06
  -5.977935e+06   3.774688e+06
  -6.259052e+06  -1.444867e+06
  -3.237412e+06  -4.299464e+06
  -7.991141e+04  -4.105104e+06
   6.316615e+05  -2.696132e+06
  -9.131084e+05  -2.260837e+06
  -1.830487e+06  -3.313208e+06
   5.370167e+05  -4.164447e+06
   5.090995e+06  -2.766907e+06
   7.346736e+06   6.305482e+05
   4.462745e+06   3.347492e+06
  -9.568768e+05   3.193368e+06
  -3.603227e+06   8.033878e+05
  -1.537011e+06  -1.372708e+06
   2.117867e+06  -1.593132e+06
   3.422128e+06   1.459102e+05
   1.774688e+06   2.543880e+06
  -6.032478e+05   3.637919e+06
  -1.690834e+06   2.097267e+06
  -1.178172e+06  -9.147768e+05
  -2.248200e+04  -2.121994e+06
   4.237397e+05   5.403540e+04
  -5.624135e+05   2.804396e+06
  -2.050578e+06   2.086753e+06
  -1.973207e+06  -1.747398e+06
   4.395367e+05  -3.860207e+06
   3.106593e+06  -1.163836e+06
   2.976618e+06   3.494683e+06
  -4.849270e+05   4.871541e+06
  -4.387138e+06   1.606802e+06
  -5.185415e+06  -2.783003e+06
  -2.062479e+06  -4.379919e+06
   2.370567e+06  -2.560511e+06
   4.420128e+06   4.963103e+05
   2.566837e+06   2.307429e+06
  -1.142908e+06   1.810827e+06
  -3.054601e+06  -1.473226e+05
  -1.635142e+06  -1.520895e+06
   9.699300e+05  -9.737009e+05
   1.567546e+06   6.272256e+05
  -2.612423e+05   1.205061e+06
  -1.841672e+06   1.945271e+04
  -8.709936e+05  -1.512572e+06
   1.799341e+06  -1.636922e+06
   3.289513e+06  -8.317937e+04
   1.896257e+06   2.102326e+06
  -1.398499e+06   3.593480e+06
  -4.153524e+06   3.285155e+06
  -4.596058e+06   8.175403e+05
  -2.801857e+06  -2.578590e+06
  -3.823864e+05  -4.522509e+06
   9.682507e+05  -3.784854e+06
   9.489805e+05  -1.757673e+06
   6.985712e+05  -7.132386e+05
   1.264990e+06  -9.425093e+05
   2.288119e+06  -7.314495e+05
   2.492092e+06   8.697964e+05
   1.251562e+06   2.491034e+06
  -7.018310e+05   2.184809e+06
  -1.977889e+06  -7.440638e+04
  -1.611922e+06  -2.320872e+06
   2.837134e+05  -2.669151e+06
   2.444031e+06  -9.580935e+05
   3.194393e+06   1.410443e+06
   1.911303e+06   2.801361e+06
  -1.974746e+05   2.613771e+06
  -1.330885e+06   1.588709e+06
  -1.200216e+06   9.026657e+05
  -1.244094e+06   8.712595e+05
  -2.460909e+06   6.874790e+05
  -3.737517e+06  -4.731920e+05
  -3.060945e+06  -2.330328e+06
  -1.262717e+05  -3.659339e+06
   2.994533e+06  -3.404953e+06
   3.910442e+06  -1.554639e+06
   2.237880e+06   7.921045e+05
  -2.212205e+05   2.083673e+06
  -1.314970e+06   1.491565e+06
  -4.470803e+05  -1.774712e+05
   1.105241e+06  -1.072495e+06
   1.603641e+06  -2.872692e+05
   6.183784e+05   1.002245e+06
  -6.130364e+05   9.914983e+05
  -6.294252e+05  -3.312674e+05
   6.109606e+05  -1.034621e+06
   1.718614e+06   2.803297e+05
   1.368302e+06   2.583086e+06
  -4.490497e+05   3.515286e+06
  -2.536225e+06   1.998217e+06
  -3.483397e+06  -7.677107e+05
  -2.626158e+06  -2.688463e+06
  -5.352615e+05  -2.685588e+06
   1.264548e+06  -1.334516e+06
   1.505033e+06  -8.528713e+04
   4.471538e+05   5.047707e+04
  -3.258085e+05  -6.755924e+05
   2.836612e+05  -1.113342e+06
   1.536439e+06  -5.061281e+05
   1.753122e+06   6.405882e+05
   4.386925e+05   1.155862e+06
  -1.020586e+06   5.661000e+05
  -9.479221e+05  -4.129123e+05
   6.893070e+05  -7.141091e+05
   2.205902e+06   3.228546e+04
   1.941881e+06   1.277120e+06
  -7.995001e+04   2.055393e+06
  -2.171912e+06   1.672036e+06
  -2.569392e+06   2.742659e+05
  -1.079139e+06  -1.071586e+06
   7.696432e+05  -1.213915e+06
   1.243800e+06  -1.347034e+05
   8.865213e+04   8.805674e+05
  -1.343109e+06   6.202232e+05
  -1.572251e+06  -6.466387e+05
  -4.435863e+05  -1.498385e+06
   8.877596e+05  -1.043630e+06
   1.203174e+06   1.098351e+05
   3.633297e+05   6.618734e+05
  -6.319409e+05   8.111607e+04
  -6.167783e+05  -9.310963e+05
   5.768152e+05  -1.249099e+06
   1.834631e+06  -4.079910e+05
   1.798540e+06   1.003192e+06
   3.230295e+05   1.859478e+06
  -1.265967e+06   1.476671e+06
  -1.550583e+06   2.351101e+05
  -5.149871e+05  -7.667349e+05
   5.749757e+05  -7.684839e+05
   6.645488e+05  -4.665548e+04
  -5.079969e+04   4.913150e+05
  -5.913440e+05   3.364066e+05
  -3.641452e+05  -1.285946e+05
   2.952282e+05  -1.607277e+05
   5.584216e+05   4.430748e+05
  -6.814965e+04   1.057703e+06
  -1.221565e+06   8.394848e+05
  -1.889047e+06  -3.746969e+05
  -1.301341e+06  -1.773846e+06
   2.340258e+05  -2.239186e+06
   1.524399e+06  -1.386756e+06
   1.671519e+06   5.489344e+04
   9.436140e+05   9.589814e+05
   3.125703e+05   8.794169e+05
   2.733486e+05   3.621016e+05
   4.022746e+05   2.133896e+05
   5.933013e+04   5.831118e+05
  -7.580393e+05   8.487377e+05
  -1.369578e+06   3.692648e+05
  -1.074944e+06  -7.166876e+05
   1.764582e+05  -1.483967e+06
   1.612992e+06  -1.063162e+06
   2.111871e+06   4.449815e+05
   1.100023e+06   1.912858e+06
  -8.170646e+05   2.153196e+06
  -2.245274e+06   1.018391e+06
  -2.223393e+06  -4.926600e+05
  -1.060656e+06  -1.248664e+06
   1.072886e+05  -1.044962e+06
   4.991510e+05  -6.086537e+05
   3.009995e+05  -6.463853e+05
   2.077053e+05  -1.046082e+06
   5.820866e+05  -1.069653e+06
   1.113412e+06  -2.468160e+05
   1.173665e+06   1.017798e+06
   4.633991e+05   1.748342e+06
  -6.097020e+05   1.304598e+06
  -1.193787e+06   7.539939e+03
  -7.715494e+05  -1.123355e+06
   2.681737e+05  -1.271475e+06
   9.576833e+05  -4.945462e+05
   7.365906e+05   4.521773e+05
   1.853413e+04   8.862210e+05
  -3.330013e+05   7.485357e+05
  -2.082030e+04   4.555566e+05
   3.558024e+05   3.482329e+05
   2.654672e+04   3.651834e+05
  -9.964998e+05   2.041682e+05
  -1.802586e+06  -2.891887e+05
  -1.469353e+06  -9.117620e+05
  -5.812478e+04  -1.242518e+06
   1.342422e+06  -9.979365e+05
   1.642634e+06  -3.100588e+05
   8.089781e+05   3.272925e+05
  -1.845662e+05   4.568773e+05
  -4.367308e+05   8.466568e+04
   1.297244e+04  -2.977648e+05
   4.523925e+05  -1.998757e+05
   4.183635e+05   3.221663e+05
   1.140377e+05   6.852926e+05
  -1.726426e+04   4.375324e+05
   1.463738e+05  -1.543535e+05
   3.484880e+05  -3.433311e+05
   2.691642e+05   2.074823e+05
  -1.997264e+05   9.310482e+05
  -8.332152e+05   9.429479e+05
  -1.122603e+06   8.290260e+04
  -6.450555e+05  -8.429628e+05
   3.891383e+05  -9.411035e+05
   1.078609e+06  -1.969050e+05
   6.435860e+05   5.689261e+05
  -6.303194e+05   6.071493e+05
  -1.508173e+06  -6.065225e+04
  -1.048994e+06  -7.961445e+05
   3.695421e+05  -9.966532e+05
   1.428372e+06  -5.572724e+05
   1.231461e+06   1.295884e+05
   1.654671e+05   5.050881e+05
  -5.950694e+05   2.875103e+05
  -3.196859e+05  -2.413810e+05
   5.886426e+05  -4.165988e+05
   1.069227e+06   1.687555e+05
   5.018232e+05   1.127779e+06
  -6.770409e+05   1.507422e+06
  -1.428419e+06   7.148360e+05
  -1.135344e+06  -7.616780e+05
  -1.347690e+05  -1.682849e+06
   7.195647e+05  -1.235988e+06
   8.794902e+05   1.228274e+05
   4.417087e+05   1.112614e+06
  -1.468126e+05   9.503402e+05
  -5.026751e+05   1.045972e+05
  -4.824982e+05  -3.801806e+05
  -2.118609e+05  -1.595104e+05
  -2.436869e+04   1.109435e+05
  -1.655902e+05  -2.232888e+05
  -4.210193e+05  -8.830720e+05
  -2.328281e+05  -1.029004e+06
   5.828087e+05  -3.778440e+05
   1.372825e+06   4.652037e+05
   1.245586e+06   8.113662e+05
   1.686003e+05   6.375265e+05
  -8.634987e+05   3.563888e+05
  -9.441558e+05   1.705058e+05
  -2.846792e+05  -1.200722e+04
   1.637888e+05  -1.965111e+05
  -3.235150e+04  -2.361168e+05
  -3.171340e+05  -1.459631e+05
  -1.239445e+04  -1.254462e+05
   6.988638e+05  -1.622170e+05
   9.553599e+05   5.894439e+04
   2.700741e+05   6.238831e+05
  -8.763655e+05   1.011981e+06
  -1.531544e+06   6.054861e+05
  -1.192597e+06  -4.672020e+05
  -1.857266e+05  -1.316897e+06
   7.212318e+05  -1.228721e+06
   9.760937e+05  -4.183354e+05
   6.053723e+05   2.756782e+05
   8.170037e+04   3.292721e+05
  -1.264747e+05   6.737985e+03
   5.754720e+04  -6.746770e+04
   3.060274e+05   3.294215e+05
   2.375529e+05   7.568668e+05
  -1.966355e+05   6.050881e+05
  -6.343599e+05  -1.812593e+05
  -6.077504e+05  -9.417007e+05
  -6.366374e+02  -9.379746e+05
   7.365327e+05  -1.347602e+05
   9.052664e+05   7.543185e+05
   2.465450e+05   1.006126e+06
  -6.818712e+05   5.531074e+05
  -9.938518e+05  -1.153499e+05
  -4.404401e+05  -5.275784e+05
   2.707219e+05  -5.558227e+05
   3.015771e+05  -3.216727e+05
  -2.873739e+05  -4.738375e+04
  -6.160263e+05   6.160179e+03
  -1.068728e+05  -2.736325e+05
   7.820832e+05  -6.130105e+05
   1.130596e+06  -5.181378e+05
   6.433989e+05   1.278648e+05
  -1.152533e+05   7.746488e+05
  -4.759566e+05   7.569149e+05
  -3.300208e+05   1.008643e+05
  -2.719881e+02  -4.651646e+05
   2.403396e+05  -3.603330e+05
   3.173787e+05   2.009393e+05
   2.094181e+05   5.411195e+05
  -6.900201e+04   3.407508e+05
  -3.541729e+05  -7.603256e+04
  -4.168837e+05  -2.315218e+05
  -2.250352e+05  -6.137056e+04
   5.292314e+03   9.278400e+04
   8.583480e+04  -4.708060e+04
   7.987785e+04  -3.521120e+05
   1.620721e+05  -4.319716e+05
   3.222793e+05  -8.793230e+04
   3.307325e+05   4.189788e+05
   2.771281e+04   5.983281e+05
  -4.101729e+05   2.477898e+05
  -5.637548e+05  -3.087154e+05
  -1.867311e+05  -5.550056e+05
   4.614003e+05  -3.167282e+05
   7.766537e+05   1.155619e+05
   4.147246e+05   3.616165e+05
  -2.773355e+05   3.199150e+05
  -5.750874e+05   1.436621e+05
  -1.878041e+05   6.511056e+03
   3.754941e+05  -1.337655e+03
   3.898297e+05   1.345567e+05
  -2.172192e+05   2.938124e+05
  -7.737664e+05   2.161746e+05
