
 $NMID
 id='ANONYMOUS ', fmtdat='(2E16.6)'
 volume=1.0
 tramp=1.0
 $END
  -4.167851e+06  -4.663345e+05
  -1.192172e+06  -5.162391e+06
   3.100786e+06  -3.520638e+06
   3.424534e+06   1.620805e+06
   2.408981e+05   3.611943e+06
  -1.866314e+06   1.081333e+06
  -8.408602e+05  -1.588183e+06
   1.105487e+06  -1.281309e+06
   1.596614e+06   4.835380e+05
   8.286578e+05   1.167432e+06
   2.113879e+04   6.837782e+05
  -4.061700e+05   2.589991e+05
  -4.446705e+05   2.566386e+05
  -2.315303e+04   4.007676e+05
   4.185280e+05   6.489397e+05
   1.466804e+05   8.410274e+05
  -6.467716e+05   5.469892e+05
  -9.761831e+05  -9.482877e+04
  -6.531127e+05  -3.839777e+05
  -4.875807e+05  -3.057028e+05
  -6.264989e+05  -6.168272e+05
  -1.318521e+05  -1.260595e+06
   1.193975e+06  -1.038845e+06
   1.953810e+06   4.122131e+05
   1.063845e+06   1.606541e+06
  -5.530772e+05   1.181102e+06
  -1.203216e+06  -1.508382e+05
  -5.559703e+05  -7.309123e+05
   4.056539e+05  -2.009391e+05
   8.603978e+05   5.472157e+05
   6.141171e+05   9.609241e+05
  -2.748189e+05   1.087443e+06
  -1.311074e+06   7.440358e+05
  -1.510403e+06  -2.174776e+05
  -5.627906e+05  -1.044517e+06
   3.811608e+05  -7.881268e+05
   1.301592e+05   1.535038e+05
  -7.656952e+05   4.104514e+05
  -8.408575e+05  -3.636411e+05
   1.881989e+04  -1.071614e+06
   5.524955e+05  -9.522699e+05
   2.996376e+05  -5.515967e+05
   2.328597e+05  -4.782768e+05
   8.629854e+05  -3.603891e+05
   1.221908e+06   2.363931e+05
   5.207308e+05   7.958393e+05
  -4.048852e+05   6.398611e+05
  -3.505522e+05   8.066050e+04
   4.183054e+05  -7.990178e+04
   6.896592e+05   2.479292e+05
   1.121869e+05   5.262138e+05
  -5.788709e+05   5.108571e+05
  -8.033372e+05   3.419897e+05
  -6.313170e+05   2.918273e+04
  -2.473498e+05  -4.070640e+05
   1.843983e+05  -5.566030e+05
   2.592932e+05  -1.634754e+05
  -2.089732e+05   1.861062e+05
  -5.758001e+05  -2.180128e+05
  -8.968816e+04  -9.481080e+05
   8.283727e+05  -8.674867e+05
   9.940849e+05   1.318904e+05
   2.288540e+05   8.390732e+05
  -3.205623e+05   4.654216e+05
   6.177614e+04  -2.807884e+05
   6.264768e+05  -3.794234e+05
   4.702762e+05   7.101213e+04
  -3.561567e+04   3.296152e+05
   3.784451e+03   3.007817e+05
   4.616719e+05   4.752104e+05
   4.083704e+05   8.865854e+05
  -3.889785e+05   9.674722e+05
  -1.126350e+06   4.272871e+05
  -1.120656e+06  -3.571415e+05
  -5.441783e+05  -8.726410e+05
   9.055728e+04  -9.114199e+05
   5.192872e+05  -4.901545e+05
   6.261885e+05   1.847906e+05
   3.289917e+05   6.347657e+05
  -1.644640e+05   4.639165e+05
  -3.952081e+05  -9.588187e+04
  -2.052768e+05  -3.887721e+05
   4.880700e+04  -1.764923e+05
   2.079402e+04   1.083248e+05
  -1.742727e+05   4.779492e+04
  -2.056745e+05  -2.340409e+05
   4.375451e+04  -3.933900e+05
   4.465914e+05  -3.237393e+05
   7.649213e+05  -7.145208e+04
   6.924398e+05   3.421247e+05
   8.672236e+04   7.375241e+05
  -6.651898e+05   7.340983e+05
  -8.611937e+05   2.249481e+05
  -3.221002e+05  -3.333967e+05
   2.972072e+05  -4.332949e+05
   3.312058e+05  -1.406466e+05
  -6.696760e+04   9.645927e+04
  -2.824972e+05   8.243076e+04
  -1.346186e+05  -2.127046e+04
   5.931985e+04  -7.309811e+04
   1.157971e+05  -5.651099e+04
   1.260813e+05   8.730331e+04
   3.368200e+04   3.320882e+05
  -3.364663e+05   3.381243e+05
  -7.373894e+05  -1.932503e+05
  -5.636643e+05  -9.073261e+05
   2.819117e+05  -1.017296e+06
   1.041472e+06  -3.023767e+05
   9.758256e+05   5.314282e+05
   2.692809e+05   7.277489e+05
  -2.955262e+05   3.592497e+05
  -3.239167e+05   3.331230e+04
  -8.699632e+04   3.049976e+04
   3.052542e+04   1.312016e+05
  -4.303071e+04   1.194339e+05
  -1.676146e+05   3.833456e+04
  -1.954424e+05  -2.329942e+04
  -4.819671e+04  -5.395244e+04
   1.730552e+05  -5.948960e+03
   1.698243e+05   1.590556e+05
  -2.149185e+05   2.780097e+05
  -6.550774e+05   1.053273e+05
  -6.249639e+05  -3.072979e+05
  -7.203007e+04  -5.836162e+05
   4.674367e+05  -4.727020e+05
   5.200821e+05  -1.378211e+05
   1.944656e+05   9.697845e+04
  -7.770987e+04   1.141174e+05
  -8.227405e+04   1.467632e+04
   7.800730e+04  -7.119164e+04
   2.348186e+05  -5.879749e+04
   2.808637e+05   7.598453e+04
   1.578468e+05   2.300145e+05
  -6.802573e+04   2.285780e+05
  -1.808537e+05   6.231913e+04
  -5.417334e+04  -4.217335e+04
   1.276048e+05   8.342908e+04
   6.917542e+04   2.890230e+05
  -2.331128e+05   2.912438e+05
  -4.650516e+05   4.198969e+04
  -3.831258e+05  -2.427016e+05
  -7.605391e+04  -3.647918e+05
   1.872172e+05  -3.006658e+05
   2.354715e+05  -1.245794e+05
   9.108193e+04   5.331084e+04
  -8.492529e+04   9.553190e+04
  -1.043762e+05  -3.907435e+04
   7.683329e+04  -1.752396e+05
   2.611567e+05  -9.805875e+04
   1.994928e+05   1.269036e+05
  -7.751594e+04   1.924348e+05
  -2.455485e+05  -3.079229e+04
  -7.623425e+04  -2.885891e+05
   2.744754e+05  -2.608245e+05
   4.594834e+05   5.402571e+04
   3.251869e+05   3.860141e+05
   3.897669e+03   5.075906e+05
  -2.856371e+05   3.790911e+05
  -4.049436e+05   9.196392e+04
  -3.294222e+05  -1.821202e+05
  -1.557842e+05  -2.624891e+05
  -5.037315e+04  -1.394532e+05
  -7.042016e+04  -3.666629e+04
  -6.235626e+04  -1.393684e+05
   1.335676e+05  -3.012077e+05
   3.965404e+05  -2.064978e+05
   4.048062e+05   1.715184e+05
   4.349865e+04   4.697005e+05
  -4.046382e+05   3.629686e+05
  -5.527236e+05  -5.746290e+04
  -3.007482e+05  -4.239671e+05
   1.292566e+05  -4.893331e+05
   4.485988e+05  -2.839430e+05
   5.042417e+05   1.483132e+04
   3.147892e+05   2.348499e+05
   3.492896e+04   2.851071e+05
  -1.381078e+05   2.083814e+05
  -1.278177e+05   1.494191e+05
  -5.555656e+04   1.847819e+05
  -8.781791e+04   2.058743e+05
  -2.159996e+05   5.980671e+04
  -2.639279e+05  -2.122754e+05
  -1.181690e+05  -3.809129e+05
   1.238171e+05  -2.865528e+05
   2.601657e+05  -1.114659e+04
   1.891660e+05   2.268343e+05
  -1.163481e+04   2.787566e+05
  -1.698779e+05   1.501335e+05
  -1.685343e+05  -4.491862e+04
  -4.881607e+04  -1.720537e+05
   3.040135e+04  -1.710778e+05
  -2.539626e+04  -1.031380e+05
  -1.108926e+05  -7.532525e+04
  -3.320250e+04  -1.035072e+05
   2.251273e+05  -9.445876e+04
   4.329234e+05   1.861964e+04
   3.562552e+05   1.774081e+05
   3.058075e+04   2.663683e+05
  -2.744620e+05   2.325151e+05
  -3.371862e+05   1.083633e+05
  -1.756879e+05  -3.132862e+04
   2.210441e+04  -9.954469e+04
   9.435064e+04  -4.633610e+04
   2.445293e+04   6.412508e+04
  -8.216406e+04   8.305716e+04
  -1.122861e+05  -4.072113e+04
  -5.380670e+04  -1.581663e+05
   3.874145e+02  -9.994322e+04
  -3.141977e+04   7.074026e+04
  -1.101603e+05   1.122271e+05
  -1.123668e+05  -7.040619e+04
   2.254914e+04  -2.776549e+05
   2.084793e+05  -2.597705e+05
   2.850284e+05  -2.122492e+04
   1.647106e+05   2.035627e+05
  -7.852489e+04   2.255395e+05
  -2.466907e+05   6.760599e+04
  -1.715154e+05  -1.106458e+05
   1.124841e+05  -1.659197e+05
   3.513257e+05  -5.687720e+04
   2.959680e+05   1.369499e+05
  -2.555343e+04   2.589354e+05
  -3.110480e+05   2.003589e+05
  -3.016035e+05   1.724230e+04
  -5.860561e+04  -1.121800e+05
   1.250363e+05  -7.430425e+04
   6.119950e+04   5.696425e+04
  -1.480662e+05   1.021083e+05
  -2.548191e+05  -3.394233e+04
  -1.318336e+05  -2.588025e+05
   1.240850e+05  -3.631074e+05
   3.070799e+05  -2.051288e+05
   2.846340e+05   1.340605e+05
   9.026627e+04   3.811744e+05
  -1.226091e+05   3.145437e+05
  -2.092657e+05   3.110644e+03
  -1.367583e+05  -2.480885e+05
   1.312974e+04  -2.260148e+05
   1.228650e+05  -3.088952e+04
   1.262330e+05   8.368421e+04
   5.091649e+04   3.571113e+04
  -5.282340e+03  -2.075043e+04
   3.131737e+04   5.420014e+04
   1.099069e+05   1.899184e+05
   8.226877e+04   2.165522e+05
  -1.143478e+05   9.304287e+04
  -3.251514e+05  -6.363245e+04
  -3.162826e+05  -1.431823e+05
  -6.291905e+04  -1.455782e+05
   1.905937e+05  -1.177130e+05
   2.147314e+05  -7.152375e+04
   6.390035e+04  -6.156224e+03
  -2.745997e+04   4.507231e+04
   3.132658e+04   4.962578e+04
   9.065129e+04   3.350909e+04
  -4.603560e+02   4.465215e+04
  -1.734078e+05   6.167038e+04
  -2.261152e+05   2.387021e+03
  -6.957971e+04  -1.464248e+05
   1.812670e+05  -2.559438e+05
   3.353383e+05  -1.746564e+05
   2.887981e+05   8.024673e+04
   8.311331e+04   3.043566e+05
  -1.383008e+05   3.095726e+05
  -2.305917e+05   1.214287e+05
  -1.570800e+05  -6.011225e+04
  -1.978739e+04  -8.631041e+04
   4.192382e+04  -6.872064e+03
  -8.342841e+03   1.984722e+04
  -8.002543e+04  -7.004106e+04
  -6.675624e+04  -1.710337e+05
   4.158997e+04  -1.379253e+05
   1.532496e+05   3.856140e+04
   1.564245e+05   2.089456e+05
   1.710932e+04   2.151766e+05
  -1.688711e+05   4.793396e+04
  -2.307283e+05  -1.508001e+05
  -8.468159e+04  -2.280115e+05
   1.470513e+05  -1.484008e+05
   2.379741e+05   4.260964e+03
   1.114706e+05   1.192802e+05
  -6.084933e+04   1.376687e+05
  -6.907992e+04   7.170720e+04
   7.154492e+04  -1.002587e+04
   1.490890e+05  -2.247957e+04
   3.423705e+04   6.244724e+04
  -1.617582e+05   1.628061e+05
  -2.391633e+05   1.474952e+05
  -1.444441e+05  -1.212701e+04
   5.826590e+03  -1.780551e+05
   8.685072e+04  -1.835151e+05
   7.600804e+04  -2.914641e+04
   1.693894e+04   1.111360e+05
  -4.807490e+04   9.332390e+04
  -8.550690e+04  -3.702264e+04
  -6.477312e+04  -1.205525e+05
   1.037027e+04  -8.054701e+04
   8.395196e+04   9.089931e+03
   9.694330e+04   4.099695e+04
   5.136329e+04   4.426048e+03
   2.568091e+03  -2.294838e+04
  -1.111274e+04   1.660100e+04
  -9.408719e+03   8.988339e+04
  -3.289113e+04   1.090521e+05
  -7.863299e+04   2.906517e+04
  -9.041587e+04  -9.342088e+04
  -2.208980e+04  -1.453878e+05
   9.141533e+04  -7.205904e+04
   1.435629e+05   5.982358e+04
   6.065866e+04   1.292636e+05
  -1.000114e+05   8.650583e+04
  -1.850978e+05  -9.638922e+03
  -1.044923e+05  -7.373177e+04
   5.797844e+04  -7.756524e+04
   1.282047e+05  -4.510949e+04
   3.943261e+04  -7.224755e+03
  -8.938479e+04   8.644424e+03
  -9.415265e+04  -2.052597e+04
   4.210559e+04  -7.484918e+04
   1.732228e+05  -7.529734e+04
