
 $NMID
 id='ANONYMOUS ', fmtdat='(2E16.6)'
 volume=1.0
 tramp=1.0
 $END
   5.588429e+07  -5.508903e+05
   3.410269e+07   3.445020e+07
  -7.035164e+06   3.808499e+07
  -2.746812e+07   1.478342e+07
  -1.659061e+07  -6.980078e+06
   3.257456e+06  -9.385206e+06
   9.892854e+06   1.217141e+06
   2.809866e+06   9.807354e+06
  -6.238072e+06   9.344837e+06
  -9.658744e+06   2.004406e+06
  -6.951504e+06  -6.121620e+06
  -8.165575e+05  -8.499938e+06
   3.911001e+06  -2.730746e+06
   2.545730e+06   5.367153e+06
  -3.792568e+06   6.492390e+06
  -7.863439e+06  -1.311223e+06
  -4.460949e+06  -1.013184e+07
   3.699781e+06  -1.174615e+07
   9.975840e+06  -5.937355e+06
   1.071425e+07   1.915595e+06
   6.658893e+06   7.309350e+06
   8.506581e+05   8.564997e+06
  -2.791898e+06   6.128126e+06
  -1.911374e+06   2.816462e+06
   9.412715e+05   2.160093e+06
   1.890398e+05   4.043027e+06
  -5.275220e+06   4.268390e+06
  -9.462127e+06   4.924653e+05
  -6.949130e+06  -4.021324e+06
  -3.122566e+05  -4.930261e+06
   3.574857e+06  -2.503132e+06
   2.352720e+06  -6.682841e+04
  -6.238276e+05   7.881459e+05
  -2.175938e+06   3.728896e+05
  -2.059823e+06  -1.391694e+06
  -6.578486e+05  -3.786816e+06
   1.719815e+06  -3.796885e+06
   3.160177e+06  -1.177830e+03
   1.755885e+06   3.515706e+06
  -6.658363e+05   1.943904e+06
  -2.854015e+05  -2.348195e+06
   2.454149e+06  -2.249633e+06
   2.454602e+06   3.182443e+06
  -2.385210e+06   6.166198e+06
  -6.936225e+06   1.130571e+06
  -5.179989e+06  -6.823430e+06
   1.815912e+06  -8.516165e+06
   7.348555e+06  -2.461167e+06
   6.896777e+06   4.419865e+06
   1.806856e+06   6.015784e+06
  -3.484473e+06   2.678469e+06
  -5.232341e+06  -1.568653e+06
  -2.396249e+06  -3.513625e+06
   2.418058e+06  -2.210711e+06
   4.517410e+06   9.092098e+05
   1.954625e+06   2.715583e+06
  -1.702919e+06   1.374000e+06
  -1.723253e+06  -1.041474e+06
   1.359271e+06  -9.495742e+05
   2.542147e+06   1.759984e+06
  -5.602750e+05   3.513674e+06
  -4.619496e+06   1.988094e+06
  -5.327261e+06  -1.319352e+06
  -2.342810e+06  -3.960787e+06
   1.766877e+06  -5.202675e+06
   4.929029e+06  -4.754719e+06
   6.092120e+06  -1.726514e+06
   4.519815e+06   3.081509e+06
   9.346123e+05   6.083571e+06
  -1.873757e+06   4.741778e+06
  -1.814832e+06   1.218039e+06
  -2.186061e+05  -3.060336e+05
   3.253102e+04   8.739318e+05
  -1.529635e+06   1.702292e+06
  -2.707292e+06   2.236981e+05
  -1.938498e+06  -1.881253e+06
   6.726487e+03  -2.068257e+06
   1.513161e+06  -1.477605e+05
   1.602618e+06   2.076540e+06
  -3.008713e+04   2.884701e+06
  -2.719958e+06   1.615267e+06
  -4.396246e+06  -1.166823e+06
  -3.196914e+06  -3.694458e+06
  -2.865102e+02  -4.186959e+06
   2.234244e+06  -2.725367e+06
   2.227651e+06  -1.158237e+06
   1.849834e+06  -6.776845e+05
   2.944194e+06  -4.451076e+05
   4.319562e+06   8.040986e+05
   3.432414e+06   2.788228e+06
   7.636818e+04   4.098940e+06
  -3.225727e+06   3.821609e+06
  -4.142241e+06   2.045272e+06
  -2.604826e+06  -4.328549e+05
  -2.495549e+05  -2.186933e+06
   1.092774e+06  -1.888298e+06
   5.502713e+05   3.524427e+04
  -1.088561e+06   1.280201e+06
  -1.899107e+06   3.803224e+05
  -9.115764e+05  -1.197282e+06
   5.255686e+05  -1.090026e+06
   4.152818e+05   4.130630e+05
  -1.111428e+06   6.933024e+05
  -1.892974e+06  -1.335040e+06
  -6.107377e+05  -3.549751e+06
   1.694374e+06  -3.427763e+06
   3.221646e+06  -1.051140e+06
   3.290822e+06   1.539981e+06
   2.184869e+06   2.815360e+06
   3.814988e+05   2.600387e+06
  -1.252039e+06   1.426374e+06
  -1.561428e+06   2.016538e+05
  -4.893171e+05  -5.297198e+04
   3.455638e+05   7.555307e+05
  -4.293140e+05   1.341794e+06
  -1.917540e+06   5.626258e+05
  -2.030247e+06  -9.179401e+05
  -3.668866e+05  -1.432168e+06
   1.184308e+06  -5.513885e+05
   8.717948e+05   4.807520e+05
  -8.794265e+05   4.984993e+05
  -2.177479e+06  -3.879532e+05
  -1.692715e+06  -1.408360e+06
   3.107636e+05  -1.957669e+06
   2.338423e+06  -1.594770e+06
   2.769250e+06  -2.209965e+05
   1.200710e+06   1.284499e+06
  -9.328825e+05   1.496990e+06
  -1.566153e+06   1.799802e+05
  -1.966910e+05  -1.079685e+06
   1.523771e+06  -7.160846e+05
   1.706216e+06   8.142431e+05
   2.995700e+05   1.666577e+06
  -1.126872e+06   9.541379e+05
  -1.259958e+06  -3.504938e+05
  -2.257726e+05  -7.998680e+05
   8.056470e+05  -4.668183e+04
   7.242009e+05   1.061793e+06
  -5.908391e+05   1.411748e+06
  -2.006002e+06   5.145257e+05
  -2.015241e+06  -1.074179e+06
  -3.528347e+05  -2.078082e+06
   1.467664e+06  -1.621096e+06
   1.732651e+06  -1.784091e+05
   4.838123e+05   8.831485e+05
  -6.769949e+05   7.899869e+05
  -6.253022e+05   5.964882e+04
   1.428656e+05  -3.505621e+05
   4.957642e+05  -1.765089e+05
   9.632354e+04   8.355698e+04
  -4.739328e+05  -9.248087e+04
  -5.125158e+05  -6.999668e+05
   2.342753e+05  -1.193116e+06
   1.400341e+06  -8.711151e+05
   2.071839e+06   4.486369e+05
   1.431995e+06   1.962034e+06
  -2.571250e+05   2.407163e+06
  -1.640293e+06   1.369652e+06
  -1.678449e+06  -1.709209e+05
  -8.153191e+05  -9.116295e+05
  -2.794807e+05  -6.352574e+05
  -4.714928e+05  -2.005746e+05
  -6.397933e+05  -3.147472e+05
  -8.911898e+04  -7.712086e+05
   8.955839e+05  -8.849702e+05
   1.452811e+06  -2.886304e+05
   1.019972e+06   7.440581e+05
  -2.922204e+05   1.443704e+06
  -1.740404e+06   1.029586e+06
  -2.229337e+06  -5.261310e+05
  -1.089641e+06  -2.121226e+06
   1.057082e+06  -2.352703e+06
   2.568080e+06  -9.848451e+05
   2.337045e+06   7.148580e+05
   9.121102e+05   1.366243e+06
  -2.444652e+05   9.313510e+05
  -3.970141e+05   4.779697e+05
  -6.777630e+04   7.343576e+05
  -1.030608e+05   1.305387e+06
  -6.842866e+05   1.286151e+06
  -1.298411e+06   3.058478e+05
  -1.318419e+06  -1.093478e+06
  -5.265498e+05  -1.894373e+06
   6.400693e+05  -1.420992e+06
   1.281895e+06   2.655296e+04
   7.901281e+05   1.301499e+06
  -4.212574e+05   1.394252e+06
  -1.187111e+06   3.822972e+05
  -8.134997e+05  -7.261637e+05
   1.450823e+05  -1.091062e+06
   5.660950e+05  -7.814752e+05
   1.037563e+05  -4.114409e+05
  -4.271881e+05  -3.347110e+05
  -5.496949e+04  -3.795826e+05
   1.155853e+06  -1.936528e+05
   2.062343e+06   3.604474e+05
   1.600255e+06   1.064416e+06
  -6.516326e+04   1.446061e+06
  -1.612131e+06   1.125547e+06
  -1.840425e+06   2.432069e+05
  -8.295778e+05  -5.239365e+05
   2.700314e+05  -5.746028e+05
   5.190144e+05  -2.219088e+04
   3.576186e+04   4.263661e+05
  -4.376781e+05   2.507321e+05
  -4.768870e+05  -3.458482e+05
  -2.531484e+05  -7.122409e+05
  -1.007500e+05  -4.704654e+05
  -1.421918e+05   8.243058e+04
  -2.791973e+05   2.698456e+05
  -2.694072e+05  -2.385621e+05
   1.508186e+05  -9.723398e+05
   9.102367e+05  -1.052778e+06
   1.370801e+06  -1.745800e+05
   8.531330e+05   9.130032e+05
  -4.216066e+05   1.143330e+06
  -1.260123e+06   3.391176e+05
  -7.233877e+05  -5.746203e+05
   7.145649e+05  -6.349995e+05
   1.578786e+06   1.313947e+05
   9.703220e+05   8.900710e+05
  -5.195983e+05   9.726982e+05
  -1.507384e+06   4.290819e+05
  -1.216540e+06  -2.284738e+05
  -1.152887e+05  -5.144740e+05
   6.572499e+05  -2.512293e+05
   3.871315e+05   3.016256e+05
  -5.774307e+05   5.185923e+05
  -1.174546e+06  -7.991789e+04
  -6.702847e+05  -1.170684e+06
   5.825876e+05  -1.690374e+06
   1.473215e+06  -8.766531e+05
   1.241611e+06   7.605480e+05
   1.824724e+05   1.781741e+06
  -7.571759e+05   1.269084e+06
  -9.204134e+05  -2.027483e+05
  -4.003287e+05  -1.200021e+06
   2.541743e+05  -9.580583e+05
   5.696745e+05  -7.011100e+04
   4.439682e+05   3.833238e+05
   1.432551e+05   1.389322e+05
   5.755539e+04  -9.121347e+04
   3.023966e+05   3.016483e+05
   5.065352e+05   9.710358e+05
   1.553067e+05   1.079104e+06
  -7.414027e+05   3.879444e+05
  -1.460032e+06  -4.811241e+05
  -1.245264e+06  -8.546330e+05
  -1.748480e+05  -7.031226e+05
   8.359856e+05  -4.054598e+05
   9.775845e+05  -1.616172e+05
   3.775739e+05   6.376859e+04
  -1.394115e+05   2.234111e+05
  -6.321014e+04   1.985561e+05
   2.352787e+05   8.956387e+04
   5.869454e+04   1.292107e+05
  -6.321350e+05   2.331328e+05
  -1.044845e+06  -1.024599e+04
  -4.655611e+05  -6.883716e+05
   8.183129e+05  -1.178826e+06
   1.712671e+06  -7.673691e+05
   1.434031e+06   4.155284e+05
   2.760965e+05   1.396645e+06
  -7.776969e+05   1.378232e+06
  -1.045990e+06   5.499764e+05
  -6.451926e+05  -2.205372e+05
  -1.436832e+05  -3.559824e+05
   4.313665e+04  -7.701588e+04
  -9.406858e+04  -4.921574e+02
  -2.866250e+05  -3.796309e+05
  -2.312091e+05  -8.100616e+05
   1.746179e+05  -6.816224e+05
   6.694020e+05   1.047403e+05
   7.474937e+05   9.284072e+05
   1.454879e+05   1.025749e+06
  -7.283453e+05   2.701309e+05
  -1.035047e+06  -6.923237e+05
  -3.650824e+05  -1.085059e+06
   7.033464e+05  -6.952911e+05
   1.128315e+06   6.500596e+04
   5.496841e+05   6.284269e+05
  -2.842369e+05   7.029179e+05
  -4.018550e+05   3.772807e+05
   2.181223e+05   4.322088e+03
   6.400134e+05  -4.117961e+04
   1.560739e+05   3.108803e+05
  -8.254650e+05   6.717179e+05
  -1.284231e+06   5.202911e+05
  -7.911234e+05  -1.945276e+05
   9.290852e+04  -8.773483e+05
   5.738128e+05  -8.688923e+05
   4.483559e+05  -1.860765e+05
   6.575834e+04   4.637890e+05
  -2.307190e+05   4.482564e+05
  -3.449233e+05  -1.222717e+05
  -2.571731e+05  -5.741861e+05
   4.148111e+04  -4.479396e+05
   3.890479e+05   3.311717e+04
   4.865600e+05   2.959619e+05
   2.450734e+05   1.120207e+05
  -5.081151e+04  -1.672924e+05
  -9.061103e+04  -8.445837e+04
   4.461693e+04   3.295267e+05
   6.483785e+03   5.676778e+05
  -2.929793e+05   2.624080e+05
  -4.863096e+05  -3.405377e+05
  -2.027208e+05  -6.333127e+05
   3.910174e+05  -3.250171e+05
   6.776865e+05   2.568223e+05
   2.659824e+05   5.584637e+05
  -5.128439e+05   3.709203e+05
  -8.942894e+05  -5.872094e+04
  -4.865271e+05  -3.736675e+05
   2.885947e+05  -4.200416e+05
   6.398541e+05  -2.549918e+05
   2.702035e+05  -2.696858e+04
  -3.115709e+05   8.565662e+04
  -3.896822e+05  -3.414669e+04
   1.456432e+05  -2.684465e+05
   7.002294e+05  -2.669206e+05
