
 $NMID
 id='ANONYMOUS ', fmtdat='(2E16.6)'
 volume=1.0
 tramp=1.0
 $END
  -2.872137e+07  -7.183138e+05
  -1.752495e+07  -1.647704e+07
   2.796292e+06  -1.879353e+07
   1.351632e+07  -8.952457e+06
   9.063863e+06   1.826358e+06
  -8.366386e+05   4.859829e+06
  -5.266405e+06   5.919433e+05
  -2.512161e+06  -4.805106e+06
   2.468719e+06  -5.945904e+06
   5.093126e+06  -1.947058e+06
   3.972865e+06   3.459765e+06
   4.310430e+05   5.087624e+06
  -2.387421e+06   1.329516e+06
  -1.702394e+06  -3.693483e+06
   1.846015e+06  -4.336726e+06
   4.314352e+06   2.590433e+05
   2.694326e+06   5.432690e+06
  -1.807899e+06   6.448021e+06
  -5.386512e+06   3.064031e+06
  -5.557637e+06  -1.443493e+06
  -2.890098e+06  -4.030953e+06
   9.771840e+04  -3.948672e+06
   1.049316e+06  -2.474962e+06
  -2.670642e+05  -1.612616e+06
  -1.432437e+06  -2.300461e+06
   2.230863e+05  -3.287410e+06
   4.056726e+06  -2.461705e+06
   6.144299e+06   3.466569e+05
   3.872313e+06   2.819183e+06
  -6.162498e+05   2.872883e+06
  -2.912577e+06   9.637571e+05
  -1.461011e+06  -8.762776e+05
   1.323404e+06  -1.271429e+06
   2.516484e+06  -1.258492e+05
   1.565740e+06   1.799999e+06
  -2.212525e+05   2.975586e+06
  -1.422720e+06   1.929256e+06
  -1.319322e+06  -7.055396e+05
  -2.179015e+05  -2.004549e+06
   5.248754e+05  -2.549614e+05
  -2.207898e+05   2.189513e+06
  -1.636275e+06   1.653877e+06
  -1.532866e+06  -1.583951e+06
   7.508227e+05  -3.214019e+06
   2.983117e+06  -6.554723e+05
   2.456150e+06   3.349716e+06
  -7.823376e+05   4.252888e+06
  -3.908039e+06   1.225855e+06
  -4.218577e+06  -2.459632e+06
  -1.515443e+06  -3.604633e+06
   1.978830e+06  -1.969310e+06
   3.491962e+06   5.335079e+05
   1.925267e+06   1.925045e+06
  -1.078651e+06   1.398818e+06
  -2.547646e+06  -2.858448e+05
  -1.263719e+06  -1.363176e+06
   8.770135e+05  -7.831965e+05
   1.226316e+06   5.337695e+05
  -3.254304e+05   8.192107e+05
  -1.401958e+06  -2.765883e+05
  -3.325184e+05  -1.354709e+06
   1.831048e+06  -1.138158e+06
   2.764780e+06   2.534325e+05
   1.436509e+06   1.926004e+06
  -1.213235e+06   3.042752e+06
  -3.416977e+06   2.796180e+06
  -3.869206e+06   7.382242e+05
  -2.453279e+06  -2.173355e+06
  -3.412202e+05  -3.802128e+06
   9.018825e+05  -3.045269e+06
   8.030815e+05  -1.238038e+06
   3.834487e+05  -4.480975e+05
   7.653916e+05  -8.436554e+05
   1.725251e+06  -8.160370e+05
   2.071857e+06   4.806567e+05
   1.173810e+06   1.874732e+06
  -3.872444e+05   1.750442e+06
  -1.485289e+06   5.174822e+04
  -1.316215e+06  -1.736700e+06
   1.481846e+05  -2.136774e+06
   1.979374e+06  -8.712477e+05
   2.718226e+06   1.098170e+06
   1.667043e+06   2.388564e+06
  -2.018497e+05   2.299241e+06
  -1.239979e+06   1.365092e+06
  -1.100083e+06   6.813668e+05
  -1.032504e+06   6.213152e+05
  -1.958540e+06   5.015906e+05
  -2.980770e+06  -4.013612e+05
  -2.444893e+06  -1.861367e+06
  -1.204500e+05  -2.909861e+06
   2.339904e+06  -2.748422e+06
   3.091819e+06  -1.337332e+06
   1.842209e+06   5.484326e+05
  -6.915254e+04   1.678657e+06
  -9.930380e+05   1.266247e+06
  -3.792599e+05  -1.129595e+05
   8.524555e+05  -8.882330e+05
   1.294880e+06  -2.467185e+05
   5.314225e+05   8.205976e+05
  -4.499925e+05   8.074160e+05
  -4.555357e+05  -2.382355e+05
   5.041259e+05  -7.224478e+05
   1.282586e+06   3.631262e+05
   9.169668e+05   2.074856e+06
  -4.710454e+05   2.632871e+06
  -1.969499e+06   1.400336e+06
  -2.636234e+06  -6.408650e+05
  -2.015650e+06  -2.032258e+06
  -4.474011e+05  -2.056393e+06
   9.673366e+05  -1.076913e+06
   1.189526e+06  -1.073797e+05
   3.563113e+05   3.499542e+04
  -2.625134e+05  -5.326543e+05
   2.398973e+05  -8.941542e+05
   1.248269e+06  -4.009698e+05
   1.396882e+06   5.288579e+05
   3.321655e+05   9.262438e+05
  -8.042772e+05   4.441920e+05
  -7.259551e+05  -3.055396e+05
   5.350608e+05  -5.161571e+05
   1.682554e+06   4.012940e+04
   1.483825e+06   9.595221e+05
  -5.349882e+04   1.566832e+06
  -1.679955e+06   1.314915e+06
  -2.022326e+06   2.361330e+05
  -8.627296e+05  -8.567560e+05
   6.235005e+05  -9.903032e+05
   1.019128e+06  -1.104666e+05
   8.722793e+04   7.218696e+05
  -1.068217e+06   5.077823e+05
  -1.242742e+06  -5.101338e+05
  -3.383516e+05  -1.172094e+06
   6.998856e+05  -7.965625e+05
   9.274590e+05   1.028631e+05
   2.643274e+05   5.162749e+05
  -5.109479e+05   5.435848e+04
  -4.998342e+05  -7.408521e+05
   4.426675e+05  -1.003633e+06
   1.454691e+06  -3.509882e+05
   1.444597e+06   7.773833e+05
   2.718865e+05   1.477509e+06
  -1.001291e+06   1.178975e+06
  -1.227201e+06   1.892283e+05
  -4.028621e+05  -6.017268e+05
   4.487635e+05  -6.041265e+05
   5.103805e+05  -5.572819e+04
  -3.285136e+04   3.513606e+05
  -4.246938e+05   2.538394e+05
  -2.461025e+05  -6.439219e+04
   2.346962e+05  -7.459501e+04
   4.135077e+05   3.727585e+05
  -7.281230e+04   8.319794e+05
  -9.671211e+05   6.642053e+05
  -1.498903e+06  -2.855254e+05
  -1.048687e+06  -1.397903e+06
   1.596506e+05  -1.772031e+06
   1.178545e+06  -1.095715e+06
   1.294904e+06   3.094943e+04
   7.376095e+05   7.128419e+05
   2.752378e+05   6.403242e+05
   2.631764e+05   2.699102e+05
   3.442791e+05   1.955080e+05
   4.381159e+04   4.854287e+05
  -6.014900e+05   6.681002e+05
  -1.067196e+06   2.901928e+05
  -8.382207e+05  -5.410680e+05
   1.274304e+05  -1.143097e+06
   1.254934e+06  -8.391089e+05
   1.663179e+06   3.323035e+05
   8.709772e+05   1.500407e+06
  -6.510413e+05   1.700675e+06
  -1.776169e+06   8.008629e+05
  -1.738906e+06  -3.867125e+05
  -8.162329e+05  -9.583353e+05
   7.590746e+04  -7.866331e+05
   3.512289e+05  -4.716110e+05
   1.946429e+05  -5.420819e+05
   1.487639e+05  -8.671933e+05
   4.678793e+05  -8.681853e+05
   8.958328e+05  -2.056820e+05
   9.479666e+05   7.951769e+05
   3.897254e+05   1.380545e+06
  -4.653910e+05   1.042043e+06
  -9.395058e+05   1.501938e+04
  -6.084462e+05  -8.892415e+05
   2.196330e+05  -1.000434e+06
   7.618817e+05  -3.655077e+05
   5.695824e+05   3.873270e+05
  -1.235691e+04   7.067474e+05
  -2.839979e+05   5.734041e+05
  -1.637507e+04   3.413257e+05
   2.955293e+05   2.697460e+05
   2.982362e+04   2.891910e+05
  -7.963443e+05   1.609718e+05
  -1.442456e+06  -2.271788e+05
  -1.167070e+06  -7.183079e+05
  -3.110605e+04  -9.860636e+05
   1.079365e+06  -7.969529e+05
   1.297729e+06  -2.442342e+05
   6.218035e+05   2.714762e+05
  -1.590171e+05   3.695929e+05
  -3.458156e+05   5.691780e+04
   9.024551e+03  -2.568476e+05
   3.518943e+05  -1.735200e+05
   3.391357e+05   2.525368e+05
   1.200778e+05   5.489340e+05
   9.640129e+03   3.568766e+05
   1.047001e+05  -1.121952e+05
   2.482459e+05  -2.679558e+05
   2.097036e+05   1.625032e+05
  -1.362948e+05   7.395174e+05
  -6.539448e+05   7.583313e+05
  -9.184286e+05   7.563476e+04
  -5.425930e+05  -6.744100e+05
   3.093348e+05  -7.677310e+05
   8.772207e+05  -1.781020e+05
   5.235282e+05   4.397748e+05
  -4.955180e+05   4.814322e+05
  -1.180950e+06  -3.690557e+04
  -8.114964e+05  -6.087895e+05
   2.907660e+05  -7.664345e+05
   1.103451e+06  -4.335523e+05
   9.505451e+05   9.235041e+04
   1.296613e+05   3.873599e+05
  -4.641591e+05   2.237955e+05
  -2.579888e+05  -1.970195e+05
   4.582336e+05  -3.513763e+05
   8.596424e+05   1.079444e+05
   4.331531e+05   8.909581e+05
  -5.020096e+05   1.223148e+06
  -1.121372e+06   6.037918e+05
  -9.150415e+05  -5.821402e+05
  -1.341849e+05  -1.328272e+06
   5.468176e+05  -9.778624e+05
   6.863940e+05   9.554086e+04
   3.500904e+05   8.681553e+05
  -1.139769e+05   7.340859e+05
  -3.964460e+05   7.905264e+04
  -3.764388e+05  -2.842510e+05
  -1.593016e+05  -1.107776e+05
  -2.005181e+04   8.101920e+04
  -1.465723e+05  -1.951275e+05
  -3.492512e+05  -7.011630e+05
  -1.842705e+05  -7.977990e+05
   4.719126e+05  -2.922337e+05
   1.089982e+06   3.474694e+05
   9.814317e+05   6.158416e+05
   1.378680e+05   5.042541e+05
  -6.667297e+05   3.035045e+05
  -7.367677e+05   1.457199e+05
  -2.313921e+05  -2.054535e+04
   1.226266e+05  -1.626067e+05
  -1.850364e+04  -1.692338e+05
  -2.421952e+05  -9.200092e+04
  -1.827787e+04  -1.021149e+05
   5.378720e+05  -1.557866e+05
   7.631598e+05   2.922553e+04
   2.455032e+05   5.086465e+05
  -6.705306e+05   8.351181e+05
  -1.224299e+06   5.078898e+05
  -9.790879e+05  -3.564192e+05
  -1.752009e+05  -1.043027e+06
   5.617617e+05  -9.878506e+05
   7.753770e+05  -3.570397e+05
   4.874498e+05   1.990741e+05
   7.638948e+04   2.645405e+05
  -9.219693e+04   2.566472e+04
   4.294406e+04  -3.994376e+04
   2.367903e+05   2.568297e+05
   1.930691e+05   5.924802e+05
  -1.455080e+05   4.883708e+05
  -5.095403e+05  -1.210716e+05
  -5.131478e+05  -7.329782e+05
  -3.182457e+04  -7.572175e+05
   5.824424e+05  -1.399055e+05
   7.445809e+05   5.734861e+05
   2.213095e+05   8.022105e+05
  -5.374377e+05   4.629929e+05
  -8.013330e+05  -7.642462e+04
  -3.599067e+05  -4.281854e+05
   2.163195e+05  -4.587782e+05
   2.491136e+05  -2.551508e+05
  -2.184914e+05  -1.878251e+04
  -4.867428e+05   1.907629e+04
  -9.228627e+04  -2.214655e+05
   6.099741e+05  -4.969332e+05
   8.947261e+05  -4.107845e+05
   5.199279e+05   1.113797e+05
  -8.148850e+04   6.232915e+05
  -3.819864e+05   6.064888e+05
  -2.810611e+05   8.663851e+04
  -1.879003e+04  -3.682970e+05
   1.873330e+05  -2.993444e+05
   2.624143e+05   1.414084e+05
   1.772899e+05   4.271592e+05
  -5.318058e+04   2.855039e+05
  -2.865530e+05  -4.937848e+04
  -3.337191e+05  -1.887943e+05
  -1.748984e+05  -5.318844e+04
   5.855057e+03   8.758204e+04
   5.466081e+04  -1.793977e+04
   3.482017e+04  -2.838028e+05
   1.052467e+05  -3.755748e+05
   2.610866e+05  -1.035858e+05
   2.961862e+05   3.227651e+05
   5.586170e+04   4.870639e+05
  -3.192579e+05   2.140313e+05
  -4.669005e+05  -2.328378e+05
  -1.672855e+05  -4.367975e+05
   3.664540e+05  -2.586735e+05
   6.302064e+05   7.797543e+04
   3.395249e+05   2.824918e+05
  -2.210123e+05   2.684895e+05
  -4.654157e+05   1.335270e+05
  -1.606643e+05   4.123794e+03
   2.904723e+05  -2.667867e+04
   3.154179e+05   8.231227e+04
  -1.505539e+05   2.356329e+05
  -5.923517e+05   1.971832e+05
