
 $NMID
 id='ANONYMOUS ', fmtdat='(2E16.6)'
 volume=1.0
 tramp=1.0
 $END
  -4.986089e+07  -7.594347e+05
  -2.946592e+07  -3.179819e+07
   7.422446e+06  -3.387416e+07
   2.491662e+07  -1.220870e+07
   1.444640e+07   6.941509e+06
  -3.289355e+06   8.246155e+06
  -8.705883e+06  -1.545216e+06
  -2.055565e+06  -8.812455e+06
   5.883746e+06  -7.937419e+06
   8.601374e+06  -1.382139e+06
   5.982695e+06   5.562470e+06
   5.384385e+05   7.470362e+06
  -3.492189e+06   2.365084e+06
  -2.100494e+06  -4.664295e+06
   3.524206e+06  -5.506295e+06
   6.909874e+06   1.433735e+06
   3.652746e+06   9.089355e+06
  -3.601619e+06   1.029754e+07
  -8.999377e+06   5.043116e+06
  -9.510709e+06  -1.899735e+06
  -5.853944e+06  -6.658883e+06
  -6.164345e+05  -7.759244e+06
   2.742007e+06  -5.497557e+06
   1.995297e+06  -2.383635e+06
  -6.583502e+05  -1.698309e+06
  -1.698349e+05  -3.402814e+06
   4.557791e+06  -3.673981e+06
   8.239500e+06  -3.561538e+05
   6.068463e+06   3.614077e+06
   3.077859e+05   4.373217e+06
  -3.068645e+06   2.242463e+06
  -2.089819e+06   1.744432e+05
   3.613219e+05  -5.703345e+05
   1.700581e+06  -3.431732e+05
   1.752077e+06   1.080306e+06
   6.294719e+05   3.231517e+06
  -1.536017e+06   3.366236e+06
  -2.901015e+06   3.447645e+04
  -1.606715e+06  -3.170500e+06
   6.394475e+05  -1.856471e+06
   2.988257e+05   1.938036e+06
  -2.158532e+06   1.867135e+06
  -2.056506e+06  -2.898185e+06
   2.366282e+06  -5.407947e+06
   6.312024e+06  -7.941775e+05
   4.472924e+06   6.249287e+06
  -1.868027e+06   7.558732e+06
  -6.589736e+06   2.017232e+06
  -5.919357e+06  -4.055143e+06
  -1.370975e+06  -5.292722e+06
   3.116977e+06  -2.199801e+06
   4.468897e+06   1.548947e+06
   1.927323e+06   3.145409e+06
  -2.229863e+06   1.857155e+06
  -3.956146e+06  -9.482105e+05
  -1.626850e+06  -2.466481e+06
   1.548635e+06  -1.168572e+06
   1.448991e+06   9.589102e+05
  -1.288663e+06   7.383978e+05
  -2.179468e+06  -1.741647e+06
   7.168421e+05  -3.173697e+06
   4.260369e+06  -1.611563e+06
   4.693140e+06   1.387752e+06
   1.940510e+06   3.601094e+06
  -1.640098e+06   4.537281e+06
  -4.343893e+06   4.081986e+06
  -5.347813e+06   1.437525e+06
  -3.949043e+06  -2.752009e+06
  -7.284419e+05  -5.331152e+06
   1.779211e+06  -4.067759e+06
   1.649480e+06  -9.247290e+05
   1.161766e+05   3.770770e+05
  -1.621951e+05  -7.382388e+05
   1.239623e+06  -1.524681e+06
   2.319029e+06  -2.640079e+05
   1.683648e+06   1.555840e+06
   3.780204e+04   1.735103e+06
  -1.226124e+06   1.259926e+05
  -1.313661e+06  -1.751697e+06
   5.057051e+04  -2.458320e+06
   2.359569e+06  -1.385925e+06
   3.825866e+06   1.045194e+06
   2.769611e+06   3.286503e+06
  -6.548715e+04   3.713708e+06
  -2.046912e+06   2.381612e+06
  -2.020475e+06   9.574434e+05
  -1.640873e+06   5.102699e+05
  -2.544494e+06   2.892532e+05
  -3.691686e+06  -8.002569e+05
  -2.881889e+06  -2.469769e+06
   2.021503e+04  -3.507536e+06
   2.819717e+06  -3.208751e+06
   3.560252e+06  -1.702988e+06
   2.233225e+06   3.738770e+05
   2.239751e+05   1.863632e+06
  -9.332191e+05   1.619552e+06
  -4.764242e+05  -2.393012e+04
   9.407161e+05  -1.083493e+06
   1.643017e+06  -2.945362e+05
   7.792250e+05   1.050858e+06
  -4.536099e+05   9.215999e+05
  -3.171782e+05  -3.635501e+05
   1.005084e+06  -5.208586e+05
   1.583702e+06   1.283731e+06
   3.546158e+05   3.110430e+06
  -1.635383e+06   2.839509e+06
  -2.808077e+06   7.120079e+05
  -2.718090e+06  -1.447318e+06
  -1.737940e+06  -2.425512e+06
  -2.563698e+05  -2.188331e+06
   1.081155e+06  -1.190086e+06
   1.327562e+06  -1.542522e+05
   4.164738e+05   5.431656e+04
  -2.791620e+05  -6.526462e+05
   4.050512e+05  -1.148688e+06
   1.671441e+06  -4.429036e+05
   1.724913e+06   8.452471e+05
   2.728733e+05   1.245615e+06
  -1.027222e+06   4.403158e+05
  -7.167722e+05  -4.283940e+05
   7.708746e+05  -3.774753e+05
   1.822467e+06   4.082790e+05
   1.371120e+06   1.231874e+06
  -3.241286e+05   1.631598e+06
  -2.019522e+06   1.291152e+06
  -2.361520e+06   1.276342e+05
  -1.001248e+06  -1.130619e+06
   8.349626e+05  -1.276575e+06
   1.361422e+06  -1.259013e+05
   1.571517e+05   9.376826e+05
  -1.319353e+06   5.854928e+05
  -1.437775e+06  -7.382034e+05
  -2.040540e+05  -1.429003e+06
   9.945776e+05  -7.716623e+05
   1.060653e+06   3.468239e+05
   1.588767e+05   6.933915e+05
  -6.996723e+05   1.933627e+04
  -6.023182e+05  -9.241858e+05
   5.268784e+05  -1.197782e+06
   1.721104e+06  -4.077716e+05
   1.703625e+06   9.525242e+05
   2.610071e+05   1.783951e+06
  -1.291627e+06   1.354918e+06
  -1.484806e+06   1.106364e+05
  -3.873373e+05  -7.667323e+05
   5.971450e+05  -6.553904e+05
   5.238279e+05  -4.073356e+04
  -1.363942e+05   2.757733e+05
  -4.087814e+05   1.217948e+05
  -4.885646e+04  -6.494142e+04
   4.166569e+05   1.175158e+05
   4.118164e+05   6.290607e+05
  -2.398811e+05   1.015919e+06
  -1.217568e+06   7.107711e+05
  -1.758917e+06  -4.264130e+05
  -1.184705e+06  -1.703258e+06
   2.651323e+05  -2.043919e+06
   1.421462e+06  -1.121638e+06
   1.411892e+06   1.885778e+05
   6.560906e+05   7.773030e+05
   2.218602e+05   5.123496e+05
   4.178587e+05   1.606444e+05
   5.602040e+05   2.906824e+05
   6.280059e+04   6.737987e+05
  -7.876741e+05   7.326035e+05
  -1.239147e+06   2.063533e+05
  -8.394319e+05  -6.490065e+05
   2.862564e+05  -1.206147e+06
   1.500763e+06  -8.308793e+05
   1.882649e+06   4.950350e+05
   8.766989e+05   1.832391e+06
  -9.637952e+05   1.985187e+06
  -2.220261e+06   7.766226e+05
  -1.968596e+06  -6.723034e+05
  -7.257507e+05  -1.181149e+06
   2.382869e+05  -7.665289e+05
   3.307625e+05  -3.812778e+05
   4.439959e+04  -6.297659e+05
   1.008184e+05  -1.129400e+06
   6.140632e+05  -1.095967e+06
   1.122112e+06  -2.393404e+05
   1.107502e+06   9.560213e+05
   4.151833e+05   1.624133e+06
  -5.701917e+05   1.199414e+06
  -1.090137e+06  -5.059624e+04
  -6.429268e+05  -1.132516e+06
   3.994669e+05  -1.180706e+06
   1.033505e+06  -2.857168e+05
   6.792343e+05   6.594338e+05
  -1.628904e+05   9.395708e+05
  -5.188163e+05   6.504201e+05
  -1.042865e+05   3.392616e+05
   3.622896e+05   2.891046e+05
   4.245237e+04   3.229247e+05
  -9.963751e+05   1.394513e+05
  -1.761459e+06  -3.522051e+05
  -1.343414e+06  -9.455189e+05
   9.737184e+04  -1.240438e+06
   1.411981e+06  -9.318386e+05
   1.578431e+06  -1.619028e+05
   6.906266e+05   4.798424e+05
  -2.490330e+05   4.923788e+05
  -4.470015e+05   1.274807e+03
  -2.686455e+04  -3.753685e+05
   3.723983e+05  -2.092925e+05
   4.022662e+05   3.036104e+05
   2.160933e+05   6.093769e+05
   8.961584e+04   4.032274e+05
   1.203946e+05  -5.857873e+04
   2.317849e+05  -2.143507e+05
   2.224138e+05   2.097125e+05
  -1.398641e+05   8.220655e+05
  -7.965526e+05   8.827628e+05
  -1.188181e+06   1.304957e+05
  -7.258248e+05  -7.951588e+05
   3.818622e+05  -9.791875e+05
   1.090688e+06  -2.776217e+05
   6.084362e+05   4.991053e+05
  -6.241189e+05   5.247456e+05
  -1.336267e+06  -1.486410e+05
  -7.918421e+05  -7.785784e+05
   4.731768e+05  -8.065739e+05
   1.286925e+06  -3.185309e+05
   1.018949e+06   2.263699e+05
   8.184930e+04   4.365706e+05
  -5.656266e+05   1.950364e+05
  -3.281295e+05  -2.688716e+05
   4.958649e+05  -4.383937e+05
   1.001582e+06   7.961067e+04
   5.625986e+05   1.005604e+06
  -5.129008e+05   1.436229e+06
  -1.264682e+06   7.302323e+05
  -1.045044e+06  -6.648408e+05
  -1.256888e+05  -1.517346e+06
   6.663971e+05  -1.059518e+06
   7.763482e+05   1.974546e+05
   3.099173e+05   1.028861e+06
  -2.443866e+05   8.030751e+05
  -4.890056e+05   4.409495e+04
  -3.627569e+05  -3.314166e+05
  -1.104716e+05  -1.168489e+05
  -5.387487e+04   7.332345e+04
  -2.645327e+05  -2.699802e+05
  -4.183270e+05  -8.388175e+05
  -1.017353e+05  -9.178296e+05
   6.505774e+05  -3.133371e+05
   1.232016e+06   4.350834e+05
   1.033748e+06   7.485056e+05
   1.346349e+05   6.036388e+05
  -7.095316e+05   3.322838e+05
  -8.309686e+05   1.169342e+05
  -3.274518e+05  -6.742490e+04
   1.190611e+05  -1.890941e+05
   6.768098e+04  -1.611825e+05
  -1.876984e+05  -7.271087e+04
  -5.239080e+04  -1.107897e+05
   5.301127e+05  -1.935666e+05
   8.913936e+05   2.299694e+04
   4.018286e+05   5.979044e+05
  -7.062801e+05   9.984540e+05
  -1.480245e+06   6.326121e+05
  -1.229585e+06  -3.727323e+05
  -2.167888e+05  -1.192506e+06
   6.887834e+05  -1.164405e+06
   9.010876e+05  -4.589852e+05
   5.448872e+05   1.917927e+05
   1.214951e+05   3.063184e+05
  -2.873167e+04   7.287306e+04
   8.297577e+04   1.026804e+04
   2.320147e+05   3.309790e+05
   1.788495e+05   6.932854e+05
  -1.578317e+05   5.804370e+05
  -5.670614e+05  -9.209604e+04
  -6.292980e+05  -7.960743e+05
  -1.197521e+05  -8.787422e+05
   6.191716e+05  -2.299793e+05
   8.753227e+05   5.966702e+05
   3.008192e+05   9.315760e+05
  -6.094114e+05   5.894307e+05
  -9.659590e+05  -7.088113e+04
  -4.636264e+05  -5.524282e+05
   2.553117e+05  -6.042038e+05
   3.577269e+05  -3.162860e+05
  -1.761981e+05  -2.177332e+03
  -5.433929e+05   2.674524e+04
  -1.312198e+05  -2.696632e+05
   7.138005e+05  -5.575265e+05
   1.110049e+06  -4.140209e+05
   6.799073e+05   1.874349e+05
  -9.274284e+04   7.499921e+05
  -5.119618e+05   7.341141e+05
  -3.957415e+05   1.574908e+05
  -5.443373e+04  -3.925959e+05
   2.023767e+05  -3.838680e+05
   2.923408e+05   1.006138e+05
   2.114702e+05   4.930271e+05
  -4.090816e+04   3.894544e+05
  -3.317521e+05  -3.042577e+04
  -4.122852e+05  -2.664667e+05
  -2.064702e+05  -1.049590e+05
   4.441226e+04   1.509147e+05
   7.435650e+04   8.806285e+04
  -4.605402e+04  -2.770243e+05
  -1.334223e+04  -4.956845e+05
   2.498511e+05  -2.361578e+05
   4.222632e+05   2.882693e+05
   1.791096e+05   5.430928e+05
  -3.340669e+05   2.758512e+05
  -5.801470e+05  -2.239513e+05
  -2.230426e+05  -4.767679e+05
   4.455729e+05  -3.090966e+05
   7.668859e+05   6.038148e+04
   4.114762e+05   3.259643e+05
  -2.531419e+05   3.602623e+05
  -5.525031e+05   2.155030e+05
  -2.379672e+05   1.946225e+04
   2.575632e+05  -7.669300e+04
   3.286912e+05   2.440507e+04
  -1.192949e+05   2.212865e+05
  -5.872209e+05   2.185542e+05
