
 $NMID
 id='ANONYMOUS ', fmtdat='(2E16.6)'
 volume=1.0
 tramp=1.0
 $END
  -4.927319e+07  -1.867391e+05
  -2.958327e+07  -3.027216e+07
   6.380278e+06  -3.315954e+07
   2.397326e+07  -1.303880e+07
   1.445726e+07   5.788274e+06
  -2.740001e+06   8.139541e+06
  -8.596669e+06  -8.397833e+05
  -2.620388e+06  -8.470714e+06
   5.254787e+06  -8.357519e+06
   8.436252e+06  -1.918935e+06
   6.195207e+06   5.468392e+06
   7.342202e+05   7.651147e+06
  -3.560983e+06   2.393779e+06
  -2.398392e+06  -4.920674e+06
   3.246778e+06  -5.907925e+06
   6.922515e+06   1.083779e+06
   3.966478e+06   8.951344e+06
  -3.273152e+06   1.038661e+07
  -8.876527e+06   5.176350e+06
  -9.470704e+06  -1.870320e+06
  -5.703494e+06  -6.605587e+06
  -5.012088e+05  -7.492149e+06
   2.489610e+06  -5.160718e+06
   1.385276e+06  -2.354095e+06
  -1.177081e+06  -2.079189e+06
  -2.000731e+05  -3.883504e+06
   4.963134e+06  -3.934403e+06
   8.702186e+06  -3.645585e+05
   6.238773e+06   3.737759e+06
   8.711382e+04   4.510968e+06
  -3.460682e+06   2.220511e+06
  -2.236502e+06  -1.491912e+05
   6.937363e+05  -1.012007e+06
   2.257251e+06  -4.580138e+05
   2.046050e+06   1.438157e+06
   5.342901e+05   3.643288e+06
  -1.672265e+06   3.381051e+06
  -2.786828e+06  -2.283141e+05
  -1.375460e+06  -3.232694e+06
   7.310161e+05  -1.548445e+06
   2.596077e+05   2.344525e+06
  -2.206627e+06   2.121767e+06
  -2.191779e+06  -2.774751e+06
   2.027990e+06  -5.361156e+06
   5.962746e+06  -8.909111e+05
   4.436660e+06   6.028996e+06
  -1.640816e+06   7.430527e+06
  -6.518498e+06   2.114678e+06
  -6.215196e+06  -3.907051e+06
  -1.742304e+06  -5.358960e+06
   3.062126e+06  -2.491353e+06
   4.749475e+06   1.262725e+06
   2.257379e+06   3.056857e+06
  -2.076999e+06   1.968004e+06
  -3.999350e+06  -7.671539e+05
  -1.753928e+06  -2.366981e+06
   1.501774e+06  -1.213485e+06
   1.588003e+06   8.904849e+05
  -1.077210e+06   8.602574e+05
  -2.172366e+06  -1.408277e+06
   4.257435e+05  -2.907885e+06
   3.936098e+06  -1.677876e+06
   4.631726e+06   1.097403e+06
   2.072306e+06   3.448135e+06
  -1.622729e+06   4.684628e+06
  -4.539478e+06   4.330023e+06
  -5.563434e+06   1.522073e+06
  -4.050535e+06  -2.869749e+06
  -8.197873e+05  -5.533978e+06
   1.599773e+06  -4.292302e+06
   1.502709e+06  -1.186275e+06
   1.821854e+05   9.581807e+04
   1.172539e+05  -9.547399e+05
   1.589351e+06  -1.581995e+06
   2.615212e+06  -1.133922e+05
   1.838388e+06   1.866028e+06
  -3.441378e+04   2.027934e+06
  -1.504353e+06   1.941115e+05
  -1.588590e+06  -1.942023e+06
   5.111493e+03  -2.708483e+06
   2.538934e+06  -1.476584e+06
   4.024433e+06   1.125807e+06
   2.845223e+06   3.387342e+06
  -6.306616e+04   3.740201e+06
  -2.011218e+06   2.381374e+06
  -1.946439e+06   1.016702e+06
  -1.619322e+06   6.565907e+05
  -2.667138e+06   4.862250e+05
  -3.972736e+06  -6.482990e+05
  -3.209407e+06  -2.500998e+06
  -1.486423e+05  -3.787678e+06
   2.937354e+06  -3.602920e+06
   3.854872e+06  -1.947047e+06
   2.445522e+06   4.205323e+05
   2.197738e+05   2.080842e+06
  -1.044750e+06   1.772374e+06
  -5.179146e+05  -4.768856e+04
   1.011071e+06  -1.206806e+06
   1.744055e+06  -3.683923e+05
   8.309858e+05   1.102451e+06
  -4.861451e+05   1.034289e+06
  -4.235678e+05  -3.455359e+05
   9.249474e+05  -6.815734e+05
   1.692049e+06   1.075468e+06
   6.831265e+05   3.116383e+06
  -1.320271e+06   3.162945e+06
  -2.816307e+06   1.141289e+06
  -3.089564e+06  -1.233747e+06
  -2.180236e+06  -2.528403e+06
  -4.591381e+05  -2.432187e+06
   1.149018e+06  -1.364223e+06
   1.466321e+06  -2.108655e+05
   4.555683e+05   4.015747e+04
  -3.352887e+05  -6.920723e+05
   3.689711e+05  -1.228382e+06
   1.741126e+06  -5.372875e+05
   1.869894e+06   7.963293e+05
   3.675457e+05   1.292177e+06
  -1.074999e+06   5.373269e+05
  -8.371554e+05  -4.118053e+05
   7.666792e+05  -5.044776e+05
   2.028445e+06   2.536344e+05
   1.652242e+06   1.236403e+06
  -1.976679e+05   1.841057e+06
  -2.125406e+06   1.558463e+06
  -2.565814e+06   2.716700e+05
  -1.127201e+06  -1.157643e+06
   8.411656e+05  -1.378823e+06
   1.428051e+06  -1.749162e+05
   1.805306e+05   9.930752e+05
  -1.397916e+06   6.846328e+05
  -1.592485e+06  -7.089942e+05
  -3.309350e+05  -1.522358e+06
   9.923931e+05  -9.175667e+05
   1.163784e+06   2.676364e+05
   2.398781e+05   7.140882e+05
  -7.293588e+05   5.411809e+04
  -6.829694e+05  -9.711349e+05
   5.306647e+05  -1.320259e+06
   1.859192e+06  -5.077577e+05
   1.888095e+06   9.661306e+05
   3.636024e+05   1.917565e+06
  -1.322127e+06   1.525540e+06
  -1.594190e+06   2.054344e+05
  -4.722310e+05  -7.984624e+05
   6.032477e+05  -7.487702e+05
   5.931739e+05  -7.507441e+04
  -9.865127e+04   3.442789e+05
  -4.593481e+05   2.107725e+05
  -1.341057e+05  -5.653670e+04
   3.994050e+05   5.620630e+04
   4.829113e+05   6.044908e+05
  -1.777527e+05   1.093972e+06
  -1.271574e+06   8.361280e+05
  -1.928580e+06  -3.725809e+05
  -1.364435e+06  -1.792710e+06
   1.889401e+05  -2.245583e+06
   1.487685e+06  -1.324187e+06
   1.571149e+06   9.962366e+04
   8.137973e+05   8.293432e+05
   3.080182e+05   6.202003e+05
   4.370624e+05   2.168591e+05
   5.679685e+05   2.872225e+05
   8.286757e+04   6.997769e+05
  -8.025526e+05   8.386245e+05
  -1.339221e+06   3.143552e+05
  -9.845330e+05  -6.627849e+05
   2.155442e+05  -1.360200e+06
   1.587886e+06  -1.008347e+06
   2.087108e+06   4.339176e+05
   1.064295e+06   1.935557e+06
  -9.159224e+05   2.191222e+06
  -2.340736e+06   9.701795e+05
  -2.180629e+06  -5.887833e+05
  -9.043331e+05  -1.229680e+06
   1.747712e+05  -8.851329e+05
   3.619006e+05  -4.880866e+05
   8.416283e+04  -7.026512e+05
   1.004273e+05  -1.204810e+06
   6.150435e+05  -1.188741e+06
   1.192964e+06  -2.973248e+05
   1.242677e+06   9.957945e+05
   5.243212e+05   1.753187e+06
  -5.701089e+05   1.334993e+06
  -1.190972e+06   6.313425e+03
  -7.591055e+05  -1.179733e+06
   3.487648e+05  -1.291283e+06
   1.063756e+06  -3.855248e+05
   7.482079e+05   6.303626e+05
  -1.036710e+05   9.863028e+05
  -4.821361e+05   7.236766e+05
  -7.074578e+04   3.879474e+05
   4.023548e+05   3.117598e+05
   5.679124e+04   3.561871e+05
  -1.058810e+06   1.999556e+05
  -1.906885e+06  -2.975987e+05
  -1.501519e+06  -9.488296e+05
   2.422620e+04  -1.322040e+06
   1.460503e+06  -1.059325e+06
   1.690669e+06  -2.693122e+05
   7.729374e+05   4.450265e+05
  -2.377236e+05   5.234289e+05
  -4.702310e+05   3.579940e+04
  -2.631821e+04  -3.869255e+05
   4.116243e+05  -2.421280e+05
   4.476059e+05   3.145521e+05
   2.358066e+05   6.724498e+05
   8.821521e+04   4.464132e+05
   1.251797e+05  -9.169727e+04
   2.577283e+05  -2.781444e+05
   2.569123e+05   2.127010e+05
  -1.259050e+05   9.175348e+05
  -8.271393e+05   9.925478e+05
  -1.259019e+06   1.654060e+05
  -7.919923e+05  -8.455273e+05
   3.800741e+05  -1.055871e+06
   1.164409e+06  -3.164849e+05
   6.844791e+05   5.274745e+05
  -6.457487e+05   6.048364e+05
  -1.471915e+06  -7.747121e+04
  -9.387236e+05  -7.901673e+05
   4.391775e+05  -9.179649e+05
   1.382845e+06  -4.547977e+05
   1.142992e+06   1.666312e+05
   1.284796e+05   4.746320e+05
  -5.992705e+05   2.532888e+05
  -3.573197e+05  -2.712467e+05
   5.401568e+05  -4.905359e+05
   1.100790e+06   6.534389e+04
   6.350814e+05   1.092838e+06
  -5.321833e+05   1.589466e+06
  -1.370824e+06   8.381375e+05
  -1.173929e+06  -6.916566e+05
  -2.042562e+05  -1.661616e+06
   6.754341e+05  -1.206061e+06
   8.579158e+05   1.584510e+05
   4.066334e+05   1.101692e+06
  -1.988500e+05   8.966971e+05
  -5.213535e+05   7.987039e+04
  -4.330158e+05  -3.442859e+05
  -1.499261e+05  -1.230608e+05
  -4.520274e+04   8.690700e+04
  -2.663540e+05  -2.776790e+05
  -4.827460e+05  -8.954502e+05
  -1.814022e+05  -9.963650e+05
   6.658266e+05  -3.686019e+05
   1.372731e+06   4.187497e+05
   1.190381e+06   7.637861e+05
   1.765311e+05   6.480552e+05
  -7.836012e+05   4.000006e+05
  -9.095298e+05   1.767201e+05
  -3.391279e+05  -5.138221e+04
   1.309365e+05  -2.125294e+05
   3.730992e+04  -1.845254e+05
  -2.403562e+05  -7.777287e+04
  -5.201395e+04  -1.238069e+05
   6.040670e+05  -2.331090e+05
   9.752548e+05  -3.669853e+03
   4.236042e+05   6.444172e+05
  -7.612939e+05   1.113553e+06
  -1.580257e+06   7.289197e+05
  -1.331698e+06  -3.817349e+05
  -2.777572e+05  -1.303589e+06
   7.002331e+05  -1.291470e+06
   9.716175e+05  -5.210340e+05
   6.125816e+05   2.011667e+05
   1.337878e+05   3.330962e+05
  -5.661881e+04   7.187520e+04
   7.698883e+04  -7.981333e+03
   2.778214e+05   3.404534e+05
   2.353722e+05   7.476160e+05
  -1.559370e+05   6.373890e+05
  -6.348840e+05  -9.409806e+04
  -7.103761e+05  -8.678752e+05
  -1.365338e+05  -9.624273e+05
   6.916255e+05  -2.560770e+05
   9.803646e+05   6.437433e+05
   3.491409e+05   1.010917e+06
  -6.530704e+05   6.514893e+05
  -1.049210e+06  -5.005728e+04
  -5.094953e+05  -5.725309e+05
   2.602610e+05  -6.473144e+05
   3.591338e+05  -3.486083e+05
  -2.188709e+05   2.548789e+03
  -6.008164e+05   4.909919e+04
  -1.449540e+05  -2.876661e+05
   7.576112e+05  -6.420522e+05
   1.172650e+06  -5.094513e+05
   7.226674e+05   1.662413e+05
  -7.628325e+04   8.156503e+05
  -5.131304e+05   8.081083e+05
  -4.084088e+05   1.642540e+05
  -6.562086e+04  -4.408010e+05
   2.144357e+05  -4.166848e+05
   3.314180e+05   1.190223e+05
   2.478173e+05   5.329783e+05
  -4.077070e+04   4.102753e+05
  -3.660767e+05  -2.975275e+04
  -4.499544e+05  -2.628298e+05
  -2.259633e+05  -9.360164e+04
   3.900258e+04   1.500276e+05
   7.435091e+04   5.931439e+04
  -3.597247e+04  -3.236445e+05
   1.451358e+04  -5.310698e+05
   2.890067e+05  -2.335611e+05
   4.527073e+05   3.325879e+05
   1.805282e+05   6.019130e+05
  -3.688505e+05   3.075363e+05
  -6.336128e+05  -2.410149e+05
  -2.541589e+05  -5.250211e+05
   4.702666e+05  -3.504865e+05
   8.318777e+05   4.982983e+04
   4.567365e+05   3.433194e+05
  -2.679307e+05   3.880650e+05
  -5.964869e+05   2.357906e+05
  -2.439876e+05   2.207936e+04
   3.075084e+05  -8.353820e+04
   3.769901e+05   3.528640e+04
  -1.370863e+05   2.667420e+05
  -6.662093e+05   2.701516e+05
