
 $NMID
 id='ANONYMOUS ', fmtdat='(2E16.6)'
 volume=1.0
 tramp=1.0
 $END
  -1.997307e+07   5.069523e+05
  -1.405683e+07  -8.628349e+06
  -8.384910e+05  -1.270540e+07
   8.452597e+06  -9.293422e+06
   7.749768e+06  -1.532216e+06
   8.276841e+05   3.755819e+06
  -4.286086e+06   2.286223e+06
  -3.558726e+06  -3.238718e+06
   7.245450e+05  -6.058510e+06
   3.886800e+06  -2.882371e+06
   3.446228e+06   2.641665e+06
   4.687114e+05   4.431636e+06
  -2.013345e+06   8.704250e+05
  -1.654913e+06  -3.803185e+06
   1.166480e+06  -4.510564e+06
   3.542881e+06  -6.058445e+05
   2.782846e+06   4.018331e+06
  -7.364706e+05   5.239967e+06
  -3.846839e+06   2.541422e+06
  -3.929940e+06  -1.142418e+06
  -1.592214e+06  -2.758641e+06
   2.784039e+05  -2.017932e+06
  -1.893980e+05  -1.076050e+06
  -1.888139e+06  -1.725510e+06
  -2.039966e+06  -3.345273e+06
   7.000733e+05  -3.790041e+06
   4.485786e+06  -1.960242e+06
   5.799263e+06   9.587373e+05
   3.062748e+06   2.748227e+06
  -1.345137e+06   2.231967e+06
  -3.258279e+06   1.091391e+05
  -1.113202e+06  -1.770424e+06
   2.409422e+06  -1.781757e+06
   3.531510e+06   2.499752e+05
   1.540300e+06   2.675165e+06
  -9.589538e+05   3.220158e+06
  -1.506121e+06   1.257326e+06
  -3.401919e+05  -1.187502e+06
   6.403295e+05  -1.413346e+06
   3.413847e+05   7.943535e+05
  -7.734453e+05   2.700836e+06
  -1.658384e+06   1.817342e+06
  -1.559441e+06  -1.010775e+06
  -3.103926e+05  -2.537152e+06
   1.334217e+06  -9.826150e+05
   1.785049e+06   1.908833e+06
   1.664597e+04   2.965930e+06
  -2.821095e+06   1.087583e+06
  -3.980407e+06  -1.863948e+06
  -1.942742e+06  -3.269509e+06
   1.672805e+06  -2.233765e+06
   3.614689e+06   1.592767e+04
   2.344123e+06   1.566402e+06
  -5.335364e+05   1.432065e+06
  -2.154025e+06   1.436713e+05
  -1.317060e+06  -8.939669e+05
   5.929072e+05  -7.024373e+05
   1.330993e+06   3.904404e+05
   1.931930e+05   1.136244e+06
  -1.329629e+06   6.783896e+05
  -1.265745e+06  -5.540857e+05
   5.497164e+05  -1.273595e+06
   2.137686e+06  -5.824312e+05
   1.502578e+06   1.172503e+06
  -1.105500e+06   2.618552e+06
  -3.412922e+06   2.420357e+06
  -3.558337e+06   4.112441e+05
  -1.880033e+06  -2.122884e+06
  -1.505785e+05  -3.460243e+06
   5.021857e+05  -3.004221e+06
   4.810929e+05  -1.758417e+06
   7.607794e+05  -1.043841e+06
   1.600758e+06  -9.225678e+05
   2.347473e+06  -3.386725e+05
   2.185109e+06   1.163552e+06
   9.025451e+05   2.454407e+06
  -8.599625e+05   2.015031e+06
  -1.942402e+06  -1.191483e+05
  -1.469917e+06  -2.143576e+06
   3.245719e+05  -2.307815e+06
   2.082594e+06  -6.287412e+05
   2.424318e+06   1.342050e+06
   1.237860e+06   2.175081e+06
  -2.567517e+05   1.753194e+06
  -8.592260e+05   9.895393e+05
  -6.831365e+05   7.019280e+05
  -8.699559e+05   8.509438e+05
  -2.004432e+06   7.209283e+05
  -3.119256e+06  -2.695884e+05
  -2.610959e+06  -1.882422e+06
  -1.622183e+05  -3.100382e+06
   2.558691e+06  -2.914597e+06
   3.397355e+06  -1.244876e+06
   1.876089e+06   8.249346e+05
  -3.530563e+05   1.834728e+06
  -1.247126e+06   1.200452e+06
  -3.617664e+05  -2.111377e+05
   9.877912e+05  -8.898990e+05
   1.317779e+06  -2.277965e+05
   4.450272e+05   8.215835e+05
  -5.717046e+05   8.509210e+05
  -6.394266e+05  -2.572551e+05
   3.431967e+05  -1.042341e+06
   1.447314e+06  -1.523713e+05
   1.507540e+06   1.911982e+06
   1.045496e+05   3.140967e+06
  -1.960966e+06   2.146872e+06
  -3.168921e+06  -3.495901e+05
  -2.535602e+06  -2.307146e+06
  -5.688624e+05  -2.417693e+06
   1.118391e+06  -1.172826e+06
   1.321940e+06  -4.974837e+04
   3.828459e+05   3.900784e+04
  -2.875565e+05  -5.710982e+05
   1.950231e+05  -9.076148e+05
   1.225881e+06  -4.353524e+05
   1.458186e+06   4.587206e+05
   4.186029e+05   9.211743e+05
  -8.464523e+05   5.131434e+05
  -8.756620e+05  -3.360405e+05
   5.356652e+05  -7.228992e+05
   1.974682e+06  -1.283558e+05
   1.837999e+06   1.064519e+06
   3.935268e+04   1.866766e+06
  -1.855866e+06   1.541289e+06
  -2.212703e+06   2.886648e+05
  -9.223562e+05  -8.666597e+05
   6.200601e+05  -9.801731e+05
   9.876408e+05  -1.074598e+05
   4.099590e+04   7.130755e+05
  -1.127835e+06   5.262783e+05
  -1.354685e+06  -5.018125e+05
  -4.594892e+05  -1.264713e+06
   6.901592e+05  -9.650642e+05
   1.045408e+06  -2.659802e+02
   3.745641e+05   5.324065e+05
  -5.020815e+05   8.505205e+04
  -5.190825e+05  -7.829130e+05
   5.017165e+05  -1.064334e+06
   1.574946e+06  -3.421518e+05
   1.535738e+06   8.545929e+05
   2.926369e+05   1.575500e+06
  -1.041259e+06   1.272445e+06
  -1.309300e+06   2.431920e+05
  -4.731901e+05  -6.331040e+05
   4.689107e+05  -6.786332e+05
   6.058360e+05  -4.195593e+04
  -5.994988e+03   4.908101e+05
  -5.589806e+05   3.679606e+05
  -4.278660e+05  -1.234616e+05
   1.911835e+05  -2.390703e+05
   5.174214e+05   2.923291e+05
   1.145406e+04   8.928073e+05
  -1.015691e+06   7.497393e+05
  -1.622622e+06  -2.889586e+05
  -1.130440e+06  -1.501856e+06
   1.775470e+05  -1.937807e+06
   1.299888e+06  -1.257748e+06
   1.485432e+06  -1.373276e+04
   9.007759e+05   8.564658e+05
   3.074657e+05   8.673922e+05
   1.803618e+05   3.824797e+05
   2.740573e+05   1.535907e+05
   4.739061e+04   4.520387e+05
  -6.150145e+05   7.525270e+05
  -1.186637e+06   3.769586e+05
  -9.905794e+05  -6.139654e+05
   9.436054e+04  -1.340159e+06
   1.379874e+06  -9.798198e+05
   1.846276e+06   3.444181e+05
   1.003071e+06   1.618410e+06
  -6.216702e+05   1.852905e+06
  -1.872976e+06   9.392696e+05
  -1.941955e+06  -3.354381e+05
  -1.011349e+06  -1.055070e+06
   3.124154e+04  -9.715423e+05
   4.723314e+05  -5.987829e+05
   3.476887e+05  -5.531102e+05
   2.166674e+05  -8.428083e+05
   4.740241e+05  -8.792838e+05
   9.240522e+05  -2.074025e+05
   1.004195e+06   8.698899e+05
   4.070826e+05   1.502326e+06
  -5.205934e+05   1.127269e+06
  -1.032033e+06   3.018838e+04
  -6.904194e+05  -9.292807e+05
   1.717453e+05  -1.089281e+06
   7.631504e+05  -4.877794e+05
   6.289565e+05   2.972633e+05
   8.181531e+04   7.128691e+05
  -2.051657e+05   6.548643e+05
   1.734377e+04   4.202354e+05
   2.966368e+05   3.118596e+05
   1.852035e+04   3.207224e+05
  -8.285162e+05   1.954574e+05
  -1.516717e+06  -2.153535e+05
  -1.271102e+06  -7.437429e+05
  -1.059701e+05  -1.032249e+06
   1.091396e+06  -8.541617e+05
   1.388168e+06  -3.150734e+05
   7.133857e+05   2.124894e+05
  -1.305687e+05   3.656437e+05
  -3.576073e+05   1.018641e+05
   2.686374e+04  -2.199294e+05
   4.057981e+05  -1.658874e+05
   3.551335e+05   2.738951e+05
   5.998772e+04   6.018258e+05
  -5.311666e+04   3.803093e+05
   1.284794e+05  -1.659266e+05
   3.309317e+05  -3.387618e+05
   2.438086e+05   1.707532e+05
  -1.841109e+05   8.199917e+05
  -7.069004e+05   8.112986e+05
  -9.141595e+05   5.021109e+04
  -5.098953e+05  -7.230402e+05
   3.279524e+05  -7.710521e+05
   8.968353e+05  -1.344561e+05
   5.518284e+05   4.985400e+05
  -5.245164e+05   5.371191e+05
  -1.318066e+06  -1.161703e+04
  -9.712680e+05  -6.616343e+05
   2.627134e+05  -8.986847e+05
   1.235777e+06  -5.584737e+05
   1.102995e+06   6.521083e+04
   1.711975e+05   4.440253e+05
  -5.044255e+05   2.746972e+05
  -2.624129e+05  -1.917633e+05
   5.263019e+05  -3.421357e+05
   9.193650e+05   1.719635e+05
   3.994490e+05   9.872911e+05
  -6.227313e+05   1.287665e+06
  -1.251173e+06   5.952596e+05
  -9.826544e+05  -6.673703e+05
  -1.213716e+05  -1.463388e+06
   6.136805e+05  -1.097590e+06
   7.694331e+05   7.123669e+04
   4.200921e+05   9.548291e+05
  -8.195862e+04   8.445236e+05
  -4.229216e+05   1.102601e+05
  -4.483870e+05  -3.317873e+05
  -2.153821e+05  -1.462289e+05
  -8.215968e+03   1.053325e+05
  -1.000710e+05  -1.717701e+05
  -3.532429e+05  -7.523341e+05
  -2.458556e+05  -8.949597e+05
   4.587234e+05  -3.369664e+05
   1.197322e+06   3.943469e+05
   1.118897e+06   6.929340e+05
   1.546752e+05   5.429609e+05
  -7.757634e+05   3.109095e+05
  -8.273867e+05   1.657169e+05
  -2.199548e+05   9.595084e+03
   1.527269e+05  -1.675521e+05
  -6.656055e+04  -2.214971e+05
  -3.148814e+05  -1.452645e+05
   3.899438e+03  -1.116675e+05
   6.461832e+05  -1.289003e+05
   8.213680e+05   6.043109e+04
   1.772912e+05   5.334064e+05
  -7.927730e+05   8.535983e+05
  -1.296076e+06   4.967211e+05
  -9.832829e+05  -4.247696e+05
  -1.476005e+05  -1.144581e+06
   6.108257e+05  -1.049675e+06
   8.427806e+05  -3.365099e+05
   5.299493e+05   2.591362e+05
   5.417533e+04   2.845147e+05
  -1.436936e+05  -1.595889e+04
   3.635871e+04  -8.443873e+04
   2.827491e+05   2.719952e+05
   2.216651e+05   6.530808e+05
  -1.778187e+05   5.146903e+05
  -5.564823e+05  -1.823932e+05
  -5.028408e+05  -8.395540e+05
   4.177132e+04  -8.070191e+05
   6.599406e+05  -8.049688e+04
   7.703027e+05   6.858538e+05
   1.880331e+05   8.676125e+05
  -5.959199e+05   4.500716e+05
  -8.402792e+05  -1.113081e+05
  -3.583140e+05  -4.312878e+05
   2.326480e+05  -4.463238e+05
   2.307369e+05  -2.687247e+05
  -2.817666e+05  -5.270919e+04
  -5.410719e+05   5.266104e+01
  -8.045971e+04  -2.301473e+05
   6.753458e+05  -5.337572e+05
   9.468759e+05  -4.714740e+05
   5.211232e+05   8.521045e+04
  -1.033766e+05   6.554046e+05
  -3.823578e+05   6.385980e+05
  -2.522930e+05   6.158519e+04
   1.746332e+04  -4.160542e+05
   2.147786e+05  -2.929437e+05
   2.767379e+05   2.036503e+05
   1.754701e+05   4.688092e+05
  -6.907421e+04   2.668491e+05
  -3.047865e+05  -7.950616e+04
  -3.482637e+05  -1.797490e+05
  -1.932362e+05  -3.432543e+04
  -1.167482e+04   5.699840e+04
   7.199908e+04  -8.960375e+04
   1.109617e+05  -3.248258e+05
   2.015592e+05  -3.413985e+05
   2.994318e+05  -2.059919e+04
   2.456164e+05   3.999320e+05
  -3.102714e+04   5.233505e+05
  -3.706983e+05   1.985652e+05
  -4.664803e+05  -2.888156e+05
  -1.447779e+05  -4.925827e+05
   3.901312e+05  -2.676199e+05
   6.526876e+05   1.160962e+05
   3.480566e+05   3.143683e+05
  -2.411410e+05   2.524652e+05
  -4.895604e+05   9.396033e+04
  -1.381667e+05  -5.966269e+02
   3.587491e+05   2.353383e+04
   3.505325e+05   1.511406e+05
  -2.152705e+05   2.744678e+05
  -7.139469e+05   1.847462e+05
