
 $NMID
 id='ANONYMOUS ', fmtdat='(2E16.6)'
 volume=1.0
 tramp=1.0
 $END
   4.679685e+07   1.534278e+06
   2.719791e+07   2.971730e+07
  -7.106228e+06   3.136296e+07
  -2.318842e+07   1.156225e+07
  -1.350047e+07  -6.065157e+06
   2.911303e+06  -7.642987e+06
   8.115950e+06   1.147372e+06
   2.151246e+06   8.132650e+06
  -5.286284e+06   7.683731e+06
  -8.050470e+06   1.500751e+06
  -5.694023e+06  -5.346875e+06
  -4.779100e+05  -7.230167e+06
   3.423740e+06  -2.179411e+06
   2.111569e+06   4.662767e+06
  -3.255199e+06   5.432172e+06
  -6.515816e+06  -1.264111e+06
  -3.472403e+06  -8.594419e+06
   3.418051e+06  -9.731268e+06
   8.560027e+06  -4.654691e+06
   8.938282e+06   2.016617e+06
   5.268723e+06   6.422825e+06
   2.961364e+05   7.172725e+06
  -2.555107e+06   4.880854e+06
  -1.488980e+06   2.168964e+06
   9.878940e+05   1.899414e+06
   1.149209e+05   3.595134e+06
  -4.712865e+06   3.581917e+06
  -8.174197e+06   1.543413e+05
  -5.798969e+06  -3.667473e+06
  -1.933727e+04  -4.267920e+06
   3.265817e+06  -2.046625e+06
   2.108398e+06   1.282111e+05
  -5.961393e+05   8.781120e+05
  -2.040585e+06   3.872019e+05
  -1.867473e+06  -1.331237e+06
  -4.551390e+05  -3.395216e+06
   1.643720e+06  -3.168027e+06
   2.672505e+06   2.436293e+05
   1.270797e+06   3.101079e+06
  -7.311704e+05   1.513289e+06
  -2.179046e+05  -2.155220e+06
   2.121576e+06  -1.911704e+06
   1.977370e+06   2.701836e+06
  -2.121599e+06   5.024469e+06
  -5.736634e+06   6.605139e+05
  -4.053554e+06  -5.869824e+06
   1.788266e+06  -7.017158e+06
   6.241000e+06  -1.822397e+06
   5.733378e+06   3.869479e+06
   1.453470e+06   5.091656e+06
  -2.960115e+06   2.229015e+06
  -4.404356e+06  -1.353553e+06
  -1.997306e+06  -2.954126e+06
   2.042409e+06  -1.786477e+06
   3.756441e+06   8.585128e+05
   1.575077e+06   2.301090e+06
  -1.461265e+06   1.103312e+06
  -1.454194e+06  -8.896018e+05
   1.076452e+06  -7.554999e+05
   2.009010e+06   1.452493e+06
  -5.445712e+05   2.782033e+06
  -3.831178e+06   1.464041e+06
  -4.360293e+06  -1.213327e+06
  -1.846315e+06  -3.342324e+06
   1.649640e+06  -4.372249e+06
   4.360512e+06  -3.956434e+06
   5.267079e+06  -1.301144e+06
   3.756604e+06   2.793494e+06
   6.337558e+05   5.224398e+06
  -1.645387e+06   3.978042e+06
  -1.468063e+06   1.029410e+06
  -1.422271e+05  -1.458856e+05
  -6.940508e+04   8.766020e+05
  -1.476588e+06   1.469775e+06
  -2.435262e+06   8.802672e+04
  -1.685312e+06  -1.748233e+06
   5.330548e+04  -1.871573e+06
   1.375846e+06  -1.494705e+05
   1.417457e+06   1.830314e+06
  -6.684408e+04   2.519016e+06
  -2.405613e+06   1.330145e+06
  -3.755150e+06  -1.141199e+06
  -2.604893e+06  -3.259195e+06
   1.516683e+05  -3.539460e+06
   1.972567e+06  -2.205794e+06
   1.881079e+06  -9.001944e+05
   1.547371e+06  -5.536651e+05
   2.506778e+06  -3.649495e+05
   3.689266e+06   7.257898e+05
   2.921130e+06   2.426712e+06
   3.105057e+04   3.533071e+06
  -2.830143e+06   3.275893e+06
  -3.634446e+06   1.721002e+06
  -2.271358e+06  -4.390231e+05
  -1.696886e+05  -1.938128e+06
   1.005646e+06  -1.632182e+06
   4.839933e+05   5.158026e+04
  -9.686765e+05   1.100437e+06
  -1.640441e+06   2.979551e+05
  -7.540246e+05  -1.053831e+06
   4.748423e+05  -9.498809e+05
   3.728809e+05   3.356703e+05
  -8.999601e+05   5.894625e+05
  -1.546356e+06  -1.094114e+06
  -5.094819e+05  -2.952531e+06
   1.371641e+06  -2.888545e+06
   2.673502e+06  -9.323297e+05
   2.817128e+06   1.266205e+06
   1.926931e+06   2.407900e+06
   3.503798e+05   2.260496e+06
  -1.100897e+06   1.235851e+06
  -1.366421e+06   1.603561e+05
  -4.228115e+05  -5.004106e+04
   2.926654e+05   6.540856e+05
  -3.824454e+05   1.139004e+06
  -1.646177e+06   4.528288e+05
  -1.723991e+06  -8.026399e+05
  -3.016926e+05  -1.221018e+06
   1.018546e+06  -4.680502e+05
   7.607816e+05   4.074126e+05
  -7.326103e+05   4.356398e+05
  -1.869677e+06  -3.078368e+05
  -1.483657e+06  -1.196607e+06
   2.449783e+05  -1.694520e+06
   2.019197e+06  -1.380853e+06
   2.393414e+06  -1.781928e+05
   1.018042e+06   1.113857e+06
  -8.250975e+05   1.267961e+06
  -1.343520e+06   1.249284e+05
  -1.454495e+05  -9.347278e+05
   1.322362e+06  -6.005772e+05
   1.462074e+06   7.086658e+05
   2.575369e+05   1.427529e+06
  -9.563480e+05   8.183495e+05
  -1.073690e+06  -2.917214e+05
  -1.961661e+05  -6.751386e+05
   6.853808e+05  -2.908369e+04
   6.114203e+05   9.239368e+05
  -5.277823e+05   1.215878e+06
  -1.743603e+06   4.245634e+05
  -1.732425e+06  -9.498232e+05
  -2.854757e+05  -1.796454e+06
   1.276350e+06  -1.383471e+06
   1.491186e+06  -1.433663e+05
   4.139828e+05   7.586244e+05
  -5.844055e+05   6.782990e+05
  -5.498678e+05   5.396761e+04
   1.048788e+05  -3.093641e+05
   4.261976e+05  -1.750158e+05
   1.095513e+05   5.352851e+04
  -3.767235e+05  -7.556190e+04
  -4.279820e+05  -5.854397e+05
   2.028166e+05  -1.014415e+06
   1.208948e+06  -7.406536e+05
   1.784320e+06   4.015635e+05
   1.220440e+06   1.706604e+06
  -2.380117e+05   2.082342e+06
  -1.419918e+06   1.184316e+06
  -1.452508e+06  -1.414515e+05
  -7.241488e+05  -7.883976e+05
  -2.660674e+05  -5.709869e+05
  -4.081065e+05  -2.048205e+05
  -5.294526e+05  -2.862706e+05
  -5.881900e+04  -6.590762e+05
   7.728314e+05  -7.558112e+05
   1.252330e+06  -2.500503e+05
   8.901982e+05   6.420003e+05
  -2.427849e+05   1.251216e+06
  -1.504002e+06   8.881267e+05
  -1.926152e+06  -4.631383e+05
  -9.318307e+05  -1.831654e+06
   9.199544e+05  -2.013663e+06
   2.209968e+06  -8.324561e+05
   2.008757e+06   6.161399e+05
   7.963698e+05   1.169543e+06
  -1.930114e+05   8.094012e+05
  -3.437011e+05   4.355109e+05
  -8.593794e+04   6.524147e+05
  -1.210408e+05   1.125414e+06
  -6.072067e+05   1.094396e+06
  -1.121844e+06   2.454024e+05
  -1.130331e+06  -9.599596e+05
  -4.403496e+05  -1.644978e+06
   5.661454e+05  -1.226211e+06
   1.107382e+06   2.851654e+04
   6.714869e+05   1.121958e+06
  -3.658870e+05   1.192191e+06
  -1.006863e+06   3.224470e+05
  -6.793695e+05  -6.174877e+05
   1.309261e+05  -9.204557e+05
   4.775907e+05  -6.586438e+05
   8.028907e+04  -3.553064e+05
  -3.672359e+05  -2.990819e+05
  -4.403062e+04  -3.319480e+05
   9.935384e+05  -1.554484e+05
   1.769920e+06   3.314172e+05
   1.370623e+06   9.272398e+05
  -6.454029e+04   1.233448e+06
  -1.394474e+06   9.470471e+05
  -1.582677e+06   1.996838e+05
  -7.047229e+05  -4.428775e+05
   2.385839e+05  -4.838255e+05
   4.403925e+05  -1.720766e+04
   1.598888e+04   3.650474e+05
  -3.871976e+05   2.150700e+05
  -4.085241e+05  -3.048366e+05
  -2.063029e+05  -6.303538e+05
  -7.497097e+04  -4.172957e+05
  -1.182876e+05   7.791029e+04
  -2.429528e+05   2.468539e+05
  -2.318899e+05  -2.053334e+05
   1.395496e+05  -8.478184e+05
   7.967159e+05  -9.014869e+05
   1.181990e+06  -1.230987e+05
   7.199813e+05   8.078800e+05
  -3.824333e+05   9.768713e+05
  -1.095464e+06   2.677930e+05
  -6.229996e+05  -5.076034e+05
   6.187457e+05  -5.435858e+05
   1.364295e+06   1.158678e+05
   8.436676e+05   7.622660e+05
  -4.393278e+05   8.368343e+05
  -1.297010e+06   3.767955e+05
  -1.053187e+06  -1.906500e+05
  -1.034653e+05  -4.435784e+05
   5.649678e+05  -2.163767e+05
   3.267440e+05   2.638176e+05
  -5.130522e+05   4.441962e+05
  -1.022476e+06  -8.654910e+04
  -5.659573e+05  -1.031413e+06
   5.321341e+05  -1.465768e+06
   1.294615e+06  -7.458984e+05
   1.072978e+06   6.728851e+05
   1.454619e+05   1.549022e+06
  -6.606333e+05   1.099740e+06
  -7.920860e+05  -1.742221e+05
  -3.442165e+05  -1.035621e+06
   2.139686e+05  -8.253662e+05
   4.881652e+05  -5.803685e+04
   3.896562e+05   3.309455e+05
   1.322058e+05   1.171914e+05
   4.589418e+04  -7.835436e+04
   2.455732e+05   2.680450e+05
   4.264517e+05   8.466792e+05
   1.368088e+05   9.302284e+05
  -6.343121e+05   3.236063e+05
  -1.263788e+06  -4.264623e+05
  -1.081223e+06  -7.423256e+05
  -1.458834e+05  -6.080813e+05
   7.353658e+05  -3.509711e+05
   8.487393e+05  -1.380787e+05
   3.170669e+05   5.931398e+04
  -1.259922e+05   1.944523e+05
  -4.428527e+04   1.681783e+05
   2.164673e+05   7.604111e+04
   4.698151e+04   1.161493e+05
  -5.625508e+05   2.024276e+05
  -9.074054e+05  -2.114093e+04
  -3.837859e+05  -6.112883e+05
   7.328790e+05  -1.017971e+06
   1.491961e+06  -6.391476e+05
   1.233990e+06   3.876461e+05
   2.254786e+05   1.218519e+06
  -6.866570e+05   1.183683e+06
  -9.172668e+05   4.619303e+05
  -5.635102e+05  -2.005253e+05
  -1.176833e+05  -3.133103e+05
   5.035928e+04  -6.822398e+04
  -7.331796e+04   2.083143e+03
  -2.470023e+05  -3.253379e+05
  -1.970923e+05  -7.013597e+05
   1.608708e+05  -5.895820e+05
   5.869206e+05   1.009939e+05
   6.404676e+05   8.225634e+05
   1.067631e+05   8.990478e+05
  -6.470420e+05   2.243926e+05
  -8.961126e+05  -6.202103e+05
  -3.010220e+05  -9.494138e+05
   6.236464e+05  -5.919634e+05
   9.765071e+05   7.284324e+04
   4.612677e+05   5.488869e+05
  -2.593396e+05   5.991992e+05
  -3.468593e+05   3.156844e+05
   1.994191e+05   1.800769e+03
   5.588050e+05  -3.050840e+04
   1.286246e+05   2.720959e+05
  -7.213509e+05   5.764285e+05
  -1.107315e+06   4.396091e+05
  -6.716969e+05  -1.769366e+05
   9.205388e+04  -7.580654e+05
   5.020552e+05  -7.395540e+05
   3.882292e+05  -1.449624e+05
   5.163878e+04   4.098693e+05
  -2.095486e+05   3.840578e+05
  -3.048023e+05  -1.156553e+05
  -2.170252e+05  -5.019263e+05
   4.768211e+04  -3.838345e+05
   3.397860e+05   3.561862e+04
   4.127882e+05   2.588187e+05
   2.076690e+05   9.531641e+04
  -3.422138e+04  -1.434735e+05
  -6.760590e+04  -6.319772e+04
   3.020609e+04   2.994887e+05
  -2.001771e+04   4.976014e+05
  -2.725089e+05   2.164868e+05
  -4.172705e+05  -3.166384e+05
  -1.588146e+05  -5.638317e+05
   3.490842e+05  -2.781953e+05
   5.853873e+05   2.381383e+05
   2.245725e+05   4.932815e+05
  -4.475467e+05   3.141657e+05
  -7.744639e+05  -6.633858e+04
  -4.168693e+05  -3.310582e+05
   2.592753e+05  -3.567079e+05
   5.618505e+05  -2.071798e+05
   2.304340e+05  -1.473649e+04
  -2.839780e+05   7.277042e+04
  -3.480290e+05  -3.838064e+04
   1.309867e+05  -2.419556e+05
   6.209062e+05  -2.340394e+05
