
 $NMID
 id='ANONYMOUS ', fmtdat='(2E16.6)'
 volume=1.0
 tramp=1.0
 $END
   5.382812e+07  -1.030377e+06
   3.320301e+07   3.228780e+07
  -6.041516e+06   3.643966e+07
  -2.593058e+07   1.496552e+07
  -1.607937e+07  -5.915735e+06
   2.756741e+06  -9.019043e+06
   9.500323e+06   6.602250e+05
   3.139154e+06   9.248195e+06
  -5.568403e+06   9.362345e+06
  -9.233497e+06   2.344390e+06
  -6.911769e+06  -5.855337e+06
  -9.579095e+05  -8.375369e+06
   3.842588e+06  -2.682590e+06
   2.710122e+06   5.380370e+06
  -3.452077e+06   6.590524e+06
  -7.632596e+06  -1.005055e+06
  -4.572344e+06  -9.717074e+06
   3.328659e+06  -1.146352e+07
   9.581360e+06  -5.875885e+06
   1.037876e+07   1.820126e+06
   6.370213e+06   7.054542e+06
   7.467993e+05   8.129611e+06
  -2.533906e+06   5.701763e+06
  -1.412051e+06   2.687781e+06
   1.311653e+06   2.345566e+06
   2.368551e+05   4.272274e+06
  -5.395757e+06   4.364081e+06
  -9.523691e+06   5.247805e+05
  -6.886202e+06  -3.974546e+06
  -1.589547e+05  -4.898941e+06
   3.752815e+06  -2.440976e+06
   2.406964e+06   1.577420e+05
  -8.233187e+05   1.101764e+06
  -2.508875e+06   4.760573e+05
  -2.231931e+06  -1.591433e+06
  -5.967133e+05  -3.977568e+06
   1.760499e+06  -3.707467e+06
   2.998924e+06   1.884144e+05
   1.547907e+06   3.467565e+06
  -7.238928e+05   1.671537e+06
  -2.730914e+05  -2.575525e+06
   2.401459e+06  -2.375899e+06
   2.481714e+06   2.991025e+06
  -2.062985e+06   5.944333e+06
  -6.478492e+06   1.164953e+06
  -5.008496e+06  -6.460493e+06
   1.588787e+06  -8.172463e+06
   7.076797e+06  -2.472342e+06
   6.914363e+06   4.158196e+06
   2.038108e+06   5.869518e+06
  -3.325999e+06   2.816081e+06
  -5.274106e+06  -1.293650e+06
  -2.567481e+06  -3.328588e+06
   2.229904e+06  -2.224445e+06
   4.412403e+06   7.422647e+05
   1.990031e+06   2.556601e+06
  -1.616177e+06   1.368093e+06
  -1.772739e+06  -9.526365e+05
   1.160661e+06  -1.002971e+06
   2.451800e+06   1.464754e+06
  -3.403072e+05   3.208848e+06
  -4.246049e+06   1.972684e+06
  -5.118496e+06  -1.064473e+06
  -2.371016e+06  -3.725614e+06
   1.685817e+06  -5.161841e+06
   4.906606e+06  -4.816000e+06
   6.064842e+06  -1.760400e+06
   4.474786e+06   3.063955e+06
   9.951353e+05   6.048737e+06
  -1.670627e+06   4.762215e+06
  -1.641664e+06   1.367580e+06
  -2.463410e+05  -9.113617e+04
  -1.573096e+05   1.018699e+06
  -1.731981e+06   1.715219e+06
  -2.850488e+06   1.283852e+05
  -2.013247e+06  -2.040152e+06
   4.087562e+04  -2.223977e+06
   1.667394e+06  -2.088295e+05
   1.768307e+06   2.138355e+06
   2.098560e+04   2.980482e+06
  -2.763996e+06   1.648163e+06
  -4.419378e+06  -1.173386e+06
  -3.171544e+06  -3.651036e+06
  -1.150936e+04  -4.085406e+06
   2.138662e+06  -2.649370e+06
   2.104710e+06  -1.168483e+06
   1.772543e+06  -7.665132e+05
   2.937728e+06  -5.864573e+05
   4.392582e+06   6.489198e+05
   3.577219e+06   2.707923e+06
   2.177535e+05   4.175183e+06
  -3.191278e+06   4.008543e+06
  -4.220084e+06   2.185020e+06
  -2.686411e+06  -4.389940e+05
  -2.540252e+05  -2.280784e+06
   1.131140e+06  -1.951699e+06
   5.657994e+05   4.871467e+04
  -1.099912e+06   1.338166e+06
  -1.913603e+06   4.310797e+05
  -9.275206e+05  -1.196214e+06
   5.269693e+05  -1.142707e+06
   4.805046e+05   3.826220e+05
  -1.012787e+06   7.881751e+05
  -1.909941e+06  -1.137228e+06
  -8.378216e+05  -3.435147e+06
   1.396065e+06  -3.551080e+06
   3.112381e+06  -1.337628e+06
   3.456990e+06   1.317208e+06
   2.451650e+06   2.783161e+06
   5.337515e+05   2.691162e+06
  -1.253758e+06   1.516715e+06
  -1.613523e+06   2.463096e+05
  -5.028105e+05  -3.846259e+04
   3.796403e+05   7.590591e+05
  -3.845133e+05   1.360168e+06
  -1.907411e+06   6.218083e+05
  -2.076332e+06  -8.456017e+05
  -4.296686e+05  -1.419879e+06
   1.179504e+06  -6.104940e+05
   9.343025e+05   4.476441e+05
  -8.438844e+05   5.778680e+05
  -2.257124e+06  -2.505914e+05
  -1.850271e+06  -1.354249e+06
   1.965103e+05  -2.047321e+06
   2.331730e+06  -1.751732e+06
   2.829858e+06  -3.338125e+05
   1.260880e+06   1.258877e+06
  -9.029098e+05   1.529995e+06
  -1.566715e+06   2.163093e+05
  -2.126608e+05  -1.087405e+06
   1.530756e+06  -7.739636e+05
   1.769250e+06   7.591192e+05
   3.902336e+05   1.679661e+06
  -1.084360e+06   1.034268e+06
  -1.295416e+06  -2.760378e+05
  -2.803748e+05  -7.879373e+05
   8.024728e+05  -7.385310e+04
   7.664313e+05   1.059807e+06
  -5.675990e+05   1.461212e+06
  -2.042191e+06   5.828493e+05
  -2.093405e+06  -1.040158e+06
  -4.273347e+05  -2.109258e+06
   1.436205e+06  -1.702061e+06
   1.757003e+06  -2.501793e+05
   5.343504e+05   8.759796e+05
  -6.561991e+05   8.364993e+05
  -6.559311e+05   8.712762e+04
   1.074080e+05  -3.888007e+05
   5.135235e+05  -2.394001e+05
   1.551308e+05   7.077400e+04
  -4.448957e+05  -4.520743e+04
  -5.493656e+05  -6.573876e+05
   1.763225e+05  -1.212543e+06
   1.391114e+06  -9.420671e+05
   2.133062e+06   3.844115e+05
   1.528863e+06   1.958601e+06
  -1.802709e+05   2.480349e+06
  -1.628599e+06   1.482877e+06
  -1.741222e+06  -9.092890e+04
  -9.098022e+05  -9.139139e+05
  -3.397559e+05  -6.901620e+05
  -4.746892e+05  -2.333551e+05
  -6.274574e+05  -3.012476e+05
  -1.039905e+05  -7.663637e+05
   8.734444e+05  -9.384805e+05
   1.477248e+06  -3.661764e+05
   1.097446e+06   7.233390e+05
  -2.223417e+05   1.510479e+06
  -1.742466e+06   1.135875e+06
  -2.310928e+06  -4.524451e+05
  -1.203101e+06  -2.123543e+06
   9.774030e+05  -2.433814e+06
   2.570021e+06  -1.107345e+06
   2.420496e+06   6.192130e+05
   1.019905e+06   1.351814e+06
  -1.841450e+05   9.877784e+05
  -4.021265e+05   5.435530e+05
  -8.959676e+04   7.677012e+05
  -9.352943e+04   1.322327e+06
  -6.582232e+05   1.317541e+06
  -1.308789e+06   3.449617e+05
  -1.382183e+06  -1.081595e+06
  -6.001874e+05  -1.926785e+06
   6.122846e+05  -1.479304e+06
   1.315255e+06  -2.271129e+04
   8.562872e+05   1.291031e+06
  -3.643869e+05   1.432519e+06
  -1.169361e+06   4.473878e+05
  -8.401797e+05  -6.792303e+05
   9.352922e+04  -1.090973e+06
   5.181957e+05  -8.115045e+05
   7.349215e+04  -4.334735e+05
  -4.454573e+05  -3.385511e+05
  -6.608440e+04  -3.917548e+05
   1.164274e+06  -2.371769e+05
   2.106024e+06   2.992978e+05
   1.670755e+06   1.025296e+06
  -3.444371e+03   1.460151e+06
  -1.592292e+06   1.190974e+06
  -1.862987e+06   3.229007e+05
  -8.647493e+05  -4.781400e+05
   2.513216e+05  -5.805123e+05
   5.191702e+05  -4.871652e+04
   3.582017e+04   4.221847e+05
  -4.512559e+05   2.697829e+05
  -4.970057e+05  -3.406380e+05
  -2.644004e+05  -7.356074e+05
  -9.977008e+04  -4.878108e+05
  -1.398400e+05   1.044735e+05
  -2.863745e+05   3.099416e+05
  -2.872297e+05  -2.314932e+05
   1.297926e+05  -1.012734e+06
   8.985442e+05  -1.105097e+06
   1.380238e+06  -2.012088e+05
   8.805617e+05   9.179322e+05
  -4.019965e+05   1.166483e+06
  -1.274272e+06   3.635425e+05
  -7.598662e+05  -5.734270e+05
   7.044973e+05  -6.770078e+05
   1.628148e+06   6.663033e+04
   1.050819e+06   8.639727e+05
  -4.728620e+05   1.024646e+06
  -1.526024e+06   5.227360e+05
  -1.268807e+06  -1.704642e+05
  -1.484800e+05  -5.247679e+05
   6.594257e+05  -2.890475e+05
   3.978683e+05   2.924263e+05
  -5.891700e+05   5.445339e+05
  -1.211722e+06  -6.019918e+04
  -7.097381e+05  -1.194998e+06
   5.690051e+05  -1.754183e+06
   1.500384e+06  -9.371622e+05
   1.301577e+06   7.493713e+05
   2.443172e+05   1.830393e+06
  -7.324246e+05   1.340260e+06
  -9.514322e+05  -1.629900e+05
  -4.645805e+05  -1.212701e+06
   2.075844e+05  -9.965908e+05
   5.748165e+05  -9.672616e+04
   4.833285e+05   3.774241e+05
   1.682216e+05   1.373890e+05
   4.885236e+04  -9.814657e+04
   2.960203e+05   2.976233e+05
   5.431185e+05   9.798019e+05
   2.142580e+05   1.100787e+06
  -7.276281e+05   4.190593e+05
  -1.519732e+06  -4.458748e+05
  -1.324932e+06  -8.312087e+05
  -2.036251e+05  -7.125570e+05
   8.613294e+05  -4.477237e+05
   1.003003e+06  -2.058005e+05
   3.745137e+05   4.889889e+04
  -1.424320e+05   2.346743e+05
  -3.799915e+04   2.085044e+05
   2.669221e+05   8.779882e+04
   5.763206e+04   1.347182e+05
  -6.649198e+05   2.595954e+05
  -1.073976e+06   1.542680e+04
  -4.714255e+05  -6.998924e+05
   8.265415e+05  -1.232022e+06
   1.729209e+06  -8.230419e+05
   1.467493e+06   4.021258e+05
   3.202047e+05   1.433029e+06
  -7.546074e+05   1.432352e+06
  -1.062546e+06   5.843831e+05
  -6.762901e+05  -2.164328e+05
  -1.504290e+05  -3.641059e+05
   6.185828e+04  -7.534549e+04
  -8.624682e+04   1.268689e+04
  -3.127315e+05  -3.728106e+05
  -2.696182e+05  -8.228493e+05
   1.641096e+05  -7.033424e+05
   6.993101e+05   9.863644e+04
   7.896479e+05   9.480657e+05
   1.594067e+05   1.055333e+06
  -7.577546e+05   2.859488e+05
  -1.084498e+06  -6.992572e+05
  -3.953675e+05  -1.107892e+06
   7.101051e+05  -7.234652e+05
   1.154934e+06   4.178272e+04
   5.692639e+05   6.213852e+05
  -2.759717e+05   7.145565e+05
  -3.889097e+05   3.907595e+05
   2.423827e+05  -1.515144e+03
   6.618280e+05  -6.012004e+04
   1.629777e+05   3.138714e+05
  -8.279263e+05   7.171123e+05
  -1.286859e+06   5.798875e+05
  -7.986128e+05  -1.698246e+05
   7.341541e+04  -8.988128e+05
   5.527370e+05  -8.985496e+05
   4.437141e+05  -1.872012e+05
   7.508113e+04   4.844783e+05
  -2.302263e+05   4.599957e+05
  -3.641734e+05  -1.295226e+05
  -2.790386e+05  -5.841893e+05
   3.818891e+04  -4.500513e+05
   4.025846e+05   2.927541e+04
   5.002112e+05   2.819616e+05
   2.518292e+05   9.914518e+04
  -4.581860e+04  -1.618911e+05
  -8.699508e+04  -6.102104e+04
   3.879773e+04   3.539211e+05
  -1.093359e+04   5.778665e+05
  -3.121878e+05   2.552558e+05
  -4.968424e+05  -3.601636e+05
  -2.018763e+05  -6.568050e+05
   4.026337e+05  -3.408690e+05
   6.979422e+05   2.577546e+05
   2.841272e+05   5.751088e+05
  -5.131147e+05   3.923386e+05
  -9.149375e+05  -4.445283e+04
  -5.067269e+05  -3.722458e+05
   2.886887e+05  -4.292490e+05
   6.515471e+05  -2.656466e+05
   2.665143e+05  -2.898607e+04
  -3.381008e+05   9.096016e+04
  -4.137763e+05  -3.804894e+04
   1.517112e+05  -2.945788e+05
   7.341174e+05  -3.014436e+05
