
 $NMID
 id='ANONYMOUS ', fmtdat='(2E16.6)'
 volume=1.0
 tramp=1.0
 $END
  -4.354593e+07  -1.980213e+06
  -2.569026e+07  -2.612067e+07
   5.408941e+06  -2.850354e+07
   2.091244e+07  -1.242558e+07
   1.326059e+07   3.713151e+06
  -1.783102e+06   7.209730e+06
  -7.819059e+06   2.464176e+05
  -3.189560e+06  -7.365905e+06
   4.151144e+06  -8.418843e+06
   7.658469e+06  -2.411324e+06
   5.741208e+06   5.263348e+06
   4.853395e+05   7.458342e+06
  -3.547364e+06   1.954657e+06
  -2.362535e+06  -5.312694e+06
   2.924972e+06  -6.129715e+06
   6.382420e+06   6.943705e+05
   3.728518e+06   8.214926e+06
  -2.993980e+06   9.522622e+06
  -8.176800e+06   4.427326e+06
  -8.366054e+06  -2.251695e+06
  -4.408628e+06  -6.173719e+06
   1.775971e+05  -6.174544e+06
   1.892025e+06  -3.887581e+06
   7.301535e+04  -2.263179e+06
  -1.868320e+06  -3.036234e+06
   2.464089e+05  -4.584893e+06
   5.760604e+06  -3.594414e+06
   8.905242e+06   4.622587e+05
   5.701630e+06   4.153395e+06
  -7.712252e+05   4.280772e+06
  -4.122006e+06   1.540148e+06
  -2.177262e+06  -1.059504e+06
   1.629710e+06  -1.669606e+06
   3.337820e+06  -2.444171e+05
   2.220707e+06   2.359111e+06
  -1.685167e+05   4.182089e+06
  -2.045983e+06   2.911753e+06
  -2.131839e+06  -9.126230e+05
  -4.928349e+05  -3.041939e+06
   8.176262e+05  -6.374716e+05
  -2.038560e+05   3.002925e+06
  -2.366048e+06   2.299707e+06
  -2.147939e+06  -2.454689e+06
   1.438859e+06  -4.771574e+06
   4.739715e+06  -7.795373e+05
   3.630859e+06   5.256226e+06
  -1.431500e+06   6.438350e+06
  -5.929829e+06   1.716804e+06
  -6.070095e+06  -3.773807e+06
  -1.988241e+06  -5.286325e+06
   2.958507e+06  -2.706343e+06
   4.957261e+06   9.755534e+05
   2.595049e+06   2.883860e+06
  -1.732323e+06   1.954763e+06
  -3.746370e+06  -5.911306e+05
  -1.750846e+06  -2.104635e+06
   1.359748e+06  -1.116700e+06
   1.711449e+06   8.307027e+05
  -6.306570e+05   1.071937e+06
  -2.013903e+06  -6.921220e+05
  -1.790048e+05  -2.162601e+06
   2.999810e+06  -1.550388e+06
   4.120171e+06   6.458132e+05
   2.000202e+06   2.989597e+06
  -1.818449e+06   4.455117e+06
  -4.943485e+06   4.053371e+06
  -5.644058e+06   1.079586e+06
  -3.632919e+06  -3.174788e+06
  -4.676799e+05  -5.545613e+06
   1.455548e+06  -4.348140e+06
   1.246428e+06  -1.609996e+06
   4.371734e+05  -4.802679e+05
   8.818746e+05  -1.191674e+06
   2.331731e+06  -1.280034e+06
   2.944346e+06   5.435625e+05
   1.724440e+06   2.560440e+06
  -4.652830e+05   2.434136e+06
  -2.011285e+06   8.909406e+04
  -1.812235e+06  -2.409205e+06
   2.087602e+05  -3.015130e+06
   2.829705e+06  -1.274915e+06
   3.956677e+06   1.561304e+06
   2.459686e+06   3.512111e+06
  -3.182683e+05   3.437279e+06
  -1.902991e+06   2.033732e+06
  -1.696900e+06   9.514518e+05
  -1.532189e+06   8.122175e+05
  -2.805761e+06   6.283427e+05
  -4.232366e+06  -6.598912e+05
  -3.429922e+06  -2.704152e+06
  -1.107554e+05  -4.125346e+06
   3.345009e+06  -3.859762e+06
   4.375667e+06  -1.889176e+06
   2.622699e+06   7.489541e+05
  -5.513062e+04   2.367072e+06
  -1.380713e+06   1.811417e+06
  -5.444041e+05  -1.494140e+05
   1.207864e+06  -1.257588e+06
   1.857422e+06  -3.277184e+05
   7.650963e+05   1.190281e+06
  -6.341894e+05   1.132513e+06
  -5.998389e+05  -3.523903e+05
   7.848449e+05  -9.415794e+05
   1.792231e+06   6.859076e+05
   1.117949e+06   3.034656e+06
  -8.779589e+05   3.625148e+06
  -2.847655e+06   1.770675e+06
  -3.620434e+06  -1.038896e+06
  -2.712829e+06  -2.870059e+06
  -5.744835e+05  -2.858006e+06
   1.362676e+06  -1.501946e+06
   1.669417e+06  -1.479530e+05
   5.011811e+05   5.520026e+04
  -3.596183e+05  -7.610476e+05
   3.763275e+05  -1.276434e+06
   1.807572e+06  -5.400644e+05
   1.976018e+06   8.095427e+05
   4.289626e+05   1.340012e+06
  -1.158473e+06   6.015780e+05
  -9.989104e+05  -4.501065e+05
   7.787550e+05  -6.820678e+05
   2.338659e+06   1.291594e+05
   2.019339e+06   1.374300e+06
  -1.287141e+05   2.167374e+06
  -2.385823e+06   1.795915e+06
  -2.852099e+06   2.872571e+05
  -1.202120e+06  -1.242436e+06
   9.164849e+05  -1.409540e+06
   1.471838e+06  -1.363187e+05
   1.205874e+05   1.041959e+06
  -1.528738e+06   7.025906e+05
  -1.742631e+06  -7.594471e+05
  -4.276062e+05  -1.662948e+06
   1.024563e+06  -1.081168e+06
   1.296627e+06   1.976977e+05
   3.352204e+05   7.456427e+05
  -7.439585e+05   6.112810e+04
  -7.045031e+05  -1.064763e+06
   6.360811e+05  -1.422092e+06
   2.063578e+06  -4.843446e+05
   2.036455e+06   1.119511e+06
   3.580205e+05   2.098397e+06
  -1.447054e+06   1.646525e+06
  -1.739092e+06   2.316467e+05
  -5.427499e+05  -8.637596e+05
   6.539971e+05  -8.366625e+05
   7.088333e+05  -6.955594e+04
  -6.288986e+04   4.714113e+05
  -5.818348e+05   3.287673e+05
  -3.066923e+05  -8.244475e+04
   3.490280e+05  -6.333174e+04
   5.617383e+05   5.600794e+05
  -1.374059e+05   1.176507e+06
  -1.384022e+06   9.163933e+05
  -2.113327e+06  -4.319441e+05
  -1.460200e+06  -1.994244e+06
   2.540332e+05  -2.492993e+06
   1.676157e+06  -1.505515e+06
   1.803114e+06   7.940883e+04
   9.979346e+05   9.940501e+05
   3.723430e+05   8.578523e+05
   3.953036e+05   3.574586e+05
   5.123870e+05   2.945807e+05
   5.831863e+04   7.044826e+05
  -8.659426e+05   9.271182e+05
  -1.501629e+06   3.800453e+05
  -1.154055e+06  -7.657499e+05
   2.073239e+05  -1.584155e+06
   1.778700e+06  -1.148119e+06
   2.331694e+06   4.990004e+05
   1.189716e+06   2.136509e+06
  -9.712601e+05   2.390211e+06
  -2.537029e+06   1.081859e+06
  -2.433133e+06  -6.000399e+05
  -1.099729e+06  -1.364262e+06
   1.365408e+05  -1.076969e+06
   4.792252e+05  -6.343584e+05
   2.453025e+05  -7.692964e+05
   2.079511e+05  -1.246921e+06
   6.834159e+05  -1.234520e+06
   1.280796e+06  -2.800899e+05
   1.331143e+06   1.136017e+06
   5.308249e+05   1.953891e+06
  -6.707891e+05   1.463504e+06
  -1.323924e+06   5.333766e+02
  -8.364851e+05  -1.276488e+06
   3.455488e+05  -1.408715e+06
   1.101444e+06  -4.790797e+05
   7.975591e+05   5.904240e+05
  -5.421718e+04   1.014633e+06
  -4.401669e+05   7.984445e+05
  -4.050092e+04   4.680110e+05
   4.189228e+05   3.778389e+05
   4.232813e+04   4.052112e+05
  -1.135740e+06   2.105253e+05
  -2.046410e+06  -3.495240e+05
  -1.635594e+06  -1.042718e+06
  -8.494010e+03  -1.406084e+06
   1.558999e+06  -1.112709e+06
   1.842556e+06  -3.088019e+05
   8.643939e+05   4.183249e+05
  -2.407855e+05   5.300099e+05
  -4.946157e+05   6.441502e+04
   9.424626e+03  -3.765688e+05
   4.899260e+05  -2.436620e+05
   4.768115e+05   3.604526e+05
   1.801277e+05   7.709478e+05
   2.563921e+04   5.030823e+05
   1.456744e+05  -1.441977e+05
   3.388477e+05  -3.604401e+05
   2.912905e+05   2.327966e+05
  -1.916670e+05   1.035473e+06
  -9.344097e+05   1.065331e+06
  -1.320313e+06   1.058206e+05
  -7.783638e+05  -9.597108e+05
   4.483153e+05  -1.096481e+06
   1.253435e+06  -2.561283e+05
   7.349915e+05   6.216779e+05
  -7.103932e+05   6.669666e+05
  -1.654951e+06  -8.005142e+04
  -1.109288e+06  -8.736740e+05
   4.386943e+05  -1.058858e+06
   1.555149e+06  -5.680434e+05
   1.320707e+06   1.575370e+05
   1.672661e+05   5.430070e+05
  -6.600672e+05   2.990515e+05
  -3.669842e+05  -2.886085e+05
   6.431255e+05  -4.990915e+05
   1.213656e+06   1.503641e+05
   6.159316e+05   1.255950e+06
  -7.046670e+05   1.725401e+06
  -1.579279e+06   8.487359e+05
  -1.282215e+06  -8.253030e+05
  -1.737185e+05  -1.868005e+06
   7.824575e+05  -1.359304e+06
   9.610934e+05   1.556415e+05
   4.685019e+05   1.228471e+06
  -1.862502e+05   1.022744e+06
  -5.642291e+05   9.917133e+04
  -5.149498e+05  -4.022713e+05
  -2.102050e+05  -1.537642e+05
  -3.434725e+04   1.092469e+05
  -2.220788e+05  -2.868396e+05
  -4.887197e+05  -9.965625e+05
  -2.322876e+05  -1.122230e+06
   6.865893e+05  -4.009615e+05
   1.526897e+06   5.036904e+05
   1.358137e+06   8.796486e+05
   1.854721e+05   7.146646e+05
  -9.294543e+05   4.204272e+05
  -1.034009e+06   1.905585e+05
  -3.361185e+05  -4.021210e+04
   1.699399e+05  -2.286537e+05
  -8.773821e+03  -2.296390e+05
  -3.243409e+05  -1.228142e+05
  -3.150922e+04  -1.436266e+05
   7.420541e+05  -2.204347e+05
   1.077354e+06   4.508986e+04
   3.641921e+05   7.232522e+05
  -9.390246e+05   1.179371e+06
  -1.742204e+06   7.132989e+05
  -1.396059e+06  -5.043510e+05
  -2.420371e+05  -1.468612e+06
   8.066883e+05  -1.391140e+06
   1.097198e+06  -5.062641e+05
   6.831014e+05   2.763631e+05
   1.122126e+05   3.744439e+05
  -1.164308e+05   4.563449e+04
   6.575693e+04  -4.459575e+04
   3.232313e+05   3.691727e+05
   2.590847e+05   8.372160e+05
  -2.074495e+05   6.905852e+05
  -7.143910e+05  -1.650637e+05
  -7.254707e+05  -1.028198e+06
  -5.441679e+04  -1.069799e+06
   8.131314e+05  -2.066458e+05
   1.048869e+06   8.015745e+05
   3.141033e+05   1.133701e+06
  -7.596248e+05   6.587987e+05
  -1.136430e+06  -1.111941e+05
  -5.118351e+05  -6.179957e+05
   3.108110e+05  -6.589423e+05
   3.668576e+05  -3.603652e+05
  -2.933727e+05  -2.267936e+04
  -6.823179e+05   2.470973e+04
  -1.327282e+05  -3.157433e+05
   8.644831e+05  -6.920738e+05
   1.276736e+06  -5.586844e+05
   7.452033e+05   1.738000e+05
  -1.200603e+05   8.831050e+05
  -5.568336e+05   8.561972e+05
  -4.112410e+05   1.292446e+05
  -3.062749e+04  -5.134079e+05
   2.642538e+05  -4.278084e+05
   3.679114e+05   1.890098e+05
   2.478218e+05   6.031428e+05
  -7.452263e+04   4.135348e+05
  -4.040566e+05  -6.678615e+04
  -4.726385e+05  -2.783230e+05
  -2.457721e+05  -8.456323e+04
   1.361384e+04   1.337567e+05
   7.681003e+04  -4.021135e+03
   3.378767e+04  -3.919036e+05
   1.270446e+05  -5.429794e+05
   3.613956e+05  -1.670561e+05
   4.317815e+05   4.427540e+05
   9.711325e+04   6.854011e+05
  -4.453892e+05   3.053137e+05
  -6.647326e+05  -3.238537e+05
  -2.387314e+05  -6.120003e+05
   5.225935e+05  -3.631638e+05
   8.952976e+05   1.098397e+05
   4.798318e+05   4.009450e+05
  -3.142015e+05   3.860612e+05
  -6.608886e+05   1.956748e+05
  -2.364429e+05   6.109551e+03
   3.958702e+05  -4.567306e+04
   4.385435e+05   1.043786e+05
  -2.025730e+05   3.224334e+05
  -8.175080e+05   2.736177e+05
