
 $NMID
 id='ANONYMOUS ', fmtdat='(2E16.6)'
 volume=1.0
 tramp=1.0
 $END
   2.006115e+06   1.435563e+06
   4.780307e+05   1.787805e+06
  -9.445309e+05   1.089557e+06
  -1.244391e+06   1.801861e+05
  -5.840413e+05  -3.083600e+05
   1.687493e+05  -2.891143e+05
   3.864322e+05   4.360919e+04
   8.370431e+04   3.943143e+05
  -3.220738e+05   4.234459e+05
  -4.367028e+05   2.289983e+04
  -1.814295e+05  -4.425756e+05
   1.729213e+05  -4.584899e+05
   2.682259e+05   9.449364e+03
   2.173645e+04   4.305350e+05
  -2.869889e+05   3.353151e+05
  -3.147569e+05  -1.545447e+05
  -1.915244e+03  -5.195983e+05
   3.926270e+05  -4.226818e+05
   5.466203e+05   1.215224e+04
   3.461825e+05   3.981540e+05
  -2.828367e+04   4.549478e+05
  -2.513910e+05   2.332411e+05
  -1.513625e+05   4.316102e+04
   9.637078e+04   1.208284e+05
   1.331227e+05   3.451446e+05
  -1.738274e+05   3.678291e+05
  -5.436302e+05   5.174853e+04
  -5.756414e+05  -3.376468e+05
  -1.979792e+05  -4.466134e+05
   2.500228e+05  -2.271204e+05
   3.744595e+05   7.604193e+04
   1.103323e+05   2.247753e+05
  -2.468622e+05   1.513535e+05
  -3.461500e+05  -8.055711e+04
  -1.145296e+05  -3.112587e+05
   1.875046e+05  -3.324384e+05
   2.475963e+05  -8.428280e+04
   4.248254e+04   1.938536e+05
  -1.470528e+05   1.866584e+05
  -8.456293e+04  -8.786417e+04
   1.344197e+05  -2.656374e+05
   2.218329e+05  -1.099175e+05
   6.897390e+04   1.661649e+05
  -1.382369e+05   1.866524e+05
  -1.688779e+05  -8.973483e+04
   4.036462e+03  -3.293441e+05
   2.293436e+05  -2.455321e+05
   3.448329e+05   8.942061e+04
   2.688707e+05   3.675270e+05
   2.583575e+04   3.675334e+05
  -2.342786e+05   1.237770e+05
  -3.086813e+05  -1.424128e+05
  -1.352646e+05  -2.182561e+05
   1.096156e+05  -7.742198e+04
   1.872668e+05   1.050169e+05
   5.949699e+04   1.399691e+05
  -9.267950e+04   2.466598e+04
  -1.020873e+05  -8.294030e+04
   7.069719e+03  -7.280620e+04
   8.312294e+04   5.313648e+03
   2.647857e+04   4.243669e+04
  -1.130085e+05   3.900540e+02
  -1.777944e+05  -8.974933e+04
  -4.099552e+04  -1.815306e+05
   2.482208e+05  -2.110241e+05
   4.606032e+05  -1.064632e+05
   3.947513e+05   1.206197e+05
   1.047774e+05   3.273021e+05
  -1.448869e+05   3.642471e+05
  -1.769158e+05   2.447725e+05
  -8.324251e+04   1.219856e+05
  -6.708938e+04   9.216290e+04
  -1.753723e+05   8.738227e+04
  -2.679393e+05  -7.630059e+03
  -2.149589e+05  -1.810256e+05
  -3.875396e+04  -2.844725e+05
   1.338964e+05  -1.926786e+05
   1.879509e+05   4.977740e+04
   8.649099e+04   2.464338e+05
  -1.058375e+05   2.216088e+05
  -2.435171e+05  -9.039280e+03
  -2.065015e+05  -2.451177e+05
  -2.563699e+04  -2.981427e+05
   1.356900e+05  -1.749385e+05
   1.594696e+05  -3.995507e+04
   1.014834e+05  -8.956091e+03
   1.045620e+05  -3.144760e+04
   2.062847e+05   1.094013e+04
   2.803180e+05   1.435913e+05
   1.778336e+05   2.750384e+05
  -9.430528e+04   3.014419e+05
  -3.494029e+05   1.948274e+05
  -3.823773e+05   1.082494e+04
  -1.701598e+05  -1.466269e+05
   9.020505e+04  -1.829010e+05
   1.686200e+05  -8.874816e+04
   3.409380e+04   3.270864e+04
  -1.277354e+05   5.690644e+04
  -1.366294e+05  -2.693116e+04
  -1.266456e+04  -1.026570e+05
   8.152256e+04  -6.877686e+04
   4.878105e+04   3.420439e+04
  -5.175069e+04   6.827079e+04
  -1.021944e+05  -3.924947e+04
  -4.734917e+04  -2.030173e+05
   8.480685e+04  -2.566762e+05
   2.188614e+05  -1.174787e+05
   2.641066e+05   1.243778e+05
   1.682403e+05   2.811723e+05
  -1.520902e+04   2.427470e+05
  -1.462112e+05   8.001004e+04
  -1.333242e+05  -3.598029e+04
  -3.602481e+04  -1.664714e+04
   7.410690e+03   6.370664e+04
  -5.440567e+04   7.566143e+04
  -1.329450e+05  -8.912305e+03
  -1.160905e+05  -9.755620e+04
  -2.903813e+03  -9.749581e+04
   9.447765e+04  -1.734498e+04
   6.954329e+04   5.443513e+04
  -6.544725e+04   4.337880e+04
  -1.783853e+05  -4.814253e+04
  -1.374004e+05  -1.479659e+05
   4.941693e+04  -1.702890e+05
   2.213368e+05  -8.531108e+04
   2.193915e+05   4.583994e+04
   5.551953e+04   1.154863e+05
  -9.917778e+04   7.043767e+04
  -1.004848e+05  -3.034964e+04
   2.392370e+04  -7.355977e+04
   1.271950e+05  -1.024912e+04
   1.086573e+05   9.351223e+04
   2.250621e+01   1.293986e+05
  -9.126261e+04   6.261733e+04
  -9.054520e+04  -3.310070e+04
  -1.472422e+04  -5.597627e+04
   4.843578e+04   1.444082e+04
   2.013436e+04   9.466929e+04
  -8.683310e+04   8.572939e+04
  -1.654939e+05  -2.154613e+04
  -1.191561e+05  -1.365548e+05
   2.729110e+04  -1.614374e+05
   1.437327e+05  -8.385716e+04
   1.313486e+05   2.208314e+04
   2.276611e+04   7.310819e+04
  -6.517372e+04   4.708080e+04
  -5.883247e+04  -1.157188e+04
   1.018296e+04  -4.131578e+04
   5.728374e+04  -2.058068e+04
   3.696840e+04   1.407053e+04
  -1.697646e+04   8.311888e+03
  -3.037456e+04  -4.373724e+04
   3.243464e+04  -8.019072e+04
   1.222717e+05  -3.408652e+04
   1.445408e+05   8.422373e+04
   5.626142e+04   1.838345e+05
  -8.156344e+04   1.804042e+05
  -1.618383e+05   7.751831e+04
  -1.386513e+05  -4.352032e+04
  -6.294085e+04  -1.039882e+05
  -1.370834e+04  -9.059439e+04
  -1.319520e+04  -4.981253e+04
  -1.837454e+04  -3.338851e+04
   1.697306e+04  -4.737937e+04
   8.451362e+04  -4.852451e+04
   1.230373e+05   3.924632e+03
   7.522454e+04   8.766892e+04
  -4.887810e+04   1.212753e+05
  -1.614818e+05   4.684780e+04
  -1.638921e+05  -9.380508e+04
  -3.908265e+04  -1.853769e+05
   1.238731e+05  -1.497685e+05
   2.072583e+05  -2.098004e+04
   1.676443e+05   9.521538e+04
   6.040117e+04   1.255338e+05
  -2.779247e+04   8.620570e+04
  -5.753441e+04   4.698485e+04
  -5.250726e+04   5.250113e+04
  -5.587033e+04   7.972482e+04
  -8.070105e+04   6.701409e+04
  -9.784566e+04  -1.485900e+04
  -6.784165e+04  -1.194194e+05
   1.136113e+04  -1.591583e+05
   8.813713e+04  -9.171692e+04
   9.851491e+04   3.145390e+04
   3.117467e+04   1.109340e+05
  -5.445037e+04   9.345069e+04
  -8.382166e+04   1.415355e+04
  -4.035388e+04  -5.150914e+04
   2.252941e+04  -6.477719e+04
   4.137177e+04  -4.699215e+04
   9.125894e+03  -3.720772e+04
  -2.014979e+04  -4.201650e+04
   8.423968e+03  -3.288780e+04
   8.580442e+04   1.274838e+04
   1.372463e+05   7.732663e+04
   9.379822e+04   1.152794e+05
  -2.962212e+04   9.745573e+04
  -1.363611e+05   3.850955e+04
  -1.403306e+05  -1.935436e+04
  -5.387571e+04  -4.298107e+04
   2.874938e+04  -2.809854e+04
   3.513656e+04   4.618327e+03
  -1.441522e+04   2.328569e+04
  -4.629665e+04   5.067433e+03
  -2.551091e+04  -3.950920e+04
   1.258688e+04  -6.588502e+04
   1.722665e+04  -4.016298e+04
  -1.444244e+04   1.200467e+04
  -3.856372e+04   2.498544e+04
  -1.667470e+04  -2.434941e+04
   4.420351e+04  -7.565481e+04
   9.728796e+04  -5.359213e+04
   9.406236e+04   3.307629e+04
   2.510641e+04   9.386765e+04
  -6.327967e+04   6.362264e+04
  -9.703723e+04  -2.096344e+04
  -3.839993e+04  -6.776317e+04
   6.789148e+04  -3.269661e+04
   1.237319e+05   4.344431e+04
   6.945030e+04   8.952288e+04
  -5.157425e+04   7.220916e+04
  -1.302113e+05   1.312621e+04
  -9.969171e+04  -3.878189e+04
  -2.681220e+03  -4.558398e+04
   5.509441e+04  -8.606309e+03
   1.702295e+04   2.916712e+04
  -6.495082e+04   1.793892e+04
  -8.723755e+04  -4.795497e+04
  -7.888200e+03  -1.139781e+05
   1.053690e+05  -1.100569e+05
   1.449784e+05  -1.899057e+04
   7.526801e+04   9.773628e+04
  -3.563255e+04   1.467295e+05
  -9.303738e+04   8.584010e+04
  -6.850271e+04  -3.175101e+04
  -8.044978e+03  -1.026742e+05
   3.367789e+04  -7.387070e+04
   4.255662e+04   5.148228e+03
   3.280595e+04   4.346870e+04
   1.687733e+04   1.725595e+04
   3.101404e+03  -8.405902e+03
   1.601498e+03   2.566461e+04
   8.218393e+03   8.664571e+04
  -5.209864e+03   8.994447e+04
  -5.500155e+04   1.196790e+04
  -1.030257e+05  -7.704311e+04
  -8.514187e+04  -9.978892e+04
   4.076676e+03  -5.733577e+04
   8.580931e+04  -8.369115e+03
   8.413668e+04   1.005042e+04
   1.955171e+04   9.871413e+03
  -2.060725e+04   1.282130e+04
   1.136403e+03   1.905784e+04
   2.794455e+04   1.956004e+04
  -3.837922e+03   1.259360e+04
  -6.871853e+04  -3.651213e+03
  -7.946769e+04  -3.383265e+04
   8.151033e+02  -6.521101e+04
   1.083464e+05  -6.173866e+04
   1.469078e+05  -2.179152e+03
   8.513707e+04   8.020050e+04
  -2.279085e+04   1.186004e+05
  -9.653818e+04   8.083552e+04
  -9.692799e+04   4.720549e+03
  -4.566179e+04  -4.215864e+04
   4.264119e+03  -3.166896e+04
   1.606979e+04   1.945163e+03
  -3.189645e+03   5.152771e+03
  -1.677314e+04  -3.383614e+04
   4.324036e+02  -6.907497e+04
   3.545729e+04  -4.528848e+04
   5.136785e+04   3.516981e+04
   2.457200e+04   1.013921e+05
  -3.103119e+04   8.287551e+04
  -7.158724e+04  -1.081685e+04
  -5.697590e+04  -9.400460e+04
   1.053523e+04  -9.439679e+04
   7.686505e+04  -2.524447e+04
   8.012917e+04   4.125528e+04
   1.758582e+04   5.719481e+04
  -4.208517e+04   3.587318e+04
  -3.286094e+04   1.469610e+04
   2.723094e+04   1.016304e+04
   5.363935e+04   1.695011e+04
  -5.125592e+02   2.682756e+04
  -8.334797e+04   2.966458e+04
  -1.055384e+05   1.062498e+04
  -4.522428e+04  -3.027682e+04
   3.364117e+04  -6.128625e+04
   6.086990e+04  -4.622277e+04
   3.028711e+04   6.392893e+03
  -1.364133e+04   4.234352e+04
  -3.313481e+04   2.257141e+04
  -2.414993e+04  -2.864935e+04
  -1.744619e+03  -5.244581e+04
   1.910415e+04  -2.522424e+04
   2.893378e+04   1.797017e+04
   2.560214e+04   3.082274e+04
   1.543529e+04   1.008085e+04
   5.903413e+03  -7.393010e+03
  -3.820711e+03   5.756196e+03
  -1.875564e+04   3.327073e+04
  -3.469250e+04   3.476586e+04
  -3.689462e+04  -4.857472e+03
  -1.585875e+04  -5.215809e+04
   1.926869e+04  -5.717123e+04
   4.479817e+04  -9.267477e+03
   3.900066e+04   4.633413e+04
  -5.157662e+02   5.508730e+04
  -4.797492e+04   1.212038e+04
  -6.219822e+04  -3.536917e+04
  -2.389531e+04  -4.364842e+04
   3.500828e+04  -1.703152e+04
   5.490196e+04   7.775237e+03
   1.452242e+04   7.620647e+03
  -3.712719e+04  -9.688736e+03
  -3.359172e+04  -2.439255e+04
   2.733083e+04  -2.301633e+04
   7.591649e+04  -1.155121e+02
