
 $NMID
 id='ANONYMOUS ', fmtdat='(2E16.6)'
 volume=1.0
 tramp=1.0
 $END
  -4.052840e+07   9.215576e+05
  -2.438791e+07  -2.573251e+07
   5.950121e+06  -2.797706e+07
   2.034114e+07  -9.740168e+06
   1.155904e+07   6.382278e+06
  -3.025542e+06   7.182238e+06
  -7.251845e+06  -1.288026e+06
  -1.667186e+06  -7.286721e+06
   4.784629e+06  -6.400111e+06
   7.025430e+06  -1.040226e+06
   5.011435e+06   4.535790e+06
   5.203352e+05   6.154819e+06
  -3.040075e+06   2.162685e+06
  -2.083584e+06  -3.498485e+06
   2.578449e+06  -4.275480e+06
   5.465350e+06   1.174891e+06
   2.864024e+06   7.155424e+06
  -2.933342e+06   8.011863e+06
  -7.172407e+06   3.905812e+06
  -7.648908e+06  -1.466925e+06
  -4.921321e+06  -5.367447e+06
  -6.351158e+05  -6.558811e+06
   2.558118e+06  -4.706266e+06
   2.277285e+06  -1.608483e+06
  -2.500295e+05  -5.585756e+05
  -5.994454e+05  -2.228221e+06
   2.949219e+06  -3.262531e+06
   6.370320e+06  -9.945622e+05
   5.229327e+06   2.598405e+06
   7.750278e+05   3.886373e+06
  -2.234830e+06   2.483262e+06
  -1.932608e+06   6.516224e+05
  -3.160043e+05  -3.419792e+05
   7.932529e+05  -5.284164e+05
   1.236701e+06   4.663239e+05
   6.786370e+05   2.354326e+06
  -1.182805e+06   2.740522e+06
  -2.665023e+06   1.132520e+05
  -1.683386e+06  -2.707692e+06
   5.243269e+05  -1.881743e+06
   5.982424e+05   1.203516e+06
  -1.468857e+06   1.330743e+06
  -1.642608e+06  -2.400544e+06
   1.925190e+06  -4.427133e+06
   5.317748e+06  -7.228785e+05
   3.922715e+06   4.984575e+06
  -1.280809e+06   6.137896e+06
  -5.154929e+06   1.856344e+06
  -4.621230e+06  -2.873448e+06
  -1.052707e+06  -3.928383e+06
   2.374478e+06  -1.699446e+06
   3.359151e+06   1.160700e+06
   1.345648e+06   2.564132e+06
  -1.947742e+06   1.669761e+06
  -3.303208e+06  -7.101147e+05
  -1.350121e+06  -2.167008e+06
   1.280040e+06  -1.126619e+06
   1.150054e+06   7.676483e+05
  -1.150870e+06   6.040711e+05
  -1.804680e+06  -1.593968e+06
   7.114419e+05  -2.812226e+06
   3.586276e+06  -1.336570e+06
   3.749741e+06   1.252674e+06
   1.482750e+06   2.900053e+06
  -1.123120e+06   3.449110e+06
  -3.023829e+06   3.165900e+06
  -3.952284e+06   1.323163e+06
  -3.197203e+06  -1.918019e+06
  -7.500667e+05  -4.074812e+06
   1.443713e+06  -3.076748e+06
   1.433968e+06  -3.992521e+05
  -5.882171e+04   7.123390e+05
  -6.401948e+05  -4.250899e+05
   4.500272e+05  -1.467336e+06
   1.651652e+06  -7.116438e+05
   1.530615e+06   8.170847e+05
   3.615663e+05   1.276707e+06
  -7.750479e+05   3.251853e+05
  -1.091418e+06  -1.060073e+06
  -1.759836e+05  -1.815457e+06
   1.679721e+06  -1.272446e+06
   3.004338e+06   5.325402e+05
   2.296204e+06   2.444331e+06
   3.992427e+04   2.953083e+06
  -1.613069e+06   1.898392e+06
  -1.610066e+06   6.643613e+05
  -1.202843e+06   2.871377e+05
  -1.751408e+06   2.312386e+05
  -2.579131e+06  -4.543743e+05
  -2.087112e+06  -1.639782e+06
  -1.519695e+05  -2.447018e+06
   1.754720e+06  -2.373890e+06
   2.387625e+06  -1.446199e+06
   1.706026e+06   5.285566e+04
   4.136426e+05   1.330699e+06
  -5.655965e+05   1.321896e+06
  -4.651757e+05   4.883329e+04
   5.604758e+05  -9.180964e+05
   1.262224e+06  -3.655850e+05
   7.262322e+05   7.854447e+05
  -2.714100e+05   8.076109e+05
  -2.758129e+05  -1.756257e+05
   6.903289e+05  -3.531308e+05
   1.108311e+06   9.678264e+05
   1.470398e+05   2.253638e+06
  -1.285095e+06   1.915123e+06
  -1.966601e+06   3.180709e+05
  -1.764232e+06  -1.079844e+06
  -1.132505e+06  -1.581817e+06
  -2.397151e+05  -1.411842e+06
   6.771279e+05  -8.478077e+05
   9.336523e+05  -1.713281e+05
   3.031004e+05   4.438005e+04
  -2.643145e+05  -4.363779e+05
   2.105630e+05  -8.824549e+05
   1.217152e+06  -4.496947e+05
   1.355643e+06   5.342663e+05
   3.162691e+05   9.549774e+05
  -6.874861e+05   4.632802e+05
  -5.571459e+05  -1.672753e+05
   4.176806e+05  -2.214735e+05
   1.137522e+06   2.049474e+05
   9.077495e+05   7.084062e+05
  -1.454185e+05   1.053132e+06
  -1.303248e+06   9.588795e+05
  -1.652110e+06   1.877171e+05
  -7.874723e+05  -8.088895e+05
   5.612605e+05  -1.023964e+06
   1.054017e+06  -1.712736e+05
   2.276710e+05   7.172821e+05
  -9.067129e+05   5.370762e+05
  -1.077423e+06  -4.499321e+05
  -2.094359e+05  -1.026481e+06
   6.926603e+05  -6.083260e+05
   8.022387e+05   1.964275e+05
   1.952113e+05   5.130785e+05
  -4.556103e+05   1.272135e+05
  -4.989625e+05  -5.241403e+05
   2.187123e+05  -8.266033e+05
   1.110646e+06  -4.041889e+05
   1.229384e+06   5.419662e+05
   2.810107e+05   1.237934e+06
  -8.647204e+05   1.024799e+06
  -1.089287e+06   1.245401e+05
  -3.471210e+05  -5.756103e+05
   3.819827e+05  -5.486082e+05
   3.982949e+05  -1.153096e+05
   2.388612e+03   1.488929e+05
  -1.666155e+05   1.174002e+05
   2.284808e+04   5.417604e+04
   2.473305e+05   1.669351e+05
   2.152939e+05   4.339735e+05
  -1.671242e+05   6.522413e+05
  -7.828470e+05   4.967421e+05
  -1.194590e+06  -2.110788e+05
  -8.798032e+05  -1.103832e+06
   1.000886e+05  -1.417575e+06
   9.406734e+05  -8.236347e+05
   9.673048e+05   9.844338e+04
   4.487475e+05   5.208879e+05
   1.558233e+05   3.276116e+05
   2.999855e+05   8.412638e+04
   3.809245e+05   1.874069e+05
   2.244039e+04   4.414614e+05
  -5.223274e+05   4.595320e+05
  -7.677957e+05   1.254134e+05
  -5.044521e+05  -3.890209e+05
   1.707337e+05  -7.506786e+05
   9.414132e+05  -5.712622e+05
   1.260893e+06   2.543069e+05
   6.743924e+05   1.190536e+06
  -5.632766e+05   1.391747e+06
  -1.488423e+06   6.249313e+05
  -1.378760e+06  -3.848352e+05
  -5.400933e+05  -7.759121e+05
   1.269783e+05  -5.137901e+05
   1.853264e+05  -2.621896e+05
  -1.798523e+04  -4.518875e+05
   2.541487e+04  -8.107904e+05
   3.931635e+05  -7.953304e+05
   7.732460e+05  -2.150792e+05
   8.115295e+05   6.065964e+05
   3.689566e+05   1.098885e+06
  -3.303530e+05   8.624358e+05
  -7.523212e+05   3.061683e+04
  -4.929510e+05  -7.405016e+05
   2.250619e+05  -8.229687e+05
   6.906003e+05  -2.319214e+05
   4.755040e+05   4.271033e+05
  -8.300126e+04   6.405576e+05
  -3.210634e+05   4.556713e+05
  -5.377356e+04   2.408034e+05
   2.411027e+05   1.924273e+05
   2.316159e+04   2.097318e+05
  -6.639555e+05   1.103308e+05
  -1.188249e+06  -1.826297e+05
  -9.465227e+05  -5.811773e+05
   8.562043e+02  -8.363664e+05
   9.168880e+05  -6.924812e+05
   1.078825e+06  -1.828272e+05
   4.945159e+05   2.914499e+05
  -1.569499e+05   3.370709e+05
  -2.967376e+05   9.441085e+03
   1.364017e+02  -2.537331e+05
   2.728338e+05  -1.400940e+05
   2.798919e+05   2.139016e+05
   1.492381e+05   4.240210e+05
   6.805550e+04   2.852270e+05
   7.517699e+04  -3.168757e+04
   1.233875e+05  -1.545267e+05
   1.216598e+05   1.125199e+05
  -7.524639e+04   5.316108e+05
  -4.828531e+05   6.058490e+05
  -7.698333e+05   1.241703e+05
  -5.072084e+05  -5.107038e+05
   2.266150e+05  -6.664081e+05
   7.326421e+05  -2.087664e+05
   4.287219e+05   3.297381e+05
  -4.143790e+05   3.750431e+05
  -9.188564e+05  -6.275729e+04
  -5.625731e+05  -4.994085e+05
   2.953367e+05  -5.566830e+05
   8.590903e+05  -2.641840e+05
   6.989465e+05   1.064075e+05
   7.778329e+04   2.927025e+05
  -3.732704e+05   1.667132e+05
  -2.381796e+05  -1.607222e+05
   3.171458e+05  -3.202642e+05
   6.894324e+05   1.382491e+04
   4.201062e+05   6.740089e+05
  -3.152573e+05   1.008729e+06
  -8.589356e+05   5.385087e+05
  -7.421421e+05  -4.336724e+05
  -1.304308e+05  -1.043798e+06
   4.203540e+05  -7.513344e+05
   5.317699e+05   1.007452e+05
   2.549357e+05   6.806867e+05
  -1.143893e+05   5.525261e+05
  -3.156690e+05   5.480419e+04
  -2.675873e+05  -2.013449e+05
  -9.520238e+04  -6.667619e+04
  -3.271484e+04   5.752994e+04
  -1.779738e+05  -1.731004e+05
  -3.171564e+05  -5.611703e+05
  -1.198057e+05  -6.279934e+05
   4.230713e+05  -2.372607e+05
   8.660910e+05   2.565697e+05
   7.435931e+05   4.737951e+05
   1.076904e+05   4.028403e+05
  -4.869452e+05   2.509983e+05
  -5.652730e+05   1.122683e+05
  -2.135844e+05  -3.592374e+04
   8.359854e+04  -1.404074e+05
   3.534364e+04  -1.141888e+05
  -1.397437e+05  -3.459096e+04
  -3.828208e+04  -6.583264e+04
   3.637251e+05  -1.514070e+05
   6.089559e+05  -1.635784e+04
   2.794780e+05   4.013223e+05
  -4.652923e+05   7.107844e+05
  -9.925004e+05   4.711029e+05
  -8.429878e+05  -2.323819e+05
  -1.808400e+05  -8.134271e+05
   4.296688e+05  -8.080092e+05
   5.963134e+05  -3.342672e+05
   3.789240e+05   1.105183e+05
   9.207250e+04   1.996317e+05
  -2.605981e+04   4.913641e+04
   4.792219e+04   4.805270e+01
   1.727496e+05   2.078956e+05
   1.579427e+05   4.615355e+05
  -8.329376e+04   4.065892e+05
  -3.989594e+05  -4.086091e+04
  -4.633785e+05  -5.335197e+05
  -1.014592e+05  -6.093422e+05
   4.335121e+05  -1.735882e+05
   6.241089e+05   3.956513e+05
   2.266768e+05   6.336544e+05
  -4.054916e+05   4.136681e+05
  -6.565359e+05  -2.325757e+04
  -3.236006e+05  -3.526304e+05
   1.537120e+05  -4.066071e+05
   2.184888e+05  -2.245915e+05
  -1.353044e+05  -1.829879e+03
  -3.716411e+05   3.233348e+04
  -9.077324e+04  -1.802035e+05
   4.718091e+05  -4.077239e+05
   7.360822e+05  -3.244973e+05
   4.587948e+05   1.053524e+05
  -4.343357e+04   5.166142e+05
  -3.220203e+05   5.105042e+05
  -2.587530e+05   1.046470e+05
  -4.373682e+04  -2.752968e+05
   1.325275e+05  -2.619870e+05
   2.078317e+05   7.136372e+04
   1.581035e+05   3.324715e+05
  -2.342238e+04   2.604376e+05
  -2.317369e+05  -1.449948e+04
  -2.862262e+05  -1.651540e+05
  -1.417929e+05  -6.119328e+04
   2.781379e+04   9.578816e+04
   4.596155e+04   4.211951e+04
  -3.041589e+04  -2.026052e+05
   1.068413e+03  -3.399643e+05
   1.814745e+05  -1.546136e+05
   2.919101e+05   2.048873e+05
   1.215138e+05   3.778355e+05
  -2.282118e+05   1.955904e+05
  -3.993480e+05  -1.460322e+05
  -1.633924e+05  -3.245715e+05
   2.924753e+05  -2.211918e+05
   5.231708e+05   2.438766e+04
   2.904343e+05   2.122906e+05
  -1.663744e+05   2.497514e+05
  -3.776367e+05   1.558711e+05
  -1.584868e+05   1.222736e+04
   1.913243e+05  -6.256451e+04
   2.406633e+05   1.508785e+04
  -7.929033e+04   1.701610e+05
  -4.133327e+05   1.775659e+05
