
 $NMID
 id='ANONYMOUS ', fmtdat='(2E16.6)'
 volume=1.0
 tramp=1.0
 $END
  -1.587112e+07   1.055108e+06
  -1.132589e+07  -6.898043e+06
  -6.993379e+05  -1.026250e+07
   6.662452e+06  -7.181250e+06
   5.951868e+06  -9.264350e+05
   5.042854e+05   2.919277e+06
  -3.291547e+06   1.558513e+06
  -2.588412e+06  -2.553877e+06
   6.515472e+05  -4.501466e+06
   2.980878e+06  -2.114496e+06
   2.669514e+06   1.934860e+06
   4.577969e+05   3.298838e+06
  -1.467852e+06   7.370783e+05
  -1.272801e+06  -2.740928e+06
   8.652799e+05  -3.337892e+06
   2.727096e+06  -4.454257e+05
   2.193272e+06   3.070340e+06
  -4.848288e+05   4.072365e+06
  -2.921819e+06   2.109653e+06
  -3.132051e+06  -6.902400e+05
  -1.467306e+06  -2.079959e+06
   3.694299e+04  -1.725224e+06
  -7.544863e+04  -1.020406e+06
  -1.221918e+06  -1.279779e+06
  -1.457301e+06  -2.303929e+06
   3.901954e+05  -2.716673e+06
   3.177664e+06  -1.583105e+06
   4.291855e+06   4.897665e+05
   2.398089e+06   1.924393e+06
  -8.332001e+05   1.701229e+06
  -2.307888e+06   2.230714e+05
  -8.518722e+05  -1.153340e+06
   1.615221e+06  -1.241610e+06
   2.445107e+06   1.001196e+05
   1.154715e+06   1.795513e+06
  -5.337807e+05   2.299267e+06
  -1.017019e+06   1.036703e+06
  -3.681295e+05  -7.463429e+05
   3.049974e+05  -1.081887e+06
   2.450917e+05   4.299238e+05
  -4.583309e+05   1.907592e+06
  -1.178203e+06   1.353106e+06
  -1.182358e+06  -7.795867e+05
  -1.666823e+05  -1.992467e+06
   1.194890e+06  -7.803169e+05
   1.506045e+06   1.531253e+06
   2.541875e+04   2.394788e+06
  -2.191881e+06   9.313769e+05
  -3.027970e+06  -1.353290e+06
  -1.459219e+06  -2.422272e+06
   1.230687e+06  -1.648869e+06
   2.656211e+06   8.974667e+03
   1.706888e+06   1.151799e+06
  -4.371983e+05   1.061917e+06
  -1.639267e+06   1.039407e+05
  -9.847158e+05  -6.829922e+05
   4.587053e+05  -5.393158e+05
   9.692891e+05   2.814384e+05
   7.629294e+04   8.008745e+05
  -1.007507e+06   3.965941e+05
  -8.407871e+05  -5.263875e+05
   5.570120e+05  -9.860100e+05
   1.675477e+06  -3.966516e+05
   1.157341e+06   9.268329e+05
  -7.362111e+05   2.013178e+06
  -2.423132e+06   1.914638e+06
  -2.626433e+06   4.492825e+05
  -1.509244e+06  -1.489949e+06
  -2.335140e+05  -2.565855e+06
   3.442686e+05  -2.232339e+06
   3.663166e+05  -1.246006e+06
   5.004207e+05  -6.960379e+05
   1.047509e+06  -6.762862e+05
   1.621089e+06  -3.401054e+05
   1.589841e+06   7.243449e+05
   7.225616e+05   1.695836e+06
  -5.425384e+05   1.437218e+06
  -1.359621e+06  -5.086331e+04
  -1.081172e+06  -1.497239e+06
   1.756439e+05  -1.666715e+06
   1.488677e+06  -5.314045e+05
   1.835144e+06   8.827114e+05
   1.026101e+06   1.570879e+06
  -1.104756e+05   1.359498e+06
  -6.346502e+05   8.168500e+05
  -5.372866e+05   5.538985e+05
  -6.511484e+05   6.264368e+05
  -1.463202e+06   5.470312e+05
  -2.289974e+06  -1.472187e+05
  -1.941070e+06  -1.325605e+06
  -1.758010e+05  -2.251967e+06
   1.792306e+06  -2.170770e+06
   2.420563e+06  -9.904645e+05
   1.375033e+06   5.305625e+05
  -1.906895e+05   1.320662e+06
  -8.504593e+05   8.999067e+05
  -2.622775e+05  -1.384570e+05
   6.921828e+05  -6.657302e+05
   9.570790e+05  -1.904647e+05
   3.502627e+05   5.897812e+05
  -3.907587e+05   6.169626e+05
  -4.468384e+05  -1.895350e+05
   2.732069e+05  -7.378126e+05
   1.068460e+06  -6.211274e+04
   1.081081e+06   1.422665e+06
   4.600974e+04   2.262957e+06
  -1.428632e+06   1.523031e+06
  -2.277508e+06  -2.440550e+05
  -1.831966e+06  -1.620612e+06
  -4.406080e+05  -1.719850e+06
   7.762679e+05  -8.680743e+05
   9.458398e+05  -6.858046e+04
   2.764091e+05   1.952466e+04
  -2.172037e+05  -4.114935e+05
   1.338712e+05  -6.720568e+05
   8.978367e+05  -3.398382e+05
   1.072988e+06   3.223359e+05
   3.082803e+05   6.734010e+05
  -6.151694e+05   3.789012e+05
  -6.295743e+05  -2.392727e+05
   3.934463e+05  -5.215371e+05
   1.424116e+06  -1.028500e+05
   1.325035e+06   7.463984e+05
   4.320757e+04   1.337485e+06
  -1.317081e+06   1.135915e+06
  -1.594182e+06   2.452669e+05
  -6.849470e+05  -6.163911e+05
   4.350896e+05  -7.321300e+05
   7.247710e+05  -9.959809e+04
   4.828589e+04   5.223568e+05
  -8.121265e+05   4.038645e+05
  -9.902805e+05  -3.475656e+05
  -3.410884e+05  -9.116785e+05
   4.976699e+05  -6.978129e+05
   7.553780e+05   1.722036e+03
   2.648397e+05   3.889916e+05
  -3.776508e+05   6.775842e+04
  -3.985620e+05  -5.655503e+05
   3.413456e+05  -7.891767e+05
   1.137473e+06  -2.855131e+05
   1.134552e+06   5.875489e+05
   2.430590e+05   1.139322e+06
  -7.351990e+05   9.425222e+05
  -9.444459e+05   1.949901e+05
  -3.449790e+05  -4.534383e+05
   3.343011e+05  -4.944379e+05
   4.298143e+05  -3.588154e+04
  -9.058721e+03   3.479616e+05
  -3.959447e+05   2.615054e+05
  -2.924466e+05  -8.619786e+04
   1.514234e+05  -1.653823e+05
   3.822169e+05   2.172475e+05
   1.854670e+04   6.549926e+05
  -7.268377e+05   5.649512e+05
  -1.185213e+06  -1.784341e+05
  -8.522081e+05  -1.067433e+06
   9.000178e+04  -1.404029e+06
   9.167414e+05  -9.247104e+05
   1.065571e+06  -2.905415e+04
   6.495575e+05   5.937875e+05
   2.285352e+05   5.960261e+05
   1.483178e+05   2.531196e+05
   2.212468e+05   1.062952e+05
   5.241931e+04   3.363569e+05
  -4.332450e+05   5.594837e+05
  -8.524013e+05   2.931712e+05
  -7.222436e+05  -4.222435e+05
   4.895208e+04  -9.640336e+05
   9.815257e+05  -7.318678e+05
   1.342170e+06   2.153322e+05
   7.526291e+05   1.159037e+06
  -4.268222e+05   1.360674e+06
  -1.350994e+06   7.111345e+05
  -1.410347e+06  -2.203207e+05
  -7.339801e+05  -7.500979e+05
   1.825335e+04  -6.912301e+05
   3.228746e+05  -4.255628e+05
   2.194911e+05  -4.036086e+05
   1.261134e+05  -6.240082e+05
   3.263509e+05  -6.564167e+05
   6.708088e+05  -1.736453e+05
   7.475614e+05   6.078367e+05
   3.261607e+05   1.078883e+06
  -3.531791e+05   8.260309e+05
  -7.468190e+05   3.836390e+04
  -5.168479e+05  -6.675314e+05
   1.127407e+05  -7.966638e+05
   5.590289e+05  -3.598329e+05
   4.692996e+05   2.211714e+05
   6.392004e+04   5.296744e+05
  -1.533149e+05   4.817089e+05
   1.173852e+04   2.987842e+05
   2.241041e+05   2.137119e+05
   2.315887e+04   2.294265e+05
  -6.024111e+05   1.598047e+05
  -1.113694e+06  -1.241617e+05
  -9.387965e+05  -5.187775e+05
  -8.924733e+04  -7.581551e+05
   7.852286e+05  -6.488259e+05
   1.005788e+06  -2.493610e+05
   5.211846e+05   1.554017e+05
  -9.021353e+04   2.761052e+05
  -2.624919e+05   7.714674e+04
   6.200993e+03  -1.659989e+05
   2.828163e+05  -1.297847e+05
   2.640192e+05   1.885997e+05
   6.653395e+04   4.266583e+05
  -2.063233e+04   2.718890e+05
   9.008010e+04  -1.159727e+05
   2.281688e+05  -2.418849e+05
   1.813560e+05   1.199097e+05
  -1.096916e+05   5.938374e+05
  -4.950395e+05   6.071034e+05
  -6.730124e+05   6.839234e+04
  -3.981931e+05  -5.082362e+05
   2.174122e+05  -5.760406e+05
   6.499753e+05  -1.300830e+05
   4.105802e+05   3.443209e+05
  -3.710815e+05   3.984314e+05
  -9.505777e+05   1.235378e+04
  -7.036059e+05  -4.652235e+05
   1.838566e+05  -6.502699e+05
   8.842087e+05  -4.141670e+05
   7.925091e+05   3.526218e+04
   1.265725e+05   3.170110e+05
  -3.627915e+05   2.039783e+05
  -1.985762e+05  -1.364390e+05
   3.673049e+05  -2.626944e+05
   6.675660e+05   9.656877e+04
   3.186322e+05   6.980915e+05
  -4.091306e+05   9.444242e+05
  -8.826792e+05   4.628281e+05
  -7.232391e+05  -4.560286e+05
  -1.202048e+05  -1.050876e+06
   4.212023e+05  -8.000684e+05
   5.578327e+05   4.246148e+04
   3.170901e+05   6.846050e+05
  -5.279486e+04   6.103972e+05
  -3.081635e+05   8.583386e+04
  -3.239654e+05  -2.313612e+05
  -1.502258e+05  -1.018262e+05
  -7.460399e+03   7.450154e+04
  -8.869056e+04  -1.236911e+05
  -2.756397e+05  -5.368513e+05
  -1.861737e+05  -6.424255e+05
   3.353648e+05  -2.547787e+05
   8.710070e+05   2.594740e+05
   8.139506e+05   4.792956e+05
   1.233341e+05   3.909354e+05
  -5.451268e+05   2.396031e+05
  -5.920097e+05   1.337056e+05
  -1.667398e+05   9.579277e+03
   1.033425e+05  -1.235706e+05
  -4.258807e+04  -1.566990e+05
  -2.197497e+05  -9.637772e+04
  -3.565130e+03  -7.950152e+04
   4.523505e+05  -1.079335e+05
   5.950685e+05   2.187564e+04
   1.549167e+05   3.778071e+05
  -5.418327e+05   6.367348e+05
  -9.283829e+05   3.976967e+05
  -7.296451e+05  -2.740297e+05
  -1.363555e+05  -8.198882e+05
   4.181591e+05  -7.766835e+05
   5.990380e+05  -2.695968e+05
   3.859490e+05   1.702129e+05
   5.007518e+04   2.034546e+05
  -9.398057e+04  -5.365340e+03
   2.980504e+04  -5.658801e+04
   2.072800e+05   1.946673e+05
   1.710997e+05   4.685436e+05
  -1.144422e+05   3.772397e+05
  -4.021797e+05  -1.135591e+05
  -3.856594e+05  -5.865156e+05
   8.811981e+02  -5.806770e+05
   4.654981e+05  -8.018951e+04
   5.719131e+05   4.674654e+05
   1.625405e+05   6.200049e+05
  -4.153884e+05   3.454002e+05
  -6.130654e+05  -5.596173e+04
  -2.768499e+05  -3.074972e+05
   1.550367e+05  -3.368594e+05
   1.676155e+05  -2.044361e+05
  -1.947825e+05  -3.097969e+04
  -3.879939e+05   1.369857e+04
  -6.720528e+04  -1.646586e+05
   4.753875e+05  -4.000491e+05
   6.819412e+05  -3.590229e+05
   3.888638e+05   5.258037e+04
  -5.719128e+04   4.784512e+05
  -2.667991e+05   4.762055e+05
  -1.866128e+05   5.981175e+04
  -5.295846e+02  -2.955175e+05
   1.445901e+05  -2.206316e+05
   2.013058e+05   1.329848e+05
   1.390200e+05   3.334398e+05
  -3.879700e+04   2.003321e+05
  -2.209200e+05  -4.676123e+04
  -2.602029e+05  -1.256817e+05
  -1.421074e+05  -2.470707e+04
  -1.056261e+03   4.596357e+04
   5.459933e+04  -5.427787e+04
   6.380317e+04  -2.282848e+05
   1.193255e+05  -2.537117e+05
   2.054765e+05  -3.388609e+04
   1.933588e+05   2.698476e+05
   3.201559e+03   3.720568e+05
  -2.573992e+05   1.546294e+05
  -3.468884e+05  -1.900541e+05
  -1.193013e+05  -3.475260e+05
   2.769285e+05  -2.047700e+05
   4.771607e+05   6.278766e+04
   2.609964e+05   2.174307e+05
  -1.657845e+05   1.936304e+05
  -3.502664e+05   8.726754e+04
  -1.049235e+05   6.497204e+03
   2.488830e+05   5.704506e+03
   2.498809e+05   9.355156e+04
  -1.440542e+05   1.954890e+05
  -4.994358e+05   1.464720e+05
