
 $NMID
 id='ANONYMOUS ', fmtdat='(2E16.6)'
 volume=1.0
 tramp=1.0
 $END
   3.682963e+07  -9.593608e+04
   2.321510e+07   2.066304e+07
  -2.924922e+06   2.437627e+07
  -1.725326e+07   1.193358e+07
  -1.185882e+07  -2.205639e+06
   9.862983e+05  -6.342508e+06
   6.878213e+06  -8.168849e+05
   3.333462e+06   6.235293e+06
  -3.168110e+06   7.727620e+06
  -6.575829e+06   2.588449e+06
  -5.141372e+06  -4.338726e+06
  -6.268888e+05  -6.462869e+06
   2.984523e+06  -1.728022e+06
   2.160873e+06   4.688682e+06
  -2.359141e+06   5.586362e+06
  -5.584558e+06  -2.442446e+05
  -3.599168e+06  -6.918331e+06
   2.142831e+06  -8.330593e+06
   6.785683e+06  -4.096195e+06
   7.125272e+06   1.631423e+06
   3.850282e+06   4.992331e+06
   9.543579e+04   5.034442e+06
  -1.203025e+06   3.292673e+06
   3.167189e+05   2.192430e+06
   1.735587e+06   2.949632e+06
  -2.972485e+05   4.130654e+06
  -5.090800e+06   3.128229e+06
  -7.764188e+06  -3.627812e+05
  -4.951764e+06  -3.491278e+06
   7.087817e+05  -3.594301e+06
   3.618909e+06  -1.211918e+06
   1.782565e+06   1.064511e+06
  -1.705423e+06   1.511242e+06
  -3.139920e+06   8.884503e+04
  -1.915258e+06  -2.244226e+06
   2.664562e+05  -3.690812e+06
   1.717661e+06  -2.459177e+06
   1.642577e+06   7.826930e+05
   3.573823e+05   2.473568e+06
  -5.701606e+05   3.664337e+05
   3.029777e+05  -2.722424e+06
   2.080316e+06  -2.110864e+06
   2.006935e+06   2.017107e+06
  -8.967094e+05   4.209125e+06
  -3.858467e+06   1.003781e+06
  -3.299781e+06  -4.216123e+06
   8.601789e+05  -5.526261e+06
   4.975110e+06  -1.696284e+06
   5.448603e+06   3.090460e+06
   1.976133e+06   4.621270e+06
  -2.536464e+06   2.535864e+06
  -4.487914e+06  -6.813679e+05
  -2.475309e+06  -2.476113e+06
   1.386454e+06  -1.822722e+06
   3.286394e+06   3.286417e+05
   1.645079e+06   1.738809e+06
  -1.116131e+06   1.022759e+06
  -1.567912e+06  -6.868095e+05
   4.585093e+05  -1.081425e+06
   1.874923e+06   3.632988e+05
   4.785116e+05   1.830202e+06
  -2.365325e+06   1.579882e+06
  -3.607543e+06  -2.591838e+05
  -1.911031e+06  -2.458088e+06
   1.473093e+06  -3.896227e+06
   4.277096e+06  -3.591856e+06
   4.884312e+06  -1.008639e+06
   3.151463e+06   2.686476e+06
   4.978557e+05   4.813846e+06
  -1.126757e+06   3.908616e+06
  -1.059304e+06   1.593731e+06
  -5.216446e+05   5.262388e+05
  -9.532265e+05   1.005187e+06
  -2.134711e+06   1.006462e+06
  -2.575715e+06  -5.942497e+05
  -1.453830e+06  -2.341159e+06
   5.019104e+05  -2.176412e+06
   1.864448e+06  -2.964636e+04
   1.639529e+06   2.209727e+06
  -1.907811e+05   2.695913e+06
  -2.485647e+06   1.113315e+06
  -3.444092e+06  -1.343089e+06
  -2.164916e+06  -2.983239e+06
   1.836312e+05  -2.926697e+06
   1.532713e+06  -1.789131e+06
   1.399079e+06  -9.168697e+05
   1.331740e+06  -8.114532e+05
   2.508145e+06  -6.465720e+05
   3.805402e+06   5.001138e+05
   3.118814e+06   2.361383e+06
   1.563928e+05   3.700407e+06
  -2.965626e+06   3.490762e+06
  -3.905035e+06   1.695979e+06
  -2.317034e+06  -6.845035e+05
   8.749237e+04  -2.105024e+06
   1.243083e+06  -1.588861e+06
   4.714954e+05   1.430540e+05
  -1.079519e+06   1.121517e+06
  -1.643932e+06   3.148572e+05
  -6.788161e+05  -1.033925e+06
   5.741976e+05  -1.011885e+06
   5.758590e+05   3.245299e+05
  -6.762077e+05   9.334322e+05
  -1.686600e+06  -4.815418e+05
  -1.186407e+06  -2.693810e+06
   6.423215e+05  -3.395819e+06
   2.566636e+06  -1.780860e+06
   3.371672e+06   8.499987e+05
   2.538660e+06   2.610869e+06
   5.471659e+05   2.614919e+06
  -1.225724e+06   1.359763e+06
  -1.500637e+06   1.329358e+05
  -4.505998e+05  -4.417247e+04
   3.329698e+05   6.794248e+05
  -3.039064e+05   1.144819e+06
  -1.591536e+06   5.182503e+05
  -1.785073e+06  -6.754322e+05
  -4.219154e+05  -1.187867e+06
   1.032659e+06  -5.632595e+05
   9.224481e+05   4.037464e+05
  -6.994728e+05   6.624041e+05
  -2.155460e+06  -6.797371e+04
  -1.879598e+06  -1.242792e+06
   8.765800e+04  -1.997973e+06
   2.145928e+06  -1.663283e+06
   2.570097e+06  -2.943293e+05
   1.098117e+06   1.089414e+06
  -7.872263e+05   1.262555e+06
  -1.295058e+06   1.476314e+05
  -1.148659e+05  -9.149364e+05
   1.358164e+06  -6.460887e+05
   1.582391e+06   6.535399e+05
   4.239155e+05   1.499073e+06
  -9.046425e+05   1.013115e+06
  -1.188484e+06  -1.427221e+05
  -3.320962e+05  -6.696006e+05
   6.592279e+05  -7.398000e+04
   6.418112e+05   9.431298e+05
  -5.593508e+05   1.278179e+06
  -1.846430e+06   4.493008e+05
  -1.835654e+06  -9.846682e+05
  -3.467384e+05  -1.877460e+06
   1.273404e+06  -1.499751e+06
   1.560951e+06  -2.377809e+05
   5.077444e+05   7.703650e+05
  -5.774864e+05   7.666944e+05
  -6.466149e+05   6.102482e+04
   5.579592e+04  -4.519064e+05
   5.508611e+05  -3.126466e+05
   3.070992e+05   9.886638e+04
  -3.150186e+05   1.020936e+05
  -5.377284e+05  -4.798897e+05
   9.008050e+04  -1.066656e+06
   1.230755e+06  -8.488462e+05
   1.906931e+06   3.611188e+05
   1.334610e+06   1.774410e+06
  -2.044425e+05   2.248387e+06
  -1.503438e+06   1.385561e+06
  -1.645690e+06  -4.968739e+04
  -9.225764e+05  -9.122731e+05
  -3.288978e+05  -8.072919e+05
  -3.269924e+05  -3.269589e+05
  -4.476358e+05  -2.366532e+05
  -6.721309e+04  -6.165303e+05
   7.636895e+05  -8.531010e+05
   1.359495e+06  -3.686260e+05
   1.061631e+06   6.908883e+05
  -1.700018e+05   1.453967e+06
  -1.598961e+06   1.065271e+06
  -2.113758e+06  -4.247331e+05
  -1.106870e+06  -1.912931e+06
   8.301111e+05  -2.170640e+06
   2.265648e+06  -1.021358e+06
   2.215959e+06   5.005426e+05
   1.030444e+06   1.231476e+06
  -1.116814e+05   1.001732e+06
  -4.534043e+05   5.861243e+05
  -2.394672e+05   6.732669e+05
  -1.763509e+05   1.096578e+06
  -5.878937e+05   1.107236e+06
  -1.136947e+06   2.668760e+05
  -1.203452e+06  -1.006931e+06
  -4.944001e+05  -1.751459e+06
   5.909674e+05  -1.321408e+06
   1.195159e+06  -1.646533e+04
   7.763695e+05   1.134444e+06
  -2.813526e+05   1.278409e+06
  -9.806059e+05   4.693802e+05
  -7.383984e+05  -4.962791e+05
   1.136272e+04  -9.107248e+05
   3.677010e+05  -7.404575e+05
   2.852483e+04  -4.360935e+05
  -3.736135e+05  -3.374243e+05
  -3.855379e+04  -3.643032e+05
   1.013646e+06  -2.095822e+05
   1.836940e+06   2.810011e+05
   1.487048e+06   9.131489e+05
   4.246902e+04   1.263500e+06
  -1.371751e+06   1.023098e+06
  -1.654786e+06   3.106102e+05
  -7.988396e+05  -3.525851e+05
   1.981141e+05  -4.756129e+05
   4.443234e+05  -7.389146e+04
  -2.520173e+03   3.241197e+05
  -4.413837e+05   2.170788e+05
  -4.299714e+05  -3.179468e+05
  -1.539170e+05  -6.861463e+05
  -1.490338e+04  -4.445026e+05
  -1.372538e+05   1.396525e+05
  -3.194978e+05   3.324257e+05
  -2.686016e+05  -2.067730e+05
   1.713756e+05  -9.338921e+05
   8.275821e+05  -9.658945e+05
   1.165040e+06  -1.101571e+05
   6.936208e+05   8.453748e+05
  -3.838414e+05   9.780618e+05
  -1.106818e+06   2.360069e+05
  -6.621004e+05  -5.546595e+05
   6.305392e+05  -6.121819e+05
   1.500728e+06   5.170556e+04
   1.027405e+06   7.834251e+05
  -3.782713e+05   9.774563e+05
  -1.410325e+06   5.434195e+05
  -1.209257e+06  -1.269471e+05
  -1.607255e+05  -4.950307e+05
   5.939196e+05  -2.831029e+05
   3.314520e+05   2.490484e+05
  -5.758786e+05   4.441828e+05
  -1.084990e+06  -1.332951e+05
  -5.496602e+05  -1.120951e+06
   6.291255e+05  -1.543188e+06
   1.413542e+06  -7.635756e+05
   1.156513e+06   7.358173e+05
   1.685474e+05   1.681248e+06
  -6.976337e+05   1.237354e+06
  -8.749797e+05  -1.249959e+05
  -4.422403e+05  -1.107002e+06
   1.520867e+05  -9.368609e+05
   5.073006e+05  -1.013729e+05
   4.741322e+05   3.655608e+05
   1.976709e+05   1.460756e+05
   2.841743e+04  -1.038889e+05
   1.935813e+05   2.409374e+05
   4.453554e+05   8.868923e+05
   2.283069e+05   1.018175e+06
  -6.034338e+05   3.777156e+05
  -1.380564e+06  -4.422024e+05
  -1.240805e+06  -7.877594e+05
  -1.759826e+05  -6.405342e+05
   8.415928e+05  -3.788422e+05
   9.351930e+05  -1.813637e+05
   2.989925e+05   2.242256e+04
  -1.539635e+05   2.036070e+05
   1.699280e+04   2.195605e+05
   3.002286e+05   1.223277e+05
   2.445377e+04   1.267103e+05
  -6.752549e+05   1.910434e+05
  -9.653439e+05  -3.487260e+04
  -3.172248e+05  -6.338707e+05
   8.416257e+05  -1.052811e+06
   1.547162e+06  -6.512574e+05
   1.239875e+06   4.396150e+05
   2.225802e+05   1.317321e+06
  -7.090474e+05   1.254969e+06
  -9.769920e+05   4.555572e+05
  -6.134273e+05  -2.511106e+05
  -9.873963e+04  -3.322530e+05
   1.097011e+05  -2.818917e+04
  -6.044031e+04   5.100664e+04
  -3.011241e+05  -3.297231e+05
  -2.436907e+05  -7.538746e+05
   1.822180e+05  -6.180870e+05
   6.401936e+05   1.526456e+05
   6.471697e+05   9.218289e+05
   4.472697e+04   9.510607e+05
  -7.285448e+05   1.758705e+05
  -9.374547e+05  -7.204754e+05
  -2.832585e+05  -1.010813e+06
   6.740903e+05  -5.877945e+05
   1.014211e+06   9.143522e+04
   4.630845e+05   5.399017e+05
  -2.670874e+05   5.847745e+05
  -3.165374e+05   3.301479e+05
   2.709996e+05   2.891176e+04
   6.144294e+05  -2.358022e+04
   1.193568e+05   2.784421e+05
  -7.728309e+05   6.292551e+05
  -1.139818e+06   5.242944e+05
  -6.661429e+05  -1.362316e+05
   9.990187e+04  -7.896003e+05
   4.827463e+05  -7.749828e+05
   3.536312e+05  -1.185692e+05
   2.293079e+04   4.615065e+05
  -2.326307e+05   3.794192e+05
  -3.262695e+05  -1.765724e+05
  -2.250546e+05  -5.394969e+05
   6.096760e+04  -3.621018e+05
   3.602871e+05   6.097486e+04
   4.275336e+05   2.383844e+05
   2.250799e+05   6.857726e+04
  -1.337785e+04  -1.099055e+05
  -7.879134e+04   1.886617e+04
  -4.424648e+04   3.495020e+05
  -1.215445e+05   4.664600e+05
  -3.179286e+05   1.320272e+05
  -3.713282e+05  -3.973865e+05
  -7.467006e+04  -6.054147e+05
   3.995599e+05  -2.694846e+05
   5.889210e+05   2.884278e+05
   2.112211e+05   5.485859e+05
  -4.633217e+05   3.300775e+05
  -7.965410e+05  -9.327904e+04
  -4.306096e+05  -3.553500e+05
   2.750292e+05  -3.418347e+05
   5.840117e+05  -1.732046e+05
   2.040742e+05  -1.043615e+04
  -3.602173e+05   2.929169e+04
  -3.914105e+05  -1.038624e+05
   1.922528e+05  -2.913189e+05
   7.455834e+05  -2.413200e+05
