
 $NMID
 id='ANONYMOUS ', fmtdat='(2E16.6)'
 volume=1.0
 tramp=1.0
 $END
   3.537292e+07   5.707545e+05
   2.137320e+07   2.108607e+07
  -4.076824e+06   2.348380e+07
  -1.696956e+07   1.012858e+07
  -1.075636e+07  -3.262302e+06
   1.538160e+06  -5.906437e+06
   6.335940e+06  -1.349974e+04
   2.448005e+06   6.021250e+06
  -3.451870e+06   6.633329e+06
  -6.172775e+06   1.849631e+06
  -4.643052e+06  -4.101463e+06
  -5.036295e+05  -5.860147e+06
   2.742750e+06  -1.660972e+06
   1.879089e+06   4.035873e+06
  -2.326243e+06   4.768752e+06
  -5.138305e+06  -5.694660e+05
  -3.061121e+06  -6.561476e+06
   2.302612e+06  -7.685036e+06
   6.498119e+06  -3.731158e+06
   6.809849e+06   1.561132e+06
   3.824049e+06   4.847819e+06
   1.225654e+05   5.122385e+06
  -1.547388e+06   3.384455e+06
  -3.558809e+05   1.839384e+06
   1.279659e+06   2.150603e+06
  -7.482324e+04   3.397214e+06
  -4.267312e+06   2.905573e+06
  -6.881496e+06  -1.000593e+05
  -4.601185e+06  -3.080804e+06
   3.530251e+05  -3.374020e+06
   3.022445e+06  -1.374950e+06
   1.689584e+06   5.875240e+05
  -1.056751e+06   1.121853e+06
  -2.334686e+06   2.288521e+05
  -1.677112e+06  -1.607380e+06
  -5.276231e+04  -3.111079e+06
   1.467207e+06  -2.391638e+06
   1.806844e+06   5.051768e+05
   6.303004e+05   2.386773e+06
  -5.795315e+05   7.233208e+05
   4.764830e+04  -2.170326e+06
   1.798941e+06  -1.765870e+06
   1.719045e+06   1.977881e+06
  -1.210773e+06   3.904479e+06
  -3.992125e+06   7.166890e+05
  -3.101449e+06  -4.239155e+06
   1.085149e+06  -5.291805e+06
   4.749955e+06  -1.504893e+06
   4.812003e+06   2.930489e+06
   1.536210e+06   4.142419e+06
  -2.324240e+06   2.088004e+06
  -3.840328e+06  -8.025633e+05
  -1.973226e+06  -2.287491e+06
   1.422148e+06  -1.555165e+06
   2.999198e+06   4.675681e+05
   1.393693e+06   1.694382e+06
  -1.085113e+06   9.108721e+05
  -1.315146e+06  -6.550945e+05
   6.015564e+05  -8.063395e+05
   1.643234e+06   6.947948e+05
   3.525972e+04   1.892126e+06
  -2.556336e+06   1.299295e+06
  -3.365634e+06  -5.647158e+05
  -1.620100e+06  -2.430025e+06
   1.330556e+06  -3.544233e+06
   3.723021e+06  -3.258153e+06
   4.366178e+06  -9.918575e+05
   2.953752e+06   2.363223e+06
   4.932773e+05   4.313662e+06
  -1.141090e+06   3.399976e+06
  -1.039071e+06   1.173666e+06
  -2.964295e+05   2.293759e+05
  -5.024212e+05   8.525941e+05
  -1.620641e+06   1.064317e+06
  -2.200579e+06  -2.545532e+05
  -1.368876e+06  -1.814074e+06
   2.551312e+05  -1.790202e+06
   1.443122e+06  -9.146275e+04
   1.362143e+06   1.762995e+06
  -1.019959e+05   2.274936e+06
  -2.122920e+06   1.055970e+06
  -3.103983e+06  -1.081108e+06
  -2.038274e+06  -2.680813e+06
   1.489192e+05  -2.752781e+06
   1.484974e+06  -1.692669e+06
   1.377147e+06  -7.817980e+05
   1.218131e+06  -6.117281e+05
   2.159273e+06  -4.725535e+05
   3.248712e+06   4.902020e+05
   2.639583e+06   2.045504e+06
   1.146331e+05   3.139008e+06
  -2.494611e+06   2.963906e+06
  -3.275555e+06   1.504434e+06
  -1.999489e+06  -4.917500e+05
  -3.128054e+04  -1.769983e+06
   9.843829e+05  -1.403719e+06
   4.159068e+05   8.891970e+04
  -8.882950e+05   9.719118e+05
  -1.419474e+06   2.755286e+05
  -6.193601e+05  -9.003216e+05
   4.544574e+05  -8.597620e+05
   4.277373e+05   2.759910e+05
  -6.502904e+05   6.831503e+05
  -1.395663e+06  -6.216249e+05
  -7.933994e+05  -2.398893e+06
   7.835572e+05  -2.742645e+06
   2.227234e+06  -1.250403e+06
   2.714503e+06   8.511618e+05
   1.999067e+06   2.158035e+06
   4.268341e+05   2.129184e+06
  -1.006201e+06   1.142607e+06
  -1.251311e+06   1.362660e+05
  -3.802820e+05  -3.723867e+04
   2.781492e+05   5.761026e+05
  -2.846177e+05   9.881846e+05
  -1.392275e+06   4.322963e+05
  -1.523475e+06  -6.185253e+05
  -3.281046e+05  -1.034295e+06
   8.829028e+05  -4.596219e+05
   7.428667e+05   3.412138e+05
  -6.073984e+05   4.952245e+05
  -1.757636e+06  -1.251549e+05
  -1.493726e+06  -1.038643e+06
   1.131124e+05  -1.617547e+06
   1.795922e+06  -1.353847e+06
   2.157044e+06  -2.317309e+05
   9.271672e+05   9.436692e+05
  -6.882365e+05   1.097875e+06
  -1.136762e+06   1.253402e+05
  -1.147061e+05  -7.990682e+05
   1.158036e+06  -5.511787e+05
   1.328784e+06   5.735678e+05
   3.177358e+05   1.265306e+06
  -7.906254e+05   8.111504e+05
  -9.845947e+05  -1.668962e+05
  -2.427277e+05  -5.759192e+05
   5.779208e+05  -5.084214e+04
   5.499181e+05   8.050560e+05
  -4.645307e+05   1.087621e+06
  -1.558381e+06   3.923451e+05
  -1.558055e+06  -8.274766e+05
  -2.903380e+05  -1.592670e+06
   1.092188e+06  -1.263359e+06
   1.322545e+06  -1.824172e+05
   4.107237e+05   6.573458e+05
  -4.956786e+05   6.351105e+05
  -5.247439e+05   5.653438e+04
   5.935614e+04  -3.392261e+05
   4.269060e+05  -2.278743e+05
   1.972168e+05   6.238966e+04
  -2.891959e+05   2.500436e+04
  -4.258833e+05  -4.471822e+05
   1.112186e+05  -9.019686e+05
   1.050159e+06  -7.030723e+05
   1.607581e+06   3.137698e+05
   1.125511e+06   1.501650e+06
  -1.727144e+05   1.887192e+06
  -1.258922e+06   1.137879e+06
  -1.353584e+06  -6.179147e+04
  -7.362482e+05  -7.355070e+05
  -2.730453e+05  -6.115414e+05
  -3.168135e+05  -2.402639e+05
  -4.162241e+05  -2.224576e+05
  -5.702177e+04  -5.481728e+05
   6.573255e+05  -7.073975e+05
   1.133471e+06  -2.866493e+05
   8.627300e+05   5.706181e+05
  -1.600973e+05   1.185260e+06
  -1.339873e+06   8.697626e+05
  -1.763901e+06  -3.652868e+05
  -9.078907e+05  -1.616195e+06
   7.348024e+05  -1.824664e+06
   1.930619e+06  -8.301290e+05
   1.843759e+06   4.570721e+05
   8.168700e+05   1.032067e+06
  -1.150325e+05   7.970659e+05
  -3.463234e+05   4.591990e+05
  -1.487512e+05   5.807916e+05
  -1.281666e+05   9.617785e+05
  -5.096235e+05   9.562606e+05
  -9.766897e+05   2.296273e+05
  -1.022103e+06  -8.466033e+05
  -4.206821e+05  -1.474030e+06
   4.932061e+05  -1.113614e+06
   1.001882e+06  -6.904638e+03
   6.408812e+05   9.704776e+05
  -2.645301e+05   1.074938e+06
  -8.514887e+05   3.584122e+05
  -6.172637e+05  -4.670917e+05
   4.786803e+04  -7.883720e+05
   3.511203e+05  -6.106165e+05
   3.852921e+04  -3.474960e+05
  -3.238723e+05  -2.764243e+05
  -3.801157e+04  -3.038154e+05
   8.676123e+05  -1.678581e+05
   1.566063e+06   2.499268e+05
   1.249950e+06   7.844667e+05
   6.105317e+03   1.079592e+06
  -1.187901e+06   8.648322e+05
  -1.401916e+06   2.399954e+05
  -6.572755e+05  -3.304184e+05
   1.836425e+05  -4.144133e+05
   3.812003e+05  -4.620114e+04
   4.819708e+03   2.956269e+05
  -3.617332e+05   1.909609e+05
  -3.665557e+05  -2.677949e+05
  -1.568260e+05  -5.748347e+05
  -3.722245e+04  -3.767126e+05
  -1.096549e+05   1.001826e+05
  -2.452639e+05   2.610833e+05
  -2.204286e+05  -1.761084e+05
   1.299914e+05  -7.794857e+05
   6.986146e+05  -8.180890e+05
   1.014076e+06  -1.052674e+05
   6.149534e+05   7.156080e+05
  -3.267422e+05   8.480317e+05
  -9.536358e+05   2.214250e+05
  -5.633319e+05  -4.589413e+05
   5.365324e+05  -5.090657e+05
   1.248993e+06   5.605153e+04
   8.286448e+05   6.601825e+05
  -3.401448e+05   7.963361e+05
  -1.173011e+06   4.215967e+05
  -9.901073e+05  -1.219193e+05
  -1.227759e+05  -4.077668e+05
   5.004147e+05  -2.252132e+05
   2.860284e+05   2.189310e+05
  -4.738718e+05   3.891106e+05
  -9.188600e+05  -9.152060e+04
  -4.897141e+05  -9.361043e+05
   5.001195e+05  -1.314129e+06
   1.176922e+06  -6.651497e+05
   9.768870e+05   6.063349e+05
   1.499534e+05   1.406770e+06
  -5.805299e+05   1.026736e+06
  -7.271348e+05  -1.188584e+05
  -3.556246e+05  -9.277650e+05
   1.456416e+05  -7.702988e+05
   4.305010e+05  -7.546592e+04
   3.832285e+05   2.993039e+05
   1.494383e+05   1.132989e+05
   2.952826e+04  -8.052728e+04
   1.864025e+05   2.186285e+05
   3.843907e+05   7.505441e+05
   1.728530e+05   8.462879e+05
  -5.297467e+05   3.099100e+05
  -1.156181e+06  -3.668360e+05
  -1.022636e+06  -6.548876e+05
  -1.457862e+05  -5.411375e+05
   6.880613e+05  -3.252869e+05
   7.766174e+05  -1.488114e+05
   2.642390e+05   3.149739e+04
  -1.220478e+05   1.745733e+05
  -4.438869e+03   1.700075e+05
   2.320732e+05   8.556418e+04
   3.006365e+04   1.064182e+05
  -5.438440e+05   1.759851e+05
  -8.155122e+05  -1.878850e+04
  -3.019789e+05  -5.409012e+05
   6.835710e+05  -9.062115e+05
   1.315864e+06  -5.687526e+05
   1.074722e+06   3.556574e+05
   2.031255e+05   1.104087e+06
  -5.973864e+05   1.065099e+06
  -8.222865e+05   4.031430e+05
  -5.159086e+05  -1.948896e+05
  -9.437186e+04  -2.808684e+05
   7.491384e+04  -4.082013e+04
  -5.521854e+04   2.674124e+04
  -2.432173e+05  -2.807451e+05
  -1.997045e+05  -6.312728e+05
   1.461837e+05  -5.263614e+05
   5.374273e+05   1.090402e+05
   5.652383e+05   7.591791e+05
   6.699458e+04   8.062514e+05
  -6.021695e+05   1.754257e+05
  -8.032207e+05  -5.821263e+05
  -2.583033e+05  -8.521799e+05
   5.627082e+05  -5.150444e+05
   8.654139e+05   6.636702e+04
   4.025955e+05   4.680681e+05
  -2.258825e+05   5.127696e+05
  -2.826013e+05   2.813275e+05
   2.101286e+05   1.201040e+04
   5.121543e+05  -2.753714e+04
   1.081643e+05   2.384112e+05
  -6.459524e+05   5.312694e+05
  -9.699152e+05   4.304472e+05
  -5.780349e+05  -1.291304e+05
   7.879482e+04  -6.729528e+05
   4.197362e+05  -6.600698e+05
   3.184861e+05  -1.127559e+05
   3.381864e+04   3.818473e+05
  -1.913910e+05   3.318572e+05
  -2.774145e+05  -1.289867e+05
  -1.957294e+05  -4.522560e+05
   4.685966e+04  -3.217837e+05
   3.055961e+05   4.138222e+04
   3.654217e+05   2.109789e+05
   1.882196e+05   6.719700e+04
  -1.855521e+04  -1.075396e+05
  -6.178454e+04  -1.202887e+04
  -8.719113e+03   2.871259e+05
  -6.776391e+04   4.182754e+05
  -2.608304e+05   1.471006e+05
  -3.419793e+05  -3.147720e+05
  -9.867900e+04  -5.112860e+05
   3.268273e+05  -2.397787e+05
   5.113439e+05   2.287517e+05
   1.918805e+05   4.545186e+05
  -3.932941e+05   2.828207e+05
  -6.828138e+05  -6.654316e+04
  -3.703067e+05  -2.963792e+05
   2.311518e+05  -3.029651e+05
   4.977072e+05  -1.655323e+05
   1.860466e+05  -1.083085e+04
  -2.858424e+05   4.476831e+04
  -3.257972e+05  -6.346436e+04
   1.417929e+05  -2.373702e+05
   5.996941e+05  -2.136184e+05
