
 $NMID
 id='ANONYMOUS ', fmtdat='(2E16.6)'
 volume=1.0
 tramp=1.0
 $END
   4.353776e+07  -1.428360e+06
   2.775529e+07   2.410495e+07
  -3.148465e+06   2.894306e+07
  -2.001745e+07   1.403050e+07
  -1.363353e+07  -2.758666e+06
   1.245986e+06  -7.386989e+06
   7.866569e+06  -8.020640e+05
   3.739576e+06   7.187798e+06
  -3.595451e+06   8.743848e+06
  -7.517994e+06   2.964520e+06
  -6.100295e+06  -4.825947e+06
  -1.008781e+06  -7.382037e+06
   3.369306e+06  -2.196306e+06
   2.685747e+06   5.123253e+06
  -2.521841e+06   6.324481e+06
  -6.446699e+06  -2.284163e+05
  -4.332884e+06  -7.931578e+06
   2.277550e+06  -9.732694e+06
   7.807129e+06  -5.037125e+06
   8.487913e+06   1.585272e+06
   4.873816e+06   5.769628e+06
   3.512367e+05   6.146490e+06
  -1.544196e+06   4.071582e+06
   6.131157e+04   2.352342e+06
   1.989634e+06   2.925757e+06
   2.816551e+04   4.540961e+06
  -5.456415e+06   3.926839e+06
  -8.844436e+06   1.483483e+05
  -5.945046e+06  -3.705242e+06
   4.456090e+05  -4.261857e+06
   3.942248e+06  -1.780899e+06
   2.179059e+06   8.854394e+05
  -1.536188e+06   1.695388e+06
  -3.270954e+06   4.013233e+05
  -2.306495e+06  -2.188768e+06
  -9.710133e+04  -4.115692e+06
   1.797041e+06  -3.024953e+06
   2.151509e+06   7.025566e+05
   7.299422e+05   2.940000e+06
  -7.067079e+05   7.049664e+05
   3.384610e+04  -2.960176e+06
   2.209572e+06  -2.438899e+06
   2.329720e+06   2.303426e+06
  -1.082595e+06   4.907077e+06
  -4.690687e+06   1.186291e+06
  -4.047710e+06  -4.954162e+06
   9.250440e+05  -6.552359e+06
   5.779602e+06  -2.164842e+06
   6.320041e+06   3.341317e+06
   2.341467e+06   5.151826e+06
  -2.781306e+06   2.899986e+06
  -5.021400e+06  -6.558764e+05
  -2.785543e+06  -2.722548e+06
   1.600794e+06  -2.086813e+06
   3.790138e+06   3.221276e+05
   1.903796e+06   1.982619e+06
  -1.276474e+06   1.215436e+06
  -1.762185e+06  -7.213335e+05
   5.813252e+05  -1.135769e+06
   2.106197e+06   5.588363e+05
   3.615664e+05   2.201347e+06
  -2.896980e+06   1.816736e+06
  -4.192406e+06  -3.370958e+05
  -2.230738e+06  -2.847882e+06
   1.486671e+06  -4.556256e+06
   4.620612e+06  -4.356500e+06
   5.518569e+06  -1.466364e+06
   3.825649e+06   2.879810e+06
   8.516472e+05   5.469203e+06
  -1.160162e+06   4.439987e+06
  -1.165225e+06   1.697436e+06
  -4.350943e+05   4.793842e+05
  -7.970121e+05   1.191602e+06
  -2.200833e+06   1.390784e+06
  -2.919771e+06  -3.499044e+05
  -1.847001e+06  -2.411606e+06
   3.174676e+05  -2.418182e+06
   1.979896e+06  -1.917967e+05
   1.931982e+06   2.283254e+06
  -2.002339e+04   2.997702e+06
  -2.712725e+06   1.447139e+06
  -4.020731e+06  -1.271718e+06
  -2.690895e+06  -3.302165e+06
   5.540242e+04  -3.435905e+06
   1.735208e+06  -2.172290e+06
   1.626566e+06  -1.083605e+06
   1.484224e+06  -9.172707e+05
   2.760794e+06  -8.053580e+05
   4.257451e+06   3.861486e+05
   3.584476e+06   2.471557e+06
   3.692769e+05   4.094206e+06
  -3.079443e+06   4.041749e+06
  -4.216450e+06   2.146631e+06
  -2.637718e+06  -5.730194e+05
  -9.219169e+04  -2.337455e+06
   1.247671e+06  -1.874289e+06
   5.442430e+05   1.122901e+05
  -1.118028e+06   1.320447e+06
  -1.823343e+06   4.450033e+05
  -8.380224e+05  -1.127791e+06
   5.591265e+05  -1.158068e+06
   6.170159e+05   3.238215e+05
  -7.404710e+05   9.958377e+05
  -1.858843e+06  -5.779771e+05
  -1.317351e+06  -2.980705e+06
   6.699417e+05  -3.693081e+06
   2.760410e+06  -1.942869e+06
   3.680719e+06   8.289220e+05
   2.863855e+06   2.704104e+06
   7.355697e+05   2.807715e+06
  -1.260027e+06   1.572162e+06
  -1.644310e+06   2.486963e+05
  -5.008988e+05  -2.349789e+04
   4.047228e+05   7.345545e+05
  -2.919406e+05   1.296405e+06
  -1.763909e+06   6.561921e+05
  -2.020829e+06  -6.802005e+05
  -5.128224e+05  -1.309804e+06
   1.117427e+06  -6.704448e+05
   1.020117e+06   3.923326e+05
  -7.427106e+05   7.291103e+05
  -2.342600e+06   6.536490e+03
  -2.089106e+06  -1.254917e+06
   4.856934e+03  -2.166903e+06
   2.266337e+06  -1.929334e+06
   2.817473e+06  -4.604266e+05
   1.274682e+06   1.159547e+06
  -8.181123e+05   1.460910e+06
  -1.453663e+06   2.334465e+05
  -1.884502e+05  -1.025153e+06
   1.474537e+06  -7.945681e+05
   1.781543e+06   6.479192e+05
   5.269440e+05   1.631820e+06
  -9.586237e+05   1.140830e+06
  -1.307461e+06  -1.204111e+05
  -3.795571e+05  -7.267946e+05
   7.387984e+05  -1.101543e+05
   7.684987e+05   1.013674e+06
  -5.419712e+05   1.452283e+06
  -2.018271e+06   6.103131e+05
  -2.092561e+06  -9.838786e+05
  -4.874734e+05  -2.062724e+06
   1.335608e+06  -1.728145e+06
   1.715582e+06  -3.384448e+05
   5.927710e+05   8.273560e+05
  -6.004697e+05   8.724270e+05
  -6.986835e+05   1.088035e+05
   4.099961e+04  -4.745580e+05
   5.639161e+05  -3.563006e+05
   3.060715e+05   7.333134e+04
  -3.533602e+05   8.861240e+04
  -6.002554e+05  -5.261022e+05
   6.268260e+04  -1.183460e+06
   1.319991e+06  -9.989216e+05
   2.128058e+06   2.974792e+05
   1.575803e+06   1.890156e+06
  -9.859278e+04   2.491923e+06
  -1.576140e+06   1.597489e+06
  -1.798456e+06   2.730585e+04
  -1.046385e+06  -9.312559e+05
  -4.113559e+05  -8.279283e+05
  -4.097518e+05  -3.225161e+05
  -5.322945e+05  -2.542053e+05
  -1.073824e+05  -6.964363e+05
   8.039528e+05  -9.774351e+05
   1.471789e+06  -4.695163e+05
   1.192207e+06   6.933296e+05
  -1.137084e+05   1.588929e+06
  -1.699922e+06   1.250134e+06
  -2.348499e+06  -3.533750e+05
  -1.315112e+06  -2.052880e+06
   8.177521e+05  -2.440943e+06
   2.458642e+06  -1.235462e+06
   2.459714e+06   4.496235e+05
   1.175074e+06   1.295569e+06
  -7.721830e+04   1.081000e+06
  -4.418548e+05   6.531728e+05
  -1.925203e+05   7.705020e+05
  -1.221720e+05   1.248541e+06
  -5.983538e+05   1.271497e+06
  -1.254349e+06   3.610943e+05
  -1.392683e+06  -1.044307e+06
  -6.484192e+05  -1.907178e+06
   5.753798e+05  -1.494566e+06
   1.316300e+06  -8.159783e+04
   9.125611e+05   1.218734e+06
  -2.566521e+05   1.425561e+06
  -1.071378e+06   5.480145e+05
  -8.375202e+05  -5.387212e+05
  -1.218952e+04  -1.018426e+06
   3.908491e+05  -8.275701e+05
   1.504668e+04  -4.694526e+05
  -4.385286e+05  -3.471957e+05
  -6.709719e+04  -3.987084e+05
   1.116751e+06  -2.822746e+05
   2.057349e+06   2.165576e+05
   1.692293e+06   9.348664e+05
   9.784808e+04   1.402014e+06
  -1.479710e+06   1.208084e+06
  -1.815043e+06   4.220467e+05
  -8.901621e+05  -3.654413e+05
   2.040554e+05  -5.447289e+05
   4.902632e+05  -9.573182e+04
   1.849850e+04   3.736448e+05
  -4.694139e+05   2.708120e+05
  -4.959698e+05  -3.273543e+05
  -2.270108e+05  -7.493669e+05
  -5.770460e+04  -4.936371e+05
  -1.385568e+05   1.509777e+05
  -3.171165e+05   3.747224e+05
  -3.045661e+05  -2.139901e+05
   1.264296e+05  -1.037940e+06
   8.610838e+05  -1.117192e+06
   1.303692e+06  -1.937444e+05
   8.344136e+05   8.994033e+05
  -3.727456e+05   1.118314e+06
  -1.225429e+06   3.368816e+05
  -7.673433e+05  -5.704373e+05
   6.652888e+05  -7.074459e+05
   1.650522e+06  -2.056424e+04
   1.155428e+06   8.052141e+05
  -3.750078e+05   1.082233e+06
  -1.515403e+06   6.575534e+05
  -1.323721e+06  -7.972256e+04
  -1.979722e+05  -5.310206e+05
   6.395357e+05  -3.377559e+05
   3.843193e+05   2.629965e+05
  -6.049261e+05   5.341752e+05
  -1.211345e+06  -7.253383e+04
  -6.890836e+05  -1.204223e+06
   5.893001e+05  -1.752499e+06
   1.511414e+06  -9.392363e+05
   1.322426e+06   7.390676e+05
   2.872793e+05   1.842795e+06
  -6.951845e+05   1.397148e+06
  -9.665632e+05  -9.686246e+04
  -5.406006e+05  -1.194065e+06
   1.252574e+05  -1.030350e+06
   5.562984e+05  -1.340342e+05
   5.346591e+05   3.703345e+05
   2.161894e+05   1.426465e+05
   2.874955e+04  -1.114280e+05
   2.418775e+05   2.672656e+05
   5.482278e+05   9.578957e+05
   2.978815e+05   1.103501e+06
  -6.590797e+05   4.446500e+05
  -1.546693e+06  -4.064033e+05
  -1.401568e+06  -7.930871e+05
  -2.290064e+05  -6.987651e+05
   8.953137e+05  -4.717854e+05
   1.015629e+06  -2.515177e+05
   3.389657e+05   1.702100e+04
  -1.538380e+05   2.362699e+05
   1.986195e+04   2.305143e+05
   3.262310e+05   1.052002e+05
   4.050176e+04   1.390832e+05
  -7.200213e+05   2.610181e+05
  -1.071115e+06   2.292423e+04
  -4.088781e+05  -6.895615e+05
   8.551801e+05  -1.225659e+06
   1.682689e+06  -8.196842e+05
   1.416078e+06   4.081237e+05
   3.312085e+05   1.440631e+06
  -7.131765e+05   1.432280e+06
  -1.054798e+06   5.716043e+05
  -6.927702e+05  -2.317451e+05
  -1.352721e+05  -3.630260e+05
   1.092889e+05  -4.983880e+04
  -6.561222e+04   4.880597e+04
  -3.443782e+05  -3.485915e+05
  -3.086009e+05  -8.165069e+05
   1.619805e+05  -6.977010e+05
   7.163238e+05   1.194495e+05
   7.818435e+05   9.721348e+05
   1.221938e+05   1.053957e+06
  -7.895120e+05   2.543485e+05
  -1.087428e+06  -7.278183e+05
  -3.831576e+05  -1.102894e+06
   7.097033e+05  -7.012048e+05
   1.134055e+06   3.739000e+04
   5.496720e+05   5.800558e+05
  -2.640353e+05   6.746177e+05
  -3.418707e+05   3.838318e+05
   2.900053e+05   7.252431e+03
   6.746427e+05  -6.626598e+04
   1.524110e+05   3.040235e+05
  -8.152459e+05   7.402952e+05
  -1.235669e+06   6.358672e+05
  -7.540277e+05  -1.235058e+05
   6.275012e+04  -8.838038e+05
   4.987758e+05  -8.876519e+05
   3.985504e+05  -1.581009e+05
   6.147944e+04   5.051788e+05
  -2.334500e+05   4.408510e+05
  -3.736193e+05  -1.638455e+05
  -2.834484e+05  -5.824620e+05
   4.508503e+04  -4.149729e+05
   4.037007e+05   4.057579e+04
   4.887545e+05   2.463298e+05
   2.510594e+05   6.917005e+04
  -2.477485e+04  -1.310634e+05
  -8.105797e+04   7.236637e+03
  -9.816197e+03   3.859379e+05
  -8.688928e+04   5.414705e+05
  -3.417742e+05   1.880066e+05
  -4.534543e+05  -4.070294e+05
  -1.402477e+05  -6.681765e+05
   4.207808e+05  -3.295129e+05
   6.781896e+05   2.771192e+05
   2.741941e+05   5.902722e+05
  -4.956622e+05   3.939404e+05
  -8.942001e+05  -5.090211e+04
  -5.011920e+05  -3.669276e+05
   2.853070e+05  -4.032696e+05
   6.407785e+05  -2.369841e+05
   2.343900e+05  -2.342967e+04
  -3.862615e+05   6.720661e+04
  -4.375391e+05  -7.655779e+04
   1.821656e+05  -3.289494e+05
   7.923768e+05  -3.176510e+05
