
 $NMID
 id='ANONYMOUS ', fmtdat='(2E16.6)'
 volume=1.0
 tramp=1.0
 $END
  -2.047932e+07   1.266635e+06
  -1.444728e+07  -8.717210e+06
  -9.155683e+05  -1.304389e+07
   8.392414e+06  -9.343574e+06
   7.575981e+06  -1.413678e+06
   7.548294e+05   3.742858e+06
  -4.163978e+06   2.208228e+06
  -3.469607e+06  -3.162249e+06
   6.241665e+05  -5.890792e+06
   3.778513e+06  -2.859616e+06
   3.540655e+06   2.509088e+06
   6.622742e+05   4.370100e+06
  -1.974356e+06   1.003841e+06
  -1.815372e+06  -3.596919e+06
   9.863533e+05  -4.408754e+06
   3.496695e+06  -6.464851e+05
   2.873386e+06   3.938156e+06
  -6.048468e+05   5.257937e+06
  -3.807849e+06   2.701698e+06
  -4.073981e+06  -9.713870e+05
  -1.835622e+06  -2.776747e+06
   1.684226e+05  -2.226592e+06
  -5.526673e+04  -1.202723e+06
  -1.701146e+06  -1.539105e+06
  -2.078954e+06  -2.988716e+06
   4.129110e+05  -3.647955e+06
   4.195975e+06  -2.205405e+06
   5.729142e+06   5.525779e+05
   3.223318e+06   2.531484e+06
  -1.100908e+06   2.337154e+06
  -3.125001e+06   3.976035e+05
  -1.232423e+06  -1.545076e+06
   2.094980e+06  -1.798511e+06
   3.306783e+06   1.095464e+03
   1.637850e+06   2.403070e+06
  -6.736067e+05   3.147963e+06
  -1.397964e+06   1.381145e+06
  -5.260714e+05  -1.088032e+06
   4.423188e+05  -1.494922e+06
   4.076486e+05   6.154824e+05
  -5.322470e+05   2.596803e+06
  -1.509012e+06   1.823784e+06
  -1.554699e+06  -9.788348e+05
  -2.858153e+05  -2.525056e+06
   1.457165e+06  -9.627358e+05
   1.905823e+06   1.954357e+06
   5.470143e+04   3.035482e+06
  -2.821660e+06   1.208332e+06
  -3.980769e+06  -1.680324e+06
  -1.992017e+06  -3.108904e+06
   1.546960e+06  -2.215404e+06
   3.486272e+06  -1.027387e+05
   2.292563e+06   1.447302e+06
  -5.214646e+05   1.412330e+06
  -2.134568e+06   1.883956e+05
  -1.312193e+06  -8.678529e+05
   5.801638e+05  -7.241591e+05
   1.297719e+06   3.307363e+05
   1.790460e+05   1.049526e+06
  -1.257930e+06   5.990677e+05
  -1.127170e+06  -5.726316e+05
   6.342845e+05  -1.234091e+06
   2.115944e+06  -5.561921e+05
   1.498808e+06   1.158238e+06
  -9.570432e+05   2.645410e+06
  -3.188000e+06   2.565085e+06
  -3.470568e+06   6.181560e+05
  -2.003963e+06  -1.974817e+06
  -3.418716e+05  -3.394516e+06
   3.902245e+05  -2.938961e+06
   4.168777e+05  -1.653255e+06
   6.278248e+05  -9.704106e+05
   1.389537e+06  -9.723218e+05
   2.177730e+06  -5.208041e+05
   2.170624e+06   9.213836e+05
   1.045394e+06   2.260166e+06
  -6.647864e+05   1.971321e+06
  -1.833804e+06   1.366848e+04
  -1.522194e+06  -1.948788e+06
   1.711101e+05  -2.235964e+06
   1.977444e+06  -7.503643e+05
   2.460596e+06   1.148795e+06
   1.363633e+06   2.078838e+06
  -1.599126e+05   1.784233e+06
  -8.368183e+05   1.045746e+06
  -6.798787e+05   7.053049e+05
  -8.170941e+05   8.362835e+05
  -1.895601e+06   7.738724e+05
  -3.015305e+06  -1.159228e+05
  -2.604372e+06  -1.685202e+06
  -3.137971e+05  -2.970753e+06
   2.298125e+06  -2.936500e+06
   3.189938e+06  -1.396241e+06
   1.861339e+06   6.671344e+05
  -2.082344e+05   1.780501e+06
  -1.117020e+06   1.240435e+06
  -3.681454e+05  -1.739400e+05
   8.939411e+05  -9.171715e+05
   1.265949e+06  -2.928216e+05
   4.868830e+05   7.763240e+05
  -4.959796e+05   8.535823e+05
  -6.128598e+05  -2.108679e+05
   2.948868e+05  -9.871667e+05
   1.368397e+06  -1.599298e+05
   1.481079e+06   1.789628e+06
   1.928433e+05   2.967138e+06
  -1.783055e+06   2.083907e+06
  -3.015300e+06  -2.097054e+05
  -2.509972e+06  -2.065452e+06
  -6.633013e+05  -2.265298e+06
   1.003201e+06  -1.182187e+06
   1.262753e+06  -1.239122e+05
   3.697685e+05   1.821762e+04
  -3.065233e+05  -5.334524e+05
   1.467185e+05  -8.889263e+05
   1.169172e+06  -4.822789e+05
   1.431223e+06   3.777908e+05
   4.444490e+05   8.736366e+05
  -7.879599e+05   5.363110e+05
  -8.498024e+05  -2.727158e+05
   4.761167e+05  -7.019137e+05
   1.865496e+06  -2.095745e+05
   1.791460e+06   9.178342e+05
   1.265623e+05   1.766928e+06
  -1.693614e+06   1.562221e+06
  -2.105141e+06   3.885695e+05
  -9.316447e+05  -7.920824e+05
   5.517891e+05  -9.847876e+05
   9.577343e+05  -1.552103e+05
   8.372558e+04   6.921186e+05
  -1.058443e+06   5.680460e+05
  -1.325673e+06  -4.162897e+05
  -4.966472e+05  -1.190377e+06
   6.195011e+05  -9.510366e+05
   9.992247e+05  -4.281240e+04
   3.789895e+05   4.949449e+05
  -4.819409e+05   1.074519e+05
  -5.426860e+05  -7.233999e+05
   4.203728e+05  -1.049143e+06
   1.491165e+06  -4.160626e+05
   1.520995e+06   7.370735e+05
   3.634266e+05   1.498903e+06
  -9.379803e+05   1.275576e+06
  -1.246834e+06   2.963929e+05
  -4.838712e+05  -5.864562e+05
   4.163056e+05  -6.747839e+05
   5.748965e+05  -7.587781e+04
   2.032478e+04   4.581873e+05
  -5.024862e+05   3.739282e+05
  -3.987672e+05  -8.606122e+04
   1.745215e+05  -2.191628e+05
   5.002875e+05   2.646687e+05
   4.686677e+04   8.537573e+05
  -9.369733e+05   7.672058e+05
  -1.569892e+06  -1.942228e+05
  -1.162565e+06  -1.381895e+06
   6.880786e+04  -1.865419e+06
   1.178269e+06  -1.266111e+06
   1.414070e+06  -8.527808e+04
   8.969581e+05   7.650413e+05
   3.396007e+05   7.967648e+05
   2.046598e+05   3.482719e+05
   2.802297e+05   1.399654e+05
   6.711116e+04   4.378291e+05
  -5.540720e+05   7.478399e+05
  -1.111776e+06   4.151534e+05
  -9.702630e+05  -5.323792e+05
   2.486849e+04  -1.275937e+06
   1.267326e+06  -1.002395e+06
   1.781767e+06   2.348773e+05
   1.039817e+06   1.498841e+06
  -5.076807e+05   1.807056e+06
  -1.751687e+06   9.902960e+05
  -1.872736e+06  -2.290209e+05
  -1.011195e+06  -9.561618e+05
  -1.631692e+04  -9.196128e+05
   4.105994e+05  -5.897846e+05
   2.897943e+05  -5.535448e+05
   1.588843e+05  -8.308205e+05
   4.131547e+05  -8.744205e+05
   8.805690e+05  -2.483798e+05
   1.010954e+06   7.809369e+05
   4.707066e+05   1.418731e+06
  -4.384402e+05   1.108754e+06
  -9.865265e+05   8.195267e+04
  -7.070856e+05  -8.581081e+05
   1.148130e+05  -1.052226e+06
   7.119964e+05  -4.972250e+05
   6.159304e+05   2.649979e+05
   1.050015e+05   6.837716e+05
  -1.728249e+05   6.340548e+05
   3.524406e+04   3.966344e+05
   3.025775e+05   2.818095e+05
   3.540529e+04   3.054118e+05
  -7.870469e+05   2.273769e+05
  -1.468863e+06  -1.312180e+05
  -1.256139e+06  -6.499842e+05
  -1.481328e+05  -9.870018e+05
   1.009697e+06  -8.761959e+05
   1.316196e+06  -3.691730e+05
   6.904480e+05   1.746051e+05
  -1.108707e+05   3.603753e+05
  -3.387286e+05   1.117123e+05
   1.392644e+04  -2.182058e+05
   3.786950e+05  -1.819097e+05
   3.556471e+05   2.447992e+05
   9.541364e+04   5.739023e+05
  -2.487557e+04   3.687811e+05
   1.124501e+05  -1.608179e+05
   2.919815e+05  -3.374184e+05
   2.397544e+05   1.505383e+05
  -1.300633e+05   7.927447e+05
  -6.346789e+05   8.148644e+05
  -8.811913e+05   9.836415e+04
  -5.339501e+05  -6.676602e+05
   2.754345e+05  -7.619727e+05
   8.585477e+05  -1.806150e+05
   5.564256e+05   4.473567e+05
  -4.762962e+05   5.402023e+05
  -1.259876e+06   5.429781e+04
  -9.556391e+05  -5.828384e+05
   2.101706e+05  -8.672859e+05
   1.150577e+06  -5.905743e+05
   1.052760e+06   8.004984e+03
   1.843265e+05   4.139669e+05
  -4.688001e+05   2.866115e+05
  -2.633622e+05  -1.722601e+05
   4.837249e+05  -3.596696e+05
   8.919765e+05   1.112990e+05
   4.415921e+05   9.240857e+05
  -5.226694e+05   1.271368e+06
  -1.165727e+06   6.417015e+05
  -9.778467e+05  -5.855144e+05
  -1.946314e+05  -1.394467e+06
   5.289410e+05  -1.080287e+06
   7.382438e+05   3.131337e+04
   4.483774e+05   8.914379e+05
  -3.796087e+04   8.083983e+05
  -3.997380e+05   1.253607e+05
  -4.432952e+05  -2.916818e+05
  -2.103008e+05  -1.257692e+05
  -3.690543e+03   9.965622e+04
  -1.103545e+05  -1.638743e+05
  -3.802989e+05  -7.039043e+05
  -2.780402e+05  -8.419032e+05
   4.272945e+05  -3.444206e+05
   1.166919e+06   3.140419e+05
   1.103271e+06   6.031532e+05
   1.757314e+05   5.125992e+05
  -7.224881e+05   3.404282e+05
  -7.815176e+05   2.012654e+05
  -2.129593e+05   1.710343e+04
   1.360102e+05  -1.697507e+05
  -7.084271e+04  -2.046580e+05
  -3.045333e+05  -1.175737e+05
  -4.547552e+03  -1.070386e+05
   6.066475e+05  -1.616700e+05
   7.912590e+05   1.229849e+04
   2.062590e+05   5.047020e+05
  -7.096540e+05   8.652411e+05
  -1.220235e+06   5.484030e+05
  -9.725699e+05  -3.532371e+05
  -2.050871e+05  -1.088466e+06
   5.309130e+05  -1.039744e+06
   7.903312e+05  -3.712838e+05
   5.215737e+05   2.163050e+05
   6.965601e+04   2.701613e+05
  -1.345564e+05  -3.071804e+03
   3.099756e+04  -7.863569e+04
   2.825218e+05   2.462443e+05
   2.455477e+05   6.131829e+05
  -1.416289e+05   5.044322e+05
  -5.430743e+05  -1.405545e+05
  -5.315746e+05  -7.747192e+05
  -9.303457e+03  -7.780534e+05
   6.264590e+05  -1.187760e+05
   7.783182e+05   6.116057e+05
   2.302776e+05   8.226364e+05
  -5.470691e+05   4.674776e+05
  -8.141621e+05  -6.053658e+04
  -3.686171e+05  -3.981308e+05
   2.003043e+05  -4.447485e+05
   2.109037e+05  -2.700843e+05
  -2.687738e+05  -3.250852e+04
  -5.173950e+05   3.021515e+04
  -9.078713e+04  -2.175740e+05
   6.183422e+05  -5.473367e+05
   8.851764e+05  -4.983203e+05
   5.077670e+05   5.859812e+04
  -6.384492e+04   6.358261e+05
  -3.367001e+05   6.334705e+05
  -2.440494e+05   7.466578e+04
  -8.644643e+03  -3.984560e+05
   1.898618e+05  -2.950549e+05
   2.770547e+05   1.760640e+05
   1.941853e+05   4.398607e+05
  -5.169838e+04   2.636390e+05
  -2.971642e+05  -5.790584e+04
  -3.442711e+05  -1.568172e+05
  -1.864002e+05  -2.517045e+04
  -6.813633e+03   5.910567e+04
   6.240319e+04  -8.290530e+04
   8.215634e+04  -3.162259e+05
   1.676550e+05  -3.450708e+05
   2.853616e+05  -4.439022e+04
   2.640818e+05   3.665585e+05
   6.268704e+03   5.046687e+05
  -3.429579e+05   2.130405e+05
  -4.663019e+05  -2.494857e+05
  -1.680786e+05  -4.630825e+05
   3.608385e+05  -2.778992e+05
   6.349181e+05   7.461041e+04
   3.520070e+05   2.826740e+05
  -2.183009e+05   2.583659e+05
  -4.664838e+05   1.203061e+05
  -1.361106e+05   6.612093e+03
   3.414410e+05  -1.772606e+03
   3.437872e+05   1.205517e+05
  -1.867916e+05   2.730577e+05
  -6.681232e+05   2.177861e+05
