
 $NMID
 id='ANONYMOUS ', fmtdat='(2E16.6)'
 volume=1.0
 tramp=1.0
 $END
   4.951148e+07   4.974547e+05
   2.972936e+07   3.036252e+07
  -6.358500e+06   3.326282e+07
  -2.414089e+07   1.327497e+07
  -1.470028e+07  -5.632929e+06
   2.660372e+06  -8.227607e+06
   8.739410e+06   7.023556e+05
   2.780114e+06   8.553635e+06
  -5.267095e+06   8.601294e+06
  -8.562177e+06   2.032395e+06
  -6.255048e+06  -5.589623e+06
  -6.746341e+05  -7.805406e+06
   3.641323e+06  -2.362200e+06
   2.402100e+06   5.120973e+06
  -3.326010e+06   6.088559e+06
  -7.024181e+06  -1.065074e+06
  -4.009907e+06  -9.072813e+06
   3.332538e+06  -1.050483e+07
   8.983486e+06  -5.167464e+06
   9.502484e+06   1.981786e+06
   5.621231e+06   6.673549e+06
   4.252884e+05   7.439596e+06
  -2.424699e+06   5.102370e+06
  -1.220556e+06   2.457065e+06
   1.255745e+06   2.327375e+06
   7.363517e+04   4.072470e+06
  -5.223690e+06   3.907718e+06
  -8.914896e+06   1.763862e+05
  -6.265780e+06  -3.910659e+06
   6.475073e+04  -4.544905e+06
   3.633253e+06  -2.112219e+06
   2.236244e+06   3.096455e+05
  -9.007354e+05   1.090734e+06
  -2.479079e+06   3.663550e+05
  -2.069932e+06  -1.643320e+06
  -3.853405e+05  -3.789034e+06
   1.771520e+06  -3.362032e+06
   2.716266e+06   3.275867e+05
   1.258451e+06   3.247646e+06
  -7.268099e+05   1.432962e+06
  -1.438647e+05  -2.487147e+06
   2.310295e+06  -2.181930e+06
   2.238922e+06   2.805254e+06
  -1.988989e+06   5.419603e+06
  -5.918016e+06   9.201844e+05
  -4.421293e+06  -6.045023e+06
   1.645334e+06  -7.460227e+06
   6.582427e+06  -2.093410e+06
   6.331375e+06   4.016400e+06
   1.795628e+06   5.506354e+06
  -3.149581e+06   2.574626e+06
  -4.909364e+06  -1.289239e+06
  -2.357922e+06  -3.137709e+06
   2.086105e+06  -2.019844e+06
   4.064008e+06   7.708211e+05
   1.796070e+06   2.395640e+06
  -1.519778e+06   1.226301e+06
  -1.645223e+06  -9.196929e+05
   1.049284e+06  -9.316121e+05
   2.229389e+06   1.335101e+06
  -3.204293e+05   2.890274e+06
  -3.890116e+06   1.722671e+06
  -4.683107e+06  -1.056100e+06
  -2.114806e+06  -3.471397e+06
   1.712783e+06  -4.746340e+06
   4.731982e+06  -4.346352e+06
   5.704121e+06  -1.450823e+06
   4.052702e+06   2.995306e+06
   7.488747e+05   5.662992e+06
  -1.646922e+06   4.406972e+06
  -1.528589e+06   1.287600e+06
  -2.561245e+05  -2.011994e+04
  -2.605356e+05   9.772945e+05
  -1.742946e+06   1.526015e+06
  -2.701339e+06  -2.200984e+04
  -1.819573e+06  -2.030022e+06
   1.376192e+05  -2.121964e+06
   1.619275e+06  -1.469172e+05
   1.628461e+06   2.087186e+06
  -7.046078e+04   2.815553e+06
  -2.648639e+06   1.450888e+06
  -4.086141e+06  -1.245752e+06
  -2.827925e+06  -3.491208e+06
   1.135345e+05  -3.772991e+06
   2.042049e+06  -2.378928e+06
   1.958836e+06  -1.032495e+06
   1.658399e+06  -6.923587e+05
   2.767081e+06  -4.974288e+05
   4.110113e+06   7.047269e+05
   3.299810e+06   2.628120e+06
   1.053451e+05   3.936483e+06
  -3.112560e+06   3.695938e+06
  -4.044920e+06   1.936327e+06
  -2.516306e+06  -5.080726e+05
  -1.537137e+05  -2.166615e+06
   1.137977e+06  -1.799725e+06
   5.296958e+05   6.979661e+04
  -1.078313e+06   1.229024e+06
  -1.806490e+06   3.543888e+05
  -8.299953e+05  -1.146238e+06
   5.336167e+05  -1.065450e+06
   4.598649e+05   3.670765e+05
  -9.435350e+05   7.416315e+05
  -1.763928e+06  -1.056234e+06
  -7.544450e+05  -3.208573e+06
   1.326373e+06  -3.330969e+06
   2.931726e+06  -1.251439e+06
   3.254705e+06   1.280180e+06
   2.287242e+06   2.687704e+06
   4.522527e+05   2.570515e+06
  -1.227790e+06   1.402674e+06
  -1.533965e+06   1.866116e+05
  -4.733481e+05  -4.874391e+04
   3.397677e+05   7.239679e+05
  -3.897047e+05   1.264424e+06
  -1.799320e+06   5.369289e+05
  -1.928405e+06  -8.357988e+05
  -3.759950e+05  -1.337923e+06
   1.122234e+06  -5.500867e+05
   8.796122e+05   4.419312e+05
  -8.002937e+05   5.402209e+05
  -2.134143e+06  -2.687148e+05
  -1.737936e+06  -1.318819e+06
   2.198442e+05  -1.942064e+06
   2.242683e+06  -1.609217e+06
   2.678951e+06  -2.503282e+05
   1.156052e+06   1.211357e+06
  -8.847282e+05   1.409441e+06
  -1.470271e+06   1.619262e+05
  -1.667294e+05  -1.024085e+06
   1.459423e+06  -6.893294e+05
   1.649705e+06   7.526746e+05
   3.379818e+05   1.590310e+06
  -1.036743e+06   9.589801e+05
  -1.216281e+06  -2.773638e+05
  -2.550007e+05  -7.435576e+05
   7.509133e+05  -5.121791e+04
   6.928308e+05   1.016145e+06
  -5.744690e+05   1.361296e+06
  -1.940953e+06   4.947807e+05
  -1.945716e+06  -1.034526e+06
  -3.506402e+05  -1.996982e+06
   1.391284e+06  -1.568776e+06
   1.660254e+06  -1.974095e+05
   4.870379e+05   8.356283e+05
  -6.358297e+05   7.753243e+05
  -6.268245e+05   6.641969e+04
   1.041344e+05  -3.745313e+05
   4.979331e+05  -2.258256e+05
   1.634196e+05   7.177843e+04
  -4.072250e+05  -3.843021e+04
  -5.062401e+05  -6.197334e+05
   1.868520e+05  -1.135818e+06
   1.331072e+06  -8.564369e+05
   2.001572e+06   4.130100e+05
   1.392763e+06   1.883734e+06
  -2.308109e+05   2.337431e+06
  -1.572973e+06   1.367709e+06
  -1.648345e+06  -1.205812e+05
  -8.502036e+05  -8.910792e+05
  -3.101090e+05  -6.790171e+05
  -4.329653e+05  -2.454017e+05
  -5.713310e+05  -2.964064e+05
  -7.645795e+04  -7.175339e+05
   8.427393e+05  -8.657693e+05
   1.404406e+06  -3.161869e+05
   1.027187e+06   7.107961e+05
  -2.395950e+05   1.429498e+06
  -1.672020e+06   1.036556e+06
  -2.172996e+06  -4.808458e+05
  -1.088879e+06  -2.029741e+06
   9.718684e+05  -2.269914e+06
   2.443135e+06  -9.878655e+05
   2.271868e+06   6.320534e+05
   9.438279e+05   1.297925e+06
  -1.884272e+05   9.390099e+05
  -4.003005e+05   5.155485e+05
  -1.198148e+05   7.223507e+05
  -1.298395e+05   1.235931e+06
  -6.513272e+05   1.218801e+06
  -1.238184e+06   2.901350e+05
  -1.274870e+06  -1.055706e+06
  -5.173981e+05  -1.833246e+06
   6.155533e+05  -1.380597e+06
   1.242100e+06   8.717127e+03
   7.783376e+05   1.233775e+06
  -3.711844e+05   1.340702e+06
  -1.103910e+06   4.016092e+05
  -7.731174e+05  -6.471802e+05
   1.060479e+05  -1.017684e+06
   4.960219e+05  -7.530504e+05
   7.423372e+04  -4.116339e+05
  -4.098839e+05  -3.335545e+05
  -5.120980e+04  -3.726525e+05
   1.099706e+06  -1.961614e+05
   1.972965e+06   3.324860e+05
   1.550219e+06   1.004111e+06
  -3.221937e+04   1.370474e+06
  -1.522605e+06   1.080495e+06
  -1.761431e+06   2.640684e+05
  -8.056671e+05  -4.615693e+05
   2.478547e+05  -5.360996e+05
   4.877210e+05  -3.708148e+04
   1.940849e+04   3.934198e+05
  -4.361129e+05   2.419444e+05
  -4.592926e+05  -3.341214e+05
  -2.236827e+05  -7.038255e+05
  -7.479008e+04  -4.641199e+05
  -1.348659e+05   1.005727e+05
  -2.831466e+05   2.925756e+05
  -2.665819e+05  -2.246644e+05
   1.513256e+05  -9.554783e+05
   8.751574e+05  -1.018681e+06
   1.298735e+06  -1.490879e+05
   7.987870e+05   8.894424e+05
  -4.092804e+05   1.083258e+06
  -1.207027e+06   3.030558e+05
  -7.017733e+05  -5.627209e+05
   6.793739e+05  -6.227262e+05
   1.537776e+06   9.839885e+04
   9.804979e+05   8.380816e+05
  -4.631622e+05   9.609633e+05
  -1.453985e+06   4.669249e+05
  -1.199713e+06  -1.856344e+05
  -1.314542e+05  -5.003452e+05
   6.280788e+05  -2.601365e+05
   3.653289e+05   2.836363e+05
  -5.737844e+05   4.956999e+05
  -1.141946e+06  -9.321568e+04
  -6.329586e+05  -1.149549e+06
   5.900594e+05  -1.639290e+06
   1.444584e+06  -8.418498e+05
   1.209791e+06   7.433640e+05
   1.836294e+05   1.736348e+06
  -7.249856e+05   1.251364e+06
  -8.952605e+05  -1.726616e+05
  -4.134284e+05  -1.155536e+06
   2.139448e+05  -9.389191e+05
   5.429010e+05  -7.951392e+04
   4.519361e+05   3.691557e+05
   1.609905e+05   1.350944e+05
   4.630328e+04  -9.293500e+04
   2.638463e+05   2.855964e+05
   4.851612e+05   9.375988e+05
   1.814328e+05   1.045412e+06
  -6.899819e+05   3.778654e+05
  -1.425138e+06  -4.593711e+05
  -1.236591e+06  -8.176306e+05
  -1.749761e+05  -6.766641e+05
   8.302526e+05  -4.010484e+05
   9.542384e+05  -1.713552e+05
   3.474979e+05   5.287680e+04
  -1.426233e+05   2.176712e+05
  -3.436825e+04   1.985034e+05
   2.570517e+05   9.271555e+04
   4.828117e+04   1.293939e+05
  -6.421867e+05   2.261793e+05
  -1.013791e+06  -1.533152e+04
  -4.168208e+05  -6.729460e+05
   8.192524e+05  -1.138435e+06
   1.649903e+06  -7.267459e+05
   1.367075e+06   4.225778e+05
   2.625229e+05   1.362854e+06
  -7.481312e+05   1.330284e+06
  -1.018783e+06   5.194017e+05
  -6.342603e+05  -2.256893e+05
  -1.295462e+05  -3.478765e+05
   6.669761e+04  -6.611432e+04
  -7.907060e+04   1.410743e+04
  -2.885024e+05  -3.577244e+05
  -2.358552e+05  -7.835402e+05
   1.748163e+05  -6.584210e+05
   6.594421e+05   1.158332e+05
   7.171704e+05   9.206519e+05
   1.153998e+05   1.000603e+06
  -7.276020e+05   2.441595e+05
  -1.004049e+06  -6.948498e+05
  -3.398135e+05  -1.056513e+06
   6.910623e+05  -6.596478e+05
   1.086283e+06   7.209219e+04
   5.168837e+05   5.976122e+05
  -2.795691e+05   6.613791e+05
  -3.722661e+05   3.566760e+05
   2.350133e+05   6.572483e+03
   6.281012e+05  -3.853841e+04
   1.434496e+05   2.997185e+05
  -8.004252e+05   6.560995e+05
  -1.224675e+06   5.175488e+05
  -7.431558e+05  -1.773421e+05
   9.374661e+04  -8.443667e+05
   5.406247e+05  -8.308157e+05
   4.184621e+05  -1.601410e+05
   5.524571e+04   4.621701e+05
  -2.309876e+05   4.251407e+05
  -3.413196e+05  -1.371254e+05
  -2.471829e+05  -5.592251e+05
   4.991875e+04  -4.192229e+05
   3.793336e+05   4.063940e+04
   4.625392e+05   2.759424e+05
   2.347228e+05   9.696223e+04
  -3.583677e+04  -1.501920e+05
  -7.948718e+04  -5.132347e+04
   2.026204e+04   3.393907e+05
  -3.674142e+04   5.406030e+05
  -3.059359e+05   2.233874e+05
  -4.531500e+05  -3.603388e+05
  -1.637894e+05  -6.273519e+05
   3.922101e+05  -3.087662e+05
   6.489038e+05   2.658807e+05
   2.504204e+05   5.529981e+05
  -4.933729e+05   3.557785e+05
  -8.597046e+05  -6.910302e+04
  -4.669059e+05  -3.652475e+05
   2.844274e+05  -3.935461e+05
   6.213025e+05  -2.283540e+05
   2.482949e+05  -1.895234e+04
  -3.279727e+05   7.318617e+04
  -3.926057e+05  -5.269124e+04
   1.555089e+05  -2.781744e+05
   7.090729e+05  -2.656568e+05
