
 $NMID
 id='ANONYMOUS ', fmtdat='(2E16.6)'
 volume=1.0
 tramp=1.0
 $END
  -3.628867e+03  -1.558639e+01
  -2.272538e+03  -1.925194e+03
   1.901199e+02  -2.239841e+03
   1.450245e+03  -1.151856e+03
   9.054496e+02  -4.226661e+00
  -1.723004e+02   2.541838e+02
  -4.966934e+02  -2.227185e+02
  -1.481144e+01  -6.984865e+02
   5.640007e+02  -6.346619e+02
   7.271004e+02  -3.684778e+01
   4.365364e+02   6.087365e+02
  -6.031371e+01   7.146527e+02
  -3.916945e+02   1.566243e+02
  -2.797001e+02  -5.130436e+02
   1.604295e+02  -6.059160e+02
   4.626631e+02  -5.539616e+01
   2.995156e+02   5.426839e+02
  -1.643793e+02   6.328739e+02
  -4.909853e+02   2.391657e+02
  -4.323053e+02  -2.110938e+02
  -1.097189e+02  -3.796686e+02
   1.517505e+02  -2.527887e+02
   1.053640e+02  -5.643090e+01
  -1.836290e+02  -4.060728e+01
  -3.378428e+02  -2.425756e+02
  -4.640001e+01  -4.065087e+02
   4.947965e+02  -2.480024e+02
   7.010685e+02   1.649225e+02
   2.801086e+02   4.334577e+02
  -3.665173e+02   2.874862e+02
  -5.924284e+02  -1.152655e+02
  -2.372209e+02  -4.127753e+02
   2.788533e+02  -4.105416e+02
   4.996594e+02  -1.551090e+02
   3.556325e+02   1.814251e+02
   7.826838e+01   3.608679e+02
  -8.116543e+01   2.052046e+02
  -1.139508e+01  -1.443702e+02
   1.974275e+02  -2.457027e+02
   2.884830e+02   1.242453e+02
   7.700975e+01   5.753615e+02
  -2.843235e+02   5.261730e+02
  -4.136009e+02  -1.161870e+01
  -1.530049e+02  -3.973008e+02
   2.038847e+02  -1.873703e+02
   2.405164e+02   3.040542e+02
  -1.057541e+02   4.485366e+02
  -4.907280e+02   8.275123e+01
  -5.338926e+02  -3.872251e+02
  -1.673089e+02  -5.300179e+02
   3.287060e+02  -2.973714e+02
   5.619926e+02   6.364789e+01
   3.547468e+02   2.889681e+02
  -8.178779e+01   2.646379e+02
  -3.345028e+02   7.378487e+01
  -2.180453e+02  -7.225428e+01
   3.215180e+01  -3.779172e+01
   7.024612e+01   8.421309e+01
  -1.275275e+02   9.345082e+01
  -2.656373e+02  -5.905724e+01
  -1.295130e+02  -2.252196e+02
   1.644780e+02  -2.557334e+02
   3.400232e+02  -1.323226e+02
   2.571555e+02   8.446426e+01
  -7.388757e+00   3.031208e+02
  -2.707334e+02   3.778926e+02
  -3.706859e+02   1.919410e+02
  -2.621070e+02  -1.592284e+02
  -6.042240e+01  -3.909207e+02
   5.655920e+01  -3.385609e+02
   4.073420e+01  -1.527946e+02
   2.008929e+01  -7.830346e+01
   1.107782e+02  -1.220984e+02
   2.469528e+02  -8.683810e+01
   2.657999e+02   1.033279e+02
   1.156477e+02   2.716220e+02
  -9.292108e+01   2.188551e+02
  -2.108817e+02  -2.757571e+01
  -1.604343e+02  -2.519297e+02
   3.786954e+01  -2.720555e+02
   2.611937e+02  -8.167896e+01
   3.333692e+02   1.735130e+02
   1.794884e+02   3.177130e+02
  -6.324482e+01   2.801696e+02
  -1.808942e+02   1.477371e+02
  -1.438378e+02   6.491784e+01
  -1.345951e+02   6.884855e+01
  -2.748496e+02   5.547660e+01
  -4.237973e+02  -7.789923e+01
  -3.386634e+02  -2.959987e+02
   1.064006e+01  -4.520764e+02
   3.782147e+02  -4.203462e+02
   4.917050e+02  -1.943245e+02
   3.094408e+02   9.948229e+01
   3.037082e+01   2.713364e+02
  -1.064502e+02   2.154722e+02
  -2.905375e+01   3.013662e+01
   1.236694e+02  -6.214553e+01
   1.545340e+02   3.363144e+01
   1.743868e+01   1.632737e+02
  -1.355758e+02   1.233247e+02
  -1.308894e+02  -6.007416e+01
   2.922638e+01  -1.522434e+02
   1.769479e+02  -8.906851e+00
   1.619905e+02   2.419313e+02
  -1.697012e+01   3.514876e+02
  -2.390875e+02   2.153590e+02
  -3.596759e+02  -5.281646e+01
  -2.935570e+02  -2.572161e+02
  -7.760226e+01  -2.810302e+02
   1.275124e+02  -1.530946e+02
   1.630115e+02  -1.024902e+01
   4.052397e+01   2.064381e+01
  -6.058404e+01  -5.807952e+01
  -5.601845e+00  -1.229467e+02
   1.293528e+02  -7.907904e+01
   1.605787e+02   2.436803e+01
   3.820489e+01   6.305898e+01
  -8.715209e+01  -3.886621e+00
  -4.758371e+01  -9.182118e+01
   1.446789e+02  -9.562070e+01
   3.074776e+02   9.161552e+00
   2.718397e+02   1.630190e+02
   4.231988e+01   2.706345e+02
  -2.054960e+02   2.530315e+02
  -2.803447e+02   1.100861e+02
  -1.495262e+02  -4.906815e+01
   3.109396e+01  -8.912309e+01
   7.399393e+01   3.243236e+00
  -5.025833e+01   9.067832e+01
  -1.943556e+02   4.286519e+01
  -2.010075e+02  -1.052201e+02
  -6.216214e+01  -1.977348e+02
   9.199257e+01  -1.455076e+02
   1.336987e+02  -2.058825e+01
   5.325324e+01   4.018164e+01
  -4.313244e+01  -1.375337e+01
  -3.550607e+01  -1.071339e+02
   9.081445e+01  -1.248742e+02
   2.151317e+02  -2.235887e+01
   1.930080e+02   1.329872e+02
   1.645389e+01   2.171617e+02
  -1.606475e+02   1.596470e+02
  -1.827939e+02   1.156400e+01
  -5.872582e+01  -1.016544e+02
   6.422407e+01  -1.019691e+02
   7.494940e+01  -2.661738e+01
   5.455292e+00   2.756729e+01
  -3.556183e+01   1.368946e+01
   6.872276e+00  -2.255663e+01
   8.589940e+01  -3.457191e+00
   1.073967e+02   8.788142e+01
   1.790507e+01   1.769024e+02
  -1.395582e+02   1.621348e+02
  -2.453129e+02   1.931645e+01
  -2.036154e+02  -1.580866e+02
  -4.278888e+01  -2.361012e+02
   1.034777e+02  -1.671862e+02
   1.329122e+02  -3.287277e+01
   7.468187e+01   4.588912e+01
   3.347288e+01   2.997885e+01
   5.606844e+01  -1.576721e+01
   8.813147e+01  -9.876226e+00
   5.693085e+01   5.449579e+01
  -3.719095e+01   1.059205e+02
  -1.189322e+02   7.203433e+01
  -1.074188e+02  -3.912097e+01
   1.206440e+01  -1.302245e+02
   1.611769e+02  -9.774721e+01
   2.127252e+02   5.909744e+01
   9.618238e+01   2.163510e+02
  -1.205074e+02   2.336526e+02
  -2.744129e+02   9.216396e+01
  -2.556470e+02  -8.830629e+01
  -1.060270e+02  -1.741327e+02
   3.905781e+01  -1.442201e+02
   9.074800e+01  -8.391613e+01
   7.186452e+01  -7.197809e+01
   5.909399e+01  -9.658241e+01
   9.074408e+01  -8.236429e+01
   1.343272e+02   1.610609e+01
   1.252701e+02   1.549321e+02
   3.266444e+01   2.310641e+02
  -9.955512e+01   1.741260e+02
  -1.761922e+02   1.654538e+01
  -1.347746e+02  -1.276244e+02
  -1.438694e+01  -1.616079e+02
   7.518373e+01  -8.751807e+01
   6.559766e+01   9.983067e+00
   1.067914e-01   5.373656e+01
  -2.315105e+01   3.880982e+01
   2.949338e+01   1.380511e+01
   8.548641e+01   1.681732e+01
   5.137547e+01   3.912636e+01
  -7.194742e+01   4.295645e+01
  -1.754641e+02   4.382501e+00
  -1.503906e+02  -5.941314e+01
  -5.654855e+00  -1.001125e+02
   1.335569e+02  -7.972756e+01
   1.497643e+02  -1.031577e+01
   4.825135e+01   4.913707e+01
  -5.988443e+01   4.504613e+01
  -7.999465e+01  -1.666651e+01
  -1.955769e+01  -7.299570e+01
   4.678700e+01  -6.621506e+01
   6.884686e+01  -3.859577e+00
   5.789860e+01   4.912864e+01
   4.952444e+01   4.261571e+01
   5.791609e+01   1.232561e+00
   6.686380e+01  -3.665101e-01
   4.597505e+01   7.143971e+01
  -2.437633e+01   1.553551e+02
  -1.230364e+02   1.525782e+02
  -1.811378e+02   4.019384e+01
  -1.351746e+02  -9.264209e+01
  -6.887175e+00  -1.355620e+02
   9.129588e+01  -7.247862e+01
   6.327731e+01   1.000191e+01
  -5.912057e+01   2.233681e+01
  -1.383435e+02  -4.000491e+01
  -7.550188e+01  -1.077855e+02
   8.280450e+01  -1.143266e+02
   1.933525e+02  -5.053326e+01
   1.626949e+02   3.752366e+01
   3.426859e+01   8.726532e+01
  -6.455094e+01   6.595234e+01
  -5.063461e+01   1.473162e+00
   3.965657e+01  -3.215194e+01
   9.471759e+01   1.782045e+01
   4.238150e+01   1.170660e+02
  -7.876089e+01   1.601185e+02
  -1.601922e+02   7.408348e+01
  -1.309632e+02  -9.143155e+01
  -2.029658e+01  -1.962033e+02
   8.104860e+01  -1.459365e+02
   1.069828e+02   8.254901e+00
   6.040981e+01   1.215589e+02
  -9.103837e+00   1.070785e+02
  -5.178670e+01   1.785980e+01
  -4.851780e+01  -3.229200e+01
  -1.904480e+01  -8.250631e+00
  -5.512668e+00   1.882636e+01
  -3.022284e+01  -1.877486e+01
  -6.101387e+01  -8.997609e+01
  -3.690381e+01  -1.082109e+02
   5.449770e+01  -4.607787e+01
   1.397033e+02   3.516792e+01
   1.282588e+02   6.862070e+01
   2.031481e+01   5.308905e+01
  -8.254302e+01   2.710017e+01
  -8.860259e+01   8.248337e+00
  -1.717710e+01  -9.925902e+00
   3.543071e+01  -2.255295e+01
   1.899159e+01  -1.512568e+01
  -1.607098e+01   3.320217e+00
   3.298316e+00   6.571537e+00
   6.891329e+01  -1.247830e+00
   9.502118e+01   1.970285e+01
   2.202869e+01   8.063195e+01
  -1.078132e+02   1.219301e+02
  -1.887260e+02   7.221783e+01
  -1.546940e+02  -5.571382e+01
  -3.629276e+01  -1.613514e+02
   7.657076e+01  -1.598616e+02
   1.159250e+02  -6.944111e+01
   8.255683e+01   1.754520e+01
   2.810149e+01   3.732847e+01
   2.264306e+00   1.191727e+01
   1.411037e+01   7.029851e+00
   3.315535e+01   4.887382e+01
   2.187038e+01   9.270317e+01
  -2.769882e+01   7.408856e+01
  -8.059153e+01  -1.379699e+01
  -8.351066e+01  -1.020841e+02
  -1.592613e+01  -1.114611e+02
   7.589010e+01  -3.283053e+01
   1.082930e+02   6.447408e+01
   4.266959e+01   1.030594e+02
  -6.273603e+01   6.580288e+01
  -1.046410e+02  -4.664588e+00
  -4.794766e+01  -5.566429e+01
   3.178453e+01  -6.222061e+01
   3.823394e+01  -3.173567e+01
  -2.744080e+01   5.067044e+00
  -6.933915e+01   1.078555e+01
  -1.914697e+01  -2.645918e+01
   7.811869e+01  -6.927802e+01
   1.211812e+02  -5.956702e+01
   7.221683e+01   1.336450e+01
  -1.132350e+01   8.656879e+01
  -5.518473e+01   8.639792e+01
  -4.323936e+01   1.395401e+01
  -7.618128e+00  -5.315966e+01
   2.238121e+01  -4.871084e+01
   3.700813e+01   1.077711e+01
   3.047871e+01   5.372585e+01
   8.464659e-01   3.904329e+01
  -3.378649e+01  -4.656045e+00
  -4.360804e+01  -2.345216e+01
  -2.172541e+01  -3.541006e+00
   4.549328e+00   1.873031e+01
   8.216140e+00   6.199047e+00
  -2.502276e+00  -3.224156e+01
   1.673009e+00  -5.067883e+01
   2.633920e+01  -1.995236e+01
   3.980925e+01   3.514013e+01
   1.211760e+01   5.922586e+01
  -4.050540e+01   2.619370e+01
  -6.322938e+01  -3.212542e+01
  -2.080936e+01  -6.085557e+01
   5.619760e+01  -3.849480e+01
   9.424578e+01   8.794901e+00
   5.292582e+01   4.235038e+01
  -2.718380e+01   4.649013e+01
  -6.490695e+01   2.969372e+01
  -2.817431e+01   8.127885e+00
   2.999272e+01  -2.442932e+00
   3.426563e+01   7.589898e+00
  -2.479552e+01   2.703246e+01
  -8.142961e+01   2.257934e+01
