
 $NMID
 id='ANONYMOUS ', fmtdat='(2E16.6)'
 volume=1.0
 tramp=1.0
 $END
   3.316327e+03   4.979786e+01
   2.012400e+03   1.869967e+03
  -3.306037e+02   2.073953e+03
  -1.447595e+03   9.154901e+02
  -8.056931e+02  -1.828116e+02
   2.726357e+02  -3.107744e+02
   5.317886e+02   2.479025e+02
   2.517263e+00   6.997636e+02
  -5.636698e+02   5.817026e+02
  -6.860386e+02  -1.092579e+01
  -3.750942e+02  -5.990479e+02
   1.079807e+02  -6.652496e+02
   4.057786e+02  -1.226943e+02
   2.643422e+02   4.994657e+02
  -1.743744e+02   5.602249e+02
  -4.396117e+02   2.671536e+01
  -2.453997e+02  -5.106384e+02
   1.940812e+02  -5.474657e+02
   4.551410e+02  -1.617850e+02
   3.609667e+02   2.270815e+02
   6.538815e+01   3.464095e+02
  -1.583835e+02   2.203680e+02
  -1.205494e+02   3.899211e+01
   1.370588e+02   6.639678e+00
   3.028132e+02   1.797925e+02
   7.345483e+01   3.547690e+02
  -4.185689e+02   2.477981e+02
  -6.389455e+02  -1.274654e+02
  -2.761689e+02  -4.056479e+02
   3.237428e+02  -2.937588e+02
   5.476145e+02   8.523002e+01
   2.280718e+02   3.759294e+02
  -2.460248e+02   3.779179e+02
  -4.502224e+02   1.393608e+02
  -3.209079e+02  -1.732053e+02
  -6.222576e+01  -3.426589e+02
   1.023660e+02  -1.990314e+02
   5.079431e+01   1.403499e+02
  -1.619182e+02   2.580814e+02
  -2.858237e+02  -8.100668e+01
  -1.031800e+02  -5.220622e+02
   2.591476e+02  -4.964905e+02
   4.065169e+02   8.334087e+00
   1.571075e+02   3.841691e+02
  -1.989964e+02   1.950454e+02
  -2.411045e+02  -2.682366e+02
   8.627524e+01  -4.104016e+02
   4.404172e+02  -7.909674e+01
   4.708816e+02   3.464306e+02
   1.368217e+02   4.746441e+02
  -3.013265e+02   2.654177e+02
  -5.018555e+02  -6.509215e+01
  -3.089209e+02  -2.795528e+02
   9.137827e+01  -2.551002e+02
   3.189017e+02  -5.618674e+01
   1.962395e+02   9.784467e+01
  -4.945349e+01   5.245154e+01
  -8.040463e+01  -9.041783e+01
   1.191365e+02  -1.043108e+02
   2.503613e+02   5.715332e+01
   1.132247e+02   2.158711e+02
  -1.565210e+02   2.199236e+02
  -2.945853e+02   9.271622e+01
  -2.042085e+02  -7.876276e+01
   1.800383e+01  -2.403909e+02
   2.271451e+02  -3.061509e+02
   3.128530e+02  -1.659187e+02
   2.307335e+02   1.343519e+02
   5.236019e+01   3.494373e+02
  -6.830156e+01   3.048438e+02
  -5.985751e+01   1.226848e+02
  -2.210974e+01   4.355673e+01
  -8.011540e+01   9.249305e+01
  -1.991022e+02   8.136177e+01
  -2.297790e+02  -7.901103e+01
  -1.074610e+02  -2.343836e+02
   7.657031e+01  -1.970217e+02
   1.849604e+02   1.612080e+01
   1.443842e+02   2.155983e+02
  -2.863918e+01   2.394015e+02
  -2.268390e+02   7.612017e+01
  -2.920389e+02  -1.520788e+02
  -1.529089e+02  -2.852693e+02
   6.755555e+01  -2.487165e+02
   1.711617e+02  -1.188569e+02
   1.284079e+02  -3.808795e+01
   1.084249e+02  -4.728284e+01
   2.262372e+02  -4.506583e+01
   3.569911e+02   6.842315e+01
   2.851711e+02   2.570498e+02
  -1.383477e+01   3.863132e+02
  -3.271050e+02   3.538406e+02
  -4.251339e+02   1.616796e+02
  -2.720918e+02  -8.788942e+01
  -2.924930e+01  -2.397456e+02
   1.003243e+02  -1.948156e+02
   3.972330e+01  -2.677195e+01
  -1.026767e+02   6.369908e+01
  -1.433868e+02  -2.275160e+01
  -2.237927e+01  -1.491336e+02
   1.245324e+02  -1.182060e+02
   1.251325e+02   5.267234e+01
  -2.320137e+01   1.416344e+02
  -1.568604e+02   1.199879e+01
  -1.365844e+02  -2.124336e+02
   2.390468e+01  -3.022683e+02
   2.074186e+02  -1.754201e+02
   2.999384e+02   5.449324e+01
   2.439184e+02   2.211244e+02
   6.675776e+01   2.378883e+02
  -1.080784e+02   1.315340e+02
  -1.443081e+02   9.672495e+00
  -3.990998e+01  -2.111499e+01
   5.335748e+01   4.541205e+01
   9.584611e+00   1.060295e+02
  -1.106613e+02   7.177125e+01
  -1.426770e+02  -1.973265e+01
  -3.773294e+01  -5.704916e+01
   7.256032e+01  -7.874514e-01
   4.123470e+01   7.443841e+01
  -1.203007e+02   7.712618e+01
  -2.570934e+02  -1.075647e+01
  -2.284521e+02  -1.381625e+02
  -3.686853e+01  -2.287098e+02
   1.745720e+02  -2.163814e+02
   2.435061e+02  -9.524303e+01
   1.338599e+02   4.463727e+01
  -2.574971e+01   8.187620e+01
  -6.815221e+01  -2.322090e-01
   3.946460e+01  -7.994929e+01
   1.679828e+02  -3.872246e+01
   1.749802e+02   9.246855e+01
   5.292828e+01   1.738933e+02
  -8.172030e+01   1.275643e+02
  -1.181602e+02   1.840017e+01
  -5.015923e+01  -3.537658e+01
   3.224999e+01   8.146491e+00
   2.893600e+01   8.590959e+01
  -7.480305e+01   1.022370e+02
  -1.803458e+02   1.753108e+01
  -1.634691e+02  -1.144726e+02
  -1.244357e+01  -1.872475e+02
   1.416009e+02  -1.365102e+02
   1.609188e+02  -6.152871e+00
   5.131078e+01   9.189966e+01
  -5.726940e+01   8.971334e+01
  -6.723003e+01   2.319289e+01
  -7.939692e+00  -2.308936e+01
   2.676789e+01  -1.233003e+01
  -7.349100e+00   1.530511e+01
  -6.992837e+01  -1.970494e+00
  -8.551940e+01  -7.580498e+01
  -1.162324e+01  -1.470879e+02
   1.187014e+02  -1.342762e+02
   2.076640e+02  -1.466056e+01
   1.721093e+02   1.365492e+02
   3.324656e+01   2.040253e+02
  -9.289804e+01   1.432672e+02
  -1.158386e+02   2.487966e+01
  -6.269134e+01  -4.339490e+01
  -2.713222e+01  -2.804178e+01
  -4.776671e+01   1.167391e+01
  -7.364162e+01   6.054225e+00
  -4.383874e+01  -4.665333e+01
   3.529917e+01  -8.555570e+01
   9.898918e+01  -5.514023e+01
   8.553487e+01   3.459396e+01
  -1.303139e+01   1.061780e+02
  -1.346394e+02   7.794928e+01
  -1.773742e+02  -5.181289e+01
  -8.047187e+01  -1.829567e+02
   1.029630e+02  -1.973731e+02
   2.349934e+02  -7.633058e+01
   2.190516e+02   7.881344e+01
   8.980627e+01   1.519113e+02
  -3.549504e+01   1.243296e+02
  -8.031978e+01   7.102206e+01
  -6.498780e+01   6.031775e+01
  -5.447015e+01   8.074425e+01
  -7.981387e+01   6.720070e+01
  -1.136163e+02  -1.757949e+01
  -1.032329e+02  -1.348736e+02
  -2.376686e+01  -1.977177e+02
   8.787455e+01  -1.476731e+02
   1.514034e+02  -1.279292e+01
   1.143292e+02   1.099769e+02
   1.132638e+01   1.384730e+02
  -6.361374e+01   7.530673e+01
  -5.450653e+01  -6.715659e+00
  -3.856025e-01  -4.302795e+01
   1.706662e+01  -3.157006e+01
  -2.705532e+01  -1.338231e+01
  -7.157641e+01  -1.746950e+01
  -4.169408e+01  -3.425177e+01
   6.029166e+01  -3.398857e+01
   1.459461e+02  -4.118304e-01
   1.261334e+02   5.116206e+01
   5.795554e+00   8.268540e+01
  -1.124296e+02   6.467293e+01
  -1.274442e+02   7.418830e+00
  -4.061062e+01  -4.066120e+01
   5.231666e+01  -3.573835e+01
   6.737404e+01   1.620899e+01
   1.240231e+01   6.195246e+01
  -4.375412e+01   5.408104e+01
  -5.778655e+01   5.689350e-01
  -4.525789e+01  -4.357734e+01
  -4.021726e+01  -3.724877e+01
  -5.065550e+01  -2.149205e+00
  -5.723673e+01  -9.738897e-01
  -3.540146e+01  -6.119588e+01
   2.572544e+01  -1.305138e+02
   1.062835e+02  -1.258900e+02
   1.516018e+02  -2.956662e+01
   1.113670e+02   8.133471e+01
   3.629501e+00   1.139028e+02
  -7.821127e+01   5.777173e+01
  -5.335587e+01  -1.094168e+01
   5.111988e+01  -1.767882e+01
   1.179953e+02   3.733823e+01
   6.332760e+01   9.350436e+01
  -7.221565e+01   9.634854e+01
  -1.660477e+02   4.087605e+01
  -1.390396e+02  -3.359199e+01
  -2.895692e+01  -7.520517e+01
   5.531620e+01  -5.676612e+01
   4.294901e+01  -2.090360e+00
  -3.435997e+01   2.557179e+01
  -7.999412e+01  -1.803530e+01
  -3.213484e+01  -1.017110e+02
   7.347791e+01  -1.349212e+02
   1.407606e+02  -5.818752e+01
   1.100785e+02   8.294324e+01
   1.185542e+01   1.692522e+02
  -7.296124e+01   1.236770e+02
  -9.103555e+01  -8.280233e+00
  -5.006950e+01  -1.042426e+02
   7.405638e+00  -9.149124e+01
   4.305576e+01  -1.509717e+01
   4.210864e+01   2.807256e+01
   1.811369e+01   7.333024e+00
   4.548266e+00  -1.652901e+01
   2.296949e+01   1.573057e+01
   4.956351e+01   7.783760e+01
   3.150343e+01   9.366553e+01
  -4.539206e+01   3.836814e+01
  -1.190875e+02  -3.346857e+01
  -1.095788e+02  -6.143059e+01
  -1.583614e+01  -4.500087e+01
   7.282309e+01  -2.078612e+01
   7.612487e+01  -5.595113e+00
   1.281843e+01   8.191880e+00
  -3.161027e+01   1.882894e+01
  -1.514424e+01   1.344707e+01
   1.532737e+01  -2.209511e+00
  -3.440500e+00  -6.333672e+00
  -6.072283e+01  -1.287699e+00
  -8.036314e+01  -1.955400e+01
  -1.395650e+01  -6.967503e+01
   9.744763e+01  -1.010640e+02
   1.624280e+02  -5.525820e+01
   1.285316e+02   5.360198e+01
   2.580373e+01   1.393682e+02
  -6.899154e+01   1.333029e+02
  -1.002519e+02   5.478632e+01
  -7.010733e+01  -1.744810e+01
  -2.262698e+01  -3.198814e+01
  -2.658992e-01  -9.477865e+00
  -1.087575e+01  -5.504484e+00
  -2.762576e+01  -4.156487e+01
  -1.753203e+01  -7.911375e+01
   2.535465e+01  -6.249337e+01
   6.916509e+01   1.435625e+01
   6.842904e+01   9.068566e+01
   8.781300e+00   9.628479e+01
  -6.754360e+01   2.464738e+01
  -9.066988e+01  -6.007281e+01
  -3.212104e+01  -8.938585e+01
   5.604094e+01  -5.276554e+01
   8.797010e+01   7.714846e+00
   3.777295e+01   4.726969e+01
  -2.868795e+01   5.004119e+01
  -3.145530e+01   2.552859e+01
   2.550481e+01  -2.789959e+00
   5.971266e+01  -7.065209e+00
   1.483203e+01   2.269584e+01
  -6.843289e+01   5.734141e+01
  -1.033404e+02   4.885829e+01
  -5.941104e+01  -1.234608e+01
   1.233707e+01  -7.318886e+01
   4.820014e+01  -7.129218e+01
   3.575474e+01  -8.913134e+00
   4.085957e+00   4.656983e+01
  -2.097845e+01   3.989508e+01
  -3.154896e+01  -1.188369e+01
  -2.423668e+01  -4.669892e+01
   9.973405e-01  -3.187286e+01
   2.879385e+01   5.590119e+00
   3.591401e+01   2.020824e+01
   1.822166e+01   2.728485e+00
  -2.478674e+00  -1.495660e+01
  -6.393584e+00  -2.974001e+00
  -7.389402e-01   2.903832e+01
  -6.370743e+00   4.210007e+01
  -2.473630e+01   1.348346e+01
  -3.118591e+01  -3.361601e+01
  -5.650977e+00  -5.171694e+01
   3.637100e+01  -2.037669e+01
   5.202397e+01   3.060928e+01
   1.521564e+01   5.324326e+01
  -4.852097e+01   3.087636e+01
  -7.933098e+01  -1.093440e+01
  -4.370383e+01  -3.768742e+01
   2.459387e+01  -3.790672e+01
   5.625548e+01  -2.217449e+01
   2.327710e+01  -5.554314e+00
  -2.781589e+01   4.974017e-01
  -3.035757e+01  -9.188711e+00
   2.321509e+01  -2.404684e+01
   7.289243e+01  -1.748960e+01
