
 $NMID
 id='ANONYMOUS ', fmtdat='(2E16.6)'
 volume=1.0
 tramp=1.0
 $END
  -3.126432e+03  -1.341653e+00
  -2.104827e+03  -1.507136e+03
  -1.219518e+02  -1.954300e+03
   1.103493e+03  -1.300954e+03
   9.274636e+02  -3.380939e+02
   1.180010e+02   1.309078e+02
  -2.969941e+02  -6.644349e+01
  -5.937914e+01  -4.855432e+02
   3.981883e+02  -5.595373e+02
   6.074486e+02  -1.192615e+02
   4.354991e+02   4.591292e+02
   4.674048e+01   6.183865e+02
  -2.571437e+02   1.957535e+02
  -2.325139e+02  -3.790168e+02
   8.918825e+01  -5.198731e+02
   3.784271e+02  -9.639238e+01
   3.113599e+02   4.574138e+02
  -8.391639e+01   6.248194e+02
  -4.450251e+02   3.107680e+02
  -4.529151e+02  -1.414150e+02
  -1.551744e+02  -3.483469e+02
   1.019678e+02  -2.462326e+02
   5.150675e+01  -8.534254e+01
  -1.980728e+02  -1.148178e+02
  -2.720644e+02  -2.975318e+02
   3.668263e+01  -3.626735e+02
   4.799389e+02  -1.436569e+02
   5.870386e+02   1.981933e+02
   1.994669e+02   3.449808e+02
  -3.215442e+02   1.735694e+02
  -4.812974e+02  -1.432030e+02
  -1.739365e+02  -3.528202e+02
   2.605315e+02  -3.364772e+02
   4.438634e+02  -1.257596e+02
   3.138237e+02   1.489178e+02
   8.695091e+01   2.906347e+02
  -1.128423e+01   1.687352e+02
   6.574269e+01  -8.357391e+01
   1.888303e+02  -1.312903e+02
   1.827448e+02   1.607559e+02
  -8.851481e+00   4.814818e+02
  -2.436678e+02   4.151689e+02
  -2.971677e+02  -3.981634e+00
  -1.037149e+02  -2.913661e+02
   1.388108e+02  -1.185322e+02
   1.541261e+02   2.700465e+02
  -1.173266e+02   3.751215e+02
  -4.348038e+02   5.165053e+01
  -4.794301e+02  -3.642429e+02
  -1.602717e+02  -4.845597e+02
   2.879194e+02  -2.621797e+02
   5.067888e+02   5.679876e+01
   3.377958e+02   2.319247e+02
  -3.409281e+01   2.093624e+02
  -2.684952e+02   8.748659e+01
  -2.101389e+02  -5.428943e+00
  -2.135034e+01  -9.005687e+00
   3.536108e+01   3.752938e+01
  -9.440952e+01   4.289112e+01
  -2.135704e+02  -4.404830e+01
  -1.231927e+02  -1.783499e+02
   1.408930e+02  -2.466510e+02
   3.410284e+02  -1.530047e+02
   2.793346e+02   9.147150e+01
  -1.092672e+01   3.368799e+02
  -3.000443e+02   3.830962e+02
  -3.760325e+02   1.615296e+02
  -2.322665e+02  -1.671974e+02
  -4.650258e+01  -3.523299e+02
   2.422779e+01  -3.075082e+02
   3.442271e+00  -1.763295e+02
   2.770550e+01  -1.231487e+02
   1.489082e+02  -1.272463e+02
   2.630052e+02  -5.086024e+01
   2.421728e+02   1.302135e+02
   8.310087e+01   2.600371e+02
  -1.008841e+02   1.866910e+02
  -1.897055e+02  -4.907473e+01
  -1.290309e+02  -2.477814e+02
   5.368293e+01  -2.465723e+02
   2.469104e+02  -5.594299e+01
   3.031887e+02   1.737470e+02
   1.671674e+02   2.911298e+02
  -4.394640e+01   2.587342e+02
  -1.553523e+02   1.583478e+02
  -1.425598e+02   9.263986e+01
  -1.537424e+02   7.847994e+01
  -2.877234e+02   3.934064e+01
  -4.185335e+02  -9.657797e+01
  -3.243548e+02  -2.990641e+02
   2.408270e+01  -4.411173e+02
   3.840778e+02  -4.015486e+02
   4.801706e+02  -1.750972e+02
   2.821988e+02   1.021685e+02
   1.398771e+01   2.477314e+02
  -8.982723e+01   1.886008e+02
  -2.816776e-01   3.461046e+01
   1.227598e+02  -3.176129e+01
   1.228210e+02   4.538730e+01
  -1.572164e-01   1.363500e+02
  -1.134827e+02   9.313665e+01
  -9.907716e+01  -5.451840e+01
   3.271242e+01  -1.229145e+02
   1.586833e+02   5.488673e+00
   1.519094e+02   2.331320e+02
  -1.496768e+01   3.422019e+02
  -2.420860e+02   2.154439e+02
  -3.663700e+02  -5.577714e+01
  -2.861342e+02  -2.661202e+02
  -5.887655e+01  -2.808639e+02
   1.328453e+02  -1.402488e+02
   1.485209e+02  -2.867836e+00
   3.011678e+01   1.224665e+01
  -5.029920e+01  -6.668758e+01
   9.520107e+00  -1.149255e+02
   1.268597e+02  -6.215083e+01
   1.434316e+02   3.068992e+01
   2.590791e+01   5.402115e+01
  -8.568415e+01  -1.728346e+01
  -3.804417e+01  -9.900785e+01
   1.544615e+02  -9.239292e+01
   3.107034e+02   2.216774e+01
   2.623856e+02   1.765279e+02
   2.447439e+01   2.693995e+02
  -2.142273e+02   2.342884e+02
  -2.694027e+02   9.270365e+01
  -1.324780e+02  -4.638110e+01
   3.291759e+01  -7.337985e+01
   6.063186e+01   8.911648e+00
  -5.867944e+01   7.864986e+01
  -1.859297e+02   2.881943e+01
  -1.850765e+02  -1.054951e+02
  -5.359055e+01  -1.856844e+02
   8.875723e+01  -1.321789e+02
   1.227825e+02  -1.395061e+01
   4.126069e+01   3.694434e+01
  -4.796615e+01  -2.524713e+01
  -2.841966e+01  -1.175547e+02
   1.025615e+02  -1.236194e+02
   2.176659e+02  -1.177670e+01
   1.839380e+02   1.381460e+02
   9.075543e+00   2.093545e+02
  -1.556265e+02   1.492128e+02
  -1.711053e+02   1.195950e+01
  -5.264052e+01  -9.124731e+01
   6.137153e+01  -9.214721e+01
   6.767797e+01  -2.305062e+01
  -2.727937e+00   2.600639e+01
  -4.185524e+01   8.120825e+00
   7.302619e+00  -3.010996e+01
   9.320365e+01  -6.481391e+00
   1.123274e+02   9.308636e+01
   1.311525e+01   1.827131e+02
  -1.473042e+02   1.582587e+02
  -2.440117e+02   8.718834e+00
  -1.941544e+02  -1.620832e+02
  -3.732446e+01  -2.289324e+02
   1.000339e+02  -1.589120e+02
   1.282116e+02  -3.272255e+01
   7.482218e+01   4.090438e+01
   3.525492e+01   2.697563e+01
   5.657398e+01  -1.586053e+01
   9.069785e+01  -8.748540e+00
   6.186719e+01   5.846894e+01
  -3.759305e+01   1.126144e+02
  -1.280172e+02   7.475591e+01
  -1.150994e+02  -4.487152e+01
   1.606333e+01  -1.372950e+02
   1.707065e+02  -9.568749e+01
   2.128136e+02   6.822518e+01
   8.458474e+01   2.196416e+02
  -1.302196e+02   2.251312e+02
  -2.715308e+02   8.053862e+01
  -2.445217e+02  -9.185078e+01
  -9.747171e+01  -1.688685e+02
   4.048586e+01  -1.371631e+02
   8.738759e+01  -7.982615e+01
   6.718972e+01  -7.064486e+01
   5.562964e+01  -9.657046e+01
   8.975306e+01  -8.285547e+01
   1.341033e+02   1.575144e+01
   1.225974e+02   1.542095e+02
   2.817154e+01   2.278978e+02
  -1.007163e+02   1.678122e+02
  -1.710434e+02   1.022492e+01
  -1.265259e+02  -1.294488e+02
  -7.861279e+00  -1.574588e+02
   7.834435e+01  -7.976256e+01
   6.509913e+01   1.745029e+01
  -4.901947e+00   5.759651e+01
  -3.064667e+01   3.798183e+01
   2.527986e+01   1.073266e+01
   8.681947e+01   1.553338e+01
   5.264639e+01   4.031120e+01
  -7.593367e+01   4.261232e+01
  -1.802583e+02  -5.535475e-01
  -1.478182e+02  -6.595431e+01
   3.148469e+00  -1.024485e+02
   1.390292e+02  -7.630955e+01
   1.477668e+02  -4.803613e+00
   4.476601e+01   5.308745e+01
  -5.983204e+01   4.670144e+01
  -7.987721e+01  -1.701008e+01
  -2.337871e+01  -7.522285e+01
   4.294939e+01  -6.897954e+01
   7.066628e+01  -4.921279e+00
   6.282474e+01   5.003271e+01
   5.047823e+01   4.351303e+01
   5.455220e+01   1.324518e+00
   6.549464e+01   4.853835e-01
   4.861854e+01   7.369197e+01
  -2.339078e+01   1.568094e+02
  -1.276174e+02   1.512505e+02
  -1.868749e+02   3.720220e+01
  -1.358277e+02  -9.503928e+01
  -3.030031e+00  -1.370353e+02
   9.438406e+01  -7.390573e+01
   6.372211e+01   8.705680e+00
  -5.819622e+01   2.176621e+01
  -1.345635e+02  -3.988051e+01
  -7.095771e+01  -1.064598e+02
   8.415866e+01  -1.102511e+02
   1.900324e+02  -4.419666e+01
   1.569121e+02   4.171738e+01
   2.984588e+01   8.541648e+01
  -6.546738e+01   6.005007e+01
  -4.935639e+01  -2.938530e+00
   4.033828e+01  -3.316404e+01
   9.453226e+01   1.722710e+01
   4.409612e+01   1.149618e+02
  -7.374988e+01   1.587774e+02
  -1.547934e+02   7.599067e+01
  -1.288887e+02  -8.716647e+01
  -2.131723e+01  -1.916584e+02
   7.952084e+01  -1.417394e+02
   1.049043e+02   1.129436e+01
   5.569857e+01   1.212760e+02
  -1.500117e+01   1.032845e+02
  -5.359487e+01   1.432073e+01
  -4.448648e+01  -3.250013e+01
  -1.467394e+01  -7.341301e+00
  -6.360553e+00   1.704530e+01
  -3.373407e+01  -2.205408e+01
  -6.021197e+01  -9.012168e+01
  -3.110258e+01  -1.046212e+02
   5.811806e+01  -4.321872e+01
   1.364199e+02   3.478454e+01
   1.227189e+02   6.772735e+01
   1.976150e+01   5.417507e+01
  -7.847538e+01   2.806469e+01
  -8.649221e+01   6.569072e+00
  -1.960174e+01  -1.216824e+01
   3.321790e+01  -2.174218e+01
   2.099594e+01  -1.206822e+01
  -1.305286e+01   4.565543e+00
   2.088191e+00   4.788369e+00
   6.479975e+01  -3.357722e+00
   9.446611e+01   1.917910e+01
   2.717693e+01   8.077202e+01
  -1.023966e+02   1.220963e+02
  -1.884466e+02   7.371241e+01
  -1.579711e+02  -5.248989e+01
  -3.801324e+01  -1.586699e+02
   7.750157e+01  -1.598027e+02
   1.164435e+02  -7.104981e+01
   8.155519e+01   1.672611e+01
   2.812402e+01   3.830811e+01
   4.408648e+00   1.403695e+01
   1.533303e+01   9.212428e+00
   3.095624e+01   4.993027e+01
   1.870601e+01   9.198659e+01
  -2.786753e+01   7.309551e+01
  -7.847555e+01  -1.233695e+01
  -8.360937e+01  -9.838470e+01
  -1.976863e+01  -1.098526e+02
   7.213417e+01  -3.621022e+01
   1.084173e+02   5.954788e+01
   4.537955e+01   1.022226e+02
  -6.157958e+01   6.884256e+01
  -1.063535e+02  -3.472378e+00
  -4.974230e+01  -5.893572e+01
   3.290330e+01  -6.574900e+01
   4.202252e+01  -3.122870e+01
  -2.382397e+01   7.723956e+00
  -6.823854e+01   1.139034e+01
  -2.025748e+01  -2.739497e+01
   7.719773e+01  -6.787966e+01
   1.222789e+02  -5.550812e+01
   7.442892e+01   1.620471e+01
  -1.069673e+01   8.655868e+01
  -5.743409e+01   8.660173e+01
  -4.677587e+01   1.647728e+01
  -1.006813e+01  -5.120982e+01
   2.163182e+01  -5.059583e+01
   3.710587e+01   7.205053e+00
   3.082939e+01   5.324258e+01
   1.291970e+00   4.184855e+01
  -3.366495e+01  -3.159386e+00
  -4.385704e+01  -2.545234e+01
  -2.139956e+01  -5.318735e+00
   5.574465e+00   2.127762e+01
   7.503248e+00   1.130489e+01
  -7.244202e+00  -3.024626e+01
  -4.660828e+00  -5.436861e+01
   2.437279e+01  -2.625659e+01
   4.446757e+01   3.085794e+01
   1.852207e+01   5.874529e+01
  -3.843122e+01   2.829750e+01
  -6.550375e+01  -2.946615e+01
  -2.281664e+01  -5.924632e+01
   5.673499e+01  -3.872147e+01
   9.539723e+01   7.410518e+00
   5.306355e+01   4.179663e+01
  -2.718101e+01   4.808330e+01
  -6.487533e+01   3.219587e+01
  -3.013176e+01   8.682910e+00
   2.594524e+01  -5.221334e+00
   3.239083e+01   3.235612e+00
  -2.095757e+01   2.434777e+01
  -7.485328e+01   2.323840e+01
