
 $NMID
 id='ANONYMOUS ', fmtdat='(2E16.6)'
 volume=1.0
 tramp=1.0
 $END
   2.713554e+03  -6.516822e+01
   2.047490e+03   1.133353e+03
   4.531645e+02   1.781401e+03
  -8.378634e+02   1.523285e+03
  -1.035229e+03   6.513439e+02
  -4.215467e+02  -7.021339e+01
   1.391137e+02  -1.158693e+02
   1.368159e+02   2.999871e+02
  -2.404137e+02   5.250092e+02
  -5.222708e+02   2.156605e+02
  -4.658703e+02  -3.304336e+02
  -1.608253e+02  -5.596188e+02
   1.428695e+02  -2.593749e+02
   2.120831e+02   2.524256e+02
  -1.323940e+01   4.604161e+02
  -3.143871e+02   1.487555e+02
  -3.395301e+02  -3.914821e+02
   1.474668e+01  -6.446172e+02
   4.277638e+02  -3.894078e+02
   4.938246e+02   8.700077e+01
   2.037219e+02   3.362288e+02
  -5.817835e+01   2.532346e+02
  -7.176380e+00   1.243939e+02
   2.011415e+02   1.940932e+02
   2.006520e+02   3.483713e+02
  -1.141194e+02   3.125522e+02
  -4.587110e+02   4.282237e+01
  -4.813381e+02  -2.210627e+02
  -1.380688e+02  -2.549282e+02
   2.664164e+02  -7.177750e+01
   3.777585e+02   1.588993e+02
   1.233271e+02   2.933160e+02
  -2.392201e+02   2.725338e+02
  -3.960330e+02   1.048593e+02
  -2.845325e+02  -1.171567e+02
  -1.064966e+02  -2.320578e+02
  -6.040562e+01  -1.500849e+02
  -1.313620e+02   1.169019e+01
  -1.652093e+02   2.306360e+01
  -7.602280e+01  -1.822626e+02
   8.061858e+01  -3.855810e+02
   1.946325e+02  -3.217021e+02
   1.928410e+02  -2.102280e+01
   7.434952e+01   1.878786e+02
  -6.792396e+01   6.504884e+01
  -7.707085e+01  -2.292000e+02
   1.222958e+02  -3.089617e+02
   3.853738e+02  -2.757185e+01
   4.370553e+02   3.461870e+02
   1.592004e+02   4.521625e+02
  -2.517973e+02   2.378760e+02
  -4.652671e+02  -4.774317e+01
  -3.364663e+02  -1.832491e+02
  -1.866901e+01  -1.690796e+02
   2.144400e+02  -1.113844e+02
   2.194404e+02  -5.762538e+01
   7.860180e+01  -8.365284e+00
  -1.067246e+01   1.264459e+01
   5.575825e+01  -1.775155e-02
   1.702950e+02   2.365880e+01
   1.261938e+02   1.375109e+02
  -1.227491e+02   2.458779e+02
  -3.552952e+02   1.717366e+02
  -3.043858e+02  -1.079337e+02
   2.515584e+01  -3.760363e+02
   3.407852e+02  -3.872589e+02
   3.859069e+02  -1.299477e+02
   2.049902e+02   1.760196e+02
   3.672277e+01   3.209062e+02
   8.197596e+00   2.900157e+02
   2.580432e+01   2.097519e+02
  -4.553943e+01   1.673177e+02
  -1.915256e+02   1.260366e+02
  -2.782591e+02   1.094932e+01
  -2.180775e+02  -1.577325e+02
  -5.235990e+01  -2.496361e+02
   1.072255e+02  -1.570259e+02
   1.688581e+02   6.939581e+01
   9.918377e+01   2.450807e+02
  -6.855891e+01   2.238179e+02
  -2.345313e+02   3.183752e+01
  -2.784925e+02  -1.761063e+02
  -1.601477e+02  -2.717804e+02
   2.567020e+01  -2.467727e+02
   1.381504e+02  -1.747898e+02
   1.507864e+02  -1.198029e+02
   1.783722e+02  -8.397001e+01
   3.039816e+02  -1.857206e+01
   4.179697e+02   1.211123e+02
   3.132881e+02   3.101196e+02
  -4.121115e+01   4.374618e+02
  -3.998616e+02   3.862428e+02
  -4.783094e+02   1.563800e+02
  -2.603394e+02  -1.055906e+02
   3.110454e-01  -2.275771e+02
   7.323166e+01  -1.687718e+02
  -2.617194e+01  -4.500597e+01
  -1.193685e+02   1.763863e+00
  -9.219656e+01  -5.342607e+01
   1.389027e+01  -1.101401e+02
   9.029419e+01  -6.871883e+01
   7.092150e+01   4.574824e+01
  -3.294369e+01   9.628366e+01
  -1.418348e+02  -1.814403e+01
  -1.441669e+02  -2.298665e+02
   1.604674e+01  -3.409589e+02
   2.530874e+02  -2.165992e+02
   3.796183e+02   6.580627e+01
   2.802064e+02   2.828618e+02
   3.854334e+01   2.841739e+02
  -1.403334e+02   1.282582e+02
  -1.364922e+02  -3.410602e+00
  -2.214497e+01  -2.883111e+00
   3.904212e+01   7.519487e+01
  -2.429783e+01   1.068013e+02
  -1.249133e+02   4.603241e+01
  -1.284950e+02  -3.612854e+01
  -1.560359e+01  -4.455533e+01
   8.345269e+01   3.140630e+01
   2.708348e+01   1.068366e+02
  -1.678794e+02   8.751852e+01
  -3.179564e+02  -3.978254e+01
  -2.542766e+02  -1.950556e+02
  -4.577862e+00  -2.711479e+02
   2.268989e+02  -2.170076e+02
   2.627576e+02  -7.655124e+01
   1.188616e+02   4.335896e+01
  -3.342888e+01   5.905915e+01
  -4.792278e+01  -1.287754e+01
   6.687201e+01  -6.647346e+01
   1.796697e+02  -1.508479e+01
   1.723861e+02   1.075115e+02
   4.635135e+01   1.772572e+02
  -8.682357e+01   1.216978e+02
  -1.139129e+02   8.301939e+00
  -3.073349e+01  -3.294748e+01
   5.122871e+01   3.839239e+01
   1.877473e+01   1.292393e+02
  -1.174975e+02   1.216373e+02
  -2.230904e+02  -1.430949e+00
  -1.765122e+02  -1.468434e+02
  -9.174720e-01  -2.051865e+02
   1.541976e+02  -1.413673e+02
   1.638304e+02  -1.256797e+01
   4.868660e+01   8.277411e+01
  -5.933881e+01   8.444665e+01
  -6.179437e+01   2.059582e+01
   1.072096e+01  -2.352438e+01
   4.791589e+01  -1.229189e+00
  -9.663150e+00   3.787941e+01
  -1.029378e+02   6.989011e+00
  -1.173916e+02  -1.025078e+02
  -5.362983e+00  -1.916159e+02
   1.593281e+02  -1.546775e+02
   2.462768e+02   4.199728e+00
   1.864838e+02   1.702460e+02
   3.126289e+01   2.265279e+02
  -9.942651e+01   1.537847e+02
  -1.268945e+02   3.251977e+01
  -7.700051e+01  -3.798739e+01
  -3.795739e+01  -2.545740e+01
  -5.852713e+01   1.547869e+01
  -9.507078e+01   6.213270e+00
  -6.649948e+01  -6.529388e+01
   4.149421e+01  -1.209867e+02
   1.410552e+02  -7.569694e+01
   1.233939e+02   5.430264e+01
  -2.334464e+01   1.461842e+02
  -1.844963e+02   9.184948e+01
  -2.150148e+02  -8.127609e+01
  -7.183484e+01  -2.265865e+02
   1.437626e+02  -2.183995e+02
   2.736105e+02  -6.814851e+01
   2.373415e+02   9.837193e+01
   9.017382e+01   1.671792e+02
  -4.320997e+01   1.325943e+02
  -8.634030e+01   7.713896e+01
  -6.482337e+01   7.091574e+01
  -5.475346e+01   9.860986e+01
  -9.192849e+01   8.418167e+01
  -1.367012e+02  -1.743844e+01
  -1.208701e+02  -1.579870e+02
  -2.211751e+01  -2.293906e+02
   1.050399e+02  -1.639091e+02
   1.688055e+02  -3.112206e+00
   1.193575e+02   1.341550e+02
   4.883567e-01   1.558171e+02
  -8.270430e+01   7.245013e+01
  -6.444450e+01  -2.577620e+01
   1.129236e+01  -6.159419e+01
   3.888077e+01  -3.623813e+01
  -2.220548e+01  -7.552399e+00
  -9.005255e+01  -1.600026e+01
  -5.429228e+01  -4.325209e+01
   8.193064e+01  -4.150434e+01
   1.879246e+02   8.527792e+00
   1.465325e+02   7.513419e+01
  -1.345226e+01   1.052843e+02
  -1.477111e+02   7.189406e+01
  -1.481341e+02  -1.933364e+00
  -4.097796e+01  -5.799346e+01
   6.200462e+01  -4.856512e+01
   8.123924e+01   1.872047e+01
   2.619698e+01   8.003234e+01
  -4.159369e+01   7.332010e+01
  -7.423455e+01   4.807835e+00
  -6.814477e+01  -5.372424e+01
  -5.178279e+01  -4.616068e+01
  -5.247603e+01  -1.520869e+00
  -6.545204e+01  -1.905610e+00
  -5.087216e+01  -7.859843e+01
   2.524021e+01  -1.615430e+02
   1.365391e+02  -1.508104e+02
   1.964408e+02  -3.167326e+01
   1.377804e+02   1.013077e+02
  -2.655205e+00   1.407954e+02
  -1.006514e+02   7.512259e+01
  -6.568087e+01  -8.549206e+00
   5.875986e+01  -2.111817e+01
   1.333912e+02   4.166805e+01
   6.701588e+01   1.075953e+02
  -8.797835e+01   1.074161e+02
  -1.904086e+02   3.723327e+01
  -1.534782e+02  -4.762403e+01
  -2.548388e+01  -8.507879e+01
   6.747054e+01  -5.467111e+01
   4.835595e+01   7.653336e+00
  -4.249649e+01   3.422459e+01
  -9.632192e+01  -1.821498e+01
  -4.563081e+01  -1.163471e+02
   7.233517e+01  -1.609577e+02
   1.543252e+02  -7.851050e+01
   1.293938e+02   8.624599e+01
   2.114774e+01   1.919574e+02
  -8.084289e+01   1.400730e+02
  -1.045012e+02  -1.543622e+01
  -5.087651e+01  -1.235156e+02
   2.164088e+01  -1.006156e+02
   5.604595e+01  -1.020102e+01
   4.112330e+01   3.324147e+01
   1.085777e+01   6.005957e+00
   7.207195e+00  -1.546492e+01
   3.697026e+01   2.678357e+01
   5.957849e+01   9.287037e+01
   2.551490e+01   1.027890e+02
  -6.291267e+01   3.999664e+01
  -1.358805e+02  -3.632611e+01
  -1.193740e+02  -6.890843e+01
  -1.876560e+01  -5.656541e+01
   7.682054e+01  -2.935604e+01
   8.613467e+01  -4.373872e+00
   2.179863e+01   1.529803e+01
  -3.194528e+01   2.142167e+01
  -2.297907e+01   8.745870e+00
   1.072013e+01  -6.257180e+00
  -1.236221e+00  -2.977828e+00
  -6.269421e+01   5.393734e+00
  -9.585995e+01  -2.020775e+01
  -3.167301e+01  -8.398636e+01
   1.010288e+02  -1.246292e+02
   1.935475e+02  -7.440431e+01
   1.645275e+02   5.317436e+01
   3.896478e+01   1.603834e+02
  -8.214710e+01   1.620935e+02
  -1.207163e+02   7.257095e+01
  -8.232071e+01  -1.716750e+01
  -2.809081e+01  -4.046089e+01
  -5.999774e+00  -1.684247e+01
  -1.632649e+01  -1.194224e+01
  -2.868034e+01  -5.203799e+01
  -1.501778e+01  -9.297453e+01
   2.939902e+01  -7.335716e+01
   7.827428e+01   1.181815e+01
   8.496421e+01   9.807649e+01
   2.279298e+01   1.116845e+02
  -7.119198e+01   4.003252e+01
  -1.110689e+02  -5.752637e+01
  -4.783102e+01  -1.047500e+02
   6.326727e+01  -7.270963e+01
   1.105202e+02   4.083630e+00
   5.120349e+01   6.435722e+01
  -3.620376e+01   6.996654e+01
  -4.690638e+01   3.018578e+01
   2.145302e+01  -1.081804e+01
   6.893742e+01  -1.155050e+01
   2.124826e+01   2.936562e+01
  -7.862221e+01   6.720349e+01
  -1.259895e+02   5.104223e+01
  -7.746471e+01  -2.066498e+01
   1.143866e+01  -8.843192e+01
   6.201672e+01  -8.754901e+01
   5.189261e+01  -1.801613e+01
   1.235382e+01   5.104001e+01
  -2.238467e+01   5.338659e+01
  -3.858501e+01  -4.415590e+00
  -3.125080e+01  -5.440938e+01
  -6.926808e-01  -4.557228e+01
   3.452490e+01   2.196522e+00
   4.436461e+01   2.855007e+01
   2.115891e+01   7.364020e+00
  -5.940247e+00  -2.446246e+01
  -5.890850e+00  -1.643952e+01
   1.195476e+01   2.995930e+01
   9.486644e+00   6.035356e+01
  -2.451799e+01   3.296147e+01
  -5.033194e+01  -2.884313e+01
  -2.443657e+01  -6.099806e+01
   3.803063e+01  -3.083783e+01
   6.925063e+01   2.881416e+01
   2.478975e+01   5.966354e+01
  -5.904090e+01   3.896318e+01
  -9.876700e+01  -7.678508e+00
  -5.392905e+01  -4.289003e+01
   2.868929e+01  -5.032799e+01
   6.714918e+01  -3.448799e+01
   3.289580e+01  -8.659322e+00
  -2.319618e+01   8.429906e+00
  -3.206076e+01   8.208617e-01
   1.753542e+01  -2.273674e+01
   7.058209e+01  -2.464001e+01
