
 $NMID
 id='ANONYMOUS ', fmtdat='(2E16.6)'
 volume=1.0
 tramp=1.0
 $END
  -8.977709e+02  -1.277303e+00
  -6.549782e+02  -3.719305e+02
  -1.453432e+02  -5.617784e+02
   2.512702e+02  -4.888942e+02
   3.141119e+02  -2.326942e+02
   1.360938e+02  -5.976962e+00
  -2.919523e+01   2.558827e+01
  -3.070996e+01  -9.205364e+01
   8.028143e+01  -1.621177e+02
   1.642775e+02  -6.713854e+01
   1.455805e+02   1.048552e+02
   5.143813e+01   1.754806e+02
  -4.041431e+01   7.712561e+01
  -6.064595e+01  -8.467548e+01
   7.244704e+00  -1.466913e+02
   9.927416e+01  -4.557703e+01
   1.093669e+02   1.261730e+02
   2.581468e-01   2.088834e+02
  -1.336024e+02   1.306324e+02
  -1.603273e+02  -2.274240e+01
  -6.865040e+01  -1.067214e+02
   1.740360e+01  -8.083776e+01
  -1.815554e+00  -3.763052e+01
  -7.514897e+01  -6.358245e+01
  -7.308077e+01  -1.216320e+02
   4.110016e+01  -1.116254e+02
   1.617150e+02  -1.451163e+01
   1.634646e+02   8.076596e+01
   3.916376e+01   8.961898e+01
  -9.746516e+01   2.015933e+01
  -1.279728e+02  -6.035530e+01
  -3.719450e+01  -1.015900e+02
   8.406098e+01  -9.006197e+01
   1.333028e+02  -3.265908e+01
   9.257759e+01   4.017926e+01
   3.149179e+01   7.497931e+01
   1.937755e+01   4.329593e+01
   5.029830e+01  -1.028921e+01
   6.460095e+01  -6.205491e+00
   2.798836e+01   6.997271e+01
  -3.363944e+01   1.352110e+02
  -7.152812e+01   1.036953e+02
  -6.175822e+01  -1.287733e+00
  -1.643779e+01  -6.469444e+01
   2.696150e+01  -1.559460e+01
   2.306063e+01   8.284509e+01
  -4.513647e+01   1.039607e+02
  -1.304214e+02   6.683686e+00
  -1.457988e+02  -1.169737e+02
  -5.248264e+01  -1.500017e+02
   8.485854e+01  -7.732265e+01
   1.544983e+02   1.725355e+01
   1.087735e+02   5.942229e+01
   3.585809e+00   5.149113e+01
  -6.869956e+01   3.344499e+01
  -6.726382e+01   2.128389e+01
  -2.472740e+01   8.339730e+00
  -1.038534e+00  -2.162083e+00
  -2.234946e+01  -3.250061e+00
  -5.499890e+01  -1.085348e+01
  -3.913341e+01  -4.486557e+01
   3.971777e+01  -8.098932e+01
   1.159582e+02  -6.038141e+01
   1.035680e+02   3.224012e+01
  -3.008508e+00   1.268684e+02
  -1.113805e+02   1.345132e+02
  -1.308667e+02   4.611067e+01
  -6.998370e+01  -6.011050e+01
  -1.104559e+01  -1.076350e+02
  -2.704865e+00  -9.373375e+01
  -1.271358e+01  -6.726374e+01
   1.042348e+01  -5.770505e+01
   6.341790e+01  -4.680655e+01
   9.632945e+01  -6.348127e+00
   7.593245e+01   5.369841e+01
   1.773638e+01   8.570485e+01
  -3.762258e+01   5.341419e+01
  -5.843467e+01  -2.418716e+01
  -3.401710e+01  -8.388346e+01
   2.378905e+01  -7.626675e+01
   8.017518e+01  -1.065259e+01
   9.392145e+01   5.952321e+01
   5.303803e+01   9.040434e+01
  -8.341329e+00   8.076145e+01
  -4.367715e+01   5.748052e+01
  -4.726122e+01   4.150275e+01
  -5.861110e+01   3.111770e+01
  -1.031591e+02   9.147768e+00
  -1.421816e+02  -3.836377e+01
  -1.070082e+02  -1.028332e+02
   1.188307e+01  -1.476080e+02
   1.327764e+02  -1.322052e+02
   1.603720e+02  -5.436972e+01
   8.761094e+01   3.584984e+01
  -7.786539e-01   7.712754e+01
  -2.530333e+01   5.512756e+01
   9.936605e+00   1.253061e+01
   4.247009e+01  -8.318692e-01
   3.167325e+01   2.010072e+01
  -6.442734e+00   3.797371e+01
  -3.189783e+01   2.125236e+01
  -2.304233e+01  -1.739482e+01
   1.287771e+01  -3.224216e+01
   4.848615e+01   6.861492e+00
   4.893271e+01   7.660504e+01
  -3.734314e+00   1.138708e+02
  -8.321336e+01   7.449634e+01
  -1.278429e+02  -1.885311e+01
  -9.635689e+01  -9.346351e+01
  -1.455033e+01  -9.638843e+01
   4.723102e+01  -4.412649e+01
   4.606933e+01   1.532307e+00
   6.546457e+00   1.543264e+00
  -1.413876e+01  -2.589912e+01
   8.315596e+00  -3.704198e+01
   4.285672e+01  -1.577804e+01
   4.348783e+01   1.274120e+01
   4.562887e+00   1.568067e+01
  -2.924529e+01  -1.027642e+01
  -1.025152e+01  -3.648316e+01
   5.599865e+01  -3.122525e+01
   1.078156e+02   1.103888e+01
   8.742029e+01   6.451389e+01
   3.019461e+00   9.217503e+01
  -7.612972e+01   7.461279e+01
  -8.866096e+01   2.623405e+01
  -3.955849e+01  -1.506654e+01
   1.212855e+01  -1.988097e+01
   1.637515e+01   5.194763e+00
  -2.306619e+01   2.321380e+01
  -6.105113e+01   5.355209e+00
  -5.818431e+01  -3.611425e+01
  -1.558805e+01  -5.950319e+01
   2.926764e+01  -4.082818e+01
   3.843054e+01  -2.542384e+00
   1.003759e+01   1.176382e+01
  -1.845878e+01  -1.227647e+01
  -7.941788e+00  -4.388559e+01
   3.876978e+01  -4.248818e+01
   7.558967e+01  -1.113651e+00
   6.036722e+01   4.875136e+01
   9.583862e-01   6.913743e+01
  -5.139963e+01   4.777924e+01
  -5.449812e+01   4.372984e+00
  -1.588974e+01  -2.769148e+01
   2.004289e+01  -2.826366e+01
   2.070922e+01  -6.650622e+00
  -3.693154e+00   8.608374e+00
  -1.659958e+01   1.181210e+00
   2.340225e+00  -1.290643e+01
   3.426364e+01  -3.723865e+00
   4.051727e+01   3.315225e+01
   3.541065e+00   6.457898e+01
  -5.268812e+01   5.345449e+01
  -8.330338e+01   2.617787e-02
  -6.376280e+01  -5.652539e+01
  -1.134731e+01  -7.591599e+01
   3.283145e+01  -5.172078e+01
   4.216451e+01  -1.136963e+01
   2.561267e+01   1.207611e+01
   1.265593e+01   8.051861e+00
   1.947575e+01  -5.632254e+00
   3.190575e+01  -2.940102e+00
   2.312515e+01   2.103469e+01
  -1.248204e+01   4.091956e+01
  -4.659333e+01   2.712461e+01
  -4.228141e+01  -1.675869e+01
   6.262501e+00  -4.953295e+01
   6.142583e+01  -3.278903e+01
   7.328157e+01   2.584011e+01
   2.569923e+01   7.634583e+01
  -4.745896e+01   7.475372e+01
  -9.200338e+01   2.427440e+01
  -8.021128e+01  -3.225334e+01
  -3.075203e+01  -5.593874e+01
   1.414973e+01  -4.466835e+01
   2.863763e+01  -2.606174e+01
   2.122722e+01  -2.376529e+01
   1.757367e+01  -3.308568e+01
   3.011290e+01  -2.873447e+01
   4.582844e+01   4.892535e+00
   4.144087e+01   5.223055e+01
   8.660614e+00   7.692393e+01
  -3.455213e+01   5.556849e+01
  -5.690510e+01   1.680231e+00
  -4.088791e+01  -4.477947e+01
  -7.921800e-01  -5.261177e+01
   2.787299e+01  -2.495404e+01
   2.236322e+01   8.343147e+00
  -3.108222e+00   2.117539e+01
  -1.295324e+01   1.301373e+01
   7.152611e+00   2.674323e+00
   3.015796e+01   4.590466e+00
   1.858971e+01   1.400594e+01
  -2.722063e+01   1.478948e+01
  -6.343597e+01  -1.220613e+00
  -5.006161e+01  -2.444357e+01
   3.718324e+00  -3.610267e+01
   4.930234e+01  -2.549040e+01
   5.000918e+01  -1.264775e-01
   1.438975e+01   1.947868e+01
  -2.026720e+01   1.670684e+01
  -2.734038e+01  -5.711936e+00
  -9.577038e+00  -2.631201e+01
   1.310712e+01  -2.454750e+01
   2.474682e+01  -2.298558e+00
   2.333636e+01   1.710074e+01
   1.774078e+01   1.501850e+01
   1.751974e+01   4.268788e-01
   2.196202e+01   3.099687e-01
   1.780546e+01   2.575933e+01
  -7.177482e+00   5.417040e+01
  -4.482174e+01   5.177822e+01
  -6.585697e+01   1.240254e+01
  -4.702205e+01  -3.292056e+01
  -1.538731e-01  -4.747835e+01
   3.308538e+01  -2.612345e+01
   2.193502e+01   2.342184e+00
  -1.954582e+01   7.389239e+00
  -4.484920e+01  -1.332608e+01
  -2.298661e+01  -3.589306e+01
   2.905299e+01  -3.660094e+01
   6.392748e+01  -1.340172e+01
   5.194134e+01   1.542047e+01
   8.890702e+00   2.863013e+01
  -2.270593e+01   1.874132e+01
  -1.658297e+01  -2.405399e+00
   1.390658e+01  -1.182304e+01
   3.230351e+01   5.427217e+00
   1.593305e+01   3.843087e+01
  -2.310646e+01   5.391739e+01
  -5.083648e+01   2.692597e+01
  -4.350364e+01  -2.805597e+01
  -8.052145e+00  -6.391814e+01
   2.639858e+01  -4.723347e+01
   3.529448e+01   4.661296e+00
   1.778255e+01   4.136454e+01
  -6.957427e+00   3.424910e+01
  -1.901025e+01   3.896969e+00
  -1.394121e+01  -1.117806e+01
  -3.524241e+00  -2.286141e+00
  -2.467757e+00   5.266044e+00
  -1.289299e+01  -8.463624e+00
  -2.058253e+01  -3.072809e+01
  -8.854910e+00  -3.464221e+01
   2.107320e+01  -1.407862e+01
   4.563144e+01   1.147508e+01
   4.025482e+01   2.267372e+01
   6.756224e+00   1.886067e+01
  -2.534880e+01   1.003335e+01
  -2.889560e+01   1.859236e+00
  -7.630597e+00  -4.800416e+00
   1.056988e+01  -7.190909e+00
   7.919032e+00  -3.203712e+00
  -3.387186e+00   1.935694e+00
   2.638298e-01   1.059314e+00
   2.069239e+01  -1.932438e+00
   3.216244e+01   6.129523e+00
   1.128383e+01   2.744963e+01
  -3.282745e+01   4.195383e+01
  -6.411059e+01   2.624994e+01
  -5.520678e+01  -1.631198e+01
  -1.396182e+01  -5.320170e+01
   2.637456e+01  -5.488783e+01
   3.975801e+01  -2.519669e+01
   2.757853e+01   5.239429e+00
   9.764734e+00   1.335667e+01
   2.340009e+00   5.449085e+00
   5.750734e+00   3.815949e+00
   1.001163e+01   1.741453e+01
   5.560570e+00   3.125850e+01
  -9.410777e+00   2.474807e+01
  -2.611435e+01  -3.560712e+00
  -2.880466e+01  -3.215160e+01
  -8.336781e+00  -3.685967e+01
   2.319291e+01  -1.363361e+01
   3.715312e+01   1.837815e+01
   1.671178e+01   3.447286e+01
  -2.038572e+01   2.472500e+01
  -3.693734e+01  -4.297643e-01
  -1.788817e+01  -2.108065e+01
   1.134694e+01  -2.381784e+01
   1.559094e+01  -1.073816e+01
  -6.817580e+00   3.510333e+00
  -2.291617e+01   4.264133e+00
  -7.412469e+00  -9.599691e+00
   2.593947e+01  -2.293441e+01
   4.215968e+01  -1.798255e+01
   2.634068e+01   6.235272e+00
  -3.199677e+00   2.961633e+01
  -2.016009e+01   2.992001e+01
  -1.708507e+01   6.731267e+00
  -4.367720e+00  -1.675237e+01
   6.945514e+00  -1.798850e+01
   1.264243e+01   1.138977e+00
   1.080198e+01   1.794930e+01
   7.938587e-01   1.525378e+01
  -1.143936e+01  -4.785362e-01
  -1.521646e+01  -9.255865e+00
  -7.275311e+00  -2.373760e+00
   2.390323e+00   8.100602e+00
   2.503556e+00   5.606185e+00
  -4.121981e+00  -9.507891e+00
  -4.014014e+00  -1.965760e+01
   7.409454e+00  -1.114176e+01
   1.676130e+01   8.834476e+00
   8.670983e+00   1.969204e+01
  -1.229730e+01   1.044523e+01
  -2.318741e+01  -8.920778e+00
  -8.610187e+00  -1.959395e+01
   1.947288e+01  -1.349870e+01
   3.300413e+01   1.758693e+00
   1.830009e+01   1.395319e+01
  -9.113644e+00   1.706703e+01
  -2.201602e+01   1.204870e+01
  -1.093295e+01   3.301429e+00
   7.399991e+00  -2.689261e+00
   1.032351e+01  -4.148226e-01
  -5.869267e+00   7.361657e+00
  -2.327748e+01   8.195456e+00
