
 $NMID
 id='ANONYMOUS ', fmtdat='(2E16.6)'
 volume=1.0
 tramp=1.0
 $END
  -2.283588e+03  -8.031147e+00
  -1.570031e+03  -1.061728e+03
  -1.634794e+02  -1.427738e+03
   7.616519e+02  -1.029707e+03
   7.116240e+02  -3.415935e+02
   1.584169e+02   6.454186e+01
  -1.767736e+02  -1.758553e+01
  -5.192015e+01  -3.210518e+02
   2.677769e+02  -4.087853e+02
   4.366030e+02  -1.092066e+02
   3.316472e+02   3.169969e+02
   5.988375e+01   4.501560e+02
  -1.643935e+02   1.572031e+02
  -1.646193e+02  -2.601645e+02
   5.316640e+01  -3.776331e+02
   2.698684e+02  -8.231798e+01
   2.406503e+02   3.309929e+02
  -4.516435e+01   4.770617e+02
  -3.296783e+02   2.555164e+02
  -3.519785e+02  -9.141892e+01
  -1.297725e+02  -2.594292e+02
   6.650762e+01  -1.868020e+02
   2.594851e+01  -7.150050e+01
  -1.575309e+02  -1.059658e+02
  -1.946481e+02  -2.436221e+02
   4.923754e+01  -2.702490e+02
   3.679262e+02  -8.502016e+01
   4.248263e+02   1.629396e+02
   1.320780e+02   2.457378e+02
  -2.389660e+02   1.050384e+02
  -3.440441e+02  -1.192909e+02
  -1.172586e+02  -2.583014e+02
   1.975819e+02  -2.406025e+02
   3.286282e+02  -8.851096e+01
   2.306560e+02   1.075712e+02
   6.752097e+01   2.064138e+02
   7.469572e+00   1.194800e+02
   7.056986e+01  -5.127239e+01
   1.456776e+02  -7.315886e+01
   1.158262e+02   1.348011e+02
  -2.956683e+01   3.496023e+02
  -1.799908e+02   2.917173e+02
  -2.002915e+02  -3.701789e+00
  -6.560685e+01  -1.995913e+02
   9.252802e+01  -7.314013e+01
   9.697343e+01   2.014016e+02
  -9.461474e+01   2.711216e+02
  -3.216760e+02   3.106164e+01
  -3.552540e+02  -2.758028e+02
  -1.206986e+02  -3.619529e+02
   2.123815e+02  -1.923634e+02
   3.764284e+02   4.316656e+01
   2.545980e+02   1.649534e+02
  -1.585433e+01   1.466725e+02
  -1.902929e+02   6.923686e+01
  -1.583180e+02   1.186275e+01
  -2.875615e+01   1.207723e+00
   1.775149e+01   1.832663e+01
  -6.571576e+01   2.005416e+01
  -1.513997e+02  -3.135761e+01
  -9.226470e+01  -1.259968e+02
   1.028552e+02  -1.870883e+02
   2.621643e+02  -1.228072e+02
   2.204626e+02   7.155090e+01
  -8.477187e+00   2.674549e+02
  -2.377846e+02   2.967065e+02
  -2.912587e+02   1.170958e+02
  -1.716853e+02  -1.311880e+02
  -3.162480e+01  -2.620424e+02
   1.144150e+01  -2.283854e+02
  -6.919719e+00  -1.405590e+02
   2.216643e+01  -1.057809e+02
   1.236733e+02  -1.000051e+02
   2.070234e+02  -3.081217e+01
   1.812176e+02   1.071750e+02
   5.584772e+01   1.979685e+02
  -8.022123e+01   1.360456e+02
  -1.413118e+02  -4.339576e+01
  -9.162404e+01  -1.903073e+02
   4.564973e+01  -1.839006e+02
   1.870713e+02  -3.654014e+01
   2.260048e+02   1.343511e+02
   1.251058e+02   2.178075e+02
  -2.956721e+01   1.934727e+02
  -1.130920e+02   1.238735e+02
  -1.087617e+02   7.798527e+01
  -1.227069e+02   6.315645e+01
  -2.248424e+02   2.668742e+01
  -3.211755e+02  -7.888131e+01
  -2.462142e+02  -2.311097e+02
   2.195457e+01  -3.370480e+02
   2.972841e+02  -3.045960e+02
   3.670522e+02  -1.298918e+02
   2.106084e+02   7.981004e+01
   6.320621e+00   1.852490e+02
  -6.564579e+01   1.382598e+02
   6.852108e+00   2.708726e+01
   9.488997e+01  -1.708056e+01
   8.708572e+01   3.843921e+01
  -4.945872e+00   9.877490e+01
  -8.260937e+01   6.388926e+01
  -6.841745e+01  -4.127932e+01
   2.663275e+01  -8.755300e+01
   1.179863e+02   8.081299e+00
   1.142862e+02   1.774421e+02
  -1.118070e+01   2.610080e+02
  -1.869569e+02   1.658904e+02
  -2.835868e+02  -4.343060e+01
  -2.185956e+02  -2.070316e+02
  -4.080697e+01  -2.164607e+02
   1.037630e+02  -1.049369e+02
   1.109270e+02  -1.271962e-01
   2.047196e+01   7.611527e+00
  -3.640879e+01  -5.361099e+01
   1.114295e+01  -8.681455e+01
   9.736361e+01  -4.368701e+01
   1.063501e+02   2.549498e+01
   1.676854e+01   3.964038e+01
  -6.586598e+01  -1.656052e+01
  -2.713403e+01  -7.812044e+01
   1.212705e+02  -7.054436e+01
   2.401293e+02   2.008704e+01
   1.999174e+02   1.392602e+02
   1.452530e+01   2.073672e+02
  -1.673166e+02   1.759517e+02
  -2.049989e+02   6.692328e+01
  -9.775255e+01  -3.538646e+01
   2.610020e+01  -5.269314e+01
   4.354102e+01   8.510558e+00
  -4.743763e+01   5.779494e+01
  -1.413194e+02   1.861906e+01
  -1.385670e+02  -8.155474e+01
  -3.892497e+01  -1.401303e+02
   6.777794e+01  -9.841754e+01
   9.197079e+01  -8.908325e+00
   2.877858e+01   2.789651e+01
  -3.833048e+01  -2.209590e+01
  -2.039590e+01  -9.312198e+01
   8.176535e+01  -9.508309e+01
   1.683188e+02  -6.587976e+00
   1.394635e+02   1.077104e+02
   5.059055e+00   1.593508e+02
  -1.187306e+02   1.121961e+02
  -1.288116e+02   9.069823e+00
  -3.881710e+01  -6.781220e+01
   4.672937e+01  -6.846946e+01
   5.038640e+01  -1.672435e+01
  -4.110149e+00   1.981043e+01
  -3.384795e+01   5.043497e+00
   5.553983e+00  -2.500652e+01
   7.341456e+01  -5.892473e+00
   8.774860e+01   7.275818e+01
   9.086172e+00   1.420924e+02
  -1.152743e+02   1.210205e+02
  -1.876621e+02   4.152080e+00
  -1.472080e+02  -1.258537e+02
  -2.727469e+01  -1.745230e+02
   7.628984e+01  -1.202076e+02
   9.750887e+01  -2.505864e+01
   5.750165e+01   3.025120e+01
   2.749619e+01   1.998428e+01
   4.364715e+01  -1.224578e+01
   7.042942e+01  -6.528162e+00
   4.889260e+01   4.583224e+01
  -2.885918e+01   8.828324e+01
  -1.006280e+02   5.839522e+01
  -9.055164e+01  -3.573248e+01
   1.315258e+01  -1.074391e+02
   1.336825e+02  -7.335909e+01
   1.639740e+02   5.466902e+01
   6.237896e+01   1.700329e+02
  -1.026958e+02   1.713891e+02
  -2.084643e+02   5.913280e+01
  -1.855380e+02  -7.173435e+01
  -7.283707e+01  -1.288276e+02
   3.162875e+01  -1.038650e+02
   6.650092e+01  -6.037012e+01
   5.058345e+01  -5.394157e+01
   4.194918e+01  -7.423374e+01
   6.879449e+01  -6.386204e+01
   1.031225e+02   1.201775e+01
   9.369008e+01   1.185163e+02
   2.055438e+01   1.746763e+02
  -7.788583e+01   1.276305e+02
  -1.304938e+02   6.251455e+00
  -9.541437e+01  -1.002023e+02
  -4.402779e+00  -1.202884e+02
   6.120145e+01  -5.957420e+01
   5.013313e+01   1.523532e+01
  -4.891455e+00   4.536028e+01
  -2.540715e+01   2.919139e+01
   1.836553e+01   7.601819e+00
   6.709799e+01   1.159841e+01
   4.084699e+01   3.126737e+01
  -5.939102e+01   3.280200e+01
  -1.399628e+02  -1.488790e+00
  -1.132642e+02  -5.236347e+01
   4.487232e+00  -7.958367e+01
   1.083596e+02  -5.802725e+01
   1.133305e+02  -2.340841e+00
   3.369424e+01   4.187197e+01
  -4.598013e+01   3.634199e+01
  -6.144092e+01  -1.316130e+01
  -1.897331e+01  -5.833056e+01
   3.204622e+01  -5.366682e+01
   5.478881e+01  -4.094116e+00
   4.955881e+01   3.859823e+01
   3.909622e+01   3.366855e+01
   4.116140e+01   1.106122e+00
   5.008010e+01   5.993718e-01
   3.810859e+01   5.718045e+01
  -1.770284e+01   1.209868e+02
  -9.930619e+01   1.161734e+02
  -1.452339e+02   2.805361e+01
  -1.047338e+02  -7.367043e+01
  -1.450766e+00  -1.058781e+02
   7.332633e+01  -5.729199e+01
   4.911000e+01   6.364961e+00
  -4.456267e+01   1.659813e+01
  -1.026244e+02  -3.071622e+01
  -5.348382e+01  -8.167938e+01
   6.515296e+01  -8.388529e+01
   1.455422e+02  -3.242885e+01
   1.194292e+02   3.321514e+01
   2.186625e+01   6.536526e+01
  -5.071302e+01   4.480486e+01
  -3.776283e+01  -3.349275e+00
   3.117504e+01  -2.578325e+01
   7.268005e+01   1.310064e+01
   3.431565e+01   8.790048e+01
  -5.553611e+01   1.217445e+02
  -1.177410e+02   5.883712e+01
  -9.858812e+01  -6.606031e+01
  -1.657983e+01  -1.463402e+02
   6.088453e+01  -1.080202e+02
   8.028025e+01   9.455009e+00
   4.172764e+01   9.333778e+01
  -1.303662e+01   7.868134e+01
  -4.174962e+01   1.020945e+01
  -3.326237e+01  -2.513752e+01
  -1.021355e+01  -5.521220e+00
  -5.135345e+00   1.270323e+01
  -2.688060e+01  -1.768121e+01
  -4.615136e+01  -6.938493e+01
  -2.246453e+01  -7.975005e+01
   4.564935e+01  -3.264894e+01
   1.041665e+02   2.672147e+01
   9.307234e+01   5.199613e+01
   1.510297e+01   4.195539e+01
  -5.937049e+01   2.175075e+01
  -6.607353e+01   4.615283e+00
  -1.571971e+01  -9.849622e+00
   2.503709e+01  -1.648960e+01
   1.670467e+01  -8.592152e+00
  -9.284616e+00   3.750693e+00
   1.275655e+00   3.278549e+00
   4.881595e+01  -3.014870e+00
   7.254144e+01   1.462746e+01
   2.217253e+01   6.206542e+01
  -7.745221e+01   9.388175e+01
  -1.448833e+02   5.710086e+01
  -1.222778e+02  -3.951054e+01
  -2.963098e+01  -1.213915e+02
   5.983329e+01  -1.229737e+02
   8.967370e+01  -5.508605e+01
   6.249257e+01   1.268028e+01
   2.167193e+01   2.970743e+01
   3.959577e+00   1.126620e+01
   1.214250e+01   7.587699e+00
   2.331667e+01   3.871626e+01
   1.362531e+01   7.066892e+01
  -2.149302e+01   5.600882e+01
  -5.983861e+01  -9.172714e+00
  -6.428949e+01  -7.478853e+01
  -1.612274e+01  -8.404686e+01
   5.451308e+01  -2.860864e+01
   8.335072e+01   4.460523e+01
   3.556975e+01   7.838368e+01
  -4.702387e+01   5.368927e+01
  -8.221992e+01  -2.329349e+00
  -3.878760e+01  -4.609173e+01
   2.550043e+01  -5.147240e+01
   3.325649e+01  -2.399423e+01
  -1.739599e+01   6.511250e+00
  -5.222281e+01   8.897022e+00
  -1.588002e+01  -2.127755e+01
   5.919453e+01  -5.188142e+01
   9.442948e+01  -4.176924e+01
   5.786710e+01   1.309626e+01
  -8.065364e+00   6.658569e+01
  -4.471779e+01   6.674041e+01
  -3.678915e+01   1.337308e+01
  -8.305322e+00  -3.887499e+01
   1.641371e+01  -3.937295e+01
   2.849711e+01   4.671006e+00
   2.380343e+01   4.083658e+01
   1.169446e+00   3.286848e+01
  -2.584103e+01  -2.065970e+00
  -3.385229e+01  -2.005564e+01
  -1.642589e+01  -4.526540e+00
   4.596030e+00   1.696503e+01
   5.713399e+00   9.948775e+00
  -6.683204e+00  -2.268474e+01
  -5.208352e+00  -4.258720e+01
   1.813562e+01  -2.168972e+01
   3.525376e+01   2.259774e+01
   1.580053e+01   4.494132e+01
  -2.901746e+01   2.224289e+01
  -5.089736e+01  -2.196841e+01
  -1.801576e+01  -4.514857e+01
   4.377230e+01  -2.986848e+01
   7.365050e+01   5.326814e+00
   4.085600e+01   3.201394e+01
  -2.087088e+01   3.738620e+01
  -4.984939e+01   2.538736e+01
  -2.364453e+01   6.862451e+00
   1.892161e+01  -4.606052e+00
   2.437405e+01   1.471090e+00
  -1.525063e+01   1.800344e+01
  -5.598356e+01   1.790819e+01
