
 $NMID
 id='ANONYMOUS ', fmtdat='(2E16.6)'
 volume=1.0
 tramp=1.0
 $END
   4.578041e+03   3.242222e+01
   2.607599e+03   2.856156e+03
  -9.203543e+02   2.923643e+03
  -2.339875e+03   8.077970e+02
  -9.781647e+02  -8.653052e+02
   7.979494e+02  -6.783701e+02
   1.006849e+03   5.024416e+02
  -2.383233e+01   1.181188e+03
  -9.226210e+02   8.207160e+02
  -1.009583e+03  -1.471300e+02
  -4.483051e+02  -9.528263e+02
   3.081754e+02  -9.492572e+02
   7.169519e+02  -9.978482e+01
   4.097865e+02   7.895554e+02
  -3.143908e+02   7.964323e+02
  -6.575391e+02  -3.221952e+01
  -2.590248e+02  -7.360731e+02
   3.854255e+02  -6.416597e+02
   6.237454e+02  -4.305726e+01
   3.774589e+02   4.047773e+02
  -1.566119e+01   4.613150e+02
  -2.740943e+02   2.677789e+02
  -2.460095e+02   6.471185e+00
   9.247400e+01  -1.165093e+02
   4.222145e+02   8.373325e+01
   2.348733e+02   4.395811e+02
  -4.560245e+02   4.504570e+02
  -8.927056e+02  -6.230840e+01
  -4.697942e+02  -5.888516e+02
   4.053859e+02  -5.360879e+02
   7.912187e+02   2.237227e+01
   3.743020e+02   5.085786e+02
  -2.918004e+02   5.478434e+02
  -5.926329e+02   2.087497e+02
  -4.352996e+02  -2.486359e+02
  -6.524606e+01  -5.131522e+02
   2.357708e+02  -3.106779e+02
   2.167657e+02   2.362945e+02
  -1.583494e+02   4.903557e+02
  -4.898182e+02   8.728428e+00
  -2.856000e+02  -7.161339e+02
   3.376141e+02  -7.551548e+02
   6.645887e+02  -5.924027e+00
   2.894869e+02   6.047552e+02
  -3.193462e+02   3.591067e+02
  -4.255514e+02  -3.331558e+02
   6.284088e+01  -5.776396e+02
   5.783600e+02  -1.462062e+02
   6.110306e+02   4.237506e+02
   1.592740e+02   6.097750e+02
  -4.049148e+02   3.592232e+02
  -6.535605e+02  -8.569360e+01
  -3.814433e+02  -4.207717e+02
   1.776278e+02  -3.981694e+02
   4.810532e+02  -4.874237e+01
   2.539213e+02   2.371131e+02
  -1.433834e+02   1.309292e+02
  -1.680108e+02  -1.746980e+02
   1.758584e+02  -2.160295e+02
   3.749082e+02   8.088289e+01
   1.453804e+02   3.267845e+02
  -2.226958e+02   2.609520e+02
  -3.356142e+02   4.892791e+01
  -1.769759e+02  -9.323413e+01
   3.945991e+01  -1.999278e+02
   2.132719e+02  -3.036413e+02
   3.297194e+02  -2.208511e+02
   2.988306e+02   1.319301e+02
   8.230415e+01   4.522726e+02
  -1.366429e+02   4.029229e+02
  -1.505785e+02   1.044547e+02
  -3.142405e+01  -3.899853e+01
  -2.466297e+01   7.219419e+01
  -1.783030e+02   1.391615e+02
  -2.810677e+02  -3.877445e+01
  -1.715066e+02  -2.707753e+02
   6.571458e+01  -2.688770e+02
   2.326273e+02  -2.168006e+01
   2.078094e+02   2.387164e+02
  -3.436698e+00   3.022490e+02
  -2.687766e+02   1.259908e+02
  -3.693072e+02  -1.685706e+02
  -1.880849e+02  -3.651971e+02
   1.131082e+02  -3.179731e+02
   2.457447e+02  -1.135764e+02
   1.572528e+02   1.496587e+01
   9.044121e+01  -2.082214e+01
   2.206154e+02  -6.267798e+01
   3.912080e+02   5.630063e+01
   3.261256e+02   2.852299e+02
  -4.922573e+00   4.388763e+02
  -3.586538e+02   4.053046e+02
  -4.888805e+02   1.971755e+02
  -3.440826e+02  -9.368308e+01
  -6.049578e+01  -3.017889e+02
   1.392707e+02  -2.659274e+02
   9.992439e+01  -3.142485e+01
  -1.049449e+02   1.213668e+02
  -2.100878e+02   2.949748e+00
  -6.105463e+01  -2.073491e+02
   1.707924e+02  -1.888609e+02
   1.960303e+02   6.091696e+01
  -1.370084e+01   2.072445e+02
  -2.007410e+02   3.969220e+01
  -1.620740e+02  -2.524371e+02
   4.100641e+01  -3.493559e+02
   2.314076e+02  -1.813349e+02
   3.137438e+02   7.216603e+01
   2.673571e+02   2.358197e+02
   9.625703e+01   2.574327e+02
  -1.101632e+02   1.607902e+02
  -1.828302e+02   2.323545e+01
  -6.559252e+01  -3.627117e+01
   7.176766e+01   3.239675e+01
   3.655336e+01   1.255160e+02
  -1.227395e+02   1.057367e+02
  -1.849235e+02  -9.865723e+00
  -6.517276e+01  -7.608249e+01
   7.691313e+01  -2.257821e+01
   5.622238e+01   6.666871e+01
  -1.167938e+02   8.072124e+01
  -2.709030e+02  -1.952220e+00
  -2.562349e+02  -1.344302e+02
  -6.265444e+01  -2.481970e+02
   1.787657e+02  -2.602857e+02
   2.854401e+02  -1.294061e+02
   1.776200e+02   5.346940e+01
  -2.236044e+01   1.170440e+02
  -9.719217e+01   1.246994e+01
   2.677418e+01  -1.046116e+02
   1.963244e+02  -6.373952e+01
   2.171887e+02   1.031474e+02
   7.052747e+01   2.125226e+02
  -9.654417e+01   1.622400e+02
  -1.482215e+02   3.124935e+01
  -7.690201e+01  -4.229428e+01
   2.131504e+01  -8.569415e+00
   3.623584e+01   7.376266e+01
  -6.519031e+01   1.061345e+02
  -1.901557e+02   2.879426e+01
  -1.887305e+02  -1.206957e+02
  -2.132875e+01  -2.179032e+02
   1.673869e+02  -1.645464e+02
   1.990617e+02  -3.030887e+00
   6.752632e+01   1.202500e+02
  -6.854806e+01   1.151797e+02
  -8.700533e+01   3.184192e+01
  -2.332906e+01  -2.521090e+01
   1.611334e+01  -1.983861e+01
  -1.124580e+01   2.380923e+00
  -6.466911e+01  -1.428645e+01
  -7.906417e+01  -8.013432e+01
  -1.188196e+01  -1.496850e+02
   1.213369e+02  -1.457384e+02
   2.271306e+02  -2.593635e+01
   1.983579e+02   1.473891e+02
   3.959306e+01   2.370261e+02
  -1.121418e+02   1.697427e+02
  -1.372825e+02   2.391346e+01
  -6.868424e+01  -6.008845e+01
  -2.645510e+01  -3.848185e+01
  -5.224304e+01   1.009743e+01
  -7.612252e+01   4.012155e+00
  -3.515510e+01  -4.826955e+01
   4.516082e+01  -7.989080e+01
   9.606002e+01  -4.691974e+01
   7.582235e+01   3.494902e+01
  -1.521284e+01   1.014669e+02
  -1.335718e+02   7.887341e+01
  -1.885783e+02  -4.900234e+01
  -9.946942e+01  -1.943174e+02
   1.015523e+02  -2.236671e+02
   2.627274e+02  -9.500264e+01
   2.561198e+02   8.631207e+01
   1.092900e+02   1.776654e+02
  -3.958575e+01   1.474401e+02
  -9.634684e+01   8.313031e+01
  -8.253538e+01   6.758829e+01
  -7.030197e+01   8.763750e+01
  -9.317482e+01   6.950935e+01
  -1.247052e+02  -2.551842e+01
  -1.121481e+02  -1.537053e+02
  -2.599141e+01  -2.226553e+02
   9.917894e+01  -1.692793e+02
   1.740319e+02  -2.041182e+01
   1.347820e+02   1.198093e+02
   1.939255e+01   1.578038e+02
  -6.461396e+01   9.266395e+01
  -5.740058e+01   3.882139e+00
  -5.890446e+00  -3.813325e+01
   6.181336e+00  -3.224675e+01
  -3.816885e+01  -1.993921e+01
  -7.597936e+01  -2.568949e+01
  -4.134013e+01  -3.810364e+01
   6.053063e+01  -3.336421e+01
   1.496851e+02  -3.019069e-01
   1.382262e+02   4.939184e+01
   1.751706e+01   8.323765e+01
  -1.153769e+02   6.958208e+01
  -1.419410e+02   1.286108e+01
  -4.742252e+01  -3.799575e+01
   6.012768e+01  -3.370929e+01
   7.340117e+01   2.048311e+01
   2.602444e+00   6.629337e+01
  -5.905513e+01   5.387331e+01
  -6.070825e+01  -4.956449e+00
  -3.818590e+01  -5.060439e+01
  -4.027285e+01  -4.172368e+01
  -6.178758e+01  -3.276583e+00
  -6.509103e+01  -1.752818e+00
  -3.010428e+01  -6.605355e+01
   3.718898e+01  -1.400704e+02
   1.141673e+02  -1.337696e+02
   1.564351e+02  -2.812058e+01
   1.162985e+02   9.085892e+01
   4.844082e+00   1.211607e+02
  -8.382707e+01   5.576404e+01
  -5.789548e+01  -1.725295e+01
   5.858249e+01  -1.836680e+01
   1.349997e+02   4.554679e+01
   7.398806e+01   1.065331e+02
  -8.000348e+01   1.093765e+02
  -1.881580e+02   4.984371e+01
  -1.602024e+02  -3.366355e+01
  -3.707235e+01  -8.571433e+01
   5.948556e+01  -7.020962e+01
   4.784819e+01  -8.844121e+00
  -3.824293e+01   2.428507e+01
  -8.771819e+01  -2.481370e+01
  -2.806115e+01  -1.181028e+02
   9.618141e+01  -1.494114e+02
   1.685073e+02  -5.583538e+01
   1.226446e+02   1.036835e+02
   4.719467e+00   1.956180e+02
  -8.743224e+01   1.408524e+02
  -1.022998e+02  -7.133194e+00
  -5.873584e+01  -1.157012e+02
   2.031566e-01  -1.047955e+02
   4.329249e+01  -2.023701e+01
   5.228215e+01   3.088108e+01
   2.800412e+01   8.789905e+00
   3.506243e+00  -2.088411e+01
   1.664024e+01   1.388885e+01
   5.210197e+01   8.748757e+01
   4.223746e+01   1.087758e+02
  -4.396309e+01   4.370735e+01
  -1.355875e+02  -4.203018e+01
  -1.281151e+02  -7.231138e+01
  -1.575944e+01  -4.806270e+01
   8.905580e+01  -1.921478e+01
   8.721376e+01  -6.378907e+00
   8.284038e+00   6.542489e+00
  -3.944480e+01   2.158436e+01
  -1.234228e+01   1.883117e+01
   2.306042e+01  -6.562483e-01
  -6.456009e+00  -9.911795e+00
  -7.521971e+01  -6.565224e+00
  -8.870078e+01  -2.621832e+01
  -2.368878e+00  -7.927345e+01
   1.222661e+02  -1.083683e+02
   1.825983e+02  -5.013523e+01
   1.341003e+02   7.265796e+01
   1.946669e+01   1.602898e+02
  -8.076221e+01   1.429768e+02
  -1.127411e+02   5.214217e+01
  -7.846804e+01  -2.374927e+01
  -2.285898e+01  -3.452013e+01
   5.022856e+00  -7.444226e+00
  -8.518807e+00  -3.091061e+00
  -3.194562e+01  -4.422312e+01
  -2.151132e+01  -8.789677e+01
   3.025644e+01  -6.926574e+01
   7.990802e+01   2.100994e+01
   7.219223e+01   1.100209e+02
  -1.495908e+00   1.109648e+02
  -8.388530e+01   1.914353e+01
  -9.864916e+01  -7.970776e+01
  -2.628558e+01  -1.026272e+02
   6.768678e+01  -5.017713e+01
   9.376175e+01   1.575853e+01
   3.453460e+01   4.861128e+01
  -3.347126e+01   4.666903e+01
  -2.867900e+01   2.586496e+01
   3.598741e+01   1.555217e+00
   6.833436e+01  -4.173221e+00
   1.275602e+01   2.445154e+01
  -7.923643e+01   6.267490e+01
  -1.123816e+02   5.566200e+01
  -5.948302e+01  -1.222562e+01
   1.834319e+01  -8.020347e+01
   5.250194e+01  -7.473261e+01
   3.433455e+01  -1.895118e+00
  -1.494798e+00   5.607104e+01
  -2.723289e+01   3.970408e+01
  -3.545697e+01  -2.125675e+01
  -2.391729e+01  -5.361961e+01
   4.680650e+00  -3.004133e+01
   3.226256e+01   1.027991e+01
   3.721216e+01   2.043153e+01
   1.976250e+01   4.904388e-01
   9.782616e-01  -1.232064e+01
  -6.040859e+00   6.118606e+00
  -1.013955e+01   3.759601e+01
  -2.231964e+01   4.189050e+01
  -3.417340e+01   2.831914e+00
  -2.588255e+01  -4.838845e+01
   7.933347e+00  -6.077830e+01
   4.573727e+01  -1.762444e+01
   5.266411e+01   4.211223e+01
   1.109269e+01   6.314934e+01
  -5.402007e+01   3.092947e+01
  -8.521182e+01  -1.899050e+01
  -4.620460e+01  -4.470645e+01
   2.961387e+01  -3.755922e+01
   6.411099e+01  -1.702152e+01
   2.251540e+01  -3.110038e+00
  -3.926165e+01  -4.233570e+00
  -3.824384e+01  -1.883896e+01
   3.266639e+01  -3.188013e+01
   9.346112e+01  -1.720826e+01
