
 $NMID
 id='ANONYMOUS ', fmtdat='(2E16.6)'
 volume=1.0
 tramp=1.0
 $END
  -2.819911e+03  -2.610380e+01
  -1.994098e+03  -1.281327e+03
  -2.910210e+02  -1.795590e+03
   9.208599e+02  -1.388199e+03
   9.617455e+02  -5.253454e+02
   2.989715e+02   7.017000e+01
  -1.803458e+02   3.275151e+01
  -8.739161e+01  -3.581779e+02
   3.033224e+02  -5.138189e+02
   5.399902e+02  -1.642434e+02
   4.333598e+02   3.752432e+02
   1.055884e+02   5.650504e+02
  -1.799388e+02   2.210925e+02
  -2.027887e+02  -2.990449e+02
   5.101670e+01  -4.688041e+02
   3.304012e+02  -1.185045e+02
   3.143054e+02   4.113112e+02
  -4.535890e+01   6.220584e+02
  -4.256052e+02   3.488328e+02
  -4.661869e+02  -1.076830e+02
  -1.782558e+02  -3.339735e+02
   7.556719e+01  -2.426400e+02
   2.129372e+01  -1.045168e+02
  -2.016944e+02  -1.644595e+02
  -2.241494e+02  -3.332280e+02
   9.211558e+01  -3.316221e+02
   4.689401e+02  -7.189393e+01
   5.123407e+02   2.240556e+02
   1.478488e+02   2.908645e+02
  -2.921669e+02   1.000720e+02
  -4.095584e+02  -1.640361e+02
  -1.315635e+02  -3.164875e+02
   2.520984e+02  -2.873559e+02
   4.107286e+02  -1.023729e+02
   2.870596e+02   1.327729e+02
   9.020577e+01   2.495897e+02
   3.013326e+01   1.492802e+02
   1.118511e+02  -4.180760e+01
   1.809393e+02  -5.824373e+01
   1.135536e+02   1.817888e+02
  -6.590157e+01   4.201662e+02
  -2.213279e+02   3.447059e+02
  -2.261576e+02   5.124292e-01
  -7.299730e+01  -2.262111e+02
   9.806588e+01  -7.676065e+01
   9.792488e+01   2.482332e+02
  -1.278905e+02   3.276408e+02
  -4.001979e+02   2.733931e+01
  -4.407186e+02  -3.563693e+02
  -1.493919e+02  -4.593551e+02
   2.661078e+02  -2.373550e+02
   4.723758e+02   5.918996e+01
   3.258685e+02   2.022756e+02
  -6.174357e+00   1.770207e+02
  -2.302627e+02   9.402507e+01
  -2.081659e+02   3.213627e+01
  -5.523578e+01   5.916011e+00
   1.536694e+01   8.036853e+00
  -7.269191e+01   1.169346e+01
  -1.815919e+02  -3.637510e+01
  -1.182338e+02  -1.515813e+02
   1.304512e+02  -2.396765e+02
   3.453412e+02  -1.596240e+02
   2.910636e+02   1.017077e+02
  -2.054377e+01   3.572977e+02
  -3.250949e+02   3.797766e+02
  -3.809341e+02   1.360335e+02
  -2.107250e+02  -1.749351e+02
  -3.342295e+01  -3.289841e+02
   8.518605e+00  -2.895362e+02
  -1.525355e+01  -1.923596e+02
   3.652029e+01  -1.498329e+02
   1.747884e+02  -1.261261e+02
   2.722347e+02  -2.346341e+01
   2.242706e+02   1.499803e+02
   5.907343e+01   2.530526e+02
  -1.076928e+02   1.648909e+02
  -1.749663e+02  -6.469847e+01
  -1.056076e+02  -2.462149e+02
   6.664405e+01  -2.293742e+02
   2.380854e+02  -3.643295e+01
   2.816774e+02   1.779892e+02
   1.556569e+02   2.773361e+02
  -3.578302e+01   2.457249e+02
  -1.430093e+02   1.632482e+02
  -1.446636e+02   1.071768e+02
  -1.673234e+02   8.083846e+01
  -2.956731e+02   2.379965e+01
  -4.128799e+02  -1.152366e+02
  -3.102286e+02  -3.061394e+02
   3.966737e+01  -4.334933e+02
   3.940601e+02  -3.830608e+02
   4.754820e+02  -1.553483e+02
   2.636450e+02   1.076524e+02
   5.910585e-01   2.328592e+02
  -8.183337e+01   1.713138e+02
   1.653922e+01   3.861133e+01
   1.214681e+02  -1.101440e+01
   1.021003e+02   5.339422e+01
  -1.218079e+01   1.191141e+02
  -1.003054e+02   7.361405e+01
  -7.888402e+01  -5.149462e+01
   3.575479e+01  -1.042405e+02
   1.468037e+02   1.632654e+01
   1.420195e+02   2.300488e+02
  -1.940570e+01   3.364157e+02
  -2.478042e+02   2.111244e+02
  -3.694410e+02  -6.439222e+01
  -2.765473e+02  -2.763882e+02
  -4.244434e+01  -2.810550e+02
   1.380701e+02  -1.298230e+02
   1.394058e+02   3.654663e+00
   2.389655e+01   7.183771e+00
  -4.245105e+01  -7.242068e+01
   2.047553e+01  -1.092088e+02
   1.257249e+02  -4.965275e+01
   1.321388e+02   3.636511e+01
   1.781606e+01   4.841852e+01
  -8.391372e+01  -2.695141e+01
  -3.013883e+01  -1.036930e+02
   1.619896e+02  -8.727153e+01
   3.117930e+02   3.579177e+01
   2.529356e+02   1.890865e+02
   8.823263e+00   2.683616e+02
  -2.229636e+02   2.186803e+02
  -2.636468e+02   7.777629e+01
  -1.213584e+02  -4.634997e+01
   3.465638e+01  -6.308753e+01
   5.205328e+01   1.287856e+01
  -6.472257e+01   6.989021e+01
  -1.807087e+02   1.729140e+01
  -1.734766e+02  -1.082743e+02
  -4.558529e+01  -1.789208e+02
   8.855735e+01  -1.226110e+02
   1.160804e+02  -8.186588e+00
   3.340853e+01   3.517737e+01
  -4.998993e+01  -3.335732e+01
  -2.154514e+01  -1.241625e+02
   1.119208e+02  -1.205488e+02
   2.190173e+02  -1.325698e+00
   1.757498e+02   1.442049e+02
   1.185922e+00   2.044593e+02
  -1.547767e+02   1.403149e+02
  -1.642132e+02   9.681538e+00
  -4.776101e+01  -8.555974e+01
   6.084308e+01  -8.518735e+01
   6.349149e+01  -1.998824e+01
  -8.135723e+00   2.465048e+01
  -4.562228e+01   3.693769e+00
   8.431674e+00  -3.459714e+01
   9.794845e+01  -6.364659e+00
   1.134979e+02   9.850458e+01
   6.690400e+00   1.863404e+02
  -1.547221e+02   1.529716e+02
  -2.429644e+02  -2.041976e+00
  -1.853554e+02  -1.675998e+02
  -3.023934e+01  -2.250175e+02
   1.004036e+02  -1.522567e+02
   1.259354e+02  -3.057049e+01
   7.441844e+01   3.919240e+01
   3.600813e+01   2.584470e+01
   5.718249e+01  -1.489641e+01
   9.239785e+01  -6.339603e+00
   6.369655e+01   6.222977e+01
  -4.013720e+01   1.160589e+02
  -1.350586e+02   7.377505e+01
  -1.187865e+02  -5.078178e+01
   2.126030e+01  -1.412007e+02
   1.781928e+02  -9.100566e+01
   2.113104e+02   7.761123e+01
   7.346081e+01   2.227034e+02
  -1.398209e+02   2.172306e+02
  -2.707498e+02   6.874632e+01
  -2.359798e+02  -9.789386e+01
  -8.948872e+01  -1.670376e+02
   4.349416e+01  -1.320916e+02
   8.658598e+01  -7.593648e+01
   6.553552e+01  -6.885767e+01
   5.523170e+01  -9.575116e+01
   9.065759e+01  -8.162822e+01
   1.337343e+02   1.790562e+01
   1.182864e+02   1.558602e+02
   2.152312e+01   2.263152e+02
  -1.041513e+02   1.621471e+02
  -1.678346e+02   3.546932e+00
  -1.191271e+02  -1.324806e+02
  -1.254180e+00  -1.548084e+02
   8.137513e+01  -7.350245e+01
   6.417373e+01   2.316231e+01
  -9.161856e+00   5.966978e+01
  -3.588409e+01   3.661290e+01
   2.264795e+01   9.116801e+00
   8.743764e+01   1.634778e+01
   5.267127e+01   4.203566e+01
  -7.913475e+01   4.089133e+01
  -1.830135e+02  -6.983338e+00
  -1.448222e+02  -7.248642e+01
   1.046171e+01  -1.034640e+02
   1.436192e+02  -7.152957e+01
   1.464225e+02   1.105319e+00
   4.152737e+01   5.616213e+01
  -6.071443e+01   4.666838e+01
  -7.950771e+01  -1.863567e+01
  -2.429472e+01  -7.718677e+01
   4.195180e+01  -7.009601e+01
   7.193156e+01  -4.240720e+00
   6.493166e+01   5.192750e+01
   5.026405e+01   4.500980e+01
   5.247649e+01   2.201453e+00
   6.462550e+01   2.108862e+00
   4.884508e+01   7.606695e+01
  -2.563603e+01   1.573662e+02
  -1.330783e+02   1.480105e+02
  -1.909637e+02   3.181436e+01
  -1.344706e+02  -9.896739e+01
   1.826514e+00  -1.378560e+02
   9.767139e+01  -7.298961e+01
   6.391209e+01   9.062648e+00
  -5.800467e+01   2.043036e+01
  -1.315778e+02  -4.203441e+01
  -6.636066e+01  -1.067324e+02
   8.678515e+01  -1.062289e+02
   1.885502e+02  -3.710036e+01
   1.524834e+02   4.682638e+01
   2.570937e+01   8.463999e+01
  -6.685142e+01   5.524711e+01
  -4.834019e+01  -6.461694e+00
   4.139776e+01  -3.304718e+01
   9.416171e+01   1.853549e+01
   4.321098e+01   1.145565e+02
  -7.345339e+01   1.569048e+02
  -1.529528e+02   7.466879e+01
  -1.262890e+02  -8.676831e+01
  -1.874824e+01  -1.893417e+02
   8.093328e+01  -1.378582e+02
   1.033227e+02   1.492855e+01
   5.068731e+01   1.219134e+02
  -2.028377e+01   1.004608e+02
  -5.481495e+01   1.112646e+01
  -4.144163e+01  -3.324808e+01
  -1.190877e+01  -6.855169e+00
  -7.106033e+00   1.580824e+01
  -3.535941e+01  -2.482004e+01
  -5.813084e+01  -9.126483e+01
  -2.585724e+01  -1.027446e+02
   6.099164e+01  -4.028864e+01
   1.338406e+02   3.683313e+01
   1.181919e+02   6.912988e+01
   1.841927e+01   5.517962e+01
  -7.654133e+01   2.744870e+01
  -8.526282e+01   4.100408e+00
  -2.077845e+01  -1.399851e+01
   3.221999e+01  -2.075827e+01
   2.230956e+01  -9.737900e+00
  -1.134195e+01   5.230065e+00
   1.340159e+00   3.681067e+00
   6.244630e+01  -3.682125e+00
   9.383134e+01   2.051330e+01
   2.889983e+01   8.158369e+01
  -1.012739e+02   1.206483e+02
  -1.896924e+02   7.131700e+01
  -1.592269e+02  -5.347071e+01
  -3.638054e+01  -1.578137e+02
   8.092095e+01  -1.583901e+02
   1.181189e+02  -6.996540e+01
   8.070009e+01   1.763035e+01
   2.742260e+01   3.941710e+01
   5.382217e+00   1.551091e+01
   1.582723e+01   1.087721e+01
   2.868478e+01   5.104230e+01
   1.517197e+01   9.176289e+01
  -2.923009e+01   7.200302e+01
  -7.704272e+01  -1.274416e+01
  -8.210704e+01  -9.762794e+01
  -2.025046e+01  -1.094114e+02
   7.063947e+01  -3.717486e+01
   1.076786e+02   5.847113e+01
   4.527511e+01   1.026571e+02
  -6.223888e+01   6.968025e+01
  -1.074187e+02  -4.702999e+00
  -4.966608e+01  -6.191455e+01
   3.491637e+01  -6.729446e+01
   4.488547e+01  -3.001506e+01
  -2.186641e+01   9.089352e+00
  -6.780875e+01   1.060190e+01
  -2.041623e+01  -2.838252e+01
   7.779418e+01  -6.571057e+01
   1.237875e+02  -5.081847e+01
   7.539079e+01   1.936503e+01
  -1.184938e+01   8.641083e+01
  -6.037031e+01   8.563077e+01
  -4.935629e+01   1.704362e+01
  -1.074899e+01  -5.031274e+01
   2.215711e+01  -5.141210e+01
   3.720282e+01   5.680130e+00
   3.012878e+01   5.352102e+01
   7.008385e-01   4.361978e+01
  -3.360783e+01  -2.834607e+00
  -4.348147e+01  -2.747241e+01
  -2.103308e+01  -6.774459e+00
   5.715484e+00   2.298713e+01
   6.644851e+00   1.453806e+01
  -9.702402e+00  -2.936633e+01
  -7.417949e+00  -5.700164e+01
   2.391446e+01  -2.977947e+01
   4.697241e+01   2.923316e+01
   2.143027e+01   5.907283e+01
  -3.776297e+01   2.900255e+01
  -6.650667e+01  -2.910433e+01
  -2.307191e+01  -5.876654e+01
   5.777417e+01  -3.784026e+01
   9.605457e+01   8.305582e+00
   5.244374e+01   4.241405e+01
  -2.810781e+01   4.858919e+01
  -6.555145e+01   3.258793e+01
  -3.151653e+01   8.405392e+00
   2.368524e+01  -6.641773e+00
   3.138253e+01   1.060715e+00
  -1.892532e+01   2.250456e+01
  -7.128226e+01   2.260784e+01
