
 $NMID
 id='ANONYMOUS ', fmtdat='(2E16.6)'
 volume=1.0
 tramp=1.0
 $END
  -4.666047e+03   2.948520e+01
  -2.706451e+03  -2.828915e+03
   8.396107e+02  -2.962060e+03
   2.307263e+03  -8.978987e+02
   9.965415e+02   7.840406e+02
  -7.621609e+02   6.513325e+02
  -9.912518e+02  -4.901394e+02
   1.388320e+01  -1.175427e+03
   9.106509e+02  -8.404620e+02
   1.016494e+03   1.215710e+02
   4.733229e+02   9.450260e+02
  -2.816128e+02   9.600569e+02
  -7.059615e+02   1.133444e+02
  -4.186136e+02  -7.879765e+02
   3.005009e+02  -8.095401e+02
   6.606748e+02   1.697387e+01
   2.831465e+02   7.383463e+02
  -3.630672e+02   6.679724e+02
  -6.267239e+02   7.578441e+01
  -4.012059e+02  -3.896079e+02
  -4.871481e+00  -4.672207e+02
   2.666195e+02  -2.787111e+02
   2.382899e+02  -1.230448e+01
  -1.106371e+02   1.089580e+02
  -4.387187e+02  -9.990379e+01
  -2.314144e+02  -4.570602e+02
   4.784156e+02  -4.578558e+02
   9.144642e+02   6.513649e+01
   4.747542e+02   5.936393e+02
  -4.165918e+02   5.377219e+02
  -8.065313e+02  -2.481943e+01
  -3.818216e+02  -5.167774e+02
   2.964839e+02  -5.614062e+02
   6.050804e+02  -2.206795e+02
   4.476052e+02   2.453560e+02
   7.464552e+01   5.157991e+02
  -2.255385e+02   3.109249e+02
  -2.038926e+02  -2.392576e+02
   1.687243e+02  -4.882080e+02
   4.927310e+02   3.592220e+00
   2.837412e+02   7.328083e+02
  -3.387457e+02   7.664840e+02
  -6.648486e+02   8.627268e+00
  -2.911116e+02  -6.060152e+02
   3.187938e+02  -3.571254e+02
   4.285827e+02   3.422613e+02
  -6.313102e+01   5.906946e+02
  -5.925393e+02   1.542058e+02
  -6.361835e+02  -4.276887e+02
  -1.770767e+02  -6.231371e+02
   4.082798e+02  -3.733144e+02
   6.721728e+02   7.636475e+01
   3.987157e+02   4.165461e+02
  -1.708875e+02   4.000031e+02
  -4.828613e+02   5.835117e+01
  -2.593821e+02  -2.242500e+02
   1.375584e+02  -1.245541e+02
   1.641886e+02   1.720028e+02
  -1.780190e+02   2.130910e+02
  -3.793564e+02  -7.806381e+01
  -1.528775e+02  -3.266518e+02
   2.201712e+02  -2.741237e+02
   3.462860e+02  -6.806569e+01
   1.955344e+02   8.929406e+01
  -2.911313e+01   2.200635e+02
  -2.196648e+02   3.321602e+02
  -3.450568e+02   2.357464e+02
  -3.113957e+02  -1.357813e+02
  -9.066162e+01  -4.637918e+02
   1.271410e+02  -4.126833e+02
   1.402513e+02  -1.134818e+02
   2.771526e+01   2.690508e+01
   3.216117e+01  -8.497648e+01
   1.929783e+02  -1.456533e+02
   2.947979e+02   4.244901e+01
   1.783203e+02   2.810547e+02
  -6.786356e+01   2.771850e+02
  -2.416184e+02   2.108414e+01
  -2.169636e+02  -2.479264e+02
   2.237272e+00  -3.132291e+02
   2.785238e+02  -1.318002e+02
   3.849173e+02   1.698739e+02
   2.012101e+02   3.717623e+02
  -1.068681e+02   3.278114e+02
  -2.450786e+02   1.251714e+02
  -1.596826e+02  -3.528582e+00
  -9.711247e+01   3.094270e+01
  -2.353308e+02   7.142517e+01
  -4.139113e+02  -5.152597e+01
  -3.482089e+02  -2.912707e+02
  -4.169460e+00  -4.596698e+02
   3.670758e+02  -4.330190e+02
   5.061711e+02  -2.159899e+02
   3.571753e+02   9.234580e+01
   6.493152e+01   3.111743e+02
  -1.377435e+02   2.732898e+02
  -9.542764e+01   3.200669e+01
   1.113433e+02  -1.227591e+02
   2.141093e+02  -1.199254e+00
   6.139010e+01   2.116026e+02
  -1.725986e+02   1.917409e+02
  -1.982468e+02  -6.178070e+01
   1.377829e+01  -2.107406e+02
   2.070083e+02  -4.123962e+01
   1.740810e+02   2.586322e+02
  -3.239679e+01   3.646193e+02
  -2.370441e+02   1.983711e+02
  -3.333821e+02  -6.449283e+01
  -2.878345e+02  -2.416852e+02
  -1.047231e+02  -2.699255e+02
   1.137607e+02  -1.698915e+02
   1.884404e+02  -2.589795e+01
   6.569719e+01   3.560220e+01
  -7.527704e+01  -3.565346e+01
  -3.715831e+01  -1.310616e+02
   1.275681e+02  -1.101230e+02
   1.908734e+02   8.938969e+00
   6.599902e+01   7.751565e+01
  -8.196529e+01   2.255367e+01
  -6.007174e+01  -7.157811e+01
   1.227323e+02  -8.953168e+01
   2.871411e+02  -4.395627e+00
   2.731082e+02   1.374052e+02
   6.923223e+01   2.609464e+02
  -1.842477e+02   2.755760e+02
  -2.951411e+02   1.387047e+02
  -1.830199e+02  -5.254577e+01
   2.290812e+01  -1.196947e+02
   9.905508e+01  -1.237714e+01
  -2.893510e+01   1.090137e+02
  -2.040150e+02   6.822899e+01
  -2.269946e+02  -1.037966e+02
  -7.660067e+01  -2.187959e+02
   9.734801e+01  -1.692093e+02
   1.526860e+02  -3.398866e+01
   7.831779e+01   4.314660e+01
  -2.544406e+01   7.675365e+00
  -4.061058e+01  -8.004754e+01
   6.794331e+01  -1.152856e+02
   2.008778e+02  -3.436570e+01
   2.004486e+02   1.230932e+02
   2.634795e+01   2.269530e+02
  -1.704821e+02   1.744208e+02
  -2.053742e+02   7.794707e+00
  -7.128427e+01  -1.221834e+02
   6.904509e+01  -1.199311e+02
   8.888721e+01  -3.401339e+01
   2.290708e+01   2.676900e+01
  -1.886813e+01   2.109354e+01
   1.038443e+01  -4.883952e+00
   6.952355e+01   1.063039e+01
   8.777601e+01   8.167499e+01
   1.737867e+01   1.587954e+02
  -1.248974e+02   1.572467e+02
  -2.387327e+02   3.189293e+01
  -2.111168e+02  -1.505088e+02
  -4.673678e+01  -2.461705e+02
   1.124271e+02  -1.788472e+02
   1.418364e+02  -2.876389e+01
   7.307796e+01   5.932853e+01
   2.890230e+01   3.831630e+01
   5.449976e+01  -1.246231e+01
   8.047802e+01  -6.971514e+00
   4.046949e+01   4.946160e+01
  -4.344992e+01   8.700381e+01
  -1.008524e+02   5.480825e+01
  -8.365841e+01  -3.406886e+01
   1.219493e+01  -1.093702e+02
   1.400860e+02  -8.841321e+01
   2.009547e+02   4.727716e+01
   1.084286e+02   2.032346e+02
  -1.029173e+02   2.374009e+02
  -2.734806e+02   1.048881e+02
  -2.690540e+02  -8.477223e+01
  -1.173157e+02  -1.826997e+02
   3.818538e+01  -1.542625e+02
   9.803788e+01  -8.866313e+01
   8.323813e+01  -7.237051e+01
   6.980473e+01  -9.352650e+01
   9.491514e+01  -7.590375e+01
   1.313783e+02   2.247144e+01
   1.218597e+02   1.575518e+02
   3.300596e+01   2.324138e+02
  -9.966850e+01   1.792938e+02
  -1.815036e+02   2.467718e+01
  -1.434828e+02  -1.229809e+02
  -2.319746e+01  -1.648316e+02
   6.682962e+01  -9.787366e+01
   6.128377e+01  -4.005531e+00
   6.909026e+00   4.168026e+01
  -7.456174e+00   3.519403e+01
   3.900321e+01   1.960966e+01
   8.056132e+01   2.376566e+01
   4.514315e+01   3.858299e+01
  -6.336699e+01   3.766187e+01
  -1.589548e+02   5.018251e+00
  -1.470516e+02  -4.922830e+01
  -1.935629e+01  -8.886580e+01
   1.205597e+02  -7.695219e+01
   1.487925e+02  -1.648419e+01
   5.081911e+01   3.986853e+01
  -6.152457e+01   3.775778e+01
  -7.762145e+01  -1.908798e+01
  -6.362098e+00  -6.920780e+01
   5.854388e+01  -5.841380e+01
   6.402909e+01   2.526730e+00
   4.314139e+01   5.102349e+01
   4.401212e+01   4.239784e+01
   6.399743e+01   2.003580e+00
   6.805938e+01   1.131212e-01
   3.486882e+01   6.825613e+01
  -3.370041e+01   1.481784e+02
  -1.165017e+02   1.445191e+02
  -1.649599e+02   3.506341e+01
  -1.255226e+02  -9.174274e+01
  -8.461403e+00  -1.278678e+02
   8.645170e+01  -6.219753e+01
   6.110264e+01   1.570313e+01
  -6.062180e+01   2.089995e+01
  -1.419750e+02  -4.383538e+01
  -7.969811e+01  -1.096231e+02
   8.123096e+01  -1.165000e+02
   1.957776e+02  -5.632820e+01
   1.682795e+02   3.201573e+01
   4.025435e+01   8.890417e+01
  -6.129291e+01   7.422688e+01
  -5.033317e+01   9.513881e+00
   3.922552e+01  -2.712003e+01
   9.257196e+01   2.291457e+01
   3.342730e+01   1.219147e+02
  -9.468485e+01   1.584834e+02
  -1.729022e+02   6.365350e+01
  -1.306497e+02  -1.037772e+02
  -1.095561e+01  -2.034155e+02
   8.723701e+01  -1.491498e+02
   1.074527e+02   5.184913e+00
   6.418396e+01   1.200406e+02
   1.105703e+00   1.099346e+02
  -4.579902e+01   2.210056e+01
  -5.482375e+01  -3.139867e+01
  -2.834624e+01  -8.855137e+00
  -3.520277e+00   2.170184e+01
  -1.941703e+01  -1.416203e+01
  -5.736018e+01  -9.007965e+01
  -4.576378e+01  -1.127045e+02
   4.604291e+01  -4.722631e+01
   1.425498e+02   3.997166e+01
   1.350724e+02   7.224229e+01
   1.819705e+01   5.019945e+01
  -9.142441e+01   2.261636e+01
  -9.092722e+01   8.801852e+00
  -9.941741e+00  -6.688748e+00
   4.018095e+01  -2.331950e+01
   1.338245e+01  -1.974216e+01
  -2.313007e+01   1.214737e+00
   6.452520e+00   9.938593e+00
   7.757284e+01   4.574279e+00
   9.356750e+01   2.444042e+01
   6.500786e+00   8.203008e+01
  -1.230096e+02   1.166765e+02
  -1.892413e+02   5.901928e+01
  -1.431653e+02  -7.014353e+01
  -2.574162e+01  -1.662513e+02
   8.002420e+01  -1.526707e+02
   1.161738e+02  -5.894137e+01
   8.259455e+01   2.220849e+01
   2.530388e+01   3.563662e+01
  -4.062726e+00   8.104577e+00
   9.752901e+00   3.276793e+00
   3.459806e+01   4.593346e+01
   2.456150e+01   9.176773e+01
  -2.958683e+01   7.336283e+01
  -8.360500e+01  -1.933686e+01
  -7.867192e+01  -1.118549e+02
  -2.859262e+00  -1.151604e+02
   8.563385e+01  -2.304252e+01
   1.051388e+02   7.888718e+01
   3.153780e+01   1.058981e+02
  -6.834381e+01   5.540978e+01
  -9.896872e+01  -1.271305e+01
  -3.889638e+01  -5.025453e+01
   3.310704e+01  -5.113307e+01
   3.023308e+01  -2.865069e+01
  -3.632764e+01  -4.178603e-01
  -7.105041e+01   6.627156e+00
  -1.464942e+01  -2.521357e+01
   8.091890e+01  -6.780390e+01
   1.168962e+02  -6.127887e+01
   6.382805e+01   1.110537e+01
  -1.634839e+01   8.451941e+01
  -5.301164e+01   8.053985e+01
  -3.633117e+01   4.457228e+00
  -5.858509e-01  -5.782975e+01
   2.664037e+01  -4.285358e+01
   3.721321e+01   2.014003e+01
   2.686543e+01   5.517387e+01
  -3.245102e+00   3.226135e+01
  -3.383175e+01  -9.319979e+00
  -4.011467e+01  -2.061038e+01
  -2.097205e+01  -3.615106e-01
   1.340903e-01   1.339691e+01
   6.903578e+00  -5.175680e+00
   8.517920e+00  -3.832319e+01
   1.965285e+01  -4.438456e+01
   3.401187e+01  -5.359606e+00
   2.913010e+01   4.784416e+01
  -4.713043e+00   6.260713e+01
  -4.639183e+01   2.015404e+01
  -5.667196e+01  -4.122886e+01
  -1.396282e+01  -6.499020e+01
   5.564050e+01  -3.438590e+01
   8.994152e+01   1.644457e+01
   4.984465e+01   4.510574e+01
  -2.945284e+01   4.075353e+01
  -6.610668e+01   2.063051e+01
  -2.387690e+01   4.530005e+00
   3.971531e+01   3.163349e+00
   3.939972e+01   1.768570e+01
  -3.267095e+01   3.309100e+01
  -9.552432e+01   2.011155e+01
