
 $NMID
 id='ANONYMOUS ', fmtdat='(2E16.6)'
 volume=1.0
 tramp=1.0
 $END
   4.652052e+03  -2.765193e+00
   2.656694e+03   2.823618e+03
  -8.633070e+02   2.910314e+03
  -2.271514e+03   8.495069e+02
  -9.384814e+02  -7.827185e+02
   7.872618e+02  -6.137897e+02
   9.749613e+02   5.173281e+02
  -3.794023e+01   1.171134e+03
  -9.150920e+02   8.208782e+02
  -1.002284e+03  -1.333291e+02
  -4.554470e+02  -9.401256e+02
   2.902398e+02  -9.426565e+02
   7.001665e+02  -9.571844e+01
   4.050780e+02   7.921124e+02
  -3.066782e+02   7.992575e+02
  -6.532252e+02  -2.546188e+01
  -2.745464e+02  -7.313043e+02
   3.578028e+02  -6.529493e+02
   6.105642e+02  -7.036581e+01
   3.890061e+02   3.818969e+02
   2.384168e+00   4.569870e+02
  -2.649535e+02   2.713849e+02
  -2.345734e+02   4.091211e+00
   1.197984e+02  -1.168809e+02
   4.495931e+02   1.006962e+02
   2.332835e+02   4.667665e+02
  -4.866232e+02   4.641799e+02
  -9.198502e+02  -6.984906e+01
  -4.682246e+02  -6.015240e+02
   4.280778e+02  -5.379932e+02
   8.113476e+02   3.119159e+01
   3.788779e+02   5.216947e+02
  -3.002190e+02   5.616968e+02
  -6.051416e+02   2.188286e+02
  -4.437170e+02  -2.465393e+02
  -6.799983e+01  -5.131312e+02
   2.303389e+02  -3.013863e+02
   1.999250e+02   2.516075e+02
  -1.808612e+02   4.920011e+02
  -5.014398e+02  -1.270944e+01
  -2.803167e+02  -7.430520e+02
   3.472525e+02  -7.640443e+02
   6.649261e+02   3.249367e+00
   2.814111e+02   6.120050e+02
  -3.272687e+02   3.513813e+02
  -4.289408e+02  -3.504389e+02
   6.660958e+01  -5.927386e+02
   5.938875e+02  -1.529436e+02
   6.352904e+02   4.261543e+02
   1.761129e+02   6.190708e+02
  -4.082656e+02   3.703892e+02
  -6.691974e+02  -7.682731e+01
  -3.916237e+02  -4.141338e+02
   1.767536e+02  -3.939601e+02
   4.795806e+02  -5.181534e+01
   2.488884e+02   2.246508e+02
  -1.431884e+02   1.179706e+02
  -1.592417e+02  -1.773544e+02
   1.844188e+02  -2.111316e+02
   3.776675e+02   8.231137e+01
   1.480389e+02   3.257790e+02
  -2.176483e+02   2.708810e+02
  -3.384208e+02   7.061146e+01
  -1.944372e+02  -8.163710e+01
   1.999554e+01  -2.165624e+02
   2.103267e+02  -3.363719e+02
   3.434486e+02  -2.408862e+02
   3.135035e+02   1.349719e+02
   9.013414e+01   4.631020e+02
  -1.280888e+02   4.069037e+02
  -1.359683e+02   1.062050e+02
  -1.962588e+01  -2.807065e+01
  -2.725084e+01   9.070056e+01
  -1.942346e+02   1.519226e+02
  -2.986608e+02  -4.040891e+01
  -1.804600e+02  -2.823426e+02
   6.855730e+01  -2.789114e+02
   2.440973e+02  -2.186295e+01
   2.194858e+02   2.483346e+02
  -1.431504e+00   3.146341e+02
  -2.794614e+02   1.334352e+02
  -3.854493e+02  -1.683724e+02
  -2.003484e+02  -3.694513e+02
   1.065738e+02  -3.241617e+02
   2.410111e+02  -1.220222e+02
   1.535272e+02   3.559763e+00
   9.280366e+01  -3.449122e+01
   2.339668e+02  -7.706197e+01
   4.140623e+02   4.529701e+01
   3.500566e+02   2.861532e+02
   9.111837e+00   4.581538e+02
  -3.606943e+02   4.357979e+02
  -5.024937e+02   2.197550e+02
  -3.571955e+02  -9.129262e+01
  -6.541149e+01  -3.117014e+02
   1.385916e+02  -2.714023e+02
   9.529608e+01  -2.771327e+01
  -1.139085e+02   1.249258e+02
  -2.161789e+02  -6.469970e-01
  -6.013912e+01  -2.135864e+02
   1.750976e+02  -1.903983e+02
   1.983411e+02   6.442156e+01
  -1.568370e+01   2.114634e+02
  -2.081562e+02   4.138217e+01
  -1.749028e+02  -2.561753e+02
   2.909843e+01  -3.617598e+02
   2.319422e+02  -1.999873e+02
   3.309893e+02   5.821854e+01
   2.901560e+02   2.362574e+02
   1.084358e+02   2.691311e+02
  -1.122771e+02   1.714847e+02
  -1.885134e+02   2.611213e+01
  -6.479716e+01  -3.675693e+01
   7.717269e+01   3.549378e+01
   3.815701e+01   1.324259e+02
  -1.279535e+02   1.114274e+02
  -1.913739e+02  -8.877379e+00
  -6.565719e+01  -7.862163e+01
   8.325450e+01  -2.406051e+01
   6.228615e+01   7.123304e+01
  -1.202520e+02   9.212495e+01
  -2.862636e+02   9.498395e+00
  -2.751540e+02  -1.332190e+02
  -7.293447e+01  -2.606211e+02
   1.814818e+02  -2.780264e+02
   2.941737e+02  -1.404810e+02
   1.826177e+02   5.276067e+01
  -2.369738e+01   1.202100e+02
  -9.980921e+01   1.164602e+01
   2.871630e+01  -1.105801e+02
   2.041080e+02  -6.972063e+01
   2.272499e+02   1.025481e+02
   7.720677e+01   2.179527e+02
  -9.670572e+01   1.691710e+02
  -1.526327e+02   3.422045e+01
  -7.837947e+01  -4.397990e+01
   2.672153e+01  -9.542198e+00
   4.350728e+01   7.922993e+01
  -6.519688e+01   1.171191e+02
  -2.000942e+02   3.777803e+01
  -2.015732e+02  -1.204929e+02
  -2.819273e+01  -2.261824e+02
   1.686853e+02  -1.747708e+02
   2.039969e+02  -8.347207e+00
   7.080596e+01   1.218191e+02
  -6.869173e+01   1.198349e+02
  -8.868512e+01   3.383226e+01
  -2.332447e+01  -2.771286e+01
   1.892717e+01  -2.258525e+01
  -8.903134e+00   4.523779e+00
  -6.796141e+01  -8.593391e+00
  -8.851613e+01  -7.854464e+01
  -2.057490e+01  -1.574311e+02
   1.217734e+02  -1.589016e+02
   2.378762e+02  -3.516511e+01
   2.123191e+02   1.476488e+02
   4.860657e+01   2.445787e+02
  -1.106659e+02   1.785256e+02
  -1.404240e+02   2.951987e+01
  -7.226745e+01  -5.812373e+01
  -2.847867e+01  -3.747099e+01
  -5.375414e+01   1.312245e+01
  -7.961481e+01   8.455486e+00
  -4.104784e+01  -4.734068e+01
   4.073417e+01  -8.631915e+01
   9.806857e+01  -5.693181e+01
   8.372901e+01   3.095224e+01
  -9.185702e+00   1.086503e+02
  -1.372684e+02   9.111770e+01
  -2.011433e+02  -4.358019e+01
  -1.113440e+02  -2.015941e+02
   9.963179e+01  -2.386412e+02
   2.716263e+02  -1.076939e+02
   2.688783e+02   8.212435e+01
   1.182124e+02   1.812159e+02
  -3.692646e+01   1.539711e+02
  -9.686171e+01   8.876655e+01
  -8.203780e+01   7.202932e+01
  -6.815499e+01   9.292008e+01
  -9.299059e+01   7.618062e+01
  -1.303350e+02  -2.061998e+01
  -1.227569e+02  -1.549413e+02
  -3.544814e+01  -2.306931e+02
   9.737589e+01  -1.794531e+02
   1.808371e+02  -2.633260e+01
   1.445398e+02   1.212054e+02
   2.483688e+01   1.643138e+02
  -6.601671e+01   9.884761e+01
  -6.193789e+01   5.184942e+00
  -8.380761e+00  -4.177049e+01
   6.554921e+00  -3.627918e+01
  -3.863995e+01  -1.984381e+01
  -7.976749e+01  -2.235528e+01
  -4.531245e+01  -3.732475e+01
   6.204472e+01  -3.881241e+01
   1.578431e+02  -8.174570e+00
   1.475360e+02   4.683835e+01
   2.131562e+01   8.908432e+01
  -1.185917e+02   7.891947e+01
  -1.481979e+02   1.827955e+01
  -5.174766e+01  -3.914467e+01
   6.015622e+01  -3.805801e+01
   7.717319e+01   1.789656e+01
   7.308602e+00   6.764310e+01
  -5.700981e+01   5.775189e+01
  -6.312793e+01  -1.439541e+00
  -4.319147e+01  -4.906562e+01
  -4.421452e+01  -4.119058e+01
  -6.364288e+01  -1.725714e+00
  -6.763293e+01   5.907040e-01
  -3.560885e+01  -6.653217e+01
   3.127976e+01  -1.468923e+02
   1.134076e+02  -1.454761e+02
   1.630058e+02  -3.802952e+01
   1.258382e+02   8.894900e+01
   1.054319e+01   1.270610e+02
  -8.434680e+01   6.313030e+01
  -6.045462e+01  -1.477483e+01
   5.991885e+01  -2.135833e+01
   1.413870e+02   4.222792e+01
   8.041668e+01   1.083864e+02
  -7.953399e+01   1.169162e+02
  -1.944401e+02   5.817003e+01
  -1.681548e+02  -3.022929e+01
  -4.099501e+01  -8.839435e+01
   6.067772e+01  -7.485145e+01
   5.055666e+01  -1.015513e+01
  -3.827202e+01   2.740639e+01
  -9.187149e+01  -2.156890e+01
  -3.419484e+01  -1.201411e+02
   9.228662e+01  -1.573888e+02
   1.704329e+02  -6.420748e+01
   1.301227e+02   1.017224e+02
   1.262603e+01   2.014188e+02
  -8.527917e+01   1.488406e+02
  -1.071269e+02  -3.893924e+00
  -6.537809e+01  -1.188585e+02
  -2.271275e+00  -1.101083e+02
   4.554374e+01  -2.302581e+01
   5.500379e+01   3.105662e+01
   2.832819e+01   9.210140e+00
   3.451133e+00  -2.180143e+01
   1.972647e+01   1.294910e+01
   5.803909e+01   8.858371e+01
   4.655546e+01   1.122449e+02
  -4.522085e+01   4.817038e+01
  -1.418282e+02  -3.832787e+01
  -1.349084e+02  -7.079807e+01
  -1.888890e+01  -4.949232e+01
   9.035199e+01  -2.281388e+01
   9.035360e+01  -9.643698e+00
   1.014580e+01   5.927681e+00
  -3.977674e+01   2.328763e+01
  -1.337983e+01   2.027292e+01
   2.288305e+01  -9.011395e-01
  -6.296801e+00  -1.008680e+01
  -7.679476e+01  -4.375360e+00
  -9.291423e+01  -2.312517e+01
  -7.164353e+00  -8.025531e+01
   1.206437e+02  -1.161841e+02
   1.863898e+02  -6.072993e+01
   1.418914e+02   6.727361e+01
   2.705733e+01   1.641809e+02
  -7.721751e+01   1.523683e+02
  -1.139653e+02   5.983893e+01
  -8.200048e+01  -2.115297e+01
  -2.568059e+01  -3.488983e+01
   3.704744e+00  -7.566365e+00
  -9.987310e+00  -2.760513e+00
  -3.518229e+01  -4.533915e+01
  -2.559929e+01  -9.113988e+01
   2.850859e+01  -7.312209e+01
   8.293144e+01   1.853042e+01
   7.870557e+01   1.099817e+02
   3.777520e+00   1.134505e+02
  -8.417977e+01   2.304821e+01
  -1.042772e+02  -7.707602e+01
  -3.226488e+01  -1.040492e+02
   6.652111e+01  -5.534156e+01
   9.784147e+01   1.110276e+01
   3.959689e+01   4.872965e+01
  -3.144517e+01   5.100654e+01
  -2.939315e+01   2.943994e+01
   3.577296e+01   7.444030e-01
   7.024108e+01  -7.249032e+00
   1.491392e+01   2.452396e+01
  -7.955310e+01   6.812163e+01
  -1.155762e+02   6.265130e+01
  -6.367725e+01  -9.601410e+00
   1.514335e+01  -8.379549e+01
   5.126422e+01  -8.080292e+01
   3.524440e+01  -5.310912e+00
   8.249176e-01   5.697194e+01
  -2.555712e+01   4.251958e+01
  -3.649271e+01  -1.969186e+01
  -2.720688e+01  -5.426013e+01
   2.350066e+00  -3.171807e+01
   3.337359e+01   8.916105e+00
   4.031078e+01   1.971120e+01
   2.109641e+01   2.085357e-02
  -6.689895e-01  -1.291399e+01
  -7.688138e+00   5.443638e+00
  -8.606454e+00   3.738660e+01
  -1.869495e+01   4.286987e+01
  -3.267047e+01   4.976918e+00
  -2.841134e+01  -4.650041e+01
   4.382079e+00  -6.099598e+01
   4.546142e+01  -2.005644e+01
   5.603838e+01   3.988946e+01
   1.425154e+01   6.394175e+01
  -5.457616e+01   3.484207e+01
  -8.895672e+01  -1.502288e+01
  -4.983367e+01  -4.403559e+01
   2.836746e+01  -4.062366e+01
   6.476850e+01  -2.110301e+01
   2.335523e+01  -5.088748e+00
  -3.917173e+01  -3.501034e+00
  -3.862852e+01  -1.762329e+01
   3.264543e+01  -3.271851e+01
   9.466859e+01  -1.998006e+01
