
 $NMID
 id='ANONYMOUS ', fmtdat='(2E16.6)'
 volume=1.0
 tramp=1.0
 $END
   4.178663e+03  -2.904082e+01
   2.513634e+03   2.377865e+03
  -5.071596e+02   2.612098e+03
  -1.877176e+03   1.033544e+03
  -9.455567e+02  -3.857960e+02
   4.748514e+02  -4.492525e+02
   7.481219e+02   3.617347e+02
   3.869235e-01   9.436022e+02
  -7.395116e+02   7.435564e+02
  -8.754692e+02  -3.975831e+01
  -4.593265e+02  -7.787958e+02
   1.688035e+02  -8.407670e+02
   5.508231e+02  -1.351105e+02
   3.529274e+02   6.546618e+02
  -2.290821e+02   7.124719e+02
  -5.641788e+02   2.101908e+01
  -2.959835e+02  -6.418771e+02
   2.597903e+02  -6.536429e+02
   5.579263e+02  -1.613489e+02
   4.190514e+02   2.977173e+02
   6.014639e+01   4.237555e+02
  -2.085722e+02   2.674497e+02
  -1.719590e+02   3.359254e+01
   1.507596e+02  -3.769054e+01
   3.958567e+02   1.702191e+02
   1.436328e+02   4.372130e+02
  -4.905831e+02   3.611271e+02
  -8.169533e+02  -1.116226e+02
  -3.824189e+02  -5.174229e+02
   3.951876e+02  -4.189168e+02
   7.072560e+02   6.748518e+01
   3.146071e+02   4.679027e+02
  -2.877173e+02   4.922195e+02
  -5.557475e+02   1.928989e+02
  -4.054571e+02  -2.126669e+02
  -7.836893e+01  -4.407394e+02
   1.541238e+02  -2.586468e+02
   1.087440e+02   1.961329e+02
  -1.854588e+02   3.723844e+02
  -3.967881e+02  -6.429570e+01
  -1.855433e+02  -6.612358e+02
   3.119739e+02  -6.533173e+02
   5.437882e+02   1.015320e+00
   2.247566e+02   5.059860e+02
  -2.639827e+02   2.747651e+02
  -3.397532e+02  -3.258334e+02
   8.245818e+01  -5.251979e+02
   5.457778e+02  -1.229743e+02
   5.926735e+02   4.063350e+02
   1.775066e+02   5.791176e+02
  -3.692298e+02   3.399955e+02
  -6.219978e+02  -6.633262e+01
  -3.804662e+02  -3.523702e+02
   1.266696e+02  -3.343199e+02
   4.107376e+02  -6.771491e+01
   2.388493e+02   1.478766e+02
  -8.654892e+01   8.058763e+01
  -1.177078e+02  -1.298444e+02
   1.547739e+02  -1.550778e+02
   3.252342e+02   6.803801e+01
   1.430033e+02   2.770124e+02
  -1.913545e+02   2.676536e+02
  -3.431686e+02   1.042423e+02
  -2.286220e+02  -8.385341e+01
   1.396712e+01  -2.630139e+02
   2.421629e+02  -3.610252e+02
   3.589752e+02  -2.196608e+02
   2.908386e+02   1.465074e+02
   7.907727e+01   4.302632e+02
  -9.019977e+01   3.778451e+02
  -8.907589e+01   1.328926e+02
  -2.164381e+01   2.580267e+01
  -6.999279e+01   1.065615e+02
  -2.213991e+02   1.205541e+02
  -2.843007e+02  -7.096464e+01
  -1.507940e+02  -2.780210e+02
   7.951888e+01  -2.511854e+02
   2.289010e+02   1.459993e+00
   1.927887e+02   2.508441e+02
  -1.792586e+01   2.956766e+02
  -2.716711e+02   1.100207e+02
  -3.635797e+02  -1.701850e+02
  -1.941900e+02  -3.456677e+02
   8.351931e+01  -3.061601e+02
   2.126716e+02  -1.382661e+02
   1.511048e+02  -3.205779e+01
   1.152937e+02  -5.216358e+01
   2.564584e+02  -6.739507e+01
   4.229570e+02   6.053807e+01
   3.489939e+02   2.922672e+02
   1.373069e+00   4.593791e+02
  -3.710090e+02   4.337791e+02
  -5.007166e+02   2.115271e+02
  -3.368398e+02  -9.406698e+01
  -5.025860e+01  -2.935484e+02
   1.216290e+02  -2.467953e+02
   6.249067e+01  -3.057266e+01
  -1.185826e+02   9.467023e+01
  -1.865789e+02  -1.557428e+01
  -4.071995e+01  -1.893057e+02
   1.549757e+02  -1.595791e+02
   1.664155e+02   6.101980e+01
  -2.093523e+01   1.833839e+02
  -1.937586e+02   2.668490e+01
  -1.714892e+02  -2.505335e+02
   2.140779e+01  -3.604924e+02
   2.371985e+02  -2.107995e+02
   3.492578e+02   5.491635e+01
   2.956251e+02   2.479968e+02
   9.494406e+01   2.769728e+02
  -1.201081e+02   1.641813e+02
  -1.771160e+02   1.953580e+01
  -5.350382e+01  -2.830501e+01
   6.937574e+01   4.674809e+01
   2.273810e+01   1.283227e+02
  -1.289977e+02   9.668414e+01
  -1.774822e+02  -1.553211e+01
  -5.294331e+01  -7.082486e+01
   8.558284e+01  -1.043055e+01
   5.549084e+01   8.192772e+01
  -1.335033e+02   9.505652e+01
  -2.996389e+02   1.147789e+00
  -2.764590e+02  -1.483899e+02
  -5.918178e+01  -2.675861e+02
   1.938894e+02  -2.686428e+02
   2.890475e+02  -1.280037e+02
   1.679362e+02   5.011664e+01
  -2.671370e+01   1.056308e+02
  -8.743719e+01   5.011207e+00
   3.917129e+01  -1.014192e+02
   2.005212e+02  -5.785419e+01
   2.166447e+02   1.035285e+02
   7.162689e+01   2.093126e+02
  -9.417794e+01   1.593641e+02
  -1.442044e+02   2.860372e+01
  -6.665488e+01  -4.178611e+01
   3.497069e+01   2.303311e+00
   3.986582e+01   9.390291e+01
  -7.843961e+01   1.221964e+02
  -2.093727e+02   3.104485e+01
  -1.996434e+02  -1.270082e+02
  -2.368343e+01  -2.235899e+02
   1.652851e+02  -1.697409e+02
   1.952843e+02  -1.130327e+01
   6.622144e+01   1.123055e+02
  -6.631406e+01   1.123434e+02
  -8.234295e+01   3.110581e+01
  -1.460738e+01  -2.756624e+01
   2.734763e+01  -1.815192e+01
  -8.186190e+00   1.380499e+01
  -7.797055e+01  -2.484367e+00
  -9.924432e+01  -8.393113e+01
  -1.989011e+01  -1.687866e+02
   1.313502e+02  -1.624719e+02
   2.436789e+02  -2.846646e+01
   2.105816e+02   1.533412e+02
   4.739122e+01   2.424343e+02
  -1.071460e+02   1.751763e+02
  -1.379325e+02   3.227674e+01
  -7.466154e+01  -5.218919e+01
  -3.158124e+01  -3.397708e+01
  -5.544864e+01   1.481721e+01
  -8.472818e+01   9.516179e+00
  -4.965794e+01  -5.148241e+01
   3.921172e+01  -9.739212e+01
   1.096065e+02  -6.535366e+01
   9.664857e+01   3.535232e+01
  -1.053236e+01   1.207174e+02
  -1.504755e+02   9.571811e+01
  -2.090521e+02  -5.113275e+01
  -1.054954e+02  -2.104072e+02
   1.100736e+02  -2.386924e+02
   2.750738e+02  -1.021099e+02
   2.651646e+02   8.466732e+01
   1.141500e+02   1.787302e+02
  -3.753488e+01   1.507116e+02
  -9.425389e+01   8.773054e+01
  -7.735999e+01   7.325049e+01
  -6.385617e+01   9.616026e+01
  -9.251867e+01   8.055553e+01
  -1.338379e+02  -1.798336e+01
  -1.259934e+02  -1.559659e+02
  -3.545675e+01  -2.330088e+02
   9.856130e+01  -1.789796e+02
   1.800462e+02  -2.252630e+01
   1.415104e+02   1.248880e+02
   2.057541e+01   1.643396e+02
  -7.072954e+01   9.426792e+01
  -6.419234e+01  -2.235442e+00
  -4.289896e+00  -4.812293e+01
   1.492346e+01  -3.773552e+01
  -3.455542e+01  -1.667027e+01
  -8.365953e+01  -1.947392e+01
  -4.900061e+01  -3.849003e+01
   6.758153e+01  -4.146348e+01
   1.683044e+02  -6.821299e+00
   1.505225e+02   5.305763e+01
   1.383294e+01   9.527683e+01
  -1.270412e+02   8.047310e+01
  -1.502970e+02   1.508243e+01
  -5.053811e+01  -4.433135e+01
   6.054444e+01  -4.227747e+01
   7.948662e+01   1.713241e+01
   1.384965e+01   7.118054e+01
  -5.223671e+01   6.304143e+01
  -6.675159e+01   1.454398e+00
  -5.133044e+01  -4.959370e+01
  -4.753187e+01  -4.219834e+01
  -6.138930e+01  -1.118804e+00
  -6.791917e+01   8.071244e-01
  -4.147952e+01  -6.967507e+01
   2.752039e+01  -1.529170e+02
   1.188693e+02  -1.509501e+02
   1.737219e+02  -4.002247e+01
   1.322173e+02   9.126809e+01
   9.264777e+00   1.325665e+02
  -8.856571e+01   6.881627e+01
  -6.263377e+01  -1.225586e+01
   6.003241e+01  -2.236042e+01
   1.414942e+02   4.082655e+01
   7.924176e+01   1.087351e+02
  -8.142161e+01   1.171050e+02
  -1.954765e+02   5.579287e+01
  -1.671182e+02  -3.338736e+01
  -3.841553e+01  -8.843091e+01
   6.279028e+01  -7.131244e+01
   5.094104e+01  -6.078052e+00
  -3.929998e+01   3.025412e+01
  -9.439735e+01  -1.949381e+01
  -3.930125e+01  -1.197445e+02
   8.565003e+01  -1.609790e+02
   1.667855e+02  -7.080706e+01
   1.324768e+02   9.692616e+01
   1.765875e+01   2.008480e+02
  -8.325939e+01   1.493212e+02
  -1.080940e+02  -5.650839e+00
  -6.402760e+01  -1.210601e+02
   2.935525e+00  -1.095141e+02
   4.899961e+01  -2.075841e+01
   5.238956e+01   3.165428e+01
   2.395120e+01   8.557051e+00
   4.392055e+00  -2.049715e+01
   2.524167e+01   1.609312e+01
   6.052946e+01   8.995735e+01
   4.269558e+01   1.109799e+02
  -5.014095e+01   4.767627e+01
  -1.424014e+02  -3.642136e+01
  -1.332490e+02  -6.968921e+01
  -1.998502e+01  -5.175224e+01
   8.724768e+01  -2.574916e+01
   9.031216e+01  -9.475088e+00
   1.379527e+01   8.068929e+00
  -3.785114e+01   2.339337e+01
  -1.620307e+01   1.784661e+01
   1.968031e+01  -2.339217e+00
  -4.931063e+00  -8.331577e+00
  -7.366114e+01  -1.097019e+00
  -9.507766e+01  -2.121663e+01
  -1.515988e+01  -8.142715e+01
   1.148793e+02  -1.210135e+02
   1.893348e+02  -6.801591e+01
   1.503023e+02   6.159334e+01
   3.282581e+01   1.644013e+02
  -7.706378e+01   1.580833e+02
  -1.159659e+02   6.582637e+01
  -8.325887e+01  -1.915971e+01
  -2.729912e+01  -3.639568e+01
   7.323214e-01  -9.953206e+00
  -1.213846e+01  -4.968577e+00
  -3.466937e+01  -4.740276e+01
  -2.436398e+01  -9.268515e+01
   2.805870e+01  -7.449518e+01
   8.273022e+01   1.589457e+01
   8.256132e+01   1.067783e+02
   1.054479e+01   1.137335e+02
  -8.084280e+01   2.875752e+01
  -1.079015e+02  -7.101948e+01
  -3.837608e+01  -1.045893e+02
   6.515498e+01  -6.157861e+01
   1.024254e+02   7.581056e+00
   4.437302e+01   5.267713e+01
  -3.185176e+01   5.736328e+01
  -3.407867e+01   3.091980e+01
   3.198170e+01  -2.482067e+00
   7.050665e+01  -9.458255e+00
   1.730364e+01   2.574397e+01
  -7.932698e+01   6.978622e+01
  -1.192596e+02   6.217602e+01
  -6.865427e+01  -1.143240e+01
   1.300356e+01  -8.617394e+01
   5.347624e+01  -8.464732e+01
   3.975780e+01  -9.812310e+00
   4.602899e+00   5.569845e+01
  -2.408811e+01   4.625814e+01
  -3.733648e+01  -1.519685e+01
  -2.940391e+01  -5.445494e+01
   7.018446e-01  -3.581654e+01
   3.402011e+01   6.691421e+00
   4.243428e+01   2.166983e+01
   2.158118e+01   1.721109e+00
  -2.628640e+00  -1.605088e+01
  -7.849778e+00  -3.911274e-01
  -2.802739e+00   3.534061e+01
  -1.013891e+01   4.759167e+01
  -2.996367e+01   1.287766e+01
  -3.486313e+01  -4.121927e+01
  -4.268073e+00  -6.095802e+01
   4.339207e+01  -2.365741e+01
   6.055088e+01   3.618387e+01
   1.806789e+01   6.304220e+01
  -5.583973e+01   3.728183e+01
  -9.269845e+01  -1.166820e+01
  -5.213614e+01  -4.343464e+01
   2.794389e+01  -4.416379e+01
   6.551243e+01  -2.598167e+01
   2.605864e+01  -6.727523e+00
  -3.499893e+01  -2.076918e-01
  -3.701981e+01  -1.246217e+01
   2.875527e+01  -3.041740e+01
   8.883778e+01  -2.212343e+01
