
 $NMID
 id='ANONYMOUS ', fmtdat='(2E16.6)'
 volume=1.0
 tramp=1.0
 $END
  -4.573107e+03   5.827550e+01
  -2.679455e+03  -2.768718e+03
   8.103773e+02  -2.929640e+03
   2.281429e+03  -9.009370e+02
   1.005073e+03   7.786525e+02
  -7.401028e+02   6.650965e+02
  -9.862251e+02  -4.658536e+02
  -2.109568e+00  -1.157351e+03
   8.894063e+02  -8.359483e+02
   1.003928e+03   1.125951e+02
   4.739308e+02   9.286773e+02
  -2.716341e+02   9.501634e+02
  -6.970396e+02   1.208036e+02
  -4.202119e+02  -7.698379e+02
   2.899413e+02  -7.990192e+02
   6.516015e+02   1.164947e+01
   2.820864e+02   7.260131e+02
  -3.586111e+02   6.600764e+02
  -6.214194e+02   7.488284e+01
  -3.974849e+02  -3.861075e+02
  -5.136084e+00  -4.621690e+02
   2.621541e+02  -2.765845e+02
   2.368881e+02  -1.602975e+01
  -1.009179e+02   1.056411e+02
  -4.239877e+02  -9.225336e+01
  -2.299070e+02  -4.402863e+02
   4.596444e+02  -4.486430e+02
   8.924394e+02   5.583709e+01
   4.718459e+02   5.759183e+02
  -3.989911e+02   5.302844e+02
  -7.875542e+02  -1.626570e+01
  -3.781262e+02  -5.016689e+02
   2.853204e+02  -5.507134e+02
   5.907124e+02  -2.191712e+02
   4.406278e+02   2.382841e+02
   7.767773e+01   5.067992e+02
  -2.193382e+02   3.107778e+02
  -2.056627e+02  -2.279541e+02
   1.557242e+02  -4.792890e+02
   4.797375e+02  -5.541130e+00
   2.849721e+02   7.106985e+02
  -3.241531e+02   7.539409e+02
  -6.528420e+02   1.715314e+01
  -2.934916e+02  -5.906276e+02
   3.073884e+02  -3.555023e+02
   4.223554e+02   3.284359e+02
  -5.683154e+01   5.773830e+02
  -5.779547e+02   1.542435e+02
  -6.234430e+02  -4.160935e+02
  -1.750551e+02  -6.103120e+02
   3.981046e+02  -3.679464e+02
   6.586526e+02   7.229046e+01
   3.941626e+02   4.084133e+02
  -1.640508e+02   3.961632e+02
  -4.749575e+02   6.138807e+01
  -2.596433e+02  -2.207223e+02
   1.329554e+02  -1.270927e+02
   1.650891e+02   1.661121e+02
  -1.704250e+02   2.117293e+02
  -3.730035e+02  -7.301611e+01
  -1.529098e+02  -3.202698e+02
   2.160637e+02  -2.696637e+02
   3.411644e+02  -6.455793e+01
   1.898174e+02   9.044074e+01
  -3.292425e+01   2.142849e+02
  -2.165512e+02   3.208073e+02
  -3.354458e+02   2.288733e+02
  -3.035789e+02  -1.311085e+02
  -9.066553e+01  -4.532305e+02
   1.235830e+02  -4.068505e+02
   1.406735e+02  -1.138393e+02
   3.147647e+01   2.787018e+01
   3.184281e+01  -7.898813e+01
   1.855356e+02  -1.404392e+02
   2.857518e+02   4.010009e+01
   1.747668e+02   2.725919e+02
  -6.427233e+01   2.704665e+02
  -2.345473e+02   2.196948e+01
  -2.119440e+02  -2.403783e+02
   8.190909e-01  -3.051323e+02
   2.706350e+02  -1.294522e+02
   3.761361e+02   1.648786e+02
   1.979817e+02   3.637186e+02
  -1.041541e+02   3.224497e+02
  -2.417770e+02   1.237610e+02
  -1.590472e+02  -4.465948e+00
  -9.585553e+01   2.771060e+01
  -2.286973e+02   6.767315e+01
  -4.028059e+02  -5.153930e+01
  -3.391409e+02  -2.850445e+02
  -3.236737e+00  -4.484468e+02
   3.590950e+02  -4.215235e+02
   4.943437e+02  -2.103631e+02
   3.490692e+02   8.917667e+01
   6.471065e+01   3.033523e+02
  -1.335046e+02   2.687747e+02
  -9.436741e+01   3.374868e+01
   1.063885e+02  -1.200875e+02
   2.086945e+02  -3.589012e+00
   6.207162e+01   2.058575e+02
  -1.669550e+02   1.894483e+02
  -1.946594e+02  -5.818057e+01
   1.140885e+01  -2.061432e+02
   2.014735e+02  -4.144799e+01
   1.701188e+02   2.529031e+02
  -3.247835e+01   3.568570e+02
  -2.327741e+02   1.926253e+02
  -3.254129e+02  -6.529653e+01
  -2.796181e+02  -2.368795e+02
  -1.014575e+02  -2.626146e+02
   1.106846e+02  -1.652904e+02
   1.839040e+02  -2.604063e+01
   6.510793e+01   3.418682e+01
  -7.273251e+01  -3.405173e+01
  -3.677175e+01  -1.269424e+02
   1.236033e+02  -1.076210e+02
   1.862670e+02   7.790923e+00
   6.529912e+01   7.500332e+01
  -7.893112e+01   2.201907e+01
  -5.782519e+01  -6.921864e+01
   1.200065e+02  -8.604640e+01
   2.795223e+02  -2.806557e+00
   2.652590e+02   1.345294e+02
   6.687949e+01   2.537702e+02
  -1.794778e+02   2.680758e+02
  -2.877317e+02   1.356662e+02
  -1.793027e+02  -5.054905e+01
   2.132965e+01  -1.170156e+02
   9.656320e+01  -1.309396e+01
  -2.746200e+01   1.058094e+02
  -1.985676e+02   6.684881e+01
  -2.217584e+02  -1.009615e+02
  -7.526227e+01  -2.136789e+02
   9.469922e+01  -1.655860e+02
   1.489922e+02  -3.374553e+01
   7.691133e+01   4.138972e+01
  -2.367738e+01   7.056822e+00
  -3.838170e+01  -7.761757e+01
   6.670706e+01  -1.112665e+02
   1.955386e+02  -3.256464e+01
   1.951016e+02   1.203469e+02
   2.561438e+01   2.214840e+02
  -1.665859e+02   1.704824e+02
  -2.011414e+02   7.854067e+00
  -7.031125e+01  -1.193789e+02
   6.713620e+01  -1.174255e+02
   8.684721e+01  -3.365151e+01
   2.255901e+01   2.547583e+01
  -1.789477e+01   1.997905e+01
   1.094970e+01  -4.576767e+00
   6.816411e+01   1.151752e+01
   8.487487e+01   8.073820e+01
   1.572666e+01   1.548412e+02
  -1.224048e+02   1.524933e+02
  -2.326099e+02   3.036173e+01
  -2.055333e+02  -1.471915e+02
  -4.537573e+01  -2.405656e+02
   1.100163e+02  -1.748923e+02
   1.389314e+02  -2.795537e+01
   7.171581e+01   5.846388e+01
   2.837504e+01   3.784243e+01
   5.337261e+01  -1.188160e+01
   7.860414e+01  -6.194564e+00
   3.887707e+01   4.902308e+01
  -4.359218e+01   8.476648e+01
  -9.906075e+01   5.216924e+01
  -8.097530e+01  -3.442477e+01
   1.311078e+01  -1.064177e+02
   1.371001e+02  -8.488012e+01
   1.954147e+02   4.706876e+01
   1.049390e+02   1.980768e+02
  -1.007756e+02   2.308681e+02
  -2.668601e+02   1.017794e+02
  -2.625863e+02  -8.299556e+01
  -1.145628e+02  -1.784654e+02
   3.733288e+01  -1.506748e+02
   9.594545e+01  -8.667328e+01
   8.169339e+01  -7.090077e+01
   6.877040e+01  -9.151562e+01
   9.326701e+01  -7.389823e+01
   1.284486e+02   2.258046e+01
   1.185760e+02   1.544256e+02
   3.158434e+01   2.270868e+02
  -9.767333e+01   1.748886e+02
  -1.770881e+02   2.390558e+01
  -1.397084e+02  -1.201015e+02
  -2.243676e+01  -1.607373e+02
   6.499162e+01  -9.521292e+01
   5.920778e+01  -3.788253e+00
   6.238282e+00   4.023521e+01
  -7.266921e+00   3.363474e+01
   3.843627e+01   1.897693e+01
   7.880633e+01   2.378089e+01
   4.383828e+01   3.806734e+01
  -6.207029e+01   3.613941e+01
  -1.549386e+02   3.741291e+00
  -1.429807e+02  -4.848828e+01
  -1.840320e+01  -8.608311e+01
   1.178642e+02  -7.419619e+01
   1.450895e+02  -1.570994e+01
   4.916868e+01   3.882410e+01
  -6.053125e+01   3.662764e+01
  -7.580625e+01  -1.901934e+01
  -5.615496e+00  -6.808923e+01
   5.788032e+01  -5.721985e+01
   6.270443e+01   2.974041e+00
   4.179838e+01   5.060623e+01
   4.274802e+01   4.176529e+01
   6.263157e+01   1.913954e+00
   6.650742e+01   2.775524e-01
   3.351952e+01   6.717098e+01
  -3.382469e+01   1.448705e+02
  -1.144390e+02   1.403709e+02
  -1.611398e+02   3.297884e+01
  -1.221004e+02  -9.036495e+01
  -7.580597e+00  -1.247035e+02
   8.496150e+01  -6.009869e+01
   5.982360e+01   1.571181e+01
  -5.935312e+01   2.026274e+01
  -1.387411e+02  -4.316036e+01
  -7.764705e+01  -1.071604e+02
   7.956976e+01  -1.134984e+02
   1.911718e+02  -5.461228e+01
   1.641134e+02   3.145475e+01
   3.921229e+01   8.672787e+01
  -5.968673e+01   7.231135e+01
  -4.884633e+01   9.264303e+00
   3.859188e+01  -2.626033e+01
   9.050998e+01   2.283912e+01
   3.231769e+01   1.196200e+02
  -9.329885e+01   1.551174e+02
  -1.697047e+02   6.198085e+01
  -1.277817e+02  -1.019765e+02
  -1.021351e+01  -1.992024e+02
   8.562683e+01  -1.457057e+02
   1.048039e+02   5.319728e+00
   6.231758e+01   1.172459e+02
   1.038896e+00   1.069925e+02
  -4.451556e+01   2.126883e+01
  -5.351748e+01  -3.055509e+01
  -2.784244e+01  -8.359786e+00
  -3.350611e+00   2.115070e+01
  -1.854077e+01  -1.425786e+01
  -5.568345e+01  -8.830101e+01
  -4.468817e+01  -1.099187e+02
   4.491597e+01  -4.565013e+01
   1.393410e+02   3.943821e+01
   1.319596e+02   7.074609e+01
   1.746121e+01   4.911835e+01
  -8.969469e+01   2.209766e+01
  -8.884434e+01   8.423583e+00
  -9.428986e+00  -6.806335e+00
   3.936297e+01  -2.286111e+01
   1.284116e+01  -1.908702e+01
  -2.280241e+01   1.371504e+00
   6.465407e+00   9.653556e+00
   7.613556e+01   4.446878e+00
   9.147479e+01   2.429746e+01
   5.886121e+00   8.079860e+01
  -1.209703e+02   1.141089e+02
  -1.855506e+02   5.685167e+01
  -1.399992e+02  -6.966882e+01
  -2.465053e+01  -1.629629e+02
   7.897720e+01  -1.488724e+02
   1.140758e+02  -5.703500e+01
   8.078819e+01   2.202106e+01
   2.448418e+01   3.496692e+01
  -4.260268e+00   8.098553e+00
   9.283570e+00   3.345418e+00
   3.355126e+01   4.485393e+01
   2.371396e+01   8.956826e+01
  -2.918201e+01   7.162161e+01
  -8.187175e+01  -1.911162e+01
  -7.680998e+01  -1.098489e+02
  -2.366457e+00  -1.130806e+02
   8.427566e+01  -2.247526e+01
   1.029802e+02   7.774423e+01
   3.040034e+01   1.040277e+02
  -6.744248e+01   5.395633e+01
  -9.684953e+01  -1.309324e+01
  -3.745136e+01  -4.947906e+01
   3.297139e+01  -4.969789e+01
   2.960246e+01  -2.750281e+01
  -3.585798e+01  -2.461964e-01
  -6.961049e+01   6.253413e+00
  -1.409987e+01  -2.483329e+01
   7.934301e+01  -6.606044e+01
   1.142036e+02  -5.933965e+01
   6.206162e+01   1.134932e+01
  -1.639672e+01   8.266471e+01
  -5.222297e+01   7.830168e+01
  -3.576850e+01   3.790699e+00
  -4.666406e-01  -5.685107e+01
   2.646490e+01  -4.184434e+01
   3.667251e+01   1.993672e+01
   2.606536e+01   5.414017e+01
  -3.619951e+00   3.154853e+01
  -3.320578e+01  -9.284542e+00
  -3.893474e+01  -2.034642e+01
  -2.033548e+01  -3.932810e-01
  -2.076719e-01   1.317430e+01
   6.263790e+00  -5.176468e+00
   8.375162e+00  -3.796275e+01
   1.990175e+01  -4.392186e+01
   3.397041e+01  -5.194830e+00
   2.864329e+01   4.747698e+01
  -4.946348e+00   6.188412e+01
  -4.572060e+01   1.967967e+01
  -5.548338e+01  -4.086746e+01
  -1.348978e+01  -6.386796e+01
   5.460463e+01  -3.331677e+01
   8.802932e+01   1.664622e+01
   4.860120e+01   4.437855e+01
  -2.916561e+01   3.970445e+01
  -6.501964e+01   1.983798e+01
  -2.340668e+01   4.110441e+00
   3.917752e+01   2.905297e+00
   3.893128e+01   1.735498e+01
  -3.189350e+01   3.264832e+01
  -9.369795e+01   1.988992e+01
