
 $NMID
 id='ANONYMOUS ', fmtdat='(2E16.6)'
 volume=1.0
 tramp=1.0
 $END
   3.485962e+03  -4.577903e+01
   2.309641e+03   1.776589e+03
  -2.467625e+01   2.225582e+03
  -1.375204e+03   1.298507e+03
  -1.007779e+03   1.370002e+02
   2.220535e+01  -2.643814e+02
   4.481235e+02   1.213038e+02
   7.100522e+01   6.278040e+02
  -4.948319e+02   6.424632e+02
  -7.076676e+02   9.005030e+01
  -4.692008e+02  -5.609769e+02
   3.026249e+00  -7.093950e+02
   3.504528e+02  -2.011002e+02
   2.860674e+02   4.579126e+02
  -1.221580e+02   5.936415e+02
  -4.446381e+02   8.654624e+01
  -3.220084e+02  -5.232643e+02
   1.392718e+02  -6.583408e+02
   5.001769e+02  -2.795549e+02
   4.632175e+02   1.951466e+02
   1.338849e+02   3.854363e+02
  -1.349592e+02   2.640013e+02
  -9.047702e+01   8.082880e+01
   1.776280e+02   8.082736e+01
   3.002683e+02   2.635515e+02
   1.343569e+01   3.785378e+02
  -4.802437e+02   2.023894e+02
  -6.556480e+02  -1.692815e+02
  -2.627125e+02  -3.898918e+02
   3.340164e+02  -2.468201e+02
   5.477701e+02   1.151403e+02
   2.208458e+02   3.847423e+02
  -2.668371e+02   3.861443e+02
  -4.815692e+02   1.500460e+02
  -3.490623e+02  -1.669900e+02
  -9.381122e+01  -3.402470e+02
   4.656619e+01  -2.072269e+02
  -1.215937e+01   1.036579e+02
  -1.768506e+02   1.985036e+02
  -2.374867e+02  -1.248973e+02
  -5.180628e+01  -5.284200e+02
   2.560657e+02  -4.924264e+02
   3.717580e+02  -1.064880e+01
   1.512232e+02   3.499531e+02
  -1.669444e+02   1.715441e+02
  -2.097752e+02  -2.803641e+02
   1.040639e+02  -4.213638e+02
   4.709409e+02  -7.544015e+01
   5.205162e+02   3.815686e+02
   1.699126e+02   5.222702e+02
  -3.143978e+02   2.921147e+02
  -5.501712e+02  -5.829860e+01
  -3.630998e+02  -2.712146e+02
   5.402796e+01  -2.546976e+02
   3.162187e+02  -9.096745e+01
   2.327191e+02   4.519258e+01
  -3.055388e+00   3.672455e+01
  -6.491444e+01  -5.851636e+01
   1.058772e+02  -7.799647e+01
   2.504419e+02   4.625245e+01
   1.363717e+02   2.096270e+02
  -1.592947e+02   2.600268e+02
  -3.544795e+02   1.394100e+02
  -2.701593e+02  -9.807610e+01
   2.088803e+01  -3.242586e+02
   2.966789e+02  -3.783811e+02
   3.776267e+02  -1.759081e+02
   2.504344e+02   1.637823e+02
   5.808885e+01   3.801119e+02
  -4.148698e+01   3.382584e+02
  -3.213375e+01   1.742881e+02
  -3.480993e+01   9.835701e+01
  -1.333680e+02   1.172897e+02
  -2.532189e+02   6.544748e+01
  -2.537491e+02  -1.165686e+02
  -1.020565e+02  -2.671266e+02
   9.485494e+01  -2.061413e+02
   2.009850e+02   3.641651e+01
   1.470424e+02   2.512554e+02
  -4.434078e+01   2.626580e+02
  -2.562200e+02   7.113924e+01
  -3.245958e+02  -1.758660e+02
  -1.790167e+02  -3.127812e+02
   5.542587e+01  -2.799915e+02
   1.778632e+02  -1.586899e+02
   1.534131e+02  -7.704838e+01
   1.493349e+02  -6.862470e+01
   2.841292e+02  -4.261984e+01
   4.257106e+02   9.315058e+01
   3.347651e+02   3.058714e+02
  -2.121018e+01   4.541679e+02
  -3.914153e+02   4.144358e+02
  -4.961790e+02   1.852643e+02
  -3.020157e+02  -1.015724e+02
  -2.477158e+01  -2.636486e+02
   9.868112e+01  -2.101835e+02
   1.812267e+01  -3.861712e+01
  -1.203706e+02   4.820005e+01
  -1.406376e+02  -3.510710e+01
  -1.330489e+01  -1.512224e+02
   1.239200e+02  -1.152347e+02
   1.197711e+02   5.395739e+01
  -2.735177e+01   1.412228e+02
  -1.696769e+02   3.956528e+00
  -1.594098e+02  -2.435619e+02
   1.959538e+01  -3.553304e+02
   2.489587e+02  -2.160532e+02
   3.693176e+02   6.205416e+01
   2.910674e+02   2.696837e+02
   6.679626e+01   2.843264e+02
  -1.322392e+02   1.476933e+02
  -1.586675e+02   7.884426e+00
  -3.824186e+01  -1.566103e+01
   5.458350e+01   6.193009e+01
  -1.170406e+00   1.188882e+02
  -1.286206e+02   7.184478e+01
  -1.547022e+02  -2.641824e+01
  -3.453411e+01  -5.829224e+01
   8.548579e+01   1.098235e+01
   4.144129e+01   9.575406e+01
  -1.530321e+02   9.206456e+01
  -3.128585e+02  -2.044417e+01
  -2.683352e+02  -1.747040e+02
  -3.150644e+01  -2.728887e+02
   2.136911e+02  -2.453225e+02
   2.795278e+02  -1.029493e+02
   1.450308e+02   4.746251e+01
  -3.051889e+01   8.315704e+01
  -6.834302e+01  -4.074038e+00
   5.391466e+01  -8.471798e+01
   1.924885e+02  -3.645107e+01
   1.967030e+02   1.072022e+02
   5.938340e+01   1.957723e+02
  -9.184256e+01   1.420903e+02
  -1.306257e+02   1.844825e+01
  -4.913884e+01  -3.780885e+01
   4.359386e+01   2.092570e+01
   2.927818e+01   1.132214e+02
  -9.970646e+01   1.232280e+02
  -2.191236e+02   1.437843e+01
  -1.901600e+02  -1.391587e+02
  -1.199149e+01  -2.171359e+02
   1.620574e+02  -1.572308e+02
   1.818555e+02  -1.184404e+01
   5.804709e+01   9.877416e+01
  -6.374536e+01   9.948698e+01
  -7.296115e+01   2.607288e+01
  -1.815821e+00  -2.579111e+01
   3.819527e+01  -9.600630e+00
  -9.182202e+00   2.627646e+01
  -9.181924e+01   2.062130e+00
  -1.096082e+02  -9.483420e+01
  -1.229306e+01  -1.827050e+02
   1.477132e+02  -1.602867e+02
   2.481996e+02  -1.164673e+01
   2.007107e+02   1.643652e+02
   3.936302e+01   2.375863e+02
  -1.048997e+02   1.664114e+02
  -1.342088e+02   3.260487e+01
  -7.681681e+01  -4.578964e+01
  -3.523388e+01  -3.016861e+01
  -5.780046e+01   1.522993e+01
  -9.115986e+01   7.740799e+00
  -5.877343e+01  -5.940777e+01
   4.120251e+01  -1.106759e+02
   1.273343e+02  -7.116534e+01
   1.114696e+02   4.582511e+01
  -1.757622e+01   1.352844e+02
  -1.700678e+02   9.457853e+01
  -2.146785e+02  -6.767726e+01
  -8.921128e+01  -2.215750e+02
   1.291702e+02  -2.311597e+02
   2.780825e+02  -8.557206e+01
   2.542743e+02   9.322588e+01
   1.031160e+02   1.753534e+02
  -4.116620e+01   1.433745e+02
  -9.160561e+01   8.333890e+01
  -7.212726e+01   7.293951e+01
  -6.026416e+01   9.861576e+01
  -9.363783e+01   8.330877e+01
  -1.370669e+02  -1.822770e+01
  -1.247452e+02  -1.593267e+02
  -2.866046e+01  -2.343047e+02
   1.034935e+02  -1.734541e+02
   1.766811e+02  -1.258937e+01
   1.317954e+02   1.314941e+02
   1.028812e+01   1.621464e+02
  -7.789860e+01   8.418654e+01
  -6.507871e+01  -1.443142e+01
   3.773709e+00  -5.559914e+01
   2.744228e+01  -3.734452e+01
  -2.871116e+01  -1.224912e+01
  -8.802828e+01  -1.815517e+01
  -5.226695e+01  -4.156322e+01
   7.590972e+01  -4.184438e+01
   1.805458e+02   1.356938e+00
   1.503044e+02   6.534340e+01
  -1.657767e-01   1.015849e+02
  -1.394417e+02   7.682457e+01
  -1.511686e+02   6.292562e+00
  -4.618187e+01  -5.197292e+01
   6.221663e+01  -4.593249e+01
   8.140978e+01   1.834187e+01
   2.016773e+01   7.674366e+01
  -4.766798e+01   6.908457e+01
  -7.149190e+01   3.022278e+00
  -6.049975e+01  -5.254728e+01
  -5.024233e+01  -4.490508e+01
  -5.765327e+01  -1.424611e+00
  -6.756064e+01  -6.949208e-01
  -4.666101e+01  -7.529742e+01
   2.706874e+01  -1.593370e+02
   1.298039e+02  -1.525929e+02
   1.877171e+02  -3.584519e+01
   1.366122e+02   9.791733e+01
   2.993217e+00   1.385231e+02
  -9.610052e+01   7.273570e+01
  -6.502475e+01  -1.066438e+01
   6.022826e+01  -2.191061e+01
   1.391673e+02   4.205517e+01
   7.384233e+01   1.097207e+02
  -8.606210e+01   1.135335e+02
  -1.955453e+02   4.668249e+01
  -1.622624e+02  -4.139242e+01
  -3.215682e+01  -8.792740e+01
   6.609915e+01  -6.361633e+01
   5.025741e+01   9.521072e-01
  -4.154029e+01   3.259808e+01
  -9.661636e+01  -1.929993e+01
  -4.283952e+01  -1.197230e+02
   8.031704e+01  -1.630166e+02
   1.628318e+02  -7.541549e+01
   1.325320e+02   9.302139e+01
   1.931435e+01   1.990523e+02
  -8.340341e+01   1.464427e+02
  -1.076566e+02  -1.093168e+01
  -5.791048e+01  -1.240150e+02
   1.272058e+01  -1.063504e+02
   5.325732e+01  -1.551100e+01
   4.726310e+01   3.294826e+01
   1.757247e+01   7.359803e+00
   5.910043e+00  -1.817889e+01
   3.149935e+01   2.187616e+01
   6.066352e+01   9.277334e+01
   3.429737e+01   1.082959e+02
  -5.740767e+01   4.423516e+01
  -1.409085e+02  -3.712044e+01
  -1.278092e+02  -7.043503e+01
  -1.950554e+01  -5.494361e+01
   8.315635e+01  -2.780866e+01
   8.938732e+01  -6.830688e+00
   1.802544e+01   1.193545e+01
  -3.537891e+01   2.264892e+01
  -1.988214e+01   1.337189e+01
   1.538516e+01  -4.372644e+00
  -3.114435e+00  -5.700393e+00
  -6.906962e+01   2.105739e+00
  -9.671718e+01  -2.118040e+01
  -2.363181e+01  -8.393121e+01
   1.096006e+02  -1.243170e+02
   1.941974e+02  -7.179775e+01
   1.595077e+02   5.847974e+01
   3.609251e+01   1.646489e+02
  -8.103340e+01   1.620816e+02
  -1.201145e+02   6.990603e+01
  -8.386826e+01  -1.856196e+01
  -2.798025e+01  -3.902155e+01
  -2.650293e+00  -1.363666e+01
  -1.440300e+01  -8.643162e+00
  -3.195817e+01  -5.045378e+01
  -1.972543e+01  -9.408775e+01
   2.926594e+01  -7.485245e+01
   8.154943e+01   1.417120e+01
   8.472218e+01   1.039406e+02
   1.672893e+01   1.142881e+02
  -7.710120e+01   3.478753e+01
  -1.108862e+02  -6.530570e+01
  -4.351507e+01  -1.061948e+02
   6.523697e+01  -6.797442e+01
   1.079405e+02   6.135312e+00
   4.830577e+01   5.947532e+01
  -3.467420e+01   6.449536e+01
  -4.115421e+01   3.083665e+01
   2.706916e+01  -6.758238e+00
   7.067993e+01  -1.052011e+01
   1.948575e+01   2.799331e+01
  -8.016202e+01   6.924727e+01
  -1.243806e+02   5.705073e+01
  -7.401906e+01  -1.648217e+01
   1.256109e+01  -8.846716e+01
   5.874407e+01  -8.712452e+01
   4.655126e+01  -1.400674e+01
   8.535640e+00   5.410774e+01
  -2.366443e+01   5.048336e+01
  -3.849227e+01  -9.969274e+00
  -3.063414e+01  -5.523054e+01
   1.120536e-01  -4.129037e+01
   3.474124e+01   4.553751e+00
   4.391853e+01   2.557234e+01
   2.162771e+01   4.670896e+00
  -4.288834e+00  -2.058672e+01
  -6.884207e+00  -8.608946e+00
   4.656782e+00   3.312183e+01
  -3.913924e-01   5.481985e+01
  -2.769404e+01   2.328223e+01
  -4.321071e+01  -3.558195e+01
  -1.451444e+01  -6.189274e+01
   4.131239e+01  -2.758231e+01
   6.577152e+01   3.306118e+01
   2.163523e+01   6.222717e+01
  -5.830905e+01   3.851661e+01
  -9.704069e+01  -9.997479e+00
  -5.366858e+01  -4.385243e+01
   2.881573e+01  -4.784962e+01
   6.731842e+01  -3.054128e+01
   2.992635e+01  -7.723974e+00
  -2.947143e+01   4.185932e+00
  -3.501376e+01  -5.891520e+00
   2.343354e+01  -2.688953e+01
   8.075331e+01  -2.360709e+01
