
 $NMID
 id='ANONYMOUS ', fmtdat='(2E16.6)'
 volume=1.0
 tramp=1.0
 $END
  -3.927615e+03   5.973809e+01
  -2.310761e+03  -2.333006e+03
   6.444834e+02  -2.487109e+03
   1.898317e+03  -8.072663e+02
   8.462795e+02   5.979384e+02
  -6.048006e+02   5.264226e+02
  -8.126657e+02  -3.954852e+02
   3.380549e+00  -9.708507e+02
   7.477441e+02  -7.109170e+02
   8.490838e+02   8.396082e+01
   4.098418e+02   7.797904e+02
  -2.163184e+02   8.051012e+02
  -5.789017e+02   1.044099e+02
  -3.533100e+02  -6.521199e+02
   2.405080e+02  -6.806455e+02
   5.507930e+02   3.927235e+00
   2.505255e+02   6.151912e+02
  -2.883569e+02   5.728297e+02
  -5.242739e+02   8.414767e+01
  -3.495196e+02  -3.149623e+02
  -1.710550e+01  -3.928726e+02
   2.168616e+02  -2.389022e+02
   1.929715e+02  -1.496678e+01
  -1.024616e+02   8.362250e+01
  -3.724379e+02  -9.443724e+01
  -1.880818e+02  -3.892439e+02
   4.109930e+02  -3.821432e+02
   7.711870e+02   5.712958e+01
   3.964792e+02   4.948160e+02
  -3.519142e+02   4.456628e+02
  -6.776397e+02  -2.293466e+01
  -3.207361e+02  -4.337046e+02
   2.494322e+02  -4.735196e+02
   5.101830e+02  -1.897632e+02
   3.792219e+02   2.019338e+02
   6.810040e+01   4.298009e+02
  -1.799355e+02   2.589406e+02
  -1.604999e+02  -1.985597e+02
   1.457456e+02  -4.020662e+02
   4.087171e+02   1.074475e+01
   2.327963e+02   6.172242e+02
  -2.817225e+02   6.423371e+02
  -5.510882e+02   9.492535e+00
  -2.426032e+02  -5.026259e+02
   2.631387e+02  -2.948672e+02
   3.563144e+02   2.892444e+02
  -5.324970e+01   4.976783e+02
  -5.005726e+02   1.319854e+02
  -5.431227e+02  -3.587360e+02
  -1.573578e+02  -5.263702e+02
   3.414087e+02  -3.183167e+02
   5.697399e+02   5.850332e+01
   3.421901e+02   3.436655e+02
  -1.369995e+02   3.333315e+02
  -4.020170e+02   5.479429e+01
  -2.198789e+02  -1.777557e+02
   1.094063e+02  -9.977931e+01
   1.339635e+02   1.401750e+02
  -1.483310e+02   1.745442e+02
  -3.174263e+02  -6.293365e+01
  -1.317740e+02  -2.710819e+02
   1.818150e+02  -2.359950e+02
   2.955785e+02  -6.794354e+01
   1.743963e+02   7.313182e+01
  -1.929737e+01   1.963273e+02
  -1.886583e+02   2.930395e+02
  -2.969733e+02   2.036102e+02
  -2.657413e+02  -1.159314e+02
  -7.973631e+01  -3.923221e+02
   9.978690e+01  -3.491829e+02
   1.103227e+02  -1.009976e+02
   2.182850e+01   1.408464e+01
   3.269685e+01  -7.788058e+01
   1.698149e+02  -1.234997e+02
   2.526745e+02   3.865132e+01
   1.512969e+02   2.399321e+02
  -5.817911e+01   2.347731e+02
  -2.058302e+02   1.638775e+01
  -1.848890e+02  -2.120078e+02
   1.906564e+00  -2.666285e+02
   2.374345e+02  -1.121722e+02
   3.288900e+02   1.427681e+02
   1.747888e+02   3.132905e+02
  -8.518676e+01   2.785859e+02
  -2.036220e+02   1.114445e+02
  -1.349950e+02   4.350759e+00
  -8.573788e+01   3.155895e+01
  -2.052201e+02   6.351081e+01
  -3.579847e+02  -4.152991e+01
  -3.022885e+02  -2.470638e+02
  -7.620262e+00  -3.950419e+02
   3.118788e+02  -3.759883e+02
   4.320929e+02  -1.897257e+02
   3.044875e+02   7.662348e+01
   5.597194e+01   2.641665e+02
  -1.135942e+02   2.313804e+02
  -7.616812e+01   2.743512e+01
   9.636767e+01  -1.020216e+02
   1.797444e+02   3.430305e-01
   5.082735e+01   1.779740e+02
  -1.442292e+02   1.606419e+02
  -1.655940e+02  -5.176423e+01
   1.161927e+01  -1.768013e+02
   1.756099e+02  -3.470841e+01
   1.515293e+02   2.192648e+02
  -2.250029e+01   3.127393e+02
  -2.015166e+02   1.749247e+02
  -2.896213e+02  -5.016443e+01
  -2.512201e+02  -2.057753e+02
  -9.116870e+01  -2.323799e+02
   9.730940e+01  -1.463153e+02
   1.599366e+02  -2.277007e+01
   5.458261e+01   2.900427e+01
  -6.430916e+01  -3.191592e+01
  -3.072250e+01  -1.121504e+02
   1.091126e+02  -9.366137e+01
   1.620260e+02   7.234147e+00
   5.512222e+01   6.514675e+01
  -7.111840e+01   1.822462e+01
  -5.179960e+01  -6.278430e+01
   1.062952e+02  -7.933963e+01
   2.489306e+02  -6.341642e+00
   2.368976e+02   1.171891e+02
   6.052217e+01   2.249489e+02
  -1.574370e+02   2.377093e+02
  -2.515183e+02   1.201597e+02
  -1.552081e+02  -4.330408e+01
   1.948392e+01  -1.008093e+02
   8.322030e+01  -1.009480e+01
  -2.570473e+01   9.293218e+01
  -1.743235e+02   5.880933e+01
  -1.943565e+02  -8.717476e+01
  -6.692277e+01  -1.858065e+02
   8.169795e+01  -1.446467e+02
   1.295853e+02  -2.960390e+01
   6.573178e+01   3.635539e+01
  -2.363567e+01   5.382345e+00
  -3.588693e+01  -7.075765e+01
   5.887455e+01  -1.011636e+02
   1.738216e+02  -3.114639e+01
   1.734418e+02   1.045045e+02
   2.434593e+01   1.942914e+02
  -1.440393e+02   1.506701e+02
  -1.746467e+02   9.074593e+00
  -6.138009e+01  -1.027597e+02
   5.787847e+01  -1.024079e+02
   7.502238e+01  -2.946226e+01
   1.856648e+01   2.311016e+01
  -1.751093e+01   1.801505e+01
   8.297314e+00  -5.756094e+00
   6.109463e+01   6.879410e+00
   7.823320e+01   6.944757e+01
   1.715397e+01   1.379373e+02
  -1.067678e+02   1.374077e+02
  -2.057833e+02   2.929242e+01
  -1.829004e+02  -1.277730e+02
  -4.261033e+01  -2.104672e+02
   9.406221e+01  -1.540726e+02
   1.208780e+02  -2.661753e+01
   6.349140e+01   4.902877e+01
   2.556831e+01   3.185137e+01
   4.682323e+01  -1.166644e+01
   6.975794e+01  -7.311665e+00
   3.686793e+01   4.223972e+01
  -3.552987e+01   7.685991e+01
  -8.737343e+01   5.008284e+01
  -7.446110e+01  -2.837265e+01
   8.860722e+00  -9.599796e+01
   1.211150e+02  -7.884081e+01
   1.746351e+02   3.912110e+01
   9.485817e+01   1.748870e+02
  -8.730006e+01   2.054325e+02
  -2.343486e+02   9.240141e+01
  -2.314136e+02  -7.028774e+01
  -1.019952e+02  -1.552730e+02
   3.127601e+01  -1.323419e+02
   8.277051e+01  -7.691952e+01
   6.981459e+01  -6.302879e+01
   5.800848e+01  -8.137426e+01
   8.031623e+01  -6.689892e+01
   1.134459e+02   1.720653e+01
   1.069429e+02   1.338474e+02
   3.107878e+01   1.994690e+02
  -8.371952e+01   1.549958e+02
  -1.555561e+02   2.259471e+01
  -1.242368e+02  -1.046555e+02
  -2.110204e+01  -1.414159e+02
   5.721892e+01  -8.425643e+01
   5.326867e+01  -3.057724e+00
   6.055162e+00   3.690457e+01
  -7.265289e+00   3.092482e+01
   3.289394e+01   1.607744e+01
   6.989607e+01   1.883641e+01
   3.982751e+01   3.261121e+01
  -5.471486e+01   3.373223e+01
  -1.381038e+02   6.397577e+00
  -1.275443e+02  -4.143112e+01
  -1.672505e+01  -7.739867e+01
   1.038732e+02  -6.806796e+01
   1.280059e+02  -1.542752e+01
   4.412522e+01   3.452687e+01
  -5.223569e+01   3.379673e+01
  -6.716952e+01  -1.526865e+01
  -7.459464e+00  -5.957740e+01
   4.856809e+01  -5.141437e+01
   5.542238e+01   8.061403e-01
   3.893023e+01   4.299595e+01
   3.883336e+01   3.589090e+01
   5.456131e+01   1.004534e+00
   5.845011e+01  -7.237189e-01
   3.178931e+01   5.840627e+01
  -2.635316e+01   1.283409e+02
  -9.895849e+01   1.264949e+02
  -1.427968e+02   3.279883e+01
  -1.099031e+02  -7.737935e+01
  -8.773918e+00  -1.105893e+02
   7.389338e+01  -5.547353e+01
   5.284778e+01   1.227748e+01
  -5.176284e+01   1.879132e+01
  -1.223007e+02  -3.578244e+01
  -6.947635e+01  -9.329395e+01
   6.868809e+01  -1.010316e+02
   1.676708e+02  -5.023770e+01
   1.447794e+02   2.612176e+01
   3.514855e+01   7.597680e+01
  -5.227048e+01   6.393941e+01
  -4.334867e+01   8.104767e+00
   3.338569e+01  -2.422536e+01
   8.001553e+01   1.816384e+01
   3.086932e+01   1.039482e+02
  -7.823529e+01   1.373510e+02
  -1.467760e+02   5.747260e+01
  -1.134565e+02  -8.670796e+01
  -1.248746e+01  -1.741291e+02
   7.283486e+01  -1.289812e+02
   9.252123e+01   3.464290e+00
   5.634015e+01   1.027152e+02
   1.337556e+00   9.449648e+01
  -3.971746e+01   1.929230e+01
  -4.702173e+01  -2.654719e+01
  -2.369961e+01  -7.384280e+00
  -2.987764e+00   1.850313e+01
  -1.785677e+01  -1.217138e+01
  -5.071649e+01  -7.676149e+01
  -3.988053e+01  -9.619522e+01
   3.979008e+01  -4.121305e+01
   1.228004e+02   3.235682e+01
   1.164310e+02   6.037316e+01
   1.647123e+01   4.318626e+01
  -7.757418e+01   2.076809e+01
  -7.794197e+01   8.557608e+00
  -9.293737e+00  -5.794384e+00
   3.390922e+01  -2.039502e+01
   1.182865e+01  -1.684446e+01
  -1.925808e+01   1.380833e+00
   5.348668e+00   8.242291e+00
   6.597325e+01   2.672806e+00
   8.083747e+01   1.950611e+01
   7.842553e+00   7.013358e+01
  -1.030999e+02   1.020304e+02
  -1.618710e+02   5.410662e+01
  -1.247405e+02  -5.726717e+01
  -2.491142e+01  -1.421551e+02
   6.665080e+01  -1.328460e+02
   9.907163e+01  -5.295785e+01
   7.124588e+01   1.774498e+01
   2.245268e+01   3.046131e+01
  -2.806089e+00   7.240203e+00
   8.857073e+00   2.950725e+00
   3.023320e+01   3.938462e+01
   2.199920e+01   7.878884e+01
  -2.442315e+01   6.349867e+01
  -7.181678e+01  -1.523641e+01
  -6.925309e+01  -9.441283e+01
  -4.854546e+00  -9.852692e+01
   7.242918e+01  -2.149956e+01
   9.142081e+01   6.537299e+01
   2.927109e+01   9.032437e+01
  -5.751133e+01   4.926208e+01
  -8.564884e+01  -9.005930e+00
  -3.490571e+01  -4.309117e+01
   2.759420e+01  -4.529571e+01
   2.629959e+01  -2.539434e+01
  -3.042398e+01   3.865203e-01
  -6.084175e+01   6.859640e+00
  -1.329927e+01  -2.155379e+01
   6.856490e+01  -5.936751e+01
   1.002438e+02  -5.402187e+01
   5.578996e+01   8.860161e+00
  -1.261642e+01   7.300309e+01
  -4.475266e+01   7.044651e+01
  -3.163553e+01   5.172797e+00
  -1.700907e+00  -4.924252e+01
   2.196443e+01  -3.760846e+01
   3.208656e+01   1.610553e+01
   2.404405e+01   4.697493e+01
  -1.959262e+00   2.830070e+01
  -2.913903e+01  -7.229070e+00
  -3.509613e+01  -1.744458e+01
  -1.816282e+01  -3.202379e-01
   7.304107e-01   1.190312e+01
   6.172290e+00  -3.597298e+00
   6.047899e+00  -3.238340e+01
   1.477188e+01  -3.865982e+01
   2.831949e+01  -6.116744e+00
   2.632057e+01   3.958036e+01
  -1.956070e+00   5.336622e+01
  -3.908506e+01   1.829948e+01
  -4.965012e+01  -3.393448e+01
  -1.328735e+01  -5.529413e+01
   4.744893e+01  -3.059400e+01
   7.781704e+01   1.237814e+01
   4.363084e+01   3.794086e+01
  -2.457847e+01   3.585650e+01
  -5.638792e+01   1.927111e+01
  -2.079416e+01   4.550258e+00
   3.329860e+01   1.939051e+00
   3.351204e+01   1.398568e+01
  -2.715475e+01   2.821806e+01
  -8.072445e+01   1.840758e+01
