
 $NMID
 id='ANONYMOUS ', fmtdat='(2E16.6)'
 volume=1.0
 tramp=1.0
 $END
   4.528632e+03   5.123389e+01
   2.574738e+03   2.791859e+03
  -8.686603e+02   2.856811e+03
  -2.252877e+03   8.265721e+02
  -9.482352e+02  -7.804101e+02
   7.550279e+02  -6.172399e+02
   9.538436e+02   4.955792e+02
  -3.540063e+01   1.141399e+03
  -8.990557e+02   7.989688e+02
  -9.836738e+02  -1.366296e+02
  -4.417554e+02  -9.253566e+02
   2.908813e+02  -9.257800e+02
   6.873721e+02  -9.630836e+01
   3.922055e+02   7.727267e+02
  -3.060821e+02   7.799902e+02
  -6.405896e+02  -2.857826e+01
  -2.614061e+02  -7.209191e+02
   3.635923e+02  -6.404327e+02
   6.080906e+02  -6.179395e+01
   3.812687e+02   3.845705e+02
  -3.766365e+00   4.525796e+02
  -2.635489e+02   2.652607e+02
  -2.315438e+02   6.987601e+00
   1.096167e+02  -1.052715e+02
   4.252632e+02   1.035657e+02
   2.178545e+02   4.482046e+02
  -4.722168e+02   4.376149e+02
  -8.871728e+02  -7.832816e+01
  -4.507980e+02  -5.850287e+02
   4.142173e+02  -5.157035e+02
   7.831312e+02   3.764173e+01
   3.620636e+02   5.084078e+02
  -2.972574e+02   5.401987e+02
  -5.909037e+02   2.040716e+02
  -4.300241e+02  -2.457656e+02
  -6.316814e+01  -5.018780e+02
   2.249999e+02  -2.973465e+02
   1.942674e+02   2.370071e+02
  -1.727328e+02   4.721052e+02
  -4.795194e+02  -1.196336e+01
  -2.636154e+02  -7.170160e+02
   3.422696e+02  -7.385197e+02
   6.460256e+02   3.707465e+00
   2.719509e+02   5.940279e+02
  -3.164046e+02   3.412581e+02
  -4.108233e+02  -3.399583e+02
   7.115771e+01  -5.726005e+02
   5.777435e+02  -1.399050e+02
   6.101888e+02   4.253349e+02
   1.613121e+02   6.072398e+02
  -4.024761e+02   3.552951e+02
  -6.507626e+02  -8.531856e+01
  -3.792438e+02  -4.109127e+02
   1.733261e+02  -3.851024e+02
   4.695792e+02  -4.786971e+01
   2.469941e+02   2.225135e+02
  -1.364864e+02   1.182780e+02
  -1.563275e+02  -1.704356e+02
   1.770054e+02  -2.040513e+02
   3.669340e+02   8.249030e+01
   1.424684e+02   3.196829e+02
  -2.180728e+02   2.619352e+02
  -3.362026e+02   6.018857e+01
  -1.877290e+02  -8.913241e+01
   3.112467e+01  -2.121854e+02
   2.173977e+02  -3.186247e+02
   3.382384e+02  -2.235605e+02
   3.001312e+02   1.366502e+02
   8.030146e+01   4.515145e+02
  -1.305635e+02   3.978614e+02
  -1.379472e+02   1.068374e+02
  -2.569784e+01  -2.715553e+01
  -3.176241e+01   8.223332e+01
  -1.894119e+02   1.389026e+02
  -2.856576e+02  -4.557902e+01
  -1.687433e+02  -2.756622e+02
   7.035808e+01  -2.680923e+02
   2.350228e+02  -1.673433e+01
   2.067726e+02   2.440336e+02
  -7.128334e+00   3.040225e+02
  -2.724394e+02   1.235687e+02
  -3.707189e+02  -1.709582e+02
  -1.889553e+02  -3.638692e+02
   1.092509e+02  -3.159765e+02
   2.396446e+02  -1.169010e+02
   1.542744e+02   6.399291e+00
   9.409766e+01  -2.854908e+01
   2.290673e+02  -6.595967e+01
   4.004744e+02   5.612509e+01
   3.330338e+02   2.877171e+02
  -3.054595e+00   4.456951e+02
  -3.624829e+02   4.141163e+02
  -4.941328e+02   2.014923e+02
  -3.450393e+02  -9.534571e+01
  -5.800229e+01  -3.030563e+02
   1.383347e+02  -2.628098e+02
   9.336623e+01  -2.905337e+01
  -1.101916e+02   1.176785e+02
  -2.081145e+02  -2.404487e+00
  -5.610248e+01  -2.066225e+02
   1.709618e+02  -1.832558e+02
   1.915363e+02   6.345885e+01
  -1.696886e+01   2.044665e+02
  -2.016676e+02   3.671650e+01
  -1.646420e+02  -2.535286e+02
   3.723145e+01  -3.528178e+02
   2.326598e+02  -1.884925e+02
   3.218531e+02   6.753604e+01
   2.752864e+02   2.385518e+02
   9.754383e+01   2.633540e+02
  -1.129285e+02   1.630812e+02
  -1.832842e+02   2.207661e+01
  -6.314731e+01  -3.579391e+01
   7.265131e+01   3.570223e+01
   3.409789e+01   1.278728e+02
  -1.255579e+02   1.049350e+02
  -1.851282e+02  -1.176004e+01
  -6.280899e+01  -7.643467e+01
   7.995262e+01  -2.077560e+01
   5.733007e+01   7.027787e+01
  -1.201603e+02   8.499556e+01
  -2.783299e+02   3.984556e-02
  -2.627455e+02  -1.372589e+02
  -6.327611e+01  -2.541087e+02
   1.828773e+02  -2.644989e+02
   2.884751e+02  -1.298999e+02
   1.767180e+02   5.402954e+01
  -2.423803e+01   1.158781e+02
  -9.644699e+01   1.036082e+01
   2.974754e+01  -1.054627e+02
   1.990174e+02  -6.303230e+01
   2.185351e+02   1.042953e+02
   7.076934e+01   2.134543e+02
  -9.717174e+01   1.625703e+02
  -1.487059e+02   3.050702e+01
  -7.535055e+01  -4.323230e+01
   2.483786e+01  -7.297728e+00
   3.834810e+01   7.809029e+01
  -6.743061e+01   1.107903e+02
  -1.952172e+02   3.036679e+01
  -1.924684e+02  -1.223980e+02
  -2.200059e+01  -2.204831e+02
   1.680869e+02  -1.664037e+02
   1.992531e+02  -4.181543e+00
   6.710737e+01   1.197253e+02
  -6.893319e+01   1.152236e+02
  -8.680384e+01   3.152337e+01
  -2.188964e+01  -2.642357e+01
   1.857346e+01  -2.031677e+01
  -1.002697e+01   4.446065e+00
  -6.701413e+01  -1.133635e+01
  -8.373588e+01  -8.033113e+01
  -1.451431e+01  -1.540554e+02
   1.233579e+02  -1.505384e+02
   2.319126e+02  -2.732960e+01
   2.023654e+02   1.491460e+02
   4.142643e+01   2.393802e+02
  -1.118647e+02   1.715820e+02
  -1.379223e+02   2.558808e+01
  -6.979260e+01  -5.869288e+01
  -2.732795e+01  -3.759393e+01
  -5.297646e+01   1.122616e+01
  -7.803613e+01   5.550223e+00
  -3.839822e+01  -4.840970e+01
   4.335009e+01  -8.349042e+01
   9.835639e+01  -5.159137e+01
   8.045099e+01   3.410664e+01
  -1.335754e+01   1.056854e+02
  -1.369414e+02   8.361799e+01
  -1.940394e+02  -4.877604e+01
  -1.020992e+02  -1.986570e+02
   1.033465e+02  -2.286291e+02
   2.667516e+02  -9.749105e+01
   2.595353e+02   8.640392e+01
   1.108622e+02   1.790092e+02
  -3.946677e+01   1.489710e+02
  -9.646130e+01   8.437874e+01
  -8.185655e+01   6.876329e+01
  -6.913615e+01   8.945967e+01
  -9.313573e+01   7.202172e+01
  -1.269093e+02  -2.382708e+01
  -1.156171e+02  -1.545645e+02
  -2.837764e+01  -2.257592e+02
   9.940840e+01  -1.722419e+02
   1.763727e+02  -2.110918e+01
   1.372311e+02   1.214457e+02
   1.995294e+01   1.601858e+02
  -6.631294e+01   9.393728e+01
  -5.953397e+01   3.043690e+00
  -6.178637e+00  -4.048316e+01
   7.655463e+00  -3.408893e+01
  -3.750537e+01  -1.971252e+01
  -7.762576e+01  -2.428247e+01
  -4.312031e+01  -3.804138e+01
   6.190581e+01  -3.555152e+01
   1.540360e+02  -2.527677e+00
   1.418058e+02   4.990415e+01
   1.754341e+01   8.646086e+01
  -1.179352e+02   7.278985e+01
  -1.444944e+02   1.371195e+01
  -4.871619e+01  -3.939176e+01
   6.016460e+01  -3.558520e+01
   7.489746e+01   1.969719e+01
   5.047131e+00   6.704923e+01
  -5.764933e+01   5.557095e+01
  -6.193787e+01  -3.440800e+00
  -4.092117e+01  -5.001668e+01
  -4.196674e+01  -4.172815e+01
  -6.201895e+01  -2.983197e+00
  -6.595935e+01  -1.175810e+00
  -3.269569e+01  -6.658770e+01
   3.495470e+01  -1.429706e+02
   1.150464e+02  -1.382551e+02
   1.602799e+02  -3.151703e+01
   1.201775e+02   9.077752e+01
   6.285469e+00   1.240191e+02
  -8.464168e+01   5.891575e+01
  -5.891770e+01  -1.618093e+01
   5.907155e+01  -1.929599e+01
   1.369039e+02   4.473050e+01
   7.554874e+01   1.075150e+02
  -8.053526e+01   1.116684e+02
  -1.906625e+02   5.157017e+01
  -1.626604e+02  -3.364521e+01
  -3.765550e+01  -8.683689e+01
   6.059402e+01  -7.105649e+01
   4.898497e+01  -8.487963e+00
  -3.839445e+01   2.564968e+01
  -8.930833e+01  -2.365409e+01
  -3.041930e+01  -1.186286e+02
   9.429461e+01  -1.519944e+02
   1.685435e+02  -5.885500e+01
   1.249135e+02   1.026647e+02
   7.358798e+00   1.972753e+02
  -8.691340e+01   1.431647e+02
  -1.040802e+02  -6.675866e+00
  -6.037496e+01  -1.173483e+02
   5.954543e-01  -1.066499e+02
   4.472524e+01  -2.077737e+01
   5.268681e+01   3.132080e+01
   2.738185e+01   9.093993e+00
   3.758106e+00  -2.100839e+01
   1.857154e+01   1.391861e+01
   5.417196e+01   8.816026e+01
   4.262092e+01   1.100254e+02
  -4.531380e+01   4.512453e+01
  -1.375092e+02  -4.099461e+01
  -1.297939e+02  -7.217601e+01
  -1.686706e+01  -4.889922e+01
   8.896856e+01  -2.040965e+01
   8.827335e+01  -7.106967e+00
   9.514484e+00   6.563778e+00
  -3.933420e+01   2.194566e+01
  -1.327800e+01   1.899334e+01
   2.245884e+01  -7.540859e-01
  -6.091911e+00  -9.774350e+00
  -7.511211e+01  -5.732717e+00
  -9.025607e+01  -2.515142e+01
  -4.930847e+00  -7.948960e+01
   1.210658e+02  -1.110245e+02
   1.842167e+02  -5.418638e+01
   1.374848e+02   7.019116e+01
   2.227456e+01   1.614656e+02
  -7.988447e+01   1.466503e+02
  -1.134228e+02   5.526024e+01
  -7.966550e+01  -2.282913e+01
  -2.396728e+01  -3.489783e+01
   4.070063e+00  -7.722454e+00
  -9.404470e+00  -3.272883e+00
  -3.284827e+01  -4.504543e+01
  -2.240348e+01  -8.932967e+01
   2.981521e+01  -7.062096e+01
   8.069949e+01   2.008907e+01
   7.440919e+01   1.096391e+02
   8.851153e-01   1.115720e+02
  -8.332855e+01   2.087593e+01
  -1.005444e+02  -7.813828e+01
  -2.883905e+01  -1.030497e+02
   6.704596e+01  -5.253925e+01
   9.562358e+01   1.385695e+01
   3.690610e+01   4.920714e+01
  -3.280150e+01   4.896871e+01
  -2.967517e+01   2.734010e+01
   3.520864e+01   1.065375e+00
   6.893782e+01  -5.285353e+00
   1.379035e+01   2.462131e+01
  -7.947574e+01   6.442727e+01
  -1.142249e+02   5.761735e+01
  -6.165468e+01  -1.167584e+01
   1.716621e+01  -8.160721e+01
   5.256655e+01  -7.721484e+01
   3.516828e+01  -3.754744e+00
  -4.029776e-01   5.602697e+01
  -2.646199e+01   4.105263e+01
  -3.568318e+01  -2.014921e+01
  -2.514978e+01  -5.386767e+01
   3.617100e+00  -3.114597e+01
   3.260806e+01   9.583101e+00
   3.855826e+01   2.055332e+01
   2.033846e+01   6.516780e-01
   6.263653e-02  -1.292212e+01
  -6.848377e+00   4.983029e+00
  -8.956530e+00   3.695977e+01
  -1.978822e+01   4.253938e+01
  -3.297882e+01   4.527197e+00
  -2.733386e+01  -4.681006e+01
   5.658010e+00  -6.049407e+01
   4.525971e+01  -1.873473e+01
   5.417808e+01   4.083627e+01
   1.245507e+01   6.317196e+01
  -5.442136e+01   3.244303e+01
  -8.682802e+01  -1.734138e+01
  -4.756869e+01  -4.447782e+01
   2.914474e+01  -3.898944e+01
   6.432408e+01  -1.890903e+01
   2.315861e+01  -4.032031e+00
  -3.845298e+01  -3.785526e+00
  -3.786257e+01  -1.784560e+01
   3.226477e+01  -3.153832e+01
   9.294764e+01  -1.789101e+01
