
 $NMID
 id='ANONYMOUS ', fmtdat='(2E16.6)'
 volume=1.0
 tramp=1.0
 $END
   4.628273e+03   7.246895e+01
   2.614597e+03   2.888611e+03
  -9.299761e+02   2.932033e+03
  -2.340639e+03   8.137980e+02
  -9.729219e+02  -8.448290e+02
   7.951441e+02  -6.540206e+02
   9.940912e+02   5.144020e+02
  -3.797170e+01   1.180995e+03
  -9.317291e+02   8.171916e+02
  -1.012299e+03  -1.512845e+02
  -4.458804e+02  -9.579341e+02
   3.112230e+02  -9.510517e+02
   7.149053e+02  -9.471627e+01
   4.025636e+02   7.970515e+02
  -3.208274e+02   7.992222e+02
  -6.597217e+02  -3.544716e+01
  -2.594150e+02  -7.423131e+02
   3.852726e+02  -6.487147e+02
   6.263338e+02  -4.861235e+01
   3.825672e+02   4.039499e+02
  -1.324444e+01   4.643211e+02
  -2.751925e+02   2.689952e+02
  -2.430124e+02   5.064217e+00
   1.031777e+02  -1.125282e+02
   4.302112e+02   9.743731e+01
   2.276484e+02   4.526119e+02
  -4.743558e+02   4.487306e+02
  -9.042623e+02  -7.697590e+01
  -4.643084e+02  -5.998139e+02
   4.199640e+02  -5.323379e+02
   8.001421e+02   3.539444e+01
   3.711119e+02   5.193156e+02
  -3.028358e+02   5.511718e+02
  -6.028139e+02   2.059804e+02
  -4.381435e+02  -2.541695e+02
  -6.182594e+01  -5.164471e+02
   2.365365e+02  -3.075880e+02
   2.078259e+02   2.421314e+02
  -1.712960e+02   4.885716e+02
  -4.930440e+02  -4.480897e+00
  -2.748991e+02  -7.302756e+02
   3.504534e+02  -7.571726e+02
   6.664966e+02   3.191857e+00
   2.816073e+02   6.114322e+02
  -3.256327e+02   3.541502e+02
  -4.232038e+02  -3.447952e+02
   7.171823e+01  -5.842400e+02
   5.884598e+02  -1.417403e+02
   6.177830e+02   4.353828e+02
   1.588422e+02   6.194465e+02
  -4.126808e+02   3.604736e+02
  -6.622354e+02  -9.119256e+01
  -3.837083e+02  -4.253186e+02
   1.811587e+02  -3.970764e+02
   4.836099e+02  -4.584683e+01
   2.529693e+02   2.356017e+02
  -1.433524e+02   1.259001e+02
  -1.638776e+02  -1.766848e+02
   1.808061e+02  -2.125834e+02
   3.766058e+02   8.550624e+01
   1.441154e+02   3.296149e+02
  -2.257527e+02   2.641574e+02
  -3.415365e+02   5.300578e+01
  -1.844122e+02  -9.379048e+01
   3.722251e+01  -2.087707e+02
   2.205476e+02  -3.144923e+02
   3.406105e+02  -2.236907e+02
   3.034984e+02   1.382943e+02
   7.970935e+01   4.597957e+02
  -1.385896e+02   4.060408e+02
  -1.475430e+02   1.061846e+02
  -2.876969e+01  -3.414953e+01
  -2.886967e+01   7.815501e+01
  -1.874965e+02   1.402513e+02
  -2.876745e+02  -4.448835e+01
  -1.712340e+02  -2.786860e+02
   7.079568e+01  -2.724778e+02
   2.377572e+02  -1.814036e+01
   2.091771e+02   2.465340e+02
  -7.235563e+00   3.080282e+02
  -2.757602e+02   1.251455e+02
  -3.749071e+02  -1.748549e+02
  -1.891612e+02  -3.716900e+02
   1.151645e+02  -3.213793e+02
   2.474717e+02  -1.153626e+02
   1.581650e+02   1.210794e+01
   9.373345e+01  -2.436106e+01
   2.286676e+02  -6.394154e+01
   4.016797e+02   5.957711e+01
   3.329340e+02   2.931120e+02
  -6.882156e+00   4.492491e+02
  -3.688731e+02   4.138568e+02
  -5.005943e+02   1.993380e+02
  -3.495329e+02  -9.824183e+01
  -5.831249e+01  -3.077187e+02
   1.428422e+02  -2.678071e+02
   9.859179e+01  -3.005973e+01
  -1.100250e+02   1.209174e+02
  -2.126139e+02  -9.928865e-01
  -5.828074e+01  -2.108104e+02
   1.749364e+02  -1.880903e+02
   1.966577e+02   6.446584e+01
  -1.689100e+01   2.092025e+02
  -2.047368e+02   3.759262e+01
  -1.643144e+02  -2.580881e+02
   4.207847e+01  -3.563916e+02
   2.368709e+02  -1.862544e+02
   3.222456e+02   7.304506e+01
   2.740332e+02   2.426253e+02
   9.682882e+01   2.650942e+02
  -1.143148e+02   1.638212e+02
  -1.861790e+02   2.186260e+01
  -6.522726e+01  -3.708201e+01
   7.318518e+01   3.498478e+01
   3.516155e+01   1.289603e+02
  -1.267957e+02   1.062925e+02
  -1.879774e+02  -1.214863e+01
  -6.458976e+01  -7.793778e+01
   7.980252e+01  -2.160111e+01
   5.727652e+01   6.985598e+01
  -1.208009e+02   8.338028e+01
  -2.788657e+02  -2.701607e+00
  -2.627042e+02  -1.395819e+02
  -6.241868e+01  -2.554923e+02
   1.853106e+02  -2.654304e+02
   2.923794e+02  -1.299161e+02
   1.797193e+02   5.577611e+01
  -2.441028e+01   1.182504e+02
  -9.851061e+01   1.100644e+01
   2.932431e+01  -1.065788e+02
   2.012379e+02  -6.317916e+01
   2.207036e+02   1.067781e+02
   7.041295e+01   2.168775e+02
  -9.946817e+01   1.644081e+02
  -1.510715e+02   3.043459e+01
  -7.713021e+01  -4.395372e+01
   2.344051e+01  -7.990703e+00
   3.741523e+01   7.727238e+01
  -6.797562e+01   1.097149e+02
  -1.958661e+02   2.884020e+01
  -1.928365e+02  -1.246683e+02
  -2.060831e+01  -2.228200e+02
   1.714929e+02  -1.670321e+02
   2.023891e+02  -2.342867e+00
   6.762798e+01   1.223897e+02
  -7.059681e+01   1.166257e+02
  -8.852919e+01   3.163407e+01
  -2.285748e+01  -2.637618e+01
   1.769289e+01  -2.031429e+01
  -1.082934e+01   3.335318e+00
  -6.673040e+01  -1.348190e+01
  -8.209350e+01  -8.199328e+01
  -1.242445e+01  -1.542819e+02
   1.251826e+02  -1.496624e+02
   2.332881e+02  -2.560480e+01
   2.025775e+02   1.518808e+02
   3.960542e+01   2.422497e+02
  -1.149119e+02   1.726533e+02
  -1.399563e+02   2.422605e+01
  -6.992876e+01  -6.082083e+01
  -2.704708e+01  -3.883762e+01
  -5.349951e+01   1.047649e+01
  -7.829488e+01   4.348520e+00
  -3.698620e+01  -4.931379e+01
   4.549539e+01  -8.261910e+01
   9.898679e+01  -4.934708e+01
   7.906141e+01   3.555029e+01
  -1.517412e+01   1.050402e+02
  -1.378352e+02   8.162143e+01
  -1.939647e+02  -5.085652e+01
  -1.011394e+02  -2.001940e+02
   1.054735e+02  -2.290596e+02
   2.695324e+02  -9.608207e+01
   2.613684e+02   8.938836e+01
   1.106815e+02   1.818934e+02
  -4.111425e+01   1.503142e+02
  -9.849272e+01   8.445719e+01
  -8.397173e+01   6.870890e+01
  -7.142721e+01   8.947173e+01
  -9.509207e+01   7.124796e+01
  -1.276120e+02  -2.589997e+01
  -1.146576e+02  -1.573075e+02
  -2.615354e+01  -2.279151e+02
   1.019694e+02  -1.728178e+02
   1.781151e+02  -1.997231e+01
   1.373928e+02   1.233980e+02
   1.897627e+01   1.616388e+02
  -6.707643e+01   9.438175e+01
  -5.940131e+01   3.187236e+00
  -5.902999e+00  -3.992745e+01
   7.187170e+00  -3.363967e+01
  -3.833311e+01  -2.040856e+01
  -7.782747e+01  -2.590028e+01
  -4.262541e+01  -3.894118e+01
   6.237307e+01  -3.458736e+01
   1.542015e+02  -4.590779e-01
   1.418884e+02   5.130323e+01
   1.730652e+01   8.626571e+01
  -1.189078e+02   7.154317e+01
  -1.455563e+02   1.258522e+01
  -4.858694e+01  -3.958441e+01
   6.131963e+01  -3.477482e+01
   7.517537e+01   2.089583e+01
   3.407439e+00   6.772523e+01
  -5.966276e+01   5.517038e+01
  -6.224045e+01  -4.683377e+00
  -3.979640e+01  -5.135849e+01
  -4.147606e+01  -4.264628e+01
  -6.287705e+01  -3.587585e+00
  -6.655007e+01  -1.915988e+00
  -3.142551e+01  -6.755159e+01
   3.758872e+01  -1.434822e+02
   1.172679e+02  -1.373811e+02
   1.609838e+02  -2.924748e+01
   1.194738e+02   9.300815e+01
   4.863730e+00   1.245284e+02
  -8.591055e+01   5.766046e+01
  -5.920609e+01  -1.737852e+01
   5.987922e+01  -1.873905e+01
   1.378069e+02   4.674824e+01
   7.526140e+01   1.092022e+02
  -8.224664e+01   1.117465e+02
  -1.927303e+02   5.029062e+01
  -1.637732e+02  -3.521793e+01
  -3.740995e+01  -8.788421e+01
   6.143651e+01  -7.138332e+01
   4.923733e+01  -8.515130e+00
  -3.907986e+01   2.509355e+01
  -8.973773e+01  -2.520754e+01
  -2.889659e+01  -1.204299e+02
   9.777064e+01  -1.524398e+02
   1.715877e+02  -5.710821e+01
   1.250472e+02   1.056446e+02
   4.820000e+00   1.995958e+02
  -8.949083e+01   1.436827e+02
  -1.047711e+02  -7.674276e+00
  -5.974750e+01  -1.187415e+02
   1.059778e+00  -1.073976e+02
   4.481588e+01  -2.056087e+01
   5.312970e+01   3.193162e+01
   2.810210e+01   9.269429e+00
   3.820145e+00  -2.126293e+01
   1.775731e+01   1.421578e+01
   5.338850e+01   8.954950e+01
   4.241290e+01   1.114171e+02
  -4.560094e+01   4.483209e+01
  -1.384332e+02  -4.307181e+01
  -1.305342e+02  -7.423488e+01
  -1.624843e+01  -4.933859e+01
   9.056945e+01  -1.952475e+01
   8.917568e+01  -6.278762e+00
   8.973218e+00   6.699408e+00
  -4.016738e+01   2.185130e+01
  -1.311760e+01   1.914498e+01
   2.314547e+01  -5.574360e-01
  -6.317804e+00  -1.005186e+01
  -7.633505e+01  -6.759129e+00
  -9.071119e+01  -2.668672e+01
  -3.136472e+00  -8.065095e+01
   1.243431e+02  -1.106043e+02
   1.866267e+02  -5.174187e+01
   1.374166e+02   7.347565e+01
   2.011318e+01   1.635554e+02
  -8.253737e+01   1.465419e+02
  -1.152056e+02   5.377357e+01
  -8.015656e+01  -2.418610e+01
  -2.354666e+01  -3.540002e+01
   4.687258e+00  -7.656778e+00
  -9.068688e+00  -3.275263e+00
  -3.262241e+01  -4.553764e+01
  -2.173581e+01  -9.014784e+01
   3.096951e+01  -7.084448e+01
   8.144066e+01   2.141584e+01
   7.371734e+01   1.120656e+02
  -1.081138e+00   1.130227e+02
  -8.508084e+01   1.974184e+01
  -1.006317e+02  -8.086053e+01
  -2.728681e+01  -1.046395e+02
   6.877431e+01  -5.168895e+01
   9.606206e+01   1.568181e+01
   3.593530e+01   4.988779e+01
  -3.396784e+01   4.831642e+01
  -2.977999e+01   2.682432e+01
   3.617731e+01   1.585816e+00
   6.975018e+01  -4.341842e+00
   1.330737e+01   2.500220e+01
  -8.102663e+01   6.402770e+01
  -1.154398e+02   5.680114e+01
  -6.141585e+01  -1.252094e+01
   1.857675e+01  -8.205269e+01
   5.384451e+01  -7.680758e+01
   3.528788e+01  -2.613855e+00
  -1.355080e+00   5.693698e+01
  -2.754425e+01   4.081641e+01
  -3.599090e+01  -2.129243e+01
  -2.455647e+01  -5.475175e+01
   4.424001e+00  -3.102242e+01
   3.287867e+01   1.031487e+01
   3.833703e+01   2.104974e+01
   2.036106e+01   6.991886e-01
   6.233796e-01  -1.279594e+01
  -6.583137e+00   5.636034e+00
  -9.981758e+00   3.781760e+01
  -2.171867e+01   4.271136e+01
  -3.414742e+01   3.464866e+00
  -2.667389e+01  -4.855958e+01
   7.356823e+00  -6.154902e+01
   4.634969e+01  -1.814572e+01
   5.396430e+01   4.250234e+01
   1.152240e+01   6.424151e+01
  -5.527572e+01   3.181785e+01
  -8.723597e+01  -1.903568e+01
  -4.732188e+01  -4.560655e+01
   3.009544e+01  -3.866421e+01
   6.534411e+01  -1.779809e+01
   2.320283e+01  -3.468284e+00
  -3.947312e+01  -4.349556e+00
  -3.854507e+01  -1.891570e+01
   3.321264e+01  -3.201368e+01
   9.483181e+01  -1.720371e+01
