
 $NMID
 id='ANONYMOUS ', fmtdat='(2E16.6)'
 volume=1.0
 tramp=1.0
 $END
  -2.473235e+03   1.446629e+01
  -1.586048e+03  -1.330163e+03
   1.292531e+02  -1.583329e+03
   1.047247e+03  -8.125902e+02
   6.787808e+02   3.302063e+01
  -1.075336e+02   2.315502e+02
  -3.700154e+02  -1.262447e+02
  -3.683499e+01  -4.892096e+02
   3.853634e+02  -4.533822e+02
   5.132247e+02  -3.080819e+01
   3.125360e+02   4.258439e+02
  -4.023679e+01   5.068989e+02
  -2.808836e+02   1.234216e+02
  -2.071238e+02  -3.479511e+02
   1.063448e+02  -4.236793e+02
   3.252231e+02  -4.325828e+01
   2.078187e+02   3.785575e+02
  -1.257331e+02   4.407926e+02
  -3.530134e+02   1.579441e+02
  -3.010355e+02  -1.584913e+02
  -7.081796e+01  -2.692296e+02
   1.083719e+02  -1.779553e+02
   8.023896e+01  -4.576222e+01
  -1.076460e+02  -3.148067e+01
  -2.144765e+02  -1.556463e+02
  -3.476642e+01  -2.604385e+02
   3.189521e+02  -1.640471e+02
   4.677292e+02   1.018370e+02
   2.010788e+02   2.857128e+02
  -2.322783e+02   1.998850e+02
  -3.963383e+02  -6.678322e+01
  -1.661090e+02  -2.732977e+02
   1.827234e+02  -2.779995e+02
   3.370047e+02  -1.066972e+02
   2.446273e+02   1.227998e+02
   5.921274e+01   2.498505e+02
  -5.435593e+01   1.524697e+02
  -1.984568e+01  -8.440591e+01
   1.156956e+02  -1.678520e+02
   1.888325e+02   6.723315e+01
   6.214647e+01   3.764685e+02
  -1.821904e+02   3.619140e+02
  -2.850914e+02   6.770802e+00
  -1.183320e+02  -2.656103e+02
   1.301632e+02  -1.380619e+02
   1.662182e+02   1.942576e+02
  -6.558189e+01   3.012297e+02
  -3.290973e+02   5.808303e+01
  -3.592882e+02  -2.626926e+02
  -1.113799e+02  -3.619152e+02
   2.227418e+02  -2.035950e+02
   3.818389e+02   4.389128e+01
   2.458201e+02   2.013975e+02
  -5.139222e+01   1.888151e+02
  -2.328020e+02   5.569519e+01
  -1.596562e+02  -5.428210e+01
   1.866629e+01  -3.677286e+01
   5.645114e+01   5.303830e+01
  -7.911417e+01   6.905010e+01
  -1.832232e+02  -3.549365e+01
  -9.251186e+01  -1.553625e+02
   1.155513e+02  -1.744598e+02
   2.366963e+02  -8.128943e+01
   1.697438e+02   6.671954e+01
  -1.808184e+01   2.026987e+02
  -1.908556e+02   2.435161e+02
  -2.481504e+02   1.219417e+02
  -1.732489e+02  -1.067609e+02
  -4.094422e+01  -2.640278e+02
   4.024159e+01  -2.352843e+02
   3.689126e+01  -1.090765e+02
   2.403111e+01  -4.928264e+01
   7.705354e+01  -7.225205e+01
   1.608067e+02  -5.156111e+01
   1.728549e+02   6.962500e+01
   7.598504e+01   1.798013e+02
  -6.057575e+01   1.455052e+02
  -1.383408e+02  -1.797964e+01
  -1.051120e+02  -1.673935e+02
   2.555955e+01  -1.807723e+02
   1.735210e+02  -5.354609e+01
   2.226817e+02   1.181298e+02
   1.204448e+02   2.169445e+02
  -4.499781e+01   1.926896e+02
  -1.284371e+02   1.008075e+02
  -1.042258e+02   4.007220e+01
  -9.363885e+01   3.945190e+01
  -1.831376e+02   2.969243e+01
  -2.811339e+02  -5.979289e+01
  -2.225206e+02  -2.041189e+02
   1.397937e+01  -3.029297e+02
   2.603776e+02  -2.755842e+02
   3.328672e+02  -1.240147e+02
   2.074643e+02   6.810803e+01
   2.020665e+01   1.815367e+02
  -7.163012e+01   1.477230e+02
  -2.223864e+01   2.541978e+01
   7.874576e+01  -4.070091e+01
   1.025043e+02   1.911105e+01
   1.445910e+01   1.081227e+02
  -8.890247e+01   8.607714e+01
  -8.948443e+01  -3.710246e+01
   1.687599e+01  -1.026374e+02
   1.175111e+02  -6.532403e+00
   1.065270e+02   1.651652e+02
  -1.705214e+01   2.378968e+02
  -1.659902e+02   1.398801e+02
  -2.410776e+02  -4.450192e+01
  -1.914188e+02  -1.781440e+02
  -4.725253e+01  -1.877373e+02
   8.658006e+01  -1.001601e+02
   1.094045e+02  -6.707520e+00
   2.903611e+01   1.300286e+01
  -3.835142e+01  -3.811540e+01
  -3.385350e+00  -8.042565e+01
   8.572896e+01  -5.184610e+01
   1.073457e+02   1.613308e+01
   2.677677e+01   4.125506e+01
  -5.614624e+01  -3.665630e+00
  -2.911775e+01  -6.084528e+01
   9.875568e+01  -5.970489e+01
   2.048169e+02   1.283057e+01
   1.778674e+02   1.134548e+02
   2.381459e+01   1.801887e+02
  -1.400551e+02   1.655776e+02
  -1.886289e+02   7.135141e+01
  -1.011806e+02  -3.294449e+01
   1.962602e+01  -5.978081e+01
   4.927606e+01   8.290674e-01
  -3.311702e+01   5.895344e+01
  -1.296944e+02   2.710466e+01
  -1.341439e+02  -7.208662e+01
  -4.060473e+01  -1.336277e+02
   6.263881e+01  -9.753558e+01
   8.983338e+01  -1.355826e+01
   3.623909e+01   2.595999e+01
  -2.634654e+01  -1.075478e+01
  -1.988811e+01  -7.131572e+01
   6.330150e+01  -8.013349e+01
   1.435979e+02  -1.046103e+01
   1.269103e+02   9.189095e+01
   8.406122e+00   1.458779e+02
  -1.099800e+02   1.059004e+02
  -1.242722e+02   6.323836e+00
  -3.987860e+01  -6.907605e+01
   4.365627e+01  -6.849277e+01
   5.075025e+01  -1.801535e+01
   3.725891e+00   1.714108e+01
  -2.295540e+01   7.432466e+00
   6.633512e+00  -1.473015e+01
   5.845838e+01   1.063675e+00
   6.948260e+01   6.244832e+01
   7.376900e+00   1.187251e+02
  -9.663871e+01   1.051938e+02
  -1.640666e+02   8.548501e+00
  -1.338000e+02  -1.090378e+02
  -2.560223e+01  -1.595939e+02
   7.188787e+01  -1.117975e+02
   9.064532e+01  -2.037518e+01
   5.050341e+01   3.279180e+01
   2.253021e+01   2.143365e+01
   3.821789e+01  -9.368716e+00
   5.943542e+01  -4.341098e+00
   3.633410e+01   3.887450e+01
  -2.870054e+01   7.045983e+01
  -8.209423e+01   4.422998e+01
  -7.031078e+01  -3.003811e+01
   1.217662e+01  -8.666765e+01
   1.101945e+02  -6.080279e+01
   1.406438e+02   4.408727e+01
   6.020298e+01   1.457408e+02
  -8.425569e+01   1.536933e+02
  -1.851123e+02   5.751878e+01
  -1.705794e+02  -6.266030e+01
  -6.936478e+01  -1.183542e+02
   2.794190e+01  -9.660132e+01
   6.237987e+01  -5.562689e+01
   4.997656e+01  -4.812179e+01
   4.208796e+01  -6.472148e+01
   6.318556e+01  -5.392832e+01
   9.050769e+01   1.367639e+01
   8.163284e+01   1.068092e+02
   1.801958e+01   1.560260e+02
  -6.961018e+01   1.155631e+02
  -1.183123e+02   8.751606e+00
  -8.831970e+01  -8.733231e+01
  -7.404853e+00  -1.083335e+02
   5.095403e+01  -5.720191e+01
   4.261966e+01   7.747842e+00
  -1.655192e+00   3.515419e+01
  -1.601426e+01   2.424829e+01
   2.041756e+01   9.208256e+00
   5.762123e+01   1.347967e+01
   3.360463e+01   2.773255e+01
  -4.930180e+01   2.671731e+01
  -1.174768e+02  -1.518697e+00
  -9.913992e+01  -4.254575e+01
  -1.567692e+00  -6.589479e+01
   9.102721e+01  -5.008055e+01
   1.003708e+02  -4.429308e+00
   3.089858e+01   3.336448e+01
  -4.174962e+01   2.912777e+01
  -5.363734e+01  -1.290790e+01
  -1.108680e+01  -5.042750e+01
   3.370992e+01  -4.443364e+01
   4.674958e+01  -7.515695e-01
   3.772350e+01   3.537984e+01
   3.235051e+01   2.999776e+01
   3.921455e+01   1.365753e+00
   4.506629e+01   8.497060e-01
   2.900856e+01   4.969215e+01
  -2.007060e+01   1.046082e+02
  -8.590766e+01   9.963108e+01
  -1.224232e+02   2.229687e+01
  -8.887998e+01  -6.548626e+01
  -1.646368e+00  -9.090900e+01
   6.338911e+01  -4.637521e+01
   4.279306e+01   8.227631e+00
  -4.033681e+01   1.405814e+01
  -9.280389e+01  -2.918010e+01
  -4.918722e+01  -7.354785e+01
   5.748034e+01  -7.538634e+01
   1.305516e+02  -3.098647e+01
   1.085094e+02   2.744973e+01
   2.185866e+01   5.885880e+01
  -4.377454e+01   4.323970e+01
  -3.339828e+01   3.528832e-01
   2.765262e+01  -2.071553e+01
   6.375397e+01   1.401827e+01
   2.653821e+01   8.041981e+01
  -5.650142e+01   1.076026e+02
  -1.103885e+02   4.771317e+01
  -8.751149e+01  -6.427350e+01
  -1.047104e+01  -1.333789e+02
   5.704088e+01  -9.737119e+01
   7.157654e+01   7.294352e+00
   3.849440e+01   8.246469e+01
  -7.416340e+00   7.110755e+01
  -3.458404e+01   1.074324e+01
  -3.221186e+01  -2.201563e+01
  -1.304148e+01  -5.123220e+00
  -3.728498e+00   1.249929e+01
  -1.923209e+01  -1.391248e+01
  -3.933524e+01  -6.191327e+01
  -2.360271e+01  -7.285240e+01
   3.708017e+01  -2.936089e+01
   9.385854e+01   2.605057e+01
   8.560866e+01   4.797566e+01
   1.241052e+01   3.614775e+01
  -5.669146e+01   1.736448e+01
  -5.978094e+01   4.199768e+00
  -1.085355e+01  -7.476848e+00
   2.433291e+01  -1.497262e+01
   1.245689e+01  -9.528002e+00
  -1.129344e+01   2.471190e+00
   2.496805e+00   4.330560e+00
   4.717180e+01  -1.493599e-01
   6.391910e+01   1.521908e+01
   1.296981e+01   5.598576e+01
  -7.564964e+01   8.121353e+01
  -1.293566e+02   4.482976e+01
  -1.038886e+02  -4.168423e+01
  -2.160924e+01  -1.102384e+02
   5.505596e+01  -1.062230e+02
   8.009939e+01  -4.431888e+01
   5.561861e+01   1.341935e+01
   1.800382e+01   2.578264e+01
   7.701741e-01   8.456466e+00
   8.898884e+00   5.213980e+00
   2.124264e+01   3.323702e+01
   1.309051e+01   6.248558e+01
  -2.006728e+01   4.948235e+01
  -5.454070e+01  -1.064313e+01
  -5.502802e+01  -7.089304e+01
  -8.600612e+00  -7.648903e+01
   5.279464e+01  -2.122383e+01
   7.281257e+01   4.605145e+01
   2.673368e+01   7.111627e+01
  -4.443464e+01   4.326588e+01
  -7.078716e+01  -5.744395e+00
  -3.049813e+01  -3.886418e+01
   2.345984e+01  -4.101702e+01
   2.625952e+01  -1.989059e+01
  -1.932124e+01   3.481460e+00
  -4.724345e+01   6.030073e+00
  -1.215038e+01  -1.847198e+01
   5.399351e+01  -4.540715e+01
   8.227285e+01  -3.762881e+01
   4.785880e+01   1.089288e+01
  -9.493565e+00   5.838469e+01
  -3.906429e+01   5.675560e+01
  -2.989136e+01   7.708894e+00
  -4.333968e+00  -3.664971e+01
   1.655777e+01  -3.252573e+01
   2.550063e+01   8.212810e+00
   1.954964e+01   3.703324e+01
  -8.345327e-01   2.638617e+01
  -2.303987e+01  -3.887642e+00
  -2.855837e+01  -1.674056e+01
  -1.425727e+01  -2.717779e+00
   2.125639e+00   1.286543e+01
   4.412624e+00   4.027928e+00
  -1.241466e+00  -2.287385e+01
   3.179167e+00  -3.535641e+01
   1.956829e+01  -1.309310e+01
   2.685593e+01   2.568496e+01
   6.802353e+00   4.159062e+01
  -2.842425e+01   1.718990e+01
  -4.250387e+01  -2.359712e+01
  -1.303289e+01  -4.202503e+01
   3.880910e+01  -2.471188e+01
   6.373587e+01   8.209997e+00
   3.497885e+01   2.977833e+01
  -1.966939e+01   3.078360e+01
  -4.499136e+01   1.861275e+01
  -1.924866e+01   4.482049e+00
   2.103098e+01  -1.737447e+00
   2.394619e+01   5.630569e+00
  -1.692112e+01   1.862206e+01
  -5.587502e+01   1.485303e+01
