
 $NMID
 id='ANONYMOUS ', fmtdat='(2E16.6)'
 volume=1.0
 tramp=1.0
 $END
   1.859831e+03   1.621665e+01
   1.110428e+03   1.099190e+03
  -2.616920e+02   1.188563e+03
  -8.840955e+02   4.461733e+02
  -4.469576e+02  -2.126691e+02
   2.190194e+02  -2.309629e+02
   3.513249e+02   1.582813e+02
   4.103905e+00   4.311658e+02
  -3.401470e+02   3.346744e+02
  -3.998169e+02  -2.632341e+01
  -2.029677e+02  -3.596377e+02
   8.649245e+01  -3.835633e+02
   2.570239e+02  -6.192729e+01
   1.599491e+02   2.960440e+02
  -1.091716e+02   3.208454e+02
  -2.575476e+02   5.083249e+00
  -1.254632e+02  -2.939411e+02
   1.319782e+02  -2.909688e+02
   2.596411e+02  -5.977974e+01
   1.844203e+02   1.464023e+02
   1.818417e+01   1.944320e+02
  -9.930894e+01   1.191565e+02
  -8.292722e+01   1.612060e+01
   5.625360e+01  -1.567180e+01
   1.660861e+02   7.144238e+01
   6.370561e+01   1.862160e+02
  -2.099175e+02   1.551238e+02
  -3.572422e+02  -5.025335e+01
  -1.719904e+02  -2.296155e+02
   1.700503e+02  -1.870155e+02
   3.107796e+02   2.919655e+01
   1.386969e+02   2.069965e+02
  -1.282818e+02   2.156229e+02
  -2.468539e+02   8.094147e+01
  -1.792759e+02  -9.856676e+01
  -3.303239e+01  -1.998114e+02
   7.261459e+01  -1.209268e+02
   5.568785e+01   8.180213e+01
  -7.505828e+01   1.666545e+02
  -1.736496e+02  -2.105083e+01
  -8.369929e+01  -2.877470e+02
   1.390218e+02  -2.906405e+02
   2.457261e+02  -2.085693e+00
   1.036974e+02   2.262113e+02
  -1.165181e+02   1.268303e+02
  -1.508762e+02  -1.408768e+02
   3.755808e+01  -2.307056e+02
   2.407112e+02  -5.070851e+01
   2.563326e+02   1.852251e+02
   7.100949e+01   2.590125e+02
  -1.669224e+02   1.478317e+02
  -2.747019e+02  -3.614018e+01
  -1.669291e+02  -1.637987e+02
   5.852816e+01  -1.528710e+02
   1.868538e+02  -2.819443e+01
   1.103036e+02   7.297185e+01
  -3.910449e+01   4.198457e+01
  -5.672714e+01  -5.766591e+01
   6.655290e+01  -7.168471e+01
   1.457660e+02   3.114861e+01
   6.281490e+01   1.263119e+02
  -8.988911e+01   1.163749e+02
  -1.550231e+02   3.654584e+01
  -9.586175e+01  -4.424340e+01
   1.616502e+01  -1.122216e+02
   1.128884e+02  -1.483364e+02
   1.576110e+02  -8.915481e+01
   1.246539e+02   6.620970e+01
   3.081325e+01   1.904144e+02
  -4.578435e+01   1.692727e+02
  -4.721305e+01   5.956335e+01
  -1.541757e+01   7.126994e+00
  -3.137793e+01   3.976726e+01
  -9.387123e+01   4.783238e+01
  -1.206520e+02  -3.270627e+01
  -6.317917e+01  -1.214063e+02
   3.572827e+01  -1.089511e+02
   9.853381e+01   1.715270e+00
   8.111497e+01   1.101648e+02
  -1.018812e+01   1.283629e+02
  -1.187652e+02   4.543499e+01
  -1.569597e+02  -7.860792e+01
  -8.138447e+01  -1.554846e+02
   4.173196e+01  -1.358050e+02
   9.899669e+01  -5.839547e+01
   7.047437e+01  -9.149263e+00
   5.168992e+01  -1.716752e+01
   1.107844e+02  -2.302964e+01
   1.814868e+02   3.412489e+01
   1.465353e+02   1.335617e+02
  -7.438502e+00   1.998191e+02
  -1.691386e+02   1.817555e+02
  -2.218751e+02   8.395620e+01
  -1.464735e+02  -4.496018e+01
  -1.946556e+01  -1.287699e+02
   5.620306e+01  -1.089708e+02
   3.031232e+01  -1.544628e+01
  -5.007404e+01   4.068307e+01
  -8.160854e+01  -6.153774e+00
  -1.812854e+01  -8.301333e+01
   6.873159e+01  -7.099650e+01
   7.403269e+01   2.659831e+01
  -9.231257e+00   8.102442e+01
  -8.454514e+01   1.057421e+01
  -7.113748e+01  -1.126038e+02
   1.633132e+01  -1.579764e+02
   1.082676e+02  -8.648331e+01
   1.507135e+02   3.251433e+01
   1.230162e+02   1.135561e+02
   3.646859e+01   1.208140e+02
  -5.420224e+01   6.918467e+01
  -7.779419e+01   6.909700e+00
  -2.447831e+01  -1.272220e+01
   2.878798e+01   2.014081e+01
   9.022321e+00   5.513551e+01
  -5.651799e+01   4.073212e+01
  -7.746712e+01  -8.151158e+00
  -2.347915e+01  -3.109567e+01
   3.600317e+01  -3.640319e+00
   2.207021e+01   3.539602e+01
  -5.949931e+01   3.750394e+01
  -1.291700e+02  -5.837236e+00
  -1.163842e+02  -6.903123e+01
  -2.112630e+01  -1.160883e+02
   8.783070e+01  -1.131261e+02
   1.276522e+02  -5.197622e+01
   7.368537e+01   2.361285e+01
  -1.188631e+01   4.629840e+01
  -3.840927e+01   2.313579e+00
   1.732823e+01  -4.309815e+01
   8.765614e+01  -2.275266e+01
   9.333916e+01   4.802610e+01
   2.872273e+01   9.273697e+01
  -4.320522e+01   6.880085e+01
  -6.348793e+01   1.110135e+01
  -2.935161e+01  -1.839653e+01
   1.345704e+01   1.730062e+00
   1.440261e+01   4.040897e+01
  -3.616634e+01   5.022921e+01
  -9.072246e+01   9.198985e+00
  -8.433445e+01  -5.851362e+01
  -6.815345e+00  -9.781004e+01
   7.501470e+01  -7.180822e+01
   8.639870e+01  -2.074159e+00
   2.816490e+01   5.042111e+01
  -3.040280e+01   4.860258e+01
  -3.667394e+01   1.292058e+01
  -6.463864e+00  -1.141009e+01
   1.126399e+01  -6.840982e+00
  -4.844804e+00   5.346089e+00
  -3.399652e+01  -3.959900e+00
  -4.055061e+01  -3.925033e+01
  -4.455832e+00  -7.328261e+01
   6.010216e+01  -6.733566e+01
   1.058939e+02  -7.804362e+00
   8.870353e+01   7.029189e+01
   1.656379e+01   1.067911e+02
  -4.989919e+01   7.515033e+01
  -6.129932e+01   1.165144e+01
  -3.212192e+01  -2.480692e+01
  -1.333462e+01  -1.597503e+01
  -2.456014e+01   5.168685e+00
  -3.696322e+01   2.001180e+00
  -1.975221e+01  -2.402692e+01
   2.017017e+01  -4.125936e+01
   4.920102e+01  -2.478429e+01
   4.026594e+01   1.827432e+01
  -7.984246e+00   5.161000e+01
  -6.710292e+01   3.737694e+01
  -8.908084e+01  -2.649808e+01
  -4.169461e+01  -9.266166e+01
   5.178017e+01  -1.011637e+02
   1.212295e+02  -3.957310e+01
   1.142653e+02   4.129224e+01
   4.711771e+01   7.991041e+01
  -1.877916e+01   6.530179e+01
  -4.284618e+01   3.693838e+01
  -3.557212e+01   3.099009e+01
  -3.027856e+01   4.107367e+01
  -4.238105e+01   3.325752e+01
  -5.818332e+01  -1.084755e+01
  -5.186310e+01  -7.071392e+01
  -1.097707e+01  -1.022897e+02
   4.620975e+01  -7.628926e+01
   7.872163e+01  -6.873654e+00
   5.934543e+01   5.659333e+01
   6.253906e+00   7.172324e+01
  -3.183871e+01   3.969413e+01
  -2.707936e+01  -1.900943e+00
  -5.978789e-01  -2.025729e+01
   6.813362e+00  -1.524251e+01
  -1.538961e+01  -7.697912e+00
  -3.623530e+01  -1.063581e+01
  -2.033698e+01  -1.802091e+01
   3.019625e+01  -1.612312e+01
   7.282142e+01   1.107297e+00
   6.393901e+01   2.584023e+01
   4.142081e+00   4.068814e+01
  -5.658059e+01   3.184311e+01
  -6.546291e+01   3.825355e+00
  -2.080357e+01  -1.982571e+01
   2.763875e+01  -1.704197e+01
   3.433797e+01   9.232665e+00
   3.947126e+00   3.179968e+01
  -2.484061e+01   2.673340e+01
  -2.925145e+01  -1.156134e+00
  -2.092551e+01  -2.342062e+01
  -1.966819e+01  -1.958564e+01
  -2.700904e+01  -1.418466e+00
  -2.968940e+01  -9.361848e-01
  -1.613015e+01  -3.160431e+01
   1.570040e+01  -6.629489e+01
   5.490755e+01  -6.283544e+01
   7.612898e+01  -1.305119e+01
   5.542625e+01   4.280735e+01
   1.127349e+00   5.758717e+01
  -4.026782e+01   2.762600e+01
  -2.725704e+01  -6.894695e+00
   2.673235e+01  -8.590436e+00
   6.120343e+01   2.053153e+01
   3.266522e+01   4.880815e+01
  -3.761127e+01   4.945636e+01
  -8.610121e+01   2.083901e+01
  -7.213306e+01  -1.733251e+01
  -1.532699e+01  -3.906390e+01
   2.822908e+01  -3.001443e+01
   2.191452e+01  -1.949296e+00
  -1.795250e+01   1.220216e+01
  -4.093138e+01  -1.064577e+01
  -1.468055e+01  -5.359014e+01
   4.117724e+01  -6.921163e+01
   7.508690e+01  -2.782312e+01
   5.644280e+01   4.533109e+01
   3.762610e+00   8.862773e+01
  -3.929154e+01   6.388508e+01
  -4.687097e+01  -4.435089e+00
  -2.561114e+01  -5.377358e+01
   2.885447e+00  -4.728365e+01
   2.132259e+01  -7.958694e+00
   2.241584e+01   1.447637e+01
   1.066197e+01   3.763245e+00
   2.096426e+00  -8.861251e+00
   1.004175e+01   7.862023e+00
   2.448713e+01   4.057726e+01
   1.700343e+01   4.894483e+01
  -2.240339e+01   1.942772e+01
  -6.170260e+01  -1.870554e+01
  -5.715802e+01  -3.278567e+01
  -7.474317e+00  -2.294045e+01
   3.909663e+01  -9.780928e+00
   3.961208e+01  -2.499560e+00
   5.415551e+00   4.017998e+00
  -1.710165e+01   9.719848e+00
  -6.966851e+00   7.364148e+00
   9.000702e+00  -9.010224e-01
  -2.274328e+00  -3.702798e+00
  -3.270702e+01  -1.717438e+00
  -4.120342e+01  -1.136210e+01
  -4.483073e+00  -3.660710e+01
   5.328583e+01  -5.104447e+01
   8.452526e+01  -2.545752e+01
   6.457198e+01   3.091257e+01
   1.092546e+01   7.300859e+01
  -3.716924e+01   6.728791e+01
  -5.236007e+01   2.602940e+01
  -3.614630e+01  -1.015805e+01
  -1.099533e+01  -1.646994e+01
   9.465999e-01  -4.488136e+00
  -4.840003e+00  -2.472484e+00
  -1.409511e+01  -2.115445e+01
  -8.864821e+00  -4.070607e+01
   1.379563e+01  -3.198616e+01
   3.613810e+01   8.611844e+00
   3.419158e+01   4.877239e+01
   2.048318e+00   5.056590e+01
  -3.665853e+01   1.105463e+01
  -4.622984e+01  -3.377858e+01
  -1.439038e+01  -4.699591e+01
   3.033236e+01  -2.543986e+01
   4.467260e+01   5.898516e+00
   1.769361e+01   2.406464e+01
  -1.560252e+01   2.401584e+01
  -1.530082e+01   1.229679e+01
   1.460252e+01  -6.819634e-01
   3.118762e+01  -2.666977e+00
   6.803147e+00   1.173276e+01
  -3.612186e+01   2.894698e+01
  -5.294710e+01   2.462316e+01
  -2.926454e+01  -6.651614e+00
   7.648631e+00  -3.747431e+01
   2.516855e+01  -3.551529e+01
   1.772157e+01  -2.791344e+00
   8.748606e-01   2.489438e+01
  -1.185735e+01   1.967445e+01
  -1.644580e+01  -7.706289e+00
  -1.168269e+01  -2.454425e+01
   1.498922e+00  -1.553663e+01
   1.492893e+01   3.760200e+00
   1.779666e+01   1.033721e+01
   9.187036e+00   1.086310e+00
  -3.981397e-01  -7.058586e+00
  -2.802537e+00   5.157179e-02
  -2.039660e+00   1.612737e+01
  -6.356022e+00   2.118765e+01
  -1.432802e+01   4.840187e+00
  -1.460218e+01  -1.966584e+01
  -1.833163e-01  -2.761322e+01
   1.990127e+01  -9.519124e+00
   2.587921e+01   1.763102e+01
   6.580981e+00   2.832874e+01
  -2.524872e+01   1.497134e+01
  -4.038631e+01  -7.406892e+00
  -2.189145e+01  -2.020983e+01
   1.341403e+01  -1.859279e+01
   2.955584e+01  -9.751618e+00
   1.150062e+01  -2.071662e+00
  -1.590335e+01  -5.129404e-01
  -1.658814e+01  -6.293638e+00
   1.313465e+01  -1.331809e+01
   3.982124e+01  -8.504401e+00
