
 $NMID
 id='ANONYMOUS ', fmtdat='(2E16.6)'
 volume=1.0
 tramp=1.0
 $END
   4.809458e+03  -1.853535e+01
   2.749814e+03   2.985163e+03
  -9.686802e+02   3.071010e+03
  -2.458785e+03   8.321115e+02
  -1.009232e+03  -9.367117e+02
   8.673389e+02  -7.259849e+02
   1.077126e+03   5.359166e+02
  -2.040617e+01   1.254938e+03
  -9.705682e+02   8.689717e+02
  -1.062334e+03  -1.545207e+02
  -4.726735e+02  -1.002477e+03
   3.252580e+02  -9.977354e+02
   7.607114e+02  -1.031402e+02
   4.391530e+02   8.330293e+02
  -3.272834e+02   8.392945e+02
  -6.923937e+02  -3.295795e+01
  -2.736163e+02  -7.700152e+02
   4.025510e+02  -6.666847e+02
   6.489355e+02  -3.964188e+01
   3.897325e+02   4.237417e+02
  -1.826651e+01   4.803393e+02
  -2.877087e+02   2.800478e+02
  -2.624244e+02   3.828735e+00
   9.285440e+01  -1.349856e+02
   4.495190e+02   7.201270e+01
   2.622498e+02   4.595739e+02
  -4.687603e+02   4.892273e+02
  -9.423519e+02  -4.809185e+01
  -5.051332e+02  -6.179348e+02
   4.208812e+02  -5.777638e+02
   8.364941e+02   9.267031e+00
   4.031092e+02   5.310801e+02
  -2.979202e+02   5.817947e+02
  -6.186002e+02   2.277131e+02
  -4.590676e+02  -2.568005e+02
  -7.150677e+01  -5.403938e+02
   2.518527e+02  -3.285542e+02
   2.391708e+02   2.531104e+02
  -1.603952e+02   5.279800e+02
  -5.245341e+02   2.007469e+01
  -3.178675e+02  -7.529243e+02
   3.469906e+02  -8.022319e+02
   7.056180e+02  -1.162799e+01
   3.134793e+02   6.393024e+02
  -3.372358e+02   3.855599e+02
  -4.581224e+02  -3.454120e+02
   5.609952e+01  -6.097885e+02
   6.048566e+02  -1.633292e+02
   6.452674e+02   4.334098e+02
   1.732355e+02   6.346265e+02
  -4.203464e+02   3.815266e+02
  -6.847261e+02  -8.139673e+01
  -4.010415e+02  -4.388250e+02
   1.871440e+02  -4.217838e+02
   5.066685e+02  -5.323444e+01
   2.650576e+02   2.528385e+02
  -1.561163e+02   1.409114e+02
  -1.808434e+02  -1.867992e+02
   1.852632e+02  -2.334747e+02
   3.966044e+02   8.185502e+01
   1.546425e+02   3.432879e+02
  -2.302232e+02   2.733347e+02
  -3.446501e+02   5.166985e+01
  -1.800513e+02  -9.178761e+01
   3.635168e+01  -2.007967e+02
   2.101569e+02  -3.159344e+02
   3.365218e+02  -2.380173e+02
   3.155074e+02   1.309827e+02
   9.297598e+01   4.722974e+02
  -1.415144e+02   4.221552e+02
  -1.597965e+02   1.048169e+02
  -3.054644e+01  -4.753292e+01
  -1.748900e+01   7.478605e+01
  -1.798234e+02   1.528375e+02
  -2.951881e+02  -3.168764e+01
  -1.862621e+02  -2.795210e+02
   6.320323e+01  -2.840754e+02
   2.438035e+02  -2.904218e+01
   2.232002e+02   2.445929e+02
   3.044542e+00   3.165800e+02
  -2.784380e+02   1.380312e+02
  -3.885795e+02  -1.691189e+02
  -2.007779e+02  -3.788143e+02
   1.159396e+02  -3.328300e+02
   2.560054e+02  -1.181769e+02
   1.619181e+02   1.809984e+01
   8.931771e+01  -2.152673e+01
   2.246514e+02  -7.099618e+01
   4.055460e+02   4.917930e+01
   3.430005e+02   2.891454e+02
   3.420202e+00   4.548345e+02
  -3.633092e+02   4.265662e+02
  -5.036972e+02   2.135299e+02
  -3.610217e+02  -9.176794e+01
  -6.910045e+01  -3.148579e+02
   1.433239e+02  -2.805773e+02
   1.075711e+02  -3.237177e+01
  -1.073249e+02   1.320293e+02
  -2.224752e+02   7.423050e+00
  -6.844229e+01  -2.180968e+02
   1.779924e+02  -2.020351e+02
   2.085141e+02   6.170557e+01
  -1.119700e+01   2.191653e+02
  -2.099803e+02   4.595878e+01
  -1.723485e+02  -2.597216e+02
   3.778498e+01  -3.623949e+02
   2.354236e+02  -1.903779e+02
   3.234110e+02   6.916733e+01
   2.806073e+02   2.378544e+02
   1.063013e+02   2.645006e+02
  -1.106076e+02   1.697869e+02
  -1.909156e+02   2.757584e+01
  -6.980256e+01  -3.818323e+01
   7.649595e+01   3.107713e+01
   4.200335e+01   1.306649e+02
  -1.258596e+02   1.137458e+02
  -1.940007e+02  -6.773571e+00
  -7.026784e+01  -7.939496e+01
   7.955190e+01  -2.673868e+01
   6.079949e+01   6.687302e+01
  -1.175873e+02   8.572748e+01
  -2.790762e+02   4.304762e+00
  -2.681386e+02  -1.327103e+02
  -7.134006e+01  -2.556347e+02
   1.794321e+02  -2.744939e+02
   2.947772e+02  -1.403909e+02
   1.868715e+02   5.343356e+01
  -2.140646e+01   1.238395e+02
  -1.025347e+02   1.495604e+01
   2.487801e+01  -1.105828e+02
   2.033226e+02  -7.086032e+01
   2.282614e+02   1.035267e+02
   7.703601e+01   2.204382e+02
  -9.807733e+01   1.709660e+02
  -1.544641e+02   3.528920e+01
  -8.195468e+01  -4.335083e+01
   2.126754e+01  -1.130020e+01
   3.993703e+01   7.384471e+01
  -6.361762e+01   1.108770e+02
  -1.954415e+02   3.438678e+01
  -1.980728e+02  -1.210025e+02
  -2.627750e+01  -2.259183e+02
   1.713335e+02  -1.738158e+02
   2.072617e+02  -5.665848e+00
   7.220017e+01   1.249944e+02
  -6.974395e+01   1.214252e+02
  -9.061930e+01   3.455321e+01
  -2.583466e+01  -2.612656e+01
   1.534073e+01  -2.182652e+01
  -1.130419e+01   1.287353e+00
  -6.551495e+01  -1.415437e+01
  -8.192964e+01  -8.043261e+01
  -1.541183e+01  -1.532408e+02
   1.217047e+02  -1.528952e+02
   2.342868e+02  -3.188832e+01
   2.084283e+02   1.486003e+02
   4.506165e+01   2.452107e+02
  -1.139670e+02   1.780256e+02
  -1.420343e+02   2.656302e+01
  -7.154463e+01  -6.183813e+01
  -2.744691e+01  -3.978301e+01
  -5.362600e+01   1.116454e+01
  -7.799814e+01   5.502769e+00
  -3.616498e+01  -4.843468e+01
   4.517232e+01  -8.184705e+01
   9.668288e+01  -4.950318e+01
   7.745619e+01   3.372965e+01
  -1.333419e+01   1.036769e+02
  -1.349299e+02   8.385243e+01
  -1.953439e+02  -4.616368e+01
  -1.075142e+02  -1.985965e+02
   9.993641e+01  -2.338268e+02
   2.702910e+02  -1.037597e+02
   2.673811e+02   8.490906e+01
   1.166542e+02   1.827314e+02
  -3.858880e+01   1.538775e+02
  -9.882448e+01   8.775495e+01
  -8.497769e+01   7.100942e+01
  -7.182728e+01   9.129758e+01
  -9.522209e+01   7.290829e+01
  -1.289774e+02  -2.456875e+01
  -1.183171e+02  -1.570401e+02
  -3.075200e+01  -2.298576e+02
   9.974432e+01  -1.771213e+02
   1.802015e+02  -2.457080e+01
   1.422119e+02   1.214440e+02
   2.334457e+01   1.633120e+02
  -6.489788e+01   9.792979e+01
  -5.939194e+01   6.149518e+00
  -7.607750e+00  -3.866521e+01
   4.594177e+00  -3.366262e+01
  -4.031782e+01  -2.064977e+01
  -7.844320e+01  -2.558028e+01
  -4.297880e+01  -3.844568e+01
   6.122560e+01  -3.543421e+01
   1.535928e+02  -3.474139e+00
   1.438455e+02   4.781857e+01
   2.088725e+01   8.536160e+01
  -1.170577e+02   7.415326e+01
  -1.466455e+02   1.625142e+01
  -5.015857e+01  -3.786835e+01
   6.147454e+01  -3.533311e+01
   7.600564e+01   1.999530e+01
   3.020042e+00   6.782687e+01
  -6.072163e+01   5.582043e+01
  -6.231614e+01  -4.374364e+00
  -3.925253e+01  -5.134309e+01
  -4.198040e+01  -4.225215e+01
  -6.435222e+01  -2.545198e+00
  -6.740004e+01  -7.438291e-01
  -3.158162e+01  -6.720401e+01
   3.645060e+01  -1.446759e+02
   1.149875e+02  -1.399231e+02
   1.599350e+02  -3.193144e+01
   1.211679e+02   9.154986e+01
   7.472750e+00   1.246811e+02
  -8.503728e+01   5.853157e+01
  -5.983300e+01  -1.716767e+01
   6.031182e+01  -1.986642e+01
   1.405189e+02   4.511306e+01
   7.860583e+01   1.091092e+02
  -8.075562e+01   1.146881e+02
  -1.940146e+02   5.516758e+01
  -1.667896e+02  -3.177627e+01
  -4.020819e+01  -8.827003e+01
   6.029053e+01  -7.432171e+01
   4.953677e+01  -1.056587e+01
  -3.893230e+01   2.543041e+01
  -9.081965e+01  -2.442045e+01
  -3.029178e+01  -1.216939e+02
   9.791956e+01  -1.555635e+02
   1.738399e+02  -5.954704e+01
   1.282228e+02   1.059280e+02
   7.415822e+00   2.024035e+02
  -8.847263e+01   1.472018e+02
  -1.060197e+02  -5.379672e+00
  -6.306776e+01  -1.186020e+02
  -2.268216e+00  -1.088648e+02
   4.410564e+01  -2.216475e+01
   5.507367e+01   3.113968e+01
   2.975518e+01   8.921681e+00
   3.203804e+00  -2.191954e+01
   1.681296e+01   1.341273e+01
   5.513467e+01   8.943996e+01
   4.607164e+01   1.123142e+02
  -4.411852e+01   4.629568e+01
  -1.409796e+02  -4.151293e+01
  -1.341031e+02  -7.298664e+01
  -1.707021e+01  -4.914606e+01
   9.224013e+01  -2.083571e+01
   9.024265e+01  -8.090617e+00
   8.259013e+00   6.169556e+00
  -4.076790e+01   2.291806e+01
  -1.216894e+01   2.018523e+01
   2.427280e+01  -7.184342e-01
  -6.972654e+00  -1.047108e+01
  -7.832967e+01  -6.149678e+00
  -9.192041e+01  -2.585085e+01
  -2.682350e+00  -8.155215e+01
   1.254457e+02  -1.133479e+02
   1.875520e+02  -5.406953e+01
   1.386584e+02   7.346111e+01
   2.202810e+01   1.654173e+02
  -8.102984e+01   1.486191e+02
  -1.153532e+02   5.512358e+01
  -8.140649e+01  -2.351674e+01
  -2.408878e+01  -3.508531e+01
   5.400960e+00  -7.320859e+00
  -8.662937e+00  -2.646803e+00
  -3.399451e+01  -4.499679e+01
  -2.399941e+01  -9.051511e+01
   3.018386e+01  -7.203499e+01
   8.303398e+01   2.081178e+01
   7.592418e+01   1.130422e+02
  -6.522122e-01   1.146247e+02
  -8.679739e+01   2.026585e+01
  -1.027286e+02  -8.162145e+01
  -2.808994e+01  -1.055150e+02
   6.919230e+01  -5.214975e+01
   9.656818e+01   1.505768e+01
   3.607123e+01   4.899534e+01
  -3.355020e+01   4.800353e+01
  -2.853320e+01   2.726411e+01
   3.770580e+01   1.638885e+00
   7.057569e+01  -5.160996e+00
   1.333193e+01   2.483276e+01
  -8.098281e+01   6.599652e+01
  -1.149634e+02   5.976737e+01
  -6.118150e+01  -1.118490e+01
   1.785995e+01  -8.294587e+01
   5.264261e+01  -7.783144e+01
   3.468483e+01  -2.088450e+00
  -1.208709e+00   5.812089e+01
  -2.759005e+01   4.097917e+01
  -3.676365e+01  -2.203369e+01
  -2.536409e+01  -5.501412e+01
   4.402258e+00  -3.053305e+01
   3.339907e+01   1.039930e+01
   3.866704e+01   2.016456e+01
   2.048313e+01  -8.901573e-02
   9.511930e-01  -1.224063e+01
  -6.387570e+00   7.285656e+00
  -1.079788e+01   3.915146e+01
  -2.344104e+01   4.270889e+01
  -3.539206e+01   2.249845e+00
  -2.645932e+01  -5.016402e+01
   8.445844e+00  -6.271278e+01
   4.721920e+01  -1.841246e+01
   5.444284e+01   4.307290e+01
   1.195889e+01   6.518625e+01
  -5.514699e+01   3.264602e+01
  -8.789483e+01  -1.856152e+01
  -4.824990e+01  -4.551843e+01
   2.995045e+01  -3.887187e+01
   6.579985e+01  -1.803537e+01
   2.280837e+01  -3.481387e+00
  -4.119410e+01  -4.384657e+00
  -3.993349e+01  -1.968621e+01
   3.396276e+01  -3.372901e+01
   9.726393e+01  -1.882540e+01
