
 $NMID
 id='ANONYMOUS ', fmtdat='(2E16.6)'
 volume=1.0
 tramp=1.0
 $END
  -4.533857e+03   2.894750e+01
  -2.616646e+03  -2.743133e+03
   8.215029e+02  -2.859098e+03
   2.225501e+03  -8.550425e+02
   9.424251e+02   7.608697e+02
  -7.535253e+02   6.176875e+02
  -9.585188e+02  -4.882410e+02
   2.230779e+01  -1.142303e+03
   8.863710e+02  -8.107404e+02
   9.825654e+02   1.215926e+02
   4.542002e+02   9.161285e+02
  -2.759896e+02   9.264207e+02
  -6.841452e+02   1.032910e+02
  -4.029609e+02  -7.679637e+02
   2.933734e+02  -7.835787e+02
   6.393687e+02   1.903948e+01
   2.731863e+02   7.142389e+02
  -3.489865e+02   6.432666e+02
  -6.015148e+02   7.242881e+01
  -3.851395e+02  -3.742991e+02
  -4.605711e+00  -4.494658e+02
   2.579434e+02  -2.682310e+02
   2.301729e+02  -8.404161e+00
  -1.117669e+02   1.106697e+02
  -4.327748e+02  -9.595624e+01
  -2.278145e+02  -4.489336e+02
   4.681257e+02  -4.504493e+02
   8.929072e+02   6.282767e+01
   4.606770e+02   5.804009e+02
  -4.095716e+02   5.249803e+02
  -7.875167e+02  -2.479114e+01
  -3.717568e+02  -5.042767e+02
   2.886720e+02  -5.474433e+02
   5.881843e+02  -2.156443e+02
   4.343458e+02   2.380896e+02
   7.074599e+01   5.005027e+02
  -2.212346e+02   2.985095e+02
  -1.974652e+02  -2.386027e+02
   1.687650e+02  -4.778572e+02
   4.841730e+02   6.385290e+00
   2.768905e+02   7.175187e+02
  -3.316806e+02   7.458697e+02
  -6.472909e+02   4.373821e+00
  -2.803479e+02  -5.921311e+02
   3.136003e+02  -3.457937e+02
   4.185026e+02   3.358878e+02
  -6.133560e+01   5.761148e+02
  -5.768244e+02   1.512612e+02
  -6.198508e+02  -4.134575e+02
  -1.736047e+02  -6.037561e+02
   3.962118e+02  -3.630128e+02
   6.527891e+02   7.256968e+01
   3.855592e+02   4.030747e+02
  -1.682257e+02   3.868346e+02
  -4.681865e+02   5.482807e+01
  -2.477367e+02  -2.179214e+02
   1.365339e+02  -1.184232e+02
   1.579223e+02   1.697392e+02
  -1.758916e+02   2.070802e+02
  -3.686347e+02  -7.701429e+01
  -1.472645e+02  -3.170762e+02
   2.122050e+02  -2.656837e+02
   3.326588e+02  -6.836350e+01
   1.897570e+02   8.241336e+01
  -2.310335e+01   2.121716e+02
  -2.078405e+02   3.257609e+02
  -3.340666e+02   2.330272e+02
  -3.044728e+02  -1.306941e+02
  -8.935056e+01  -4.506797e+02
   1.231018e+02  -3.990307e+02
   1.341499e+02  -1.070161e+02
   2.295682e+01   2.692463e+01
   2.836242e+01  -8.556363e+01
   1.877911e+02  -1.455553e+02
   2.888962e+02   3.924873e+01
   1.755056e+02   2.735299e+02
  -6.548943e+01   2.708248e+02
  -2.362853e+02   2.172569e+01
  -2.131757e+02  -2.407159e+02
   7.652582e-01  -3.054891e+02
   2.710457e+02  -1.299636e+02
   3.752935e+02   1.633353e+02
   1.964206e+02   3.599738e+02
  -1.029396e+02   3.174345e+02
  -2.361068e+02   1.208244e+02
  -1.522504e+02  -3.138702e+00
  -9.209914e+01   3.209220e+01
  -2.279110e+02   7.305839e+01
  -4.028120e+02  -4.568631e+01
  -3.405127e+02  -2.796900e+02
  -7.943645e+00  -4.463535e+02
   3.525205e+02  -4.237082e+02
   4.898839e+02  -2.135353e+02
   3.478133e+02   8.822494e+01
   6.439555e+01   3.028453e+02
  -1.336819e+02   2.654091e+02
  -9.281555e+01   2.924195e+01
   1.092129e+02  -1.209724e+02
   2.094458e+02  -9.409453e-01
   5.980344e+01   2.067611e+02
  -1.686743e+02   1.864904e+02
  -1.932188e+02  -6.085331e+01
   1.371259e+01  -2.055282e+02
   2.018854e+02  -4.086871e+01
   1.705307e+02   2.498519e+02
  -2.880641e+01   3.533385e+02
  -2.273984e+02   1.944287e+02
  -3.231931e+02  -5.860118e+01
  -2.818460e+02  -2.314536e+02
  -1.045998e+02  -2.618179e+02
   1.093714e+02  -1.664320e+02
   1.833143e+02  -2.588892e+01
   6.361020e+01   3.505688e+01
  -7.432051e+01  -3.432558e+01
  -3.710782e+01  -1.280833e+02
   1.239519e+02  -1.082233e+02
   1.860110e+02   8.067274e+00
   6.431575e+01   7.579891e+01
  -8.030164e+01   2.300340e+01
  -5.979230e+01  -6.922492e+01
   1.178098e+02  -8.874652e+01
   2.787944e+02  -7.735428e+00
   2.670924e+02   1.306702e+02
   7.004600e+01   2.534292e+02
  -1.769559e+02   2.698848e+02
  -2.862178e+02   1.367497e+02
  -1.780502e+02  -5.069036e+01
   2.231185e+01  -1.168254e+02
   9.675398e+01  -1.199594e+01
  -2.766426e+01   1.069578e+02
  -1.983126e+02   6.777944e+01
  -2.212900e+02  -9.965956e+01
  -7.549179e+01  -2.122175e+02
   9.387968e+01  -1.649098e+02
   1.484335e+02  -3.365737e+01
   7.639525e+01   4.216739e+01
  -2.533262e+01   8.536182e+00
  -4.121596e+01  -7.726484e+01
   6.430456e+01  -1.132432e+02
   1.948607e+02  -3.577370e+01
   1.959228e+02   1.178025e+02
   2.725239e+01   2.203099e+02
  -1.644267e+02   1.703696e+02
  -1.990973e+02   8.455940e+00
  -6.948315e+01  -1.185005e+02
   6.663954e+01  -1.168516e+02
   8.628991e+01  -3.327092e+01
   2.261221e+01   2.644700e+01
  -1.828191e+01   2.134587e+01
   9.344210e+00  -4.557398e+00
   6.682646e+01   9.136781e+00
   8.594786e+01   7.758633e+01
   1.898835e+01   1.536743e+02
  -1.194079e+02   1.541460e+02
  -2.316700e+02   3.340993e+01
  -2.064197e+02  -1.443119e+02
  -4.713963e+01  -2.385273e+02
   1.079601e+02  -1.741572e+02
   1.371836e+02  -2.876820e+01
   7.084200e+01   5.691463e+01
   2.800019e+01   3.677619e+01
   5.259336e+01  -1.260871e+01
   7.780451e+01  -7.762455e+00
   3.976412e+01   4.690572e+01
  -4.064656e+01   8.436433e+01
  -9.648466e+01   5.464323e+01
  -8.145409e+01  -3.130207e+01
   1.001652e+01  -1.060057e+02
   1.345240e+02  -8.775833e+01
   1.956735e+02   4.349547e+01
   1.075696e+02   1.965042e+02
  -9.770407e+01   2.318567e+02
  -2.647622e+02   1.042777e+02
  -2.618972e+02  -8.031741e+01
  -1.151288e+02  -1.766339e+02
   3.604977e+01  -1.500374e+02
   9.452123e+01  -8.659302e+01
   8.017078e+01  -7.046650e+01
   6.681291e+01  -9.086286e+01
   9.113481e+01  -7.423468e+01
   1.273209e+02   2.054885e+01
   1.194408e+02   1.515748e+02
   3.402500e+01   2.251010e+02
  -9.525888e+01   1.747826e+02
  -1.761490e+02   2.539377e+01
  -1.404811e+02  -1.182906e+02
  -2.389899e+01  -1.600071e+02
   6.428581e+01  -9.591448e+01
   5.991967e+01  -4.706192e+00
   7.604186e+00   4.053929e+01
  -6.656036e+00   3.479610e+01
   3.783372e+01   1.909175e+01
   7.801729e+01   2.218174e+01
   4.409481e+01   3.675801e+01
  -6.083595e+01   3.738991e+01
  -1.539973e+02   6.948453e+00
  -1.434178e+02  -4.621757e+01
  -2.011316e+01  -8.646651e+01
   1.160139e+02  -7.619478e+01
   1.443770e+02  -1.739482e+01
   5.002469e+01   3.824217e+01
  -5.904404e+01   3.704236e+01
  -7.532500e+01  -1.774082e+01
  -6.840314e+00  -6.649749e+01
   5.602372e+01  -5.663687e+01
   6.182007e+01   1.733818e+00
   4.210397e+01   4.851587e+01
   4.302432e+01   4.049859e+01
   6.209007e+01   1.621987e+00
   6.598773e+01  -4.452506e-01
   3.446598e+01   6.540883e+01
  -3.114035e+01   1.435622e+02
  -1.113129e+02   1.413803e+02
  -1.593241e+02   3.608090e+01
  -1.225013e+02  -8.745120e+01
  -9.664098e+00  -1.239242e+02
   8.283038e+01  -6.120132e+01
   5.914664e+01   1.463786e+01
  -5.855220e+01   2.073603e+01
  -1.379369e+02  -4.141593e+01
  -7.821721e+01  -1.057730e+02
   7.780707e+01  -1.137728e+02
   1.895935e+02  -5.631129e+01
   1.637276e+02   2.972941e+01
   3.980520e+01   8.610351e+01
  -5.908178e+01   7.271538e+01
  -4.904315e+01   9.745446e+00
   3.759056e+01  -2.662789e+01
   8.975119e+01   2.134709e+01
   3.324033e+01   1.175998e+02
  -9.045578e+01   1.538748e+02
  -1.667719e+02   6.267910e+01
  -1.271186e+02  -9.954718e+01
  -1.207815e+01  -1.968332e+02
   8.343916e+01  -1.451835e+02
   1.043694e+02   4.066624e+00
   6.339729e+01   1.159714e+02
   2.012580e+00   1.070236e+02
  -4.434006e+01   2.211010e+01
  -5.352460e+01  -3.020483e+01
  -2.761063e+01  -8.711339e+00
  -3.320747e+00   2.117665e+01
  -1.905991e+01  -1.309300e+01
  -5.639357e+01  -8.669350e+01
  -4.526660e+01  -1.092698e+02
   4.421062e+01  -4.655270e+01
   1.384151e+02   3.763990e+01
   1.315284e+02   6.914952e+01
   1.819304e+01   4.841008e+01
  -8.833856e+01   2.235674e+01
  -8.813294e+01   9.256227e+00
  -9.776386e+00  -6.083766e+00
   3.882142e+01  -2.278625e+01
   1.294461e+01  -1.952194e+01
  -2.238612e+01   1.085689e+00
   6.233939e+00   9.731153e+00
   7.509371e+01   4.134390e+00
   9.074955e+01   2.284293e+01
   6.864081e+00   7.887484e+01
  -1.181444e+02   1.135895e+02
  -1.824564e+02   5.879896e+01
  -1.387891e+02  -6.638720e+01
  -2.616871e+01  -1.605979e+02
   7.597657e+01  -1.485662e+02
   1.117097e+02  -5.810301e+01
   8.010319e+01   2.083558e+01
   2.490178e+01   3.420680e+01
  -3.761359e+00   7.613608e+00
   9.604769e+00   2.888360e+00
   3.408739e+01   4.426947e+01
   2.469219e+01   8.886914e+01
  -2.802155e+01   7.132248e+01
  -8.104427e+01  -1.816765e+01
  -7.685755e+01  -1.076429e+02
  -3.554049e+00  -1.111493e+02
   8.251354e+01  -2.264471e+01
   1.020552e+02   7.554007e+01
   3.132983e+01   1.019833e+02
  -6.540428e+01   5.403840e+01
  -9.571886e+01  -1.127822e+01
  -3.831546e+01  -4.798271e+01
   3.121388e+01  -4.974387e+01
   2.887911e+01  -2.834966e+01
  -3.507644e+01  -4.780083e-01
  -6.868450e+01   6.960139e+00
  -1.444689e+01  -2.412969e+01
   7.782449e+01  -6.634727e+01
   1.128451e+02  -6.064784e+01
   6.202154e+01   9.847467e+00
  -1.505496e+01   8.188762e+01
  -5.043706e+01   7.861555e+01
  -3.475918e+01   4.852535e+00
  -8.443685e-01  -5.582497e+01
   2.524812e+01  -4.157859e+01
   3.589149e+01   1.927551e+01
   2.645828e+01   5.312863e+01
  -2.617844e+00   3.109877e+01
  -3.270314e+01  -8.772373e+00
  -3.917085e+01  -1.946755e+01
  -2.046161e+01  -1.100672e-01
   4.304661e-01   1.277355e+01
   7.094264e+00  -5.216864e+00
   8.243313e+00  -3.684126e+01
   1.854242e+01  -4.244805e+01
   3.240555e+01  -5.085203e+00
   2.808599e+01   4.580082e+01
  -4.272063e+00   6.010277e+01
  -4.460803e+01   1.967631e+01
  -5.490901e+01  -3.927914e+01
  -1.390262e+01  -6.265277e+01
   5.347946e+01  -3.383170e+01
   8.702452e+01   1.502896e+01
   4.860306e+01   4.319180e+01
  -2.798423e+01   3.964785e+01
  -6.356555e+01   2.047943e+01
  -2.293720e+01   4.751081e+00
   3.838722e+01   3.144498e+00
   3.799688e+01   1.707893e+01
  -3.168697e+01   3.210860e+01
  -9.245579e+01   1.977039e+01
