
 $NMID
 id='ANONYMOUS ', fmtdat='(2E16.6)'
 volume=1.0
 tramp=1.0
 $END
  -3.883323e+03  -6.580271e+01
  -2.346702e+03  -2.213055e+03
   4.169027e+02  -2.438391e+03
   1.723211e+03  -1.049014e+03
   9.453501e+02   2.511434e+02
  -3.388479e+02   3.829691e+02
  -6.391230e+02  -2.962093e+02
  -2.807031e+00  -8.314544e+02
   6.692472e+02  -6.828404e+02
   8.088068e+02   2.082757e+01
   4.358272e+02   7.104390e+02
  -1.363664e+02   7.829120e+02
  -4.850197e+02   1.412395e+02
  -3.121035e+02  -5.903642e+02
   2.093906e+02  -6.579908e+02
   5.187043e+02  -2.713229e+01
   2.821827e+02   6.016329e+02
  -2.368773e+02   6.363486e+02
  -5.360358e+02   1.785016e+02
  -4.170687e+02  -2.737030e+02
  -6.968869e+01  -4.066190e+02
   1.896384e+02  -2.565492e+02
   1.462682e+02  -4.402023e+01
  -1.534140e+02  -2.946819e+00
  -3.518384e+02  -2.025932e+02
  -9.137068e+01  -4.109837e+02
   4.827646e+02  -2.929396e+02
   7.467842e+02   1.448740e+02
   3.274583e+02   4.760526e+02
  -3.757772e+02   3.494523e+02
  -6.415325e+02  -9.575164e+01
  -2.690580e+02  -4.394635e+02
   2.862608e+02  -4.425724e+02
   5.258964e+02  -1.623681e+02
   3.750852e+02   2.043928e+02
   7.141879e+01   4.039498e+02
  -1.249412e+02   2.361769e+02
  -6.756545e+01  -1.645383e+02
   1.848348e+02  -3.079520e+02
   3.377517e+02   8.779340e+01
   1.269261e+02   6.092829e+02
  -3.027745e+02   5.841572e+02
  -4.813296e+02  -8.398549e+00
  -1.879253e+02  -4.532333e+02
   2.346169e+02  -2.333462e+02
   2.859909e+02   3.114350e+02
  -9.903845e+01   4.801384e+02
  -5.138854e+02   9.290581e+01
  -5.475878e+02  -4.047630e+02
  -1.566188e+02  -5.543131e+02
   3.531823e+02  -3.094444e+02
   5.854229e+02   7.803987e+01
   3.591430e+02   3.308345e+02
  -1.097848e+02   3.017536e+02
  -3.762711e+02   6.398855e+01
  -2.302147e+02  -1.208544e+02
   6.117628e+01  -6.556400e+01
   9.771820e+01   1.079095e+02
  -1.393291e+02   1.258454e+02
  -2.946493e+02  -6.730419e+01
  -1.318529e+02  -2.548487e+02
   1.849468e+02  -2.549532e+02
   3.427001e+02  -1.024437e+02
   2.331074e+02   9.360922e+01
  -2.457202e+01   2.746781e+02
  -2.633743e+02   3.500278e+02
  -3.615556e+02   1.914278e+02
  -2.679777e+02  -1.554523e+02
  -6.040349e+01  -4.076435e+02
   8.339306e+01  -3.565288e+02
   7.507265e+01  -1.410971e+02
   2.758761e+01  -4.567679e+01
   9.036050e+01  -1.038203e+02
   2.278543e+02  -9.467414e+01
   2.658826e+02   8.999387e+01
   1.256161e+02   2.716402e+02
  -8.815205e+01   2.297516e+02
  -2.146914e+02  -1.741072e+01
  -1.680369e+02  -2.496425e+02
   3.272945e+01  -2.782413e+02
   2.631987e+02  -8.894082e+01
   3.391589e+02   1.772541e+02
   1.766083e+02   3.333637e+02
  -8.127423e+01   2.900519e+02
  -2.020787e+02   1.361687e+02
  -1.504665e+02   4.033357e+01
  -1.246423e+02   5.178902e+01
  -2.601950e+02   5.075549e+01
  -4.119024e+02  -8.067391e+01
  -3.285864e+02  -2.991852e+02
   1.799289e+01  -4.471504e+02
   3.804253e+02  -4.076217e+02
   4.935405e+02  -1.852574e+02
   3.163135e+02   1.027165e+02
   3.420082e+01   2.790042e+02
  -1.181389e+02   2.277311e+02
  -4.908900e+01   3.163887e+01
   1.179583e+02  -7.553015e+01
   1.679881e+02   2.503448e+01
   2.741805e+01   1.743420e+02
  -1.457319e+02   1.394397e+02
  -1.474645e+02  -6.105770e+01
   2.641775e+01  -1.661578e+02
   1.825486e+02  -1.459847e+01
   1.573234e+02   2.474153e+02
  -3.032439e+01   3.504439e+02
  -2.414270e+02   2.007727e+02
  -3.457305e+02  -6.604944e+01
  -2.802797e+02  -2.570307e+02
  -7.663962e+01  -2.749522e+02
   1.251900e+02  -1.520356e+02
   1.680131e+02  -1.119419e+01
   4.735115e+01   2.506162e+01
  -6.179664e+01  -5.175057e+01
  -1.184814e+01  -1.227368e+02
   1.281047e+02  -8.363736e+01
   1.661360e+02   2.277370e+01
   4.468699e+01   6.657880e+01
  -8.341348e+01   1.505612e+00
  -4.749072e+01  -8.538379e+01
   1.388799e+02  -8.785759e+01
   2.963941e+02   1.392916e+01
   2.631486e+02   1.603669e+02
   4.212114e+01   2.641833e+02
  -2.023408e+02   2.499221e+02
  -2.827874e+02   1.099666e+02
  -1.561401e+02  -5.233376e+01
   2.962515e+01  -9.583071e+01
   7.978760e+01  -2.644557e-01
  -4.505786e+01   9.279095e+01
  -1.947933e+02   4.487671e+01
  -2.029955e+02  -1.078614e+02
  -6.093697e+01  -2.023816e+02
   9.541658e+01  -1.481802e+02
   1.375552e+02  -2.129778e+01
   5.895325e+01   4.110839e+01
  -3.620570e+01  -8.931827e+00
  -3.275951e+01  -9.836363e+01
   8.640475e+01  -1.170746e+02
   2.080605e+02  -1.936250e+01
   1.885842e+02   1.331082e+02
   1.364052e+01   2.171078e+02
  -1.650967e+02   1.577703e+02
  -1.873354e+02   6.103590e+00
  -5.955545e+01  -1.074749e+02
   6.690006e+01  -1.042845e+02
   7.849762e+01  -2.687380e+01
   9.790708e+00   2.651918e+01
  -3.023037e+01   1.419517e+01
   8.997006e+00  -1.692117e+01
   8.037120e+01   3.612301e+00
   9.748763e+01   8.831530e+01
   1.215422e+01   1.695173e+02
  -1.377421e+02   1.541587e+02
  -2.399908e+02   1.597063e+01
  -1.984601e+02  -1.588219e+02
  -3.733743e+01  -2.367618e+02
   1.087788e+02  -1.657860e+02
   1.346919e+02  -2.790599e+01
   7.235002e+01   5.128520e+01
   3.110692e+01   3.307568e+01
   5.533846e+01  -1.300544e+01
   8.496956e+01  -6.257801e+00
   4.961030e+01   5.429274e+01
  -4.198085e+01   9.800798e+01
  -1.143740e+02   6.211781e+01
  -9.762835e+01  -4.072413e+01
   1.610780e+01  -1.218682e+02
   1.555604e+02  -8.857543e+01
   2.042428e+02   6.084839e+01
   9.221404e+01   2.115757e+02
  -1.197332e+02   2.276418e+02
  -2.723065e+02   8.723019e+01
  -2.535123e+02  -9.243766e+01
  -1.034732e+02  -1.766871e+02
   4.179337e+01  -1.440770e+02
   9.372455e+01  -8.193325e+01
   7.614158e+01  -6.951214e+01
   6.412848e+01  -9.306560e+01
   9.311733e+01  -7.697608e+01
   1.313205e+02   2.147132e+01
   1.184037e+02   1.569880e+02
   2.613849e+01   2.290534e+02
  -1.026868e+02   1.705187e+02
  -1.754496e+02   1.416292e+01
  -1.318676e+02  -1.277740e+02
  -1.256056e+01  -1.603726e+02
   7.365289e+01  -8.705877e+01
   6.266442e+01   7.592344e+00
   2.888633e-01   4.917821e+01
  -1.932480e+01   3.605457e+01
   3.171493e+01   1.581552e+01
   8.258591e+01   2.109750e+01
   4.772825e+01   3.999271e+01
  -6.970632e+01   3.856421e+01
  -1.681725e+02  -7.411028e-01
  -1.453394e+02  -5.969651e+01
  -6.586123e+00  -9.506160e+01
   1.300371e+02  -7.376273e+01
   1.474283e+02  -7.944979e+00
   4.670787e+01   4.690227e+01
  -6.096859e+01   4.068850e+01
  -7.778645e+01  -1.937494e+01
  -1.327996e+01  -7.178998e+01
   5.164478e+01  -6.208531e+01
   6.675149e+01   9.658816e-02
   5.143928e+01   5.102879e+01
   4.603399e+01   4.345606e+01
   5.889127e+01   2.802401e+00
   6.629556e+01   1.538576e+00
   4.000409e+01   7.107730e+01
  -3.120457e+01   1.506693e+02
  -1.237126e+02   1.445044e+02
  -1.750135e+02   3.270928e+01
  -1.278744e+02  -9.500605e+01
  -3.364818e+00  -1.314894e+02
   9.084423e+01  -6.578921e+01
   6.165072e+01   1.332266e+01
  -5.937422e+01   2.005394e+01
  -1.365084e+02  -4.417305e+01
  -7.284012e+01  -1.086941e+02
   8.416382e+01  -1.110742e+02
   1.924989e+02  -4.642039e+01
   1.608575e+02   3.954635e+01
   3.326768e+01   8.724010e+01
  -6.417153e+01   6.563248e+01
  -4.960536e+01   2.468452e+00
   3.999330e+01  -2.912307e+01
   9.242386e+01   2.169386e+01
   3.613522e+01   1.182738e+02
  -8.672441e+01   1.557630e+02
  -1.640209e+02   6.604617e+01
  -1.269569e+02  -9.732717e+01
  -1.219944e+01  -1.964092e+02
   8.555189e+01  -1.428435e+02
   1.052832e+02   1.008563e+01
   5.735786e+01   1.208843e+02
  -8.728740e+00   1.058311e+02
  -4.961718e+01   1.727929e+01
  -4.880448e+01  -3.266752e+01
  -2.133309e+01  -8.522619e+00
  -5.255583e+00   1.919989e+01
  -2.593297e+01  -1.830239e+01
  -5.665009e+01  -9.048833e+01
  -3.624850e+01  -1.087133e+02
   5.241605e+01  -4.402639e+01
   1.377775e+02   3.975554e+01
   1.267356e+02   7.194666e+01
   1.787800e+01   5.209294e+01
  -8.488162e+01   2.345583e+01
  -8.823927e+01   5.990689e+00
  -1.441434e+01  -9.520805e+00
   3.691891e+01  -2.166290e+01
   1.731397e+01  -1.558883e+01
  -1.809558e+01   2.445714e+00
   4.120418e+00   7.463782e+00
   7.072829e+01   2.067991e+00
   9.286635e+01   2.342942e+01
   1.498697e+01   8.099915e+01
  -1.142402e+02   1.162382e+02
  -1.885706e+02   6.222274e+01
  -1.480499e+02  -6.373633e+01
  -2.847080e+01  -1.618344e+02
   8.103784e+01  -1.535148e+02
   1.165610e+02  -6.223359e+01
   8.107699e+01   2.089704e+01
   2.581478e+01   3.714267e+01
  -8.952911e-02   1.088298e+01
   1.230627e+01   6.336883e+00
   3.170467e+01   4.815180e+01
   1.983787e+01   9.161071e+01
  -2.988026e+01   7.213935e+01
  -8.015188e+01  -1.731272e+01
  -7.846468e+01  -1.059365e+02
  -8.947830e+00  -1.118301e+02
   7.890519e+01  -2.773746e+01
   1.045566e+02   7.084884e+01
   3.608399e+01   1.039478e+02
  -6.561572e+01   6.028161e+01
  -1.016092e+02  -9.982525e+00
  -4.291012e+01  -5.485124e+01
   3.375781e+01  -5.723644e+01
   3.626987e+01  -2.908293e+01
  -3.000322e+01   2.918704e+00
  -6.928821e+01   7.591121e+00
  -1.678928e+01  -2.637463e+01
   7.975069e+01  -6.584999e+01
   1.197352e+02  -5.583528e+01
   6.827037e+01   1.471704e+01
  -1.504647e+01   8.459152e+01
  -5.626838e+01   8.188062e+01
  -4.125905e+01   9.551618e+00
  -4.146479e+00  -5.422459e+01
   2.482662e+01  -4.581855e+01
   3.655852e+01   1.439056e+01
   2.757763e+01   5.432965e+01
  -1.649001e+00   3.663231e+01
  -3.334701e+01  -6.880401e+00
  -4.123034e+01  -2.356111e+01
  -2.099527e+01  -3.155303e+00
   2.498042e+00   1.714736e+01
   7.174143e+00   2.998673e+00
   1.472516e+00  -3.401419e+01
   8.551268e+00  -4.863081e+01
   2.925257e+01  -1.488000e+01
   3.554364e+01   3.982825e+01
   5.469337e+00   6.026129e+01
  -4.257764e+01   2.313261e+01
  -5.981887e+01  -3.628309e+01
  -1.698157e+01  -6.200078e+01
   5.640271e+01  -3.520140e+01
   9.164358e+01   1.361219e+01
   5.021230e+01   4.408932e+01
  -2.890688e+01   4.347150e+01
  -6.543433e+01   2.487789e+01
  -2.683445e+01   6.048330e+00
   3.270041e+01  -2.543721e-01
   3.542718e+01   1.123233e+01
  -2.731058e+01   2.803662e+01
  -8.514429e+01   1.979665e+01
