
 $NMID
 id='ANONYMOUS ', fmtdat='(2E16.6)'
 volume=1.0
 tramp=1.0
 $END
  -4.422056e+03   7.419204e+00
  -2.688385e+03  -2.517874e+03
   5.011660e+02  -2.795108e+03
   1.997287e+03  -1.155598e+03
   1.061161e+03   3.663725e+02
  -4.454664e+02   4.839233e+02
  -7.777765e+02  -3.497190e+02
  -1.573486e+01  -9.812249e+02
   7.716665e+02  -7.937695e+02
   9.315916e+02   2.888826e+01
   4.992812e+02   8.206516e+02
  -1.653725e+02   8.993640e+02
  -5.748131e+02   1.595429e+02
  -3.744220e+02  -6.819373e+02
   2.372231e+02  -7.571026e+02
   5.983128e+02  -3.010561e+01
   3.203286e+02   6.845817e+02
  -2.763598e+02   7.110269e+02
  -6.064565e+02   1.847153e+02
  -4.609640e+02  -3.183983e+02
  -7.023625e+01  -4.590878e+02
   2.198634e+02  -2.900727e+02
   1.785931e+02  -4.557435e+01
  -1.587976e+02   1.965744e+01
  -4.047755e+02  -1.972044e+02
  -1.334809e+02  -4.576436e+02
   5.239182e+02  -3.601360e+02
   8.544292e+02   1.318851e+02
   3.965010e+02   5.399182e+02
  -4.138796e+02   4.261476e+02
  -7.376502e+02  -8.093040e+01
  -3.245068e+02  -4.931686e+02
   3.093968e+02  -5.135575e+02
   5.907989e+02  -1.977615e+02
   4.298149e+02   2.268538e+02
   8.603821e+01   4.649759e+02
  -1.527059e+02   2.773631e+02
  -1.038916e+02  -1.924531e+02
   1.935061e+02  -3.756472e+02
   4.012603e+02   7.362583e+01
   1.795439e+02   6.900131e+02
  -3.297554e+02   6.821658e+02
  -5.647328e+02   2.996392e+00
  -2.347545e+02  -5.240679e+02
   2.694527e+02  -2.848575e+02
   3.465493e+02   3.426877e+02
  -9.420024e+01   5.501906e+02
  -5.783206e+02   1.217718e+02
  -6.249321e+02  -4.413323e+02
  -1.843277e+02  -6.207133e+02
   3.942141e+02  -3.580491e+02
   6.616646e+02   7.674466e+01
   4.082127e+02   3.752890e+02
  -1.272112e+02   3.532315e+02
  -4.337459e+02   7.572062e+01
  -2.619933e+02  -1.495308e+02
   8.029958e+01  -8.546753e+01
   1.226843e+02   1.288075e+02
  -1.577838e+02   1.576420e+02
  -3.414845e+02  -7.106069e+01
  -1.534392e+02  -2.921934e+02
   2.067049e+02  -2.870348e+02
   3.768817e+02  -1.104519e+02
   2.502760e+02   9.975441e+01
  -2.526160e+01   2.919715e+02
  -2.770934e+02   3.842371e+02
  -3.913977e+02   2.234590e+02
  -3.048217e+02  -1.631202e+02
  -7.832865e+01  -4.580038e+02
   9.478427e+01  -4.047495e+02
   9.380032e+01  -1.518290e+02
   3.091143e+01  -3.657770e+01
   8.712664e+01  -1.108079e+02
   2.419071e+02  -1.163381e+02
   2.984546e+02   8.598557e+01
   1.519465e+02   2.982044e+02
  -8.939624e+01   2.626857e+02
  -2.409801e+02  -8.574965e+00
  -1.974272e+02  -2.713778e+02
   2.603919e+01  -3.127579e+02
   2.906782e+02  -1.096878e+02
   3.840374e+02   1.885352e+02
   2.038404e+02   3.714825e+02
  -9.007581e+01   3.277672e+02
  -2.290253e+02   1.508872e+02
  -1.674536e+02   3.794745e+01
  -1.314501e+02   5.409750e+01
  -2.804402e+02   6.274076e+01
  -4.540411e+02  -7.784853e+01
  -3.689003e+02  -3.230903e+02
   9.640673e+00  -4.941546e+02
   4.103093e+02  -4.578992e+02
   5.424907e+02  -2.161738e+02
   3.569699e+02   1.063345e+02
   4.759412e+01   3.121993e+02
  -1.301398e+02   2.610981e+02
  -6.253813e+01   3.621187e+01
   1.267841e+02  -9.359735e+01
   1.936012e+02   1.962527e+01
   3.950905e+01   1.980935e+02
  -1.629106e+02   1.657452e+02
  -1.728000e+02  -6.464427e+01
   2.381924e+01  -1.915184e+02
   2.049243e+02  -2.389860e+01
   1.796016e+02   2.720586e+02
  -2.908757e+01   3.886314e+02
  -2.622032e+02   2.233772e+02
  -3.787219e+02  -6.815269e+01
  -3.127839e+02  -2.760863e+02
  -9.313809e+01  -3.000607e+02
   1.332914e+02  -1.720955e+02
   1.883847e+02  -1.760172e+01
   5.610885e+01   2.871801e+01
  -7.098609e+01  -5.282227e+01
  -1.960760e+01  -1.360728e+02
   1.393362e+02  -9.873165e+01
   1.875971e+02   1.988692e+01
   5.428443e+01   7.445007e+01
  -9.112812e+01   6.757776e+00
  -5.553878e+01  -9.045578e+01
   1.485034e+02  -9.847764e+01
   3.241305e+02   8.162307e+00
   2.930597e+02   1.684688e+02
   5.487201e+01   2.890142e+02
  -2.155044e+02   2.821501e+02
  -3.116025e+02   1.302911e+02
  -1.776079e+02  -5.520864e+01
   2.970405e+01  -1.102918e+02
   9.129432e+01  -3.940870e+00
  -4.501967e+01   1.055231e+02
  -2.151167e+02   5.648856e+01
  -2.292299e+02  -1.149109e+02
  -7.287691e+01  -2.247674e+02
   1.031218e+02  -1.682959e+02
   1.537619e+02  -2.785806e+01
   6.913987e+01   4.456385e+01
  -3.760357e+01  -6.323975e+00
  -3.851658e+01  -1.041222e+02
   9.001815e+01  -1.292446e+02
   2.269950e+02  -2.672637e+01
   2.112631e+02   1.419027e+02
   2.036692e+01   2.403433e+02
  -1.803806e+02   1.789372e+02
  -2.094429e+02   9.697569e+00
  -6.936598e+01  -1.201221e+02
   7.243634e+01  -1.186138e+02
   8.789980e+01  -3.209630e+01
   1.364315e+01   2.889154e+01
  -3.077126e+01   1.715478e+01
   1.013547e+01  -1.642369e+01
   8.646498e+01   4.475916e+00
   1.063763e+02   9.477374e+01
   1.636491e+01   1.841577e+02
  -1.470261e+02   1.717164e+02
  -2.632902e+02   2.366986e+01
  -2.226321e+02  -1.703781e+02
  -4.603667e+01  -2.616280e+02
   1.180509e+02  -1.863191e+02
   1.491689e+02  -3.268187e+01
   8.049864e+01   5.703556e+01
   3.429173e+01   3.703336e+01
   6.055177e+01  -1.489033e+01
   9.250580e+01  -8.030663e+00
   5.341907e+01   5.829853e+01
  -4.538688e+01   1.062361e+02
  -1.225205e+02   6.815916e+01
  -1.051043e+02  -4.248613e+01
   1.560811e+01  -1.317814e+02
   1.670007e+02  -9.913479e+01
   2.245883e+02   6.176783e+01
   1.071213e+02   2.296941e+02
  -1.254139e+02   2.535437e+02
  -2.983746e+02   1.028361e+02
  -2.829119e+02  -9.673911e+01
  -1.188267e+02  -1.939835e+02
   4.328787e+01  -1.609219e+02
   1.027827e+02  -9.268023e+01
   8.419703e+01  -7.808947e+01
   7.044670e+01  -1.033600e+02
   1.018124e+02  -8.567412e+01
   1.447475e+02   2.214266e+01
   1.329095e+02   1.712338e+02
   3.303792e+01   2.521622e+02
  -1.100686e+02   1.905168e+02
  -1.938157e+02   1.993050e+01
  -1.488415e+02  -1.377678e+02
  -1.797557e+01  -1.769419e+02
   7.842556e+01  -9.868016e+01
   6.857938e+01   5.337161e+00
   2.104845e+00   5.254041e+01
  -1.852001e+01   3.955466e+01
   3.655236e+01   1.761404e+01
   9.075986e+01   2.270455e+01
   5.248625e+01   4.315235e+01
  -7.497466e+01   4.303220e+01
  -1.831245e+02   2.289946e+00
  -1.607954e+02  -6.177071e+01
  -1.082204e+01  -1.030872e+02
   1.402204e+02  -8.325718e+01
   1.621969e+02  -1.228130e+01
   5.265795e+01   4.957599e+01
  -6.669948e+01   4.497270e+01
  -8.577223e+01  -2.027128e+01
  -1.414310e+01  -7.840618e+01
   5.740839e+01  -6.834503e+01
   7.293744e+01  -2.299021e-01
   5.562678e+01   5.560404e+01
   5.078080e+01   4.704261e+01
   6.578784e+01   2.101665e+00
   7.326109e+01   5.481024e-01
   4.387029e+01   7.720926e+01
  -3.293148e+01   1.656850e+02
  -1.328522e+02   1.604122e+02
  -1.901157e+02   3.850057e+01
  -1.413593e+02  -1.022860e+02
  -6.299018e+00  -1.438132e+02
   9.829751e+01  -7.275788e+01
   6.791384e+01   1.433992e+01
  -6.528294e+01   2.299519e+01
  -1.517661e+02  -4.670602e+01
  -8.284061e+01  -1.187085e+02
   9.051692e+01  -1.242491e+02
   2.116332e+02  -5.546912e+01
   1.787571e+02   3.988829e+01
   3.907603e+01   9.575229e+01
  -6.906454e+01   7.462367e+01
  -5.456464e+01   4.716948e+00
   4.350420e+01  -3.214350e+01
   1.019861e+02   2.292251e+01
   4.078252e+01   1.303835e+02
  -9.491166e+01   1.730836e+02
  -1.813312e+02   7.440625e+01
  -1.416970e+02  -1.066334e+02
  -1.578076e+01  -2.172611e+02
   9.251863e+01  -1.594533e+02
   1.162794e+02   8.777135e+00
   6.593187e+01   1.319721e+02
  -6.294928e+00   1.171621e+02
  -5.354600e+01   2.050876e+01
  -5.524097e+01  -3.497550e+01
  -2.493347e+01  -9.059616e+00
  -5.163407e+00   2.164236e+01
  -2.743543e+01  -1.910380e+01
  -6.359296e+01  -9.872502e+01
  -4.315177e+01  -1.197446e+02
   5.581668e+01  -4.961263e+01
   1.529805e+02   4.194847e+01
   1.419331e+02   7.745813e+01
   2.035899e+01   5.670291e+01
  -9.434573e+01   2.681731e+01
  -9.745991e+01   8.294349e+00
  -1.506865e+01  -9.811704e+00
   4.093893e+01  -2.466755e+01
   1.802342e+01  -1.810841e+01
  -2.086480e+01   2.760000e+00
   5.115713e+00   8.599524e+00
   7.918563e+01   1.754996e+00
   1.025984e+02   2.477691e+01
   1.589062e+01   8.923631e+01
  -1.258714e+02   1.295288e+02
  -2.068104e+02   7.022889e+01
  -1.628149e+02  -6.954097e+01
  -3.291287e+01  -1.785462e+02
   8.700709e+01  -1.697115e+02
   1.273992e+02  -6.929305e+01
   8.976068e+01   2.218647e+01
   2.874506e+01   4.024498e+01
  -7.705528e-01   1.149685e+01
   1.307655e+01   6.262572e+00
   3.600999e+01   5.208972e+01
   2.389885e+01   1.004742e+02
  -3.187579e+01   7.996205e+01
  -8.908240e+01  -1.836332e+01
  -8.778506e+01  -1.166702e+02
  -1.013778e+01  -1.236330e+02
   8.781295e+01  -3.070936e+01
   1.161450e+02   7.814729e+01
   4.016314e+01   1.143279e+02
  -7.201188e+01   6.624215e+01
  -1.114258e+02  -1.025847e+01
  -4.704998e+01  -5.896400e+01
   3.637437e+01  -6.219804e+01
   3.836722e+01  -3.227404e+01
  -3.423845e+01   3.044743e+00
  -7.647359e+01   9.070775e+00
  -1.837133e+01  -2.860687e+01
   8.708248e+01  -7.384079e+01
   1.303635e+02  -6.394467e+01
   7.436829e+01   1.469256e+01
  -1.572913e+01   9.324511e+01
  -6.024550e+01   9.047116e+01
  -4.438931e+01   9.970330e+00
  -4.617508e+00  -6.034387e+01
   2.712281e+01  -5.016952e+01
   4.061114e+01   1.646523e+01
   3.089979e+01   5.958472e+01
  -1.724509e+00   3.949578e+01
  -3.689927e+01  -7.608475e+00
  -4.539011e+01  -2.484033e+01
  -2.308652e+01  -2.664960e+00
   2.451000e+00   1.814202e+01
   7.750862e+00   1.632846e+00
   2.481939e+00  -3.837421e+01
   1.099827e+01  -5.295230e+01
   3.305415e+01  -1.497380e+01
   3.848772e+01   4.500564e+01
   4.850963e+00   6.682634e+01
  -4.732292e+01   2.546939e+01
  -6.572811e+01  -4.015447e+01
  -1.892956e+01  -6.860717e+01
   6.145957e+01  -3.926724e+01
   1.006928e+02   1.438269e+01
   5.573637e+01   4.806125e+01
  -3.139209e+01   4.766777e+01
  -7.185520e+01   2.738576e+01
  -2.889249e+01   6.654756e+00
   3.737371e+01  -1.433046e-01
   3.997824e+01   1.309034e+01
  -3.064191e+01   3.224506e+01
  -9.540436e+01   2.307789e+01
