
 $NMID
 id='ANONYMOUS ', fmtdat='(2E16.6)'
 volume=1.0
 tramp=1.0
 $END
  -8.702445e+01  -1.614254e-01
  -5.502126e+01  -4.492358e+01
   2.873450e+00  -5.318613e+01
   3.321774e+01  -2.900093e+01
   2.171143e+01  -2.291062e+00
  -2.900709e+00   4.991682e+00
  -1.091895e+01  -4.961739e+00
  -3.557390e-01  -1.601821e+01
   1.300147e+01  -1.510600e+01
   1.712889e+01  -1.338810e+00
   1.065973e+01   1.409130e+01
  -8.803535e-01   1.692394e+01
  -8.812003e+00   3.907735e+00
  -6.533968e+00  -1.197740e+01
   3.565293e+00  -1.441266e+01
   1.087128e+01  -1.561135e+00
   7.469659e+00   1.282388e+01
  -3.416285e+00   1.547839e+01
  -1.163584e+01   6.373491e+00
  -1.071504e+01  -4.635740e+00
  -3.024715e+00  -9.072257e+00
   3.407052e+00  -6.154336e+00
   2.225929e+00  -1.461406e+00
  -4.812687e+00  -1.300564e+00
  -8.224476e+00  -6.327360e+00
  -7.470244e-01  -1.000067e+01
   1.231613e+01  -5.721441e+00
   1.686791e+01   4.270377e+00
   6.443658e+00   1.033408e+01
  -8.989503e+00   6.526496e+00
  -1.416512e+01  -3.047009e+00
  -5.536961e+00  -9.950337e+00
   6.823177e+00  -9.815795e+00
   1.207091e+01  -3.730946e+00
   8.560889e+00   4.280183e+00
   1.948646e+00   8.497805e+00
  -1.642551e+00   4.741948e+00
   2.251750e-01  -3.424496e+00
   5.019723e+00  -5.514584e+00
   6.700286e+00   3.415584e+00
   1.432080e+00   1.390306e+01
  -6.883815e+00   1.242554e+01
  -9.589541e+00  -3.713865e-01
  -3.413222e+00  -9.318037e+00
   4.788017e+00  -4.183953e+00
   5.515867e+00   7.455029e+00
  -2.686880e+00   1.076624e+01
  -1.188048e+01   1.928198e+00
  -1.300142e+01  -9.385577e+00
  -4.188849e+00  -1.281935e+01
   7.884313e+00  -7.190501e+00
   1.361055e+01   1.460357e+00
   8.653957e+00   6.748845e+00
  -1.800263e+00   6.164226e+00
  -7.858062e+00   1.865063e+00
  -5.217231e+00  -1.365295e+00
   5.623414e-01  -6.635288e-01
   1.469194e+00   1.889236e+00
  -3.062502e+00   2.007482e+00
  -6.276128e+00  -1.405837e+00
  -3.140884e+00  -5.285279e+00
   3.867761e+00  -6.281152e+00
   8.316586e+00  -3.513261e+00
   6.528069e+00   1.977797e+00
  -7.850952e-03   7.690227e+00
  -6.700670e+00   9.545949e+00
  -9.198671e+00   4.734804e+00
  -6.400835e+00  -3.955094e+00
  -1.472730e+00  -9.472230e+00
   1.173276e+00  -8.150397e+00
   6.934878e-01  -3.831570e+00
   4.011260e-01  -2.203778e+00
   2.887270e+00  -3.180400e+00
   6.248391e+00  -2.084813e+00
   6.550138e+00   2.657955e+00
   2.758757e+00   6.690897e+00
  -2.336717e+00   5.293818e+00
  -5.163831e+00  -7.699167e-01
  -3.883151e+00  -6.224407e+00
   9.814639e-01  -6.643926e+00
   6.414772e+00  -1.944863e+00
   8.148369e+00   4.241049e+00
   4.427812e+00   7.677912e+00
  -1.407454e+00   6.791645e+00
  -4.256290e+00   3.717362e+00
  -3.460112e+00   1.805363e+00
  -3.383317e+00   1.850796e+00
  -6.885388e+00   1.418648e+00
  -1.052767e+01  -1.881924e+00
  -8.417149e+00  -7.245791e+00
   1.932920e-01  -1.115885e+01
   9.274688e+00  -1.045068e+01
   1.207341e+01  -4.858546e+00
   7.550627e+00   2.425045e+00
   7.075569e-01   6.612179e+00
  -2.527635e+00   5.184699e+00
  -5.418516e-01   7.112891e-01
   3.103641e+00  -1.417537e+00
   3.692334e+00   9.135498e-01
   3.329361e-01   3.929241e+00
  -3.260891e+00   2.885423e+00
  -3.075313e+00  -1.483492e+00
   7.552382e-01  -3.627031e+00
   4.309549e+00  -1.649931e-01
   4.021480e+00   5.900365e+00
  -3.002368e-01   8.645219e+00
  -5.849230e+00   5.423421e+00
  -8.958985e+00  -1.172182e+00
  -7.338088e+00  -6.318257e+00
  -1.922997e+00  -6.966064e+00
   3.156321e+00  -3.777825e+00
   3.967829e+00  -2.397860e-01
   9.338774e-01   4.752804e-01
  -1.485436e+00  -1.484933e+00
  -8.378025e-02  -3.031975e+00
   3.197112e+00  -1.907085e+00
   3.903726e+00   6.180071e-01
   8.806214e-01   1.526322e+00
  -2.181291e+00  -1.392484e-01
  -1.177063e+00  -2.314906e+00
   3.603208e+00  -2.425089e+00
   7.657081e+00   1.742453e-01
   6.765944e+00   4.026136e+00
   1.048625e+00   6.714227e+00
  -5.080341e+00   6.255140e+00
  -6.875805e+00   2.707576e+00
  -3.618486e+00  -1.184349e+00
   7.834281e-01  -2.135621e+00
   1.773071e+00   1.151847e-01
  -1.283444e+00   2.217040e+00
  -4.779548e+00   1.036881e+00
  -4.925859e+00  -2.567275e+00
  -1.536189e+00  -4.823307e+00
   2.235665e+00  -3.553784e+00
   3.256403e+00  -4.971637e-01
   1.259849e+00   9.853460e-01
  -1.125531e+00  -3.743450e-01
  -9.049978e-01  -2.709667e+00
   2.265866e+00  -3.143893e+00
   5.351726e+00  -5.823437e-01
   4.786977e+00   3.266867e+00
   4.294822e-01   5.340813e+00
  -3.911949e+00   3.940384e+00
  -4.453060e+00   3.282433e-01
  -1.432704e+00  -2.451024e+00
   1.558717e+00  -2.486344e+00
   1.813303e+00  -6.496554e-01
   9.743388e-02   6.910413e-01
  -9.216957e-01   3.369806e-01
   1.457713e-01  -6.021449e-01
   2.155383e+00  -1.513127e-01
   2.728102e+00   2.149801e+00
   4.969582e-01   4.411561e+00
  -3.442362e+00   4.059961e+00
  -6.078760e+00   5.090595e-01
  -5.053803e+00  -3.878405e+00
  -1.099736e+00  -5.798291e+00
   2.498413e+00  -4.120955e+00
   3.250254e+00  -8.505251e-01
   1.853076e+00   1.080028e+00
   8.414726e-01   7.085866e-01
   1.383410e+00  -4.125953e-01
   2.192665e+00  -2.772114e-01
   1.464519e+00   1.336213e+00
  -8.665102e-01   2.670667e+00
  -2.957162e+00   1.862446e+00
  -2.726581e+00  -9.400978e-01
   2.544234e-01  -3.273086e+00
   4.006314e+00  -2.489512e+00
   5.305915e+00   1.431325e+00
   2.405092e+00   5.360875e+00
  -2.966226e+00   5.801496e+00
  -6.765326e+00   2.312386e+00
  -6.304701e+00  -2.134633e+00
  -2.628704e+00  -4.259660e+00
   9.369099e-01  -3.547137e+00
   2.205006e+00  -2.079329e+00
   1.728710e+00  -1.788697e+00
   1.407019e+00  -2.402510e+00
   2.207248e+00  -2.071275e+00
   3.326382e+00   3.469323e-01
   3.140047e+00   3.787908e+00
   8.622682e-01   5.696680e+00
  -2.418880e+00   4.312732e+00
  -4.339209e+00   4.285435e-01
  -3.341061e+00  -3.136018e+00
  -3.710148e-01  -3.985158e+00
   1.862574e+00  -2.158537e+00
   1.641433e+00   2.638430e-01
   4.978101e-03   1.361854e+00
  -6.004651e-01   9.820684e-01
   7.045928e-01   3.240373e-01
   2.124772e+00   3.739926e-01
   1.294977e+00   9.519263e-01
  -1.785802e+00   1.097003e+00
  -4.375908e+00   1.587317e-01
  -3.743735e+00  -1.454831e+00
  -1.354167e-01  -2.507746e+00
   3.311307e+00  -2.016484e+00
   3.702882e+00  -2.765182e-01
   1.202479e+00   1.226981e+00
  -1.460135e+00   1.145265e+00
  -1.984983e+00  -3.845443e-01
  -5.368420e-01  -1.800997e+00
   1.105270e+00  -1.660863e+00
   1.708655e+00  -1.311968e-01
   1.479039e+00   1.186614e+00
   1.248098e+00   1.038135e+00
   1.415072e+00   1.746357e-02
   1.648342e+00  -2.611786e-02
   1.183391e+00   1.755625e+00
  -5.362315e-01   3.857081e+00
  -3.014136e+00   3.823551e+00
  -4.503304e+00   1.059323e+00
  -3.387184e+00  -2.252352e+00
  -2.036509e-01  -3.367586e+00
   2.244282e+00  -1.841788e+00
   1.568106e+00   2.157623e-01
  -1.450352e+00   5.692232e-01
  -3.416047e+00  -9.463137e-01
  -1.879998e+00  -2.641582e+00
   2.022529e+00  -2.839924e+00
   4.760861e+00  -1.279890e+00
   4.017009e+00   9.039029e-01
   8.518896e-01   2.146299e+00
  -1.591102e+00   1.625758e+00
  -1.255545e+00   2.850686e-02
   9.701189e-01  -8.171025e-01
   2.346956e+00   4.027207e-01
   1.096068e+00   2.864270e+00
  -1.864645e+00   3.970474e+00
  -3.900945e+00   1.889388e+00
  -3.251916e+00  -2.194678e+00
  -5.697280e-01  -4.818407e+00
   1.952104e+00  -3.613539e+00
   2.645284e+00   1.856419e-01
   1.513448e+00   2.993887e+00
  -2.260941e-01   2.645593e+00
  -1.292447e+00   4.463386e-01
  -1.190879e+00  -7.914128e-01
  -4.484300e-01  -2.025628e-01
  -1.381666e-01   4.601547e-01
  -7.812814e-01  -4.623331e-01
  -1.538679e+00  -2.205426e+00
  -9.132831e-01  -2.657323e+00
   1.357103e+00  -1.153296e+00
   3.449927e+00   8.235850e-01
   3.165965e+00   1.657936e+00
   5.218780e-01   1.312698e+00
  -2.007312e+00   6.964896e-01
  -2.181086e+00   2.229389e-01
  -4.469788e-01  -2.453535e-01
   8.579732e-01  -5.613579e-01
   4.822153e-01  -3.695524e-01
  -3.770357e-01   8.757306e-02
   7.324202e-02   1.546189e-01
   1.676837e+00  -5.803318e-02
   2.353344e+00   4.504278e-01
   6.029406e-01   1.974538e+00
  -2.591656e+00   3.043890e+00
  -4.635926e+00   1.863936e+00
  -3.856847e+00  -1.295161e+00
  -9.606211e-01  -3.958769e+00
   1.839463e+00  -3.984453e+00
   2.840328e+00  -1.770652e+00
   2.041137e+00   4.011882e-01
   7.114419e-01   9.180217e-01
   7.706724e-02   3.001781e-01
   3.634370e-01   1.774271e-01
   8.289778e-01   1.207441e+00
   5.567459e-01   2.288493e+00
  -6.607767e-01   1.837883e+00
  -1.983598e+00  -3.084369e-01
  -2.095248e+00  -2.473674e+00
  -4.522716e-01  -2.733062e+00
   1.836509e+00  -8.494858e-01
   2.691390e+00   1.527533e+00
   1.106368e+00   2.522156e+00
  -1.513670e+00   1.664523e+00
  -2.596272e+00  -6.585292e-02
  -1.224179e+00  -1.372222e+00
   7.605229e-01  -1.572470e+00
   9.554456e-01  -8.055549e-01
  -6.509979e-01   1.411750e-01
  -1.703635e+00   2.932250e-01
  -4.916593e-01  -6.496739e-01
   1.904758e+00  -1.732897e+00
   2.990722e+00  -1.499283e+00
   1.809897e+00   3.136170e-01
  -2.444628e-01   2.143846e+00
  -1.344346e+00   2.164015e+00
  -1.077252e+00   3.833094e-01
  -2.167433e-01  -1.295640e+00
   5.268676e-01  -1.221494e+00
   9.113305e-01   2.333144e-01
   7.746081e-01   1.314049e+00
   4.461240e-02   9.794015e-01
  -8.331632e-01  -9.480932e-02
  -1.093474e+00  -5.739749e-01
  -5.411842e-01  -8.983195e-02
   1.311280e-01   4.728244e-01
   2.139375e-01   1.794446e-01
  -9.463427e-02  -7.744188e-01
  -2.043419e-02  -1.258769e+00
   6.183355e-01  -5.325177e-01
   1.012527e+00   8.201043e-01
   3.550931e-01   1.442424e+00
  -9.758889e-01   6.693126e-01
  -1.581740e+00  -7.512594e-01
  -5.443170e-01  -1.483967e+00
   1.377986e+00  -9.755791e-01
   2.337218e+00   1.721976e-01
   1.324258e+00   1.024455e+00
  -6.511986e-01   1.168578e+00
  -1.588164e+00   7.720178e-01
  -7.030314e-01   2.192154e-01
   7.124864e-01  -7.684240e-02
   8.298213e-01   1.560267e-01
  -5.890048e-01   6.542102e-01
  -1.968693e+00   5.765967e-01
