
 $NMID
 id='ANONYMOUS ', fmtdat='(2E16.6)'
 volume=1.0
 tramp=1.0
 $END
  -3.168523e+03  -7.983039e+01
  -2.096273e+03  -1.598312e+03
  -5.599305e+01  -2.000573e+03
   1.179701e+03  -1.281628e+03
   9.613019e+02  -2.894434e+02
   1.059518e+02   1.585453e+02
  -3.155157e+02  -7.366338e+01
  -5.294864e+01  -5.035796e+02
   4.235344e+02  -5.620608e+02
   6.253845e+02  -1.016750e+02
   4.305530e+02   4.839225e+02
   2.581119e+01   6.340884e+02
  -2.743100e+02   1.935669e+02
  -2.308436e+02  -3.930737e+02
   1.061286e+02  -5.279007e+02
   3.902702e+02  -8.663645e+01
   3.015348e+02   4.753434e+02
  -1.093287e+02   6.299764e+02
  -4.642237e+02   2.959948e+02
  -4.531748e+02  -1.623245e+02
  -1.434759e+02  -3.595310e+02
   1.130667e+02  -2.471278e+02
   5.912340e+01  -8.555720e+01
  -1.901344e+02  -1.190496e+02
  -2.635599e+02  -3.015955e+02
   4.235336e+01  -3.607287e+02
   4.819660e+02  -1.343250e+02
   5.871890e+02   2.108802e+02
   1.979503e+02   3.534600e+02
  -3.248572e+02   1.719873e+02
  -4.829624e+02  -1.524721e+02
  -1.694969e+02  -3.599654e+02
   2.699703e+02  -3.341508e+02
   4.515237e+02  -1.159783e+02
   3.143065e+02   1.596294e+02
   8.102912e+01   2.991602e+02
  -1.865712e+01   1.750533e+02
   6.140196e+01  -8.052406e+01
   1.881351e+02  -1.319731e+02
   1.816059e+02   1.598107e+02
  -1.543323e+01   4.835152e+02
  -2.547661e+02   4.170001e+02
  -3.049884e+02  -7.875556e+00
  -1.029164e+02  -2.990296e+02
   1.429929e+02  -1.216895e+02
   1.521375e+02   2.734453e+02
  -1.258644e+02   3.761155e+02
  -4.398060e+02   4.191992e+01
  -4.735027e+02  -3.804051e+02
  -1.475153e+02  -4.943206e+02
   2.983528e+02  -2.578105e+02
   5.105725e+02   7.152666e+01
   3.356675e+02   2.465514e+02
  -4.072519e+01   2.148195e+02
  -2.769974e+02   8.181722e+01
  -2.151868e+02  -1.565017e+01
  -1.998791e+01  -1.433038e+01
   3.873984e+01   3.936739e+01
  -9.517432e+01   4.441789e+01
  -2.166784e+02  -4.934449e+01
  -1.207189e+02  -1.854910e+02
   1.506787e+02  -2.448631e+02
   3.490003e+02  -1.409986e+02
   2.760064e+02   1.023125e+02
  -2.417954e+01   3.361607e+02
  -3.132844e+02   3.727880e+02
  -3.813241e+02   1.507993e+02
  -2.288023e+02  -1.737865e+02
  -3.766653e+01  -3.568324e+02
   3.472848e+01  -3.116301e+02
   1.275027e+01  -1.779543e+02
   3.418574e+01  -1.200181e+02
   1.522522e+02  -1.203499e+02
   2.631106e+02  -4.312427e+01
   2.386114e+02   1.363261e+02
   7.701644e+01   2.628665e+02
  -1.054715e+02   1.853857e+02
  -1.888310e+02  -5.343348e+01
  -1.231008e+02  -2.517906e+02
   6.005062e+01  -2.463640e+02
   2.492820e+02  -4.997197e+01
   3.003014e+02   1.831658e+02
   1.602260e+02   2.989062e+02
  -5.274871e+01   2.607047e+02
  -1.634279e+02   1.547244e+02
  -1.480441e+02   8.685764e+01
  -1.566991e+02   7.203164e+01
  -2.888527e+02   2.985134e+01
  -4.164717e+02  -1.100049e+02
  -3.163139e+02  -3.105622e+02
   3.787867e+01  -4.422270e+02
   3.982089e+02  -3.910620e+02
   4.879452e+02  -1.612661e+02
   2.813523e+02   1.105681e+02
   7.828851e+00   2.497002e+02
  -9.601436e+01   1.888050e+02
  -3.220838e+00   3.617293e+01
   1.227469e+02  -2.937895e+01
   1.228568e+02   4.736201e+01
  -2.342058e+00   1.374064e+02
  -1.166329e+02   9.256207e+01
  -9.967984e+01  -5.662927e+01
   3.519787e+01  -1.237285e+02
   1.593950e+02   9.119889e+00
   1.457372e+02   2.393075e+02
  -2.625787e+01   3.439385e+02
  -2.504283e+02   2.080685e+02
  -3.657156e+02  -6.873688e+01
  -2.783373e+02  -2.762464e+02
  -5.059320e+01  -2.831595e+02
   1.372448e+02  -1.367718e+02
   1.496703e+02   9.594882e-01
   3.086800e+01   1.317645e+01
  -4.831979e+01  -6.768319e+01
   1.222769e+01  -1.147123e+02
   1.287501e+02  -5.916142e+01
   1.436142e+02   3.440953e+01
   2.535299e+01   5.493451e+01
  -8.482161e+01  -1.949724e+01
  -3.494820e+01  -9.985880e+01
   1.576521e+02  -8.719353e+01
   3.105337e+02   3.234866e+01
   2.573665e+02   1.850585e+02
   1.643048e+01   2.705756e+02
  -2.217039e+02   2.286098e+02
  -2.734344e+02   8.551674e+01
  -1.325823e+02  -5.028049e+01
   3.457992e+01  -7.333260e+01
   6.099636e+01   9.959335e+00
  -6.051151e+01   7.718115e+01
  -1.874449e+02   2.384726e+01
  -1.831953e+02  -1.113770e+02
  -4.866601e+01  -1.885428e+02
   9.309092e+01  -1.306766e+02
   1.240406e+02  -1.080968e+01
   4.101413e+01   3.801178e+01
  -4.643000e+01  -2.667462e+01
  -2.433373e+01  -1.181380e+02
   1.065746e+02  -1.201208e+02
   2.183779e+02  -4.837007e+00
   1.803032e+02   1.442817e+02
   2.827344e+00   2.106583e+02
  -1.611197e+02   1.454677e+02
  -1.729692e+02   6.840987e+00
  -5.070069e+01  -9.367487e+01
   6.439133e+01  -9.117884e+01
   6.896491e+01  -2.145990e+01
  -3.108777e+00   2.565399e+01
  -4.168625e+01   6.668560e+00
   8.770093e+00  -2.958663e+01
   9.366266e+01  -2.767063e+00
   1.091461e+02   9.736445e+01
   6.881416e+00   1.834611e+02
  -1.527709e+02   1.537696e+02
  -2.449462e+02   1.087460e+00
  -1.898410e+02  -1.687202e+02
  -3.040953e+01  -2.313671e+02
   1.056303e+02  -1.569021e+02
   1.301790e+02  -2.879359e+01
   7.406712e+01   4.391556e+01
   3.458462e+01   2.856352e+01
   5.736458e+01  -1.397833e+01
   9.123321e+01  -5.617590e+00
   5.969081e+01   6.092849e+01
  -4.196573e+01   1.115040e+02
  -1.308561e+02   7.009988e+01
  -1.133969e+02  -4.914016e+01
   2.100544e+01  -1.368110e+02
   1.741671e+02  -8.990456e+01
   2.109913e+02   7.532131e+01
   7.793806e+01   2.227428e+02
  -1.375117e+02   2.216760e+02
  -2.750653e+02   7.246028e+01
  -2.429529e+02  -9.979239e+01
  -9.294279e+01  -1.727848e+02
   4.487037e+01  -1.367333e+02
   9.046655e+01  -7.764243e+01
   7.008502e+01  -6.903484e+01
   5.936336e+01  -9.534034e+01
   9.308357e+01  -8.023115e+01
   1.342444e+02   2.039555e+01
   1.181215e+02   1.590078e+02
   2.096887e+01   2.298621e+02
  -1.064896e+02   1.654569e+02
  -1.721232e+02   5.078853e+00
  -1.230579e+02  -1.338107e+02
  -3.119794e+00  -1.583288e+02
   8.082759e+01  -7.770637e+01
   6.441909e+01   1.932998e+01
  -6.843026e+00   5.721939e+01
  -3.164698e+01   3.673800e+01
   2.543184e+01   1.156500e+01
   8.671200e+01   1.870506e+01
   5.139411e+01   4.230670e+01
  -7.752052e+01   4.002466e+01
  -1.805743e+02  -6.704027e+00
  -1.460470e+02  -7.081188e+01
   6.321720e+00  -1.022102e+02
   1.418131e+02  -7.181342e+01
   1.484313e+02  -2.015273e-01
   4.313238e+01   5.446055e+01
  -6.180580e+01   4.480681e+01
  -7.966925e+01  -1.978486e+01
  -2.060505e+01  -7.648130e+01
   4.586116e+01  -6.792414e+01
   7.113893e+01  -2.381468e+00
   6.111543e+01   5.264425e+01
   4.913956e+01   4.544714e+01
   5.494028e+01   2.990387e+00
   6.581624e+01   2.593423e+00
   4.607854e+01   7.573336e+01
  -2.897279e+01   1.567479e+02
  -1.330619e+02   1.474446e+02
  -1.885688e+02   3.085275e+01
  -1.330768e+02  -1.000294e+02
   1.499852e+00  -1.375006e+02
   9.727227e+01  -7.079937e+01
   6.378302e+01   1.100871e+01
  -5.923253e+01   1.997344e+01
  -1.340588e+02  -4.444163e+01
  -6.799027e+01  -1.091964e+02
   8.801139e+01  -1.080541e+02
   1.922627e+02  -3.846457e+01
   1.563111e+02   4.670764e+01
   2.742009e+01   8.668746e+01
  -6.744103e+01   5.836811e+01
  -4.930927e+01  -4.328241e+00
   4.168264e+01  -3.185934e+01
   9.444436e+01   2.054668e+01
   4.042713e+01   1.172228e+02
  -7.969238e+01   1.573877e+02
  -1.585145e+02   7.129758e+01
  -1.268946e+02  -9.207578e+01
  -1.510464e+01  -1.936015e+02
   8.456642e+01  -1.400223e+02
   1.049601e+02   1.464034e+01
   5.210296e+01   1.235007e+02
  -1.806258e+01   1.031333e+02
  -5.404361e+01   1.264829e+01
  -4.379377e+01  -3.392938e+01
  -1.477525e+01  -7.674350e+00
  -6.825215e+00   1.695575e+01
  -3.277541e+01  -2.333641e+01
  -5.746907e+01  -9.255041e+01
  -2.820078e+01  -1.060398e+02
   5.951567e+01  -4.139255e+01
   1.360862e+02   3.942616e+01
   1.213457e+02   7.195937e+01
   1.798043e+01   5.501964e+01
  -8.007546e+01   2.571108e+01
  -8.714644e+01   3.866100e+00
  -1.902739e+01  -1.291453e+01
   3.418697e+01  -2.088512e+01
   2.122842e+01  -1.145767e+01
  -1.349984e+01   4.250251e+00
   2.100253e+00   4.906778e+00
   6.556113e+01  -1.293248e+00
   9.432685e+01   2.248111e+01
   2.428224e+01   8.237121e+01
  -1.073360e+02   1.194997e+02
  -1.919607e+02   6.759325e+01
  -1.569573e+02  -5.847238e+01
  -3.286052e+01  -1.609647e+02
   8.325920e+01  -1.578846e+02
   1.194855e+02  -6.731613e+01
   8.147748e+01   1.956705e+01
   2.689895e+01   3.939925e+01
   3.719295e+00   1.426577e+01
   1.490500e+01   9.733895e+00
   2.946123e+01   5.104305e+01
   1.587275e+01   9.292263e+01
  -3.042305e+01   7.254131e+01
  -7.862719e+01  -1.502204e+01
  -8.086988e+01  -1.019017e+02
  -1.601687e+01  -1.113567e+02
   7.410220e+01  -3.396741e+01
   1.071870e+02   6.378776e+01
   4.202585e+01   1.044564e+02
  -6.445170e+01   6.698546e+01
  -1.067253e+02  -7.267472e+00
  -4.769608e+01  -6.084268e+01
   3.544105e+01  -6.469743e+01
   4.306002e+01  -2.975982e+01
  -2.454199e+01   7.017660e+00
  -6.904634e+01   9.154555e+00
  -1.931144e+01  -2.823027e+01
   7.984698e+01  -6.570533e+01
   1.244668e+02  -5.176467e+01
   7.395800e+01   1.879239e+01
  -1.372535e+01   8.664734e+01
  -6.055069e+01   8.492537e+01
  -4.752023e+01   1.463155e+01
  -8.357201e+00  -5.204031e+01
   2.360390e+01  -5.004730e+01
   3.723766e+01   8.694602e+00
   2.917542e+01   5.459284e+01
  -3.087844e-01   4.197242e+01
  -3.381103e+01  -4.391328e+00
  -4.307502e+01  -2.697644e+01
  -2.123728e+01  -5.960809e+00
   4.678560e+00   2.149477e+01
   6.901046e+00   1.130679e+01
  -6.115605e+00  -3.101283e+01
  -2.291835e+00  -5.495660e+01
   2.584548e+01  -2.533588e+01
   4.363190e+01   3.300877e+01
   1.630480e+01   6.004813e+01
  -3.980723e+01   2.713422e+01
  -6.484886e+01  -3.210522e+01
  -2.089736e+01  -6.050616e+01
   5.831008e+01  -3.693496e+01
   9.562261e+01   1.082987e+01
   5.192110e+01   4.383985e+01
  -2.903861e+01   4.730661e+01
  -6.642701e+01   3.001440e+01
  -3.050133e+01   7.558925e+00
   2.661777e+01  -4.449016e+00
   3.278277e+01   4.474166e+00
  -2.193455e+01   2.411102e+01
  -7.638557e+01   2.114375e+01
