
 $NMID
 id='ANONYMOUS ', fmtdat='(2E16.6)'
 volume=1.0
 tramp=1.0
 $END
   3.671845e+03   7.361288e+01
   2.255739e+03   2.005824e+03
  -2.627474e+02   2.268273e+03
  -1.511656e+03   1.109289e+03
  -9.074774e+02  -5.472989e+01
   2.083954e+02  -2.726546e+02
   5.185746e+02   2.447625e+02
   1.662330e+00   7.224630e+02
  -5.915942e+02   6.342750e+02
  -7.410092e+02   1.582384e+01
  -4.267928e+02  -6.323375e+02
   8.425954e+01  -7.245688e+02
   4.102536e+02  -1.471870e+02
   2.778156e+02   5.309125e+02
  -1.776670e+02   6.122060e+02
  -4.728047e+02   4.347812e+01
  -2.883935e+02  -5.564647e+02
   1.854062e+02  -6.296779e+02
   5.007139e+02  -2.209629e+02
   4.254260e+02   2.274746e+02
   9.712067e+01   3.849445e+02
  -1.617735e+02   2.507413e+02
  -1.133007e+02   5.206264e+01
   1.780860e+02   3.529102e+01
   3.379359e+02   2.393465e+02
   4.965451e+01   4.083888e+02
  -4.960022e+02   2.503142e+02
  -7.073100e+02  -1.704368e+02
  -2.825886e+02  -4.452485e+02
   3.725556e+02  -2.940850e+02
   5.999790e+02   1.196605e+02
   2.374094e+02   4.208374e+02
  -2.855700e+02   4.126040e+02
  -5.061204e+02   1.497722e+02
  -3.563143e+02  -1.902015e+02
  -7.176512e+01  -3.693653e+02
   9.225308e+01  -2.089782e+02
   1.964891e+01   1.491452e+02
  -1.990605e+02   2.548421e+02
  -2.965124e+02  -1.218096e+02
  -7.856379e+01  -5.830108e+02
   2.949570e+02  -5.326718e+02
   4.257038e+02   1.727746e+01
   1.534866e+02   4.098156e+02
  -2.125173e+02   1.926791e+02
  -2.448977e+02  -3.089241e+02
   1.104548e+02  -4.528505e+02
   4.958002e+02  -7.817368e+01
   5.309617e+02   3.968910e+02
   1.583097e+02   5.359156e+02
  -3.367982e+02   2.949185e+02
  -5.648294e+02  -7.351579e+01
  -3.509932e+02  -3.008655e+02
   9.079192e+01  -2.697793e+02
   3.426706e+02  -6.708485e+01
   2.183519e+02   8.405409e+01
  -3.845858e+01   4.197543e+01
  -7.381225e+01  -8.988116e+01
   1.313327e+02  -9.759882e+01
   2.699163e+02   6.429230e+01
   1.265614e+02   2.321311e+02
  -1.712226e+02   2.530073e+02
  -3.413033e+02   1.225079e+02
  -2.513052e+02  -8.877297e+01
   1.372525e+01  -2.972105e+02
   2.732361e+02  -3.692751e+02
   3.710184e+02  -1.873502e+02
   2.611119e+02   1.616931e+02
   5.531260e+01   3.944275e+02
  -6.591790e+01   3.404293e+02
  -4.869394e+01   1.493849e+02
  -2.181557e+01   7.182561e+01
  -1.080628e+02   1.176451e+02
  -2.444182e+02   8.556294e+01
  -2.645855e+02  -1.040103e+02
  -1.140945e+02  -2.729911e+02
   9.482245e+01  -2.196486e+02
   2.112641e+02   2.830646e+01
   1.586885e+02   2.533898e+02
  -4.030795e+01   2.726105e+02
  -2.624763e+02   7.974353e+01
  -3.319900e+02  -1.782208e+02
  -1.746617e+02  -3.224764e+02
   7.011273e+01  -2.806701e+02
   1.862481e+02  -1.428919e+02
   1.452863e+02  -5.844970e+01
   1.331702e+02  -6.418358e+01
   2.725035e+02  -5.148500e+01
   4.202541e+02   8.328280e+01
   3.328673e+02   3.002786e+02
  -1.739605e+01   4.505327e+02
  -3.831915e+02   4.130123e+02
  -4.938392e+02   1.864789e+02
  -3.091905e+02  -1.038858e+02
  -2.761610e+01  -2.729716e+02
   1.113674e+02  -2.160556e+02
   3.312834e+01  -2.967090e+01
  -1.235120e+02   6.317066e+01
  -1.566436e+02  -3.413831e+01
  -1.708300e+01  -1.655810e+02
   1.391361e+02  -1.243703e+02
   1.330991e+02   6.210046e+01
  -3.078770e+01   1.543879e+02
  -1.780511e+02   7.698924e+00
  -1.579544e+02  -2.446314e+02
   2.367882e+01  -3.505574e+02
   2.416762e+02  -2.095371e+02
   3.559199e+02   5.933747e+01
   2.877390e+02   2.602975e+02
   7.405585e+01   2.806024e+02
  -1.288204e+02   1.512661e+02
  -1.639449e+02   8.342688e+00
  -4.142166e+01  -2.206101e+01
   6.016832e+01   5.762035e+01
   5.261634e+00   1.229896e+02
  -1.300608e+02   7.830776e+01
  -1.612080e+02  -2.610661e+01
  -3.854150e+01  -6.424099e+01
   8.644078e+01   3.877498e+00
   4.652905e+01   9.113254e+01
  -1.445090e+02   9.245440e+01
  -3.049786e+02  -1.357072e+01
  -2.680775e+02  -1.655410e+02
  -3.907672e+01  -2.697313e+02
   2.077635e+02  -2.498096e+02
   2.819032e+02  -1.065218e+02
   1.499709e+02   5.157012e+01
  -3.200271e+01   8.993939e+01
  -7.502935e+01  -3.597160e+00
   5.039645e+01  -9.047889e+01
   1.948355e+02  -4.083170e+01
   1.998836e+02   1.081020e+02
   5.939650e+01   1.991656e+02
  -9.436796e+01   1.447022e+02
  -1.345657e+02   1.900711e+01
  -5.375835e+01  -4.107151e+01
   4.173726e+01   1.324845e+01
   3.382708e+01   1.058062e+02
  -9.130036e+01   1.223066e+02
  -2.138655e+02   1.930069e+01
  -1.904137e+02  -1.351662e+02
  -1.328160e+01  -2.171229e+02
   1.632452e+02  -1.571357e+02
   1.835252e+02  -8.240121e+00
   5.748937e+01   1.033765e+02
  -6.594811e+01   1.014844e+02
  -7.587245e+01   2.566726e+01
  -5.936519e+00  -2.749641e+01
   3.472259e+01  -1.343684e+01
  -7.430841e+00   2.137386e+01
  -8.472000e+01   1.203985e+00
  -1.044006e+02  -8.901437e+01
  -1.481163e+01  -1.755050e+02
   1.409335e+02  -1.588643e+02
   2.443021e+02  -1.579736e+01
   2.005609e+02   1.604743e+02
   3.886403e+01   2.364510e+02
  -1.063799e+02   1.654361e+02
  -1.334416e+02   3.027948e+01
  -7.353339e+01  -4.771458e+01
  -3.258713e+01  -3.089065e+01
  -5.602889e+01   1.457547e+01
  -8.752880e+01   8.185566e+00
  -5.487204e+01  -5.497209e+01
   3.918927e+01  -1.038314e+02
   1.186868e+02  -6.877944e+01
   1.050160e+02   4.051240e+01
  -1.423254e+01   1.283525e+02
  -1.610274e+02   9.411484e+01
  -2.102327e+02  -6.180377e+01
  -9.282743e+01  -2.163879e+02
   1.229961e+02  -2.308996e+02
   2.748294e+02  -8.787932e+01
   2.538946e+02   9.206649e+01
   1.033049e+02   1.757049e+02
  -4.128211e+01   1.435511e+02
  -9.220804e+01   8.232354e+01
  -7.342653e+01   7.051172e+01
  -6.108638e+01   9.504303e+01
  -9.201155e+01   8.015437e+01
  -1.333678e+02  -1.866286e+01
  -1.219774e+02  -1.565830e+02
  -2.865917e+01  -2.307814e+02
   1.021035e+02  -1.720494e+02
   1.760685e+02  -1.396325e+01
   1.325729e+02   1.291329e+02
   1.209567e+01   1.613890e+02
  -7.589465e+01   8.647571e+01
  -6.492399e+01  -1.027666e+01
   4.295957e-01  -5.285442e+01
   2.284609e+01  -3.805710e+01
  -2.967555e+01  -1.456461e+01
  -8.459770e+01  -1.858115e+01
  -5.016770e+01  -3.981248e+01
   7.191621e+01  -4.127559e+01
   1.739322e+02  -1.431861e+00
   1.486064e+02   6.115280e+01
   4.697751e+00   9.918252e+01
  -1.336571e+02   7.700034e+01
  -1.492921e+02   8.091216e+00
  -4.737006e+01  -4.924202e+01
   6.050396e+01  -4.345589e+01
   7.926896e+01   1.808572e+01
   1.751567e+01   7.283625e+01
  -4.837646e+01   6.473997e+01
  -6.837786e+01   2.326321e+00
  -5.602509e+01  -5.002570e+01
  -4.830524e+01  -4.327453e+01
  -5.800544e+01  -2.243600e+00
  -6.667377e+01  -7.884108e-01
  -4.397169e+01  -7.176417e+01
   2.742181e+01  -1.539408e+02
   1.247682e+02  -1.494528e+02
   1.802093e+02  -3.668712e+01
   1.325451e+02   9.451330e+01
   4.656820e+00   1.347176e+02
  -9.189665e+01   7.008104e+01
  -6.274265e+01  -1.134720e+01
   5.934900e+01  -2.117320e+01
   1.373288e+02   4.239101e+01
   7.362129e+01   1.087346e+02
  -8.431846e+01   1.126005e+02
  -1.935758e+02   4.739684e+01
  -1.617292e+02  -3.981103e+01
  -3.299526e+01  -8.758762e+01
   6.522385e+01  -6.506161e+01
   5.043899e+01  -1.059310e+00
  -4.002195e+01   3.107744e+01
  -9.392876e+01  -1.963153e+01
  -3.974692e+01  -1.175948e+02
   8.203577e+01  -1.580796e+02
   1.615230e+02  -7.051978e+01
   1.288965e+02   9.396571e+01
   1.639417e+01   1.961800e+02
  -8.353246e+01   1.441780e+02
  -1.064473e+02  -9.856027e+00
  -5.833088e+01  -1.220134e+02
   1.030582e+01  -1.066566e+02
   5.154972e+01  -1.714800e+01
   4.813180e+01   3.293002e+01
   1.934710e+01   8.567443e+00
   5.696282e+00  -1.881773e+01
   2.918534e+01   1.896121e+01
   5.905411e+01   9.065926e+01
   3.542800e+01   1.086520e+02
  -5.459090e+01   4.503647e+01
  -1.387218e+02  -3.765041e+01
  -1.269775e+02  -7.071081e+01
  -1.922052e+01  -5.306393e+01
   8.317088e+01  -2.535817e+01
   8.852206e+01  -6.753808e+00
   1.653897e+01   1.000125e+01
  -3.593482e+01   2.191212e+01
  -1.885818e+01   1.499874e+01
   1.645660e+01  -2.923504e+00
  -3.351466e+00  -6.786245e+00
  -6.914722e+01  -2.370764e-01
  -9.423758e+01  -2.149147e+01
  -1.972186e+01  -8.077319e+01
   1.102916e+02  -1.193502e+02
   1.892384e+02  -6.801955e+01
   1.525154e+02   5.891073e+01
   3.284673e+01   1.616072e+02
  -7.916145e+01   1.575452e+02
  -1.166604e+02   6.663098e+01
  -8.194130e+01  -1.912711e+01
  -2.720536e+01  -3.756345e+01
  -1.701246e+00  -1.170085e+01
  -1.369246e+01  -7.034555e+00
  -3.227914e+01  -4.907691e+01
  -2.036982e+01  -9.265416e+01
   2.894452e+01  -7.329110e+01
   8.021251e+01   1.540736e+01
   8.119824e+01   1.036360e+02
   1.326125e+01   1.115045e+02
  -7.669168e+01   3.088448e+01
  -1.066136e+02  -6.684822e+01
  -4.014811e+01  -1.035379e+02
   6.391629e+01  -6.391308e+01
   1.038411e+02   6.860665e+00
   4.631526e+01   5.595932e+01
  -3.278875e+01   6.082581e+01
  -3.817686e+01   3.079035e+01
   2.791455e+01  -4.285348e+00
   6.934586e+01  -9.344176e+00
   1.837530e+01   2.661163e+01
  -7.913612e+01   6.760822e+01
  -1.214707e+02   5.738176e+01
  -7.124097e+01  -1.440944e+01
   1.301880e+01  -8.592686e+01
   5.630773e+01  -8.480150e+01
   4.292711e+01  -1.263916e+01
   6.304382e+00   5.334236e+01
  -2.335438e+01   4.781956e+01
  -3.669780e+01  -1.187807e+01
  -2.925332e+01  -5.411111e+01
   4.621278e-02  -3.853033e+01
   3.358042e+01   5.466189e+00
   4.284571e+01   2.393980e+01
   2.153665e+01   3.717541e+00
  -3.967546e+00  -1.844017e+01
  -7.999826e+00  -5.683068e+00
   1.341020e+00   3.250084e+01
  -3.522081e+00   5.011284e+01
  -2.700630e+01   1.862482e+01
  -3.847529e+01  -3.638429e+01
  -1.013961e+01  -5.939485e+01
   4.111798e+01  -2.507612e+01
   6.208072e+01   3.357424e+01
   1.932398e+01   6.120066e+01
  -5.659740e+01   3.716756e+01
  -9.349278e+01  -1.077652e+01
  -5.183432e+01  -4.323110e+01
   2.799018e+01  -4.553211e+01
   6.522445e+01  -2.798041e+01
   2.796438e+01  -7.418722e+00
  -3.045862e+01   1.622272e+00
  -3.429366e+01  -8.694902e+00
   2.558722e+01  -2.684874e+01
   8.227359e+01  -2.098876e+01
