
 $NMID
 id='ANONYMOUS ', fmtdat='(2E16.6)'
 volume=1.0
 tramp=1.0
 $END
  -3.517047e+03   8.228633e+00
  -2.238959e+03  -1.854872e+03
   1.525207e+02  -2.201106e+03
   1.417990e+03  -1.161160e+03
   9.205938e+02  -1.884875e+01
  -1.378172e+02   2.673534e+02
  -4.856871e+02  -1.909190e+02
  -3.343032e+01  -6.729916e+02
   5.375385e+02  -6.279207e+02
   7.114909e+02  -4.826685e+01
   4.373422e+02   5.882904e+02
  -4.728636e+01   7.026686e+02
  -3.788247e+02   1.663881e+02
  -2.797689e+02  -4.900282e+02
   1.479946e+02  -5.927036e+02
   4.512674e+02  -6.196779e+01
   2.983128e+02   5.284513e+02
  -1.590943e+02   6.254845e+02
  -4.860792e+02   2.399931e+02
  -4.298197e+02  -2.069041e+02
  -1.108489e+02  -3.746359e+02
   1.462220e+02  -2.506981e+02
   1.025705e+02  -6.179386e+01
  -1.731109e+02  -4.778372e+01
  -3.187438e+02  -2.373163e+02
  -4.081899e+01  -3.868769e+02
   4.747358e+02  -2.330945e+02
   6.735084e+02   1.577394e+02
   2.739048e+02   4.120727e+02
  -3.464174e+02   2.749811e+02
  -5.682907e+02  -1.082421e+02
  -2.305053e+02  -3.952420e+02
   2.673577e+02  -3.962541e+02
   4.832963e+02  -1.514925e+02
   3.469254e+02   1.737772e+02
   8.144280e+01   3.496244e+02
  -7.242011e+01   2.045205e+02
  -1.060794e+01  -1.294648e+02
   1.831553e+02  -2.317305e+02
   2.703104e+02   1.159032e+02
   7.425171e+01   5.485338e+02
  -2.683514e+02   5.089604e+02
  -3.971878e+02  -2.437206e+00
  -1.537262e+02  -3.775956e+02
   1.895341e+02  -1.833881e+02
   2.303480e+02   2.884280e+02
  -1.004204e+02   4.318269e+02
  -4.738348e+02   8.063623e+01
  -5.180081e+02  -3.759348e+02
  -1.637658e+02  -5.160275e+02
   3.175428e+02  -2.900960e+02
   5.462766e+02   6.055054e+01
   3.494347e+02   2.797287e+02
  -7.318890e+01   2.591615e+02
  -3.245830e+02   7.719036e+01
  -2.188736e+02  -6.682634e+01
   2.512275e+01  -3.998002e+01
   7.024926e+01   7.619486e+01
  -1.181719e+02   9.018896e+01
  -2.573147e+02  -5.358113e+01
  -1.292388e+02  -2.174318e+02
   1.603046e+02  -2.507243e+02
   3.358525e+02  -1.283257e+02
   2.519099e+02   8.725744e+01
  -1.306726e+01   2.986288e+02
  -2.703513e+02   3.652792e+02
  -3.615760e+02   1.823975e+02
  -2.524219e+02  -1.554021e+02
  -5.903607e+01  -3.789140e+02
   5.252494e+01  -3.318931e+02
   4.068248e+01  -1.545668e+02
   2.520223e+01  -7.890375e+01
   1.125268e+02  -1.152701e+02
   2.399130e+02  -7.901367e+01
   2.550279e+02   1.026749e+02
   1.099904e+02   2.626518e+02
  -8.996003e+01   2.104245e+02
  -2.025521e+02  -2.799256e+01
  -1.533147e+02  -2.443531e+02
   3.769543e+01  -2.625975e+02
   2.526734e+02  -7.757323e+01
   3.227930e+02   1.693316e+02
   1.750330e+02   3.091655e+02
  -6.050278e+01   2.740960e+02
  -1.773675e+02   1.465002e+02
  -1.438895e+02   6.454664e+01
  -1.345362e+02   6.516886e+01
  -2.687105e+02   4.983207e+01
  -4.119470e+02  -8.019599e+01
  -3.279056e+02  -2.910038e+02
   1.365300e+01  -4.402359e+02
   3.718272e+02  -4.066368e+02
   4.799343e+02  -1.862835e+02
   2.998940e+02   9.716771e+01
   2.886659e+01   2.624791e+02
  -1.019564e+02   2.098108e+02
  -2.706202e+01   3.242833e+01
   1.184308e+02  -5.783508e+01
   1.475779e+02   3.177095e+01
   1.725734e+01   1.562749e+02
  -1.290588e+02   1.197197e+02
  -1.259407e+02  -5.623738e+01
   2.709262e+01  -1.463529e+02
   1.705215e+02  -8.179061e+00
   1.568796e+02   2.363521e+02
  -1.816996e+01   3.433901e+02
  -2.358037e+02   2.086856e+02
  -3.517781e+02  -5.523745e+01
  -2.839640e+02  -2.538058e+02
  -7.254070e+01  -2.737457e+02
   1.250398e+02  -1.474380e+02
   1.578513e+02  -9.720897e+00
   3.959514e+01   1.888467e+01
  -5.728029e+01  -5.688549e+01
  -4.286174e+00  -1.183031e+02
   1.253331e+02  -7.547279e+01
   1.551290e+02   2.380148e+01
   3.693892e+01   6.014457e+01
  -8.383651e+01  -5.256535e+00
  -4.449915e+01  -8.978207e+01
   1.426740e+02  -9.130657e+01
   2.997851e+02   1.249558e+01
   2.628153e+02   1.615855e+02
   3.825739e+01   2.633204e+02
  -2.017610e+02   2.439058e+02
  -2.726866e+02   1.054925e+02
  -1.450235e+02  -4.726354e+01
   2.967117e+01  -8.569288e+01
   7.088419e+01   2.809648e+00
  -4.927064e+01   8.668476e+01
  -1.885411e+02   4.033711e+01
  -1.947732e+02  -1.029189e+02
  -5.994114e+01  -1.922748e+02
   8.956849e+01  -1.410881e+02
   1.295682e+02  -1.975799e+01
   5.128606e+01   3.830879e+01
  -4.131758e+01  -1.507075e+01
  -3.242038e+01  -1.051482e+02
   9.051210e+01  -1.202824e+02
   2.098375e+02  -1.927915e+01
   1.867421e+02   1.310549e+02
   1.473116e+01   2.113639e+02
  -1.570205e+02   1.547946e+02
  -1.781856e+02   1.113462e+01
  -5.730828e+01  -9.858338e+01
   6.244164e+01  -9.889742e+01
   7.267995e+01  -2.595423e+01
   4.707938e+00   2.610187e+01
  -3.480051e+01   1.211754e+01
   7.668381e+00  -2.251556e+01
   8.490453e+01  -2.237350e+00
   1.042827e+02   8.765808e+01
   1.529247e+01   1.731946e+02
  -1.379503e+02   1.565923e+02
  -2.390781e+02   1.645373e+01
  -1.970227e+02  -1.555762e+02
  -4.043478e+01  -2.303288e+02
   1.014531e+02  -1.625961e+02
   1.299694e+02  -3.163243e+01
   7.324516e+01   4.512605e+01
   3.295627e+01   2.955073e+01
   5.503275e+01  -1.496922e+01
   8.639222e+01  -8.675662e+00
   5.526594e+01   5.452318e+01
  -3.787370e+01   1.038140e+02
  -1.178387e+02   6.890593e+01
  -1.048086e+02  -4.024942e+01
   1.375690e+01  -1.274580e+02
   1.589325e+02  -9.337230e+01
   2.068456e+02   6.007455e+01
   9.136957e+01   2.115343e+02
  -1.195210e+02   2.262012e+02
  -2.678859e+02   8.761072e+01
  -2.483891e+02  -8.747876e+01
  -1.023769e+02  -1.699859e+02
   3.870350e+01  -1.402068e+02
   8.879318e+01  -8.148831e+01
   7.040293e+01  -7.027075e+01
   5.830455e+01  -9.441867e+01
   8.939697e+01  -8.006038e+01
   1.313557e+02   1.671577e+01
   1.213206e+02   1.522402e+02
   3.023853e+01   2.257028e+02
  -9.818521e+01   1.691017e+02
  -1.715630e+02   1.493889e+01
  -1.301798e+02  -1.252177e+02
  -1.282222e+01  -1.573248e+02
   7.368864e+01  -8.422715e+01
   6.335026e+01   1.073794e+01
  -1.030854e+00   5.236858e+01
  -2.339444e+01   3.701062e+01
   2.876482e+01   1.309718e+01
   8.375515e+01   1.713550e+01
   4.995919e+01   3.888221e+01
  -7.097826e+01   4.108510e+01
  -1.715999e+02   2.159419e+00
  -1.459073e+02  -5.947367e+01
  -3.934678e+00  -9.731302e+01
   1.313474e+02  -7.624727e+01
   1.459561e+02  -8.785990e+00
   4.621806e+01   4.838270e+01
  -5.909984e+01   4.375956e+01
  -7.811881e+01  -1.691923e+01
  -1.864671e+01  -7.211575e+01
   4.628147e+01  -6.502526e+01
   6.763779e+01  -3.159869e+00
   5.655475e+01   4.905972e+01
   4.812761e+01   4.223160e+01
   5.642211e+01   1.312808e+00
   6.525681e+01   6.496216e-02
   4.442532e+01   7.067561e+01
  -2.508673e+01   1.520536e+02
  -1.217376e+02   1.478553e+02
  -1.776777e+02   3.720788e+01
  -1.314055e+02  -9.190373e+01
  -5.311573e+00  -1.324405e+02
   9.024425e+01  -7.004607e+01
   6.200978e+01   1.021182e+01
  -5.790198e+01   2.146961e+01
  -1.348337e+02  -3.979964e+01
  -7.289423e+01  -1.055031e+02
   8.158115e+01  -1.108445e+02
   1.887377e+02  -4.789121e+01
   1.581160e+02   3.766112e+01
   3.275515e+01   8.508913e+01
  -6.314616e+01   6.355385e+01
  -4.903828e+01   8.780757e-01
   3.919672e+01  -3.117378e+01
   9.260606e+01   1.808523e+01
   4.093216e+01   1.149003e+02
  -7.778420e+01   1.565088e+02
  -1.571269e+02   7.197360e+01
  -1.277567e+02  -8.994733e+01
  -1.892085e+01  -1.919407e+02
   7.988238e+01  -1.420674e+02
   1.041884e+02   8.886028e+00
   5.790742e+01   1.189270e+02
  -9.750729e+00   1.038727e+02
  -5.059231e+01   1.666353e+01
  -4.693451e+01  -3.158092e+01
  -1.835660e+01  -7.721121e+00
  -5.419641e+00   1.817334e+01
  -2.936240e+01  -1.917700e+01
  -5.896840e+01  -8.843929e+01
  -3.525197e+01  -1.053477e+02
   5.365093e+01  -4.412792e+01
   1.362612e+02   3.510677e+01
   1.247025e+02   6.750090e+01
   1.933887e+01   5.212827e+01
  -8.078823e+01   2.637506e+01
  -8.645579e+01   7.500924e+00
  -1.668668e+01  -1.023945e+01
   3.460512e+01  -2.196767e+01
   1.853900e+01  -1.424699e+01
  -1.566141e+01   3.515087e+00
   3.268950e+00   6.210218e+00
   6.736673e+01  -1.262341e+00
   9.285610e+01   1.989815e+01
   2.130762e+01   7.959032e+01
  -1.060509e+02   1.190666e+02
  -1.853587e+02   6.940145e+01
  -1.515227e+02  -5.577084e+01
  -3.470081e+01  -1.581536e+02
   7.618586e+01  -1.557789e+02
   1.141605e+02  -6.715603e+01
   8.067170e+01   1.762881e+01
   2.712783e+01   3.681174e+01
   2.069972e+00   1.204083e+01
   1.362788e+01   7.259748e+00
   3.182285e+01   4.793452e+01
   2.055884e+01   9.052254e+01
  -2.757310e+01   7.221198e+01
  -7.876063e+01  -1.379086e+01
  -8.133689e+01  -1.002729e+02
  -1.518564e+01  -1.094627e+02
   7.458026e+01  -3.217276e+01
   1.059926e+02   6.356690e+01
   4.126400e+01   1.013829e+02
  -6.210347e+01   6.425827e+01
  -1.026088e+02  -5.429110e+00
  -4.631281e+01  -5.524048e+01
   3.199590e+01  -6.079357e+01
   3.787157e+01  -3.036330e+01
  -2.689802e+01   5.298764e+00
  -6.791947e+01   1.018961e+01
  -1.852699e+01  -2.621212e+01
   7.676259e+01  -6.720720e+01
   1.187131e+02  -5.699556e+01
   7.045063e+01   1.403611e+01
  -1.168130e+01   8.469551e+01
  -5.482859e+01   8.393311e+01
  -4.291831e+01   1.316364e+01
  -7.424738e+00  -5.218388e+01
   2.239867e+01  -4.771038e+01
   3.649592e+01   1.057942e+01
   2.949946e+01   5.280523e+01
   2.924810e-01   3.845771e+01
  -3.316868e+01  -4.690426e+00
  -4.232188e+01  -2.344207e+01
  -2.103649e+01  -3.720943e+00
   4.134036e+00   1.864527e+01
   7.440711e+00   6.418913e+00
  -2.740789e+00  -3.189733e+01
   1.930288e+00  -5.046873e+01
   2.640716e+01  -1.996968e+01
   3.944839e+01   3.484188e+01
   1.191793e+01   5.864769e+01
  -3.989555e+01   2.568541e+01
  -6.206183e+01  -3.194604e+01
  -2.021183e+01  -5.979411e+01
   5.534392e+01  -3.721647e+01
   9.238417e+01   9.324794e+00
   5.154353e+01   4.181416e+01
  -2.710616e+01   4.540710e+01
  -6.398555e+01   2.875568e+01
  -2.782604e+01   7.590601e+00
   2.935735e+01  -2.762752e+00
   3.377327e+01   7.190113e+00
  -2.393088e+01   2.645824e+01
  -7.945726e+01   2.218476e+01
