
 $NMID
 id='ANONYMOUS ', fmtdat='(2E16.6)'
 volume=1.0
 tramp=1.0
 $END
  -3.710147e+03   2.247337e+01
  -2.333889e+03  -2.025934e+03
   2.670454e+02  -2.353438e+03
   1.592290e+03  -1.129655e+03
   9.602986e+02   1.304863e+02
  -2.376713e+02   3.566384e+02
  -5.837569e+02  -2.298637e+02
  -3.707881e+01  -7.627177e+02
   6.004105e+02  -6.726028e+02
   7.702795e+02  -2.241520e+01
   4.499993e+02   6.527622e+02
  -8.601207e+01   7.544457e+02
  -4.395370e+02   1.648083e+02
  -3.101394e+02  -5.391803e+02
   1.722084e+02  -6.337350e+02
   4.906488e+02  -5.119840e+01
   2.974926e+02   5.674385e+02
  -1.990998e+02   6.369296e+02
  -5.176872e+02   2.105337e+02
  -4.280024e+02  -2.437765e+02
  -9.151341e+01  -3.947607e+02
   1.684995e+02  -2.579229e+02
   1.288775e+02  -5.672261e+01
  -1.552191e+02  -2.333202e+01
  -3.320640e+02  -2.103567e+02
  -7.394456e+01  -3.915791e+02
   4.676859e+02  -2.684931e+02
   7.096163e+02   1.378426e+02
   3.118796e+02   4.383404e+02
  -3.507181e+02   3.205876e+02
  -6.050449e+02  -8.932624e+01
  -2.577277e+02  -4.122211e+02
   2.691856e+02  -4.231711e+02
   5.022931e+02  -1.634988e+02
   3.648271e+02   1.854324e+02
   8.286779e+01   3.791669e+02
  -9.756449e+01   2.277900e+02
  -4.803561e+01  -1.417835e+02
   1.727007e+02  -2.747446e+02
   3.041390e+02   8.971719e+01
   1.133493e+02   5.727354e+02
  -2.752223e+02   5.535281e+02
  -4.433609e+02   5.732213e+00
  -1.827454e+02  -4.136115e+02
   2.073741e+02  -2.168927e+02
   2.644713e+02   2.919416e+02
  -9.146434e+01   4.565686e+02
  -4.915256e+02   9.364351e+01
  -5.359471e+02  -3.842254e+02
  -1.648961e+02  -5.344159e+02
   3.322659e+02  -3.044843e+02
   5.669947e+02   6.345564e+01
   3.595429e+02   3.045941e+02
  -8.763682e+01   2.863989e+02
  -3.531953e+02   7.640807e+01
  -2.304920e+02  -9.527624e+01
   4.247278e+01  -5.884823e+01
   8.963648e+01   9.031896e+01
  -1.248355e+02   1.130222e+02
  -2.787107e+02  -5.564223e+01
  -1.350610e+02  -2.365439e+02
   1.718550e+02  -2.548042e+02
   3.398889e+02  -1.144889e+02
   2.402434e+02   9.159779e+01
  -2.139077e+01   2.839909e+02
  -2.647776e+02   3.538574e+02
  -3.570573e+02   1.875272e+02
  -2.600337e+02  -1.514527e+02
  -6.421745e+01  -3.921981e+02
   6.572833e+01  -3.474672e+02
   6.124219e+01  -1.499213e+02
   3.009909e+01  -5.954130e+01
   9.985931e+01  -1.055368e+02
   2.289645e+02  -8.685607e+01
   2.581857e+02   9.234983e+01
   1.201952e+02   2.635458e+02
  -8.513749e+01   2.200660e+02
  -2.068299e+02  -1.948224e+01
  -1.621567e+02  -2.432064e+02
   3.170505e+01  -2.691488e+02
   2.551599e+02  -8.572067e+01
   3.313347e+02   1.694566e+02
   1.786504e+02   3.199222e+02
  -6.908555e+01   2.839230e+02
  -1.909620e+02   1.430567e+02
  -1.492637e+02   5.142407e+01
  -1.291861e+02   5.626394e+01
  -2.614655e+02   4.993912e+01
  -4.091342e+02  -7.836290e+01
  -3.278478e+02  -2.922222e+02
   1.360992e+01  -4.414389e+02
   3.723462e+02  -4.064996e+02
   4.835612e+02  -1.876638e+02
   3.080916e+02   9.655208e+01
   3.466791e+01   2.692517e+02
  -1.075778e+02   2.208574e+02
  -3.952164e+01   3.447871e+01
   1.149141e+02  -6.796327e+01
   1.575160e+02   2.465128e+01
   2.572568e+01   1.642056e+02
  -1.348684e+02   1.326472e+02
  -1.381665e+02  -5.553360e+01
   2.357783e+01  -1.566647e+02
   1.753481e+02  -1.388570e+01
   1.581355e+02   2.402994e+02
  -2.293071e+01   3.463687e+02
  -2.374390e+02   2.040757e+02
  -3.471192e+02  -6.049018e+01
  -2.809935e+02  -2.531383e+02
  -7.549360e+01  -2.715975e+02
   1.230823e+02  -1.494379e+02
   1.622900e+02  -1.229560e+01
   4.457453e+01   2.122040e+01
  -5.903475e+01  -5.274119e+01
  -9.575427e+00  -1.190297e+02
   1.247163e+02  -8.039247e+01
   1.602513e+02   2.113622e+01
   4.211549e+01   6.232493e+01
  -8.215894e+01  -1.066155e+00
  -4.568134e+01  -8.604189e+01
   1.394841e+02  -8.868788e+01
   2.957669e+02   1.254095e+01
   2.614485e+02   1.586538e+02
   4.125649e+01   2.612071e+02
  -1.989438e+02   2.463200e+02
  -2.755047e+02   1.094781e+02
  -1.511061e+02  -4.795611e+01
   2.788482e+01  -9.098300e+01
   7.511322e+01  -3.137672e-01
  -4.541675e+01   8.921443e+01
  -1.900129e+02   4.408606e+01
  -1.989973e+02  -1.032812e+02
  -6.197729e+01  -1.962940e+02
   9.088614e+01  -1.451303e+02
   1.329249e+02  -2.192938e+01
   5.578927e+01   3.851907e+01
  -3.737363e+01  -1.188460e+01
  -3.193519e+01  -1.002799e+02
   8.740424e+01  -1.173539e+02
   2.071354e+02  -1.973189e+01
   1.871066e+02   1.303364e+02
   1.545378e+01   2.131407e+02
  -1.595538e+02   1.568757e+02
  -1.826648e+02   9.903947e+00
  -5.959711e+01  -1.024749e+02
   6.352466e+01  -1.020124e+02
   7.527231e+01  -2.725227e+01
   7.745583e+00   2.551403e+01
  -3.160830e+01   1.279855e+01
   8.967109e+00  -1.930939e+01
   8.234292e+01   1.385768e+00
   9.997311e+01   8.780715e+01
   1.355711e+01   1.700795e+02
  -1.365016e+02   1.544761e+02
  -2.377812e+02   1.703236e+01
  -1.973089e+02  -1.553691e+02
  -3.995786e+01  -2.325060e+02
   1.039230e+02  -1.644480e+02
   1.320335e+02  -3.028794e+01
   7.307826e+01   4.817103e+01
   3.217238e+01   3.145880e+01
   5.497168e+01  -1.396157e+01
   8.517433e+01  -7.360581e+00
   5.175821e+01   5.445484e+01
  -4.027187e+01   1.003117e+02
  -1.155117e+02   6.448335e+01
  -1.000782e+02  -4.069889e+01
   1.521472e+01  -1.236006e+02
   1.560167e+02  -9.007156e+01
   2.040834e+02   5.962165e+01
   9.193696e+01   2.095121e+02
  -1.177341e+02   2.257700e+02
  -2.681185e+02   8.823419e+01
  -2.503652e+02  -8.814577e+01
  -1.036561e+02  -1.720460e+02
   3.921095e+01  -1.418819e+02
   9.060682e+01  -8.204203e+01
   7.300758e+01  -7.024672e+01
   6.103396e+01  -9.383442e+01
   9.093873e+01  -7.844823e+01
   1.309689e+02   1.885295e+01
   1.198437e+02   1.537246e+02
   2.887346e+01   2.262976e+02
  -9.924299e+01   1.695306e+02
  -1.725343e+02   1.547226e+01
  -1.309255e+02  -1.250584e+02
  -1.351498e+01  -1.578671e+02
   7.245844e+01  -8.548143e+01
   6.213296e+01   8.695580e+00
  -4.560087e-01   4.997668e+01
  -2.085203e+01   3.577313e+01
   3.062044e+01   1.410305e+01
   8.298351e+01   1.912262e+01
   4.856918e+01   3.931227e+01
  -6.985875e+01   3.942576e+01
  -1.686602e+02   6.853112e-01
  -1.447128e+02  -5.868516e+01
  -5.515956e+00  -9.494119e+01
   1.296134e+02  -7.455672e+01
   1.457618e+02  -8.944469e+00
   4.614642e+01   4.693377e+01
  -5.993655e+01   4.209791e+01
  -7.768996e+01  -1.796003e+01
  -1.563699e+01  -7.195732e+01
   4.913550e+01  -6.365137e+01
   6.699285e+01  -1.399896e+00
   5.359340e+01   5.023027e+01
   4.685660e+01   4.269194e+01
   5.759903e+01   1.657612e+00
   6.553596e+01   5.501395e-01
   4.184633e+01   7.073925e+01
  -2.803191e+01   1.509266e+02
  -1.218124e+02   1.454810e+02
  -1.751959e+02   3.466037e+01
  -1.290797e+02  -9.293686e+01
  -4.518314e+00  -1.310991e+02
   9.015981e+01  -6.746192e+01
   6.174268e+01   1.174310e+01
  -5.840131e+01   2.087919e+01
  -1.354436e+02  -4.132221e+01
  -7.307723e+01  -1.062784e+02
   8.201554e+01  -1.107414e+02
   1.894694e+02  -4.782089e+01
   1.588556e+02   3.755317e+01
   3.337050e+01   8.549895e+01
  -6.277365e+01   6.462117e+01
  -4.879670e+01   2.034775e+00
   3.949037e+01  -2.999399e+01
   9.229651e+01   1.971036e+01
   3.868269e+01   1.163971e+02
  -8.186075e+01   1.562480e+02
  -1.603530e+02   6.941463e+01
  -1.275402e+02  -9.314378e+01
  -1.614338e+01  -1.937937e+02
   8.192818e+01  -1.424070e+02
   1.042025e+02   8.997388e+00
   5.781952e+01   1.190038e+02
  -8.472846e+00   1.041222e+02
  -4.951030e+01   1.695847e+01
  -4.790040e+01  -3.156985e+01
  -2.005617e+01  -7.698505e+00
  -5.093893e+00   1.862630e+01
  -2.712782e+01  -1.883310e+01
  -5.775332e+01  -8.901025e+01
  -3.634735e+01  -1.062355e+02
   5.238219e+01  -4.378036e+01
   1.367850e+02   3.683757e+01
   1.257058e+02   6.884798e+01
   1.853597e+01   5.181634e+01
  -8.278643e+01   2.528039e+01
  -8.697931e+01   7.104086e+00
  -1.520137e+01  -9.960331e+00
   3.563103e+01  -2.202978e+01
   1.747849e+01  -1.483154e+01
  -1.706036e+01   3.222654e+00
   3.908218e+00   6.770559e+00
   6.918672e+01   1.502482e-02
   9.265281e+01   2.144082e+01
   1.796435e+01   8.047940e+01
  -1.098671e+02   1.179039e+02
  -1.864088e+02   6.580072e+01
  -1.495312e+02  -5.980022e+01
  -3.186809e+01  -1.596934e+02
   7.810505e+01  -1.541507e+02
   1.150218e+02  -6.451463e+01
   8.074880e+01   1.903410e+01
   2.633900e+01   3.678122e+01
   7.146535e-01   1.153472e+01
   1.267808e+01   6.782311e+00
   3.171348e+01   4.759275e+01
   2.044830e+01   9.047183e+01
  -2.843746e+01   7.199871e+01
  -7.943681e+01  -1.525969e+01
  -8.011097e+01  -1.028211e+02
  -1.216117e+01  -1.106888e+02
   7.692060e+01  -3.016582e+01
   1.054673e+02   6.706391e+01
   3.864460e+01   1.025617e+02
  -6.389836e+01   6.212776e+01
  -1.018199e+02  -7.756849e+00
  -4.415460e+01  -5.483647e+01
   3.297388e+01  -5.861043e+01
   3.670392e+01  -2.933972e+01
  -2.874933e+01   4.359539e+00
  -6.846653e+01   9.027800e+00
  -1.750007e+01  -2.624784e+01
   7.781760e+01  -6.655354e+01
   1.183296e+02  -5.644935e+01
   6.879136e+01   1.432706e+01
  -1.323440e+01   8.443857e+01
  -5.518145e+01   8.248501e+01
  -4.202269e+01   1.093935e+01
  -5.915930e+00  -5.332985e+01
   2.368056e+01  -4.663141e+01
   3.675173e+01   1.255361e+01
   2.854400e+01   5.340511e+01
  -9.077369e-01   3.734608e+01
  -3.329972e+01  -5.773769e+00
  -4.147064e+01  -2.330919e+01
  -2.079797e+01  -3.294974e+00
   3.047705e+00   1.782237e+01
   6.841898e+00   4.404717e+00
  -6.641637e-01  -3.337139e+01
   5.766950e+00  -4.983023e+01
   2.838543e+01  -1.732473e+01
   3.762636e+01   3.777544e+01
   8.520723e+00   5.986390e+01
  -4.135056e+01   2.448787e+01
  -6.093609e+01  -3.424491e+01
  -1.868105e+01  -6.092528e+01
   5.563931e+01  -3.610170e+01
   9.180444e+01   1.147573e+01
   5.081074e+01   4.277865e+01
  -2.800454e+01   4.426208e+01
  -6.469504e+01   2.671080e+01
  -2.720099e+01   6.626425e+00
   3.135167e+01  -1.806547e+00
   3.498198e+01   9.141473e+00
  -2.540888e+01   2.766042e+01
  -8.233495e+01   2.161507e+01
