
 $NMID
 id='ANONYMOUS ', fmtdat='(2E16.6)'
 volume=1.0
 tramp=1.0
 $END
   3.687414e+03  -4.135320e+01
   2.361873e+03   1.987323e+03
  -2.099625e+02   2.362009e+03
  -1.573156e+03   1.188985e+03
  -9.999608e+02  -8.063980e+01
   1.858950e+02  -3.582475e+02
   5.679897e+02   1.971273e+02
   5.529165e+01   7.419412e+02
  -5.801777e+02   6.787740e+02
  -7.678328e+02   4.115832e+01
  -4.639204e+02  -6.398145e+02
   6.623255e+01  -7.568086e+02
   4.269153e+02  -1.807310e+02
   3.133141e+02   5.236423e+02
  -1.601531e+02   6.333088e+02
  -4.871633e+02   6.227704e+01
  -3.074811e+02  -5.642538e+02
   1.906695e+02  -6.503547e+02
   5.236847e+02  -2.270914e+02
   4.419955e+02   2.388683e+02
   1.011901e+02   3.991466e+02
  -1.634179e+02   2.634983e+02
  -1.238046e+02   6.539101e+01
   1.556949e+02   3.790241e+01
   3.222244e+02   2.205868e+02
   6.210880e+01   3.858917e+02
  -4.676998e+02   2.542274e+02
  -6.994589e+02  -1.416856e+02
  -3.069852e+02  -4.268765e+02
   3.432382e+02  -3.078448e+02
   5.941416e+02   9.121104e+01
   2.532626e+02   4.060419e+02
  -2.677184e+02   4.176664e+02
  -5.000319e+02   1.626540e+02
  -3.650500e+02  -1.818651e+02
  -8.853348e+01  -3.743659e+02
   8.591870e+01  -2.292399e+02
   3.878657e+01   1.292621e+02
  -1.682473e+02   2.596312e+02
  -2.885855e+02  -9.222981e+01
  -1.040342e+02  -5.615116e+02
   2.682991e+02  -5.452251e+02
   4.313691e+02  -1.248149e+01
   1.822046e+02   4.001474e+02
  -1.963844e+02   2.119018e+02
  -2.550587e+02  -2.868051e+02
   9.229824e+01  -4.506118e+02
   4.886830e+02  -9.137640e+01
   5.355234e+02   3.855224e+02
   1.671385e+02   5.358236e+02
  -3.299134e+02   3.047571e+02
  -5.672355e+02  -6.220499e+01
  -3.649561e+02  -3.003191e+02
   7.870579e+01  -2.843057e+02
   3.489611e+02  -8.266851e+01
   2.366970e+02   8.586101e+01
  -3.251272e+01   5.799665e+01
  -8.765737e+01  -8.207786e+01
   1.186333e+02  -1.077951e+02
   2.751760e+02   5.193114e+01
   1.381724e+02   2.326380e+02
  -1.711459e+02   2.582901e+02
  -3.474686e+02   1.185626e+02
  -2.472871e+02  -9.661828e+01
   2.551362e+01  -2.942345e+02
   2.759319e+02  -3.578734e+02
   3.628479e+02  -1.837548e+02
   2.582181e+02   1.545585e+02
   6.372976e+01   3.915831e+02
  -6.076797e+01   3.496948e+02
  -5.790473e+01   1.584912e+02
  -3.486439e+01   6.763262e+01
  -1.087829e+02   1.054825e+02
  -2.337061e+02   8.029064e+01
  -2.564831e+02  -9.807028e+01
  -1.163208e+02  -2.644780e+02
   8.683225e+01  -2.174411e+02
   2.052961e+02   2.300688e+01
   1.588097e+02   2.453026e+02
  -3.444339e+01   2.682219e+02
  -2.557692e+02   8.262959e+01
  -3.310575e+02  -1.717987e+02
  -1.799090e+02  -3.206917e+02
   6.674789e+01  -2.859245e+02
   1.909998e+02  -1.480806e+02
   1.534352e+02  -5.652558e+01
   1.354346e+02  -5.718886e+01
   2.672705e+02  -4.621510e+01
   4.136599e+02   8.414891e+01
   3.295768e+02   2.980599e+02
  -1.719322e+01   4.461031e+02
  -3.800412e+02   4.082983e+02
  -4.892671e+02   1.863397e+02
  -3.080623e+02  -9.817793e+01
  -3.283156e+01  -2.688720e+02
   1.057677e+02  -2.205578e+02
   3.566889e+01  -3.741703e+01
  -1.151058e+02   6.351305e+01
  -1.539238e+02  -2.576329e+01
  -2.414296e+01  -1.613865e+02
   1.320351e+02  -1.305256e+02
   1.351641e+02   5.412079e+01
  -2.339856e+01   1.539728e+02
  -1.743457e+02   1.208218e+01
  -1.586628e+02  -2.428310e+02
   2.375914e+01  -3.506258e+02
   2.427379e+02  -2.064075e+02
   3.536746e+02   6.377202e+01
   2.829118e+02   2.595547e+02
   7.250829e+01   2.752839e+02
  -1.258625e+02   1.489445e+02
  -1.621342e+02   1.148699e+01
  -4.396971e+01  -1.968136e+01
   5.753735e+01   5.470425e+01
   7.172419e+00   1.187736e+02
  -1.256678e+02   7.851093e+01
  -1.595409e+02  -2.215534e+01
  -4.102477e+01  -6.124175e+01
   8.246852e+01   3.607099e+00
   4.404386e+01   8.831392e+01
  -1.436484e+02   8.848594e+01
  -3.004436e+02  -1.632565e+01
  -2.627798e+02  -1.640726e+02
  -3.795259e+01  -2.644563e+02
   2.035980e+02  -2.459414e+02
   2.776274e+02  -1.079326e+02
   1.507019e+02   4.785447e+01
  -2.806289e+01   8.959714e+01
  -7.374469e+01  -1.316199e-01
   4.723661e+01  -8.796517e+01
   1.910789e+02  -4.219423e+01
   1.991924e+02   1.048695e+02
   6.151802e+01   1.972477e+02
  -9.161394e+01   1.451281e+02
  -1.329705e+02   2.130696e+01
  -5.472048e+01  -3.810050e+01
   3.808310e+01   1.448985e+01
   3.023465e+01   1.034397e+02
  -9.126218e+01   1.180543e+02
  -2.104793e+02   1.729111e+01
  -1.878736e+02  -1.335848e+02
  -1.409430e+01  -2.149942e+02
   1.613503e+02  -1.574066e+02
   1.837936e+02  -1.013594e+01
   5.978916e+01   1.022769e+02
  -6.390372e+01   1.019699e+02
  -7.518118e+01   2.724785e+01
  -6.470969e+00  -2.520816e+01
   3.292700e+01  -1.155502e+01
  -9.725492e+00   2.086459e+01
  -8.515291e+01  -1.656516e+00
  -1.018360e+02  -9.086073e+01
  -1.194903e+01  -1.736899e+02
   1.404845e+02  -1.554028e+02
   2.409719e+02  -1.465722e+01
   1.981532e+02   1.588549e+02
   3.922279e+01   2.350056e+02
  -1.052164e+02   1.655966e+02
  -1.335543e+02   3.054146e+01
  -7.444389e+01  -4.842016e+01
  -3.307706e+01  -3.170672e+01
  -5.604090e+01   1.396683e+01
  -8.700310e+01   6.803180e+00
  -5.301769e+01  -5.655027e+01
   4.181441e+01  -1.029590e+02
   1.194214e+02  -6.502884e+01
   1.025638e+02   4.322266e+01
  -1.706573e+01   1.265824e+02
  -1.604916e+02   9.004360e+01
  -2.067367e+02  -6.298494e+01
  -9.047911e+01  -2.132451e+02
   1.217341e+02  -2.270523e+02
   2.717630e+02  -8.685603e+01
   2.521049e+02   9.053164e+01
   1.035814e+02   1.739173e+02
  -4.023770e+01   1.428163e+02
  -9.162396e+01   8.257023e+01
  -7.362601e+01   7.119706e+01
  -6.183076e+01   9.537983e+01
  -9.263117e+01   7.955459e+01
  -1.330768e+02  -1.960570e+01
  -1.208424e+02  -1.564858e+02
  -2.789956e+01  -2.293936e+02
   1.013846e+02  -1.708383e+02
   1.742255e+02  -1.429084e+01
   1.311133e+02   1.274786e+02
   1.226205e+01   1.594630e+02
  -7.407728e+01   8.511477e+01
  -6.260285e+01  -1.033096e+01
   1.749952e+00  -5.116970e+01
   2.257351e+01  -3.569512e+01
  -3.054523e+01  -1.367746e+01
  -8.460781e+01  -1.962845e+01
  -4.937652e+01  -4.044136e+01
   7.184601e+01  -3.951401e+01
   1.720138e+02   1.096519e+00
   1.460752e+02   6.119705e+01
   3.590368e+00   9.642086e+01
  -1.328079e+02   7.438546e+01
  -1.475665e+02   7.704666e+00
  -4.590163e+01  -4.836545e+01
   6.119825e+01  -4.285717e+01
   7.888289e+01   1.861600e+01
   1.613726e+01   7.383920e+01
  -4.971978e+01   6.523425e+01
  -6.849848e+01   1.233286e+00
  -5.508489e+01  -5.173627e+01
  -4.758524e+01  -4.380262e+01
  -5.797821e+01  -1.721320e+00
  -6.634775e+01  -8.774229e-01
  -4.258827e+01  -7.263562e+01
   2.901057e+01  -1.536591e+02
   1.251271e+02  -1.469423e+02
   1.790712e+02  -3.369864e+01
   1.308498e+02   9.544972e+01
   3.333628e+00   1.333348e+02
  -9.255108e+01   6.829918e+01
  -6.288803e+01  -1.198617e+01
   5.927009e+01  -2.096048e+01
   1.369166e+02   4.229283e+01
   7.319252e+01   1.078441e+02
  -8.380783e+01   1.115008e+02
  -1.918828e+02   4.700249e+01
  -1.601312e+02  -3.916885e+01
  -3.295295e+01  -8.647900e+01
   6.387730e+01  -6.439557e+01
   4.913687e+01  -1.201600e+00
  -4.044823e+01   3.047517e+01
  -9.377310e+01  -2.028824e+01
  -3.929933e+01  -1.182456e+02
   8.290506e+01  -1.586263e+02
   1.625072e+02  -7.060884e+01
   1.292219e+02   9.434858e+01
   1.610957e+01   1.963937e+02
  -8.334203e+01   1.438524e+02
  -1.053761e+02  -9.948344e+00
  -5.753717e+01  -1.208918e+02
   9.799366e+00  -1.048293e+02
   5.050167e+01  -1.633473e+01
   4.787894e+01   3.207711e+01
   1.967026e+01   7.484744e+00
   5.288837e+00  -1.856284e+01
   2.791115e+01   2.002932e+01
   5.822957e+01   9.070551e+01
   3.576887e+01   1.071936e+02
  -5.387768e+01   4.360180e+01
  -1.383987e+02  -3.772402e+01
  -1.266537e+02  -7.000413e+01
  -1.848441e+01  -5.291045e+01
   8.363717e+01  -2.579411e+01
   8.800376e+01  -6.725162e+00
   1.569623e+01   1.071772e+01
  -3.588710e+01   2.225636e+01
  -1.798679e+01   1.436746e+01
   1.691859e+01  -3.606675e+00
  -3.848741e+00  -6.520833e+00
  -6.977233e+01   3.259048e-01
  -9.406114e+01  -2.203857e+01
  -1.882435e+01  -8.223697e+01
   1.112541e+02  -1.198120e+02
   1.898370e+02  -6.645102e+01
   1.525643e+02   6.103445e+01
   3.223764e+01   1.621437e+02
  -8.017260e+01   1.563668e+02
  -1.173903e+02   6.539271e+01
  -8.190827e+01  -1.946738e+01
  -2.658200e+01  -3.767020e+01
  -9.197308e-01  -1.222403e+01
  -1.294097e+01  -7.393262e+00
  -3.161978e+01  -4.856229e+01
  -1.994096e+01  -9.175513e+01
   2.916396e+01  -7.291611e+01
   8.043728e+01   1.544715e+01
   8.129634e+01   1.042322e+02
   1.268885e+01   1.125523e+02
  -7.789202e+01   3.117865e+01
  -1.072965e+02  -6.776545e+01
  -3.940782e+01  -1.044553e+02
   6.519989e+01  -6.351167e+01
   1.038639e+02   8.184099e+00
   4.479012e+01   5.659770e+01
  -3.416161e+01   6.000123e+01
  -3.805168e+01   2.937211e+01
   2.879153e+01  -4.994944e+00
   6.949931e+01  -9.082738e+00
   1.782458e+01   2.698418e+01
  -7.914061e+01   6.718390e+01
  -1.204769e+02   5.617435e+01
  -7.009594e+01  -1.545604e+01
   1.367788e+01  -8.584053e+01
   5.682638e+01  -8.355246e+01
   4.352899e+01  -1.117590e+01
   6.344934e+00   5.406328e+01
  -2.424614e+01   4.768975e+01
  -3.755339e+01  -1.230242e+01
  -2.890422e+01  -5.435136e+01
   1.162817e+00  -3.847634e+01
   3.390625e+01   5.737065e+00
   4.199685e+01   2.421941e+01
   2.097043e+01   3.715695e+00
  -3.049967e+00  -1.863147e+01
  -6.507341e+00  -5.335510e+00
   1.477701e+00   3.388086e+01
  -5.198627e+00   5.166020e+01
  -2.897604e+01   1.870285e+01
  -3.916775e+01  -3.810661e+01
  -9.555223e+00  -6.120881e+01
   4.191303e+01  -2.522361e+01
   6.237601e+01   3.474049e+01
   1.919825e+01   6.186733e+01
  -5.681960e+01   3.649682e+01
  -9.358163e+01  -1.185938e+01
  -5.155397e+01  -4.360836e+01
   2.874346e+01  -4.516851e+01
   6.603164e+01  -2.733688e+01
   2.805197e+01  -6.607602e+00
  -3.136129e+01   2.435912e+00
  -3.547731e+01  -8.572430e+00
   2.512344e+01  -2.779952e+01
   8.271607e+01  -2.216922e+01
