
 $NMID
 id='ANONYMOUS ', fmtdat='(2E16.6)'
 volume=1.0
 tramp=1.0
 $END
   2.734250e+03   3.186872e+01
   1.826470e+03   1.376025e+03
   4.788150e+01   1.743704e+03
  -1.036283e+03   1.105785e+03
  -8.385969e+02   2.238497e+02
  -7.875678e+01  -1.620776e+02
   2.925587e+02   5.997193e+01
   5.659530e+01   4.462421e+02
  -3.663706e+02   4.952402e+02
  -5.460483e+02   8.966560e+01
  -3.772225e+02  -4.216997e+02
  -2.186596e+01  -5.535800e+02
   2.450621e+02  -1.713424e+02
   2.090941e+02   3.405506e+02
  -8.890992e+01   4.603002e+02
  -3.407010e+02   7.703504e+01
  -2.622644e+02  -4.110432e+02
   9.716671e+01  -5.425598e+02
   4.027805e+02  -2.509256e+02
   3.893833e+02   1.436898e+02
   1.216793e+02   3.111301e+02
  -9.891558e+01   2.143475e+02
  -5.577052e+01   7.449214e+01
   1.563493e+02   9.703536e+01
   2.258533e+02   2.485422e+02
  -2.707924e+01   3.049417e+02
  -4.046184e+02   1.231650e+02
  -5.060863e+02  -1.691481e+02
  -1.803382e+02  -3.015934e+02
   2.721564e+02  -1.576221e+02
   4.173657e+02   1.200931e+02
   1.530837e+02   3.063636e+02
  -2.259396e+02   2.912495e+02
  -3.863499e+02   1.050522e+02
  -2.729152e+02  -1.350269e+02
  -7.341443e+01  -2.600534e+02
   1.802380e+01  -1.561481e+02
  -4.301388e+01   6.781414e+01
  -1.532456e+02   1.210169e+02
  -1.597450e+02  -1.265452e+02
   5.406092e-01  -4.127163e+02
   2.119925e+02  -3.657573e+02
   2.682152e+02  -7.530378e-01
   9.830758e+01   2.585798e+02
  -1.215927e+02   1.127556e+02
  -1.380598e+02  -2.294282e+02
   1.011352e+02  -3.248093e+02
   3.763701e+02  -4.207607e+01
   4.090859e+02   3.213988e+02
   1.297939e+02   4.235043e+02
  -2.542701e+02   2.250757e+02
  -4.392247e+02  -5.708471e+01
  -2.911380e+02  -2.123165e+02
   3.404071e+01  -1.898944e+02
   2.412112e+02  -7.343940e+01
   1.881941e+02   1.704720e+01
   1.527911e+01   1.759850e+01
  -3.844949e+01  -3.438945e+01
   7.998391e+01  -4.355221e+01
   1.891553e+02   3.936887e+01
   1.065660e+02   1.606094e+02
  -1.290161e+02   2.109471e+02
  -2.983636e+02   1.191420e+02
  -2.333028e+02  -8.771840e+01
   2.206012e+01  -2.838711e+02
   2.646812e+02  -3.157574e+02
   3.222802e+02  -1.307252e+02
   1.966646e+02   1.452365e+02
   3.604421e+01   3.056313e+02
  -2.931896e+01   2.697139e+02
  -1.466174e+01   1.524258e+02
  -3.133597e+01   9.874812e+01
  -1.272670e+02   9.991949e+01
  -2.206478e+02   3.851689e+01
  -2.033195e+02  -1.124299e+02
  -6.894466e+01  -2.224899e+02
   8.695493e+01  -1.597402e+02
   1.609774e+02   4.241417e+01
   1.076262e+02   2.125578e+02
  -4.807528e+01   2.106569e+02
  -2.115813e+02   4.559969e+01
  -2.581085e+02  -1.536266e+02
  -1.394766e+02  -2.553989e+02
   4.448073e+01  -2.248620e+02
   1.414146e+02  -1.329707e+02
   1.278684e+02  -7.240295e+01
   1.327039e+02  -5.969124e+01
   2.440963e+02  -2.610607e+01
   3.540762e+02   9.149907e+01
   2.706710e+02   2.629617e+02
  -3.000811e+01   3.766379e+02
  -3.370351e+02   3.345946e+02
  -4.149607e+02   1.401286e+02
  -2.415040e+02  -9.183550e+01
  -9.669521e+00  -2.132368e+02
   8.090615e+01  -1.638724e+02
   4.934973e+00  -3.237832e+01
  -1.026131e+02   2.732491e+01
  -1.061152e+02  -3.731616e+01
  -1.141217e+00  -1.177410e+02
   9.876500e+01  -8.249728e+01
   8.751334e+01   4.641280e+01
  -2.766884e+01   1.072141e+02
  -1.361011e+02  -5.378993e+00
  -1.257446e+02  -2.035884e+02
   2.140744e+01  -2.937812e+02
   2.128293e+02  -1.774029e+02
   3.109866e+02   5.825981e+01
   2.374256e+02   2.338341e+02
   4.478725e+01   2.399344e+02
  -1.155208e+02   1.172330e+02
  -1.280035e+02   8.377221e-01
  -2.756432e+01  -1.107598e+01
   4.139922e+01   5.633561e+01
  -8.704808e+00   9.730009e+01
  -1.086632e+02   5.189260e+01
  -1.231417e+02  -2.756518e+01
  -2.309625e+01  -4.657651e+01
   7.151506e+01   1.548195e+01
   3.009641e+01   8.390835e+01
  -1.332969e+02   7.408791e+01
  -2.635124e+02  -2.643525e+01
  -2.192702e+02  -1.557418e+02
  -1.567717e+01  -2.293935e+02
   1.867222e+02  -1.957667e+02
   2.324185e+02  -7.512955e+01
   1.143438e+02   4.171878e+01
  -2.820779e+01   6.346876e+01
  -5.251403e+01  -7.145727e+00
   5.008467e+01  -6.610488e+01
   1.593025e+02  -2.208332e+01
   1.572786e+02   9.356217e+01
   4.308977e+01   1.608028e+02
  -7.846764e+01   1.125650e+02
  -1.059594e+02   1.054439e+01
  -3.601643e+01  -3.176427e+01
   3.851698e+01   2.218861e+01
   2.070476e+01   9.943405e+01
  -8.973363e+01   1.018023e+02
  -1.851603e+02   4.988906e+00
  -1.540801e+02  -1.217089e+02
  -3.718174e+00  -1.794968e+02
   1.367052e+02  -1.251818e+02
   1.481529e+02  -6.806550e+00
   4.441128e+01   8.003624e+01
  -5.427793e+01   7.861476e+01
  -5.897941e+01   1.909294e+01
   1.954572e+00  -2.143370e+01
   3.471274e+01  -5.711028e+00
  -7.888245e+00   2.467519e+01
  -7.948227e+01   1.813408e+00
  -9.244397e+01  -8.274863e+01
  -6.074688e+00  -1.555662e+02
   1.291393e+02  -1.309695e+02
   2.080572e+02  -2.082560e+00
   1.623418e+02   1.425666e+02
   2.707248e+01   1.971786e+02
  -8.945307e+01   1.345935e+02
  -1.111606e+02   2.502968e+01
  -6.347042e+01  -3.765036e+01
  -2.957545e+01  -2.460136e+01
  -4.881749e+01   1.195085e+01
  -7.746142e+01   4.826913e+00
  -5.034261e+01  -5.186589e+01
   3.599428e+01  -9.456421e+01
   1.109280e+02  -5.912942e+01
   9.577357e+01   4.180384e+01
  -1.788307e+01   1.158333e+02
  -1.474541e+02   7.635814e+01
  -1.792435e+02  -6.324472e+01
  -6.728610e+01  -1.886561e+02
   1.156088e+02  -1.889815e+02
   2.336522e+02  -6.309683e+01
   2.076282e+02   8.369714e+01
   8.034351e+01   1.468559e+02
  -3.747197e+01   1.169271e+02
  -7.691526e+01   6.676503e+01
  -5.983350e+01   5.930131e+01
  -5.066583e+01   8.152605e+01
  -7.927670e+01   6.850946e+01
  -1.144232e+02  -1.719036e+01
  -1.010785e+02  -1.351564e+02
  -1.870310e+01  -1.957012e+02
   8.998708e+01  -1.414507e+02
   1.465556e+02  -5.336661e+00
   1.054610e+02   1.131511e+02
   3.597182e+00   1.347266e+02
  -6.802406e+01   6.663213e+01
  -5.445324e+01  -1.583422e+01
   5.656834e+00  -4.816553e+01
   2.634298e+01  -3.091142e+01
  -2.216578e+01  -9.750731e+00
  -7.388497e+01  -1.598264e+01
  -4.367777e+01  -3.596679e+01
   6.568514e+01  -3.397160e+01
   1.531862e+02   5.426423e+00
   1.242627e+02   5.950008e+01
  -4.791683e+00   8.634783e+01
  -1.201069e+02   6.125572e+01
  -1.262192e+02   8.888450e-01
  -3.680134e+01  -4.583607e+01
   5.269544e+01  -3.814849e+01
   6.788024e+01   1.670814e+01
   1.725869e+01   6.521705e+01
  -3.940863e+01   5.798786e+01
  -6.054133e+01   1.941050e+00
  -5.174373e+01  -4.501465e+01
  -4.180191e+01  -3.864419e+01
  -4.702750e+01  -2.244190e+00
  -5.610692e+01  -1.967995e+00
  -3.903547e+01  -6.446529e+01
   2.461603e+01  -1.335321e+02
   1.127393e+02  -1.255851e+02
   1.600042e+02  -2.638463e+01
   1.133054e+02   8.489793e+01
  -9.133780e-01   1.167819e+02
  -8.264205e+01   6.015328e+01
  -5.440300e+01  -9.402810e+00
   5.045416e+01  -1.719815e+01
   1.145263e+02   3.742825e+01
   5.846884e+01   9.271659e+01
  -7.446092e+01   9.236127e+01
  -1.635382e+02   3.368782e+01
  -1.333414e+02  -3.890362e+01
  -2.390249e+01  -7.364412e+01
   5.692099e+01  -5.015914e+01
   4.181125e+01   3.233730e+00
  -3.548070e+01   2.708639e+01
  -8.053277e+01  -1.739506e+01
  -3.462626e+01  -1.000518e+02
   6.791272e+01  -1.346006e+02
   1.354177e+02  -6.118290e+01
   1.086444e+02   7.840720e+01
   1.337045e+01   1.652719e+02
  -7.166814e+01   1.197832e+02
  -8.937535e+01  -1.197934e+01
  -4.489965e+01  -1.048428e+02
   1.459204e+01  -8.775548e+01
   4.566672e+01  -1.097533e+01
   3.761467e+01   2.856441e+01
   1.295297e+01   6.294754e+00
   5.616719e+00  -1.451954e+01
   2.750242e+01   1.983669e+01
   4.913305e+01   7.869435e+01
   2.480172e+01   9.015715e+01
  -5.020773e+01   3.530539e+01
  -1.162292e+02  -3.320267e+01
  -1.039055e+02  -6.082569e+01
  -1.536296e+01  -4.673290e+01
   6.851376e+01  -2.221510e+01
   7.426445e+01  -3.669406e+00
   1.591715e+01   1.097864e+01
  -2.918977e+01   1.803850e+01
  -1.773277e+01   9.868497e+00
   1.177928e+01  -3.750921e+00
  -1.993818e+00  -4.219497e+00
  -5.626219e+01   1.319148e+00
  -8.045605e+01  -1.901439e+01
  -2.044464e+01  -7.045674e+01
   9.164056e+01  -1.022895e+02
   1.635398e+02  -5.777191e+01
   1.337742e+02   5.001493e+01
   2.828058e+01   1.373637e+02
  -7.063001e+01   1.345571e+02
  -1.017556e+02   5.737216e+01
  -6.955560e+01  -1.654167e+01
  -2.290550e+01  -3.345841e+01
  -2.905903e+00  -1.214188e+01
  -1.248641e+01  -8.201354e+00
  -2.525079e+01  -4.322435e+01
  -1.391611e+01  -7.897678e+01
   2.573567e+01  -6.189441e+01
   6.723823e+01   1.264546e+01
   6.926832e+01   8.694597e+01
   1.364741e+01   9.519399e+01
  -6.354885e+01   2.905547e+01
  -9.170939e+01  -5.452578e+01
  -3.582009e+01  -8.915284e+01
   5.508207e+01  -5.702264e+01
   9.088507e+01   6.229120e+00
   4.038357e+01   5.165419e+01
  -3.024988e+01   5.485130e+01
  -3.634769e+01   2.520180e+01
   2.131361e+01  -6.067152e+00
   5.891769e+01  -7.927837e+00
   1.635500e+01   2.402850e+01
  -6.789489e+01   5.624039e+01
  -1.056149e+02   4.447915e+01
  -6.269382e+01  -1.585229e+01
   1.160916e+01  -7.387136e+01
   5.131827e+01  -7.227104e+01
   4.038226e+01  -1.213182e+01
   7.153870e+00   4.460947e+01
  -2.020790e+01   4.258718e+01
  -3.195805e+01  -7.601773e+00
  -2.493904e+01  -4.651833e+01
   4.146081e-01  -3.559293e+01
   2.891336e+01   3.785851e+00
   3.658570e+01   2.279817e+01
   1.800648e+01   4.905339e+00
  -3.781742e+00  -1.819698e+01
  -5.612593e+00  -9.228882e+00
   5.061450e+00   2.685202e+01
   1.362303e+00   4.697107e+01
  -2.252181e+01   2.131882e+01
  -3.717629e+01  -2.864815e+01
  -1.357187e+01  -5.157586e+01
   3.414776e+01  -2.316299e+01
   5.530535e+01   2.758334e+01
   1.785635e+01   5.175124e+01
  -4.959637e+01   3.149664e+01
  -8.148296e+01  -9.256420e+00
  -4.431845e+01  -3.731670e+01
   2.477180e+01  -4.023181e+01
   5.670672e+01  -2.549541e+01
   2.587465e+01  -6.318457e+00
  -2.312266e+01   3.901690e+00
  -2.834169e+01  -3.938360e+00
   1.873691e+01  -2.100135e+01
   6.552765e+01  -1.850235e+01
