
 $NMID
 id='ANONYMOUS ', fmtdat='(2E16.6)'
 volume=1.0
 tramp=1.0
 $END
  -3.538562e+03   3.065312e+01
  -2.032510e+03  -2.117969e+03
   6.292802e+02  -2.201078e+03
   1.698227e+03  -6.592571e+02
   7.006687e+02   5.703042e+02
  -5.934321e+02   4.514033e+02
  -7.327405e+02  -3.928102e+02
   2.818785e+01  -8.847802e+02
   6.878593e+02  -6.245952e+02
   7.569706e+02   9.410335e+01
   3.495641e+02   7.066497e+02
  -2.120748e+02   7.124343e+02
  -5.257363e+02   7.345856e+01
  -3.085394e+02  -5.989463e+02
   2.272095e+02  -6.066132e+02
   4.933070e+02   1.535427e+01
   2.141778e+02   5.508725e+02
  -2.612804e+02   4.973907e+02
  -4.577422e+02   6.173531e+01
  -2.979017e+02  -2.816506e+02
  -7.756928e+00  -3.442322e+02
   1.972049e+02  -2.069810e+02
   1.748544e+02  -2.971476e+00
  -9.692488e+01   9.000911e+01
  -3.480396e+02  -7.771574e+01
  -1.789332e+02  -3.591958e+02
   3.736499e+02  -3.576707e+02
   7.035259e+02   5.032215e+01
   3.567700e+02   4.567899e+02
  -3.275503e+02   4.101561e+02
  -6.195734e+02  -2.202712e+01
  -2.903541e+02  -3.965740e+02
   2.267460e+02  -4.300297e+02
   4.599921e+02  -1.708250e+02
   3.388054e+02   1.841728e+02
   5.405577e+01   3.880992e+02
  -1.722637e+02   2.265454e+02
  -1.487213e+02  -1.940875e+02
   1.405357e+02  -3.743507e+02
   3.832721e+02   1.258004e+01
   2.146518e+02   5.682467e+02
  -2.620788e+02   5.822183e+02
  -5.037975e+02  -2.221868e+00
  -2.135977e+02  -4.643280e+02
   2.486655e+02  -2.656203e+02
   3.274785e+02   2.678039e+02
  -4.859880e+01   4.527979e+02
  -4.525763e+02   1.201986e+02
  -4.885363e+02  -3.199617e+02
  -1.400760e+02  -4.696648e+02
   3.081093e+02  -2.847639e+02
   5.103909e+02   5.294118e+01
   3.002578e+02   3.100662e+02
  -1.322843e+02   2.978357e+02
  -3.623939e+02   4.170444e+01
  -1.875680e+02  -1.662791e+02
   1.083824e+02  -8.666353e+01
   1.191618e+02   1.346392e+02
  -1.410977e+02   1.596309e+02
  -2.869385e+02  -6.115933e+01
  -1.138933e+02  -2.457332e+02
   1.621668e+02  -2.081183e+02
   2.558331e+02  -6.011524e+01
   1.513471e+02   5.761120e+01
  -8.970755e+00   1.673804e+02
  -1.560682e+02   2.633213e+02
  -2.617376e+02   1.890303e+02
  -2.415313e+02  -1.012257e+02
  -7.226106e+01  -3.526124e+02
   9.322059e+01  -3.091778e+02
   9.890222e+01  -8.080354e+01
   1.168060e+01   1.893337e+01
   2.025467e+01  -7.338323e+01
   1.499104e+02  -1.194294e+02
   2.306068e+02   2.924363e+01
   1.402709e+02   2.155760e+02
  -5.119572e+01   2.139559e+02
  -1.875062e+02   1.791789e+01
  -1.702835e+02  -1.891106e+02
  -1.023896e+00  -2.411490e+02
   2.134084e+02  -1.042600e+02
   2.963623e+02   1.253983e+02
   1.561946e+02   2.795381e+02
  -7.765412e+01   2.470726e+02
  -1.805364e+02   9.516291e+01
  -1.149137e+02   5.289724e-01
  -7.020924e+01   2.988341e+01
  -1.795772e+02   6.320823e+01
  -3.188157e+02  -2.923469e+01
  -2.719513e+02  -2.146854e+02
  -1.272960e+01  -3.510078e+02
   2.708322e+02  -3.387820e+02
   3.820976e+02  -1.742418e+02
   2.738669e+02   6.672523e+01
   5.223727e+01   2.379705e+02
  -1.035460e+02   2.072888e+02
  -7.104220e+01   2.025830e+01
   8.783122e+01  -9.619101e+01
   1.652765e+02   3.457249e-01
   4.632257e+01   1.630267e+02
  -1.328445e+02   1.453197e+02
  -1.510819e+02  -4.880589e+01
   1.141978e+01  -1.612462e+02
   1.591790e+02  -3.278258e+01
   1.366304e+02   1.937323e+02
  -1.732387e+01   2.765729e+02
  -1.742995e+02   1.568380e+02
  -2.544965e+02  -3.880872e+01
  -2.261250e+02  -1.770574e+02
  -8.649067e+01  -2.057570e+02
   8.448975e+01  -1.329278e+02
   1.438990e+02  -2.137710e+01
   4.901313e+01   2.773320e+01
  -5.998786e+01  -2.714465e+01
  -3.002043e+01  -1.017403e+02
   9.751968e+01  -8.640972e+01
   1.464504e+02   5.534356e+00
   5.020702e+01   5.987859e+01
  -6.443376e+01   1.911608e+01
  -4.906524e+01  -5.459056e+01
   9.112461e+01  -7.310172e+01
   2.200160e+02  -1.161024e+01
   2.133770e+02   9.884725e+01
   5.914547e+01   1.996928e+02
  -1.363760e+02   2.155849e+02
  -2.239111e+02   1.104654e+02
  -1.396397e+02  -3.890896e+01
   1.770544e+01  -9.191342e+01
   7.618528e+01  -9.080423e+00
  -2.158702e+01   8.534903e+01
  -1.559437e+02   5.528325e+01
  -1.748545e+02  -7.627704e+01
  -6.108727e+01  -1.657960e+02
   7.236938e+01  -1.301274e+02
   1.163916e+02  -2.735910e+01
   5.992143e+01   3.336175e+01
  -2.148029e+01   7.756869e+00
  -3.520676e+01  -6.089118e+01
   4.852455e+01  -9.159104e+01
   1.534417e+02  -3.189911e+01
   1.561775e+02   8.995322e+01
   2.416111e+01   1.728981e+02
  -1.269979e+02   1.354805e+02
  -1.554151e+02   8.555362e+00
  -5.491347e+01  -9.222282e+01
   5.142323e+01  -9.211737e+01
   6.735041e+01  -2.648894e+01
   1.784987e+01   2.150485e+01
  -1.483303e+01   1.794165e+01
   6.072650e+00  -3.896700e+00
   5.207941e+01   4.741746e+00
   6.955461e+01   5.840070e+01
   1.856677e+01   1.206828e+02
  -9.122581e+01   1.239801e+02
  -1.822421e+02   3.015049e+01
  -1.647036e+02  -1.105437e+02
  -4.018257e+01  -1.864933e+02
   8.243536e+01  -1.376545e+02
   1.067607e+02  -2.435359e+01
   5.572945e+01   4.312287e+01
   2.215651e+01   2.794046e+01
   4.090466e+01  -1.092813e+01
   6.093233e+01  -7.909747e+00
   3.265744e+01   3.524520e+01
  -2.920111e+01   6.690886e+01
  -7.415770e+01   4.598419e+01
  -6.528878e+01  -2.185700e+01
   4.816288e+00  -8.382367e+01
   1.040382e+02  -7.261656e+01
   1.553093e+02   3.046338e+01
   8.820675e+01   1.535484e+02
  -7.352583e+01   1.846206e+02
  -2.069456e+02   8.596210e+01
  -2.068221e+02  -5.968586e+01
  -9.247373e+01  -1.372919e+02
   2.649579e+01  -1.181986e+02
   7.291934e+01  -6.895554e+01
   6.155509e+01  -5.590092e+01
   5.053399e+01  -7.181031e+01
   6.982703e+01  -5.964093e+01
   9.994327e+01   1.372421e+01
   9.614492e+01   1.167573e+02
   3.029563e+01   1.761328e+02
  -7.224059e+01   1.386354e+02
  -1.382510e+02   2.230050e+01
  -1.123077e+02  -9.120724e+01
  -2.097965e+01  -1.256930e+02
   4.972850e+01  -7.663873e+01
   4.793188e+01  -4.638213e+00
   7.240393e+00   3.238952e+01
  -4.772705e+00   2.848835e+01
   2.943708e+01   1.483852e+01
   6.127486e+01   1.567488e+01
   3.538458e+01   2.775329e+01
  -4.699837e+01   3.099963e+01
  -1.211711e+02   8.995228e+00
  -1.140471e+02  -3.394840e+01
  -1.760816e+01  -6.865235e+01
   8.993216e+01  -6.258453e+01
   1.134560e+02  -1.594020e+01
   4.041917e+01   2.956572e+01
  -4.524816e+01   3.009882e+01
  -5.931751e+01  -1.249251e+01
  -6.983640e+00  -5.134022e+01
   4.230308e+01  -4.480588e+01
   4.825931e+01  -9.226785e-02
   3.404761e+01   3.642612e+01
   3.456919e+01   3.074514e+01
   4.858350e+01   6.236449e-01
   5.173463e+01  -1.363482e+00
   2.856734e+01   5.015218e+01
  -2.144215e+01   1.127720e+02
  -8.470278e+01   1.133859e+02
  -1.245067e+02   3.205588e+01
  -9.785710e+01  -6.605709e+01
  -1.006073e+01  -9.738615e+01
   6.347879e+01  -4.992479e+01
   4.635681e+01   1.026183e+01
  -4.549946e+01   1.717133e+01
  -1.086327e+02  -3.039983e+01
  -6.291948e+01  -8.197339e+01
   5.938748e+01  -9.063106e+01
   1.482155e+02  -4.702216e+01
   1.292307e+02   2.113213e+01
   3.241904e+01   6.727818e+01
  -4.578022e+01   5.806842e+01
  -3.885000e+01   8.294236e+00
   2.876532e+01  -2.165385e+01
   7.052759e+01   1.504325e+01
   2.790632e+01   9.109968e+01
  -6.803797e+01   1.213003e+02
  -1.289520e+02   5.135679e+01
  -1.006421e+02  -7.577326e+01
  -1.244972e+01  -1.535652e+02
   6.319031e+01  -1.148689e+02
   8.217577e+01   1.583003e+00
   5.167319e+01   9.026805e+01
   2.925920e+00   8.455636e+01
  -3.484190e+01   1.836390e+01
  -4.242677e+01  -2.325086e+01
  -2.157401e+01  -6.958192e+00
  -2.484934e+00   1.673949e+01
  -1.570218e+01  -9.387946e+00
  -4.575778e+01  -6.689792e+01
  -3.684231e+01  -8.549178e+01
   3.420047e+01  -3.777128e+01
   1.089024e+02   2.735728e+01
   1.039989e+02   5.247915e+01
   1.530028e+01   3.763321e+01
  -6.850105e+01   1.853331e+01
  -6.901409e+01   8.548188e+00
  -8.135626e+00  -4.231935e+00
   3.004520e+01  -1.820567e+01
   1.025509e+01  -1.578707e+01
  -1.726760e+01   8.205983e-01
   4.771748e+00   7.661210e+00
   5.845803e+01   2.434603e+00
   7.134297e+01   1.625242e+01
   6.929764e+00   6.079541e+01
  -9.021963e+01   9.025524e+01
  -1.414204e+02   4.939453e+01
  -1.093759e+02  -4.880239e+01
  -2.308993e+01  -1.248659e+02
   5.668312e+01  -1.178022e+02
   8.607344e+01  -4.764944e+01
   6.292509e+01   1.494611e+01
   2.027389e+01   2.630545e+01
  -2.449796e+00   5.723800e+00
   7.918039e+00   1.918641e+00
   2.763432e+01   3.434806e+01
   2.083502e+01   6.954548e+01
  -2.074322e+01   5.634113e+01
  -6.349989e+01  -1.300430e+01
  -6.158213e+01  -8.272169e+01
  -4.660468e+00  -8.628818e+01
   6.357161e+01  -1.872619e+01
   8.050803e+01   5.711427e+01
   2.632543e+01   7.877968e+01
  -4.968084e+01   4.336279e+01
  -7.493904e+01  -6.755552e+00
  -3.139910e+01  -3.658826e+01
   2.296293e+01  -3.971742e+01
   2.218723e+01  -2.329612e+01
  -2.700220e+01  -2.402426e-01
  -5.350250e+01   6.569751e+00
  -1.191162e+01  -1.844950e+01
   5.985123e+01  -5.320888e+01
   8.778996e+01  -4.968295e+01
   4.917173e+01   6.238411e+00
  -1.024023e+01   6.425434e+01
  -3.798588e+01   6.280009e+01
  -2.676002e+01   5.019576e+00
  -1.435878e+00  -4.326267e+01
   1.867785e+01  -3.291122e+01
   2.789576e+01   1.435169e+01
   2.162550e+01   4.101296e+01
  -1.030657e+00   2.434579e+01
  -2.552018e+01  -6.252113e+00
  -3.132125e+01  -1.448384e+01
  -1.627986e+01   2.257300e-01
   9.786794e-01   9.859161e+00
   6.227207e+00  -4.044250e+00
   6.009286e+00  -2.822801e+01
   1.307171e+01  -3.263129e+01
   2.426885e+01  -4.358961e+00
   2.223079e+01   3.454347e+01
  -2.214692e+00   4.611662e+01
  -3.418564e+01   1.593680e+01
  -4.331538e+01  -2.932368e+01
  -1.182738e+01  -4.843223e+01
   4.118062e+01  -2.755603e+01
   6.817065e+01   9.936599e+00
   3.875219e+01   3.285569e+01
  -2.090836e+01   3.156282e+01
  -4.896623e+01   1.723794e+01
  -1.779535e+01   4.453327e+00
   2.961870e+01   2.329105e+00
   2.935843e+01   1.288677e+01
  -2.455663e+01   2.509440e+01
  -7.178769e+01   1.619855e+01
