
 $NMID
 id='ANONYMOUS ', fmtdat='(2E16.6)'
 volume=1.0
 tramp=1.0
 $END
  -4.444076e+03   4.679806e+00
  -2.603651e+03  -2.670251e+03
   7.387345e+02  -2.826891e+03
   2.166904e+03  -9.283957e+02
   9.896204e+02   6.629730e+02
  -6.554374e+02   5.956056e+02
  -9.071718e+02  -4.362929e+02
   5.553071e+00  -1.088204e+03
   8.482548e+02  -7.999335e+02
   9.634119e+02   9.738632e+01
   4.625373e+02   8.856779e+02
  -2.467253e+02   9.148321e+02
  -6.518611e+02   1.216762e+02
  -3.927345e+02  -7.354766e+02
   2.773736e+02  -7.693545e+02
   6.242676e+02   6.347509e+00
   2.801588e+02   7.027702e+02
  -3.349303e+02   6.566533e+02
  -6.048016e+02   9.692339e+01
  -4.024458e+02  -3.634120e+02
  -1.825653e+01  -4.516574e+02
   2.480423e+02  -2.720942e+02
   2.167830e+02  -2.095643e+01
  -1.157684e+02   8.072944e+01
  -4.107944e+02  -1.216097e+02
  -1.966246e+02  -4.389305e+02
   4.719304e+02  -4.133921e+02
   8.650885e+02   8.237669e+01
   4.376874e+02   5.596948e+02
  -4.003532e+02   4.893607e+02
  -7.593792e+02  -3.985113e+01
  -3.523839e+02  -4.931439e+02
   2.908781e+02  -5.279628e+02
   5.810652e+02  -2.043587e+02
   4.270121e+02   2.343119e+02
   7.376326e+01   4.863820e+02
  -2.004150e+02   2.934445e+02
  -1.727139e+02  -2.167934e+02
   1.674699e+02  -4.417231e+02
   4.504749e+02   2.000622e+01
   2.456562e+02   6.945656e+02
  -3.261014e+02   7.176068e+02
  -6.171196e+02   6.896248e+00
  -2.668036e+02  -5.644785e+02
   2.949629e+02  -3.270710e+02
   3.915655e+02   3.298706e+02
  -7.051607e+01   5.587245e+02
  -5.682013e+02   1.379233e+02
  -6.083152e+02  -4.196081e+02
  -1.690908e+02  -6.023293e+02
   3.923413e+02  -3.547606e+02
   6.458674e+02   7.743033e+01
   3.863755e+02   3.947765e+02
  -1.548215e+02   3.753829e+02
  -4.551398e+02   5.962896e+01
  -2.526397e+02  -1.998202e+02
   1.179654e+02  -1.120819e+02
   1.489934e+02   1.548102e+02
  -1.659955e+02   1.918456e+02
  -3.567494e+02  -7.443064e+01
  -1.471224e+02  -3.078362e+02
   2.114001e+02  -2.670165e+02
   3.438827e+02  -7.283150e+01
   2.012512e+02   9.209192e+01
  -3.130366e+01   2.300651e+02
  -2.301870e+02   3.298709e+02
  -3.454156e+02   2.206890e+02
  -2.971225e+02  -1.393971e+02
  -8.194846e+01  -4.463849e+02
   1.169663e+02  -3.969685e+02
   1.261909e+02  -1.199459e+02
   2.987237e+01   1.069407e+01
   4.605459e+01  -8.602136e+01
   1.980249e+02  -1.303455e+02
   2.835315e+02   5.356930e+01
   1.633243e+02   2.755701e+02
  -7.188865e+01   2.627864e+02
  -2.320640e+02   1.165707e+01
  -2.022587e+02  -2.456338e+02
   9.856363e+00  -3.013284e+02
   2.717902e+02  -1.196703e+02
   3.696337e+02   1.708457e+02
   1.926777e+02   3.601404e+02
  -1.010140e+02   3.164784e+02
  -2.344217e+02   1.263108e+02
  -1.576719e+02   5.505306e+00
  -1.032701e+02   3.362145e+01
  -2.383408e+02   6.364234e+01
  -4.080921e+02  -6.025583e+01
  -3.382425e+02  -2.918973e+02
   3.470584e+00  -4.517079e+02
   3.685522e+02  -4.202434e+02
   4.988691e+02  -2.041034e+02
   3.436649e+02   9.471402e+01
   5.652780e+01   3.003680e+02
  -1.322713e+02   2.603176e+02
  -8.441551e+01   3.265080e+01
   1.108688e+02  -1.100854e+02
   2.008606e+02   4.427644e+00
   5.316175e+01   2.004765e+02
  -1.643786e+02   1.780771e+02
  -1.846635e+02  -6.053401e+01
   1.627221e+01  -1.982577e+02
   1.989012e+02  -3.440087e+01
   1.673356e+02   2.542373e+02
  -3.359176e+01   3.578302e+02
  -2.371849e+02   1.952335e+02
  -3.324393e+02  -6.693727e+01
  -2.811970e+02  -2.444661e+02
  -9.545760e+01  -2.681511e+02
   1.157200e+02  -1.631058e+02
   1.817366e+02  -2.184017e+01
   6.112937e+01   3.269887e+01
  -7.073224e+01  -3.891378e+01
  -3.058568e+01  -1.272898e+02
   1.262536e+02  -1.022924e+02
   1.829825e+02   1.233002e+01
   6.049814e+01   7.401719e+01
  -8.089183e+01   1.704786e+01
  -5.571130e+01  -7.391409e+01
   1.256952e+02  -8.688105e+01
   2.858131e+02   2.009804e+00
   2.665101e+02   1.426908e+02
   6.064886e+01   2.586539e+02
  -1.874494e+02   2.653229e+02
  -2.894684e+02   1.294273e+02
  -1.749410e+02  -5.226496e+01
   2.413037e+01  -1.128430e+02
   9.346723e+01  -9.590919e+00
  -3.239545e+01   1.035808e+02
  -1.996275e+02   6.133034e+01
  -2.186312e+02  -1.043795e+02
  -7.149172e+01  -2.130036e+02
   9.637418e+01  -1.623211e+02
   1.476302e+02  -3.035194e+01
   7.304279e+01   4.211025e+01
  -2.704256e+01   3.345924e+00
  -3.726685e+01  -8.334447e+01
   7.224632e+01  -1.134470e+02
   2.002401e+02  -2.907368e+01
   1.946901e+02   1.250739e+02
   2.208369e+01   2.223085e+02
  -1.682342e+02   1.680840e+02
  -1.993883e+02   6.601562e+00
  -6.769641e+01  -1.178023e+02
   6.815495e+01  -1.149118e+02
   8.569824e+01  -3.187262e+01
   1.959846e+01   2.613691e+01
  -2.110676e+01   1.881710e+01
   1.044655e+01  -7.493134e+00
   7.145182e+01   9.834843e+00
   8.829792e+01   8.331864e+01
   1.458132e+01   1.595870e+02
  -1.275146e+02   1.537383e+02
  -2.363650e+02   2.637773e+01
  -2.049553e+02  -1.518924e+02
  -4.286617e+01  -2.416977e+02
   1.112818e+02  -1.735979e+02
   1.390541e+02  -2.759205e+01
   7.210449e+01   5.744273e+01
   2.904516e+01   3.706078e+01
   5.426873e+01  -1.206252e+01
   8.072736e+01  -6.035589e+00
   4.160238e+01   5.066901e+01
  -4.369836e+01   8.837482e+01
  -1.035308e+02   5.473168e+01
  -8.548983e+01  -3.629831e+01
   1.414565e+01  -1.108764e+02
   1.427921e+02  -8.608794e+01
   1.989470e+02   5.132805e+01
   1.020999e+02   2.032918e+02
  -1.069311e+02   2.316470e+02
  -2.706730e+02   9.813975e+01
  -2.621668e+02  -8.693090e+01
  -1.120898e+02  -1.799088e+02
   3.930161e+01  -1.501297e+02
   9.649884e+01  -8.580728e+01
   8.125171e+01  -7.073314e+01
   6.849367e+01  -9.225938e+01
   9.416163e+01  -7.483473e+01
   1.299906e+02   2.292550e+01
   1.188728e+02   1.566210e+02
   2.970387e+01   2.294160e+02
  -1.002862e+02   1.748380e+02
  -1.782056e+02   2.108814e+01
  -1.385156e+02  -1.234232e+02
  -1.965086e+01  -1.620333e+02
   6.797992e+01  -9.382952e+01
   6.061014e+01  -9.215892e-01
   4.815342e+00   4.275484e+01
  -1.029418e+01   3.456685e+01
   3.701352e+01   1.857913e+01
   8.017501e+01   2.356634e+01
   4.497190e+01   3.892779e+01
  -6.445846e+01   3.684065e+01
  -1.593069e+02   2.273855e+00
  -1.445477e+02  -5.202244e+01
  -1.550231e+01  -8.906044e+01
   1.219199e+02  -7.434197e+01
   1.468664e+02  -1.346508e+01
   4.889185e+01   4.124702e+01
  -6.117491e+01   3.764938e+01
  -7.677444e+01  -1.950299e+01
  -7.274708e+00  -6.941337e+01
   5.697989e+01  -5.852272e+01
   6.409211e+01   2.496605e+00
   4.422578e+01   5.113059e+01
   4.371329e+01   4.259982e+01
   6.220660e+01   2.412055e+00
   6.696288e+01   8.279480e-01
   3.510988e+01   6.865319e+01
  -3.392116e+01   1.471743e+02
  -1.179717e+02   1.420775e+02
  -1.657683e+02   3.271716e+01
  -1.241007e+02  -9.252885e+01
  -6.245943e+00  -1.273210e+02
   8.715375e+01  -6.165284e+01
   6.061883e+01   1.545903e+01
  -5.987528e+01   2.014456e+01
  -1.390893e+02  -4.425806e+01
  -7.669801e+01  -1.086599e+02
   8.170065e+01  -1.135188e+02
   1.931972e+02  -5.237303e+01
   1.645266e+02   3.425882e+01
   3.777103e+01   8.770299e+01
  -6.153894e+01   7.108372e+01
  -4.949833e+01   7.540344e+00
   3.927771e+01  -2.701092e+01
   9.154082e+01   2.304807e+01
   3.301197e+01   1.202632e+02
  -9.298754e+01   1.560054e+02
  -1.697914e+02   6.272189e+01
  -1.281054e+02  -1.021040e+02
  -9.997684e+00  -2.000292e+02
   8.681261e+01  -1.457869e+02
   1.057280e+02   6.877089e+00
   6.120434e+01   1.192674e+02
  -1.690345e+00   1.076199e+02
  -4.618465e+01   2.036685e+01
  -5.270075e+01  -3.153457e+01
  -2.646733e+01  -8.634726e+00
  -3.929213e+00   2.085080e+01
  -2.043316e+01  -1.531547e+01
  -5.602530e+01  -8.967220e+01
  -4.258805e+01  -1.107037e+02
   4.722402e+01  -4.551805e+01
   1.398594e+02   4.033732e+01
   1.314444e+02   7.210098e+01
   1.754162e+01   5.025185e+01
  -8.927842e+01   2.220188e+01
  -8.941659e+01   7.571524e+00
  -1.069264e+01  -7.484281e+00
   3.916938e+01  -2.257287e+01
   1.411196e+01  -1.839595e+01
  -2.184214e+01   1.502138e+00
   5.894420e+00   9.252440e+00
   7.536794e+01   4.252569e+00
   9.238588e+01   2.459264e+01
   7.804646e+00   8.136739e+01
  -1.206595e+02   1.149430e+02
  -1.877975e+02   5.790321e+01
  -1.426355e+02  -6.919838e+01
  -2.513117e+01  -1.639512e+02
   8.055233e+01  -1.508150e+02
   1.156677e+02  -5.830445e+01
   8.136260e+01   2.221101e+01
   2.487803e+01   3.582082e+01
  -3.296408e+00   8.761227e+00
   1.009384e+01   4.084771e+00
   3.323042e+01   4.611709e+01
   2.265746e+01   9.084956e+01
  -2.982337e+01   7.217624e+01
  -8.197843e+01  -1.914507e+01
  -7.732619e+01  -1.099954e+02
  -3.523000e+00  -1.135574e+02
   8.364481e+01  -2.352728e+01
   1.037574e+02   7.703856e+01
   3.159688e+01   1.048298e+02
  -6.763643e+01   5.559632e+01
  -9.862050e+01  -1.275330e+01
  -3.890754e+01  -5.120546e+01
   3.350397e+01  -5.175147e+01
   3.149628e+01  -2.804764e+01
  -3.469182e+01   3.103457e-01
  -7.005818e+01   6.358610e+00
  -1.477122e+01  -2.540753e+01
   8.027451e+01  -6.621200e+01
   1.166271e+02  -5.858343e+01
   6.399777e+01   1.239741e+01
  -1.647994e+01   8.366197e+01
  -5.382454e+01   7.958774e+01
  -3.729402e+01   5.121197e+00
  -1.109305e+00  -5.660753e+01
   2.638108e+01  -4.298694e+01
   3.678287e+01   1.889824e+01
   2.642176e+01   5.466634e+01
  -3.237246e+00   3.296001e+01
  -3.342507e+01  -8.900880e+00
  -3.973122e+01  -2.138240e+01
  -2.067251e+01  -1.122708e+00
   4.311480e-01   1.418914e+01
   6.636178e+00  -3.251911e+00
   6.974256e+00  -3.719584e+01
   1.745243e+01  -4.517271e+01
   3.300992e+01  -7.366294e+00
   3.024245e+01   4.603464e+01
  -2.744814e+00   6.182339e+01
  -4.534468e+01   2.044606e+01
  -5.672784e+01  -4.023411e+01
  -1.416662e+01  -6.390764e+01
   5.554057e+01  -3.383170e+01
   8.944943e+01   1.633096e+01
   4.917903e+01   4.480018e+01
  -2.942524e+01   4.078695e+01
  -6.561852e+01   2.095193e+01
  -2.439168e+01   4.554431e+00
   3.787780e+01   2.388792e+00
   3.825302e+01   1.620539e+01
  -3.120795e+01   3.162259e+01
  -9.242700e+01   1.957577e+01
