
 $NMID
 id='ANONYMOUS ', fmtdat='(2E16.6)'
 volume=1.0
 tramp=1.0
 $END
  -4.540091e+03   1.578388e+01
  -2.650565e+03  -2.734368e+03
   7.755643e+02  -2.884021e+03
   2.222141e+03  -9.213743e+02
   9.937347e+02   7.066037e+02
  -6.960661e+02   6.158647e+02
  -9.396824e+02  -4.575855e+02
   8.861060e+00  -1.122951e+03
   8.731327e+02  -8.171856e+02
   9.853510e+02   1.059420e+02
   4.681487e+02   9.094395e+02
  -2.595069e+02   9.337968e+02
  -6.730003e+02   1.189359e+02
  -4.033217e+02  -7.567972e+02
   2.862506e+02  -7.863692e+02
   6.392262e+02   9.948049e+00
   2.826307e+02   7.175641e+02
  -3.452132e+02   6.630049e+02
  -6.140778e+02   9.036079e+01
  -4.035006e+02  -3.732529e+02
  -1.402179e+01  -4.584684e+02
   2.552169e+02  -2.754239e+02
   2.249305e+02  -1.779450e+01
  -1.150198e+02   9.137865e+01
  -4.230570e+02  -1.143868e+02
  -2.100049e+02  -4.475931e+02
   4.764560e+02  -4.313995e+02
   8.864606e+02   7.631297e+01
   4.525794e+02   5.740117e+02
  -4.080193e+02   5.086285e+02
  -7.794224e+02  -3.454659e+01
  -3.644133e+02  -5.035140e+02
   2.938837e+02  -5.421881e+02
   5.918226e+02  -2.113456e+02
   4.360531e+02   2.388626e+02
   7.446675e+01   4.985119e+02
  -2.099834e+02   3.004247e+02
  -1.841844e+02  -2.260918e+02
   1.689934e+02  -4.601182e+02
   4.676160e+02   1.458978e+01
   2.603177e+02   7.113070e+02
  -3.317952e+02   7.378808e+02
  -6.363707e+02   7.388717e+00
  -2.763356e+02  -5.814703e+02
   3.047164e+02  -3.388402e+02
   4.064238e+02   3.357813e+02
  -6.799346e+01   5.724856e+02
  -5.791493e+02   1.446114e+02
  -6.210504e+02  -4.236700e+02
  -1.731260e+02  -6.118699e+02
   3.993029e+02  -3.629717e+02
   6.577945e+02   7.684608e+01
   3.923530e+02   4.035773e+02
  -1.610559e+02   3.853620e+02
  -4.665188e+02   5.950255e+01
  -2.556865e+02  -2.089218e+02
   1.254720e+02  -1.165996e+02
   1.547504e+02   1.616130e+02
  -1.710987e+02   2.000684e+02
  -3.661368e+02  -7.594399e+01
  -1.497806e+02  -3.155357e+02
   2.149917e+02  -2.707016e+02
   3.457663e+02  -7.201013e+01
   2.002455e+02   9.091114e+01
  -2.993386e+01   2.275212e+02
  -2.267754e+02   3.326599e+02
  -3.465951e+02   2.275167e+02
  -3.036611e+02  -1.384767e+02
  -8.570777e+01  -4.543175e+02
   1.206869e+02  -4.039715e+02
   1.312342e+02  -1.179665e+02
   2.879517e+01   1.635009e+01
   4.112432e+01  -8.644975e+01
   1.971667e+02  -1.367684e+02
   2.889996e+02   4.961276e+01
   1.696184e+02   2.786583e+02
  -7.063634e+01   2.691220e+02
  -2.365607e+02   1.521173e+01
  -2.086289e+02  -2.473977e+02
   6.955693e+00  -3.069083e+02
   2.753095e+02  -1.247437e+02
   3.767912e+02   1.708696e+02
   1.967889e+02   3.654849e+02
  -1.031784e+02   3.217160e+02
  -2.388070e+02   1.265381e+02
  -1.587206e+02   2.576240e+00
  -1.013465e+02   3.316840e+01
  -2.382745e+02   6.717201e+01
  -4.120531e+02  -5.678240e+01
  -3.436216e+02  -2.924149e+02
   1.434356e-01  -4.564538e+02
   3.689817e+02  -4.270960e+02
   5.032832e+02  -2.098271e+02
   3.499908e+02   9.395574e+01
   5.998607e+01   3.054528e+02
  -1.345713e+02   2.659918e+02
  -8.854942e+01   3.240301e+01
   1.115980e+02  -1.151818e+02
   2.064708e+02   2.439112e+00
   5.634644e+01   2.052971e+02
  -1.679475e+02   1.836691e+02
  -1.902473e+02  -6.122867e+01
   1.542014e+01  -2.035231e+02
   2.026457e+02  -3.710353e+01
   1.707173e+02   2.566236e+02
  -3.280380e+01   3.616846e+02
  -2.377500e+02   1.975382e+02
  -3.342282e+02  -6.572067e+01
  -2.851520e+02  -2.440586e+02
  -9.955661e+01  -2.698699e+02
   1.153434e+02  -1.663979e+02
   1.848667e+02  -2.351805e+01
   6.295821e+01   3.385945e+01
  -7.277155e+01  -3.789968e+01
  -3.316343e+01  -1.292297e+02
   1.272191e+02  -1.056528e+02
   1.865837e+02   1.104791e+01
   6.271662e+01   7.557188e+01
  -8.169792e+01   1.918342e+01
  -5.766947e+01  -7.338302e+01
   1.250323e+02  -8.846868e+01
   2.875474e+02  -7.542391e-01
   2.702712e+02   1.410386e+02
   6.434229e+01   2.605673e+02
  -1.868071e+02   2.703994e+02
  -2.925822e+02   1.335921e+02
  -1.785526e+02  -5.245308e+01
   2.376451e+01  -1.157732e+02
   9.585621e+01  -1.063573e+01
  -3.124798e+01   1.060519e+02
  -2.020099e+02   6.426051e+01
  -2.226320e+02  -1.043846e+02
  -7.381422e+01  -2.158647e+02
   9.696570e+01  -1.655286e+02
   1.500205e+02  -3.189391e+01
   7.523636e+01   4.264328e+01
  -2.669323e+01   4.985034e+00
  -3.884009e+01  -8.251636e+01
   7.083391e+01  -1.147837e+02
   2.013160e+02  -3.141826e+01
   1.977571e+02   1.246368e+02
   2.396959e+01   2.248696e+02
  -1.695225e+02   1.712198e+02
  -2.022813e+02   7.262185e+00
  -6.932466e+01  -1.197685e+02
   6.864836e+01  -1.172273e+02
   8.714935e+01  -3.282525e+01
   2.087488e+01   2.651371e+01
  -2.042240e+01   1.979539e+01
   1.037783e+01  -6.620576e+00
   7.103769e+01   9.964247e+00
   8.865211e+01   8.287110e+01
   1.595107e+01   1.599619e+02
  -1.268774e+02   1.558766e+02
  -2.382008e+02   2.881188e+01
  -2.082382e+02  -1.517598e+02
  -4.473331e+01  -2.442213e+02
   1.119237e+02  -1.762923e+02
   1.405451e+02  -2.829856e+01
   7.277924e+01   5.821714e+01
   2.914057e+01   3.758607e+01
   5.454433e+01  -1.234644e+01
   8.095973e+01  -6.549815e+00
   4.148931e+01   5.032381e+01
  -4.357027e+01   8.831517e+01
  -1.028744e+02   5.523723e+01
  -8.529713e+01  -3.543447e+01
   1.325707e+01  -1.108451e+02
   1.422774e+02  -8.758293e+01
   2.006209e+02   4.976753e+01
   1.051130e+02   2.040233e+02
  -1.056360e+02   2.348743e+02
  -2.726921e+02   1.013351e+02
  -2.658212e+02  -8.618911e+01
  -1.146276e+02  -1.815092e+02
   3.888471e+01  -1.522659e+02
   9.732472e+01  -8.728343e+01
   8.217294e+01  -7.167993e+01
   6.907656e+01  -9.315129e+01
   9.467238e+01  -7.565475e+01
   1.310304e+02   2.264305e+01
   1.206519e+02   1.574006e+02
   3.133749e+01   2.313808e+02
  -1.002388e+02   1.772843e+02
  -1.801066e+02   2.268486e+01
  -1.410441e+02  -1.236088e+02
  -2.121018e+01  -1.636979e+02
   6.776435e+01  -9.577635e+01
   6.116166e+01  -2.112150e+00
   5.684901e+00   4.258574e+01
  -9.281351e+00   3.501772e+01
   3.786425e+01   1.899857e+01
   8.065496e+01   2.358439e+01
   4.528655e+01   3.887271e+01
  -6.426962e+01   3.742348e+01
  -1.598581e+02   3.565533e+00
  -1.461574e+02  -5.102609e+01
  -1.709854e+01  -8.940641e+01
   1.218320e+02  -7.581627e+01
   1.481622e+02  -1.480970e+01
   4.987525e+01   4.087632e+01
  -6.146193e+01   3.793715e+01
  -7.741363e+01  -1.930762e+01
  -7.117301e+00  -6.956486e+01
   5.763466e+01  -5.877127e+01
   6.431680e+01   2.393097e+00
   4.411027e+01   5.117254e+01
   4.407132e+01   4.261508e+01
   6.309158e+01   2.207976e+00
   6.762585e+01   4.813040e-01
   3.529932e+01   6.869972e+01
  -3.371962e+01   1.481581e+02
  -1.176966e+02   1.437446e+02
  -1.661137e+02   3.400841e+01
  -1.252718e+02  -9.240509e+01
  -7.279985e+00  -1.280465e+02
   8.713383e+01  -6.226438e+01
   6.104243e+01   1.550206e+01
  -6.034887e+01   2.058127e+01
  -1.407330e+02  -4.409170e+01
  -7.822966e+01  -1.093496e+02
   8.171093e+01  -1.151718e+02
   1.948520e+02  -5.426619e+01
   1.666046e+02   3.338648e+01
   3.892591e+01   8.845711e+01
  -6.163702e+01   7.258848e+01
  -5.002143e+01   8.337799e+00
   3.935986e+01  -2.722807e+01
   9.230008e+01   2.294269e+01
   3.346707e+01   1.212519e+02
  -9.371213e+01   1.576031e+02
  -1.714417e+02   6.352605e+01
  -1.296388e+02  -1.029095e+02
  -1.066110e+01  -2.019926e+02
   8.710759e+01  -1.476822e+02
   1.067986e+02   6.151454e+00
   6.269542e+01   1.199590e+02
  -5.674440e-01   1.089270e+02
  -4.623263e+01   2.115558e+01
  -5.371498e+01  -3.156457e+01
  -2.724238e+01  -8.747008e+00
  -3.783393e+00   2.124956e+01
  -2.021237e+01  -1.489877e+01
  -5.686902e+01  -9.008668e+01
  -4.402766e+01  -1.118377e+02
   4.694615e+01  -4.641713e+01
   1.414279e+02   4.016940e+01
   1.333589e+02   7.227469e+01
   1.793690e+01   5.040865e+01
  -9.034500e+01   2.254309e+01
  -9.030942e+01   8.163546e+00
  -1.050391e+01  -7.190287e+00
   3.965330e+01  -2.296899e+01
   1.390976e+01  -1.898870e+01
  -2.236956e+01   1.412152e+00
   6.112735e+00   9.534356e+00
   7.643256e+01   4.300066e+00
   9.320500e+01   2.448905e+01
   7.509643e+00   8.185939e+01
  -1.217774e+02   1.161563e+02
  -1.889409e+02   5.883464e+01
  -1.434692e+02  -6.953838e+01
  -2.569052e+01  -1.653553e+02
   8.043556e+01  -1.522108e+02
   1.161920e+02  -5.895674e+01
   8.214905e+01   2.217367e+01
   2.519616e+01   3.585600e+01
  -3.545052e+00   8.547359e+00
   1.004167e+01   3.785956e+00
   3.393279e+01   4.620166e+01
   2.356400e+01   9.152828e+01
  -2.974837e+01   7.293276e+01
  -8.289554e+01  -1.917455e+01
  -7.825304e+01  -1.109602e+02
  -3.473318e+00  -1.145298e+02
   8.460716e+01  -2.354919e+01
   1.047347e+02   7.782521e+01
   3.186564e+01   1.055434e+02
  -6.803215e+01   5.585027e+01
  -9.914298e+01  -1.260951e+01
  -3.917480e+01  -5.098911e+01
   3.337517e+01  -5.180375e+01
   3.113241e+01  -2.846205e+01
  -3.538106e+01   7.479954e-02
  -7.067002e+01   6.583480e+00
  -1.483785e+01  -2.540384e+01
   8.072486e+01  -6.716080e+01
   1.171276e+02  -5.997300e+01
   6.423975e+01   1.186119e+01
  -1.636052e+01   8.431739e+01
  -5.361620e+01   8.035103e+01
  -3.706691e+01   5.003388e+00
  -1.002295e+00  -5.723777e+01
   2.648737e+01  -4.314580e+01
   3.707614e+01   1.935092e+01
   2.676876e+01   5.501512e+01
  -3.170308e+00   3.284391e+01
  -3.370096e+01  -9.030496e+00
  -4.007948e+01  -2.112556e+01
  -2.087999e+01  -8.267873e-01
   3.766316e-01   1.395380e+01
   6.802885e+00  -3.949680e+00
   7.506941e+00  -3.770610e+01
   1.818895e+01  -4.503770e+01
   3.341990e+01  -6.719782e+00
   3.000136e+01   4.676077e+01
  -3.355245e+00   6.228577e+01
  -4.583993e+01   2.047763e+01
  -5.697222e+01  -4.062898e+01
  -1.423989e+01  -6.450019e+01
   5.573750e+01  -3.425881e+01
   8.999055e+01   1.627656e+01
   4.967763e+01   4.500299e+01
  -2.946810e+01   4.098500e+01
  -6.599124e+01   2.102903e+01
  -2.429283e+01   4.623682e+00
   3.865428e+01   2.650479e+00
   3.879343e+01   1.674921e+01
  -3.182404e+01   3.228062e+01
  -9.385024e+01   1.992960e+01
