
 $NMID
 id='ANONYMOUS ', fmtdat='(2E16.6)'
 volume=1.0
 tramp=1.0
 $END
   4.200557e+03   9.730592e+01
   2.450907e+03   2.458006e+03
  -5.832824e+02   2.599277e+03
  -1.903575e+03   9.812699e+02
  -9.279468e+02  -4.051135e+02
   4.899984e+02  -4.251919e+02
   7.338892e+02   3.893790e+02
  -3.204155e+01   9.447090e+02
  -7.639090e+02   7.217051e+02
  -8.749976e+02  -6.581277e+01
  -4.364763e+02  -7.933047e+02
   1.934296e+02  -8.361197e+02
   5.540264e+02  -1.169361e+02
   3.322665e+02   6.680245e+02
  -2.511384e+02   7.072190e+02
  -5.654632e+02   4.027395e+00
  -2.785235e+02  -6.518801e+02
   2.768509e+02  -6.481616e+02
   5.619161e+02  -1.478591e+02
   4.119097e+02   3.081095e+02
   4.944677e+01   4.257141e+02
  -2.161561e+02   2.618343e+02
  -1.717641e+02   2.760667e+01
   1.564876e+02  -3.357097e+01
   3.959144e+02   1.853074e+02
   1.303426e+02   4.470488e+02
  -5.077046e+02   3.490739e+02
  -8.197061e+02  -1.385616e+02
  -3.668834e+02  -5.328623e+02
   4.129431e+02  -4.080950e+02
   7.101005e+02   9.114928e+01
   3.014257e+02   4.810036e+02
  -3.051356e+02   4.865445e+02
  -5.649860e+02   1.774396e+02
  -4.009252e+02  -2.256387e+02
  -6.493050e+01  -4.442772e+02
   1.621095e+02  -2.528555e+02
   1.004990e+02   2.027492e+02
  -2.011866e+02   3.680904e+02
  -3.979151e+02  -8.014079e+01
  -1.646475e+02  -6.729969e+02
   3.348720e+02  -6.465382e+02
   5.453402e+02   1.974491e+01
   2.080968e+02   5.156727e+02
  -2.747572e+02   2.660120e+02
  -3.310652e+02  -3.400401e+02
   9.968513e+01  -5.262474e+02
   5.532872e+02  -1.072096e+02
   5.849321e+02   4.261313e+02
   1.622296e+02   5.873016e+02
  -3.812791e+02   3.308344e+02
  -6.236360e+02  -8.467222e+01
  -3.715971e+02  -3.641669e+02
   1.375934e+02  -3.304552e+02
   4.136339e+02  -5.522659e+01
   2.337180e+02   1.540619e+02
  -8.955848e+01   7.605265e+01
  -1.125785e+02  -1.344969e+02
   1.615023e+02  -1.499517e+02
   3.243220e+02   7.873990e+01
   1.349119e+02   2.820556e+02
  -1.994009e+02   2.636304e+02
  -3.473471e+02   9.691563e+01
  -2.289469e+02  -8.924317e+01
   1.909843e+01  -2.653721e+02
   2.531847e+02  -3.591259e+02
   3.685676e+02  -2.120810e+02
   2.891839e+02   1.563194e+02
   6.696033e+01   4.353491e+02
  -1.010909e+02   3.763470e+02
  -9.127656e+01   1.303626e+02
  -2.051006e+01   2.660816e+01
  -7.359471e+01   1.074624e+02
  -2.279675e+02   1.160502e+02
  -2.854550e+02  -8.010868e+01
  -1.438949e+02  -2.851050e+02
   8.796076e+01  -2.508580e+02
   2.311660e+02   8.508509e+00
   1.872367e+02   2.588493e+02
  -2.684903e+01   2.976861e+02
  -2.773346e+02   1.029757e+02
  -3.615110e+02  -1.818531e+02
  -1.856021e+02  -3.531256e+02
   9.237233e+01  -3.050724e+02
   2.167226e+02  -1.330219e+02
   1.517117e+02  -2.898261e+01
   1.173347e+02  -5.074417e+01
   2.609946e+02  -6.183748e+01
   4.253411e+02   7.205017e+01
   3.442040e+02   3.037917e+02
  -1.075526e+01   4.632238e+02
  -3.854736e+02   4.277103e+02
  -5.103346e+02   1.997928e+02
  -3.366274e+02  -1.044190e+02
  -4.196730e+01  -2.972931e+02
   1.295892e+02  -2.443512e+02
   6.298939e+01  -2.800053e+01
  -1.231903e+02   9.184272e+01
  -1.875442e+02  -2.198945e+01
  -3.476882e+01  -1.920421e+02
   1.610741e+02  -1.553535e+02
   1.653045e+02   6.696539e+01
  -2.705303e+01   1.838537e+02
  -1.961867e+02   2.097655e+01
  -1.659539e+02  -2.569413e+02
   3.089865e+01  -3.623605e+02
   2.442245e+02  -2.066106e+02
   3.507264e+02   6.372687e+01
   2.919320e+02   2.576579e+02
   8.843287e+01   2.822301e+02
  -1.257531e+02   1.624295e+02
  -1.789879e+02   1.448687e+01
  -5.262297e+01  -3.017084e+01
   6.894130e+01   4.944145e+01
   1.908317e+01   1.303870e+02
  -1.330829e+02   9.378035e+01
  -1.783908e+02  -2.095227e+01
  -5.094052e+01  -7.306597e+01
   8.706429e+01  -8.078036e+00
   5.402931e+01   8.447628e+01
  -1.371684e+02   9.284000e+01
  -3.025337e+02  -6.358288e+00
  -2.752712e+02  -1.570174e+02
  -5.260618e+01  -2.718276e+02
   2.030017e+02  -2.658827e+02
   2.949593e+02  -1.209635e+02
   1.675028e+02   5.538958e+01
  -3.028926e+01   1.055500e+02
  -8.822896e+01   2.161933e+00
   4.268061e+01  -1.013691e+02
   2.039318e+02  -5.266809e+01
   2.154024e+02   1.104045e+02
   6.625478e+01   2.128122e+02
  -9.938166e+01   1.578159e+02
  -1.460881e+02   2.461605e+01
  -6.574641e+01  -4.424273e+01
   3.578797e+01   3.169753e+00
   3.818515e+01   9.609678e+01
  -8.231594e+01   1.216714e+02
  -2.122194e+02   2.600915e+01
  -1.980413e+02  -1.334062e+02
  -1.782092e+01  -2.260264e+02
   1.711049e+02  -1.664749e+02
   1.967772e+02  -6.011194e+00
   6.333552e+01   1.148706e+02
  -6.999129e+01   1.112199e+02
  -8.375610e+01   2.889377e+01
  -1.381328e+01  -2.848142e+01
   2.836868e+01  -1.779845e+01
  -8.248070e+00   1.385844e+01
  -7.847454e+01  -4.045367e+00
  -9.822252e+01  -8.687651e+01
  -1.603334e+01  -1.708488e+02
   1.366649e+02  -1.607002e+02
   2.466468e+02  -2.238371e+01
   2.083464e+02   1.602019e+02
   4.129974e+01   2.455207e+02
  -1.126005e+02   1.735037e+02
  -1.396727e+02   2.887431e+01
  -7.369007e+01  -5.433005e+01
  -3.086463e+01  -3.487491e+01
  -5.622955e+01   1.357627e+01
  -8.568657e+01   7.583311e+00
  -4.901865e+01  -5.293660e+01
   4.161444e+01  -9.727561e+01
   1.120719e+02  -6.358488e+01
   9.688669e+01   3.775811e+01
  -1.334899e+01   1.216567e+02
  -1.542237e+02   9.309473e+01
  -2.097476e+02  -5.685311e+01
  -1.009996e+02  -2.151683e+02
   1.173712e+02  -2.380180e+02
   2.801187e+02  -9.570011e+01
   2.649843e+02   9.244421e+01
   1.101632e+02   1.831794e+02
  -4.190037e+01   1.508315e+02
  -9.725311e+01   8.581161e+01
  -7.972491e+01   7.163237e+01
  -6.665037e+01   9.512535e+01
  -9.515809e+01   7.881786e+01
  -1.343581e+02  -2.143915e+01
  -1.229730e+02  -1.603507e+02
  -2.971309e+01  -2.357565e+02
   1.040386e+02  -1.777954e+02
   1.821317e+02  -1.787671e+01
   1.393931e+02   1.297313e+02
   1.634343e+01   1.662883e+02
  -7.400305e+01   9.321603e+01
  -6.494571e+01  -4.000236e+00
  -3.216724e+00  -4.888406e+01
   1.614135e+01  -3.797463e+01
  -3.417971e+01  -1.778969e+01
  -8.375779e+01  -2.160783e+01
  -4.848459e+01  -3.995149e+01
   6.919504e+01  -4.027085e+01
   1.700275e+02  -2.830640e+00
   1.505720e+02   5.741722e+01
   1.152261e+01   9.677009e+01
  -1.302288e+02   7.810708e+01
  -1.519976e+02   1.127560e+01
  -4.993125e+01  -4.614283e+01
   6.196190e+01  -4.111471e+01
   7.966139e+01   1.924155e+01
   1.235742e+01   7.191215e+01
  -5.398914e+01   6.208291e+01
  -6.726319e+01  -8.744351e-02
  -5.060852e+01  -5.102113e+01
  -4.689413e+01  -4.366021e+01
  -6.175825e+01  -2.806384e+00
  -6.845468e+01  -9.497322e-01
  -4.020842e+01  -7.113560e+01
   3.143096e+01  -1.533422e+02
   1.236321e+02  -1.493024e+02
   1.762354e+02  -3.622041e+01
   1.310506e+02   9.523255e+01
   6.044479e+00   1.339777e+02
  -9.091450e+01   6.729503e+01
  -6.273964e+01  -1.385587e+01
   6.103929e+01  -2.098357e+01
   1.414514e+02   4.480879e+01
   7.698689e+01   1.116878e+02
  -8.513825e+01   1.159386e+02
  -1.985342e+02   5.108991e+01
  -1.676123e+02  -3.811976e+01
  -3.634131e+01  -9.020652e+01
   6.531038e+01  -7.021778e+01
   5.164801e+01  -4.721753e+00
  -4.030545e+01   2.955200e+01
  -9.457902e+01  -2.197655e+01
  -3.655475e+01  -1.214851e+02
   9.024612e+01  -1.597863e+02
   1.695865e+02  -6.697759e+01
   1.308157e+02   1.009457e+02
   1.261632e+01   2.026382e+02
  -8.774272e+01   1.482115e+02
  -1.088537e+02  -8.523435e+00
  -6.140005e+01  -1.237527e+02
   5.953507e+00  -1.104529e+02
   5.007119e+01  -1.971646e+01
   5.192832e+01   3.337662e+01
   2.379553e+01   9.399564e+00
   5.030083e+00  -2.054663e+01
   2.524260e+01   1.673428e+01
   5.873705e+01   9.216119e+01
   3.998875e+01   1.130604e+02
  -5.188950e+01   4.690018e+01
  -1.424715e+02  -4.036608e+01
  -1.323627e+02  -7.374718e+01
  -1.888909e+01  -5.267426e+01
   8.841225e+01  -2.360472e+01
   9.125265e+01  -7.177796e+00
   1.384360e+01   8.398695e+00
  -3.870821e+01   2.251051e+01
  -1.694197e+01   1.761421e+01
   1.977205e+01  -1.751356e+00
  -4.656903e+00  -8.539282e+00
  -7.400611e+01  -3.084062e+00
  -9.521823e+01  -2.374724e+01
  -1.335058e+01  -8.216829e+01
   1.186229e+02  -1.188095e+02
   1.923433e+02  -6.383548e+01
   1.497925e+02   6.556614e+01
   2.889755e+01   1.662999e+02
  -8.157169e+01   1.573792e+02
  -1.183882e+02   6.348822e+01
  -8.334174e+01  -2.139738e+01
  -2.664332e+01  -3.735743e+01
   8.484756e-01  -9.947314e+00
  -1.222725e+01  -5.288793e+00
  -3.375880e+01  -4.873232e+01
  -2.215538e+01  -9.410579e+01
   3.016186e+01  -7.433848e+01
   8.284070e+01   1.813504e+01
   8.035281e+01   1.095423e+02
   7.796270e+00   1.146273e+02
  -8.192891e+01   2.685160e+01
  -1.067105e+02  -7.412529e+01
  -3.607487e+01  -1.061720e+02
   6.700152e+01  -6.041755e+01
   1.029679e+02   1.007683e+01
   4.357667e+01   5.414149e+01
  -3.336635e+01   5.711079e+01
  -3.518772e+01   3.046830e+01
   3.209183e+01  -1.587757e+00
   7.121337e+01  -7.739394e+00
   1.685573e+01   2.632834e+01
  -8.169051e+01   6.826582e+01
  -1.218875e+02   5.965482e+01
  -6.904735e+01  -1.316796e+01
   1.522584e+01  -8.645754e+01
   5.600046e+01  -8.405246e+01
   4.024092e+01  -9.106854e+00
   3.209258e+00   5.607530e+01
  -2.531253e+01   4.600079e+01
  -3.707173e+01  -1.616654e+01
  -2.825411e+01  -5.556076e+01
   1.457893e+00  -3.609267e+01
   3.403370e+01   7.563344e+00
   4.230639e+01   2.290617e+01
   2.177378e+01   2.315791e+00
  -2.385783e+00  -1.623257e+01
  -8.120797e+00  -7.127392e-01
  -3.707264e+00   3.527718e+01
  -1.111061e+01   4.746465e+01
  -3.017792e+01   1.225129e+01
  -3.398344e+01  -4.209633e+01
  -2.879918e+00  -6.120912e+01
   4.416453e+01  -2.269751e+01
   6.001774e+01   3.779986e+01
   1.659918e+01   6.383363e+01
  -5.717507e+01   3.620063e+01
  -9.304905e+01  -1.397533e+01
  -5.142015e+01  -4.503155e+01
   2.917159e+01  -4.382462e+01
   6.652367e+01  -2.459166e+01
   2.642690e+01  -6.231075e+00
  -3.505130e+01  -1.214359e+00
  -3.674924e+01  -1.348090e+01
   2.977695e+01  -2.970345e+01
   8.989346e+01  -1.979162e+01
