
 $NMID
 id='ANONYMOUS ', fmtdat='(2E16.6)'
 volume=1.0
 tramp=1.0
 $END
   2.966681e+03   8.299683e+01
   2.014610e+03   1.435945e+03
   1.674236e+02   1.875116e+03
  -1.037593e+03   1.323013e+03
  -9.539339e+02   4.153469e+02
  -2.100756e+02  -1.024817e+02
   2.349069e+02   2.072258e+01
   6.369812e+01   4.204339e+02
  -3.609627e+02   5.272198e+02
  -5.751357e+02   1.295244e+02
  -4.245572e+02  -4.250634e+02
  -6.394388e+01  -5.919019e+02
   2.212693e+02  -2.036206e+02
   2.088526e+02   3.423358e+02
  -8.065184e+01   4.914316e+02
  -3.556266e+02   9.972083e+01
  -3.029395e+02  -4.403716e+02
   7.770806e+01  -6.218135e+02
   4.420696e+02  -3.209059e+02
   4.569527e+02   1.339679e+02
   1.595686e+02   3.444724e+02
  -9.366393e+01   2.422403e+02
  -3.768565e+01   9.436788e+01
   1.972641e+02   1.452757e+02
   2.402672e+02   3.221932e+02
  -7.369641e+01   3.454819e+02
  -4.772433e+02   9.544466e+01
  -5.435628e+02  -2.246166e+02
  -1.649973e+02  -3.210029e+02
   3.098473e+02  -1.280679e+02
   4.405907e+02   1.646271e+02
   1.440560e+02   3.376187e+02
  -2.635170e+02   3.050625e+02
  -4.293567e+02   1.037583e+02
  -2.966308e+02  -1.474165e+02
  -8.234060e+01  -2.711816e+02
  -6.697960e+00  -1.585031e+02
  -9.160411e+01   6.008534e+01
  -1.874027e+02   8.889686e+01
  -1.428993e+02  -1.756268e+02
   4.924308e+01  -4.490948e+02
   2.410454e+02  -3.730336e+02
   2.600026e+02   7.998049e+00
   8.140157e+01   2.595358e+02
  -1.200067e+02   9.375172e+01
  -1.187955e+02  -2.619276e+02
   1.310886e+02  -3.477032e+02
   4.178647e+02  -2.935361e+01
   4.511828e+02   3.707839e+02
   1.438866e+02   4.750346e+02
  -2.823420e+02   2.429035e+02
  -4.876306e+02  -6.925936e+01
  -3.265729e+02  -2.239692e+02
   2.404155e+01  -1.918334e+02
   2.505331e+02  -8.507931e+01
   2.091854e+02  -9.545539e+00
   3.895067e+01   1.804508e+00
  -2.417876e+01  -2.281382e+01
   8.390429e+01  -2.454479e+01
   1.959322e+02   4.469317e+01
   1.167468e+02   1.671186e+02
  -1.409500e+02   2.399571e+02
  -3.468219e+02   1.488723e+02
  -2.834652e+02  -1.031424e+02
   2.357158e+01  -3.473767e+02
   3.217868e+02  -3.746583e+02
   3.822104e+02  -1.398030e+02
   2.172853e+02   1.764005e+02
   3.188368e+01   3.411915e+02
  -2.281406e+01   2.977011e+02
   2.341212e+00   1.847630e+02
  -3.518231e+01   1.364971e+02
  -1.653352e+02   1.232662e+02
  -2.689379e+02   3.061855e+01
  -2.298795e+02  -1.459391e+02
  -6.476036e+01  -2.582148e+02
   1.085636e+02  -1.730479e+02
   1.808833e+02   6.144953e+01
   1.112719e+02   2.498209e+02
  -6.592657e+01   2.363854e+02
  -2.435316e+02   4.026049e+01
  -2.881092e+02  -1.827071e+02
  -1.547330e+02  -2.876783e+02
   4.541708e+01  -2.510422e+02
   1.524901e+02  -1.575308e+02
   1.458255e+02  -9.708018e+01
   1.626558e+02  -7.624718e+01
   2.927809e+02  -2.475470e+01
   4.134551e+02   1.157032e+02
   3.103353e+02   3.100422e+02
  -4.207662e+01   4.366455e+02
  -3.983087e+02   3.833552e+02
  -4.816813e+02   1.540923e+02
  -2.702569e+02  -1.113018e+02
  -1.499235e+00  -2.402731e+02
   8.981498e+01  -1.776248e+02
  -7.734773e+00  -3.677256e+01
  -1.227462e+02   1.817052e+01
  -1.109616e+02  -5.225600e+01
   9.432301e+00  -1.273138e+02
   1.086212e+02  -8.045623e+01
   8.732600e+01   5.508653e+01
  -3.698886e+01   1.124289e+02
  -1.523424e+02  -1.466424e+01
  -1.415743e+02  -2.349370e+02
   2.492051e+01  -3.389124e+02
   2.499422e+02  -2.078077e+02
   3.667954e+02   6.850170e+01
   2.752047e+02   2.779241e+02
   4.401247e+01   2.822913e+02
  -1.387101e+02   1.318393e+02
  -1.438279e+02  -3.830013e+00
  -2.661442e+01  -1.024870e+01
   4.469174e+01   7.080044e+01
  -1.780408e+01   1.117085e+02
  -1.276403e+02   5.279403e+01
  -1.368505e+02  -3.683102e+01
  -2.049312e+01  -5.165051e+01
   8.435667e+01   2.425721e+01
   3.168521e+01   1.023066e+02
  -1.604887e+02   8.625550e+01
  -3.108086e+02  -3.625372e+01
  -2.535149e+02  -1.889768e+02
  -1.027098e+01  -2.694146e+02
   2.240337e+02  -2.213588e+02
   2.684757e+02  -7.891539e+01
   1.256560e+02   4.929509e+01
  -3.543691e+01   6.726917e+01
  -5.594282e+01  -1.231265e+01
   6.358256e+01  -7.275057e+01
   1.838458e+02  -1.865713e+01
   1.766850e+02   1.110697e+02
   4.529038e+01   1.833601e+02
  -9.159346e+01   1.252226e+02
  -1.195964e+02   8.218697e+00
  -3.634235e+01  -3.692109e+01
   4.844285e+01   3.057919e+01
   2.217584e+01   1.216538e+02
  -1.102392e+02   1.197167e+02
  -2.186543e+02   1.439078e+00
  -1.765899e+02  -1.454338e+02
  -2.878544e-01  -2.070201e+02
   1.585236e+02  -1.411198e+02
   1.678015e+02  -6.972712e+00
   4.808281e+01   8.945194e+01
  -6.314384e+01   8.715882e+01
  -6.600781e+01   1.995724e+01
   6.135542e+00  -2.522172e+01
   4.400281e+01  -4.855565e+00
  -8.585818e+00   3.229939e+01
  -9.585670e+01   4.320719e+00
  -1.108688e+02  -9.846242e+01
  -5.658004e+00  -1.849289e+02
   1.547431e+02  -1.522124e+02
   2.436818e+02   2.361345e+00
   1.859563e+02   1.693195e+02
   2.852411e+01   2.277509e+02
  -1.037799e+02   1.532333e+02
  -1.277772e+02   2.874806e+01
  -7.372317e+01  -4.168974e+01
  -3.506008e+01  -2.718161e+01
  -5.725835e+01   1.409334e+01
  -9.179817e+01   5.456272e+00
  -6.152009e+01  -6.184296e+01
   4.146498e+01  -1.135976e+02
   1.334043e+02  -7.137417e+01
   1.160346e+02   5.056395e+01
  -2.187159e+01   1.389971e+02
  -1.767914e+02   8.941815e+01
  -2.105225e+02  -7.790719e+01
  -7.386350e+01  -2.231504e+02
   1.402815e+02  -2.181081e+02
   2.729488e+02  -6.832155e+01
   2.380392e+02   1.004706e+02
   8.955171e+01   1.701027e+02
  -4.511737e+01   1.336284e+02
  -8.876029e+01   7.586129e+01
  -6.791363e+01   6.823286e+01
  -5.759125e+01   9.492555e+01
  -9.209749e+01   8.022571e+01
  -1.335855e+02  -1.987898e+01
  -1.169205e+02  -1.578380e+02
  -1.961150e+01  -2.277340e+02
   1.062699e+02  -1.626271e+02
   1.696120e+02  -2.921531e+00
   1.197817e+02   1.338696e+02
   8.958205e-01   1.562635e+02
  -8.171028e+01   7.474415e+01
  -6.422004e+01  -2.189642e+01
   8.428456e+00  -5.857121e+01
   3.424012e+01  -3.657024e+01
  -2.367519e+01  -1.044449e+01
  -8.681590e+01  -1.790656e+01
  -5.176587e+01  -4.240135e+01
   7.857532e+01  -4.001338e+01
   1.817114e+02   7.958797e+00
   1.447900e+02   7.268338e+01
  -9.271202e+00   1.029089e+02
  -1.431561e+02   7.070278e+01
  -1.471870e+02  -1.585605e+00
  -4.188426e+01  -5.569914e+01
   6.135350e+01  -4.535598e+01
   7.931863e+01   1.964934e+01
   2.217572e+01   7.679698e+01
  -4.398454e+01   6.862633e+01
  -7.145482e+01   2.982129e+00
  -6.281893e+01  -5.245012e+01
  -4.940131e+01  -4.543547e+01
  -5.344715e+01  -2.995128e+00
  -6.504000e+01  -2.795773e+00
  -4.709398e+01  -7.604231e+01
   2.807905e+01  -1.566112e+02
   1.338779e+02  -1.467215e+02
   1.898758e+02  -3.019944e+01
   1.330143e+02   1.001513e+02
  -2.577253e+00   1.375504e+02
  -9.777826e+01   7.132378e+01
  -6.364260e+01  -1.031973e+01
   5.859276e+01  -1.977282e+01
   1.321368e+02   4.401453e+01
   6.618981e+01   1.081990e+02
  -8.800452e+01   1.062839e+02
  -1.902675e+02   3.625230e+01
  -1.536835e+02  -4.789275e+01
  -2.578245e+01  -8.568385e+01
   6.753290e+01  -5.608333e+01
   4.875833e+01   5.882784e+00
  -4.164438e+01   3.220609e+01
  -9.397341e+01  -2.002789e+01
  -4.107678e+01  -1.157623e+02
   7.715563e+01  -1.561923e+02
   1.555643e+02  -7.186653e+01
   1.256156e+02   8.985179e+01
   1.570362e+01   1.909632e+02
  -8.343420e+01   1.379627e+02
  -1.038379e+02  -1.553823e+01
  -5.037723e+01  -1.228675e+02
   2.006795e+01  -1.014783e+02
   5.455559e+01  -1.144990e+01
   4.217517e+01   3.388283e+01
   1.306813e+01   7.406073e+00
   7.128675e+00  -1.625724e+01
   3.409035e+01   2.426807e+01
   5.712003e+01   9.208177e+01
   2.603406e+01   1.043416e+02
  -6.059242e+01   4.038643e+01
  -1.343207e+02  -3.890513e+01
  -1.188627e+02  -7.120481e+01
  -1.784950e+01  -5.515185e+01
   7.810869e+01  -2.600330e+01
   8.600899e+01  -3.350233e+00
   1.994395e+01   1.357221e+01
  -3.318649e+01   2.049437e+01
  -2.194993e+01   1.037725e+01
   1.226530e+01  -4.629495e+00
  -1.594415e+00  -4.253779e+00
  -6.366131e+01   2.089285e+00
  -9.372520e+01  -2.199143e+01
  -2.627777e+01  -8.183244e+01
   1.045593e+02  -1.190867e+02
   1.907871e+02  -6.826168e+01
   1.574937e+02   5.655266e+01
   3.362585e+01   1.591072e+02
  -8.287820e+01   1.573605e+02
  -1.189353e+02   6.789220e+01
  -8.075198e+01  -1.902331e+01
  -2.690391e+01  -3.952470e+01
  -4.600078e+00  -1.491456e+01
  -1.538351e+01  -1.043095e+01
  -2.865524e+01  -5.120879e+01
  -1.480603e+01  -9.229844e+01
   3.021764e+01  -7.191502e+01
   7.746910e+01   1.430174e+01
   8.064930e+01   9.987756e+01
   1.757272e+01   1.100946e+02
  -7.218391e+01   3.511846e+01
  -1.067328e+02  -6.142026e+01
  -4.305071e+01  -1.034910e+02
   6.348290e+01  -6.792063e+01
   1.068571e+02   6.498518e+00
   4.838702e+01   6.162218e+01
  -3.544125e+01   6.583242e+01
  -4.422567e+01   2.965151e+01
   2.298345e+01  -7.915870e+00
   6.828325e+01  -9.457228e+00
   1.972992e+01   2.837258e+01
  -7.903921e+01   6.503466e+01
  -1.243237e+02   5.032932e+01
  -7.457793e+01  -1.953052e+01
   1.323691e+01  -8.626084e+01
   6.091818e+01  -8.482161e+01
   4.850956e+01  -1.572280e+01
   9.286196e+00   5.098149e+01
  -2.304647e+01   5.055113e+01
  -3.701135e+01  -7.238356e+00
  -2.927985e+01  -5.408883e+01
  -4.076848e-02  -4.281350e+01
   3.357465e+01   3.742371e+00
   4.309550e+01   2.749531e+01
   2.108894e+01   6.559046e+00
  -5.167651e+00  -2.230331e+01
  -6.790784e+00  -1.316479e+01
   7.860370e+00   2.996506e+01
   4.880144e+00   5.587622e+01
  -2.473973e+01   2.756481e+01
  -4.510727e+01  -3.101907e+01
  -1.873523e+01  -5.935755e+01
   3.872678e+01  -2.781779e+01
   6.538906e+01   3.075240e+01
   2.163410e+01   5.952186e+01
  -5.815608e+01   3.699851e+01
  -9.559768e+01  -1.001561e+01
  -5.181673e+01  -4.331450e+01
   2.874998e+01  -4.774989e+01
   6.596760e+01  -3.095717e+01
   3.105767e+01  -7.861196e+00
  -2.489124e+01   5.395152e+00
  -3.180770e+01  -2.817974e+00
   2.043636e+01  -2.292881e+01
   7.352078e+01  -2.125535e+01
