
 $NMID
 id='ANONYMOUS ', fmtdat='(2E16.6)'
 volume=1.0
 tramp=1.0
 $END
   4.918686e+03   1.054213e+02
   2.791751e+03   3.053254e+03
  -9.441362e+02   3.114361e+03
  -2.459274e+03   9.175983e+02
  -1.059913e+03  -8.290493e+02
   7.903257e+02  -6.689409e+02
   1.023306e+03   5.259369e+02
  -3.837365e+01   1.228788e+03
  -9.761210e+02   8.647731e+02
  -1.070296e+03  -1.481096e+02
  -4.804737e+02  -1.006285e+03
   3.150953e+02  -1.008919e+03
   7.422598e+02  -1.091176e+02
   4.203498e+02   8.358129e+02
  -3.354121e+02   8.466153e+02
  -6.962333e+02  -3.131356e+01
  -2.826127e+02  -7.882242e+02
   4.006033e+02  -7.044495e+02
   6.705043e+02  -7.097096e+01
   4.217202e+02   4.225202e+02
  -3.543569e+00   4.979091e+02
  -2.877426e+02   2.902919e+02
  -2.493829e+02   1.179162e+01
   1.196810e+02  -1.012300e+02
   4.527359e+02   1.263349e+02
   2.218302e+02   4.857103e+02
  -5.194910e+02   4.583299e+02
  -9.570406e+02  -1.005104e+02
  -4.799827e+02  -6.344573e+02
   4.515537e+02  -5.464333e+02
   8.438861e+02   5.293797e+01
   3.841330e+02   5.539604e+02
  -3.301879e+02   5.800225e+02
  -6.451203e+02   2.131759e+02
  -4.656086e+02  -2.714074e+02
  -6.651922e+01  -5.447114e+02
   2.403944e+02  -3.232788e+02
   2.021906e+02   2.499516e+02
  -1.898856e+02   5.002384e+02
  -5.095285e+02  -2.037164e+01
  -2.703962e+02  -7.751774e+02
   3.774490e+02  -7.938796e+02
   6.951169e+02   6.779392e+00
   2.886962e+02   6.404955e+02
  -3.404299e+02   3.644737e+02
  -4.356548e+02  -3.713533e+02
   8.606347e+01  -6.180697e+02
   6.291780e+02  -1.423562e+02
   6.581775e+02   4.736690e+02
   1.683927e+02   6.656293e+02
  -4.420763e+02   3.817193e+02
  -7.083171e+02  -1.017162e+02
  -4.120907e+02  -4.506857e+02
   1.871629e+02  -4.164963e+02
   5.098121e+02  -5.074229e+01
   2.720254e+02   2.393098e+02
  -1.423439e+02   1.273720e+02
  -1.672146e+02  -1.811703e+02
   1.903065e+02  -2.162527e+02
   3.962580e+02   9.195058e+01
   1.534887e+02   3.477461e+02
  -2.414237e+02   2.851296e+02
  -3.739460e+02   6.297292e+01
  -2.083771e+02  -1.048572e+02
   4.165699e+01  -2.385982e+02
   2.512124e+02  -3.459333e+02
   3.762145e+02  -2.348518e+02
   3.232206e+02   1.557112e+02
   8.045600e+01   4.927335e+02
  -1.444830e+02   4.340669e+02
  -1.502602e+02   1.217244e+02
  -3.243252e+01  -2.399229e+01
  -4.307022e+01   8.803724e+01
  -2.115648e+02   1.426694e+02
  -3.085844e+02  -5.837201e+01
  -1.765412e+02  -3.032465e+02
   8.174264e+01  -2.888049e+02
   2.547289e+02  -1.205669e+01
   2.187484e+02   2.703497e+02
  -1.441593e+01   3.301593e+02
  -2.988917e+02   1.280284e+02
  -4.009779e+02  -1.937212e+02
  -2.014324e+02  -4.001648e+02
   1.221312e+02  -3.446439e+02
   2.635583e+02  -1.278964e+02
   1.720349e+02   5.642229e+00
   1.081553e+02  -2.971168e+01
   2.548970e+02  -6.475472e+01
   4.386021e+02   7.237855e+01
   3.593705e+02   3.234839e+02
  -1.344510e+01   4.890549e+02
  -4.076928e+02   4.464579e+02
  -5.460140e+02   2.104674e+02
  -3.744059e+02  -1.103794e+02
  -5.724788e+01  -3.306300e+02
   1.531871e+02  -2.843368e+02
   9.941988e+01  -3.311312e+01
  -1.214739e+02   1.229794e+02
  -2.237372e+02  -6.198665e+00
  -5.711450e+01  -2.235547e+02
   1.865115e+02  -1.957923e+02
   2.055379e+02   7.051676e+01
  -2.107869e+01   2.204281e+02
  -2.193112e+02   3.566388e+01
  -1.757777e+02  -2.808858e+02
   4.702542e+01  -3.873203e+02
   2.609562e+02  -2.032144e+02
   3.546896e+02   8.185471e+01
   2.972515e+02   2.695297e+02
   9.951777e+01   2.911079e+02
  -1.277060e+02   1.753185e+02
  -1.998623e+02   2.068776e+01
  -6.798198e+01  -3.863363e+01
   7.719886e+01   4.140708e+01
   3.333639e+01   1.393785e+02
  -1.389540e+02   1.108522e+02
  -2.008921e+02  -1.632150e+01
  -6.655818e+01  -8.323298e+01
   8.739478e+01  -1.935271e+01
   5.983405e+01   7.909491e+01
  -1.355787e+02   9.017807e+01
  -3.066809e+02  -7.738782e+00
  -2.847394e+02  -1.580676e+02
  -6.210259e+01  -2.801277e+02
   2.069876e+02  -2.846751e+02
   3.178746e+02  -1.357607e+02
   1.914774e+02   6.139250e+01
  -2.812460e+01   1.247856e+02
  -1.041068e+02   9.654965e+00
   3.532071e+01  -1.132661e+02
   2.184814e+02  -6.406506e+01
   2.365856e+02   1.182412e+02
   7.345636e+01   2.344117e+02
  -1.089210e+02   1.756407e+02
  -1.624878e+02   3.051878e+01
  -8.066071e+01  -4.777525e+01
   2.744211e+01  -5.386392e+00
   3.887218e+01   8.803799e+01
  -7.835502e+01   1.198462e+02
  -2.156325e+02   2.780310e+01
  -2.081709e+02  -1.389956e+02
  -1.936260e+01  -2.419656e+02
   1.871963e+02  -1.790641e+02
   2.181648e+02  -1.635697e+00
   7.153026e+01   1.313493e+02
  -7.715038e+01   1.244697e+02
  -9.500102e+01   3.306782e+01
  -2.246596e+01  -2.872453e+01
   2.146585e+01  -2.069966e+01
  -1.179525e+01   5.865595e+00
  -7.511237e+01  -1.391134e+01
  -9.120618e+01  -9.149825e+01
  -1.178342e+01  -1.708505e+02
   1.400301e+02  -1.624999e+02
   2.554639e+02  -2.401669e+01
   2.185924e+02   1.684968e+02
   4.068084e+01   2.634493e+02
  -1.256650e+02   1.861080e+02
  -1.519621e+02   2.585211e+01
  -7.626556e+01  -6.537483e+01
  -2.992620e+01  -4.168964e+01
  -5.877218e+01   1.132046e+01
  -8.654744e+01   4.213397e+00
  -4.189628e+01  -5.518248e+01
   5.005936e+01  -9.230740e+01
   1.111998e+02  -5.473363e+01
   8.888425e+01   4.071572e+01
  -1.799279e+01   1.171789e+02
  -1.541198e+02   8.853002e+01
  -2.124972e+02  -5.909963e+01
  -1.066807e+02  -2.208853e+02
   1.194426e+02  -2.481933e+02
   2.949684e+02  -1.007171e+02
   2.826940e+02   1.001853e+02
   1.178684e+02   1.982592e+02
  -4.618151e+01   1.624040e+02
  -1.072774e+02   9.082808e+01
  -9.085441e+01   7.441717e+01
  -7.751561e+01   9.762433e+01
  -1.040850e+02   7.779794e+01
  -1.395771e+02  -2.872535e+01
  -1.241790e+02  -1.725385e+02
  -2.639775e+01  -2.488642e+02
   1.128057e+02  -1.870406e+02
   1.937674e+02  -1.921334e+01
   1.476134e+02   1.363926e+02
   1.814827e+01   1.760228e+02
  -7.494288e+01   1.008984e+02
  -6.511473e+01   1.046809e+00
  -4.938055e+00  -4.502559e+01
   1.023821e+01  -3.676889e+01
  -4.057164e+01  -2.169004e+01
  -8.549529e+01  -2.822792e+01
  -4.694675e+01  -4.311557e+01
   6.962111e+01  -3.765599e+01
   1.704215e+02   1.390230e+00
   1.546083e+02   5.870481e+01
   1.609155e+01   9.546164e+01
  -1.321892e+02   7.704960e+01
  -1.589989e+02   1.156632e+01
  -5.213643e+01  -4.479013e+01
   6.721622e+01  -3.834937e+01
   8.222268e+01   2.325990e+01
   4.679963e+00   7.473530e+01
  -6.432281e+01   6.091737e+01
  -6.865311e+01  -4.989915e+00
  -4.488057e+01  -5.652161e+01
  -4.557289e+01  -4.709210e+01
  -6.784768e+01  -4.274164e+00
  -7.248824e+01  -2.628575e+00
  -3.501428e+01  -7.468570e+01
   4.135062e+01  -1.573948e+02
   1.303108e+02  -1.497501e+02
   1.781802e+02  -3.071338e+01
   1.307565e+02   1.029781e+02
   3.771171e+00   1.369285e+02
  -9.516612e+01   6.333920e+01
  -6.487018e+01  -1.884875e+01
   6.538215e+01  -2.011014e+01
   1.496172e+02   5.175713e+01
   8.063922e+01   1.195878e+02
  -9.098340e+01   1.209025e+02
  -2.104250e+02   5.240626e+01
  -1.776167e+02  -4.055929e+01
  -3.928749e+01  -9.594728e+01
   6.796777e+01  -7.622273e+01
   5.368988e+01  -7.803520e+00
  -4.306173e+01   2.765694e+01
  -9.810880e+01  -2.775819e+01
  -3.166060e+01  -1.313158e+02
   1.061689e+02  -1.660488e+02
   1.864578e+02  -6.233813e+01
   1.358255e+02   1.149336e+02
   4.736482e+00   2.172172e+02
  -9.818034e+01   1.557356e+02
  -1.141714e+02  -9.740767e+00
  -6.359412e+01  -1.302920e+02
   3.400823e+00  -1.166398e+02
   4.978363e+01  -2.135274e+01
   5.687604e+01   3.533065e+01
   2.941969e+01   1.010059e+01
   4.559864e+00  -2.276552e+01
   2.052442e+01   1.650996e+01
   5.790731e+01   9.832279e+01
   4.422519e+01   1.212567e+02
  -5.125041e+01   4.817964e+01
  -1.504567e+02  -4.764316e+01
  -1.410107e+02  -8.165050e+01
  -1.748014e+01  -5.442610e+01
   9.801974e+01  -2.123019e+01
   9.709740e+01  -5.998144e+00
   1.058196e+01   7.968765e+00
  -4.343140e+01   2.348368e+01
  -1.511123e+01   2.006506e+01
   2.441952e+01  -8.147829e-01
  -6.475157e+00  -1.053419e+01
  -8.229221e+01  -7.163009e+00
  -9.906166e+01  -2.941217e+01
  -4.673931e+00  -8.823425e+01
   1.349558e+02  -1.205752e+02
   2.044372e+02  -5.642267e+01
   1.511031e+02   7.991497e+01
   2.187213e+01   1.783389e+02
  -9.119381e+01   1.601857e+02
  -1.264656e+02   5.896133e+01
  -8.737199e+01  -2.655999e+01
  -2.569075e+01  -3.914143e+01
   4.467424e+00  -8.938917e+00
  -1.034071e+01  -4.234029e+00
  -3.493586e+01  -5.035855e+01
  -2.251851e+01  -9.867142e+01
   3.424756e+01  -7.717905e+01
   8.844037e+01   2.337085e+01
   8.025130e+01   1.218886e+02
  -4.963333e-01   1.231855e+02
  -9.203738e+01   2.221264e+01
  -1.098123e+02  -8.744900e+01
  -3.028431e+01  -1.143672e+02
   7.507614e+01  -5.722582e+01
   1.056158e+02   1.712073e+01
   3.979247e+01   5.568377e+01
  -3.760945e+01   5.386482e+01
  -3.384638e+01   2.921904e+01
   3.846716e+01   1.176810e+00
   7.605569e+01  -4.652105e+00
   1.483697e+01   2.767549e+01
  -8.872765e+01   6.938335e+01
  -1.270576e+02   6.061026e+01
  -6.794340e+01  -1.471670e+01
   2.045443e+01  -8.976804e+01
   5.990429e+01  -8.403755e+01
   3.963398e+01  -3.578586e+00
  -1.015691e+00   6.170181e+01
  -3.003802e+01   4.513700e+01
  -3.926898e+01  -2.238507e+01
  -2.678448e+01  -5.989417e+01
   4.749153e+00  -3.477653e+01
   3.589141e+01   1.097397e+01
   4.203414e+01   2.377673e+01
   2.224593e+01   1.375487e+00
   3.561885e-01  -1.473850e+01
  -7.155660e+00   4.614286e+00
  -9.714839e+00   4.065788e+01
  -2.196006e+01   4.761810e+01
  -3.665381e+01   5.487950e+00
  -3.030112e+01  -5.187779e+01
   6.392137e+00  -6.705997e+01
   5.015076e+01  -2.027170e+01
   5.954505e+01   4.588899e+01
   1.293774e+01   6.986049e+01
  -6.080035e+01   3.472517e+01
  -9.576670e+01  -2.071970e+01
  -5.168269e+01  -4.994654e+01
   3.305336e+01  -4.270447e+01
   7.154530e+01  -1.999553e+01
   2.598747e+01  -3.931545e+00
  -4.193534e+01  -4.190848e+00
  -4.146840e+01  -1.961270e+01
   3.542051e+01  -3.403787e+01
   1.019431e+02  -1.851478e+01
