
 $NMID
 id='ANONYMOUS ', fmtdat='(2E16.6)'
 volume=1.0
 tramp=1.0
 $END
  -4.626095e+03   6.430429e+01
  -2.698998e+03  -2.799831e+03
   8.316620e+02  -2.950591e+03
   2.301489e+03  -8.897425e+02
   9.939843e+02   7.993760e+02
  -7.675643e+02   6.669010e+02
  -1.000376e+03  -4.833459e+02
   4.370215e+00  -1.175619e+03
   9.032982e+02  -8.421789e+02
   1.012972e+03   1.185914e+02
   4.742498e+02   9.400664e+02
  -2.792357e+02   9.570058e+02
  -7.069969e+02   1.159094e+02
  -4.237830e+02  -7.823927e+02
   2.952604e+02  -8.066622e+02
   6.582229e+02   1.470150e+01
   2.827617e+02   7.323162e+02
  -3.617033e+02   6.609860e+02
  -6.225388e+02   7.143698e+01
  -3.960862e+02  -3.888156e+02
  -3.214745e+00  -4.635681e+02
   2.652547e+02  -2.771920e+02
   2.402764e+02  -1.258413e+01
  -1.032590e+02   1.135198e+02
  -4.342333e+02  -8.843932e+01
  -2.382555e+02  -4.479074e+02
   4.644797e+02  -4.610693e+02
   9.065305e+02   5.278803e+01
   4.793015e+02   5.856256e+02
  -4.060064e+02   5.416461e+02
  -8.005199e+02  -1.416221e+01
  -3.848838e+02  -5.086023e+02
   2.875299e+02  -5.594842e+02
   5.969206e+02  -2.235956e+02
   4.453361e+02   2.405895e+02
   7.718902e+01   5.129388e+02
  -2.253100e+02   3.125116e+02
  -2.109534e+02  -2.361958e+02
   1.594797e+02  -4.906906e+02
   4.916678e+02  -6.396633e+00
   2.930228e+02   7.229168e+02
  -3.287702e+02   7.653915e+02
  -6.636737e+02   1.516727e+01
  -2.970438e+02  -6.014360e+02
   3.146412e+02  -3.609170e+02
   4.312291e+02   3.336723e+02
  -5.570933e+01   5.860871e+02
  -5.847160e+02   1.585189e+02
  -6.315569e+02  -4.174602e+02
  -1.782414e+02  -6.148602e+02
   4.017347e+02  -3.726515e+02
   6.652322e+02   7.111994e+01
   3.966588e+02   4.122138e+02
  -1.684353e+02   4.004616e+02
  -4.805110e+02   6.043410e+01
  -2.590805e+02  -2.252878e+02
   1.383006e+02  -1.279061e+02
   1.671256e+02   1.710451e+02
  -1.747659e+02   2.159422e+02
  -3.780598e+02  -7.447650e+01
  -1.537295e+02  -3.242142e+02
   2.170873e+02  -2.715282e+02
   3.404765e+02  -6.566776e+01
   1.896213e+02   8.751705e+01
  -2.930635e+01   2.126009e+02
  -2.121197e+02   3.245216e+02
  -3.359219e+02   2.348096e+02
  -3.083012e+02  -1.301867e+02
  -9.336303e+01  -4.577650e+02
   1.252108e+02  -4.097379e+02
   1.419937e+02  -1.112924e+02
   2.873306e+01   3.095200e+01
   2.796577e+01  -8.109858e+01
   1.856658e+02  -1.460289e+02
   2.902591e+02   3.717188e+01
   1.793342e+02   2.747817e+02
  -6.352929e+01   2.747815e+02
  -2.379511e+02   2.439030e+01
  -2.166880e+02  -2.415298e+02
  -1.367558e+00  -3.089551e+02
   2.730091e+02  -1.331731e+02
   3.809318e+02   1.641605e+02
   2.008420e+02   3.661272e+02
  -1.047762e+02   3.248681e+02
  -2.430607e+02   1.236849e+02
  -1.581497e+02  -5.614244e+00
  -9.384986e+01   2.875927e+01
  -2.286831e+02   7.158770e+01
  -4.058027e+02  -4.744461e+01
  -3.435889e+02  -2.838649e+02
  -7.098420e+00  -4.513475e+02
   3.575306e+02  -4.272813e+02
   4.961897e+02  -2.156108e+02
   3.531139e+02   8.808195e+01
   6.722282e+01   3.065583e+02
  -1.346896e+02   2.718428e+02
  -9.648858e+01   3.263319e+01
   1.075175e+02  -1.236547e+02
   2.124907e+02  -4.401072e+00
   6.376679e+01   2.091345e+02
  -1.694545e+02   1.925093e+02
  -1.979486e+02  -5.906681e+01
   1.120333e+01  -2.094032e+02
   2.040146e+02  -4.325803e+01
   1.728488e+02   2.536294e+02
  -3.057098e+01   3.587868e+02
  -2.317645e+02   1.950813e+02
  -3.264648e+02  -6.245237e+01
  -2.832882e+02  -2.351573e+02
  -1.052298e+02  -2.636474e+02
   1.100325e+02  -1.679324e+02
   1.858229e+02  -2.730795e+01
   6.594575e+01   3.504541e+01
  -7.450074e+01  -3.346321e+01
  -3.862394e+01  -1.285073e+02
   1.242771e+02  -1.101004e+02
   1.886044e+02   6.834292e+00
   6.656159e+01   7.613369e+01
  -7.984012e+01   2.368338e+01
  -5.967533e+01  -6.891934e+01
   1.190920e+02  -8.798528e+01
   2.807566e+02  -6.135827e+00
   2.685365e+02   1.323515e+02
   7.035553e+01   2.550750e+02
  -1.783004e+02   2.721947e+02
  -2.893859e+02   1.390341e+02
  -1.814444e+02  -5.049647e+01
   2.121997e+01  -1.188951e+02
   9.813996e+01  -1.359254e+01
  -2.671654e+01   1.077565e+02
  -2.000912e+02   6.921451e+01
  -2.244698e+02  -1.004372e+02
  -7.712427e+01  -2.151826e+02
   9.472137e+01  -1.676855e+02
   1.504209e+02  -3.490714e+01
   7.824521e+01   4.184711e+01
  -2.392176e+01   8.450443e+00
  -4.021323e+01  -7.709240e+01
   6.518235e+01  -1.128262e+02
   1.962310e+02  -3.511848e+01
   1.975861e+02   1.193103e+02
   2.752231e+01   2.229719e+02
  -1.667698e+02   1.728014e+02
  -2.025982e+02   8.716132e+00
  -7.134071e+01  -1.203768e+02
   6.721724e+01  -1.189141e+02
   8.763304e+01  -3.429567e+01
   2.339635e+01   2.595077e+01
  -1.758674e+01   2.096410e+01
   1.050414e+01  -4.080844e+00
   6.769128e+01   1.089286e+01
   8.560588e+01   7.964936e+01
   1.763328e+01   1.549613e+02
  -1.212014e+02   1.545864e+02
  -2.337395e+02   3.298014e+01
  -2.082178e+02  -1.462708e+02
  -4.736269e+01  -2.418060e+02
   1.097573e+02  -1.767109e+02
   1.395178e+02  -2.883322e+01
   7.208087e+01   5.849618e+01
   2.843326e+01   3.788861e+01
   5.339320e+01  -1.233482e+01
   7.863914e+01  -7.030465e+00
   3.916998e+01   4.828544e+01
  -4.269124e+01   8.481657e+01
  -9.807356e+01   5.333126e+01
  -8.115467e+01  -3.303709e+01
   1.164630e+01  -1.064669e+02
   1.362016e+02  -8.683466e+01
   1.968221e+02   4.499841e+01
   1.078462e+02   1.982291e+02
  -9.901466e+01   2.335121e+02
  -2.677400e+02   1.048601e+02
  -2.650683e+02  -8.158817e+01
  -1.166417e+02  -1.790200e+02
   3.658098e+01  -1.520440e+02
   9.607175e+01  -8.779390e+01
   8.185392e+01  -7.157366e+01
   6.856934e+01  -9.210997e+01
   9.304064e+01  -7.471707e+01
   1.289907e+02   2.172732e+01
   1.202539e+02   1.541928e+02
   3.356770e+01   2.280130e+02
  -9.689787e+01   1.767045e+02
  -1.781860e+02   2.553440e+01
  -1.417826e+02  -1.197049e+02
  -2.400984e+01  -1.617282e+02
   6.463163e+01  -9.677771e+01
   5.979619e+01  -4.822154e+00
   7.173163e+00   4.026264e+01
  -6.471846e+00   3.425957e+01
   3.886674e+01   1.922264e+01
   7.903589e+01   2.329365e+01
   4.421119e+01   3.768561e+01
  -6.167549e+01   3.695204e+01
  -1.552391e+02   5.570662e+00
  -1.443225e+02  -4.716811e+01
  -1.994242e+01  -8.648230e+01
   1.173928e+02  -7.586702e+01
   1.458554e+02  -1.718035e+01
   5.009912e+01   3.843689e+01
  -6.034872e+01   3.704927e+01
  -7.619743e+01  -1.848667e+01
  -5.950293e+00  -6.785802e+01
   5.778410e+01  -5.738687e+01
   6.270403e+01   2.502127e+00
   4.194658e+01   5.010155e+01
   4.315565e+01   4.144301e+01
   6.310697e+01   1.625829e+00
   6.686073e+01  -2.139340e-01
   3.402591e+01   6.679017e+01
  -3.284220e+01   1.453739e+02
  -1.134227e+02   1.419908e+02
  -1.610581e+02   3.483258e+01
  -1.232080e+02  -8.948557e+01
  -8.927956e+00  -1.250990e+02
   8.443167e+01  -6.095961e+01
   6.000912e+01   1.539192e+01
  -5.948069e+01   2.076179e+01
  -1.397687e+02  -4.246376e+01
  -7.897209e+01  -1.072459e+02
   7.906363e+01  -1.148285e+02
   1.919333e+02  -5.653600e+01
   1.655237e+02   3.029147e+01
   4.023448e+01   8.707702e+01
  -5.956478e+01   7.349773e+01
  -4.926188e+01   9.946067e+00
   3.839795e+01  -2.657979e+01
   9.092744e+01   2.228757e+01
   3.305260e+01   1.198056e+02
  -9.289162e+01   1.561049e+02
  -1.700721e+02   6.298276e+01
  -1.288544e+02  -1.017778e+02
  -1.140325e+01  -2.000211e+02
   8.513863e+01  -1.470290e+02
   1.054824e+02   4.417161e+00
   6.374328e+01   1.173996e+02
   2.116066e+00   1.079239e+02
  -4.453058e+01   2.204907e+01
  -5.424092e+01  -3.044517e+01
  -2.829241e+01  -8.486294e+00
  -3.229623e+00   2.142807e+01
  -1.859301e+01  -1.370435e+01
  -5.657870e+01  -8.817372e+01
  -4.591764e+01  -1.105106e+02
   4.456581e+01  -4.654706e+01
   1.402882e+02   3.872050e+01
   1.332752e+02   7.033823e+01
   1.798286e+01   4.907259e+01
  -9.006966e+01   2.253404e+01
  -8.930272e+01   9.134581e+00
  -9.431324e+00  -6.442272e+00
   3.953064e+01  -2.316823e+01
   1.273818e+01  -1.959562e+01
  -2.303678e+01   1.281481e+00
   6.558433e+00   9.843816e+00
   7.661121e+01   4.284826e+00
   9.193979e+01   2.375728e+01
   6.095924e+00   8.070043e+01
  -1.209017e+02   1.150392e+02
  -1.856084e+02   5.826732e+01
  -1.404870e+02  -6.891072e+01
  -2.565532e+01  -1.633788e+02
   7.802231e+01  -1.499516e+02
   1.138529e+02  -5.795090e+01
   8.122540e+01   2.160227e+01
   2.486796e+01   3.480496e+01
  -4.272001e+00   7.865683e+00
   9.354153e+00   3.042185e+00
   3.422020e+01   4.476686e+01
   2.467106e+01   8.988140e+01
  -2.877178e+01   7.213830e+01
  -8.234636e+01  -1.878861e+01
  -7.764675e+01  -1.098906e+02
  -2.818937e+00  -1.133157e+02
   8.447612e+01  -2.269266e+01
   1.035849e+02   7.759518e+01
   3.100069e+01   1.040253e+02
  -6.716557e+01   5.430784e+01
  -9.702590e+01  -1.241204e+01
  -3.796113e+01  -4.898030e+01
   3.241438e+01  -4.986261e+01
   2.920246e+01  -2.805020e+01
  -3.611489e+01  -3.905410e-01
  -6.982345e+01   6.683158e+00
  -1.428680e+01  -2.466415e+01
   7.923106e+01  -6.690985e+01
   1.142231e+02  -6.075549e+01
   6.230090e+01   1.056803e+01
  -1.587827e+01   8.299510e+01
  -5.159605e+01   7.902515e+01
  -3.542038e+01   4.054969e+00
  -5.881872e-01  -5.703943e+01
   2.618839e+01  -4.197024e+01
   3.672735e+01   2.000602e+01
   2.649127e+01   5.412352e+01
  -3.279345e+00   3.141528e+01
  -3.330093e+01  -9.191753e+00
  -3.928812e+01  -1.993862e+01
  -2.052028e+01  -1.154809e-01
  -5.551851e-02   1.295165e+01
   6.577323e+00  -5.615114e+00
   8.609407e+00  -3.804195e+01
   1.994724e+01  -4.355613e+01
   3.384977e+01  -4.844790e+00
   2.847122e+01   4.749780e+01
  -5.045184e+00   6.179435e+01
  -4.576177e+01   1.979547e+01
  -5.562176e+01  -4.066529e+01
  -1.375614e+01  -6.397567e+01
   5.445883e+01  -3.383254e+01
   8.824178e+01   1.608725e+01
   4.903335e+01   4.418228e+01
  -2.886801e+01   3.990838e+01
  -6.492821e+01   2.017646e+01
  -2.325497e+01   4.357999e+00
   3.949244e+01   3.065744e+00
   3.909157e+01   1.757012e+01
  -3.219974e+01   3.299273e+01
  -9.432164e+01   2.023903e+01
