
 $NMID
 id='ANONYMOUS ', fmtdat='(2E16.6)'
 volume=1.0
 tramp=1.0
 $END
  -2.848853e+03   4.185032e+01
  -1.731991e+03  -1.642790e+03
   3.643874e+02  -1.820361e+03
   1.332068e+03  -7.029571e+02
   6.781068e+02   3.133892e+02
  -3.365612e+02   3.555154e+02
  -5.431641e+02  -2.370108e+02
  -1.701542e+01  -6.617030e+02
   5.107319e+02  -5.218003e+02
   6.110728e+02   2.869855e+01
   3.203056e+02   5.433101e+02
  -1.210452e+02   5.874535e+02
  -3.915505e+02   1.000778e+02
  -2.538938e+02  -4.495196e+02
   1.569507e+02  -4.938819e+02
   3.932770e+02  -1.521516e+01
   2.011065e+02   4.442873e+02
  -1.906198e+02   4.466283e+02
  -3.917055e+02   9.898651e+01
  -2.844679e+02  -2.160914e+02
  -3.400427e+01  -2.947228e+02
   1.476460e+02  -1.844747e+02
   1.262693e+02  -2.553223e+01
  -8.709811e+01   2.927273e+01
  -2.602070e+02  -1.018251e+02
  -1.065889e+02  -2.850136e+02
   3.167857e+02  -2.485876e+02
   5.511664e+02   6.323200e+01
   2.718593e+02   3.475209e+02
  -2.558986e+02   2.946043e+02
  -4.791641e+02  -3.333848e+01
  -2.205670e+02  -3.130768e+02
   1.887503e+02  -3.359489e+02
   3.750950e+02  -1.334828e+02
   2.777250e+02   1.444665e+02
   5.667003e+01   3.047514e+02
  -1.085836e+02   1.862026e+02
  -8.885409e+01  -1.266715e+02
   1.110080e+02  -2.605588e+02
   2.700568e+02   2.670363e+01
   1.399992e+02   4.404262e+02
  -2.036923e+02   4.510862e+02
  -3.775865e+02   1.004420e+01
  -1.660879e+02  -3.448980e+02
   1.761615e+02  -1.983788e+02
   2.377469e+02   2.118007e+02
  -4.891523e+01   3.558204e+02
  -3.671777e+02   8.720606e+01
  -3.997607e+02  -2.730964e+02
  -1.185631e+02  -3.929615e+02
   2.500400e+02  -2.324402e+02
   4.215509e+02   4.470389e+01
   2.602435e+02   2.442925e+02
  -8.563142e+01   2.355843e+02
  -2.849269e+02   4.870120e+01
  -1.692429e+02  -1.085189e+02
   6.034565e+01  -6.476949e+01
   8.849771e+01   8.794424e+01
  -1.009182e+02   1.126513e+02
  -2.245559e+02  -4.310789e+01
  -9.998055e+01  -1.912344e+02
   1.326855e+02  -1.808023e+02
   2.337060e+02  -6.208925e+01
   1.475629e+02   6.203847e+01
  -1.823454e+01   1.707187e+02
  -1.640958e+02   2.319203e+02
  -2.369003e+02   1.441014e+02
  -1.940912e+02  -9.596945e+01
  -5.467917e+01  -2.903276e+02
   6.414678e+01  -2.597572e+02
   6.956260e+01  -9.082494e+01
   2.135618e+01  -1.040491e+01
   4.460201e+01  -6.316179e+01
   1.415503e+02  -7.881503e+01
   1.869363e+02   4.430768e+01
   1.023700e+02   1.835454e+02
  -5.033718e+01   1.688622e+02
  -1.515745e+02   1.805651e+00
  -1.294005e+02  -1.653337e+02
   1.007380e+01  -1.973307e+02
   1.801770e+02  -7.491434e+01
   2.436015e+02   1.136417e+02
   1.304860e+02   2.343927e+02
  -5.874853e+01   2.087481e+02
  -1.485676e+02   9.221646e+01
  -1.059998e+02   1.621753e+01
  -7.700974e+01   2.885967e+01
  -1.678472e+02   4.106859e+01
  -2.787937e+02  -4.332374e+01
  -2.298181e+02  -1.971742e+02
   2.207984e+00  -3.055009e+02
   2.498298e+02  -2.853185e+02
   3.351619e+02  -1.381619e+02
   2.260934e+02   6.268878e+01
   3.519424e+01   1.965638e+02
  -8.211389e+01   1.687988e+02
  -4.622026e+01   2.376019e+01
   7.550754e+01  -6.516824e+01
   1.259903e+02   6.398509e+00
   3.100148e+01   1.270788e+02
  -1.032100e+02   1.114428e+02
  -1.147803e+02  -3.843237e+01
   1.129053e+01  -1.248770e+02
   1.293703e+02  -1.976551e+01
   1.134790e+02   1.689060e+02
  -1.808345e+01   2.415825e+02
  -1.608775e+02   1.367455e+02
  -2.309239e+02  -4.234868e+01
  -1.930726e+02  -1.673477e+02
  -6.162093e+01  -1.830149e+02
   7.969215e+01  -1.084308e+02
   1.188907e+02  -1.378726e+01
   3.789759e+01   1.889298e+01
  -4.538736e+01  -2.945531e+01
  -1.644534e+01  -8.434819e+01
   8.490146e+01  -6.505561e+01
   1.191238e+02   9.293102e+00
   3.724791e+01   4.700945e+01
  -5.518482e+01   7.552423e+00
  -3.577547e+01  -5.301499e+01
   8.872409e+01  -6.026917e+01
   1.973579e+02   2.498708e+00
   1.811728e+02   9.975756e+01
   3.797305e+01   1.765173e+02
  -1.290139e+02   1.771914e+02
  -1.930191e+02   8.513381e+01
  -1.137493e+02  -3.329601e+01
   1.649152e+01  -7.161881e+01
   5.901627e+01  -4.982537e+00
  -2.458787e+01   6.710423e+01
  -1.332325e+02   3.878782e+01
  -1.448616e+02  -6.945487e+01
  -4.781268e+01  -1.406237e+02
   6.324721e+01  -1.070633e+02
   9.677132e+01  -1.962266e+01
   4.580785e+01   2.720652e+01
  -2.082307e+01  -1.492290e+00
  -2.435977e+01  -6.081111e+01
   5.247620e+01  -7.859726e+01
   1.380519e+02  -1.855571e+01
   1.315763e+02   8.544451e+01
   1.478573e+01   1.491704e+02
  -1.115158e+02   1.129355e+02
  -1.318567e+02   6.665128e+00
  -4.501910e+01  -7.605836e+01
   4.453107e+01  -7.561977e+01
   5.562564e+01  -2.120524e+01
   1.056772e+01   1.741962e+01
  -1.684084e+01   1.132654e+01
   6.859585e+00  -8.139325e+00
   5.162469e+01   4.327775e+00
   6.357246e+01   5.760436e+01
   1.047014e+01   1.113991e+02
  -8.837377e+01   1.056834e+02
  -1.613448e+02   1.698774e+01
  -1.387379e+02  -1.032360e+02
  -3.000365e+01  -1.623198e+02
   7.298493e+01  -1.168716e+02
   9.299053e+01  -2.037274e+01
   4.987460e+01   3.647696e+01
   2.087518e+01   2.375878e+01
   3.715398e+01  -9.003113e+00
   5.616674e+01  -4.852524e+00
   3.115921e+01   3.540098e+01
  -2.860103e+01   6.356203e+01
  -7.343126e+01   4.021551e+01
  -6.211798e+01  -2.555529e+01
   9.443401e+00  -7.888704e+01
   1.002784e+02  -6.037551e+01
   1.372000e+02   3.602094e+01
   6.819699e+01   1.395405e+02
  -7.426109e+01   1.570446e+02
  -1.833451e+02   6.604953e+01
  -1.763908e+02  -5.797692e+01
  -7.548355e+01  -1.200366e+02
   2.583661e+01  -1.005883e+02
   6.383015e+01  -5.822046e+01
   5.296662e+01  -4.869714e+01
   4.436148e+01  -6.381558e+01
   6.305453e+01  -5.253080e+01
   8.910778e+01   1.389749e+01
   8.226595e+01   1.054653e+02
   2.139863e+01   1.555572e+02
  -6.710000e+01   1.185372e+02
  -1.199730e+02   1.406644e+01
  -9.328567e+01  -8.373177e+01
  -1.284582e+01  -1.093173e+02
   4.686101e+01  -6.226060e+01
   4.160738e+01   1.446535e+00
   2.123702e+00   3.087972e+01
  -9.477143e+00   2.381303e+01
   2.381601e+01   1.126942e+01
   5.558714e+01   1.454734e+01
   3.179561e+01   2.644229e+01
  -4.514606e+01   2.607920e+01
  -1.109866e+02   1.945079e+00
  -9.887001e+01  -3.633568e+01
  -8.516989e+00  -6.201765e+01
   8.467848e+01  -5.137028e+01
   9.978920e+01  -8.905348e+00
   3.283483e+01   2.924838e+01
  -4.126681e+01   2.715867e+01
  -5.273604e+01  -1.249551e+01
  -7.413725e+00  -4.805195e+01
   3.664546e+01  -4.162586e+01
   4.451157e+01   4.020009e-01
   3.281214e+01   3.452148e+01
   3.084805e+01   2.887607e+01
   4.131190e+01   1.047592e+00
   4.533598e+01   9.774392e-02
   2.599913e+01   4.724105e+01
  -2.088187e+01   1.016082e+02
  -8.067739e+01   9.840224e+01
  -1.152836e+02   2.363189e+01
  -8.642874e+01  -6.258393e+01
  -4.506764e+00  -8.774881e+01
   5.993028e+01  -4.396985e+01
   4.176981e+01   9.288433e+00
  -4.037534e+01   1.428470e+01
  -9.426810e+01  -2.862675e+01
  -5.206804e+01  -7.305667e+01
   5.513859e+01  -7.721278e+01
   1.305213e+02  -3.573687e+01
   1.109836e+02   2.319106e+01
   2.519503e+01   5.901508e+01
  -4.180922e+01   4.721653e+01
  -3.348394e+01   4.059516e+00
   2.673262e+01  -1.939284e+01
   6.281230e+01   1.438021e+01
   2.466772e+01   8.096392e+01
  -5.977815e+01   1.071564e+02
  -1.132063e+02   4.554131e+01
  -8.794578e+01  -6.668712e+01
  -9.567248e+00  -1.349277e+02
   5.713752e+01  -9.916924e+01
   7.176316e+01   4.601959e+00
   4.159103e+01   8.091301e+01
  -2.192431e+00   7.247505e+01
  -3.218144e+01   1.326562e+01
  -3.493433e+01  -2.116463e+01
  -1.651680e+01  -5.428422e+00
  -2.825759e+00   1.367779e+01
  -1.565536e+01  -1.129267e+01
  -3.917092e+01  -6.071479e+01
  -2.818028e+01  -7.409175e+01
   3.322560e+01  -3.082510e+01
   9.492072e+01   2.581375e+01
   8.869203e+01   4.756068e+01
   1.248192e+01   3.458644e+01
  -5.919932e+01   1.650177e+01
  -6.034554e+01   5.586463e+00
  -8.432646e+00  -5.718552e+00
   2.570437e+01  -1.553005e+01
   1.031997e+01  -1.169941e+01
  -1.372014e+01   1.636852e+00
   3.608410e+00   5.634940e+00
   4.995117e+01   1.339717e+00
   6.327330e+01   1.546959e+01
   8.333846e+00   5.536956e+01
  -7.900673e+01   7.997402e+01
  -1.275422e+02   4.255843e+01
  -9.953965e+01  -4.413731e+01
  -1.981028e+01  -1.107292e+02
   5.352857e+01  -1.042107e+02
   7.849559e+01  -4.199221e+01
   5.551980e+01   1.389034e+01
   1.752896e+01   2.455439e+01
  -1.231736e+00   6.737339e+00
   7.521671e+00   3.434460e+00
   2.253597e+01   3.162359e+01
   1.542669e+01   6.173033e+01
  -1.958834e+01   4.938283e+01
  -5.544992e+01  -1.159472e+01
  -5.416192e+01  -7.284607e+01
  -5.239975e+00  -7.684181e+01
   5.533394e+01  -1.826558e+01
   7.177283e+01   4.949957e+01
   2.393887e+01   7.085860e+01
  -4.497457e+01   3.998987e+01
  -6.821414e+01  -6.932387e+00
  -2.810020e+01  -3.568358e+01
   2.251507e+01  -3.721548e+01
   2.264428e+01  -1.957270e+01
  -2.223207e+01   1.492289e+00
  -4.739500e+01   5.421732e+00
  -1.089263e+01  -1.749305e+01
   5.378049e+01  -4.574305e+01
   7.963275e+01  -4.007617e+01
   4.490472e+01   8.634782e+00
  -9.967241e+00   5.740390e+01
  -3.664291e+01   5.530955e+01
  -2.666567e+01   5.100272e+00
  -2.318325e+00  -3.785361e+01
   1.712424e+01  -3.041967e+01
   2.527154e+01   1.109977e+01
   1.888142e+01   3.685608e+01
  -1.493454e+00   2.362815e+01
  -2.286110e+01  -5.100422e+00
  -2.763795e+01  -1.486436e+01
  -1.411454e+01  -1.192368e+00
   9.834980e-01   1.061683e+01
   4.466646e+00  -3.422935e-01
   2.593142e+00  -2.455441e+01
   8.789779e+00  -3.222295e+01
   2.144585e+01  -7.755605e+00
   2.283813e+01   2.926292e+01
   1.314858e+00   4.184199e+01
  -2.987172e+01   1.526431e+01
  -4.005377e+01  -2.568306e+01
  -1.119132e+01  -4.282996e+01
   3.775173e+01  -2.396193e+01
   6.176516e+01   9.450192e+00
   3.423793e+01   2.980003e+01
  -1.953098e+01   2.887813e+01
  -4.448785e+01   1.611567e+01
  -1.734155e+01   3.728600e+00
   2.427705e+01   2.874278e-01
   2.545920e+01   9.035088e+00
  -1.961525e+01   2.083292e+01
  -6.045085e+01   1.451264e+01
