
 $NMID
 id='ANONYMOUS ', fmtdat='(2E16.6)'
 volume=1.0
 tramp=1.0
 $END
   3.820609e+03  -4.709167e+00
   2.378231e+03   2.127277e+03
  -3.315522e+02   2.431997e+03
  -1.682476e+03   1.114618e+03
  -9.813263e+02  -1.984109e+02
   2.838666e+02  -3.930144e+02
   6.267234e+02   2.525776e+02
   3.313680e+01   8.060017e+02
  -6.355847e+02   6.921163e+02
  -8.004351e+02   6.818333e+00
  -4.542634e+02  -6.872553e+02
   1.075650e+02  -7.807919e+02
   4.688770e+02  -1.620963e+02
   3.213254e+02   5.660029e+02
  -1.877287e+02   6.544549e+02
  -5.109465e+02   4.386444e+01
  -2.958814e+02  -5.897539e+02
   2.207921e+02  -6.452024e+02
   5.356040e+02  -1.969180e+02
   4.289100e+02   2.631917e+02
   8.188935e+01   4.064757e+02
  -1.805485e+02   2.617398e+02
  -1.409131e+02   5.397506e+01
   1.495343e+02   1.411513e+01
   3.396063e+02   2.032116e+02
   8.582913e+01   3.977865e+02
  -4.708604e+02   2.827334e+02
  -7.299188e+02  -1.354328e+02
  -3.271269e+02  -4.551250e+02
   3.579892e+02  -3.398780e+02
   6.249758e+02   8.634013e+01
   2.684387e+02   4.245170e+02
  -2.750035e+02   4.362068e+02
  -5.153935e+02   1.666813e+02
  -3.739885e+02  -1.940689e+02
  -8.155374e+01  -3.948956e+02
   1.102902e+02  -2.382309e+02
   6.269957e+01   1.489101e+02
  -1.721553e+02   2.938247e+02
  -3.204525e+02  -8.206378e+01
  -1.266679e+02  -5.887413e+02
   2.841672e+02  -5.747395e+02
   4.660999e+02  -5.873957e+00
   1.932194e+02   4.332932e+02
  -2.181689e+02   2.309318e+02
  -2.789451e+02  -2.978881e+02
   9.153014e+01  -4.701651e+02
   5.036348e+02  -9.672407e+01
   5.455348e+02   3.941180e+02
   1.634924e+02   5.473613e+02
  -3.430030e+02   3.108414e+02
  -5.798376e+02  -6.865661e+01
  -3.646008e+02  -3.194594e+02
   9.631124e+01  -2.991910e+02
   3.682517e+02  -7.429904e+01
   2.361644e+02   1.091444e+02
  -5.054970e+01   6.650264e+01
  -9.755473e+01  -9.766517e+01
   1.296222e+02  -1.224804e+02
   2.894465e+02   5.885614e+01
   1.369454e+02   2.471782e+02
  -1.794905e+02   2.574789e+02
  -3.448050e+02   1.078783e+02
  -2.369449e+02  -9.526559e+01
   2.627714e+01  -2.801707e+02
   2.665026e+02  -3.508364e+02
   3.593608e+02  -1.893150e+02
   2.645700e+02   1.526894e+02
   6.448315e+01   4.013744e+02
  -7.384658e+01   3.561663e+02
  -7.088426e+01   1.486077e+02
  -3.234508e+01   5.190634e+01
  -9.595807e+01   1.021316e+02
  -2.270554e+02   8.971298e+01
  -2.613267e+02  -9.040179e+01
  -1.239032e+02  -2.669790e+02
   8.527157e+01  -2.254714e+02
   2.103628e+02   1.739284e+01
   1.658118e+02   2.458437e+02
  -3.112832e+01   2.740251e+02
  -2.589457e+02   8.831740e+01
  -3.366845e+02  -1.729149e+02
  -1.796895e+02  -3.280605e+02
   7.490078e+01  -2.898032e+02
   1.988472e+02  -1.415794e+02
   1.527755e+02  -4.559795e+01
   1.282573e+02  -5.249192e+01
   2.610045e+02  -4.908904e+01
   4.110520e+02   8.048587e+01
   3.289690e+02   2.969986e+02
  -1.616088e+01   4.455926e+02
  -3.779482e+02   4.078249e+02
  -4.901912e+02   1.870882e+02
  -3.135190e+02  -9.895722e+01
  -3.572523e+01  -2.745816e+02
   1.121858e+02  -2.265392e+02
   4.515813e+01  -3.517452e+01
  -1.150025e+02   7.209255e+01
  -1.628853e+02  -2.299763e+01
  -2.835298e+01  -1.691144e+02
   1.393302e+02  -1.381948e+02
   1.440238e+02   5.668822e+01
  -2.338562e+01   1.621232e+02
  -1.789738e+02   1.527935e+01
  -1.585943e+02  -2.448353e+02
   2.702448e+01  -3.503072e+02
   2.411613e+02  -2.025888e+02
   3.477366e+02   6.497552e+01
   2.807789e+02   2.565073e+02
   7.587615e+01   2.734886e+02
  -1.241847e+02   1.508735e+02
  -1.655847e+02   1.247829e+01
  -4.682379e+01  -2.268284e+01
   6.002993e+01   5.185459e+01
   1.114321e+01   1.204771e+02
  -1.260485e+02   8.240101e+01
  -1.636246e+02  -2.120021e+01
  -4.420043e+01  -6.406194e+01
   8.223709e+01  -2.082183e-01
   4.613984e+01   8.551852e+01
  -1.398093e+02   8.765792e+01
  -2.965641e+02  -1.422656e+01
  -2.622814e+02  -1.602200e+02
  -4.142463e+01  -2.628365e+02
   2.008793e+02  -2.483413e+02
   2.796574e+02  -1.104625e+02
   1.545877e+02   4.958142e+01
  -2.798522e+01   9.378582e+01
  -7.752766e+01   1.102576e+00
   4.476607e+01  -9.081639e+01
   1.925287e+02  -4.491451e+01
   2.018280e+02   1.054724e+02
   6.218103e+01   1.999701e+02
  -9.306169e+01   1.474828e+02
  -1.355761e+02   2.220971e+01
  -5.788062e+01  -3.931560e+01
   3.607230e+01   1.082532e+01
   3.153882e+01   9.931312e+01
  -8.747447e+01   1.167261e+02
  -2.079048e+02   1.898834e+01
  -1.881335e+02  -1.321845e+02
  -1.467403e+01  -2.157669e+02
   1.628372e+02  -1.581292e+02
   1.860701e+02  -8.402911e+00
   6.040284e+01   1.052958e+02
  -6.511942e+01   1.037767e+02
  -7.713837e+01   2.755264e+01
  -8.918342e+00  -2.558535e+01
   3.065749e+01  -1.306498e+01
  -9.623602e+00   1.809484e+01
  -8.192661e+01  -3.283556e+00
  -9.857723e+01  -8.908836e+01
  -1.208103e+01  -1.702953e+02
   1.378821e+02  -1.541945e+02
   2.393700e+02  -1.612426e+01
   1.982435e+02   1.576925e+02
   3.878325e+01   2.355739e+02
  -1.067473e+02   1.659799e+02
  -1.341364e+02   2.923357e+01
  -7.331134e+01  -5.021943e+01
  -3.191930e+01  -3.266646e+01
  -5.547191e+01   1.336734e+01
  -8.541730e+01   6.438602e+00
  -5.046833e+01  -5.511312e+01
   4.208270e+01  -9.947095e+01
   1.158211e+02  -6.263075e+01
   9.876615e+01   4.169698e+01
  -1.655247e+01   1.229666e+02
  -1.565895e+02   8.867960e+01
  -2.043651e+02  -6.101921e+01
  -9.182674e+01  -2.109785e+02
   1.192397e+02  -2.268879e+02
   2.709804e+02  -8.775382e+01
   2.527931e+02   9.057749e+01
   1.040716e+02   1.749353e+02
  -4.056032e+01   1.435410e+02
  -9.257458e+01   8.243189e+01
  -7.507371e+01   7.038472e+01
  -6.316992e+01   9.400773e+01
  -9.274157e+01   7.792802e+01
  -1.317797e+02  -2.059846e+01
  -1.193841e+02  -1.562661e+02
  -2.730449e+01  -2.285918e+02
   1.014559e+02  -1.705758e+02
   1.744854e+02  -1.485314e+01
   1.316515e+02   1.267866e+02
   1.303242e+01   1.595111e+02
  -7.306330e+01   8.633810e+01
  -6.215019e+01  -8.258559e+00
   4.600169e-01  -4.943262e+01
   2.016859e+01  -3.550053e+01
  -3.154081e+01  -1.483288e+01
  -8.323228e+01  -2.053825e+01
  -4.819006e+01  -4.006417e+01
   7.018292e+01  -3.871773e+01
   1.688690e+02   7.885062e-01
   1.451415e+02   5.963775e+01
   5.724456e+00   9.483621e+01
  -1.303862e+02   7.381470e+01
  -1.469689e+02   8.284863e+00
  -4.627419e+01  -4.699387e+01
   6.098844e+01  -4.143268e+01
   7.805621e+01   1.895695e+01
   1.414926e+01   7.253658e+01
  -5.104162e+01   6.331080e+01
  -6.727484e+01   3.365367e-01
  -5.254370e+01  -5.137706e+01
  -4.649232e+01  -4.347739e+01
  -5.855123e+01  -2.149741e+00
  -6.619326e+01  -1.118421e+00
  -4.075893e+01  -7.155051e+01
   3.028165e+01  -1.515404e+02
   1.236353e+02  -1.450728e+02
   1.758154e+02  -3.299300e+01
   1.286951e+02   9.481614e+01
   3.533927e+00   1.316739e+02
  -9.121624e+01   6.648484e+01
  -6.206566e+01  -1.280211e+01
   5.920419e+01  -2.048502e+01
   1.365851e+02   4.304932e+01
   7.317159e+01   1.079000e+02
  -8.349547e+01   1.111777e+02
  -1.916342e+02   4.714049e+01
  -1.602969e+02  -3.871525e+01
  -3.342559e+01  -8.658433e+01
   6.352782e+01  -6.526368e+01
   4.914251e+01  -2.258543e+00
  -4.008945e+01   2.954460e+01
  -9.281539e+01  -2.104272e+01
  -3.742657e+01  -1.181671e+02
   8.507143e+01  -1.569436e+02
   1.633639e+02  -6.802073e+01
   1.279637e+02   9.593397e+01
   1.404866e+01   1.962309e+02
  -8.424603e+01   1.432645e+02
  -1.050391e+02  -9.693415e+00
  -5.761617e+01  -1.203598e+02
   8.601980e+00  -1.050808e+02
   4.958716e+01  -1.696796e+01
   4.852576e+01   3.211319e+01
   2.087644e+01   7.894159e+00
   5.114714e+00  -1.894609e+01
   2.634916e+01   1.896360e+01
   5.724694e+01   9.029397e+01
   3.650076e+01   1.077159e+02
  -5.254408e+01   4.374255e+01
  -1.379240e+02  -3.861747e+01
  -1.267764e+02  -7.068973e+01
  -1.808559e+01  -5.221635e+01
   8.442211e+01  -2.455793e+01
   8.796144e+01  -6.514250e+00
   1.467480e+01   9.989225e+00
  -3.647320e+01   2.202766e+01
  -1.728615e+01   1.511718e+01
   1.778756e+01  -3.012773e+00
  -4.154855e+00  -7.088703e+00
  -7.049210e+01  -9.481068e-01
  -9.320988e+01  -2.275802e+01
  -1.629549e+01  -8.156473e+01
   1.129820e+02  -1.177576e+02
   1.887159e+02  -6.384549e+01
   1.495872e+02   6.273819e+01
   3.007729e+01   1.618000e+02
  -8.036991e+01   1.543292e+02
  -1.166569e+02   6.333603e+01
  -8.133494e+01  -2.021416e+01
  -2.603845e+01  -3.721183e+01
  -1.135996e-01  -1.140685e+01
  -1.236925e+01  -6.698777e+00
  -3.168104e+01  -4.802937e+01
  -2.007871e+01  -9.132801e+01
   2.942353e+01  -7.234991e+01
   8.027564e+01   1.643673e+01
   7.967945e+01   1.051504e+02
   1.040081e+01   1.121407e+02
  -7.865728e+01   2.913948e+01
  -1.057167e+02  -6.962880e+01
  -3.731913e+01  -1.040785e+02
   6.547655e+01  -6.140282e+01
   1.022779e+02   9.318527e+00
   4.335385e+01   5.534246e+01
  -3.393709e+01   5.801869e+01
  -3.668306e+01   2.898886e+01
   2.975499e+01  -3.823574e+00
   6.929897e+01  -8.244181e+00
   1.708458e+01   2.656346e+01
  -7.926190e+01   6.640381e+01
  -1.194770e+02   5.605928e+01
  -6.861382e+01  -1.491754e+01
   1.444017e+01  -8.494927e+01
   5.622216e+01  -8.228326e+01
   4.203571e+01  -9.909481e+00
   5.037712e+00   5.425504e+01
  -2.464183e+01   4.643413e+01
  -3.706409e+01  -1.367120e+01
  -2.809180e+01  -5.424264e+01
   1.591182e+00  -3.718378e+01
   3.358467e+01   6.449818e+00
   4.134877e+01   2.366634e+01
   2.086604e+01   3.259830e+00
  -2.546790e+00  -1.763615e+01
  -6.666129e+00  -3.648758e+00
  -3.855231e-01   3.422259e+01
  -7.642671e+00   4.989439e+01
  -2.948191e+01   1.620337e+01
  -3.694407e+01  -3.946666e+01
  -6.857922e+00  -6.085500e+01
   4.240793e+01  -2.395444e+01
   6.076522e+01   3.578804e+01
   1.786036e+01   6.197873e+01
  -5.641060e+01   3.564149e+01
  -9.224543e+01  -1.294526e+01
  -5.069011e+01  -4.380128e+01
   2.883198e+01  -4.400058e+01
   6.564403e+01  -2.573510e+01
   2.719661e+01  -6.150507e+00
  -3.242326e+01   1.225252e+00
  -3.568681e+01  -1.022747e+01
   2.639929e+01  -2.821908e+01
   8.431396e+01  -2.106288e+01
