
 $NMID
 id='ANONYMOUS ', fmtdat='(2E16.6)'
 volume=1.0
 tramp=1.0
 $END
   4.524423e+03   8.848676e+00
   2.614318e+03   2.777686e+03
  -8.405433e+02   2.890568e+03
  -2.272244e+03   8.644722e+02
  -9.898666e+02  -7.822308e+02
   7.366281e+02  -6.497652e+02
   9.686963e+02   4.714272e+02
  -1.239319e+01   1.143825e+03
  -8.908553e+02   8.153788e+02
  -9.923983e+02  -1.244701e+02
  -4.570609e+02  -9.254349e+02
   2.811572e+02  -9.373764e+02
   6.909737e+02  -1.113917e+02
   4.052342e+02   7.665664e+02
  -2.977025e+02   7.868027e+02
  -6.447805e+02  -2.002486e+01
  -2.693508e+02  -7.228780e+02
   3.646875e+02  -6.496691e+02
   6.176237e+02  -6.618449e+01
   3.892884e+02   3.883176e+02
  -1.102739e+00   4.584233e+02
  -2.633455e+02   2.705904e+02
  -2.345282e+02   1.351079e+01
   1.007487e+02  -1.012864e+02
   4.164488e+02   9.841838e+01
   2.197063e+02   4.378934e+02
  -4.609187e+02   4.352668e+02
  -8.808490e+02  -6.879213e+01
  -4.581432e+02  -5.755073e+02
   4.013679e+02  -5.175558e+02
   7.776878e+02   2.776697e+01
   3.663080e+02   5.012360e+02
  -2.902821e+02   5.400198e+02
  -5.875609e+02   2.078663e+02
  -4.325803e+02  -2.421212e+02
  -7.002574e+01  -5.024211e+02
   2.205243e+02  -3.049559e+02
   1.996261e+02   2.267691e+02
  -1.600948e+02   4.703787e+02
  -4.728638e+02  -1.306800e+00
  -2.706471e+02  -7.058082e+02
   3.310356e+02  -7.404919e+02
   6.452365e+02  -8.413512e+00
   2.820435e+02   5.873388e+02
  -3.080652e+02   3.470882e+02
  -4.120955e+02  -3.303512e+02
   6.483846e+01  -5.697271e+02
   5.738014e+02  -1.436820e+02
   6.104249e+02   4.213859e+02
   1.640725e+02   6.068686e+02
  -3.992970e+02   3.581589e+02
  -6.507336e+02  -8.146932e+01
  -3.846376e+02  -4.099521e+02
   1.672449e+02  -3.897373e+02
   4.707615e+02  -5.443185e+01
   2.547650e+02   2.216238e+02
  -1.323105e+02   1.241625e+02
  -1.610316e+02  -1.658379e+02
   1.708795e+02  -2.066333e+02
   3.677664e+02   7.733521e+01
   1.469779e+02   3.189645e+02
  -2.180245e+02   2.639719e+02
  -3.396640e+02   5.872901e+01
  -1.869865e+02  -9.334929e+01
   3.687808e+01  -2.124932e+02
   2.206838e+02  -3.139973e+02
   3.358909e+02  -2.206002e+02
   2.980150e+02   1.346344e+02
   8.276312e+01   4.497654e+02
  -1.280537e+02   4.012162e+02
  -1.410126e+02   1.116608e+02
  -3.170259e+01  -2.738210e+01
  -3.374133e+01   7.718868e+01
  -1.859309e+02   1.351197e+02
  -2.816390e+02  -4.461535e+01
  -1.682705e+02  -2.723040e+02
   6.778723e+01  -2.662539e+02
   2.320575e+02  -1.782981e+01
   2.055486e+02   2.411590e+02
  -5.740629e+00   3.016658e+02
  -2.696798e+02   1.235687e+02
  -3.695130e+02  -1.691538e+02
  -1.904489e+02  -3.630860e+02
   1.078285e+02  -3.178311e+02
   2.414062e+02  -1.193437e+02
   1.580645e+02   6.486057e+00
   9.604305e+01  -2.572656e+01
   2.278022e+02  -6.272750e+01
   3.980044e+02   5.806500e+01
   3.311129e+02   2.880040e+02
  -4.314859e+00   4.441378e+02
  -3.627547e+02   4.114079e+02
  -4.929605e+02   2.001418e+02
  -3.439542e+02  -9.376296e+01
  -5.920357e+01  -3.010175e+02
   1.359883e+02  -2.639772e+02
   9.360700e+01  -3.249701e+01
  -1.068920e+02   1.166787e+02
  -2.060869e+02   4.255088e-01
  -5.824242e+01  -2.042375e+02
   1.676597e+02  -1.848164e+02
   1.914580e+02   6.022235e+01
  -1.427550e+01   2.035061e+02
  -1.997817e+02   3.777939e+01
  -1.643936e+02  -2.531707e+02
   3.791610e+01  -3.530635e+02
   2.340123e+02  -1.870314e+02
   3.215809e+02   7.031512e+01
   2.729415e+02   2.395111e+02
   9.583760e+01   2.616757e+02
  -1.123441e+02   1.616590e+02
  -1.823118e+02   2.287148e+01
  -6.391518e+01  -3.461379e+01
   7.117145e+01   3.495231e+01
   3.418247e+01   1.260148e+02
  -1.239608e+02   1.043350e+02
  -1.840577e+02  -1.063587e+01
  -6.340004e+01  -7.503158e+01
   7.833937e+01  -2.027226e+01
   5.585024e+01   6.955056e+01
  -1.205319e+02   8.306311e+01
  -2.769693e+02  -2.182186e+00
  -2.602833e+02  -1.378687e+02
  -6.174417e+01  -2.523280e+02
   1.822090e+02  -2.622275e+02
   2.869492e+02  -1.295531e+02
   1.766081e+02   5.272634e+01
  -2.284093e+01   1.152930e+02
  -9.556899e+01   1.150252e+01
   2.893411e+01  -1.040384e+02
   1.975281e+02  -6.283725e+01
   2.178265e+02   1.034857e+02
   7.110251e+01   2.126733e+02
  -9.632082e+01   1.623623e+02
  -1.479171e+02   3.103990e+01
  -7.537120e+01  -4.202580e+01
   2.347910e+01  -6.282743e+00
   3.642750e+01   7.766307e+01
  -6.819015e+01   1.089537e+02
  -1.942399e+02   2.877375e+01
  -1.911299e+02  -1.224822e+02
  -2.170417e+01  -2.196931e+02
   1.676800e+02  -1.661127e+02
   1.992941e+02  -4.663270e+00
   6.778162e+01   1.191890e+02
  -6.826838e+01   1.151423e+02
  -8.643992e+01   3.197535e+01
  -2.180251e+01  -2.544995e+01
   1.809779e+01  -1.928207e+01
  -1.107547e+01   4.499924e+00
  -6.758228e+01  -1.262036e+01
  -8.280149e+01  -8.164028e+01
  -1.281615e+01  -1.537873e+02
   1.239604e+02  -1.489161e+02
   2.308745e+02  -2.604304e+01
   2.010381e+02   1.492362e+02
   4.100389e+01   2.389844e+02
  -1.117463e+02   1.714391e+02
  -1.380902e+02   2.548617e+01
  -7.021386e+01  -5.904875e+01
  -2.758989e+01  -3.795626e+01
  -5.311786e+01   1.088445e+01
  -7.805516e+01   4.765873e+00
  -3.775277e+01  -4.941200e+01
   4.475018e+01  -8.343336e+01
   9.929878e+01  -4.996121e+01
   7.975089e+01   3.572535e+01
  -1.497291e+01   1.053454e+02
  -1.374736e+02   8.165118e+01
  -1.927710e+02  -5.009176e+01
  -1.004425e+02  -1.979552e+02
   1.037771e+02  -2.268395e+02
   2.659629e+02  -9.627861e+01
   2.586360e+02   8.650698e+01
   1.105243e+02   1.785563e+02
  -3.941286e+01   1.485763e+02
  -9.640944e+01   8.430389e+01
  -8.204244e+01   6.898466e+01
  -6.962255e+01   8.963982e+01
  -9.367257e+01   7.173422e+01
  -1.269586e+02  -2.450672e+01
  -1.149388e+02  -1.549900e+02
  -2.750375e+01  -2.254922e+02
   9.963896e+01  -1.715971e+02
   1.757276e+02  -2.072115e+01
   1.362991e+02   1.212662e+02
   1.951455e+01   1.595110e+02
  -6.593221e+01   9.309180e+01
  -5.861120e+01   2.629894e+00
  -5.344847e+00  -3.997668e+01
   7.898982e+00  -3.306967e+01
  -3.775716e+01  -1.931236e+01
  -7.777623e+01  -2.488136e+01
  -4.282908e+01  -3.851148e+01
   6.220532e+01  -3.471525e+01
   1.536615e+02  -9.487446e-01
   1.407622e+02   5.052766e+01
   1.659321e+01   8.552882e+01
  -1.181209e+02   7.142542e+01
  -1.439493e+02   1.308781e+01
  -4.795460e+01  -3.932029e+01
   6.064224e+01  -3.533804e+01
   7.482267e+01   2.011810e+01
   4.472612e+00   6.770446e+01
  -5.829996e+01   5.588595e+01
  -6.216578e+01  -4.001190e+00
  -4.067754e+01  -5.096772e+01
  -4.168566e+01  -4.214764e+01
  -6.198563e+01  -2.878924e+00
  -6.588156e+01  -1.372467e+00
  -3.212505e+01  -6.723700e+01
   3.594350e+01  -1.430962e+02
   1.158445e+02  -1.371400e+02
   1.603487e+02  -2.985136e+01
   1.195077e+02   9.166784e+01
   5.338630e+00   1.237055e+02
  -8.530932e+01   5.813796e+01
  -5.907486e+01  -1.655083e+01
   5.914473e+01  -1.910575e+01
   1.367438e+02   4.501918e+01
   7.512395e+01   1.074099e+02
  -8.071724e+01   1.110831e+02
  -1.902356e+02   5.089362e+01
  -1.619716e+02  -3.388794e+01
  -3.737466e+01  -8.650812e+01
   6.028109e+01  -7.055539e+01
   4.847016e+01  -8.306253e+00
  -3.872462e+01   2.539909e+01
  -8.935064e+01  -2.412876e+01
  -3.012220e+01  -1.191053e+02
   9.493906e+01  -1.522822e+02
   1.691843e+02  -5.875878e+01
   1.250118e+02   1.030890e+02
   6.918188e+00   1.975668e+02
  -8.719626e+01   1.429593e+02
  -1.037075e+02  -7.038384e+00
  -5.973803e+01  -1.171711e+02
   7.981956e-01  -1.058966e+02
   4.445455e+01  -2.024032e+01
   5.245941e+01   3.110996e+01
   2.738960e+01   8.652411e+00
   3.657838e+00  -2.085988e+01
   1.815451e+01   1.457148e+01
   5.371366e+01   8.844680e+01
   4.242123e+01   1.095282e+02
  -4.530538e+01   4.438404e+01
  -1.374150e+02  -4.134308e+01
  -1.295413e+02  -7.220515e+01
  -1.646268e+01  -4.899334e+01
   8.921718e+01  -2.050840e+01
   8.813892e+01  -6.878616e+00
   9.242485e+00   6.992830e+00
  -3.934118e+01   2.203199e+01
  -1.303194e+01   1.860983e+01
   2.258843e+01  -1.060389e+00
  -6.256547e+00  -9.619176e+00
  -7.535471e+01  -5.556146e+00
  -9.027411e+01  -2.558519e+01
  -4.594217e+00  -8.028960e+01
   1.217077e+02  -1.112083e+02
   1.849031e+02  -5.331029e+01
   1.377491e+02   7.138274e+01
   2.181222e+01   1.619325e+02
  -8.078136e+01   1.462482e+02
  -1.140709e+02   5.466728e+01
  -7.971454e+01  -2.313704e+01
  -2.367323e+01  -3.508984e+01
   4.352671e+00  -8.038876e+00
  -9.132619e+00  -3.536699e+00
  -3.245097e+01  -4.500300e+01
  -2.196889e+01  -8.911193e+01
   3.010357e+01  -7.049105e+01
   8.082606e+01   2.023784e+01
   7.438612e+01   1.100969e+02
   5.740465e-01   1.121736e+02
  -8.390140e+01   2.101591e+01
  -1.008848e+02  -7.868172e+01
  -2.847778e+01  -1.036603e+02
   6.778391e+01  -5.244916e+01
   9.584612e+01   1.459506e+01
   3.628107e+01   4.976949e+01
  -3.359655e+01   4.876920e+01
  -2.986937e+01   2.669337e+01
   3.551699e+01   7.208073e-01
   6.909784e+01  -5.074756e+00
   1.357032e+01   2.489055e+01
  -7.970676e+01   6.415643e+01
  -1.141455e+02   5.682481e+01
  -6.132699e+01  -1.237889e+01
   1.761453e+01  -8.168474e+01
   5.311880e+01  -7.671695e+01
   3.563746e+01  -3.150751e+00
  -3.971504e-01   5.636935e+01
  -2.694878e+01   4.109251e+01
  -3.608890e+01  -2.030219e+01
  -2.495517e+01  -5.409903e+01
   4.154158e+00  -3.127882e+01
   3.278740e+01   9.723002e+00
   3.822720e+01   2.086121e+01
   2.011350e+01   7.577113e-01
   4.499512e-01  -1.312627e+01
  -6.188825e+00   4.937113e+00
  -8.801187e+00   3.753879e+01
  -2.039693e+01   4.339819e+01
  -3.383535e+01   4.748191e+00
  -2.777694e+01  -4.753754e+01
   5.793294e+00  -6.136974e+01
   4.564606e+01  -1.882898e+01
   5.441604e+01   4.142114e+01
   1.238111e+01   6.354047e+01
  -5.469830e+01   3.211491e+01
  -8.703570e+01  -1.795663e+01
  -4.745422e+01  -4.479137e+01
   2.960029e+01  -3.890700e+01
   6.482840e+01  -1.863653e+01
   2.332102e+01  -3.661782e+00
  -3.875699e+01  -3.401712e+00
  -3.834517e+01  -1.772903e+01
   3.203261e+01  -3.184965e+01
   9.309277e+01  -1.829244e+01
