
 $NMID
 id='ANONYMOUS ', fmtdat='(2E16.6)'
 volume=1.0
 tramp=1.0
 $END
  -4.683842e+03   3.509647e+01
  -2.702915e+03  -2.849133e+03
   8.680157e+02  -2.967004e+03
   2.324582e+03  -8.697980e+02
   9.800718e+02   8.179543e+02
  -7.936315e+02   6.593563e+02
  -1.007227e+03  -5.060882e+02
   1.921117e+01  -1.191312e+03
   9.219033e+02  -8.421149e+02
   1.021008e+03   1.300666e+02
   4.691290e+02   9.537570e+02
  -2.915883e+02   9.621157e+02
  -7.158322e+02   1.069925e+02
  -4.211219e+02  -7.971618e+02
   3.056585e+02  -8.124471e+02
   6.644872e+02   2.153787e+01
   2.795518e+02   7.408896e+02
  -3.681025e+02   6.617165e+02
  -6.248432e+02   6.642935e+01
  -3.941744e+02  -3.933116e+02
   3.929637e-01  -4.657030e+02
   2.697431e+02  -2.766804e+02
   2.426385e+02  -8.145853e+00
  -1.081795e+02   1.186119e+02
  -4.441492e+02  -9.073558e+01
  -2.412165e+02  -4.585768e+02
   4.752564e+02  -4.686141e+02
   9.208858e+02   5.850075e+01
   4.813161e+02   5.989826e+02
  -4.181602e+02   5.482638e+02
  -8.135265e+02  -1.968071e+01
  -3.871816e+02  -5.190674e+02
   2.950067e+02  -5.661766e+02
   6.058442e+02  -2.234758e+02
   4.487820e+02   2.462954e+02
   7.327356e+01   5.194544e+02
  -2.322411e+02   3.122380e+02
  -2.121952e+02  -2.455225e+02
   1.681625e+02  -4.990904e+02
   5.024967e+02  -1.537719e+00
   2.935108e+02   7.380793e+02
  -3.397702e+02   7.739088e+02
  -6.734895e+02   7.924078e+00
  -2.951360e+02  -6.137738e+02
   3.241396e+02  -3.627908e+02
   4.364371e+02   3.430779e+02
  -5.998145e+01   5.947291e+02
  -5.937063e+02   1.579333e+02
  -6.377832e+02  -4.248658e+02
  -1.774825e+02  -6.220790e+02
   4.087164e+02  -3.748103e+02
   6.725550e+02   7.507224e+01
   3.971895e+02   4.187809e+02
  -1.751107e+02   4.030907e+02
  -4.862732e+02   5.641869e+01
  -2.573528e+02  -2.302833e+02
   1.434672e+02  -1.268129e+02
   1.670722e+02   1.765491e+02
  -1.806964e+02   2.178297e+02
  -3.824133e+02  -7.880719e+01
  -1.524442e+02  -3.291255e+02
   2.202351e+02  -2.727349e+02
   3.417924e+02  -6.561977e+01
   1.907136e+02   8.635549e+01
  -2.706111e+01   2.131177e+02
  -2.120063e+02   3.289534e+02
  -3.401914e+02   2.385842e+02
  -3.126653e+02  -1.325990e+02
  -9.254629e+01  -4.639305e+02
   1.293120e+02  -4.123664e+02
   1.431330e+02  -1.088771e+02
   2.576734e+01   3.260657e+01
   2.617057e+01  -8.401125e+01
   1.886908e+02  -1.499105e+02
   2.953665e+02   3.763885e+01
   1.816176e+02   2.794604e+02
  -6.557927e+01   2.789272e+02
  -2.421412e+02   2.430928e+01
  -2.196793e+02  -2.455225e+02
  -6.309423e-01  -3.135504e+02
   2.773824e+02  -1.346185e+02
   3.854201e+02   1.671471e+02
   2.015313e+02   3.708620e+02
  -1.075958e+02   3.272287e+02
  -2.453360e+02   1.227521e+02
  -1.576925e+02  -6.814306e+00
  -9.314457e+01   2.988128e+01
  -2.309631e+02   7.384751e+01
  -4.105326e+02  -4.707791e+01
  -3.473662e+02  -2.866964e+02
  -7.345251e+00  -4.563107e+02
   3.610652e+02  -4.321571e+02
   5.017629e+02  -2.177779e+02
   3.573566e+02   9.018168e+01
   6.716003e+01   3.110437e+02
  -1.380241e+02   2.742030e+02
  -9.818333e+01   3.091701e+01
   1.102938e+02  -1.259670e+02
   2.163120e+02  -3.044608e+00
   6.344441e+01   2.130585e+02
  -1.735732e+02   1.940448e+02
  -2.005855e+02  -6.169100e+01
   1.288733e+01  -2.125753e+02
   2.073353e+02  -4.318879e+01
   1.742842e+02   2.565739e+02
  -3.124574e+01   3.619639e+02
  -2.333569e+02   1.970065e+02
  -3.290415e+02  -6.216356e+01
  -2.866277e+02  -2.369459e+02
  -1.070547e+02  -2.669094e+02
   1.113990e+02  -1.702557e+02
   1.883947e+02  -2.704096e+01
   6.640465e+01   3.631089e+01
  -7.611932e+01  -3.397490e+01
  -3.915549e+01  -1.308326e+02
   1.263975e+02  -1.116381e+02
   1.912682e+02   7.590761e+00
   6.709424e+01   7.787873e+01
  -8.139289e+01   2.440903e+01
  -6.107632e+01  -6.973964e+01
   1.197776e+02  -8.954753e+01
   2.837129e+02  -7.149740e+00
   2.720679e+02   1.332574e+02
   7.178705e+01   2.582818e+02
  -1.803772e+02   2.758772e+02
  -2.932050e+02   1.403968e+02
  -1.834962e+02  -5.198823e+01
   2.224370e+01  -1.206579e+02
   9.985711e+01  -1.315219e+01
  -2.727070e+01   1.097004e+02
  -2.029186e+02   6.997120e+01
  -2.270469e+02  -1.021015e+02
  -7.748749e+01  -2.179276e+02
   9.636233e+01  -1.694637e+02
   1.525015e+02  -3.487488e+01
   7.920866e+01   4.304023e+01
  -2.464316e+01   9.338810e+00
  -4.156720e+01  -7.769581e+01
   6.520514e+01  -1.145923e+02
   1.983596e+02  -3.615708e+01
   1.999820e+02   1.204941e+02
   2.771464e+01   2.255565e+02
  -1.688765e+02   1.744333e+02
  -2.046967e+02   8.159773e+00
  -7.158946e+01  -1.221322e+02
   6.842902e+01  -1.201549e+02
   8.885485e+01  -3.431755e+01
   2.385233e+01   2.673764e+01
  -1.780353e+01   2.178951e+01
   1.008002e+01  -3.826001e+00
   6.773641e+01   1.059025e+01
   8.647666e+01   7.968862e+01
   1.846546e+01   1.562564e+02
  -1.219855e+02   1.565825e+02
  -2.363365e+02   3.378149e+01
  -2.106603e+02  -1.477390e+02
  -4.768749e+01  -2.443773e+02
   1.111956e+02  -1.783430e+02
   1.408307e+02  -2.886796e+01
   7.237509e+01   5.911959e+01
   2.841916e+01   3.818668e+01
   5.378647e+01  -1.250081e+01
   7.923004e+01  -7.356953e+00
   3.956496e+01   4.815773e+01
  -4.252521e+01   8.526937e+01
  -9.826077e+01   5.430024e+01
  -8.187400e+01  -3.250365e+01
   1.103690e+01  -1.072877e+02
   1.369613e+02  -8.833359e+01
   1.990234e+02   4.482416e+01
   1.095637e+02   2.003550e+02
  -9.977946e+01   2.364530e+02
  -2.706933e+02   1.062061e+02
  -2.679641e+02  -8.262192e+01
  -1.177343e+02  -1.811546e+02
   3.716115e+01  -1.536876e+02
   9.718984e+01  -8.852706e+01
   8.274749e+01  -7.196346e+01
   6.920435e+01  -9.267718e+01
   9.374679e+01  -7.529983e+01
   1.300310e+02   2.183975e+01
   1.213994e+02   1.555513e+02
   3.398835e+01   2.302493e+02
  -9.790933e+01   1.785406e+02
  -1.802297e+02   2.580507e+01
  -1.434794e+02  -1.210213e+02
  -2.432977e+01  -1.636111e+02
   6.544797e+01  -9.813820e+01
   6.077708e+01  -5.190725e+00
   7.722814e+00   4.073968e+01
  -6.232431e+00   3.505892e+01
   3.917517e+01   1.975283e+01
   7.954875e+01   2.339361e+01
   4.461600e+01   3.782470e+01
  -6.199725e+01   3.756533e+01
  -1.565979e+02   6.246622e+00
  -1.460497e+02  -4.733104e+01
  -2.069172e+01  -8.763219e+01
   1.182700e+02  -7.706057e+01
   1.474580e+02  -1.752948e+01
   5.093363e+01   3.876646e+01
  -6.070341e+01   3.731634e+01
  -7.685104e+01  -1.857397e+01
  -6.026925e+00  -6.805813e+01
   5.819391e+01  -5.752414e+01
   6.306416e+01   2.405528e+00
   4.216762e+01   5.011835e+01
   4.354964e+01   4.164585e+01
   6.376577e+01   1.806992e+00
   6.751216e+01  -2.114468e-01
   3.437969e+01   6.703656e+01
  -3.295109e+01   1.464415e+02
  -1.141240e+02   1.435668e+02
  -1.622771e+02   3.572589e+01
  -1.243902e+02  -8.997320e+01
  -9.349038e+00  -1.262852e+02
   8.484356e+01  -6.164868e+01
   6.040040e+01   1.549970e+01
  -6.002091e+01   2.093607e+01
  -1.410774e+02  -4.295498e+01
  -7.979293e+01  -1.084025e+02
   7.982305e+01  -1.160707e+02
   1.939884e+02  -5.718466e+01
   1.673953e+02   3.061096e+01
   4.069022e+01   8.811350e+01
  -6.033334e+01   7.444321e+01
  -4.999053e+01   1.016741e+01
   3.859356e+01  -2.682181e+01
   9.164475e+01   2.243939e+01
   3.319501e+01   1.207255e+02
  -9.382859e+01   1.571615e+02
  -1.715037e+02   6.318112e+01
  -1.297775e+02  -1.028212e+02
  -1.130086e+01  -2.017512e+02
   8.605504e+01  -1.483539e+02
   1.066195e+02   4.381598e+00
   6.452322e+01   1.186150e+02
   2.217452e+00   1.093337e+02
  -4.502425e+01   2.252627e+01
  -5.488496e+01  -3.090269e+01
  -2.865437e+01  -8.855290e+00
  -3.318987e+00   2.173368e+01
  -1.881388e+01  -1.343463e+01
  -5.714063e+01  -8.888848e+01
  -4.638245e+01  -1.118950e+02
   4.492094e+01  -4.730929e+01
   1.415605e+02   3.916025e+01
   1.345772e+02   7.120484e+01
   1.825633e+01   4.944395e+01
  -9.089014e+01   2.247598e+01
  -9.021348e+01   9.207449e+00
  -9.552832e+00  -6.235080e+00
   3.997917e+01  -2.327479e+01
   1.293829e+01  -2.002246e+01
  -2.326995e+01   1.060258e+00
   6.554927e+00   1.007268e+01
   7.727057e+01   4.620261e+00
   9.268661e+01   2.394108e+01
   5.991487e+00   8.100739e+01
  -1.220134e+02   1.156947e+02
  -1.869761e+02   5.878675e+01
  -1.413187e+02  -6.929147e+01
  -2.573180e+01  -1.646789e+02
   7.850724e+01  -1.512766e+02
   1.146018e+02  -5.846319e+01
   8.188448e+01   2.181781e+01
   2.515517e+01   3.502398e+01
  -4.255690e+00   7.703053e+00
   9.520150e+00   2.887791e+00
   3.468973e+01   4.519944e+01
   2.502280e+01   9.082196e+01
  -2.900872e+01   7.279274e+01
  -8.301875e+01  -1.908001e+01
  -7.810714e+01  -1.108714e+02
  -2.654408e+00  -1.140465e+02
   8.508232e+01  -2.254873e+01
   1.041508e+02   7.834835e+01
   3.115455e+01   1.047013e+02
  -6.752069e+01   5.458825e+01
  -9.766547e+01  -1.238319e+01
  -3.843593e+01  -4.909174e+01
   3.236418e+01  -5.020835e+01
   2.928820e+01  -2.856289e+01
  -3.638903e+01  -7.148701e-01
  -7.038865e+01   6.689894e+00
  -1.443228e+01  -2.474079e+01
   7.995057e+01  -6.750523e+01
   1.153140e+02  -6.157031e+01
   6.289851e+01   1.034447e+01
  -1.597429e+01   8.363436e+01
  -5.184558e+01   7.983437e+01
  -3.538854e+01   4.233169e+00
  -4.030647e-01  -5.742335e+01
   2.627962e+01  -4.219776e+01
   3.680256e+01   2.028724e+01
   2.669691e+01   5.453823e+01
  -3.121374e+00   3.152176e+01
  -3.348412e+01  -9.313799e+00
  -3.973694e+01  -1.996946e+01
  -2.081414e+01  -4.678518e-02
   7.379800e-02   1.288088e+01
   6.986159e+00  -5.837303e+00
   8.983031e+00  -3.813361e+01
   2.010944e+01  -4.335448e+01
   3.379606e+01  -4.511520e+00
   2.825879e+01   4.774227e+01
  -5.346528e+00   6.190260e+01
  -4.606888e+01   1.976365e+01
  -5.582959e+01  -4.091983e+01
  -1.372284e+01  -6.442002e+01
   5.483537e+01  -3.416866e+01
   8.882487e+01   1.613866e+01
   4.941787e+01   4.451766e+01
  -2.896919e+01   4.018186e+01
  -6.527626e+01   2.027615e+01
  -2.331951e+01   4.512229e+00
   3.980624e+01   3.442173e+00
   3.921793e+01   1.799076e+01
  -3.277265e+01   3.314838e+01
  -9.530495e+01   2.001673e+01
