
 $NMID
 id='ANONYMOUS ', fmtdat='(2E16.6)'
 volume=1.0
 tramp=1.0
 $END
   1.877089e+03   4.787510e+00
   1.146312e+03   1.026610e+03
  -1.588012e+02   1.154513e+03
  -7.822071e+02   5.296034e+02
  -4.366547e+02  -7.189405e+01
   1.480733e+02  -1.525884e+02
   2.871400e+02   1.419682e+02
  -1.164862e+00   3.875101e+02
  -3.103969e+02   3.267049e+02
  -3.806393e+02   7.171885e-01
  -2.137493e+02  -3.290315e+02
   5.215574e+01  -3.695505e+02
   2.205961e+02  -6.835284e+01
   1.476722e+02   2.789949e+02
  -9.296429e+01   3.143532e+02
  -2.439400e+02   1.858891e+01
  -1.439078e+02  -2.826950e+02
   9.723980e+01  -3.100195e+02
   2.490552e+02  -1.009533e+02
   2.060827e+02   1.178696e+02
   4.369613e+01   1.916849e+02
  -8.464089e+01   1.247447e+02
  -6.335825e+01   2.128945e+01
   8.578635e+01   2.967135e+00
   1.790473e+02   1.049883e+02
   4.180436e+01   2.070860e+02
  -2.432109e+02   1.445696e+02
  -3.664708e+02  -7.150329e+01
  -1.550989e+02  -2.299522e+02
   1.875098e+02  -1.658956e+02
   3.129671e+02   4.868499e+01
   1.302172e+02   2.136198e+02
  -1.389408e+02   2.165888e+02
  -2.551583e+02   8.276396e+01
  -1.826127e+02  -9.494122e+01
  -3.678582e+01  -1.911512e+02
   5.475736e+01  -1.083197e+02
   2.323631e+01   8.349653e+01
  -9.718595e+01   1.453597e+02
  -1.639525e+02  -5.148121e+01
  -5.769680e+01  -3.003575e+02
   1.463313e+02  -2.811872e+02
   2.272404e+02   6.438494e+00
   8.630373e+01   2.165515e+02
  -1.132345e+02   1.070184e+02
  -1.367755e+02  -1.548445e+02
   4.803861e+01  -2.346072e+02
   2.509160e+02  -4.796645e+01
   2.723055e+02   1.926225e+02
   8.368488e+01   2.676788e+02
  -1.684965e+02   1.529960e+02
  -2.857172e+02  -3.164667e+01
  -1.768263e+02  -1.528318e+02
   4.994547e+01  -1.413428e+02
   1.774103e+02  -3.343494e+01
   1.081379e+02   4.984185e+01
  -2.746792e+01   2.508005e+01
  -4.225566e+01  -5.119199e+01
   6.912187e+01  -5.704362e+01
   1.409519e+02   3.157844e+01
   6.482219e+01   1.198440e+02
  -8.494286e+01   1.266501e+02
  -1.650370e+02   6.006515e+01
  -1.201224e+02  -3.930728e+01
   2.607446e+00  -1.398056e+02
   1.246728e+02  -1.827427e+02
   1.786997e+02  -1.005213e+02
   1.342683e+02   7.522565e+01
   3.307970e+01   1.985974e+02
  -3.425330e+01   1.717649e+02
  -2.809476e+01   6.920998e+01
  -8.157559e+00   2.800966e+01
  -4.520194e+01   5.817643e+01
  -1.162313e+02   5.048942e+01
  -1.345334e+02  -4.382718e+01
  -6.386693e+01  -1.344038e+02
   4.302543e+01  -1.136878e+02
   1.072219e+02   8.272969e+00
   8.533454e+01   1.231182e+02
  -1.446851e+01   1.379649e+02
  -1.300029e+02   4.582390e+01
  -1.690397e+02  -8.382615e+01
  -9.048380e+01  -1.601887e+02
   3.468482e+01  -1.411730e+02
   9.356061e+01  -6.975267e+01
   7.026378e+01  -2.551053e+01
   6.111330e+01  -3.138395e+01
   1.306223e+02  -3.083649e+01
   2.072422e+02   3.320635e+01
   1.681773e+02   1.428037e+02
  -1.624332e+00   2.222167e+02
  -1.820437e+02   2.089764e+02
  -2.413673e+02   9.937314e+01
  -1.566565e+02  -4.732007e+01
  -1.882978e+01  -1.371178e+02
   5.514005e+01  -1.109712e+02
   2.056144e+01  -1.379830e+01
  -6.014186e+01   3.716487e+01
  -8.223345e+01  -1.341979e+01
  -1.271008e+01  -8.532993e+01
   7.061393e+01  -6.696571e+01
   7.085862e+01   3.018245e+01
  -1.314404e+01   8.061416e+01
  -9.005961e+01   7.824053e+00
  -8.131943e+01  -1.193845e+02
   8.280412e+00  -1.730042e+02
   1.153405e+02  -1.049377e+02
   1.734219e+02   2.465269e+01
   1.446368e+02   1.227155e+02
   4.223443e+01   1.365159e+02
  -6.058358e+01   7.743220e+01
  -8.246464e+01   6.873740e+00
  -2.209261e+01  -1.183325e+01
   3.179005e+01   2.620143e+01
   6.279679e+00   6.150820e+01
  -6.329652e+01   4.239425e+01
  -8.191925e+01  -1.018664e+01
  -2.143736e+01  -3.259428e+01
   4.265284e+01  -1.214077e+00
   2.534454e+01   4.294267e+01
  -6.803406e+01   4.733244e+01
  -1.487320e+02  -1.218020e+00
  -1.344120e+02  -7.589914e+01
  -2.487560e+01  -1.317429e+02
   9.760546e+01  -1.274152e+02
   1.385684e+02  -5.777026e+01
   7.658672e+01   2.422797e+01
  -1.454852e+01   4.688785e+01
  -3.895227e+01  -1.715104e-01
   2.240085e+01  -4.680526e+01
   9.628236e+01  -2.423535e+01
   1.014158e+02   5.081409e+01
   3.240895e+01   9.873913e+01
  -4.524055e+01   7.384788e+01
  -6.740306e+01   1.168771e+01
  -2.863730e+01  -2.015573e+01
   1.985596e+01   4.083259e+00
   1.892586e+01   4.968593e+01
  -4.138064e+01   6.104695e+01
  -1.039633e+02   1.346659e+01
  -9.599867e+01  -6.325650e+01
  -9.921592e+00  -1.072880e+02
   7.901782e+01  -8.015556e+01
   9.148513e+01  -5.779891e+00
   3.006981e+01   5.166957e+01
  -3.171502e+01   5.186129e+01
  -3.802760e+01   1.385210e+01
  -4.523122e+00  -1.371414e+01
   1.584214e+01  -7.917269e+00
  -3.251100e+00   9.279694e+00
  -4.013611e+01   1.066567e+00
  -5.118604e+01  -4.146525e+01
  -9.947811e+00  -8.466980e+01
   6.592602e+01  -7.982019e+01
   1.195007e+02  -1.203917e+01
   1.012757e+02   7.570745e+01
   2.231480e+01   1.163326e+02
  -5.086845e+01   8.326845e+01
  -6.564037e+01   1.618012e+01
  -3.634956e+01  -2.334854e+01
  -1.592007e+01  -1.522007e+01
  -2.713084e+01   7.704056e+00
  -4.225959e+01   5.139967e+00
  -2.661667e+01  -2.556386e+01
   1.790458e+01  -5.003757e+01
   5.572205e+01  -3.450578e+01
   5.052521e+01   1.764639e+01
  -4.856693e+00   6.172800e+01
  -7.611472e+01   4.812347e+01
  -1.034359e+02  -2.645681e+01
  -4.958604e+01  -1.043023e+02
   5.612605e+01  -1.156053e+02
   1.339204e+02  -4.772662e+01
   1.268730e+02   4.181777e+01
   5.367949e+01   8.569482e+01
  -1.848477e+01   7.173947e+01
  -4.476792e+01   4.182974e+01
  -3.590544e+01   3.539223e+01
  -2.940362e+01   4.704006e+01
  -4.425518e+01   4.003863e+01
  -6.538004e+01  -7.763616e+00
  -6.167767e+01  -7.534425e+01
  -1.715268e+01  -1.130012e+02
   4.792939e+01  -8.618016e+01
   8.677653e+01  -9.673626e+00
   6.750874e+01   6.146310e+01
   8.650273e+00   7.946298e+01
  -3.571982e+01   4.435931e+01
  -3.198633e+01  -3.106654e+00
  -1.217393e+00  -2.524137e+01
   9.530417e+00  -1.904991e+01
  -1.531194e+01  -7.351742e+00
  -4.128881e+01  -8.377111e+00
  -2.473192e+01  -1.870731e+01
   3.403975e+01  -2.102483e+01
   8.421245e+01  -3.408379e+00
   7.373565e+01   2.724701e+01
   4.822097e+00   4.810990e+01
  -6.360917e+01   3.965316e+01
  -7.323072e+01   6.422035e+00
  -2.427879e+01  -2.293870e+01
   2.908583e+01  -2.159596e+01
   3.893705e+01   7.939014e+00
   8.722760e+00   3.498611e+01
  -2.354781e+01   3.164098e+01
  -3.306614e+01   1.705925e+00
  -2.709613e+01  -2.364121e+01
  -2.390799e+01  -2.046903e+01
  -2.891430e+01  -5.020912e-01
  -3.281276e+01   4.473505e-01
  -2.182926e+01  -3.419048e+01
   1.191009e+01  -7.523932e+01
   5.862325e+01  -7.459732e+01
   8.672870e+01  -2.038658e+01
   6.566740e+01   4.436178e+01
   4.354483e+00   6.555787e+01
  -4.362358e+01   3.500635e+01
  -3.068234e+01  -5.086668e+00
   2.892551e+01  -1.105621e+01
   6.815499e+01   1.931297e+01
   3.785071e+01   5.260286e+01
  -3.981590e+01   5.658453e+01
  -9.467311e+01   2.621362e+01
  -8.042357e+01  -1.710399e+01
  -1.775538e+01  -4.278833e+01
   3.108410e+01  -3.345602e+01
   2.488594e+01  -1.765417e+00
  -1.909771e+01   1.544593e+01
  -4.611574e+01  -8.693837e+00
  -2.035754e+01  -5.735107e+01
   3.923813e+01  -7.825741e+01
   7.902421e+01  -3.578835e+01
   6.425705e+01   4.526017e+01
   9.871114e+00   9.639654e+01
  -3.957338e+01   7.199059e+01
  -5.247840e+01  -3.207606e+00
  -3.056100e+01  -5.908151e+01
   2.972637e+00  -5.289883e+01
   2.473997e+01  -9.525815e+00
   2.452766e+01   1.558488e+01
   1.025220e+01   4.176910e+00
   2.462544e+00  -9.555318e+00
   1.391452e+01   8.374833e+00
   2.994230e+01   4.364492e+01
   1.937549e+01   5.335403e+01
  -2.562396e+01   2.308882e+01
  -6.870059e+01  -1.701979e+01
  -6.368042e+01  -3.340236e+01
  -1.005449e+01  -2.554454e+01
   4.101939e+01  -1.306628e+01
   4.353657e+01  -4.491650e+00
   7.809773e+00   4.314591e+00
  -1.769494e+01   1.119465e+01
  -8.755684e+00   8.052089e+00
   8.491866e+00  -1.364877e+00
  -1.889327e+00  -3.586362e+00
  -3.443553e+01   2.252977e-01
  -4.634799e+01  -9.591636e+00
  -9.643439e+00  -3.916950e+01
   5.350208e+01  -5.938521e+01
   9.175034e+01  -3.498393e+01
   7.455239e+01   2.765653e+01
   1.744627e+01   7.901900e+01
  -3.684679e+01   7.781852e+01
  -5.617854e+01   3.352597e+01
  -4.038670e+01  -8.620499e+00
  -1.369466e+01  -1.789936e+01
  -6.245498e-01  -5.325364e+00
  -6.585250e+00  -2.918348e+00
  -1.666214e+01  -2.348106e+01
  -1.144650e+01  -4.519702e+01
   1.334506e+01  -3.627444e+01
   3.967949e+01   6.939371e+00
   4.070731e+01   5.037312e+01
   7.009626e+00   5.455216e+01
  -3.771841e+01   1.530252e+01
  -5.271507e+01  -3.233500e+01
  -2.025412e+01  -5.026054e+01
   3.070288e+01  -3.138530e+01
   5.050328e+01   2.428539e+00
   2.295737e+01   2.628628e+01
  -1.514987e+01   2.949115e+01
  -1.770383e+01   1.556989e+01
   1.415801e+01  -1.912545e+00
   3.395070e+01  -5.188217e+00
   9.085389e+00   1.263861e+01
  -3.810744e+01   3.408556e+01
  -5.859195e+01   2.999897e+01
  -3.461946e+01  -5.791804e+00
   5.552024e+00  -4.210753e+01
   2.623401e+01  -4.201244e+01
   2.022564e+01  -6.251486e+00
   3.220437e+00   2.628543e+01
  -1.100467e+01   2.328838e+01
  -1.799796e+01  -6.000866e+00
  -1.480069e+01  -2.619859e+01
  -3.426844e-01  -1.835519e+01
   1.646564e+01   2.562124e+00
   2.116409e+01   1.090790e+01
   1.063273e+01   1.298233e+00
  -1.992097e+00  -8.535023e+00
  -4.140530e+00  -1.857628e+00
   1.967581e-01   1.613995e+01
  -2.193249e+00   2.384087e+01
  -1.325110e+01   8.324374e+00
  -1.836689e+01  -1.802105e+01
  -4.522258e+00  -2.891668e+01
   2.013912e+01  -1.231640e+01
   3.027848e+01   1.615634e+01
   9.740336e+00   2.993476e+01
  -2.716236e+01   1.872451e+01
  -4.558009e+01  -4.488816e+00
  -2.575032e+01  -2.065830e+01
   1.317359e+01  -2.227625e+01
   3.154328e+01  -1.394703e+01
   1.325320e+01  -3.850059e+00
  -1.549866e+01   6.139690e-01
  -1.710644e+01  -4.621530e+00
   1.287585e+01  -1.378775e+01
   4.104408e+01  -1.094568e+01
