
 $NMID
 id='ANONYMOUS ', fmtdat='(2E16.6)'
 volume=1.0
 tramp=1.0
 $END
  -3.833398e+03  -5.910341e+01
  -2.347949e+03  -2.160899e+03
   3.614757e+02  -2.420078e+03
   1.684559e+03  -1.093812e+03
   9.685196e+02   1.948346e+02
  -2.862678e+02   3.715665e+02
  -6.127898e+02  -2.664983e+02
  -1.503237e+01  -8.024128e+02
   6.454358e+02  -6.794813e+02
   7.978007e+02   4.366537e+00
   4.429270e+02   6.915546e+02
  -1.172004e+02   7.763649e+02
  -4.668509e+02   1.526364e+02
  -3.091274e+02  -5.714776e+02
   1.976636e+02  -6.507980e+02
   5.100226e+02  -3.614569e+01
   2.884496e+02   5.934694e+02
  -2.258449e+02   6.435666e+02
  -5.358406e+02   1.937698e+02
  -4.267902e+02  -2.653563e+02
  -7.880261e+01  -4.067298e+02
   1.829259e+02  -2.591041e+02
   1.388018e+02  -5.101197e+01
  -1.557372e+02  -1.749591e+01
  -3.415489e+02  -2.140338e+02
  -7.722650e+01  -4.053285e+02
   4.831615e+02  -2.761180e+02
   7.326537e+02   1.512464e+02
   3.174599e+02   4.634592e+02
  -3.692736e+02   3.325621e+02
  -6.270359e+02  -1.004254e+02
  -2.609302e+02  -4.320957e+02
   2.850242e+02  -4.335765e+02
   5.209435e+02  -1.590345e+02
   3.719053e+02   2.003515e+02
   7.481288e+01   3.958062e+02
  -1.129133e+02   2.336653e+02
  -5.530329e+01  -1.531179e+02
   1.828512e+02  -2.899531e+02
   3.206738e+02   9.340790e+01
   1.135774e+02   5.965506e+02
  -2.968916e+02   5.704571e+02
  -4.652613e+02  -4.988655e+00
  -1.827298e+02  -4.376891e+02
   2.237953e+02  -2.244127e+02
   2.733497e+02   3.068631e+02
  -1.013775e+02   4.712917e+02
  -5.085652e+02   8.850999e+01
  -5.432410e+02  -4.047602e+02
  -1.570071e+02  -5.521935e+02
   3.492824e+02  -3.066454e+02
   5.816756e+02   7.747883e+01
   3.607770e+02   3.242921e+02
  -1.013373e+02   2.959046e+02
  -3.687256e+02   6.817912e+01
  -2.328583e+02  -1.101216e+02
   5.129272e+01  -6.228513e+01
   9.336730e+01   9.971451e+01
  -1.336307e+02   1.184521e+02
  -2.885143e+02  -6.451873e+01
  -1.328382e+02  -2.491136e+02
   1.829665e+02  -2.563105e+02
   3.474904e+02  -1.065846e+02
   2.393888e+02   9.710099e+01
  -2.707258e+01   2.838239e+02
  -2.726861e+02   3.534447e+02
  -3.661585e+02   1.869166e+02
  -2.648290e+02  -1.584540e+02
  -5.860353e+01  -4.047587e+02
   7.829791e+01  -3.554155e+02
   6.996789e+01  -1.478761e+02
   3.064864e+01  -5.422309e+01
   9.881534e+01  -1.046617e+02
   2.325824e+02  -8.807666e+01
   2.634940e+02   9.594468e+01
   1.206573e+02   2.718956e+02
  -9.025411e+01   2.259062e+02
  -2.125084e+02  -2.150717e+01
  -1.636061e+02  -2.511638e+02
   3.597094e+01  -2.760845e+02
   2.629624e+02  -8.493291e+01
   3.368977e+02   1.792198e+02
   1.762337e+02   3.321984e+02
  -7.868213e+01   2.896313e+02
  -2.001909e+02   1.398762e+02
  -1.527543e+02   4.560409e+01
  -1.299591e+02   5.332911e+01
  -2.651364e+02   4.736288e+01
  -4.147835e+02  -8.584730e+01
  -3.287882e+02  -3.034390e+02
   2.142667e+01  -4.496565e+02
   3.861581e+02  -4.075993e+02
   4.967687e+02  -1.829090e+02
   3.144506e+02   1.043393e+02
   3.154117e+01   2.773446e+02
  -1.161555e+02   2.254526e+02
  -4.449498e+01   3.349752e+01
   1.184341e+02  -7.048228e+01
   1.635853e+02   2.700915e+01
   2.479438e+01   1.708590e+02
  -1.427422e+02   1.356551e+02
  -1.432094e+02  -6.017069e+01
   2.693585e+01  -1.624016e+02
   1.808203e+02  -1.216830e+01
   1.568610e+02   2.486126e+02
  -3.085123e+01   3.525867e+02
  -2.451273e+02   2.023649e+02
  -3.505637e+02  -6.832176e+01
  -2.811609e+02  -2.619774e+02
  -7.337857e+01  -2.776282e+02
   1.275657e+02  -1.508977e+02
   1.670092e+02  -9.956767e+00
   4.611881e+01   2.360571e+01
  -6.021562e+01  -5.378032e+01
  -9.110023e+00  -1.222191e+02
   1.287893e+02  -8.119420e+01
   1.645686e+02   2.411316e+01
   4.299545e+01   6.540544e+01
  -8.369892e+01  -1.116039e+00
  -4.585014e+01  -8.750952e+01
   1.423476e+02  -8.763773e+01
   2.998827e+02   1.727612e+01
   2.635622e+02   1.650011e+02
   3.869573e+01   2.664856e+02
  -2.062668e+02   2.485006e+02
  -2.836671e+02   1.076025e+02
  -1.546597e+02  -5.230949e+01
   3.008093e+01  -9.385322e+01
   7.803776e+01   6.014766e-01
  -4.700315e+01   9.125059e+01
  -1.951052e+02   4.254671e+01
  -2.020297e+02  -1.091414e+02
  -5.988202e+01  -2.022939e+02
   9.585165e+01  -1.472158e+02
   1.369208e+02  -2.028265e+01
   5.737564e+01   4.077025e+01
  -3.716498e+01  -1.137971e+01
  -3.129117e+01  -1.012660e+02
   8.977835e+01  -1.176125e+02
   2.105875e+02  -1.705897e+01
   1.885374e+02   1.357287e+02
   1.213173e+01   2.178924e+02
  -1.660744e+02   1.573354e+02
  -1.872675e+02   6.129331e+00
  -5.912253e+01  -1.067065e+02
   6.708456e+01  -1.035404e+02
   7.798291e+01  -2.652721e+01
   8.362918e+00   2.632058e+01
  -3.161156e+01   1.307566e+01
   9.424238e+00  -1.847615e+01
   8.269036e+01   3.480702e+00
   9.913145e+01   9.062187e+01
   1.084453e+01   1.723679e+02
  -1.409566e+02   1.546116e+02
  -2.421517e+02   1.365788e+01
  -1.984221e+02  -1.615240e+02
  -3.638239e+01  -2.379905e+02
   1.095037e+02  -1.659283e+02
   1.353727e+02  -2.800217e+01
   7.319479e+01   5.110163e+01
   3.178733e+01   3.300684e+01
   5.607785e+01  -1.302356e+01
   8.636971e+01  -5.848776e+00
   5.083849e+01   5.588256e+01
  -4.293372e+01   1.002252e+02
  -1.175450e+02   6.279254e+01
  -9.987971e+01  -4.268109e+01
   1.750722e+01  -1.243806e+02
   1.591998e+02  -8.854812e+01
   2.061268e+02   6.369398e+01
   9.049976e+01   2.144239e+02
  -1.231563e+02   2.280348e+02
  -2.746702e+02   8.548399e+01
  -2.539427e+02  -9.440360e+01
  -1.027651e+02  -1.776730e+02
   4.266276e+01  -1.442267e+02
   9.421776e+01  -8.195585e+01
   7.624342e+01  -6.998566e+01
   6.441319e+01  -9.403958e+01
   9.415789e+01  -7.772929e+01
   1.326927e+02   2.194382e+01
   1.188723e+02   1.587951e+02
   2.514721e+01   2.309395e+02
  -1.042632e+02   1.709641e+02
  -1.762963e+02   1.288005e+01
  -1.314495e+02  -1.296075e+02
  -1.122954e+01  -1.612283e+02
   7.504385e+01  -8.632551e+01
   6.304214e+01   9.193554e+00
  -8.579437e-01   5.030095e+01
  -2.098994e+01   3.604840e+01
   3.133262e+01   1.537882e+01
   8.373360e+01   2.132267e+01
   4.836627e+01   4.080172e+01
  -7.129780e+01   3.865465e+01
  -1.707856e+02  -2.189509e+00
  -1.461518e+02  -6.183880e+01
  -4.740330e+00  -9.631985e+01
   1.325695e+02  -7.349106e+01
   1.485568e+02  -6.721673e+00
   4.636029e+01   4.816700e+01
  -6.177460e+01   4.130498e+01
  -7.857120e+01  -1.983159e+01
  -1.390639e+01  -7.313418e+01
   5.172628e+01  -6.327051e+01
   6.785697e+01   1.068733e-01
   5.277809e+01   5.201740e+01
   4.659429e+01   4.423739e+01
   5.891052e+01   2.895250e+00
   6.674863e+01   1.830640e+00
   4.070905e+01   7.244821e+01
  -3.175932e+01   1.525615e+02
  -1.262326e+02   1.454429e+02
  -1.780088e+02   3.194978e+01
  -1.291234e+02  -9.681910e+01
  -2.339175e+00  -1.331200e+02
   9.261566e+01  -6.648490e+01
   6.242043e+01   1.338608e+01
  -5.989132e+01   2.005700e+01
  -1.372192e+02  -4.485364e+01
  -7.258675e+01  -1.096965e+02
   8.549379e+01  -1.113144e+02
   1.939483e+02  -4.540143e+01
   1.613583e+02   4.097799e+01
   3.266321e+01   8.781895e+01
  -6.504247e+01   6.508964e+01
  -4.980168e+01   1.597182e+00
   4.065843e+01  -2.952098e+01
   9.337852e+01   2.203478e+01
   3.663504e+01   1.193248e+02
  -8.708230e+01   1.571746e+02
  -1.650428e+02   6.689687e+01
  -1.278682e+02  -9.785326e+01
  -1.219038e+01  -1.977978e+02
   8.643371e+01  -1.434892e+02
   1.059561e+02   1.094943e+01
   5.684487e+01   1.221744e+02
  -1.006138e+01   1.061163e+02
  -5.044456e+01   1.664866e+01
  -4.851534e+01  -3.307061e+01
  -2.076404e+01  -8.377661e+00
  -5.466708e+00   1.904657e+01
  -2.673796e+01  -1.927045e+01
  -5.691328e+01  -9.162740e+01
  -3.541930e+01  -1.091760e+02
   5.369165e+01  -4.376146e+01
   1.386119e+02   4.035586e+01
   1.269682e+02   7.272083e+01
   1.782174e+01   5.289757e+01
  -8.514860e+01   2.380831e+01
  -8.879263e+01   5.597774e+00
  -1.493943e+01  -1.014252e+01
   3.694562e+01  -2.172722e+01
   1.782940e+01  -1.509881e+01
  -1.777638e+01   2.744668e+00
   3.973407e+00   7.192044e+00
   7.080204e+01   1.751421e+00
   9.375137e+01   2.379330e+01
   1.591444e+01   8.209892e+01
  -1.147768e+02   1.174386e+02
  -1.907932e+02   6.275610e+01
  -1.502368e+02  -6.428039e+01
  -2.880103e+01  -1.632430e+02
   8.246459e+01  -1.549887e+02
   1.181374e+02  -6.293439e+01
   8.176274e+01   2.113827e+01
   2.599101e+01   3.779646e+01
   2.232023e-01   1.145542e+01
   1.259423e+01   6.874189e+00
   3.150637e+01   4.889421e+01
   1.927660e+01   9.245123e+01
  -3.038347e+01   7.267952e+01
  -8.064681e+01  -1.736253e+01
  -7.920635e+01  -1.066095e+02
  -9.542544e+00  -1.128969e+02
   7.924041e+01  -2.859052e+01
   1.057077e+02   7.096750e+01
   3.676630e+01   1.051025e+02
  -6.635241e+01   6.139130e+01
  -1.030614e+02  -1.015653e+01
  -4.349965e+01  -5.621484e+01
   3.456999e+01  -5.841469e+01
   3.742786e+01  -2.912175e+01
  -2.974489e+01   3.473327e+00
  -6.988571e+01   7.655841e+00
  -1.709367e+01  -2.690999e+01
   8.057816e+01  -6.615894e+01
   1.212829e+02  -5.539100e+01
   6.932372e+01   1.562706e+01
  -1.529414e+01   8.550839e+01
  -5.750531e+01   8.263154e+01
  -4.246349e+01   9.931339e+00
  -4.573792e+00  -5.454068e+01
   2.512155e+01  -4.663805e+01
   3.704632e+01   1.397566e+01
   2.783443e+01   5.491566e+01
  -1.747572e+00   3.756648e+01
  -3.371889e+01  -6.753605e+00
  -4.162282e+01  -2.429601e+01
  -2.111092e+01  -3.559906e+00
   2.605481e+00   1.784364e+01
   6.973582e+00   3.975676e+00
   6.340030e-01  -3.414816e+01
   7.686884e+00  -5.000810e+01
   2.942046e+01  -1.619957e+01
   3.682598e+01   3.968672e+01
   6.589901e+00   6.102880e+01
  -4.277651e+01   2.373658e+01
  -6.089148e+01  -3.639417e+01
  -1.744135e+01  -6.248389e+01
   5.721531e+01  -3.548663e+01
   9.287814e+01   1.375201e+01
   5.070609e+01   4.459588e+01
  -2.937188e+01   4.418078e+01
  -6.628007e+01   2.546533e+01
  -2.752394e+01   6.101554e+00
   3.238922e+01  -8.075992e-01
   3.556566e+01   1.058038e+01
  -2.689279e+01   2.789132e+01
  -8.493206e+01   2.012054e+01
