
 $NMID
 id='ANONYMOUS ', fmtdat='(2E16.6)'
 volume=1.0
 tramp=1.0
 $END
   3.840780e+03  -9.521580e+00
   2.384185e+03   2.154426e+03
  -3.587000e+02   2.451961e+03
  -1.714010e+03   1.097059e+03
  -9.829300e+02  -2.359878e+02
   3.083778e+02  -4.129321e+02
   6.474796e+02   2.611296e+02
   3.371347e+01   8.232109e+02
  -6.469379e+02   6.982822e+02
  -8.093062e+02   1.463112e-02
  -4.539055e+02  -6.985373e+02
   1.168103e+02  -7.879483e+02
   4.810249e+02  -1.602304e+02
   3.267687e+02   5.744254e+02
  -1.924852e+02   6.599476e+02
  -5.171156e+02   4.070484e+01
  -2.933609e+02  -5.950872e+02
   2.292567e+02  -6.428463e+02
   5.392839e+02  -1.876372e+02
   4.248500e+02   2.705268e+02
   7.622246e+01   4.083105e+02
  -1.848625e+02   2.614829e+02
  -1.466621e+02   5.209741e+01
   1.437646e+02   7.303894e+00
   3.406944e+02   1.942991e+02
   9.412334e+01   3.959784e+02
  -4.652369e+02   2.901593e+02
  -7.337741e+02  -1.288526e+02
  -3.346275e+02  -4.584401e+02
   3.563240e+02  -3.493892e+02
   6.298167e+02   8.049047e+01
   2.736159e+02   4.255831e+02
  -2.731637e+02   4.399513e+02
  -5.162124e+02   1.687009e+02
  -3.757301e+02  -1.954646e+02
  -8.131173e+01  -3.994654e+02
   1.160632e+02  -2.423476e+02
   7.210714e+01   1.511867e+02
  -1.681051e+02   3.030094e+02
  -3.270427e+02  -7.449857e+01
  -1.361954e+02  -5.905601e+02
   2.836245e+02  -5.820012e+02
   4.745904e+02  -7.960284e+00
   1.993542e+02   4.393890e+02
  -2.212086e+02   2.379386e+02
  -2.858783e+02  -2.964606e+02
   8.828919e+01  -4.730165e+02
   5.042555e+02  -9.957904e+01
   5.460442e+02   3.928873e+02
   1.626834e+02   5.476842e+02
  -3.440161e+02   3.122398e+02
  -5.806336e+02  -6.864298e+01
  -3.643420e+02  -3.232841e+02
   9.935506e+01  -3.039298e+02
   3.727807e+02  -7.352113e+01
   2.371890e+02   1.157206e+02
  -5.482360e+01   7.086685e+01
  -1.018571e+02  -1.006858e+02
   1.304164e+02  -1.275660e+02
   2.927818e+02   5.888972e+01
   1.373967e+02   2.501828e+02
  -1.809536e+02   2.564996e+02
  -3.429039e+02   1.035306e+02
  -2.319607e+02  -9.540573e+01
   2.798374e+01  -2.739760e+02
   2.625549e+02  -3.451715e+02
   3.551588e+02  -1.893969e+02
   2.645609e+02   1.502872e+02
   6.549394e+01   4.016247e+02
  -7.662419e+01   3.573485e+02
  -7.562315e+01   1.460696e+02
  -3.320797e+01   4.634419e+01
  -9.168985e+01   9.887604e+01
  -2.223095e+02   9.128342e+01
  -2.601701e+02  -8.678830e+01
  -1.257628e+02  -2.650388e+02
   8.322560e+01  -2.262804e+02
   2.098572e+02   1.489382e+01
   1.669709e+02   2.434985e+02
  -2.916015e+01   2.735949e+02
  -2.575006e+02   8.990504e+01
  -3.363195e+02  -1.713874e+02
  -1.793208e+02  -3.281526e+02
   7.644827e+01  -2.900366e+02
   2.007150e+02  -1.395481e+02
   1.528343e+02  -4.181293e+01
   1.257015e+02  -4.982789e+01
   2.569343e+02  -4.893718e+01
   4.070310e+02   7.906289e+01
   3.264618e+02   2.946960e+02
  -1.574096e+01   4.423003e+02
  -3.747514e+02   4.047126e+02
  -4.870573e+02   1.862216e+02
  -3.132091e+02  -9.784711e+01
  -3.709879e+01  -2.741613e+02
   1.126954e+02  -2.276547e+02
   4.808183e+01  -3.537202e+01
  -1.131624e+02   7.428678e+01
  -1.642578e+02  -2.089185e+01
  -3.041671e+01  -1.698815e+02
   1.397391e+02  -1.405424e+02
   1.461314e+02   5.603558e+01
  -2.223422e+01   1.635756e+02
  -1.788277e+02   1.674652e+01
  -1.577668e+02  -2.437977e+02
   2.786179e+01  -3.482322e+02
   2.394716e+02  -1.998648e+02
   3.436813e+02   6.558209e+01
   2.778797e+02   2.540447e+02
   7.623185e+01   2.706694e+02
  -1.225746e+02   1.502703e+02
  -1.654243e+02   1.313321e+01
  -4.775951e+01  -2.312219e+01
   6.006920e+01   5.030988e+01
   1.252508e+01   1.197207e+02
  -1.248428e+02   8.311899e+01
  -1.636834e+02  -2.025371e+01
  -4.523731e+01  -6.412693e+01
   8.115417e+01  -1.380577e+00
   4.615920e+01   8.381205e+01
  -1.377536e+02   8.636446e+01
  -2.930987e+02  -1.390428e+01
  -2.599114e+02  -1.579638e+02
  -4.206549e+01  -2.601355e+02
   1.983586e+02  -2.471109e+02
   2.780881e+02  -1.107792e+02
   1.549686e+02   4.930585e+01
  -2.726224e+01   9.445478e+01
  -7.803866e+01   1.940247e+00
   4.334163e+01  -9.080406e+01
   1.913514e+02  -4.565501e+01
   2.013711e+02   1.046117e+02
   6.231443e+01   1.993835e+02
  -9.258831e+01   1.474046e+02
  -1.353641e+02   2.266719e+01
  -5.862615e+01  -3.904658e+01
   3.476450e+01   9.842676e+00
   3.125226e+01   9.719339e+01
  -8.584508e+01   1.150802e+02
  -2.054907e+02   1.910635e+01
  -1.867908e+02  -1.308019e+02
  -1.487182e+01  -2.144794e+02
   1.620978e+02  -1.574814e+02
   1.857296e+02  -8.096309e+00
   6.055779e+01   1.054478e+02
  -6.483247e+01   1.037921e+02
  -7.718931e+01   2.770343e+01
  -9.670661e+00  -2.523761e+01
   2.955962e+01  -1.318140e+01
  -9.854874e+00   1.709588e+01
  -8.055895e+01  -4.145395e+00
  -9.669112e+01  -8.830997e+01
  -1.165469e+01  -1.680664e+02
   1.362640e+02  -1.524797e+02
   2.370749e+02  -1.630908e+01
   1.968106e+02   1.562309e+02
   3.847737e+01   2.342074e+02
  -1.064404e+02   1.651721e+02
  -1.335644e+02   2.871138e+01
  -7.268191e+01  -5.056925e+01
  -3.145974e+01  -3.288010e+01
  -5.498917e+01   1.302792e+01
  -8.438717e+01   6.101510e+00
  -4.916529e+01  -5.458984e+01
   4.228696e+01  -9.774521e+01
   1.141921e+02  -6.104160e+01
   9.673456e+01   4.138019e+01
  -1.669769e+01   1.209462e+02
  -1.544645e+02   8.720607e+01
  -2.020152e+02  -6.025273e+01
  -9.138027e+01  -2.086735e+02
   1.176490e+02  -2.250188e+02
   2.687877e+02  -8.737776e+01
   2.513151e+02   8.986985e+01
   1.036620e+02   1.740013e+02
  -4.028487e+01   1.428402e+02
  -9.225343e+01   8.195501e+01
  -7.510784e+01   6.983596e+01
  -6.331471e+01   9.311014e+01
  -9.233459e+01   7.691636e+01
  -1.306043e+02  -2.090963e+01
  -1.181124e+02  -1.553020e+02
  -2.686351e+01  -2.268642e+02
   1.008050e+02  -1.693606e+02
   1.733187e+02  -1.497862e+01
   1.308613e+02   1.256349e+02
   1.320834e+01   1.583549e+02
  -7.209732e+01   8.602403e+01
  -6.134257e+01  -7.602228e+00
   2.554169e-01  -4.840196e+01
   1.930001e+01  -3.491535e+01
  -3.177812e+01  -1.497158e+01
  -8.235059e+01  -2.083858e+01
  -4.745302e+01  -3.981164e+01
   6.927951e+01  -3.801668e+01
   1.667082e+02   1.043236e+00
   1.436895e+02   5.884275e+01
   6.174217e+00   9.344503e+01
  -1.288080e+02   7.286309e+01
  -1.457188e+02   8.355097e+00
  -4.591955e+01  -4.619815e+01
   6.067592e+01  -4.068918e+01
   7.731304e+01   1.902534e+01
   1.328506e+01   7.187466e+01
  -5.133205e+01   6.244497e+01
  -6.654461e+01  -8.444581e-02
  -5.135726e+01  -5.121469e+01
  -4.580256e+01  -4.320708e+01
  -5.838588e+01  -2.194367e+00
  -6.572645e+01  -1.197323e+00
  -3.979029e+01  -7.094140e+01
   3.071012e+01  -1.500089e+02
   1.225403e+02  -1.433439e+02
   1.736902e+02  -3.218072e+01
   1.270868e+02   9.422003e+01
   3.389133e+00   1.302407e+02
  -9.039155e+01   6.531941e+01
  -6.148784e+01  -1.306178e+01
   5.883789e+01  -2.019663e+01
   1.356533e+02   4.301930e+01
   7.268902e+01   1.071827e+02
  -8.285985e+01   1.102972e+02
  -1.902397e+02   4.685642e+01
  -1.592155e+02  -3.827448e+01
  -3.336945e+01  -8.597206e+01
   6.287860e+01  -6.505920e+01
   4.868590e+01  -2.579650e+00
  -3.981405e+01   2.901575e+01
  -9.198104e+01  -2.124025e+01
  -3.659198e+01  -1.175630e+02
   8.535681e+01  -1.556246e+02
   1.628285e+02  -6.687225e+01
   1.269052e+02   9.591695e+01
   1.331180e+01   1.950979e+02
  -8.401350e+01   1.422295e+02
  -1.041945e+02  -9.576866e+00
  -5.720125e+01  -1.193643e+02
   8.128140e+00  -1.043074e+02
   4.888889e+01  -1.694761e+01
   4.840776e+01   3.182500e+01
   2.116196e+01   7.822687e+00
   4.977968e+00  -1.891762e+01
   2.555800e+01   1.868567e+01
   5.651381e+01   8.966594e+01
   3.655687e+01   1.070598e+02
  -5.175061e+01   4.333771e+01
  -1.369541e+02  -3.867713e+01
  -1.260474e+02  -7.039768e+01
  -1.776173e+01  -5.169208e+01
   8.424149e+01  -2.410846e+01
   8.737814e+01  -6.408925e+00
   1.417068e+01   9.814189e+00
  -3.643469e+01   2.188118e+01
  -1.685934e+01   1.516769e+01
   1.800936e+01  -2.912341e+00
  -4.290904e+00  -7.181314e+00
  -7.039257e+01  -1.246306e+00
  -9.240213e+01  -2.292027e+01
  -1.532390e+01  -8.110303e+01
   1.129903e+02  -1.165381e+02
   1.873937e+02  -6.248683e+01
   1.478558e+02   6.318504e+01
   2.917568e+01   1.608532e+02
  -8.011431e+01   1.526817e+02
  -1.158775e+02   6.219064e+01
  -8.069730e+01  -2.037032e+01
  -2.564205e+01  -3.687902e+01
   2.352435e-01  -1.117046e+01
  -1.202493e+01  -6.503258e+00
  -3.142782e+01  -4.752743e+01
  -1.994518e+01  -9.055866e+01
   2.936533e+01  -7.171816e+01
   7.980234e+01   1.664534e+01
   7.875663e+01   1.049106e+02
   9.578738e+00   1.115258e+02
  -7.860468e+01   2.840513e+01
  -1.047382e+02  -6.991722e+01
  -3.638070e+01  -1.035022e+02
   6.536511e+01  -6.036895e+01
   1.012272e+02   9.787891e+00
   4.246845e+01   5.474259e+01
  -3.386750e+01   5.698397e+01
  -3.604993e+01   2.851406e+01
   2.999418e+01  -3.549775e+00
   6.886705e+01  -7.910135e+00
   1.669062e+01   2.633878e+01
  -7.884980e+01   6.573439e+01
  -1.183646e+02   5.553837e+01
  -6.762437e+01  -1.481756e+01
   1.467771e+01  -8.418906e+01
   5.579560e+01  -8.126466e+01
   4.143481e+01  -9.273361e+00
   4.623961e+00   5.410355e+01
  -2.474351e+01   4.577778e+01
  -3.682534e+01  -1.406082e+01
  -2.764104e+01  -5.393581e+01
   1.864281e+00  -3.657976e+01
   3.334285e+01   6.663612e+00
   4.080346e+01   2.340626e+01
   2.063842e+01   3.105488e+00
  -2.255629e+00  -1.726560e+01
  -6.470046e+00  -3.077314e+00
  -9.207013e-01   3.432022e+01
  -8.559802e+00   4.929750e+01
  -2.973689e+01   1.537628e+01
  -3.616590e+01  -3.988594e+01
  -5.933151e+00  -6.065389e+01
   4.242462e+01  -2.345957e+01
   5.997994e+01   3.605885e+01
   1.734163e+01   6.175217e+01
  -5.599957e+01   3.509075e+01
  -9.133526e+01  -1.334626e+01
  -5.010536e+01  -4.366294e+01
   2.879917e+01  -4.335193e+01
   6.526734e+01  -2.502161e+01
   2.679930e+01  -5.867123e+00
  -3.268018e+01   9.687722e-01
  -3.570949e+01  -1.064667e+01
   2.656647e+01  -2.831445e+01
   8.437303e+01  -2.077450e+01
