
 $NMID
 id='ANONYMOUS ', fmtdat='(2E16.6)'
 volume=1.0
 tramp=1.0
 $END
  -3.471632e+03   5.586267e+01
  -2.339404e+03  -1.789522e+03
   1.704993e+01  -2.276775e+03
   1.427777e+03  -1.334401e+03
   1.077558e+03  -1.150872e+02
   3.498591e+00   3.183603e+02
  -4.703009e+02  -8.854763e+01
  -9.844239e+01  -6.319831e+02
   4.913770e+02  -6.598941e+02
   7.223484e+02  -9.767680e+01
   4.838925e+02   5.682094e+02
   6.564998e-01   7.272185e+02
  -3.594394e+02   2.197250e+02
  -2.993310e+02  -4.516639e+02
   1.183060e+02  -6.016024e+02
   4.522361e+02  -9.282278e+01
   3.253260e+02   5.310267e+02
  -1.524868e+02   6.697226e+02
  -5.199156e+02   2.772603e+02
  -4.720194e+02  -2.092308e+02
  -1.311448e+02  -3.966768e+02
   1.390087e+02  -2.699242e+02
   9.681028e+01  -8.994217e+01
  -1.607700e+02  -9.025882e+01
  -2.801646e+02  -2.593163e+02
  -1.008095e+01  -3.605101e+02
   4.635274e+02  -1.897278e+02
   6.405642e+02   1.641913e+02
   2.677411e+02   3.776439e+02
  -3.159285e+02   2.437016e+02
  -5.353981e+02  -1.077445e+02
  -2.208122e+02  -3.756614e+02
   2.611984e+02  -3.803168e+02
   4.774272e+02  -1.476630e+02
   3.496120e+02   1.666099e+02
   9.912183e+01   3.420729e+02
  -4.270914e+01   2.187621e+02
   4.734261e+00  -8.607583e+01
   1.586008e+02  -1.922445e+02
   2.237135e+02   1.106965e+02
   5.445060e+01   5.092783e+02
  -2.452023e+02   4.902174e+02
  -3.699102e+02   2.449368e+01
  -1.617992e+02  -3.406677e+02
   1.556236e+02  -1.781450e+02
   2.066525e+02   2.672024e+02
  -1.005077e+02   4.137583e+02
  -4.645098e+02   7.341615e+01
  -5.129708e+02  -3.830891e+02
  -1.649672e+02  -5.233475e+02
   3.134307e+02  -2.907327e+02
   5.477719e+02   6.132704e+01
   3.665027e+02   2.753826e+02
  -4.822620e+01   2.610123e+02
  -3.191248e+02   9.619730e+01
  -2.444134e+02  -4.781753e+01
  -3.211191e+00  -4.655255e+01
   7.172180e+01   5.186991e+01
  -9.672820e+01   8.040300e+01
  -2.504933e+02  -4.187706e+01
  -1.399421e+02  -2.103655e+02
   1.634075e+02  -2.599941e+02
   3.618092e+02  -1.303149e+02
   2.664175e+02   1.096377e+02
  -3.619937e+01   3.234673e+02
  -3.079894e+02   3.643677e+02
  -3.757423e+02   1.639065e+02
  -2.434051e+02  -1.643253e+02
  -5.544731e+01  -3.772688e+02
   4.316103e+01  -3.423567e+02
   4.035743e+01  -1.813271e+02
   4.653586e+01  -9.699501e+01
   1.383108e+02  -1.061316e+02
   2.477930e+02  -5.454948e+01
   2.443205e+02   1.190211e+02
   9.638322e+01   2.625797e+02
  -9.386965e+01   2.009122e+02
  -1.948701e+02  -3.794775e+01
  -1.402602e+02  -2.483359e+02
   4.645425e+01  -2.572755e+02
   2.521743e+02  -6.651904e+01
   3.186915e+02   1.780524e+02
   1.756006e+02   3.138351e+02
  -5.784057e+01   2.814507e+02
  -1.832022e+02   1.592368e+02
  -1.607424e+02   7.393988e+01
  -1.533713e+02   6.104697e+01
  -2.819600e+02   3.211979e+01
  -4.187993e+02  -1.035907e+02
  -3.253113e+02  -3.114054e+02
   3.120863e+01  -4.499933e+02
   3.980871e+02  -4.019549e+02
   4.961636e+02  -1.738426e+02
   2.976706e+02   1.039274e+02
   2.214456e+01   2.600065e+02
  -9.819405e+01   2.099254e+02
  -1.922693e+01   4.398487e+01
   1.153418e+02  -4.435094e+01
   1.363107e+02   3.268617e+01
   1.426367e+01   1.471030e+02
  -1.201046e+02   1.154564e+02
  -1.184518e+02  -5.047780e+01
   2.521184e+01  -1.388215e+02
   1.661640e+02  -2.795014e+00
   1.543208e+02   2.451291e+02
  -2.693282e+01   3.544790e+02
  -2.543567e+02   2.086523e+02
  -3.667735e+02  -7.303906e+01
  -2.816337e+02  -2.756657e+02
  -5.880442e+01  -2.819166e+02
   1.334811e+02  -1.426179e+02
   1.567818e+02  -6.437229e+00
   3.918388e+01   1.432315e+01
  -5.088524e+01  -6.143913e+01
   3.073273e+00  -1.154424e+02
   1.268555e+02  -6.842879e+01
   1.520667e+02   2.715279e+01
   3.444515e+01   5.640212e+01
  -8.235293e+01  -1.326757e+01
  -3.718298e+01  -9.498426e+01
   1.548422e+02  -8.588973e+01
   3.093697e+02   2.958706e+01
   2.604350e+02   1.799400e+02
   2.410033e+01   2.697206e+02
  -2.162791e+02   2.371434e+02
  -2.780475e+02   9.723152e+01
  -1.436695e+02  -4.769187e+01
   2.953909e+01  -8.145382e+01
   6.664383e+01   3.325459e+00
  -5.386700e+01   8.117790e+01
  -1.901288e+02   3.268395e+01
  -1.931456e+02  -1.090031e+02
  -5.637402e+01  -1.950077e+02
   9.266541e+01  -1.397842e+02
   1.293004e+02  -1.702180e+01
   4.840902e+01   3.654630e+01
  -4.081122e+01  -2.331601e+01
  -2.399765e+01  -1.126894e+02
   1.028533e+02  -1.180622e+02
   2.171416e+02  -7.840264e+00
   1.849822e+02   1.422532e+02
   7.670262e+00   2.154579e+02
  -1.637114e+02   1.535062e+02
  -1.816774e+02   9.433486e+00
  -5.731075e+01  -9.865186e+01
   6.420816e+01  -9.799158e+01
   7.262934e+01  -2.549379e+01
   1.231766e+00   2.411867e+01
  -3.744589e+01   7.176335e+00
   1.138325e+01  -2.611801e+01
   9.255052e+01   1.723243e+00
   1.060684e+02   9.869650e+01
   6.208079e+00   1.819697e+02
  -1.511277e+02   1.545478e+02
  -2.459994e+02   5.122029e+00
  -1.950825e+02  -1.675907e+02
  -3.439339e+01  -2.369963e+02
   1.073485e+02  -1.639090e+02
   1.347181e+02  -2.999327e+01
   7.651871e+01   4.762654e+01
   3.504797e+01   3.132380e+01
   5.815088e+01  -1.360012e+01
   9.107926e+01  -4.803390e+00
   5.647651e+01   6.195892e+01
  -4.539080e+01   1.095469e+02
  -1.298090e+02   6.599135e+01
  -1.091722e+02  -5.037024e+01
   2.261269e+01  -1.340271e+02
   1.721477e+02  -8.803756e+01
   2.107851e+02   7.345597e+01
   8.232655e+01   2.213612e+02
  -1.335826e+02   2.252873e+02
  -2.775232e+02   7.845418e+01
  -2.504763e+02  -9.760258e+01
  -9.921833e+01  -1.759459e+02
   4.347707e+01  -1.416240e+02
   9.274462e+01  -8.139478e+01
   7.353919e+01  -7.185678e+01
   6.266102e+01  -9.760026e+01
   9.575654e+01  -8.095989e+01
   1.364667e+02   2.172849e+01
   1.204839e+02   1.618095e+02
   2.301441e+01   2.337428e+02
  -1.066460e+02   1.701077e+02
  -1.753587e+02   8.819192e+00
  -1.275896e+02  -1.331494e+02
  -6.694656e+00  -1.607697e+02
   7.851928e+01  -8.119173e+01
   6.310000e+01   1.621316e+01
  -6.130723e+00   5.452299e+01
  -2.841624e+01   3.504963e+01
   2.885427e+01   1.205369e+01
   8.772616e+01   2.066239e+01
   5.090566e+01   4.315820e+01
  -7.693661e+01   3.899450e+01
  -1.794001e+02  -7.166644e+00
  -1.470079e+02  -6.883993e+01
   3.525699e+00  -9.973689e+01
   1.407179e+02  -7.188557e+01
   1.499643e+02  -2.586989e+00
   4.387362e+01   5.251485e+01
  -6.366133e+01   4.429909e+01
  -8.074615e+01  -2.042885e+01
  -1.779150e+01  -7.799145e+01
   4.985787e+01  -6.858878e+01
   7.173435e+01  -8.141806e-01
   5.899525e+01   5.506805e+01
   4.884567e+01   4.637115e+01
   5.742715e+01   2.256121e+00
   6.724128e+01   2.207044e+00
   4.424914e+01   7.700365e+01
  -3.145877e+01   1.586470e+02
  -1.334680e+02   1.480364e+02
  -1.879490e+02   2.966011e+01
  -1.334024e+02  -1.015465e+02
   1.029242e+00  -1.376758e+02
   9.823764e+01  -6.954381e+01
   6.492853e+01   1.240247e+01
  -6.057799e+01   2.047716e+01
  -1.377995e+02  -4.487056e+01
  -7.101755e+01  -1.105504e+02
   8.812776e+01  -1.107468e+02
   1.951335e+02  -4.200509e+01
   1.599594e+02   4.452676e+01
   3.006713e+01   8.770858e+01
  -6.651005e+01   6.145854e+01
  -4.924335e+01  -2.126291e+00
   4.255598e+01  -3.135851e+01
   9.609289e+01   2.174388e+01
   4.012156e+01   1.209640e+02
  -8.406000e+01   1.616628e+02
  -1.648139e+02   7.219276e+01
  -1.307190e+02  -9.582345e+01
  -1.502765e+01  -1.993641e+02
   8.623013e+01  -1.442551e+02
   1.065564e+02   1.339381e+01
   5.452052e+01   1.244035e+02
  -1.487906e+01   1.045854e+02
  -5.292764e+01   1.363996e+01
  -4.618652e+01  -3.333405e+01
  -1.742036e+01  -6.907019e+00
  -6.042257e+00   1.778116e+01
  -3.032124e+01  -2.346195e+01
  -5.810548e+01  -9.407293e+01
  -3.198476e+01  -1.077812e+02
   5.800799e+01  -4.187077e+01
   1.397326e+02   4.008078e+01
   1.258225e+02   7.254062e+01
   1.781051e+01   5.529559e+01
  -8.385164e+01   2.644036e+01
  -8.904837e+01   4.864412e+00
  -1.730431e+01  -1.293695e+01
   3.569923e+01  -2.211563e+01
   1.964461e+01  -1.234927e+01
  -1.564651e+01   4.603995e+00
   3.286364e+00   5.482877e+00
   6.934154e+01  -1.181046e+00
   9.612049e+01   2.355207e+01
   2.151770e+01   8.546952e+01
  -1.125837e+02   1.223739e+02
  -1.960972e+02   6.672227e+01
  -1.584954e+02  -6.313618e+01
  -3.232631e+01  -1.656372e+02
   8.516876e+01  -1.595528e+02
   1.221115e+02  -6.661132e+01
   8.340491e+01   2.050401e+01
   2.672633e+01   3.972957e+01
   1.922993e+00   1.417463e+01
   1.375239e+01   9.311769e+00
   3.032470e+01   5.080619e+01
   1.729875e+01   9.381879e+01
  -3.098611e+01   7.392395e+01
  -8.130249e+01  -1.581781e+01
  -8.263512e+01  -1.059301e+02
  -1.414698e+01  -1.152950e+02
   7.848021e+01  -3.357047e+01
   1.100191e+02   6.800398e+01
   4.092211e+01   1.077061e+02
  -6.750126e+01   6.649064e+01
  -1.079167e+02  -9.257898e+00
  -4.607749e+01  -6.110355e+01
   3.704933e+01  -6.337138e+01
   4.190352e+01  -2.894512e+01
  -2.764378e+01   6.839358e+00
  -7.094880e+01   8.896489e+00
  -1.856983e+01  -2.871179e+01
   8.155474e+01  -6.720472e+01
   1.249143e+02  -5.339299e+01
   7.297615e+01   1.891355e+01
  -1.483573e+01   8.814241e+01
  -6.104050e+01   8.502387e+01
  -4.745475e+01   1.212989e+01
  -7.567909e+00  -5.469498e+01
   2.530850e+01  -4.999680e+01
   3.889815e+01   1.088412e+01
   2.925557e+01   5.601184e+01
  -1.741371e+00   4.139562e+01
  -3.487137e+01  -5.390154e+00
  -4.279525e+01  -2.678827e+01
  -2.111031e+01  -5.212040e+00
   3.261680e+00   2.094486e+01
   5.605989e+00   8.771761e+00
  -4.313634e+00  -3.409540e+01
   2.392174e+00  -5.610461e+01
   2.947592e+01  -2.309156e+01
   4.320672e+01   3.748067e+01
   1.314709e+01   6.345863e+01
  -4.234200e+01   2.693813e+01
  -6.541217e+01  -3.511818e+01
  -2.035701e+01  -6.306575e+01
   5.929468e+01  -3.683858e+01
   9.695448e+01   1.271223e+01
   5.256382e+01   4.520650e+01
  -3.034549e+01   4.707444e+01
  -6.852453e+01   2.881457e+01
  -3.025105e+01   6.553773e+00
   2.998828e+01  -4.297553e+00
   3.563464e+01   6.304179e+00
  -2.346119e+01   2.693791e+01
  -8.121310e+01   2.280253e+01
