
 $NMID
 id='ANONYMOUS ', fmtdat='(2E16.6)'
 volume=1.0
 tramp=1.0
 $END
   2.954950e+03  -9.897925e+01
   2.061386e+03   1.368665e+03
   1.862628e+02   1.878927e+03
  -1.033414e+03   1.295094e+03
  -9.131654e+02   3.443606e+02
  -1.376219e+02  -1.495250e+02
   2.929379e+02   3.177870e+01
   8.801336e+01   4.578048e+02
  -3.562743e+02   5.527485e+02
  -5.801654e+02   1.380174e+02
  -4.366466e+02  -4.245465e+02
  -6.761629e+01  -5.951010e+02
   2.409472e+02  -2.056551e+02
   2.392519e+02   3.469696e+02
  -6.537657e+01   4.999772e+02
  -3.596504e+02   1.076554e+02
  -3.121833e+02  -4.284011e+02
   6.689089e+01  -6.033976e+02
   4.244579e+02  -3.093341e+02
   4.407255e+02   1.275144e+02
   1.575478e+02   3.325621e+02
  -9.083288e+01   2.406216e+02
  -4.889881e+01   8.867753e+01
   1.824522e+02   1.104100e+02
   2.546649e+02   2.736618e+02
  -2.779431e+01   3.347163e+02
  -4.422659e+02   1.414370e+02
  -5.531701e+02  -1.686897e+02
  -2.012615e+02  -3.131260e+02
   2.891978e+02  -1.704471e+02
   4.525501e+02   1.180977e+02
   1.746622e+02   3.238288e+02
  -2.340633e+02   3.229251e+02
  -4.148542e+02   1.309657e+02
  -3.024347e+02  -1.312864e+02
  -9.474564e+01  -2.733763e+02
   1.853667e+00  -1.667442e+02
  -5.745818e+01   6.993301e+01
  -1.649283e+02   1.243967e+02
  -1.683437e+02  -1.400295e+02
  -5.675638e+00  -4.451443e+02
   2.121207e+02  -3.985541e+02
   2.791619e+02  -1.335352e+01
   1.124690e+02   2.663244e+02
  -1.204739e+02   1.192318e+02
  -1.510140e+02  -2.438902e+02
   9.853320e+01  -3.543653e+02
   4.071351e+02  -6.035451e+01
   4.614956e+02   3.324787e+02
   1.640403e+02   4.557920e+02
  -2.645609e+02   2.565121e+02
  -4.812393e+02  -4.038882e+01
  -3.299517e+02  -2.116242e+02
   2.170134e+01  -2.026347e+02
   2.530177e+02  -9.465478e+01
   2.066926e+02  -1.136373e+00
   2.541739e+01   1.297779e+01
  -3.793616e+01  -2.974041e+01
   8.248301e+01  -4.390884e+01
   2.033783e+02   3.260669e+01
   1.245013e+02   1.653514e+02
  -1.284782e+02   2.386815e+02
  -3.241223e+02   1.510228e+02
  -2.668402e+02  -8.548000e+01
   9.213983e+00  -3.211354e+02
   2.811485e+02  -3.655000e+02
   3.519239e+02  -1.573555e+02
   2.212655e+02   1.525754e+02
   5.300212e+01   3.312933e+02
  -1.404112e+01   2.949722e+02
  -1.899663e+00   1.724728e+02
  -2.962229e+01   1.182141e+02
  -1.415632e+02   1.191899e+02
  -2.459071e+02   4.917792e+01
  -2.283256e+02  -1.186222e+02
  -8.286859e+01  -2.420025e+02
   8.997015e+01  -1.769008e+02
   1.779425e+02   4.235072e+01
   1.255804e+02   2.300706e+02
  -4.523356e+01   2.325124e+02
  -2.305612e+02   5.739885e+01
  -2.895826e+02  -1.574515e+02
  -1.655478e+02  -2.719649e+02
   3.499111e+01  -2.478476e+02
   1.455593e+02  -1.558827e+02
   1.370643e+02  -9.124769e+01
   1.466787e+02  -7.511540e+01
   2.715876e+02  -3.963794e+01
   3.969745e+02   8.576073e+01
   3.117897e+02   2.780458e+02
  -1.573547e+01   4.177380e+02
  -3.573272e+02   3.859345e+02
  -4.512976e+02   1.739849e+02
  -2.684286e+02  -9.013613e+01
  -1.887271e+01  -2.326297e+02
   7.913046e+01  -1.813859e+02
  -7.788960e-01  -3.614943e+01
  -1.129019e+02   3.099883e+01
  -1.149978e+02  -3.834537e+01
  -4.114984e+00  -1.267359e+02
   1.024568e+02  -9.147686e+01
   9.442421e+01   4.674509e+01
  -2.626104e+01   1.158753e+02
  -1.486901e+02  -1.442770e+00
  -1.483662e+02  -2.179415e+02
   8.150942e+00  -3.253197e+02
   2.270341e+02  -2.079701e+02
   3.489186e+02   4.847587e+01
   2.746012e+02   2.482439e+02
   5.941412e+01   2.640414e+02
  -1.230080e+02   1.342000e+02
  -1.397983e+02   6.193524e+00
  -2.933438e+01  -9.781029e+00
   4.748673e+01   6.184136e+01
  -7.041292e+00   1.074489e+02
  -1.177447e+02   6.058787e+01
  -1.354719e+02  -2.544958e+01
  -2.594710e+01  -4.931745e+01
   8.019083e+01   1.549035e+01
   3.649196e+01   9.276616e+01
  -1.454433e+02   8.889874e+01
  -2.943203e+02  -1.733253e+01
  -2.501540e+02  -1.633913e+02
  -2.669820e+01  -2.537059e+02
   1.984616e+02  -2.241868e+02
   2.524164e+02  -9.260093e+01
   1.262638e+02   4.021281e+01
  -2.858231e+01   6.946361e+01
  -5.666847e+01  -6.346999e+00
   5.362202e+01  -7.427117e+01
   1.744692e+02  -3.051513e+01
   1.768369e+02   9.584856e+01
   5.463717e+01   1.743339e+02
  -8.087031e+01   1.267902e+02
  -1.153823e+02   1.599180e+01
  -3.967511e+01  -3.310250e+01
   4.488997e+01   2.422035e+01
   2.735574e+01   1.109118e+02
  -9.594488e+01   1.176750e+02
  -2.056409e+02   1.372685e+01
  -1.759508e+02  -1.278066e+02
  -1.226407e+01  -1.977589e+02
   1.444190e+02  -1.442512e+02
   1.620644e+02  -1.513895e+01
   5.226488e+01   8.492419e+01
  -5.582010e+01   8.842856e+01
  -6.333967e+01   2.355138e+01
   2.334925e+00  -2.381993e+01
   3.928344e+01  -7.455285e+00
  -7.327353e+00   2.894402e+01
  -8.906687e+01   6.844505e+00
  -1.077281e+02  -8.753807e+01
  -1.434115e+01  -1.731428e+02
   1.375361e+02  -1.515863e+02
   2.305858e+02  -1.161793e+01
   1.861212e+02   1.503229e+02
   3.939632e+01   2.161804e+02
  -9.173239e+01   1.525631e+02
  -1.211857e+02   3.347325e+01
  -7.224724e+01  -3.761788e+01
  -3.428559e+01  -2.520604e+01
  -5.356174e+01   1.584947e+01
  -8.603759e+01   9.324548e+00
  -5.939916e+01  -5.533379e+01
   3.481428e+01  -1.077685e+02
   1.211845e+02  -7.203678e+01
   1.096965e+02   4.199112e+01
  -1.416058e+01   1.305357e+02
  -1.609503e+02   9.233602e+01
  -2.022690e+02  -6.206010e+01
  -8.283225e+01  -2.063715e+02
   1.198919e+02  -2.145131e+02
   2.555220e+02  -8.040857e+01
   2.329508e+02   8.264514e+01
   9.536502e+01   1.579537e+02
  -3.576223e+01   1.305423e+02
  -8.132328e+01   7.735767e+01
  -6.251206e+01   6.857601e+01
  -5.133176e+01   9.296238e+01
  -8.410380e+01   8.017908e+01
  -1.277070e+02  -1.297186e+01
  -1.187496e+02  -1.444488e+02
  -3.028670e+01  -2.155776e+02
   9.262512e+01  -1.606058e+02
   1.615409e+02  -1.254784e+01
   1.216492e+02   1.203506e+02
   9.988095e+00   1.486786e+02
  -7.256723e+01   7.633361e+01
  -6.130213e+01  -1.584362e+01
   4.409292e+00  -5.440757e+01
   2.874707e+01  -3.570914e+01
  -2.436273e+01  -9.268033e+00
  -8.292236e+01  -1.359050e+01
  -5.054025e+01  -3.771905e+01
   7.164578e+01  -4.116659e+01
   1.709579e+02  -1.419086e+00
   1.406503e+02   6.047442e+01
  -2.057820e+00   9.654532e+01
  -1.308388e+02   7.384482e+01
  -1.396978e+02   6.745087e+00
  -4.277161e+01  -4.956306e+01
   5.635524e+01  -4.532256e+01
   7.611979e+01   1.499722e+01
   2.321438e+01   7.163695e+01
  -3.996974e+01   6.669435e+01
  -6.726527e+01   5.552404e+00
  -6.051549e+01  -4.719226e+01
  -4.854620e+01  -4.074935e+01
  -5.173431e+01  -1.025641e-01
  -6.211041e+01   6.134421e-01
  -4.713443e+01  -6.968723e+01
   2.005801e+01  -1.495251e+02
   1.190907e+02  -1.450690e+02
   1.769365e+02  -3.736507e+01
   1.302405e+02   8.849070e+01
   4.588141e+00   1.298262e+02
  -8.888128e+01   7.133589e+01
  -6.084148e+01  -7.343520e+00
   5.489493e+01  -2.161591e+01
   1.283462e+02   3.552221e+01
   6.897343e+01   9.960185e+01
  -7.797867e+01   1.057186e+02
  -1.791537e+02   4.491370e+01
  -1.490769e+02  -3.687903e+01
  -2.965520e+01  -8.019878e+01
   6.073733e+01  -5.771846e+01
   4.642954e+01   2.090098e+00
  -3.798399e+01   3.207030e+01
  -9.014889e+01  -1.494859e+01
  -4.387550e+01  -1.087200e+02
   6.744501e+01  -1.524655e+02
   1.460118e+02  -7.513041e+01
   1.241504e+02   8.058029e+01
   2.358671e+01   1.817813e+02
  -7.299520e+01   1.358816e+02
  -9.946141e+01  -9.084081e+00
  -5.457033e+01  -1.139248e+02
   1.254756e+01  -9.760799e+01
   5.040867e+01  -1.407348e+01
   4.258795e+01   2.981019e+01
   1.399549e+01   6.259992e+00
   5.634139e+00  -1.613778e+01
   3.215407e+01   2.096004e+01
   5.849684e+01   8.468654e+01
   3.126863e+01   9.822172e+01
  -5.442220e+01   4.143242e+01
  -1.300814e+02  -3.069627e+01
  -1.175170e+02  -6.194341e+01
  -1.943633e+01  -5.117594e+01
   7.412882e+01  -2.829081e+01
   8.184722e+01  -7.675105e+00
   1.865162e+01   1.161793e+01
  -3.108529e+01   2.135784e+01
  -1.951962e+01   1.145209e+01
   1.236492e+01  -4.898562e+00
  -2.203345e+00  -4.326697e+00
  -6.161487e+01   4.655897e+00
  -9.009395e+01  -1.676738e+01
  -2.717676e+01  -7.692373e+01
   9.535382e+01  -1.181213e+02
   1.781651e+02  -7.289220e+01
   1.513601e+02   4.781222e+01
   3.879601e+01   1.503276e+02
  -7.134433e+01   1.529014e+02
  -1.098158e+02   6.922710e+01
  -7.780395e+01  -1.456644e+01
  -2.718361e+01  -3.603247e+01
  -4.243266e+00  -1.358156e+01
  -1.451533e+01  -8.739884e+00
  -2.995805e+01  -4.680011e+01
  -1.908730e+01  -8.678117e+01
   2.531451e+01  -6.982122e+01
   7.484236e+01   1.029760e+01
   8.129910e+01   9.215758e+01
   2.070313e+01   1.044666e+02
  -6.825405e+01   3.599150e+01
  -1.044405e+02  -5.484502e+01
  -4.480798e+01  -9.674645e+01
   5.780193e+01  -6.655804e+01
   1.013140e+02   1.886605e+00
   4.784688e+01   5.559194e+01
  -3.072769e+01   6.297139e+01
  -3.955988e+01   2.986763e+01
   2.268572e+01  -8.172203e+00
   6.471062e+01  -1.196263e+01
   1.959132e+01   2.589152e+01
  -7.218999e+01   6.568843e+01
  -1.149998e+02   5.427870e+01
  -7.074441e+01  -1.465065e+01
   8.876640e+00  -8.248544e+01
   5.341849e+01  -8.290810e+01
   4.460991e+01  -1.605267e+01
   1.061388e+01   4.871481e+01
  -1.999425e+01   4.854813e+01
  -3.575691e+01  -6.188472e+00
  -3.014205e+01  -5.016938e+01
  -1.553951e+00  -3.989984e+01
   3.219667e+01   2.444055e+00
   4.184595e+01   2.364536e+01
   2.021234e+01   4.769864e+00
  -5.371371e+00  -2.034058e+01
  -6.721732e+00  -1.073863e+01
   7.709837e+00   2.907800e+01
   5.052616e+00   5.241376e+01
  -2.338710e+01   2.574493e+01
  -4.333736e+01  -2.902481e+01
  -1.874077e+01  -5.623001e+01
   3.626231e+01  -2.775257e+01
   6.304980e+01   2.719575e+01
   2.279474e+01   5.613044e+01
  -5.339592e+01   3.757927e+01
  -9.095990e+01  -5.722316e+00
  -5.110515e+01  -3.894106e+01
   2.529986e+01  -4.615082e+01
   6.145210e+01  -3.163862e+01
   2.863825e+01  -8.501731e+00
  -2.473605e+01   5.875454e+00
  -3.123197e+01  -2.245128e+00
   1.913624e+01  -2.376303e+01
   7.063517e+01  -2.391005e+01
