
 $NMID
 id='ANONYMOUS ', fmtdat='(2E16.6)'
 volume=1.0
 tramp=1.0
 $END
   3.679198e+03  -1.307041e+01
   2.256576e+03   2.049551e+03
  -3.544603e+02   2.307108e+03
  -1.605052e+03   1.013514e+03
  -8.845072e+02  -2.236259e+02
   3.240228e+02  -3.624835e+02
   6.104240e+02   2.762020e+02
   1.349846e+01   7.891235e+02
  -6.226065e+02   6.564177e+02
  -7.639822e+02  -7.063793e+00
  -4.227285e+02  -6.641805e+02
   1.165621e+02  -7.407103e+02
   4.567749e+02  -1.387295e+02
   3.051712e+02   5.551706e+02
  -1.869498e+02   6.256836e+02
  -4.896528e+02   3.374980e+01
  -2.771768e+02  -5.627861e+02
   2.107855e+02  -6.031330e+02
   4.999739e+02  -1.773804e+02
   3.967259e+02   2.494308e+02
   7.299109e+01   3.810769e+02
  -1.744314e+02   2.449025e+02
  -1.374984e+02   4.214698e+01
   1.470580e+02  -3.828277e+00
   3.408520e+02   1.832300e+02
   9.714080e+01   3.898469e+02
  -4.525235e+02   2.907282e+02
  -7.126306e+02  -1.216894e+02
  -3.196294e+02  -4.467996e+02
   3.515626e+02  -3.406077e+02
   6.118879e+02   7.797940e+01
   2.641786e+02   4.121639e+02
  -2.625557e+02   4.259861e+02
  -4.948720e+02   1.647432e+02
  -3.588059e+02  -1.862344e+02
  -7.427150e+01  -3.811161e+02
   1.156605e+02  -2.243165e+02
   6.788829e+01   1.583237e+02
  -1.713666e+02   2.982038e+02
  -3.253562e+02  -7.737778e+01
  -1.337114e+02  -5.776790e+02
   2.767727e+02  -5.602476e+02
   4.575276e+02   8.100853e-01
   1.858451e+02   4.280516e+02
  -2.202142e+02   2.255114e+02
  -2.787352e+02  -2.910528e+02
   8.411065e+01  -4.579604e+02
   4.853004e+02  -9.899414e+01
   5.271073e+02   3.711799e+02
   1.596908e+02   5.206533e+02
  -3.281626e+02   2.999969e+02
  -5.554802e+02  -6.165560e+01
  -3.451422e+02  -3.057151e+02
   9.977375e+01  -2.872122e+02
   3.548731e+02  -6.659094e+01
   2.178056e+02   1.107913e+02
  -5.886409e+01   6.223493e+01
  -9.413980e+01  -1.021678e+02
   1.312707e+02  -1.224289e+02
   2.805962e+02   5.873160e+01
   1.289891e+02   2.388560e+02
  -1.693118e+02   2.443385e+02
  -3.199021e+02   1.043157e+02
  -2.216697e+02  -8.157382e+01
   1.513607e+01  -2.587028e+02
   2.387630e+02  -3.374224e+02
   3.372886e+02  -1.904681e+02
   2.577360e+02   1.409557e+02
   6.586504e+01   3.847084e+02
  -7.216741e+01   3.380348e+02
  -6.767574e+01   1.327555e+02
  -2.299817e+01   4.261266e+01
  -8.129936e+01   1.013605e+02
  -2.134165e+02   9.655088e+01
  -2.546788e+02  -7.844549e+01
  -1.256572e+02  -2.547043e+02
   7.850145e+01  -2.201254e+02
   2.043616e+02   1.131614e+01
   1.653697e+02   2.326514e+02
  -2.455993e+01   2.645902e+02
  -2.474654e+02   9.054918e+01
  -3.251172e+02  -1.600453e+02
  -1.740477e+02  -3.113970e+02
   7.101330e+01  -2.754721e+02
   1.876811e+02  -1.320369e+02
   1.399301e+02  -4.076691e+01
   1.153257e+02  -5.227526e+01
   2.443442e+02  -5.517226e+01
   3.912740e+02   6.568679e+01
   3.177107e+02   2.746116e+02
  -6.095763e+00   4.229787e+02
  -3.493867e+02   3.944650e+02
  -4.620269e+02   1.868716e+02
  -3.017611e+02  -9.011878e+01
  -3.866659e+01  -2.636465e+02
   1.074101e+02  -2.178654e+02
   4.626902e+01  -2.981714e+01
  -1.105692e+02   7.502049e+01
  -1.604724e+02  -2.033988e+01
  -2.964373e+01  -1.652572e+02
   1.358722e+02  -1.351714e+02
   1.413505e+02   5.536140e+01
  -2.186143e+01   1.583968e+02
  -1.729151e+02   1.797438e+01
  -1.543652e+02  -2.301643e+02
   2.049889e+01  -3.314490e+02
   2.227108e+02  -1.953135e+02
   3.275510e+02   5.355296e+01
   2.711303e+02   2.355888e+02
   7.953758e+01   2.581414e+02
  -1.146817e+02   1.470244e+02
  -1.589094e+02   1.432983e+01
  -4.528030e+01  -2.313807e+01
   6.018054e+01   4.741504e+01
   1.433275e+01   1.162784e+02
  -1.194904e+02   8.242835e+01
  -1.580084e+02  -1.788228e+01
  -4.381163e+01  -6.244704e+01
   7.917346e+01  -3.813727e+00
   4.742910e+01   7.949810e+01
  -1.286518e+02   8.669395e+01
  -2.802414e+02  -5.409235e+00
  -2.528632e+02  -1.447739e+02
  -4.665511e+01  -2.488246e+02
   1.851761e+02  -2.415243e+02
   2.650120e+02  -1.107140e+02
   1.489606e+02   4.628324e+01
  -2.614046e+01   9.165990e+01
  -7.587230e+01   1.868231e+00
   4.042167e+01  -8.929606e+01
   1.834038e+02  -4.718141e+01
   1.945718e+02   9.737710e+01
   6.220372e+01   1.900809e+02
  -8.698558e+01   1.423619e+02
  -1.297994e+02   2.322834e+01
  -5.685367e+01  -3.788562e+01
   3.463653e+01   7.001215e+00
   3.389451e+01   9.190315e+01
  -7.831907e+01   1.129845e+02
  -1.960599e+02   2.374029e+01
  -1.815588e+02  -1.211267e+02
  -1.807751e+01  -2.049386e+02
   1.524148e+02  -1.529399e+02
   1.768773e+02  -9.856685e+00
   5.857929e+01   1.004661e+02
  -6.101551e+01   1.001762e+02
  -7.373903e+01   2.709175e+01
  -1.007767e+01  -2.512574e+01
   2.817320e+01  -1.453124e+01
  -7.779249e+00   1.595365e+01
  -7.554016e+01  -1.279072e+00
  -9.411994e+01  -8.057287e+01
  -1.594553e+01  -1.595667e+02
   1.260576e+02  -1.491378e+02
   2.263765e+02  -2.117444e+01
   1.914659e+02   1.451882e+02
   4.086586e+01   2.228069e+02
  -9.897811e+01   1.591224e+02
  -1.265008e+02   2.941720e+01
  -6.928642e+01  -4.676143e+01
  -2.997099e+01  -3.046611e+01
  -5.185297e+01   1.362446e+01
  -7.994138e+01   8.095626e+00
  -4.809613e+01  -4.968823e+01
   3.694965e+01  -9.325126e+01
   1.059665e+02  -6.161054e+01
   9.303064e+01   3.556794e+01
  -1.184253e+01   1.152470e+02
  -1.443298e+02   8.772956e+01
  -1.944300e+02  -5.213406e+01
  -9.259014e+01  -1.976201e+02
   1.074006e+02  -2.182204e+02
   2.552107e+02  -8.913555e+01
   2.418081e+02   8.132271e+01
   1.019467e+02   1.646013e+02
  -3.613380e+01   1.371658e+02
  -8.665827e+01   7.954859e+01
  -7.031674e+01   6.727166e+01
  -5.832825e+01   8.919593e+01
  -8.596056e+01   7.480231e+01
  -1.243599e+02  -1.708033e+01
  -1.155321e+02  -1.452988e+02
  -3.023559e+01  -2.156466e+02
   9.289954e+01  -1.635472e+02
   1.655158e+02  -1.762432e+01
   1.277914e+02   1.175480e+02
   1.579083e+01   1.513120e+02
  -6.753518e+01   8.425359e+01
  -5.957511e+01  -5.421345e+00
  -1.768334e+00  -4.643606e+01
   1.714330e+01  -3.477642e+01
  -3.031222e+01  -1.439914e+01
  -7.830677e+01  -1.788239e+01
  -4.598608e+01  -3.647251e+01
   6.468867e+01  -3.822043e+01
   1.586491e+02  -3.718441e+00
   1.388396e+02   5.265860e+01
   8.884250e+00   8.974394e+01
  -1.207979e+02   7.303236e+01
  -1.391109e+02   1.117180e+01
  -4.544478e+01  -4.310315e+01
   5.644998e+01  -3.979814e+01
   7.384513e+01   1.637697e+01
   1.422904e+01   6.716812e+01
  -4.721581e+01   5.957456e+01
  -6.285681e+01   1.563688e+00
  -4.962782e+01  -4.666305e+01
  -4.447167e+01  -3.980072e+01
  -5.571649e+01  -1.335408e+00
  -6.263383e+01   1.344990e-01
  -3.945267e+01  -6.589024e+01
   2.574720e+01  -1.427670e+02
   1.130663e+02  -1.394940e+02
   1.641863e+02  -3.540431e+01
   1.229700e+02   8.639295e+01
   6.542314e+00   1.240194e+02
  -8.392472e+01   6.431936e+01
  -5.840223e+01  -1.109187e+01
   5.555776e+01  -2.033743e+01
   1.299246e+02   3.848885e+01
   7.142664e+01   1.009490e+02
  -7.678481e+01   1.069735e+02
  -1.807542e+02   4.852794e+01
  -1.529992e+02  -3.347248e+01
  -3.356279e+01  -8.168910e+01
   5.911570e+01  -6.367476e+01
   4.692612e+01  -3.624085e+00
  -3.695030e+01   2.842951e+01
  -8.767284e+01  -1.824064e+01
  -3.681708e+01  -1.106661e+02
   7.821402e+01  -1.488571e+02
   1.531797e+02  -6.600720e+01
   1.219993e+02   8.891628e+01
   1.607197e+01   1.850375e+02
  -7.741815e+01   1.368646e+02
  -9.971332e+01  -6.936725e+00
  -5.716580e+01  -1.127944e+02
   5.617322e+00  -1.003577e+02
   4.644767e+01  -1.767938e+01
   4.695439e+01   2.976643e+01
   2.042983e+01   7.710954e+00
   4.529761e+00  -1.832232e+01
   2.491212e+01   1.639654e+01
   5.565277e+01   8.398693e+01
   3.687401e+01   1.019738e+02
  -4.835527e+01   4.301775e+01
  -1.309888e+02  -3.428170e+01
  -1.214093e+02  -6.500844e+01
  -1.818288e+01  -4.867964e+01
   7.957267e+01  -2.399942e+01
   8.319976e+01  -7.766446e+00
   1.383176e+01   8.467740e+00
  -3.439137e+01   2.126925e+01
  -1.600033e+01   1.529297e+01
   1.705508e+01  -2.594113e+00
  -4.038923e+00  -7.040244e+00
  -6.680355e+01  -4.529088e-01
  -8.814655e+01  -1.987823e+01
  -1.594283e+01  -7.582813e+01
   1.050797e+02  -1.121877e+02
   1.762782e+02  -6.320105e+01
   1.409455e+02   5.649348e+01
   3.062488e+01   1.519510e+02
  -7.267026e+01   1.467795e+02
  -1.083383e+02   6.148912e+01
  -7.696996e+01  -1.780219e+01
  -2.528271e+01  -3.436969e+01
  -1.909266e-01  -1.011880e+01
  -1.180215e+01  -5.562883e+00
  -3.117765e+01  -4.468937e+01
  -2.100600e+01  -8.605433e+01
   2.645947e+01  -6.879572e+01
   7.602185e+01   1.450611e+01
   7.642897e+01   9.811406e+01
   1.097218e+01   1.051544e+02
  -7.373277e+01   2.782749e+01
  -1.001372e+02  -6.442818e+01
  -3.643669e+01  -9.707979e+01
   6.034024e+01  -5.830383e+01
   9.596872e+01   6.921287e+00
   4.186409e+01   5.051672e+01
  -3.027977e+01   5.472783e+01
  -3.339818e+01   2.846492e+01
   2.823973e+01  -3.262379e+00
   6.517176e+01  -8.781084e+00
   1.647357e+01   2.439466e+01
  -7.369310e+01   6.404740e+01
  -1.116798e+02   5.573278e+01
  -6.477702e+01  -1.204966e+01
   1.215637e+01  -8.011821e+01
   5.099857e+01  -7.866272e+01
   3.847269e+01  -1.006146e+01
   5.076899e+00   5.100745e+01
  -2.225443e+01   4.372549e+01
  -3.469065e+01  -1.279301e+01
  -2.729765e+01  -5.056947e+01
   5.754188e-01  -3.448172e+01
   3.156381e+01   5.730931e+00
   3.952179e+01   2.114636e+01
   1.995313e+01   2.421905e+00
  -2.834566e+00  -1.599190e+01
  -7.051125e+00  -2.518981e+00
  -7.870079e-01   3.200013e+01
  -6.946602e+00   4.571761e+01
  -2.705350e+01   1.447070e+01
  -3.418057e+01  -3.665991e+01
  -6.400740e+00  -5.647476e+01
   3.957940e+01  -2.270574e+01
   5.712354e+01   3.276466e+01
   1.739678e+01   5.803507e+01
  -5.231179e+01   3.457966e+01
  -8.666907e+01  -1.061323e+01
  -4.839927e+01  -4.037273e+01
   2.614665e+01  -4.164812e+01
   6.101318e+01  -2.497002e+01
   2.507747e+01  -6.410828e+00
  -3.085716e+01   7.953348e-01
  -3.358025e+01  -9.940182e+00
   2.529639e+01  -2.704559e+01
   7.999988e+01  -2.047119e+01
