
 $NMID
 id='ANONYMOUS ', fmtdat='(2E16.6)'
 volume=1.0
 tramp=1.0
 $END
   4.464310e+03  -1.107269e+02
   2.660875e+03   2.642824e+03
  -7.149964e+02   2.857512e+03
  -2.178934e+03   9.424466e+02
  -9.929405e+02  -6.919184e+02
   6.813091e+02  -6.300618e+02
   9.422270e+02   4.327917e+02
   1.547585e+01   1.110584e+03
  -8.455013e+02   8.233462e+02
  -9.739276e+02  -8.684785e+01
  -4.783366e+02  -8.886041e+02
   2.399129e+02  -9.257608e+02
   6.641666e+02  -1.302307e+02
   4.143222e+02   7.382704e+02
  -2.670152e+02   7.804709e+02
  -6.307446e+02   1.991238e+00
  -2.909149e+02  -7.012646e+02
   3.297872e+02  -6.569842e+02
   6.032733e+02  -9.668422e+01
   4.019777e+02   3.620883e+02
   2.030342e+01   4.509283e+02
  -2.470545e+02   2.755907e+02
  -2.233535e+02   2.148498e+01
   1.076454e+02  -9.493003e+01
   4.172962e+02   9.922073e+01
   2.190572e+02   4.334540e+02
  -4.554913e+02   4.361629e+02
  -8.727961e+02  -5.348967e+01
  -4.596177e+02  -5.552283e+02
   3.885944e+02  -5.119013e+02
   7.674693e+02   1.494854e+01
   3.703627e+02   4.868830e+02
  -2.762707e+02   5.396567e+02
  -5.767298e+02   2.203536e+02
  -4.336529e+02  -2.261749e+02
  -8.332227e+01  -4.899562e+02
   2.025622e+02  -3.014961e+02
   1.901255e+02   2.185713e+02
  -1.538653e+02   4.591505e+02
  -4.618479e+02  -6.541812e-01
  -2.746173e+02  -6.929209e+02
   3.099148e+02  -7.342884e+02
   6.283529e+02  -2.172712e+01
   2.863587e+02   5.675770e+02
  -2.931704e+02   3.423277e+02
  -4.088964e+02  -3.200788e+02
   5.337718e+01  -5.642928e+02
   5.654752e+02  -1.550159e+02
   6.180893e+02   4.025832e+02
   1.818108e+02   5.971364e+02
  -3.849127e+02   3.649699e+02
  -6.474015e+02  -6.210617e+01
  -3.932742e+02  -3.900379e+02
   1.514403e+02  -3.839604e+02
   4.588841e+02  -6.772567e+01
   2.560991e+02   2.030521e+02
  -1.225696e+02   1.194278e+02
  -1.574652e+02  -1.566473e+02
   1.638782e+02  -2.023462e+02
   3.624597e+02   6.692054e+01
   1.537700e+02   3.080657e+02
  -2.063159e+02   2.695743e+02
  -3.372170e+02   7.531193e+01
  -1.958534e+02  -8.562294e+01
   2.610978e+01  -2.209074e+02
   2.142959e+02  -3.278724e+02
   3.334255e+02  -2.299477e+02
   3.005680e+02   1.285787e+02
   9.376116e+01   4.441235e+02
  -1.115891e+02   3.996215e+02
  -1.289465e+02   1.174898e+02
  -2.943139e+01  -1.816353e+01
  -3.673797e+01   8.371719e+01
  -1.882420e+02   1.385938e+02
  -2.837324e+02  -4.116017e+01
  -1.728219e+02  -2.689174e+02
   6.282057e+01  -2.657452e+02
   2.313800e+02  -2.088913e+01
   2.100935e+02   2.373096e+02
   2.943464e-01   3.009321e+02
  -2.668006e+02   1.286234e+02
  -3.728676e+02  -1.593545e+02
  -2.002751e+02  -3.547470e+02
   9.552358e+01  -3.179920e+02
   2.328651e+02  -1.281005e+02
   1.560067e+02  -3.844245e+00
   9.770939e+01  -3.306908e+01
   2.304444e+02  -7.032416e+01
   4.033644e+02   4.702404e+01
   3.416420e+02   2.790642e+02
   9.002478e+00   4.462307e+02
  -3.521173e+02   4.247236e+02
  -4.881337e+02   2.153508e+02
  -3.450811e+02  -8.462521e+01
  -6.565695e+01  -2.982068e+02
   1.268668e+02  -2.643043e+02
   8.767543e+01  -3.389483e+01
  -1.061090e+02   1.162192e+02
  -2.031723e+02   2.909792e+00
  -6.050310e+01  -2.005403e+02
   1.611304e+02  -1.848012e+02
   1.889102e+02   5.577071e+01
  -1.035543e+01   2.006525e+02
  -1.979168e+02   4.120249e+01
  -1.721895e+02  -2.479244e+02
   2.548515e+01  -3.545949e+02
   2.286838e+02  -1.971363e+02
   3.273140e+02   5.837146e+01
   2.830891e+02   2.327407e+02
   1.030835e+02   2.613795e+02
  -1.090787e+02   1.651774e+02
  -1.807985e+02   2.710935e+01
  -6.295697e+01  -3.210606e+01
   7.207284e+01   3.495457e+01
   3.577110e+01   1.256597e+02
  -1.220553e+02   1.064972e+02
  -1.832656e+02  -6.612581e+00
  -6.358112e+01  -7.284762e+01
   7.915387e+01  -2.096836e+01
   5.794566e+01   6.999752e+01
  -1.199841e+02   8.852771e+01
  -2.803945e+02   6.424003e+00
  -2.666934e+02  -1.320143e+02
  -6.849288e+01  -2.529970e+02
   1.767050e+02  -2.682863e+02
   2.836053e+02  -1.370124e+02
   1.764285e+02   4.771219e+01
  -2.058039e+01   1.143586e+02
  -9.403594e+01   1.281932e+01
   2.782176e+01  -1.045788e+02
   1.962889e+02  -6.739880e+01
   2.202658e+02   9.755554e+01
   7.679483e+01   2.100309e+02
  -9.158843e+01   1.643012e+02
  -1.464263e+02   3.452519e+01
  -7.503381e+01  -4.014049e+01
   2.536863e+01  -5.818497e+00
   3.946993e+01   7.915603e+01
  -6.651085e+01   1.131160e+02
  -1.957008e+02   3.475599e+01
  -1.957853e+02  -1.177357e+02
  -2.804518e+01  -2.195165e+02
   1.625810e+02  -1.710422e+02
   1.981964e+02  -1.101721e+01
   7.052260e+01   1.161922e+02
  -6.485929e+01   1.163963e+02
  -8.486899e+01   3.404169e+01
  -2.136456e+01  -2.536726e+01
   1.908693e+01  -1.981034e+01
  -1.024015e+01   6.226165e+00
  -6.929138e+01  -8.879574e+00
  -8.766113e+01  -7.928899e+01
  -1.849032e+01  -1.555662e+02
   1.206877e+02  -1.545324e+02
   2.320007e+02  -3.298263e+01
   2.065647e+02   1.441068e+02
   4.855263e+01   2.380863e+02
  -1.061871e+02   1.748139e+02
  -1.370957e+02   3.029270e+01
  -7.229930e+01  -5.588273e+01
  -2.913798e+01  -3.643589e+01
  -5.305892e+01   1.300719e+01
  -7.882344e+01   7.810619e+00
  -4.103682e+01  -4.838362e+01
   4.120809e+01  -8.669352e+01
   9.914443e+01  -5.535875e+01
   8.337723e+01   3.304961e+01
  -1.100284e+01   1.080404e+02
  -1.369027e+02   8.791078e+01
  -1.966350e+02  -4.459451e+01
  -1.068511e+02  -1.969716e+02
   9.828060e+01  -2.315470e+02
   2.644793e+02  -1.045689e+02
   2.617832e+02   7.898526e+01
   1.158559e+02   1.753667e+02
  -3.500842e+01   1.498243e+02
  -9.362038e+01   8.734358e+01
  -7.924854e+01   7.171884e+01
  -6.604701e+01   9.235915e+01
  -9.124927e+01   7.560736e+01
  -1.284684e+02  -1.982570e+01
  -1.208516e+02  -1.516389e+02
  -3.505537e+01  -2.255867e+02
   9.456102e+01  -1.753239e+02
   1.756841e+02  -2.585722e+01
   1.404069e+02   1.179409e+02
   2.410595e+01   1.596141e+02
  -6.411070e+01   9.511503e+01
  -5.952170e+01   3.568318e+00
  -6.459134e+00  -4.114534e+01
   8.015273e+00  -3.419171e+01
  -3.766486e+01  -1.793174e+01
  -7.920157e+01  -2.173529e+01
  -4.483416e+01  -3.716281e+01
   6.191555e+01  -3.759833e+01
   1.557345e+02  -6.425324e+00
   1.436620e+02   4.684336e+01
   1.869535e+01   8.666094e+01
  -1.173099e+02   7.625396e+01
  -1.444598e+02   1.745338e+01
  -4.952630e+01  -3.873784e+01
   5.944701e+01  -3.806925e+01
   7.598639e+01   1.747822e+01
   7.903988e+00   6.785344e+01
  -5.558124e+01   5.842031e+01
  -6.282780e+01  -1.318546e+00
  -4.371081e+01  -4.933430e+01
  -4.373915e+01  -4.084707e+01
  -6.187425e+01  -9.320188e-01
  -6.614154e+01   8.137831e-01
  -3.549228e+01  -6.647170e+01
   3.043512e+01  -1.453296e+02
   1.121841e+02  -1.424755e+02
   1.613200e+02  -3.614885e+01
   1.239377e+02   8.797726e+01
   9.539557e+00   1.247979e+02
  -8.392542e+01   6.220857e+01
  -5.994215e+01  -1.415596e+01
   5.864299e+01  -2.123851e+01
   1.385159e+02   4.048914e+01
   7.866883e+01   1.054055e+02
  -7.761240e+01   1.141707e+02
  -1.894353e+02   5.692237e+01
  -1.635819e+02  -2.927132e+01
  -3.990155e+01  -8.571549e+01
   5.871389e+01  -7.231694e+01
   4.866477e+01  -9.312950e+00
  -3.797707e+01   2.722580e+01
  -9.063124e+01  -2.081671e+01
  -3.481853e+01  -1.180678e+02
   8.902571e+01  -1.558992e+02
   1.667697e+02  -6.517274e+01
   1.287510e+02   9.844335e+01
   1.407315e+01   1.974832e+02
  -8.246584e+01   1.461337e+02
  -1.044915e+02  -3.893324e+00
  -6.365197e+01  -1.159852e+02
  -1.811715e+00  -1.064761e+02
   4.459474e+01  -2.162632e+01
   5.326250e+01   2.975785e+01
   2.704407e+01   7.977993e+00
   3.219177e+00  -2.090282e+01
   1.971903e+01   1.413422e+01
   5.720340e+01   8.699665e+01
   4.543047e+01   1.085249e+02
  -4.476832e+01   4.623034e+01
  -1.391068e+02  -3.667382e+01
  -1.319282e+02  -6.814657e+01
  -1.841425e+01  -4.886651e+01
   8.814164e+01  -2.370088e+01
   8.816999e+01  -9.730964e+00
   1.018792e+01   6.795107e+00
  -3.843965e+01   2.326032e+01
  -1.305107e+01   1.890548e+01
   2.203951e+01  -1.802443e+00
  -6.264498e+00  -9.268415e+00
  -7.505896e+01  -2.837575e+00
  -9.156088e+01  -2.229634e+01
  -8.497983e+00  -8.001714e+01
   1.172533e+02  -1.158227e+02
   1.836599e+02  -6.075767e+01
   1.413513e+02   6.570079e+01
   2.801591e+01   1.613355e+02
  -7.586240e+01   1.501371e+02
  -1.125263e+02   5.956085e+01
  -8.074971e+01  -2.023095e+01
  -2.522301e+01  -3.454128e+01
   3.497784e+00  -8.367176e+00
  -9.743741e+00  -3.441704e+00
  -3.406238e+01  -4.442240e+01
  -2.483918e+01  -8.896586e+01
   2.774206e+01  -7.184540e+01
   8.150749e+01   1.728675e+01
   7.854131e+01   1.072558e+02
   5.257328e+00   1.120688e+02
  -8.257619e+01   2.444075e+01
  -1.038720e+02  -7.447608e+01
  -3.288161e+01  -1.027076e+02
   6.565547e+01  -5.564949e+01
   9.705092e+01   1.069098e+01
   3.898088e+01   4.901353e+01
  -3.175054e+01   5.098440e+01
  -2.969721e+01   2.827109e+01
   3.485564e+01  -6.670614e-01
   6.902304e+01  -7.683171e+00
   1.485800e+01   2.454703e+01
  -7.770584e+01   6.716179e+01
  -1.132114e+02   6.086218e+01
  -6.277465e+01  -1.037127e+01
   1.453284e+01  -8.270567e+01
   5.085919e+01  -7.938477e+01
   3.602050e+01  -5.293905e+00
   1.917906e+00   5.610027e+01
  -2.522271e+01   4.255114e+01
  -3.668090e+01  -1.845385e+01
  -2.712648e+01  -5.332655e+01
   2.631319e+00  -3.201225e+01
   3.314666e+01   8.307674e+00
   3.946242e+01   1.983498e+01
   2.038040e+01   3.316760e-01
  -4.777025e-01  -1.352235e+01
  -6.455452e+00   4.281709e+00
  -6.866297e+00   3.723892e+01
  -1.744259e+01   4.433152e+01
  -3.284704e+01   6.874228e+00
  -3.002433e+01  -4.554741e+01
   2.514071e+00  -6.115506e+01
   4.461404e+01  -2.077114e+01
   5.635145e+01   3.891479e+01
   1.499559e+01   6.293082e+01
  -5.384045e+01   3.443310e+01
  -8.820855e+01  -1.442884e+01
  -4.935049e+01  -4.313511e+01
   2.812360e+01  -4.048453e+01
   6.419738e+01  -2.157934e+01
   2.356821e+01  -4.854959e+00
  -3.812982e+01  -1.931335e+00
  -3.844581e+01  -1.586140e+01
   3.065389e+01  -3.237553e+01
   9.174073e+01  -2.130499e+01
