
 $NMID
 id='ANONYMOUS ', fmtdat='(2E16.6)'
 volume=1.0
 tramp=1.0
 $END
   3.365833e+03  -1.309224e+01
   2.174167e+03   1.732963e+03
  -7.571443e+01   2.103275e+03
  -1.311535e+03   1.180938e+03
  -9.051752e+02   1.030821e+02
   7.122638e+01  -2.262592e+02
   4.297082e+02   1.568673e+02
   3.971478e+01   6.149207e+02
  -4.927782e+02   6.015014e+02
  -6.735554e+02   6.687048e+01
  -4.309670e+02  -5.452760e+02
   2.121671e+01  -6.699615e+02
   3.413583e+02  -1.713347e+02
   2.640137e+02   4.541187e+02
  -1.296586e+02   5.652627e+02
  -4.254740e+02   7.052729e+01
  -2.982255e+02  -5.014283e+02
   1.355088e+02  -6.158053e+02
   4.668720e+02  -2.556667e+02
   4.293427e+02   1.854743e+02
   1.214744e+02   3.615585e+02
  -1.320035e+02   2.458673e+02
  -8.757944e+01   6.665951e+01
   1.778317e+02   6.330442e+01
   3.036243e+02   2.486214e+02
   2.149484e+01   3.757435e+02
  -4.692921e+02   2.085214e+02
  -6.425420e+02  -1.644353e+02
  -2.515377e+02  -3.888248e+02
   3.351911e+02  -2.459753e+02
   5.385123e+02   1.146248e+02
   2.135489e+02   3.784744e+02
  -2.610233e+02   3.760097e+02
  -4.659154e+02   1.438847e+02
  -3.336899e+02  -1.640925e+02
  -8.216113e+01  -3.291134e+02
   5.548957e+01  -1.919529e+02
  -9.082152e+00   1.166812e+02
  -1.822499e+02   2.034025e+02
  -2.449070e+02  -1.256981e+02
  -5.307185e+01  -5.240531e+02
   2.574537e+02  -4.781940e+02
   3.658809e+02   2.579821e+00
   1.390232e+02   3.501084e+02
  -1.739284e+02   1.642319e+02
  -2.082961e+02  -2.795779e+02
   1.024368e+02  -4.115472e+02
   4.569692e+02  -7.321506e+01
   5.016834e+02   3.661187e+02
   1.618428e+02   4.999056e+02
  -3.046610e+02   2.794465e+02
  -5.283364e+02  -5.731428e+01
  -3.417305e+02  -2.623903e+02
   6.183656e+01  -2.424671e+02
   3.051408e+02  -7.913989e+01
   2.129663e+02   4.956185e+01
  -1.312204e+01   3.106474e+01
  -6.014929e+01  -6.537442e+01
   1.106030e+02  -7.694001e+01
   2.424543e+02   4.998942e+01
   1.260887e+02   2.039078e+02
  -1.522048e+02   2.463172e+02
  -3.315243e+02   1.339085e+02
  -2.555306e+02  -8.589789e+01
   1.090301e+01  -3.040015e+02
   2.725175e+02  -3.656805e+02
   3.595609e+02  -1.757678e+02
   2.442232e+02   1.555004e+02
   5.594606e+01   3.665058e+02
  -4.370161e+01   3.206557e+02
  -2.983389e+01   1.575590e+02
  -2.471177e+01   8.912960e+01
  -1.196222e+02   1.174081e+02
  -2.423162e+02   7.173765e+01
  -2.486501e+02  -1.074707e+02
  -1.023702e+02  -2.580518e+02
   9.097982e+01  -2.017032e+02
   1.966266e+02   3.241777e+01
   1.457270e+02   2.413882e+02
  -4.051396e+01   2.549541e+02
  -2.474680e+02   7.170172e+01
  -3.136636e+02  -1.671025e+02
  -1.712872e+02  -2.995215e+02
   5.464684e+01  -2.661660e+02
   1.685248e+02  -1.477120e+02
   1.409039e+02  -7.122266e+01
   1.370840e+02  -6.826650e+01
   2.695513e+02  -4.753713e+01
   4.080145e+02   8.173739e+01
   3.232398e+02   2.877170e+02
  -1.462571e+01   4.341442e+02
  -3.681723e+02   4.007381e+02
  -4.724329e+02   1.823016e+02
  -2.913529e+02  -9.620512e+01
  -2.536491e+01  -2.549277e+02
   9.689909e+01  -2.015247e+02
   1.970660e+01  -3.229926e+01
  -1.178882e+02   5.078465e+01
  -1.393558e+02  -3.455497e+01
  -1.286696e+01  -1.490342e+02
   1.230859e+02  -1.114425e+02
   1.174111e+02   5.484950e+01
  -2.789718e+01   1.383800e+02
  -1.651205e+02   5.014917e+00
  -1.540601e+02  -2.315835e+02
   1.594984e+01  -3.380593e+02
   2.331604e+02  -2.081966e+02
   3.505108e+02   5.322139e+01
   2.813256e+02   2.522337e+02
   6.898736e+01   2.714407e+02
  -1.247752e+02   1.439421e+02
  -1.531947e+02   8.256131e+00
  -3.658641e+01  -1.688832e+01
   5.495821e+01   5.843219e+01
   1.063460e+00   1.158411e+02
  -1.237735e+02   7.140416e+01
  -1.500219e+02  -2.481746e+01
  -3.371753e+01  -5.769839e+01
   8.322531e+01   7.942573e+00
   4.260296e+01   9.073476e+01
  -1.432603e+02   9.084898e+01
  -2.983055e+02  -1.365074e+01
  -2.595460e+02  -1.621400e+02
  -3.513177e+01  -2.610201e+02
   2.012591e+02  -2.386805e+02
   2.676264e+02  -1.015578e+02
   1.398409e+02   4.599736e+01
  -2.991210e+01   8.142976e+01
  -6.730599e+01  -4.200150e+00
   5.074246e+01  -8.363156e+01
   1.850945e+02  -3.741083e+01
   1.898095e+02   1.015167e+02
   5.801122e+01   1.876361e+02
  -8.767055e+01   1.370325e+02
  -1.259310e+02   1.834564e+01
  -4.808974e+01  -3.733737e+01
   4.256770e+01   1.722967e+01
   3.141425e+01   1.066984e+02
  -9.181063e+01   1.198002e+02
  -2.087636e+02   1.787363e+01
  -1.837975e+02  -1.303392e+02
  -1.375863e+01  -2.077552e+02
   1.538985e+02  -1.516046e+02
   1.737128e+02  -1.169875e+01
   5.552386e+01   9.512339e+01
  -6.099415e+01   9.591916e+01
  -7.028125e+01   2.502002e+01
  -2.830169e+00  -2.576057e+01
   3.609009e+01  -1.111596e+01
  -7.302266e+00   2.414107e+01
  -8.571512e+01   3.662762e+00
  -1.051522e+02  -8.731249e+01
  -1.519874e+01  -1.730446e+02
   1.377609e+02  -1.552789e+02
   2.368482e+02  -1.509621e+01
   1.939860e+02   1.543171e+02
   3.980295e+01   2.264828e+02
  -9.909507e+01   1.595886e+02
  -1.274908e+02   3.186038e+01
  -7.267323e+01  -4.312335e+01
  -3.312731e+01  -2.832368e+01
  -5.455559e+01   1.517754e+01
  -8.618822e+01   8.903881e+00
  -5.636140e+01  -5.446765e+01
   3.679908e+01  -1.046526e+02
   1.184024e+02  -6.989075e+01
   1.060750e+02   4.036923e+01
  -1.360569e+01   1.281609e+02
  -1.592555e+02   9.325174e+01
  -2.056146e+02  -6.050826e+01
  -8.909487e+01  -2.102571e+02
   1.197428e+02  -2.231194e+02
   2.646581e+02  -8.545708e+01
   2.440901e+02   8.651685e+01
   1.001772e+02   1.669116e+02
  -3.815254e+01   1.375175e+02
  -8.687400e+01   8.014729e+01
  -6.830861e+01   6.953196e+01
  -5.642475e+01   9.374301e+01
  -8.787291e+01   7.989785e+01
  -1.301681e+02  -1.575353e+01
  -1.203924e+02  -1.500812e+02
  -3.004716e+01  -2.228626e+02
   9.683342e+01  -1.666417e+02
   1.689085e+02  -1.408657e+01
   1.277995e+02   1.240580e+02
   1.189772e+01   1.550562e+02
  -7.355836e+01   8.214870e+01
  -6.297447e+01  -1.205874e+01
   1.768473e+00  -5.297676e+01
   2.476345e+01  -3.687267e+01
  -2.747098e+01  -1.224444e+01
  -8.334303e+01  -1.616044e+01
  -5.005492e+01  -3.847691e+01
   7.104192e+01  -4.116262e+01
   1.713041e+02  -2.107503e+00
   1.445185e+02   5.973998e+01
   2.454963e+00   9.725543e+01
  -1.311160e+02   7.566663e+01
  -1.442847e+02   8.150868e+00
  -4.538239e+01  -4.873101e+01
   5.823739e+01  -4.407135e+01
   7.747500e+01   1.641219e+01
   1.985428e+01   7.173109e+01
  -4.448947e+01   6.519387e+01
  -6.738397e+01   3.822491e+00
  -5.749540e+01  -4.832643e+01
  -4.817409e+01  -4.174930e+01
  -5.511986e+01  -1.128370e+00
  -6.436203e+01   5.004779e-02
  -4.511042e+01  -7.020870e+01
   2.372317e+01  -1.510930e+02
   1.209115e+02  -1.470180e+02
   1.772822e+02  -3.735645e+01
   1.309414e+02   9.086097e+01
   5.146768e+00   1.316701e+02
  -8.969358e+01   7.034720e+01
  -6.155102e+01  -9.450995e+00
   5.704970e+01  -2.142644e+01
   1.329149e+02   3.878605e+01
   7.169206e+01   1.039719e+02
  -8.067287e+01   1.093641e+02
  -1.861711e+02   4.689149e+01
  -1.556538e+02  -3.762446e+01
  -3.182039e+01  -8.384316e+01
   6.263466e+01  -6.196312e+01
   4.843732e+01  -6.036163e-02
  -3.878423e+01   3.136619e+01
  -9.178515e+01  -1.726882e+01
  -4.152154e+01  -1.130528e+02
   7.506211e+01  -1.549993e+02
   1.539342e+02  -7.243830e+01
   1.264354e+02   8.747462e+01
   1.989271e+01   1.889542e+02
  -7.814263e+01   1.401567e+02
  -1.028942e+02  -9.012073e+00
  -5.691687e+01  -1.176062e+02
   1.060388e+01  -1.022855e+02
   5.058325e+01  -1.602422e+01
   4.573604e+01   3.122054e+01
   1.716967e+01   7.490295e+00
   5.531371e+00  -1.764710e+01
   3.014061e+01   1.948088e+01
   5.873246e+01   8.735523e+01
   3.402055e+01   1.035405e+02
  -5.386212e+01   4.347634e+01
  -1.344104e+02  -3.404995e+01
  -1.225905e+02  -6.616980e+01
  -1.935937e+01  -5.181328e+01
   7.890285e+01  -2.666226e+01
   8.517809e+01  -7.443020e+00
   1.723974e+01   1.049190e+01
  -3.367134e+01   2.168736e+01
  -1.886885e+01   1.357161e+01
   1.474274e+01  -3.754408e+00
  -2.924907e+00  -5.758727e+00
  -6.569368e+01   1.974702e+00
  -9.195856e+01  -1.909320e+01
  -2.276942e+01  -7.858344e+01
   1.031266e+02  -1.184009e+02
   1.831374e+02  -7.013387e+01
   1.510863e+02   5.353476e+01
   3.556964e+01   1.558047e+02
  -7.483347e+01   1.547817e+02
  -1.127940e+02   6.756778e+01
  -7.975867e+01  -1.685935e+01
  -2.712244e+01  -3.654939e+01
  -2.698038e+00  -1.233930e+01
  -1.390793e+01  -7.585859e+00
  -3.131650e+01  -4.764080e+01
  -2.010362e+01  -8.951533e+01
   2.699070e+01  -7.147010e+01
   7.755895e+01   1.295685e+01
   8.103380e+01   9.801843e+01
   1.650095e+01   1.078493e+02
  -7.270670e+01   3.295065e+01
  -1.052188e+02  -6.122535e+01
  -4.205439e+01  -9.992088e+01
   6.078979e+01  -6.468300e+01
   1.020495e+02   4.465226e+00
   4.673140e+01   5.517589e+01
  -3.149746e+01   6.127898e+01
  -3.826070e+01   3.031012e+01
   2.567408e+01  -5.894593e+00
   6.695380e+01  -1.057665e+01
   1.879630e+01   2.604648e+01
  -7.551130e+01   6.665149e+01
  -1.177005e+02   5.621511e+01
  -7.049885e+01  -1.410189e+01
   1.095410e+01  -8.395209e+01
   5.437487e+01  -8.359068e+01
   4.318871e+01  -1.400106e+01
   8.152975e+00   5.111342e+01
  -2.168171e+01   4.781003e+01
  -3.611210e+01  -9.434846e+00
  -2.958597e+01  -5.202600e+01
  -7.094619e-01  -3.874373e+01
   3.280568e+01   4.114648e+00
   4.219120e+01   2.345053e+01
   2.084972e+01   3.998847e+00
  -4.532043e+00  -1.901178e+01
  -7.423119e+00  -7.543903e+00
   3.936446e+00   3.094783e+01
  -9.821695e-03   5.065282e+01
  -2.536319e+01   2.134362e+01
  -4.021916e+01  -3.312590e+01
  -1.362293e+01  -5.769599e+01
   3.882018e+01  -2.609034e+01
   6.210498e+01   3.059780e+01
   2.077230e+01   5.867789e+01
  -5.474257e+01   3.725316e+01
  -9.180237e+01  -8.356800e+00
  -5.131221e+01  -4.100482e+01
   2.654445e+01  -4.551248e+01
   6.313605e+01  -2.943336e+01
   2.796652e+01  -7.876138e+00
  -2.801919e+01   3.408876e+00
  -3.290399e+01  -5.978916e+00
   2.275598e+01  -2.557809e+01
   7.702876e+01  -2.234156e+01
