
 $NMID
 id='ANONYMOUS ', fmtdat='(2E16.6)'
 volume=1.0
 tramp=1.0
 $END
   2.508638e+03  -5.483640e+01
   1.951221e+03   9.607154e+02
   5.665973e+02   1.632557e+03
  -6.710786e+02   1.554676e+03
  -1.003831e+03   7.921120e+02
  -5.226777e+02   8.343782e+00
   4.598779e+01  -1.598024e+02
   1.378940e+02   2.110157e+02
  -1.764239e+02   4.820757e+02
  -4.646076e+02   2.419353e+02
  -4.542789e+02  -2.664772e+02
  -1.993173e+02  -5.093072e+02
   8.394224e+01  -2.632996e+02
   1.838841e+02   2.016109e+02
   1.171306e+01   4.194450e+02
  -2.755046e+02   1.600817e+02
  -3.397227e+02  -3.525208e+02
  -2.275233e+01  -6.325560e+02
   3.980648e+02  -4.165487e+02
   4.950738e+02   5.253633e+01
   2.215857e+02   3.168216e+02
  -3.654478e+01   2.461198e+02
   1.767072e+01   1.305056e+02
   2.148867e+02   2.188546e+02
   1.832133e+02   3.723892e+02
  -1.465700e+02   3.032871e+02
  -4.604682e+02   5.828804e+00
  -4.410375e+02  -2.383289e+02
  -1.012080e+02  -2.255716e+02
   2.575980e+02  -2.621612e+01
   3.377397e+02   1.751372e+02
   9.621018e+01   2.735196e+02
  -2.350918e+02   2.439357e+02
  -3.747118e+02   9.244446e+01
  -2.658288e+02  -1.048686e+02
  -1.057732e+02  -2.021975e+02
  -8.569987e+01  -1.285894e+02
  -1.662186e+02  -3.616409e+00
  -1.713732e+02  -2.038466e+01
  -4.000352e+01  -2.045315e+02
   1.179347e+02  -3.565700e+02
   1.847435e+02  -2.761471e+02
   1.461855e+02  -1.558934e+01
   4.755606e+01   1.498283e+02
  -4.793041e+01   3.305873e+01
  -4.275399e+01  -2.222264e+02
   1.296600e+02  -2.819209e+02
   3.650247e+02  -1.457845e+01
   4.163161e+02   3.364070e+02
   1.568135e+02   4.321050e+02
  -2.358119e+02   2.225892e+02
  -4.423803e+02  -4.486330e+01
  -3.257731e+02  -1.584620e+02
  -3.400012e+01  -1.426662e+02
   1.857694e+02  -1.127821e+02
   2.091271e+02  -8.504553e+01
   9.646485e+01  -2.514426e+01
   7.207463e+00   2.771592e+01
   4.726647e+01   2.196127e+01
   1.485036e+02   2.058571e+01
   1.206610e+02   1.181238e+02
  -1.113960e+02   2.408448e+02
  -3.509365e+02   1.831796e+02
  -3.138872e+02  -1.050668e+02
   1.937736e+01  -3.886166e+02
   3.465115e+02  -3.944373e+02
   3.881641e+02  -1.224073e+02
   1.954203e+02   1.790513e+02
   3.122388e+01   3.058369e+02
   2.106992e+01   2.741325e+02
   4.456673e+01   2.146521e+02
  -4.254366e+01   1.853986e+02
  -2.039366e+02   1.331406e+02
  -2.867691e+02   1.395399e+00
  -2.123749e+02  -1.674609e+02
  -4.123425e+01  -2.467528e+02
   1.111827e+02  -1.459528e+02
   1.628164e+02   7.760596e+01
   8.898009e+01   2.444888e+02
  -7.435769e+01   2.154256e+02
  -2.302576e+02   2.301064e+01
  -2.678835e+02  -1.753738e+02
  -1.554500e+02  -2.600400e+02
   1.736148e+01  -2.362798e+02
   1.249980e+02  -1.775983e+02
   1.460742e+02  -1.317195e+02
   1.835091e+02  -9.109744e+01
   3.093252e+02  -1.668786e+01
   4.176748e+02   1.239646e+02
   3.104344e+02   3.082961e+02
  -4.256612e+01   4.335692e+02
  -3.984739e+02   3.826512e+02
  -4.724588e+02   1.525883e+02
  -2.503824e+02  -1.059502e+02
   6.323164e+00  -2.192171e+02
   6.714894e+01  -1.571517e+02
  -3.814476e+01  -4.375324e+01
  -1.213633e+02  -8.824334e+00
  -8.124812e+01  -5.967244e+01
   2.189698e+01  -1.010930e+02
   8.341500e+01  -5.580105e+01
   5.836571e+01   4.553845e+01
  -3.578414e+01   8.528748e+01
  -1.358139e+02  -2.377985e+01
  -1.415240e+02  -2.251221e+02
   1.237437e+01  -3.363465e+02
   2.511614e+02  -2.189937e+02
   3.820734e+02   6.206662e+01
   2.803501e+02   2.831249e+02
   3.421528e+01   2.845323e+02
  -1.417549e+02   1.248875e+02
  -1.311650e+02  -6.088140e+00
  -1.732158e+01  -3.084298e-01
   3.651790e+01   7.881243e+01
  -2.965909e+01   1.049895e+02
  -1.245960e+02   4.045326e+01
  -1.224188e+02  -3.862270e+01
  -1.045849e+01  -4.184905e+01
   8.417479e+01   3.574295e+01
   2.509789e+01   1.098719e+02
  -1.705256e+02   8.869499e+01
  -3.198650e+02  -4.099288e+01
  -2.531729e+02  -1.978254e+02
  -4.551560e-01  -2.714177e+02
   2.289542e+02  -2.123255e+02
   2.584676e+02  -7.143753e+01
   1.121243e+02   4.243131e+01
  -3.480919e+01   5.330053e+01
  -4.324305e+01  -1.571732e+01
   7.030152e+01  -6.308543e+01
   1.769652e+02  -1.077524e+01
   1.668819e+02   1.068669e+02
   4.372359e+01   1.723264e+02
  -8.519193e+01   1.168152e+02
  -1.098462e+02   5.954560e+00
  -2.605564e+01  -3.233559e+01
   5.439592e+01   4.175403e+01
   1.829648e+01   1.333337e+02
  -1.205096e+02   1.231110e+02
  -2.243792e+02  -2.899027e+00
  -1.745193e+02  -1.473198e+02
   4.326518e-01  -2.022035e+02
   1.512036e+02  -1.381172e+02
   1.586419e+02  -1.340650e+01
   4.614425e+01   7.851145e+01
  -5.802482e+01   8.077214e+01
  -5.888792e+01   1.916751e+01
   1.375044e+01  -2.369720e+01
   5.070171e+01  -1.448261e-01
  -8.717299e+00   4.084151e+01
  -1.051231e+02   9.905949e+00
  -1.205310e+02  -1.025180e+02
  -6.075934e+00  -1.936772e+02
   1.605426e+02  -1.551303e+02
   2.460405e+02   5.758577e+00
   1.844584e+02   1.701300e+02
   3.085347e+01   2.232312e+02
  -9.687853e+01   1.508862e+02
  -1.243597e+02   3.331443e+01
  -7.679230e+01  -3.509807e+01
  -3.854316e+01  -2.364823e+01
  -5.837569e+01   1.614605e+01
  -9.582062e+01   7.012780e+00
  -6.927907e+01  -6.548428e+01
   3.962390e+01  -1.237116e+02
   1.431049e+02  -7.886481e+01
   1.271113e+02   5.435568e+01
  -2.261781e+01   1.491071e+02
  -1.868442e+02   9.362309e+01
  -2.161098e+02  -8.225076e+01
  -6.986250e+01  -2.274588e+02
   1.455138e+02  -2.168702e+02
   2.719916e+02  -6.613146e+01
   2.337047e+02   9.789213e+01
   8.792174e+01   1.644370e+02
  -4.283755e+01   1.300598e+02
  -8.431588e+01   7.595594e+01
  -6.217281e+01   7.047095e+01
  -5.218519e+01   9.859588e+01
  -9.032118e+01   8.502773e+01
  -1.363685e+02  -1.579458e+01
  -1.211173e+02  -1.561766e+02
  -2.250091e+01  -2.276502e+02
   1.039776e+02  -1.622141e+02
   1.668427e+02  -2.011375e+00
   1.174163e+02   1.339182e+02
  -7.350940e-01   1.543271e+02
  -8.359933e+01   7.040273e+01
  -6.500750e+01  -2.794700e+01
   1.219273e+01  -6.348054e+01
   4.135784e+01  -3.690024e+01
  -2.031185e+01  -6.475343e+00
  -9.036255e+01  -1.436410e+01
  -5.519830e+01  -4.288505e+01
   8.281921e+01  -4.248926e+01
   1.897653e+02   7.961456e+00
   1.464989e+02   7.610023e+01
  -1.548356e+01   1.068135e+02
  -1.489298e+02   7.243952e+01
  -1.474370e+02  -2.646855e+00
  -4.048410e+01  -5.922524e+01
   6.112973e+01  -4.972881e+01
   8.118731e+01   1.793265e+01
   2.866525e+01   8.003651e+01
  -3.894383e+01   7.428247e+01
  -7.457519e+01   6.169366e+00
  -7.051618e+01  -5.274099e+01
  -5.257881e+01  -4.572896e+01
  -5.104099e+01  -1.286794e+00
  -6.482492e+01  -1.646825e+00
  -5.279769e+01  -7.845566e+01
   2.291043e+01  -1.618160e+02
   1.364064e+02  -1.517344e+02
   1.980147e+02  -3.305199e+01
   1.389359e+02   1.003947e+02
  -2.493098e+00   1.413264e+02
  -1.006153e+02   7.681749e+01
  -6.563645e+01  -7.272625e+00
   5.805145e+01  -2.138592e+01
   1.319704e+02   4.039605e+01
   6.609776e+01   1.064477e+02
  -8.745047e+01   1.065890e+02
  -1.887251e+02   3.642243e+01
  -1.516717e+02  -4.797243e+01
  -2.444538e+01  -8.423170e+01
   6.756567e+01  -5.303000e+01
   4.819489e+01   8.935221e+00
  -4.217613e+01   3.503608e+01
  -9.610999e+01  -1.690845e+01
  -4.722892e+01  -1.145425e+02
   6.856122e+01  -1.602958e+02
   1.507586e+02  -8.020163e+01
   1.287571e+02   8.312671e+01
   2.314612e+01   1.893095e+02
  -7.887629e+01   1.387678e+02
  -1.038256e+02  -1.562855e+01
  -5.020613e+01  -1.229149e+02
   2.311924e+01  -9.960837e+01
   5.678913e+01  -9.564242e+00
   3.981534e+01   3.314132e+01
   9.113312e+00   5.909292e+00
   7.507441e+00  -1.488194e+01
   3.880620e+01   2.726415e+01
   6.010706e+01   9.208244e+01
   2.397677e+01   1.013373e+02
  -6.395649e+01   3.977220e+01
  -1.345643e+02  -3.489806e+01
  -1.175368e+02  -6.756656e+01
  -1.920315e+01  -5.666736e+01
   7.461313e+01  -3.010889e+01
   8.516534e+01  -4.449995e+00
   2.304093e+01   1.567098e+01
  -3.083406e+01   2.119076e+01
  -2.386830e+01   7.961022e+00
   9.338581e+00  -6.567650e+00
  -6.356507e-01  -2.372079e+00
  -6.066664e+01   6.505003e+00
  -9.553364e+01  -1.896041e+01
  -3.449611e+01  -8.299126e+01
   9.727016e+01  -1.249324e+02
   1.919330e+02  -7.682858e+01
   1.656002e+02   4.969858e+01
   4.100829e+01   1.582966e+02
  -8.052284e+01   1.625632e+02
  -1.196353e+02   7.433045e+01
  -8.180174e+01  -1.600054e+01
  -2.854108e+01  -4.041682e+01
  -7.185498e+00  -1.735881e+01
  -1.707695e+01  -1.246844e+01
  -2.839862e+01  -5.218203e+01
  -1.468481e+01  -9.254390e+01
   2.867530e+01  -7.308825e+01
   7.721979e+01   1.056158e+01
   8.547974e+01   9.542684e+01
   2.527800e+01   1.101420e+02
  -6.879084e+01   4.165823e+01
  -1.109702e+02  -5.423611e+01
  -4.979712e+01  -1.033585e+02
   6.157592e+01  -7.425428e+01
   1.107968e+02   2.263345e+00
   5.273619e+01   6.472417e+01
  -3.546076e+01   7.162040e+01
  -4.795802e+01   3.074524e+01
   1.963210e+01  -1.172506e+01
   6.812875e+01  -1.239654e+01
   2.201718e+01   2.931369e+01
  -7.743347e+01   6.722905e+01
  -1.258570e+02   5.077468e+01
  -7.857210e+01  -2.067251e+01
   1.020856e+01  -8.823509e+01
   6.174414e+01  -8.824079e+01
   5.269201e+01  -1.981844e+01
   1.364438e+01   4.978077e+01
  -2.128338e+01   5.413536e+01
  -3.823748e+01  -2.591516e+00
  -3.183873e+01  -5.369318e+01
  -1.606160e+00  -4.647932e+01
   3.426594e+01   1.247690e+00
   4.481763e+01   2.874120e+01
   2.120869e+01   7.832987e+00
  -6.812347e+00  -2.522306e+01
  -6.231022e+00  -1.837250e+01
   1.390428e+01   2.854374e+01
   1.289762e+01   6.093868e+01
  -2.276325e+01   3.539924e+01
  -5.191946e+01  -2.613691e+01
  -2.746485e+01  -5.979550e+01
   3.659297e+01  -3.178818e+01
   7.000232e+01   2.674688e+01
   2.599544e+01   5.841650e+01
  -5.863498e+01   3.962156e+01
  -9.888211e+01  -5.950082e+00
  -5.423701e+01  -4.195475e+01
   2.791823e+01  -5.110735e+01
   6.634335e+01  -3.607905e+01
   3.341543e+01  -9.379236e+00
  -2.121792e+01   9.371372e+00
  -3.084058e+01   2.686193e+00
   1.598947e+01  -2.147399e+01
   6.749783e+01  -2.499649e+01
