
 $NMID
 id='ANONYMOUS ', fmtdat='(2E16.6)'
 volume=1.0
 tramp=1.0
 $END
  -4.665651e+03  -3.544922e+01
  -2.659842e+03  -2.878510e+03
   8.999855e+02  -2.953543e+03
   2.334769e+03  -8.477737e+02
   9.817912e+02   8.230252e+02
  -7.873896e+02   6.516778e+02
  -9.955344e+02  -5.097221e+02
   3.102329e+01  -1.183741e+03
   9.281928e+02  -8.285389e+02
   1.017524e+03   1.410982e+02
   4.574215e+02   9.568669e+02
  -3.014939e+02   9.576386e+02
  -7.139539e+02   1.009912e+02
  -4.094469e+02  -7.976740e+02
   3.148463e+02  -8.062954e+02
   6.625756e+02   2.897497e+01
   2.695089e+02   7.437582e+02
  -3.775698e+02   6.585119e+02
  -6.280884e+02   5.963464e+01
  -3.910564e+02  -3.992848e+02
   6.064130e+00  -4.668751e+02
   2.728753e+02  -2.735926e+02
   2.417594e+02  -7.267744e+00
  -1.079107e+02   1.120902e+02
  -4.368854e+02  -9.954161e+01
  -2.300569e+02  -4.578613e+02
   4.796494e+02  -4.549336e+02
   9.134715e+02   7.355907e+01
   4.698680e+02   6.011819e+02
  -4.221110e+02   5.368049e+02
  -8.071690e+02  -3.237017e+01
  -3.767569e+02  -5.215311e+02
   3.024324e+02  -5.579996e+02
   6.069231e+02  -2.126022e+02
   4.437691e+02   2.520922e+02
   6.659571e+01   5.184522e+02
  -2.335925e+02   3.094007e+02
  -2.064541e+02  -2.433654e+02
   1.726200e+02  -4.908916e+02
   4.960376e+02   5.484129e+00
   2.789829e+02   7.361056e+02
  -3.485765e+02   7.642761e+02
  -6.689513e+02   1.871666e-01
  -2.855816e+02  -6.128144e+02
   3.253307e+02  -3.562683e+02
   4.272400e+02   3.465329e+02
  -6.924114e+01   5.899756e+02
  -5.933441e+02   1.471403e+02
  -6.282737e+02  -4.346186e+02
  -1.668594e+02  -6.238377e+02
   4.131098e+02  -3.671283e+02
   6.694037e+02   8.587205e+01
   3.910390e+02   4.236902e+02
  -1.784672e+02   3.995122e+02
  -4.853409e+02   5.044805e+01
  -2.557926e+02  -2.320393e+02
   1.421302e+02  -1.251528e+02
   1.641523e+02   1.761291e+02
  -1.812544e+02   2.134419e+02
  -3.793662e+02  -8.343692e+01
  -1.478606e+02  -3.299625e+02
   2.244359e+02  -2.692659e+02
   3.446084e+02  -5.974600e+01
   1.899911e+02   9.177056e+01
  -3.323546e+01   2.143873e+02
  -2.207189e+02   3.239146e+02
  -3.442997e+02   2.301553e+02
  -3.084628e+02  -1.381120e+02
  -8.435649e+01  -4.637766e+02
   1.347423e+02  -4.102289e+02
   1.447640e+02  -1.090865e+02
   2.767395e+01   3.125579e+01
   3.010276e+01  -8.201925e+01
   1.910774e+02  -1.436577e+02
   2.924854e+02   4.393882e+01
   1.750562e+02   2.813666e+02
  -7.020766e+01   2.759289e+02
  -2.408371e+02   1.932923e+01
  -2.135594e+02  -2.485939e+02
   5.338011e+00  -3.119085e+02
   2.785179e+02  -1.285154e+02
   3.809604e+02   1.737762e+02
   1.948820e+02   3.734970e+02
  -1.123886e+02   3.252894e+02
  -2.473585e+02   1.196763e+02
  -1.590192e+02  -8.562848e+00
  -9.530854e+01   2.759429e+01
  -2.326439e+02   6.779877e+01
  -4.089345e+02  -5.619855e+01
  -3.410949e+02  -2.936081e+02
   2.098771e+00  -4.558408e+02
   3.697262e+02  -4.241166e+02
   5.053308e+02  -2.074100e+02
   3.544608e+02   9.640647e+01
   6.120806e+01   3.108221e+02
  -1.416512e+02   2.711712e+02
  -9.768861e+01   3.056385e+01
   1.114974e+02  -1.223784e+02
   2.144726e+02   4.353709e-01
   5.958097e+01   2.124089e+02
  -1.751755e+02   1.902799e+02
  -1.982324e+02  -6.404747e+01
   1.600496e+01  -2.109244e+02
   2.068600e+02  -3.916376e+01
   1.691894e+02   2.595205e+02
  -3.811142e+01   3.614132e+02
  -2.378245e+02   1.923654e+02
  -3.283943e+02  -6.941693e+01
  -2.813627e+02  -2.431842e+02
  -1.008096e+02  -2.685247e+02
   1.146648e+02  -1.672945e+02
   1.880947e+02  -2.355716e+01
   6.562279e+01   3.678349e+01
  -7.458831e+01  -3.551378e+01
  -3.615550e+01  -1.306640e+02
   1.278944e+02  -1.084640e+02
   1.901820e+02   1.099603e+01
   6.540108e+01   7.829525e+01
  -8.127699e+01   2.217083e+01
  -5.890368e+01  -7.098117e+01
   1.220978e+02  -8.658879e+01
   2.837615e+02  -5.632280e-01
   2.685722e+02   1.392037e+02
   6.576869e+01   2.591554e+02
  -1.857727e+02   2.711829e+02
  -2.950489e+02   1.342437e+02
  -1.819327e+02  -5.483813e+01
   2.406778e+01  -1.194702e+02
   9.930069e+01  -1.148716e+01
  -2.939191e+01   1.082690e+02
  -2.035008e+02   6.561640e+01
  -2.244331e+02  -1.061068e+02
  -7.328897e+01  -2.187600e+02
   9.913350e+01  -1.671941e+02
   1.525328e+02  -3.199866e+01
   7.797798e+01   4.396884e+01
  -2.455978e+01   8.032019e+00
  -3.917736e+01  -7.883235e+01
   6.816030e+01  -1.127834e+02
   1.989710e+02  -3.150273e+01
   1.970741e+02   1.245492e+02
   2.315444e+01   2.256580e+02
  -1.718895e+02   1.709259e+02
  -2.045485e+02   4.581260e+00
  -6.938244e+01  -1.229250e+02
   7.034776e+01  -1.185514e+02
   8.912626e+01  -3.271859e+01
   2.299651e+01   2.678583e+01
  -1.832341e+01   2.086952e+01
   1.055490e+01  -3.989371e+00
   6.812398e+01   1.217982e+01
   8.496532e+01   8.205320e+01
   1.478383e+01   1.568982e+02
  -1.255391e+02   1.537291e+02
  -2.367521e+02   2.853366e+01
  -2.072469e+02  -1.519685e+02
  -4.283624e+01  -2.450339e+02
   1.143984e+02  -1.760498e+02
   1.413522e+02  -2.625396e+01
   7.150947e+01   6.042235e+01
   2.791233e+01   3.874692e+01
   5.414001e+01  -1.140170e+01
   7.955765e+01  -5.572050e+00
   3.869530e+01   4.946405e+01
  -4.465782e+01   8.483350e+01
  -1.000852e+02   5.207102e+01
  -8.143170e+01  -3.487383e+01
   1.377891e+01  -1.073681e+02
   1.393217e+02  -8.509488e+01
   1.979314e+02   4.940417e+01
   1.048745e+02   2.024541e+02
  -1.048090e+02   2.338232e+02
  -2.724983e+02   1.003744e+02
  -2.658872e+02  -8.783264e+01
  -1.140117e+02  -1.831060e+02
   4.007343e+01  -1.526993e+02
   9.875007e+01  -8.661342e+01
   8.401717e+01  -7.052617e+01
   7.100361e+01  -9.155142e+01
   9.537344e+01  -7.355898e+01
   1.297579e+02   2.448749e+01
   1.182846e+02   1.580578e+02
   2.926491e+01   2.308591e+02
  -1.014275e+02   1.763973e+02
  -1.804204e+02   2.209208e+01
  -1.406903e+02  -1.237958e+02
  -2.089503e+01  -1.637916e+02
   6.731958e+01  -9.638416e+01
   6.057704e+01  -3.603222e+00
   6.462840e+00   4.090533e+01
  -7.296314e+00   3.457521e+01
   3.875572e+01   2.021762e+01
   7.930326e+01   2.504240e+01
   4.391040e+01   3.890305e+01
  -6.302801e+01   3.614184e+01
  -1.569325e+02   2.583727e+00
  -1.448276e+02  -5.057600e+01
  -1.837309e+01  -8.786239e+01
   1.201054e+02  -7.431358e+01
   1.476375e+02  -1.436349e+01
   4.984224e+01   3.988740e+01
  -6.161775e+01   3.621429e+01
  -7.654842e+01  -2.017495e+01
  -4.736023e+00  -6.856439e+01
   5.937719e+01  -5.673696e+01
   6.323923e+01   3.726368e+00
   4.140798e+01   5.132350e+01
   4.276250e+01   4.267752e+01
   6.363479e+01   2.951548e+00
   6.749218e+01   1.141163e+00
   3.308468e+01   6.806386e+01
  -3.599565e+01   1.460787e+02
  -1.173636e+02   1.411383e+02
  -1.633607e+02   3.203872e+01
  -1.226347e+02  -9.277518e+01
  -6.521693e+00  -1.265270e+02
   8.643327e+01  -5.992380e+01
   6.024663e+01   1.670516e+01
  -6.044962e+01   1.975552e+01
  -1.401963e+02  -4.569591e+01
  -7.751906e+01  -1.098809e+02
   8.216278e+01  -1.143206e+02
   1.949282e+02  -5.314299e+01
   1.664902e+02   3.399594e+01
   3.881094e+01   8.874872e+01
  -6.169040e+01   7.296501e+01
  -4.998490e+01   8.998881e+00
   3.927242e+01  -2.608877e+01
   9.132376e+01   2.429570e+01
   3.096649e+01   1.215310e+02
  -9.683035e+01   1.556230e+02
  -1.728264e+02   6.012435e+01
  -1.279478e+02  -1.052794e+02
  -7.475649e+00  -2.020567e+02
   8.890781e+01  -1.466502e+02
   1.064149e+02   6.613987e+00
   6.196332e+01   1.198405e+02
  -1.249943e-01   1.090427e+02
  -4.546295e+01   2.137111e+01
  -5.411044e+01  -3.187743e+01
  -2.833173e+01  -9.194414e+00
  -3.723681e+00   2.156253e+01
  -1.858573e+01  -1.417027e+01
  -5.535523e+01  -9.013489e+01
  -4.403934e+01  -1.125218e+02
   4.598915e+01  -4.613561e+01
   1.407949e+02   4.191680e+01
   1.330596e+02   7.372593e+01
   1.719228e+01   4.990772e+01
  -9.130327e+01   2.089745e+01
  -9.032833e+01   7.397353e+00
  -9.453921e+00  -6.668011e+00
   4.035283e+01  -2.255501e+01
   1.331807e+01  -1.953277e+01
  -2.322737e+01   7.957170e-01
   6.382036e+00   1.007028e+01
   7.716696e+01   5.895482e+00
   9.231420e+01   2.580634e+01
   4.604395e+00   8.148688e+01
  -1.242582e+02   1.136253e+02
  -1.884698e+02   5.514275e+01
  -1.404092e+02  -7.225157e+01
  -2.262642e+01  -1.653594e+02
   8.173345e+01  -1.498231e+02
   1.160426e+02  -5.626053e+01
   8.153296e+01   2.342389e+01
   2.442807e+01   3.563205e+01
  -4.410525e+00   7.836908e+00
   9.431067e+00   3.255107e+00
   3.365078e+01   4.591210e+01
   2.307810e+01   9.125947e+01
  -3.048948e+01   7.223620e+01
  -8.269845e+01  -2.061964e+01
  -7.613095e+01  -1.124204e+02
  -6.074570e-01  -1.143486e+02
   8.562118e+01  -2.119657e+01
   1.029304e+02   8.032513e+01
   2.923971e+01   1.055570e+02
  -6.880574e+01   5.349280e+01
  -9.768231e+01  -1.440981e+01
  -3.741954e+01  -5.018991e+01
   3.365435e+01  -4.973920e+01
   3.007593e+01  -2.779534e+01
  -3.636426e+01  -1.148353e+00
  -7.058781e+01   5.348232e+00
  -1.395841e+01  -2.516725e+01
   8.131380e+01  -6.593592e+01
   1.165767e+02  -5.904089e+01
   6.274455e+01   1.188950e+01
  -1.766587e+01   8.344535e+01
  -5.366223e+01   7.878281e+01
  -3.582095e+01   3.476597e+00
   5.479012e-01  -5.752314e+01
   2.722496e+01  -4.184823e+01
   3.661258e+01   2.088568e+01
   2.566113e+01   5.514391e+01
  -3.879265e+00   3.166258e+01
  -3.340275e+01  -9.925738e+00
  -3.929770e+01  -2.091812e+01
  -2.073795e+01  -5.456689e-01
  -2.584427e-01   1.307763e+01
   6.832886e+00  -5.476768e+00
   9.434239e+00  -3.812515e+01
   2.087277e+01  -4.349173e+01
   3.413332e+01  -4.244033e+00
   2.776483e+01   4.838427e+01
  -6.265256e+00   6.215538e+01
  -4.652559e+01   1.905704e+01
  -5.531067e+01  -4.208301e+01
  -1.260751e+01  -6.479617e+01
   5.563962e+01  -3.308112e+01
   8.873458e+01   1.795331e+01
   4.860777e+01   4.555954e+01
  -2.990091e+01   3.972433e+01
  -6.589101e+01   1.910129e+01
  -2.356745e+01   3.977386e+00
   3.971419e+01   3.921913e+00
   3.901492e+01   1.850106e+01
  -3.316565e+01   3.257055e+01
  -9.553129e+01   1.844988e+01
