
 $NMID
 id='ANONYMOUS ', fmtdat='(2E16.6)'
 volume=1.0
 tramp=1.0
 $END
   4.656663e+03   1.413261e+01
   2.676280e+03   2.854763e+03
  -8.708120e+02   2.955740e+03
  -2.321997e+03   8.735935e+02
  -9.943071e+02  -8.014553e+02
   7.684866e+02  -6.520121e+02
   9.903774e+02   4.966157e+02
  -2.219972e+01   1.176063e+03
  -9.183395e+02   8.325165e+02
  -1.016026e+03  -1.316686e+02
  -4.644200e+02  -9.502016e+02
   2.916546e+02  -9.581842e+02
   7.085964e+02  -1.078437e+02
   4.123533e+02   7.909839e+02
  -3.081347e+02   8.064624e+02
  -6.608411e+02  -2.330649e+01
  -2.750812e+02  -7.411009e+02
   3.717539e+02  -6.635025e+02
   6.287372e+02  -6.741491e+01
   3.965488e+02   3.954969e+02
  -1.105685e+00   4.676587e+02
  -2.699383e+02   2.759912e+02
  -2.396085e+02   1.058368e+01
   1.084433e+02  -1.078794e+02
   4.346126e+02   1.017388e+02
   2.275926e+02   4.558107e+02
  -4.787280e+02   4.520503e+02
  -9.105626e+02  -7.206682e+01
  -4.697407e+02  -5.960449e+02
   4.184599e+02  -5.337693e+02
   8.037908e+02   3.068699e+01
   3.767905e+02   5.183853e+02
  -3.002285e+02   5.571499e+02
  -6.053825e+02   2.143297e+02
  -4.444547e+02  -2.493263e+02
  -6.995187e+01  -5.162880e+02
   2.286906e+02  -3.099890e+02
   2.036715e+02   2.391405e+02
  -1.702662e+02   4.863954e+02
  -4.911902e+02  -5.367341e+00
  -2.779901e+02  -7.319410e+02
   3.440615e+02  -7.623673e+02
   6.646649e+02  -4.037862e+00
   2.867953e+02   6.074599e+02
  -3.208060e+02   3.551769e+02
  -4.251368e+02  -3.438426e+02
   6.771967e+01  -5.882739e+02
   5.919338e+02  -1.483511e+02
   6.296368e+02   4.327321e+02
   1.698324e+02   6.234449e+02
  -4.109663e+02   3.684842e+02
  -6.695875e+02  -8.306560e+01
  -3.939447e+02  -4.205697e+02
   1.743073e+02  -3.989180e+02
   4.833868e+02  -5.390844e+01
   2.580095e+02   2.277708e+02
  -1.385603e+02   1.248174e+02
  -1.636690e+02  -1.730186e+02
   1.787899e+02  -2.120543e+02
   3.782699e+02   8.109409e+01
   1.497733e+02   3.279686e+02
  -2.230189e+02   2.710740e+02
  -3.464979e+02   6.266382e+01
  -1.927809e+02  -9.227397e+01
   3.320384e+01  -2.179248e+02
   2.228239e+02  -3.265193e+02
   3.454500e+02  -2.304641e+02
   3.084927e+02   1.380681e+02
   8.580266e+01   4.632199e+02
  -1.315683e+02   4.110595e+02
  -1.428228e+02   1.121022e+02
  -2.883871e+01  -2.833483e+01
  -3.262500e+01   8.258463e+01
  -1.923876e+02   1.424985e+02
  -2.923629e+02  -4.478912e+01
  -1.748520e+02  -2.811971e+02
   6.989180e+01  -2.753903e+02
   2.404318e+02  -1.898542e+01
   2.134616e+02   2.486321e+02
  -5.142571e+00   3.117256e+02
  -2.783695e+02   1.285394e+02
  -3.815469e+02  -1.731417e+02
  -1.966131e+02  -3.729053e+02
   1.103614e+02  -3.261298e+02
   2.466205e+02  -1.221214e+02
   1.600551e+02   6.155376e+00
   9.711357e+01  -2.856402e+01
   2.343953e+02  -6.775749e+01
   4.108029e+02   5.631001e+01
   3.429411e+02   2.940856e+02
  -1.350790e+00   4.574301e+02
  -3.704760e+02   4.263419e+02
  -5.063696e+02   2.090643e+02
  -3.548159e+02  -9.564151e+01
  -6.170168e+01  -3.105257e+02
   1.401042e+02  -2.714288e+02
   9.618313e+01  -3.162103e+01
  -1.113459e+02   1.213574e+02
  -2.133601e+02  -2.209023e-01
  -5.967052e+01  -2.113533e+02
   1.736871e+02  -1.900409e+02
   1.973966e+02   6.304907e+01
  -1.534295e+01   2.100811e+02
  -2.064637e+02   3.926779e+01
  -1.703860e+02  -2.596387e+02
   3.684529e+01  -3.628686e+02
   2.386386e+02  -1.942024e+02
   3.308281e+02   6.891021e+01
   2.831326e+02   2.440561e+02
   1.010062e+02   2.694423e+02
  -1.149522e+02   1.676676e+02
  -1.879700e+02   2.395808e+01
  -6.546540e+01  -3.609038e+01
   7.433569e+01   3.594364e+01
   3.584082e+01   1.305616e+02
  -1.278877e+02   1.083567e+02
  -1.900164e+02  -1.067802e+01
  -6.526316e+01  -7.776558e+01
   8.142004e+01  -2.167071e+01
   5.875307e+01   7.156526e+01
  -1.230918e+02   8.717205e+01
  -2.853895e+02   6.355155e-01
  -2.697343e+02  -1.398585e+02
  -6.581408e+01  -2.600791e+02
   1.862620e+02  -2.719284e+02
   2.952696e+02  -1.348966e+02
   1.819597e+02   5.417038e+01
  -2.377054e+01   1.191052e+02
  -9.883322e+01   1.162236e+01
   2.964424e+01  -1.080586e+02
   2.036688e+02  -6.578936e+01
   2.249165e+02   1.057784e+02
   7.396078e+01   2.187834e+02
  -9.874938e+01   1.675540e+02
  -1.524383e+02   3.234128e+01
  -7.775899e+01  -4.360962e+01
   2.489383e+01  -7.334519e+00
   3.908745e+01   7.976882e+01
  -6.892515e+01   1.134377e+02
  -2.000106e+02   3.161824e+01
  -1.979002e+02  -1.248072e+02
  -2.362580e+01  -2.261921e+02
   1.717861e+02  -1.717711e+02
   2.048363e+02  -5.443567e+00
   6.985621e+01   1.225814e+02
  -7.003439e+01   1.187864e+02
  -8.896416e+01   3.302301e+01
  -2.266821e+01  -2.667246e+01
   1.873035e+01  -2.061074e+01
  -1.069247e+01   4.558831e+00
  -6.905614e+01  -1.186587e+01
  -8.599706e+01  -8.259646e+01
  -1.503037e+01  -1.580436e+02
   1.261742e+02  -1.546579e+02
   2.377430e+02  -2.879645e+01
   2.082061e+02   1.522556e+02
   4.360543e+01   2.456639e+02
  -1.140950e+02   1.768568e+02
  -1.416976e+02   2.691561e+01
  -7.215550e+01  -6.015975e+01
  -2.834405e+01  -3.866861e+01
  -5.442625e+01   1.165266e+01
  -8.013047e+01   5.778768e+00
  -3.937678e+01  -4.990898e+01
   4.468858e+01  -8.589667e+01
   1.010848e+02  -5.280452e+01
   8.246365e+01   3.523722e+01
  -1.381440e+01   1.084396e+02
  -1.404063e+02   8.581172e+01
  -1.990918e+02  -4.960601e+01
  -1.053200e+02  -2.033006e+02
   1.051489e+02  -2.347761e+02
   2.733150e+02  -1.010903e+02
   2.668291e+02   8.752703e+01
   1.147206e+02   1.832599e+02
  -3.979506e+01   1.531640e+02
  -9.871488e+01   8.717085e+01
  -8.389296e+01   7.114558e+01
  -7.083065e+01   9.231814e+01
  -9.556670e+01   7.432658e+01
  -1.305268e+02  -2.414266e+01
  -1.192915e+02  -1.584232e+02
  -2.994371e+01  -2.317415e+02
   1.013844e+02  -1.772549e+02
   1.809060e+02  -2.244996e+01
   1.412962e+02   1.240250e+02
   2.116614e+01   1.642585e+02
  -6.749486e+01   9.657851e+01
  -6.079090e+01   3.327701e+00
  -6.264358e+00  -4.132228e+01
   7.719596e+00  -3.466465e+01
  -3.877303e+01  -1.994562e+01
  -7.991768e+01  -2.482567e+01
  -4.435737e+01  -3.905129e+01
   6.350973e+01  -3.649639e+01
   1.580499e+02  -2.763759e+00
   1.455480e+02   5.076887e+01
   1.815579e+01   8.835318e+01
  -1.208357e+02   7.484842e+01
  -1.481958e+02   1.459402e+01
  -4.997611e+01  -4.016778e+01
   6.183352e+01  -3.673569e+01
   7.701815e+01   2.004009e+01
   5.240585e+00   6.910086e+01
  -5.926119e+01   5.746915e+01
  -6.372476e+01  -3.470351e+00
  -4.213635e+01  -5.155958e+01
  -4.319727e+01  -4.282764e+01
  -6.375625e+01  -2.723793e+00
  -6.775752e+01  -9.594211e-01
  -3.365909e+01  -6.849082e+01
   3.562746e+01  -1.470951e+02
   1.178047e+02  -1.421725e+02
   1.644915e+02  -3.252355e+01
   1.236383e+02   9.301676e+01
   6.719736e+00   1.272504e+02
  -8.691218e+01   6.061573e+01
  -6.066940e+01  -1.650126e+01
   6.063747e+01  -2.004029e+01
   1.408503e+02   4.541359e+01
   7.801770e+01   1.100719e+02
  -8.226417e+01   1.149294e+02
  -1.955085e+02   5.370086e+01
  -1.670707e+02  -3.383679e+01
  -3.904140e+01  -8.892590e+01
   6.177971e+01  -7.316001e+01
   5.009650e+01  -8.930723e+00
  -3.944791e+01   2.642811e+01
  -9.189055e+01  -2.406721e+01
  -3.168937e+01  -1.219470e+02
   9.645672e+01  -1.567459e+02
   1.731935e+02  -6.122328e+01
   1.288950e+02   1.050916e+02
   8.325609e+00   2.028138e+02
  -8.873563e+01   1.474724e+02
  -1.068407e+02  -6.469658e+00
  -6.239262e+01  -1.202085e+02
   1.167933e-01  -1.093183e+02
   4.572543e+01  -2.138644e+01
   5.423460e+01   3.184006e+01
   2.822541e+01   9.045598e+00
   3.711271e+00  -2.156233e+01
   1.894569e+01   1.443590e+01
   5.590895e+01   9.042950e+01
   4.430137e+01   1.126778e+02
  -4.629804e+01   4.631632e+01
  -1.414751e+02  -4.159876e+01
  -1.336591e+02  -7.355107e+01
  -1.741050e+01  -5.018516e+01
   9.145161e+01  -2.142730e+01
   9.062887e+01  -7.654111e+00
   9.673728e+00   6.844933e+00
  -4.033317e+01   2.277987e+01
  -1.343200e+01   1.945788e+01
   2.315418e+01  -9.916316e-01
  -6.384119e+00  -9.970077e+00
  -7.733918e+01  -5.479916e+00
  -9.286572e+01  -2.558407e+01
  -5.261673e+00  -8.196229e+01
   1.241628e+02  -1.147243e+02
   1.892837e+02  -5.619673e+01
   1.416646e+02   7.196072e+01
   2.346198e+01   1.660002e+02
  -8.171530e+01   1.508984e+02
  -1.165194e+02   5.707016e+01
  -8.199047e+01  -2.320222e+01
  -2.467579e+01  -3.580552e+01
   4.279112e+00  -8.057401e+00
  -9.557450e+00  -3.399310e+00
  -3.383146e+01  -4.609474e+01
  -2.330886e+01  -9.159281e+01
   3.040542e+01  -7.266037e+01
   8.308204e+01   2.032552e+01
   7.696817e+01   1.125081e+02
   1.283362e+00   1.148836e+02
  -8.578017e+01   2.187034e+01
  -1.038125e+02  -8.006419e+01
  -2.995483e+01  -1.059884e+02
   6.893684e+01  -5.423582e+01
   9.838356e+01   1.408181e+01
   3.788849e+01   5.056809e+01
  -3.376926e+01   5.035378e+01
  -3.039490e+01   2.798142e+01
   3.633969e+01   8.158400e-01
   7.087818e+01  -5.672558e+00
   1.418824e+01   2.532731e+01
  -8.144647e+01   6.648437e+01
  -1.170371e+02   5.947571e+01
  -6.324873e+01  -1.194852e+01
   1.742838e+01  -8.395911e+01
   5.383207e+01  -7.938609e+01
   3.626416e+01  -3.760972e+00
  -1.673228e-01   5.772192e+01
  -2.719110e+01   4.230227e+01
  -3.691908e+01  -2.062796e+01
  -2.601820e+01  -5.532086e+01
   3.784163e+00  -3.204112e+01
   3.362108e+01   9.760002e+00
   3.958078e+01   2.103263e+01
   2.081349e+01   5.950899e-01
   1.666106e-01  -1.333132e+01
  -6.757709e+00   5.187790e+00
  -9.011915e+00   3.826743e+01
  -2.043387e+01   4.410401e+01
  -3.422223e+01   4.832209e+00
  -2.843644e+01  -4.829586e+01
   5.642302e+00  -6.253332e+01
   4.658589e+01  -1.948213e+01
   5.593157e+01   4.195528e+01
   1.305076e+01   6.500774e+01
  -5.586203e+01   3.346242e+01
  -8.936351e+01  -1.765741e+01
  -4.904080e+01  -4.559882e+01
   2.993717e+01  -4.014988e+01
   6.619782e+01  -1.960327e+01
   2.381842e+01  -4.101378e+00
  -3.968890e+01  -3.580646e+00
  -3.919828e+01  -1.815179e+01
   3.294562e+01  -3.271049e+01
   9.553706e+01  -1.898215e+01
