
 $NMID
 id='ANONYMOUS ', fmtdat='(2E16.6)'
 volume=1.0
 tramp=1.0
 $END
   4.559901e+03   3.655709e+01
   2.671946e+03   2.746144e+03
  -7.427670e+02   2.905043e+03
  -2.218907e+03   9.824229e+02
  -1.040802e+03  -6.433096e+02
   6.353242e+02  -5.989730e+02
   9.102293e+02   4.336730e+02
  -5.877691e+00   1.100123e+03
  -8.651240e+02   8.169110e+02
  -9.871157e+02  -9.546442e+01
  -4.768215e+02  -9.049720e+02
   2.471336e+02  -9.394278e+02
   6.595356e+02  -1.300222e+02
   3.963073e+02   7.486024e+02
  -2.845588e+02   7.877194e+02
  -6.387538e+02  -4.622009e+00
  -2.889806e+02  -7.237363e+02
   3.435382e+02  -6.841725e+02
   6.277889e+02  -1.088129e+02
   4.227272e+02   3.729309e+02
   2.293018e+01   4.685238e+02
  -2.535803e+02   2.818879e+02
  -2.177133e+02   2.608686e+01
   1.233215e+02  -6.845384e+01
   4.148674e+02   1.416445e+02
   1.854847e+02   4.519367e+02
  -4.943389e+02   4.073914e+02
  -8.825804e+02  -1.009469e+02
  -4.380832e+02  -5.729724e+02
   4.142630e+02  -4.867764e+02
   7.730466e+02   5.409052e+01
   3.522082e+02   5.080816e+02
  -3.061484e+02   5.356571e+02
  -5.999488e+02   2.024426e+02
  -4.371646e+02  -2.436404e+02
  -7.449224e+01  -4.972173e+02
   1.993490e+02  -2.995750e+02
   1.648022e+02   2.157525e+02
  -1.766540e+02   4.388413e+02
  -4.504665e+02  -3.116669e+01
  -2.342897e+02  -7.106863e+02
   3.402588e+02  -7.273282e+02
   6.244159e+02  -3.684999e+00
   2.654428e+02   5.732066e+02
  -2.989882e+02   3.272492e+02
  -3.902479e+02  -3.419521e+02
   8.142958e+01  -5.700861e+02
   5.855613e+02  -1.326608e+02
   6.221121e+02   4.416214e+02
   1.692755e+02   6.243144e+02
  -4.068677e+02   3.609341e+02
  -6.652632e+02  -8.666330e+01
  -3.979400e+02  -4.071231e+02
   1.564423e+02  -3.818435e+02
   4.652393e+02  -6.094500e+01
   2.622651e+02   1.994866e+02
  -1.140063e+02   1.116785e+02
  -1.485458e+02  -1.542482e+02
   1.687505e+02  -1.899527e+02
   3.631696e+02   7.835760e+01
   1.501618e+02   3.152154e+02
  -2.201164e+02   2.759131e+02
  -3.619306e+02   7.591993e+01
  -2.138113e+02  -1.009295e+02
   3.721139e+01  -2.470902e+02
   2.511475e+02  -3.430142e+02
   3.650167e+02  -2.208609e+02
   3.036046e+02   1.506419e+02
   7.845192e+01   4.609729e+02
  -1.205999e+02   4.092435e+02
  -1.271132e+02   1.295180e+02
  -3.371466e+01  -3.114883e+00
  -5.682627e+01   8.962245e+01
  -2.113694e+02   1.267362e+02
  -2.911946e+02  -6.434003e+01
  -1.616362e+02  -2.877885e+02
   7.941523e+01  -2.680350e+02
   2.386971e+02  -5.635631e+00
   2.028519e+02   2.583774e+02
  -1.658282e+01   3.103048e+02
  -2.829182e+02   1.173232e+02
  -3.793031e+02  -1.830117e+02
  -1.955844e+02  -3.743657e+02
   1.056116e+02  -3.266507e+02
   2.425520e+02  -1.320386e+02
   1.656977e+02  -9.149659e+00
   1.125574e+02  -3.531609e+01
   2.526314e+02  -6.023952e+01
   4.253634e+02   7.178382e+01
   3.478718e+02   3.103788e+02
  -1.169029e+01   4.708104e+02
  -3.921673e+02   4.318862e+02
  -5.226054e+02   2.041028e+02
  -3.535660e+02  -1.034568e+02
  -5.283051e+01  -3.104884e+02
   1.380360e+02  -2.662968e+02
   8.341972e+01  -3.469791e+01
  -1.166539e+02   1.081005e+02
  -2.040007e+02  -8.688465e+00
  -5.041551e+01  -2.051113e+02
   1.695000e+02  -1.792115e+02
   1.867167e+02   6.392816e+01
  -1.952794e+01   2.017825e+02
  -2.049708e+02   3.118687e+01
  -1.703770e+02  -2.665660e+02
   3.912151e+01  -3.727602e+02
   2.515735e+02  -2.015010e+02
   3.486969e+02   7.508141e+01
   2.898892e+02   2.612505e+02
   9.301194e+01   2.816910e+02
  -1.240360e+02   1.668263e+02
  -1.877240e+02   1.950585e+01
  -6.183053e+01  -3.316510e+01
   7.142723e+01   4.308259e+01
   2.770984e+01   1.318479e+02
  -1.326939e+02   1.023745e+02
  -1.881094e+02  -1.604455e+01
  -6.029633e+01  -7.628067e+01
   8.436719e+01  -1.428799e+01
   5.542302e+01   7.930876e+01
  -1.346123e+02   8.858122e+01
  -2.997542e+02  -8.315042e+00
  -2.752874e+02  -1.552652e+02
  -5.685580e+01  -2.711139e+02
   2.010020e+02  -2.717992e+02
   3.024108e+02  -1.288537e+02
   1.794138e+02   5.605010e+01
  -2.668587e+01   1.148480e+02
  -9.534045e+01   8.093143e+00
   3.659097e+01  -1.055962e+02
   2.079797e+02  -5.922431e+01
   2.246754e+02   1.118070e+02
   7.084527e+01   2.215565e+02
  -1.020910e+02   1.663627e+02
  -1.528033e+02   2.891388e+01
  -7.376371e+01  -4.413450e+01
   2.903277e+01  -8.290161e-01
   3.637304e+01   8.963915e+01
  -7.937253e+01   1.174273e+02
  -2.104110e+02   2.582258e+01
  -2.005341e+02  -1.342946e+02
  -1.908631e+01  -2.315273e+02
   1.771832e+02  -1.720918e+02
   2.067541e+02  -4.748242e+00
   6.851517e+01   1.221348e+02
  -7.208091e+01   1.177129e+02
  -8.870836e+01   3.179672e+01
  -1.866252e+01  -2.713585e+01
   2.343383e+01  -1.822271e+01
  -1.130579e+01   9.165759e+00
  -7.622368e+01  -1.080287e+01
  -9.228725e+01  -8.954210e+01
  -1.219147e+01  -1.684033e+02
   1.369573e+02  -1.585342e+02
   2.474876e+02  -2.262946e+01
   2.109025e+02   1.622911e+02
   4.097003e+01   2.522757e+02
  -1.179355e+02   1.789697e+02
  -1.451379e+02   2.723265e+01
  -7.496927e+01  -6.014305e+01
  -3.037964e+01  -3.866335e+01
  -5.711463e+01   1.195701e+01
  -8.512940e+01   5.021525e+00
  -4.380488e+01  -5.450301e+01
   4.714538e+01  -9.332587e+01
   1.109901e+02  -5.634114e+01
   9.045826e+01   4.041085e+01
  -1.716869e+01   1.172632e+02
  -1.524954e+02   8.776501e+01
  -2.076003e+02  -5.806521e+01
  -1.020855e+02  -2.146554e+02
   1.166450e+02  -2.394830e+02
   2.840146e+02  -9.722569e+01
   2.713609e+02   9.482302e+01
   1.136423e+02   1.887044e+02
  -4.318765e+01   1.554097e+02
  -1.014506e+02   8.797657e+01
  -8.509665e+01   7.293890e+01
  -7.226716e+01   9.588120e+01
  -9.943017e+01   7.733609e+01
  -1.358771e+02  -2.559453e+01
  -1.220701e+02  -1.654078e+02
  -2.742539e+01  -2.400359e+02
   1.073660e+02  -1.806756e+02
   1.858427e+02  -1.874212e+01
   1.419350e+02   1.312296e+02
   1.737742e+01   1.690674e+02
  -7.284032e+01   9.587918e+01
  -6.324192e+01  -1.231168e+00
  -3.444208e+00  -4.548292e+01
   1.265038e+01  -3.574776e+01
  -3.780788e+01  -1.924165e+01
  -8.399569e+01  -2.549292e+01
  -4.684422e+01  -4.161712e+01
   6.876630e+01  -3.762174e+01
   1.677542e+02   7.042639e-01
   1.501417e+02   5.754022e+01
   1.335964e+01   9.375118e+01
  -1.296614e+02   7.555799e+01
  -1.535368e+02   1.123194e+01
  -4.993778e+01  -4.451578e+01
   6.460508e+01  -3.899384e+01
   8.016502e+01   2.147136e+01
   7.426206e+00   7.334430e+01
  -5.977055e+01   6.122302e+01
  -6.749976e+01  -3.267146e+00
  -4.661980e+01  -5.442751e+01
  -4.542467e+01  -4.538555e+01
  -6.449735e+01  -3.252313e+00
  -6.986753e+01  -1.847483e+00
  -3.637332e+01  -7.287700e+01
   3.725211e+01  -1.540815e+02
   1.262613e+02  -1.470051e+02
   1.751390e+02  -3.146432e+01
   1.289265e+02   9.900132e+01
   4.151189e+00   1.336755e+02
  -9.272995e+01   6.369536e+01
  -6.343667e+01  -1.672659e+01
   6.279963e+01  -2.026057e+01
   1.444486e+02   4.802049e+01
   7.814122e+01   1.144589e+02
  -8.720638e+01   1.170890e+02
  -2.022996e+02   5.128478e+01
  -1.707376e+02  -3.865065e+01
  -3.765574e+01  -9.190926e+01
   6.541498e+01  -7.253974e+01
   5.160622e+01  -6.453004e+00
  -4.165283e+01   2.798272e+01
  -9.560158e+01  -2.519057e+01
  -3.344691e+01  -1.260637e+02
   9.840887e+01  -1.621438e+02
   1.777042e+02  -6.406542e+01
   1.326356e+02   1.077336e+02
   8.246956e+00   2.088620e+02
  -9.241258e+01   1.508802e+02
  -1.102189e+02  -9.081916e+00
  -6.171538e+01  -1.255741e+02
   4.181340e+00  -1.118670e+02
   4.891326e+01  -2.002839e+01
   5.403662e+01   3.365231e+01
   2.680127e+01   9.101960e+00
   4.501870e+00  -2.143330e+01
   2.181389e+01   1.702359e+01
   5.740786e+01   9.467597e+01
   4.218745e+01   1.157010e+02
  -5.068707e+01   4.645578e+01
  -1.454072e+02  -4.388416e+01
  -1.357645e+02  -7.690623e+01
  -1.761008e+01  -5.307165e+01
   9.306442e+01  -2.241552e+01
   9.333769e+01  -6.527043e+00
   1.152251e+01   8.468499e+00
  -4.088068e+01   2.305204e+01
  -1.533245e+01   1.845795e+01
   2.235262e+01  -1.610132e+00
  -5.868332e+00  -9.396061e+00
  -7.817273e+01  -4.904678e+00
  -9.639443e+01  -2.682417e+01
  -8.136351e+00  -8.550557e+01
   1.268409e+02  -1.190691e+02
   1.974873e+02  -5.858530e+01
   1.492844e+02   7.376961e+01
   2.465092e+01   1.716282e+02
  -8.649097e+01   1.569671e+02
  -1.220726e+02   5.992259e+01
  -8.479554e+01  -2.412128e+01
  -2.559362e+01  -3.803736e+01
   3.202323e+00  -9.598761e+00
  -1.070770e+01  -4.858452e+00
  -3.378416e+01  -4.889275e+01
  -2.199558e+01  -9.526344e+01
   3.217178e+01  -7.505159e+01
   8.528010e+01   2.076612e+01
   7.973550e+01   1.155201e+02
   3.032385e+00   1.188107e+02
  -8.729676e+01   2.433412e+01
  -1.078819e+02  -8.108731e+01
  -3.232128e+01  -1.101434e+02
   7.142316e+01  -5.801020e+01
   1.035306e+02   1.442377e+01
   4.038523e+01   5.481983e+01
  -3.606170e+01   5.445363e+01
  -3.407552e+01   2.879963e+01
   3.571973e+01  -4.853269e-01
   7.328874e+01  -5.917838e+00
   1.534678e+01   2.701614e+01
  -8.473815e+01   6.811105e+01
  -1.230565e+02   5.909529e+01
  -6.725715e+01  -1.440216e+01
   1.820650e+01  -8.746409e+01
   5.784406e+01  -8.269386e+01
   3.988417e+01  -5.294887e+00
   9.646303e-01   5.900945e+01
  -2.808732e+01   4.508850e+01
  -3.840601e+01  -1.958061e+01
  -2.707086e+01  -5.752864e+01
   3.791296e+00  -3.504596e+01
   3.492212e+01   9.458110e+00
   4.135864e+01   2.329959e+01
   2.154040e+01   1.773473e+00
  -4.083238e-01  -1.538881e+01
  -6.733891e+00   2.355277e+00
  -6.815910e+00   3.861420e+01
  -1.772576e+01   4.797469e+01
  -3.445322e+01   8.563686e+00
  -3.210619e+01  -4.790376e+01
   2.412206e+00  -6.480450e+01
   4.742111e+01  -2.130433e+01
   5.943162e+01   4.241735e+01
   1.445975e+01   6.687891e+01
  -5.873248e+01   3.477528e+01
  -9.377236e+01  -1.800557e+01
  -5.100124e+01  -4.746068e+01
   3.138608e+01  -4.267051e+01
   6.907385e+01  -2.160507e+01
   2.600601e+01  -4.522859e+00
  -3.894358e+01  -2.349345e+00
  -3.961881e+01  -1.657925e+01
   3.229478e+01  -3.231271e+01
   9.583879e+01  -1.962556e+01
