
 $NMID
 id='ANONYMOUS ', fmtdat='(2E16.6)'
 volume=1.0
 tramp=1.0
 $END
   4.703870e+03   2.168785e+01
   2.669712e+03   2.880695e+03
  -9.022433e+02   2.946617e+03
  -2.318461e+03   8.375130e+02
  -9.492339e+02  -8.171437e+02
   8.087886e+02  -6.298183e+02
   9.935903e+02   5.295530e+02
  -4.262726e+01   1.191002e+03
  -9.340311e+02   8.276329e+02
  -1.016564e+03  -1.434709e+02
  -4.550501e+02  -9.579906e+02
   3.030810e+02  -9.548220e+02
   7.142939e+02  -9.302580e+01
   4.080364e+02   8.056544e+02
  -3.164343e+02   8.082877e+02
  -6.629333e+02  -3.072780e+01
  -2.716290e+02  -7.430973e+02
   3.705759e+02  -6.565066e+02
   6.201992e+02  -6.226819e+01
   3.888919e+02   3.927890e+02
  -3.550816e+00   4.631076e+02
  -2.716164e+02   2.726499e+02
  -2.403095e+02   2.523879e+00
   1.170978e+02  -1.199951e+02
   4.519225e+02   9.925506e+01
   2.366859e+02   4.699108e+02
  -4.894392e+02   4.683070e+02
  -9.285440e+02  -7.209776e+01
  -4.732705e+02  -6.105005e+02
   4.327654e+02  -5.450673e+02
   8.200365e+02   3.262205e+01
   3.819270e+02   5.284988e+02
  -3.048682e+02   5.664859e+02
  -6.120451e+02   2.180537e+02
  -4.472503e+02  -2.521487e+02
  -6.587700e+01  -5.207808e+02
   2.369489e+02  -3.059185e+02
   2.058313e+02   2.547763e+02
  -1.817497e+02   4.996938e+02
  -5.082114e+02  -1.062252e+01
  -2.836601e+02  -7.508094e+02
   3.537734e+02  -7.725604e+02
   6.752774e+02   4.968519e+00
   2.844520e+02   6.216764e+02
  -3.329787e+02   3.568816e+02
  -4.341293e+02  -3.543162e+02
   6.875730e+01  -5.985874e+02
   5.999910e+02  -1.521055e+02
   6.381458e+02   4.333334e+02
   1.731553e+02   6.260362e+02
  -4.146586e+02   3.719365e+02
  -6.750519e+02  -8.179392e+01
  -3.928722e+02  -4.226309e+02
   1.818258e+02  -3.995332e+02
   4.868992e+02  -4.945713e+01
   2.513633e+02   2.318777e+02
  -1.469070e+02   1.213345e+02
  -1.624834e+02  -1.809400e+02
   1.869921e+02  -2.148352e+02
   3.823777e+02   8.496465e+01
   1.479831e+02   3.312821e+02
  -2.223826e+02   2.715293e+02
  -3.415654e+02   6.615319e+01
  -1.927760e+02  -8.462159e+01
   2.369886e+01  -2.150912e+02
   2.131640e+02  -3.339869e+02
   3.456519e+02  -2.400291e+02
   3.149409e+02   1.368656e+02
   8.848365e+01   4.677519e+02
  -1.333017e+02   4.108241e+02
  -1.410494e+02   1.056331e+02
  -2.110550e+01  -3.148772e+01
  -2.622594e+01   8.868637e+01
  -1.939510e+02   1.520269e+02
  -2.997183e+02  -4.087926e+01
  -1.809008e+02  -2.845855e+02
   6.969291e+01  -2.810174e+02
   2.456596e+02  -2.178121e+01
   2.200220e+02   2.504290e+02
  -2.478084e+00   3.168033e+02
  -2.817000e+02   1.334124e+02
  -3.872529e+02  -1.716042e+02
  -1.994719e+02  -3.741617e+02
   1.105118e+02  -3.267288e+02
   2.453854e+02  -1.206696e+02
   1.555716e+02   6.772266e+00
   9.286204e+01  -3.219248e+01
   2.342343e+02  -7.537383e+01
   4.148546e+02   4.834714e+01
   3.493975e+02   2.901294e+02
   5.804381e+00   4.602943e+02
  -3.654924e+02   4.348938e+02
  -5.067445e+02   2.173033e+02
  -3.593673e+02  -9.388617e+01
  -6.463498e+01  -3.144003e+02
   1.417083e+02  -2.736115e+02
   9.796476e+01  -2.796341e+01
  -1.142932e+02   1.262035e+02
  -2.184942e+02  -6.314514e-01
  -6.057597e+01  -2.159419e+02
   1.777207e+02  -1.923395e+02
   2.007585e+02   6.555348e+01
  -1.630335e+01   2.138542e+02
  -2.099219e+02   4.118318e+01
  -1.740870e+02  -2.591501e+02
   3.260760e+01  -3.637201e+02
   2.348350e+02  -1.983479e+02
   3.313062e+02   6.200325e+01
   2.890451e+02   2.393741e+02
   1.073072e+02   2.705445e+02
  -1.135897e+02   1.716193e+02
  -1.901418e+02   2.543964e+01
  -6.574159e+01  -3.759584e+01
   7.736440e+01   3.542511e+01
   3.827346e+01   1.331664e+02
  -1.290015e+02   1.117589e+02
  -1.928691e+02  -9.671117e+00
  -6.632251e+01  -7.960286e+01
   8.331734e+01  -2.419980e+01
   6.206893e+01   7.129192e+01
  -1.209765e+02   9.102970e+01
  -2.868070e+02   7.247399e+00
  -2.749350e+02  -1.353498e+02
  -7.173369e+01  -2.617406e+02
   1.837017e+02  -2.781195e+02
   2.967453e+02  -1.396708e+02
   1.840497e+02   5.421136e+01
  -2.416894e+01   1.213689e+02
  -1.009111e+02   1.165942e+01
   2.888766e+01  -1.111037e+02
   2.055642e+02  -6.919664e+01
   2.281599e+02   1.045486e+02
   7.641436e+01   2.200287e+02
  -9.842398e+01   1.698937e+02
  -1.540038e+02   3.373492e+01
  -7.915976e+01  -4.460004e+01
   2.609374e+01  -9.779009e+00
   4.282145e+01   7.905243e+01
  -6.590891e+01   1.164838e+02
  -2.007045e+02   3.641947e+01
  -2.015352e+02  -1.223407e+02
  -2.682424e+01  -2.275921e+02
   1.710257e+02  -1.746909e+02
   2.057131e+02  -6.830762e+00
   7.073944e+01   1.234240e+02
  -6.992566e+01   1.203949e+02
  -8.969490e+01   3.363850e+01
  -2.371626e+01  -2.777777e+01
   1.859288e+01  -2.252921e+01
  -9.323620e+00   3.972549e+00
  -6.787376e+01  -9.860063e+00
  -8.755432e+01  -7.971651e+01
  -1.906804e+01  -1.577545e+02
   1.232811e+02  -1.582225e+02
   2.388592e+02  -3.359257e+01
   2.121300e+02   1.497785e+02
   4.699298e+01   2.463312e+02
  -1.127958e+02   1.788492e+02
  -1.416250e+02   2.844677e+01
  -7.222139e+01  -5.943002e+01
  -2.825605e+01  -3.819583e+01
  -5.409953e+01   1.260036e+01
  -7.984290e+01   7.623876e+00
  -4.025434e+01  -4.796411e+01
   4.209306e+01  -8.585695e+01
   9.866175e+01  -5.557963e+01
   8.303981e+01   3.196321e+01
  -1.043302e+01   1.084147e+02
  -1.381290e+02   8.978488e+01
  -2.011437e+02  -4.528033e+01
  -1.103206e+02  -2.028694e+02
   1.015161e+02  -2.387294e+02
   2.735477e+02  -1.062343e+02
   2.697325e+02   8.449163e+01
   1.176517e+02   1.831374e+02
  -3.824126e+01   1.546341e+02
  -9.820692e+01   8.857657e+01
  -8.335797e+01   7.181228e+01
  -6.961720e+01   9.279915e+01
  -9.426472e+01   7.558273e+01
  -1.307301e+02  -2.205593e+01
  -1.219102e+02  -1.567982e+02
  -3.366814e+01  -2.320525e+02
   9.927020e+01  -1.795775e+02
   1.819163e+02  -2.522859e+01
   1.443521e+02   1.227148e+02
   2.386008e+01   1.652341e+02
  -6.675697e+01   9.892914e+01
  -6.193786e+01   5.051988e+00
  -8.110441e+00  -4.156649e+01
   6.459617e+00  -3.606437e+01
  -3.901067e+01  -2.031243e+01
  -7.987119e+01  -2.341227e+01
  -4.499657e+01  -3.794202e+01
   6.245700e+01  -3.817915e+01
   1.580962e+02  -6.666226e+00
   1.475520e+02   4.803436e+01
   2.092184e+01   8.913297e+01
  -1.194269e+02   7.800051e+01
  -1.488974e+02   1.727424e+01
  -5.159872e+01  -3.944026e+01
   6.089371e+01  -3.751216e+01
   7.732152e+01   1.873896e+01
   6.309620e+00   6.806377e+01
  -5.821827e+01   5.743867e+01
  -6.333202e+01  -2.243586e+00
  -4.253710e+01  -4.990484e+01
  -4.388726e+01  -4.181603e+01
  -6.410651e+01  -2.218349e+00
  -6.798021e+01   1.834200e-02
  -3.481665e+01  -6.717977e+01
   3.305084e+01  -1.471794e+02
   1.150552e+02  -1.448195e+02
   1.636229e+02  -3.643681e+01
   1.253292e+02   9.051516e+01
   9.453468e+00   1.274560e+02
  -8.524577e+01   6.231133e+01
  -6.060526e+01  -1.555896e+01
   6.043101e+01  -2.091826e+01
   1.418151e+02   4.368842e+01
   8.000224e+01   1.095515e+02
  -8.080468e+01   1.168016e+02
  -1.957932e+02   5.698094e+01
  -1.687393e+02  -3.155235e+01
  -4.062874e+01  -8.910535e+01
   6.137391e+01  -7.487619e+01
   5.075073e+01  -1.001200e+01
  -3.872845e+01   2.704153e+01
  -9.209606e+01  -2.263172e+01
  -3.311244e+01  -1.212316e+02
   9.454581e+01  -1.574603e+02
   1.722623e+02  -6.288862e+01
   1.299863e+02   1.036637e+02
   1.077536e+01   2.027627e+02
  -8.707150e+01   1.489534e+02
  -1.075413e+02  -4.723334e+00
  -6.475038e+01  -1.198445e+02
  -1.694439e+00  -1.105667e+02
   4.570136e+01  -2.279021e+01
   5.516411e+01   3.155139e+01
   2.866838e+01   9.387150e+00
   3.552801e+00  -2.193020e+01
   1.931069e+01   1.317653e+01
   5.743053e+01   8.952174e+01
   4.613670e+01   1.131582e+02
  -4.555666e+01   4.792113e+01
  -1.422802e+02  -3.981515e+01
  -1.351592e+02  -7.228108e+01
  -1.844750e+01  -4.981168e+01
   9.127804e+01  -2.212560e+01
   9.089942e+01  -8.964525e+00
   9.875243e+00   6.037186e+00
  -4.028661e+01   2.313844e+01
  -1.337833e+01   2.031569e+01
   2.323646e+01  -7.394109e-01
  -6.380219e+00  -1.024642e+01
  -7.744019e+01  -5.112426e+00
  -9.314664e+01  -2.418362e+01
  -6.054665e+00  -8.092060e+01
   1.227031e+02  -1.157112e+02
   1.879229e+02  -5.901279e+01
   1.417842e+02   6.937575e+01
   2.551988e+01   1.654282e+02
  -7.905858e+01   1.522099e+02
  -1.151264e+02   5.881405e+01
  -8.224617e+01  -2.208763e+01
  -2.538869e+01  -3.524823e+01
   4.030320e+00  -7.535406e+00
  -9.824450e+00  -2.800591e+00
  -3.495688e+01  -4.573007e+01
  -2.500626e+01  -9.169669e+01
   2.932518e+01  -7.320554e+01
   8.330650e+01   1.944875e+01
   7.809826e+01   1.115027e+02
   2.476132e+00   1.142717e+02
  -8.517745e+01   2.226232e+01
  -1.041767e+02  -7.878931e+01
  -3.121752e+01  -1.050194e+02
   6.759695e+01  -5.477543e+01
   9.811269e+01   1.230761e+01
   3.900743e+01   4.923689e+01
  -3.220669e+01   5.064180e+01
  -2.956956e+01   2.911884e+01
   3.627034e+01   1.102586e+00
   7.072132e+01  -6.577923e+00
   1.461648e+01   2.478106e+01
  -8.059083e+01   6.773729e+01
  -1.164671e+02   6.193947e+01
  -6.358984e+01  -1.022852e+01
   1.610554e+01  -8.404110e+01
   5.219054e+01  -8.051511e+01
   3.535986e+01  -4.651080e+00
   1.895927e-01   5.746769e+01
  -2.624087e+01   4.236691e+01
  -3.661710e+01  -2.037431e+01
  -2.677342e+01  -5.482437e+01
   2.846280e+00  -3.168472e+01
   3.350864e+01   9.382305e+00
   4.017628e+01   2.010105e+01
   2.112421e+01   1.131487e-01
  -3.556399e-01  -1.287189e+01
  -7.577115e+00   5.733678e+00
  -9.220222e+00   3.781166e+01
  -1.977798e+01   4.294612e+01
  -3.328665e+01   4.374979e+00
  -2.798216e+01  -4.747973e+01
   5.392387e+00  -6.155585e+01
   4.609420e+01  -1.965086e+01
   5.586631e+01   4.090967e+01
   1.361482e+01   6.456382e+01
  -5.515192e+01   3.439785e+01
  -8.919191e+01  -1.613898e+01
  -4.962110e+01  -4.478038e+01
   2.898485e+01  -4.041591e+01
   6.539203e+01  -2.038257e+01
   2.341790e+01  -4.744841e+00
  -3.968791e+01  -3.892983e+00
  -3.894091e+01  -1.827176e+01
   3.322963e+01  -3.287563e+01
   9.572271e+01  -1.937359e+01
