
 $NMID
 id='ANONYMOUS ', fmtdat='(2E16.6)'
 volume=1.0
 tramp=1.0
 $END
  -4.857615e+03  -4.439341e+01
  -2.741702e+03  -3.054744e+03
   1.019429e+03  -3.096138e+03
   2.502213e+03  -8.116539e+02
   1.015550e+03   9.633394e+02
  -8.833585e+02   7.288203e+02
  -1.084135e+03  -5.520321e+02
   3.407412e+01  -1.268400e+03
   9.919776e+02  -8.671187e+02
   1.073121e+03   1.695620e+02
   4.658577e+02   1.020203e+03
  -3.417163e+02   1.005918e+03
  -7.712457e+02   9.622993e+01
  -4.342217e+02  -8.468644e+02
   3.415171e+02  -8.445891e+02
   7.001010e+02   4.188022e+01
   2.664435e+02   7.826266e+02
  -4.174066e+02   6.694452e+02
  -6.585960e+02   3.086142e+01
  -3.890227e+02  -4.351830e+02
   2.535277e+01  -4.864208e+02
   2.949963e+02  -2.797735e+02
   2.660623e+02  -1.420164e+00
  -9.342723e+01   1.341252e+02
  -4.507250e+02  -7.805656e+01
  -2.585511e+02  -4.655505e+02
   4.779469e+02  -4.865728e+02
   9.495949e+02   6.044423e+01
   5.028015e+02   6.296070e+02
  -4.306864e+02   5.778676e+02
  -8.435274e+02  -1.953874e+01
  -4.002280e+02  -5.408320e+02
   3.080360e+02  -5.831273e+02
   6.274937e+02  -2.215070e+02
   4.604286e+02   2.655651e+02
   6.563820e+01   5.472061e+02
  -2.584921e+02   3.300398e+02
  -2.393429e+02  -2.568119e+02
   1.667949e+02  -5.306752e+02
   5.286377e+02  -1.515272e+01
   3.115658e+02   7.625931e+02
  -3.599547e+02   8.056826e+02
  -7.129583e+02   4.025897e+00
  -3.095465e+02  -6.490486e+02
   3.445407e+02  -3.859475e+02
   4.579551e+02   3.534479e+02
  -6.433910e+01   6.144114e+02
  -6.124629e+02   1.567112e+02
  -6.451511e+02  -4.466493e+02
  -1.658810e+02  -6.435792e+02
   4.296647e+02  -3.796591e+02
   6.903654e+02   9.177527e+01
   3.996723e+02   4.492836e+02
  -1.940722e+02   4.244675e+02
  -5.130218e+02   4.760901e+01
  -2.658300e+02  -2.594457e+02
   1.589338e+02  -1.415577e+02
   1.811172e+02   1.903912e+02
  -1.891895e+02   2.337884e+02
  -3.996461e+02  -8.747481e+01
  -1.520694e+02  -3.490301e+02
   2.367763e+02  -2.730195e+02
   3.497196e+02  -4.637213e+01
   1.800944e+02   9.655303e+01
  -4.132067e+01   2.021277e+02
  -2.178317e+02   3.145131e+02
  -3.428299e+02   2.344801e+02
  -3.161221e+02  -1.365633e+02
  -8.729795e+01  -4.780340e+02
   1.488866e+02  -4.251039e+02
   1.639458e+02  -1.045490e+02
   3.167157e+01   4.871998e+01
   1.917695e+01  -7.388242e+01
   1.829426e+02  -1.506971e+02
   2.966072e+02   3.618570e+01
   1.837713e+02   2.842786e+02
  -6.749074e+01   2.855149e+02
  -2.459296e+02   2.594134e+01
  -2.214044e+02  -2.496775e+02
   1.380594e+00  -3.191932e+02
   2.826103e+02  -1.351839e+02
   3.895599e+02   1.762891e+02
   1.973300e+02   3.855111e+02
  -1.219157e+02   3.348643e+02
  -2.609015e+02   1.159758e+02
  -1.642273e+02  -2.091945e+01
  -9.095472e+01   1.956563e+01
  -2.275449e+02   6.742754e+01
  -4.081021e+02  -5.635892e+01
  -3.414248e+02  -2.973235e+02
   3.850616e+00  -4.589501e+02
   3.734846e+02  -4.244685e+02
   5.116394e+02  -2.075511e+02
   3.629482e+02   9.780742e+01
   6.529812e+01   3.185513e+02
  -1.485025e+02   2.815205e+02
  -1.093059e+02   3.192043e+01
   1.095375e+02  -1.315215e+02
   2.243538e+02  -4.860080e+00
   6.638295e+01   2.207601e+02
  -1.820649e+02   2.017964e+02
  -2.097068e+02  -6.469224e+01
   1.396187e+01  -2.209972e+02
   2.123126e+02  -4.350614e+01
   1.699915e+02   2.648562e+02
  -4.394220e+01   3.654452e+02
  -2.410039e+02   1.882063e+02
  -3.253909e+02  -7.556283e+01
  -2.790743e+02  -2.447226e+02
  -1.028772e+02  -2.682737e+02
   1.141298e+02  -1.694088e+02
   1.930047e+02  -2.513751e+01
   7.014090e+01   3.935606e+01
  -7.641182e+01  -3.232558e+01
  -4.048089e+01  -1.321272e+02
   1.284292e+02  -1.128222e+02
   1.955745e+02   9.511155e+00
   6.993514e+01   8.091985e+01
  -8.031757e+01   2.569373e+01
  -6.000629e+01  -6.823965e+01
   1.201136e+02  -8.424628e+01
   2.814853e+02   4.993226e-01
   2.680861e+02   1.382494e+02
   6.775493e+01   2.587588e+02
  -1.852054e+02   2.738719e+02
  -2.994585e+02   1.371862e+02
  -1.879096e+02  -5.650643e+01
   2.314936e+01  -1.246269e+02
   1.035884e+02  -1.384504e+01
  -2.657666e+01   1.109486e+02
  -2.060380e+02   6.841748e+01
  -2.287649e+02  -1.078452e+02
  -7.450572e+01  -2.236193e+02
   1.014617e+02  -1.711175e+02
   1.563508e+02  -3.341639e+01
   8.213988e+01   4.473262e+01
  -2.126769e+01   1.086136e+01
  -3.870539e+01  -7.502276e+01
   6.610155e+01  -1.104915e+02
   1.976057e+02  -3.132442e+01
   1.978156e+02   1.252413e+02
   2.299593e+01   2.283480e+02
  -1.756008e+02   1.728289e+02
  -2.094286e+02   2.645147e+00
  -7.117728e+01  -1.272293e+02
   7.213477e+01  -1.215507e+02
   9.197011e+01  -3.362497e+01
   2.569451e+01   2.652825e+01
  -1.567406e+01   2.155113e+01
   1.171076e+01  -1.107197e+00
   6.605388e+01   1.565833e+01
   8.121559e+01   8.280704e+01
   1.276394e+01   1.548751e+02
  -1.253789e+02   1.520896e+02
  -2.367909e+02   2.828294e+01
  -2.078502e+02  -1.532743e+02
  -4.162326e+01  -2.482204e+02
   1.178106e+02  -1.779961e+02
   1.438926e+02  -2.460091e+01
   7.139724e+01   6.366152e+01
   2.716150e+01   4.070355e+01
   5.435610e+01  -1.035362e+01
   7.883679e+01  -4.147850e+00
   3.557632e+01   4.971425e+01
  -4.724682e+01   8.190239e+01
  -9.860057e+01   4.804697e+01
  -7.747055e+01  -3.566003e+01
   1.547767e+01  -1.043599e+02
   1.376399e+02  -8.207091e+01
   1.961958e+02   4.994154e+01
   1.051026e+02   2.019911e+02
  -1.045949e+02   2.341212e+02
  -2.743291e+02   1.003221e+02
  -2.684820e+02  -8.987906e+01
  -1.149140e+02  -1.862154e+02
   4.132151e+01  -1.547053e+02
   1.011433e+02  -8.708037e+01
   8.697169e+01  -7.045256e+01
   7.408128e+01  -9.112486e+01
   9.742261e+01  -7.206869e+01
   1.298679e+02   2.698267e+01
   1.168744e+02   1.605134e+02
   2.728744e+01   2.325138e+02
  -1.035084e+02   1.771609e+02
  -1.821867e+02   2.195006e+01
  -1.415084e+02  -1.247683e+02
  -2.096033e+01  -1.651016e+02
   6.692821e+01  -9.768950e+01
   5.982240e+01  -5.213913e+00
   6.884502e+00   3.900825e+01
  -5.191558e+00   3.365233e+01
   4.047633e+01   2.138065e+01
   7.884615e+01   2.720585e+01
   4.272059e+01   3.960385e+01
  -6.243174e+01   3.461276e+01
  -1.550223e+02   7.368539e-01
  -1.442414e+02  -5.064416e+01
  -1.955722e+01  -8.625806e+01
   1.193692e+02  -7.271919e+01
   1.481885e+02  -1.400192e+01
   4.987466e+01   3.897616e+01
  -6.274614e+01   3.465471e+01
  -7.641753e+01  -2.147459e+01
  -1.832616e+00  -6.869851e+01
   6.236458e+01  -5.549772e+01
   6.290815e+01   5.533090e+00
   3.875576e+01   5.269821e+01
   4.165771e+01   4.341975e+01
   6.494514e+01   3.536115e+00
   6.803012e+01   1.840954e+00
   3.068803e+01   6.850917e+01
  -3.930757e+01   1.455488e+02
  -1.184613e+02   1.392188e+02
  -1.619795e+02   2.934193e+01
  -1.207528e+02  -9.453957e+01
  -5.384320e+00  -1.259211e+02
   8.693376e+01  -5.757511e+01
   6.019027e+01   1.836303e+01
  -6.122948e+01   1.908002e+01
  -1.411640e+02  -4.780054e+01
  -7.759228e+01  -1.113639e+02
   8.335646e+01  -1.144194e+02
   1.966571e+02  -5.255484e+01
   1.677648e+02   3.470905e+01
   3.918038e+01   8.967144e+01
  -6.193887e+01   7.400622e+01
  -5.005117e+01   9.874083e+00
   3.978909e+01  -2.500569e+01
   9.133882e+01   2.618999e+01
   2.862040e+01   1.234826e+02
  -1.014691e+02   1.556478e+02
  -1.766461e+02   5.740745e+01
  -1.278699e+02  -1.090715e+02
  -4.239602e+00  -2.045860e+02
   9.169008e+01  -1.472318e+02
   1.068790e+02   7.153278e+00
   6.170061e+01   1.206855e+02
   5.798028e-01   1.097762e+02
  -4.479796e+01   2.157172e+01
  -5.508578e+01  -3.223691e+01
  -2.992789e+01  -9.354895e+00
  -3.543393e+00   2.205169e+01
  -1.664369e+01  -1.396243e+01
  -5.417151e+01  -9.123824e+01
  -4.475690e+01  -1.140031e+02
   4.524567e+01  -4.588051e+01
   1.417002e+02   4.418946e+01
   1.342381e+02   7.578082e+01
   1.637214e+01   4.990873e+01
  -9.354374e+01   1.963564e+01
  -9.121979e+01   6.721742e+00
  -8.161507e+00  -6.461573e+00
   4.153032e+01  -2.253780e+01
   1.252537e+01  -2.010505e+01
  -2.456762e+01   4.264346e-01
   6.927686e+00   1.064720e+01
   7.907950e+01   7.381874e+00
   9.242334e+01   2.764016e+01
   1.337076e+00   8.259962e+01
  -1.286122e+02   1.125618e+02
  -1.903973e+02   5.145942e+01
  -1.389299e+02  -7.664896e+01
  -1.955683e+01  -1.675040e+02
   8.434923e+01  -1.487080e+02
   1.174980e+02  -5.371386e+01
   8.185324e+01   2.508873e+01
   2.370313e+01   3.584595e+01
  -5.650895e+00   7.383662e+00
   8.628977e+00   2.867130e+00
   3.353429e+01   4.594439e+01
   2.273285e+01   9.171260e+01
  -3.166657e+01   7.223992e+01
  -8.356373e+01  -2.234306e+01
  -7.491055e+01  -1.154535e+02
   2.528537e+00  -1.158976e+02
   8.812396e+01  -1.914492e+01
   1.025578e+02   8.416884e+01
   2.662578e+01   1.071422e+02
  -7.087273e+01   5.155166e+01
  -9.732772e+01  -1.689738e+01
  -3.549187e+01  -5.016509e+01
   3.482491e+01  -4.788457e+01
   2.926763e+01  -2.691921e+01
  -3.814505e+01  -2.157260e+00
  -7.138992e+01   4.062372e+00
  -1.301492e+01  -2.534806e+01
   8.285636e+01  -6.532212e+01
   1.169805e+02  -5.838018e+01
   6.150801e+01   1.241359e+01
  -1.943710e+01   8.349833e+01
  -5.449475e+01   7.764298e+01
  -3.516432e+01   1.401715e+00
   2.127371e+00  -5.876749e+01
   2.862433e+01  -4.095450e+01
   3.688858e+01   2.287217e+01
   2.470797e+01   5.600524e+01
  -5.061384e+00   3.078564e+01
  -3.361180e+01  -1.106014e+01
  -3.864307e+01  -2.103151e+01
  -2.062563e+01  -2.471185e-01
  -1.256817e+00   1.238844e+01
   6.390234e+00  -7.267595e+00
   1.148696e+01  -3.952822e+01
   2.451793e+01  -4.297491e+01
   3.600736e+01  -1.756648e+00
   2.603969e+01   5.127285e+01
  -9.560337e+00   6.342762e+01
  -4.807498e+01   1.787827e+01
  -5.436101e+01  -4.450019e+01
  -1.104001e+01  -6.611057e+01
   5.625964e+01  -3.202383e+01
   8.851423e+01   2.026954e+01
   4.798554e+01   4.679278e+01
  -3.096367e+01   3.875898e+01
  -6.685333e+01   1.711134e+01
  -2.311902e+01   3.062207e+00
   4.162559e+01   4.973762e+00
   4.015442e+01   2.048257e+01
  -3.476939e+01   3.362695e+01
  -9.856867e+01   1.760981e+01
