
 $NMID
 id='ANONYMOUS ', fmtdat='(2E16.6)'
 volume=1.0
 tramp=1.0
 $END
   4.622823e+03   4.292291e+01
   2.631438e+03   2.836253e+03
  -8.741776e+02   2.907905e+03
  -2.283543e+03   8.492519e+02
  -9.600116e+02  -7.822769e+02
   7.673499e+02  -6.197418e+02
   9.672947e+02   5.063526e+02
  -3.726816e+01   1.161124e+03
  -9.139124e+02   8.144078e+02
  -1.000781e+03  -1.364011e+02
  -4.516051e+02  -9.401825e+02
   2.929384e+02  -9.420161e+02
   6.975614e+02  -9.792836e+01
   3.993931e+02   7.870814e+02
  -3.099639e+02   7.949920e+02
  -6.517613e+02  -2.763696e+01
  -2.690398e+02  -7.332159e+02
   3.656848e+02  -6.540044e+02
   6.171570e+02  -6.731561e+01
   3.901432e+02   3.879475e+02
  -8.705961e-01   4.601825e+02
  -2.668434e+02   2.708317e+02
  -2.341598e+02   6.876834e+00
   1.155401e+02  -1.075419e+02
   4.373053e+02   1.074265e+02
   2.221866e+02   4.602807e+02
  -4.849545e+02   4.482799e+02
  -9.076228e+02  -7.998067e+01
  -4.594437e+02  -5.973265e+02
   4.247486e+02  -5.259857e+02
   8.006133e+02   3.886059e+01
   3.699098e+02   5.193852e+02
  -3.034467e+02   5.524859e+02
  -6.034043e+02   2.098662e+02
  -4.393720e+02  -2.495952e+02
  -6.513699e+01  -5.110696e+02
   2.281859e+02  -3.016223e+02
   1.956896e+02   2.435750e+02
  -1.788171e+02   4.813504e+02
  -4.902212e+02  -1.484977e+01
  -2.684664e+02  -7.340034e+02
   3.493428e+02  -7.537875e+02
   6.580646e+02   4.595546e+00
   2.763165e+02   6.058878e+02
  -3.231804e+02   3.467367e+02
  -4.192900e+02  -3.484036e+02
   7.246077e+01  -5.854552e+02
   5.905155e+02  -1.440377e+02
   6.253477e+02   4.328841e+02
   1.672950e+02   6.195614e+02
  -4.100342e+02   3.638268e+02
  -6.650641e+02  -8.497341e+01
  -3.880128e+02  -4.171567e+02
   1.761185e+02  -3.917293e+02
   4.779728e+02  -4.956707e+01
   2.509122e+02   2.246391e+02
  -1.389707e+02   1.186783e+02
  -1.580880e+02  -1.739037e+02
   1.813917e+02  -2.073027e+02
   3.741852e+02   8.390927e+01
   1.457348e+02   3.253050e+02
  -2.210848e+02   2.683588e+02
  -3.426226e+02   6.475104e+01
  -1.937343e+02  -8.881703e+01
   2.857677e+01  -2.184218e+02
   2.205039e+02  -3.294352e+02
   3.461702e+02  -2.309738e+02
   3.079418e+02   1.392769e+02
   8.336056e+01   4.613114e+02
  -1.313803e+02   4.058324e+02
  -1.382645e+02   1.090759e+02
  -2.439835e+01  -2.612191e+01
  -3.253492e+01   8.649426e+01
  -1.950349e+02   1.435879e+02
  -2.935448e+02  -4.631102e+01
  -1.734632e+02  -2.822425e+02
   7.178910e+01  -2.745804e+02
   2.410198e+02  -1.733564e+01
   2.125532e+02   2.496968e+02
  -6.640239e+00   3.114334e+02
  -2.788778e+02   1.272260e+02
  -3.800522e+02  -1.736789e+02
  -1.945521e+02  -3.709720e+02
   1.100195e+02  -3.227548e+02
   2.432266e+02  -1.204505e+02
   1.565062e+02   4.755193e+00
   9.606363e+01  -3.116165e+01
   2.350932e+02  -6.954956e+01
   4.111712e+02   5.508035e+01
   3.429089e+02   2.927339e+02
  -5.761877e-01   4.566417e+02
  -3.689334e+02   4.265129e+02
  -5.049255e+02   2.089933e+02
  -3.533813e+02  -9.639202e+01
  -6.009968e+01  -3.100167e+02
   1.405418e+02  -2.685655e+02
   9.441629e+01  -2.909135e+01
  -1.134152e+02   1.205188e+02
  -2.128710e+02  -2.765921e+00
  -5.721198e+01  -2.113077e+02
   1.745887e+02  -1.870286e+02
   1.954834e+02   6.497271e+01
  -1.737928e+01   2.088832e+02
  -2.064311e+02   3.785235e+01
  -1.697808e+02  -2.585351e+02
   3.581505e+01  -3.610889e+02
   2.367550e+02  -1.948828e+02
   3.302694e+02   6.637333e+01
   2.838878e+02   2.426441e+02
   1.014112e+02   2.697612e+02
  -1.151185e+02   1.677563e+02
  -1.874593e+02   2.308892e+01
  -6.422877e+01  -3.648039e+01
   7.483049e+01   3.671833e+01
   3.511038e+01   1.312032e+02
  -1.285137e+02   1.078380e+02
  -1.894891e+02  -1.164113e+01
  -6.411736e+01  -7.816249e+01
   8.232695e+01  -2.148230e+01
   5.936016e+01   7.215404e+01
  -1.227375e+02   8.834778e+01
  -2.856308e+02   2.038006e+00
  -2.704572e+02  -1.392773e+02
  -6.623142e+01  -2.604915e+02
   1.863173e+02  -2.721341e+02
   2.948951e+02  -1.342034e+02
   1.807474e+02   5.474823e+01
  -2.476636e+01   1.185073e+02
  -9.860637e+01   1.052671e+01
   3.045516e+01  -1.083171e+02
   2.037356e+02  -6.528036e+01
   2.241161e+02   1.058900e+02
   7.325764e+01   2.180846e+02
  -9.881192e+01   1.666610e+02
  -1.520498e+02   3.165244e+01
  -7.700296e+01  -4.420597e+01
   2.607270e+01  -7.630912e+00
   4.021639e+01   8.024938e+01
  -6.851310e+01   1.144920e+02
  -2.001854e+02   3.246158e+01
  -1.979912e+02  -1.243867e+02
  -2.364060e+01  -2.256966e+02
   1.711765e+02  -1.711102e+02
   2.036116e+02  -5.227176e+00
   6.893093e+01   1.220883e+02
  -7.010283e+01   1.180857e+02
  -8.861247e+01   3.247643e+01
  -2.233112e+01  -2.725887e+01
   1.929196e+01  -2.112647e+01
  -9.852154e+00   4.832894e+00
  -6.870187e+01  -1.063905e+01
  -8.671399e+01  -8.145088e+01
  -1.622627e+01  -1.579585e+02
   1.254888e+02  -1.553392e+02
   2.376766e+02  -2.943889e+01
   2.082587e+02   1.516804e+02
   4.374881e+01   2.448064e+02
  -1.135174e+02   1.761099e+02
  -1.408680e+02   2.700996e+01
  -7.163724e+01  -5.940948e+01
  -2.815081e+01  -3.810478e+01
  -5.414528e+01   1.192734e+01
  -7.995148e+01   6.387047e+00
  -3.999915e+01  -4.909704e+01
   4.339403e+01  -8.597403e+01
   1.003557e+02  -5.409670e+01
   8.308971e+01   3.403507e+01
  -1.259148e+01   1.086540e+02
  -1.398585e+02   8.708246e+01
  -1.994565e+02  -4.864487e+01
  -1.059245e+02  -2.032233e+02
   1.046895e+02  -2.351035e+02
   2.728096e+02  -1.014159e+02
   2.662280e+02   8.709371e+01
   1.143776e+02   1.826823e+02
  -3.964384e+01   1.526871e+02
  -9.821122e+01   8.683918e+01
  -8.320977e+01   7.074257e+01
  -6.999167e+01   9.192238e+01
  -9.472512e+01   7.439767e+01
  -1.300590e+02  -2.341253e+01
  -1.194310e+02  -1.574334e+02
  -3.051623e+01  -2.310122e+02
   1.007735e+02  -1.769728e+02
   1.805640e+02  -2.254986e+01
   1.412943e+02   1.237152e+02
   2.128782e+01   1.640395e+02
  -6.762456e+01   9.663594e+01
  -6.128358e+01   3.368342e+00
  -6.713075e+00  -4.173925e+01
   7.796656e+00  -3.531514e+01
  -3.828150e+01  -2.002928e+01
  -7.960808e+01  -2.415645e+01
  -4.452094e+01  -3.856849e+01
   6.320400e+01  -3.706240e+01
   1.580141e+02  -3.901479e+00
   1.458042e+02   5.027618e+01
   1.853025e+01   8.887002e+01
  -1.204596e+02   7.561187e+01
  -1.480267e+02   1.491360e+01
  -5.028574e+01  -4.021819e+01
   6.122134e+01  -3.692482e+01
   7.682848e+01   1.959791e+01
   5.889692e+00   6.844780e+01
  -5.834427e+01   5.719480e+01
  -6.341306e+01  -2.925251e+00
  -4.243637e+01  -5.064871e+01
  -4.334621e+01  -4.236030e+01
  -6.342627e+01  -2.749814e+00
  -6.753275e+01  -7.856065e-01
  -3.415880e+01  -6.782313e+01
   3.457714e+01  -1.465928e+02
   1.168691e+02  -1.426019e+02
   1.641046e+02  -3.371724e+01
   1.238473e+02   9.201364e+01
   7.372188e+00   1.271254e+02
  -8.618275e+01   6.114918e+01
  -6.037472e+01  -1.605357e+01
   6.032115e+01  -2.014492e+01
   1.403761e+02   4.491913e+01
   7.797972e+01   1.096659e+02
  -8.181286e+01   1.148908e+02
  -1.950006e+02   5.393195e+01
  -1.668267e+02  -3.358117e+01
  -3.901049e+01  -8.877405e+01
   6.179811e+01  -7.310185e+01
   5.026864e+01  -8.893458e+00
  -3.906570e+01   2.660942e+01
  -9.155967e+01  -2.351769e+01
  -3.198438e+01  -1.210498e+02
   9.529122e+01  -1.560128e+02
   1.718316e+02  -6.131068e+01
   1.283790e+02   1.041229e+02
   8.845290e+00   2.017034e+02
  -8.803487e+01   1.470277e+02
  -1.066890e+02  -6.210508e+00
  -6.257373e+01  -1.198816e+02
   1.241026e-01  -1.093773e+02
   4.584371e+01  -2.161881e+01
   5.408265e+01   3.186395e+01
   2.794467e+01   9.299075e+00
   3.796412e+00  -2.153264e+01
   1.936937e+01   1.400261e+01
   5.611604e+01   8.986387e+01
   4.414914e+01   1.124990e+02
  -4.626736e+01   4.665338e+01
  -1.409655e+02  -4.105884e+01
  -1.332282e+02  -7.313759e+01
  -1.768379e+01  -4.997567e+01
   9.075915e+01  -2.139141e+01
   9.033299e+01  -7.806368e+00
   9.962814e+00   6.574991e+00
  -4.007957e+01   2.263295e+01
  -1.364950e+01   1.957193e+01
   2.284525e+01  -8.204862e-01
  -6.190130e+00  -9.976511e+00
  -7.671808e+01  -5.448290e+00
  -9.253591e+01  -2.506362e+01
  -5.791742e+00  -8.106361e+01
   1.229219e+02  -1.142999e+02
   1.880550e+02  -5.690536e+01
   1.411789e+02   7.053840e+01
   2.394869e+01   1.649443e+02
  -8.066085e+01   1.507673e+02
  -1.155986e+02   5.750221e+01
  -8.165201e+01  -2.278405e+01
  -2.485176e+01  -3.555761e+01
   3.945873e+00  -7.877126e+00
  -9.792691e+00  -3.267582e+00
  -3.397041e+01  -4.599150e+01
  -2.350688e+01  -9.140606e+01
   3.002790e+01  -7.249913e+01
   8.262942e+01   2.001308e+01
   7.682034e+01   1.115535e+02
   1.776921e+00   1.139576e+02
  -8.486643e+01   2.189958e+01
  -1.032661e+02  -7.907803e+01
  -3.033579e+01  -1.050957e+02
   6.803639e+01  -5.430822e+01
   9.796335e+01   1.332931e+01
   3.836606e+01   5.006883e+01
  -3.304277e+01   5.051791e+01
  -3.028100e+01   2.839492e+01
   3.582259e+01   9.400490e-01
   7.046339e+01  -5.899730e+00
   1.437991e+01   2.506068e+01
  -8.090046e+01   6.647687e+01
  -1.167059e+02   5.981362e+01
  -6.339619e+01  -1.143072e+01
   1.692659e+01  -8.362963e+01
   5.325333e+01  -7.955939e+01
   3.592399e+01  -4.356710e+00
  -2.106039e-02   5.717715e+01
  -2.665400e+01   4.223096e+01
  -3.649844e+01  -2.025725e+01
  -2.614137e+01  -5.491299e+01
   3.307551e+00  -3.195259e+01
   3.337045e+01   9.527399e+00
   3.973362e+01   2.077575e+01
   2.090582e+01   5.698808e-01
  -1.909012e-01  -1.323608e+01
  -7.215724e+00   4.993183e+00
  -8.870044e+00   3.760818e+01
  -1.958397e+01   4.345870e+01
  -3.335010e+01   4.939885e+00
  -2.823196e+01  -4.735961e+01
   5.194472e+00  -6.162287e+01
   4.602340e+01  -1.946968e+01
   5.568798e+01   4.119952e+01
   1.320173e+01   6.442222e+01
  -5.545453e+01   3.366001e+01
  -8.896404e+01  -1.698776e+01
  -4.900722e+01  -4.513827e+01
   2.944888e+01  -4.017106e+01
   6.556451e+01  -1.990945e+01
   2.369196e+01  -4.419366e+00
  -3.914770e+01  -3.718391e+00
  -3.862359e+01  -1.796475e+01
   3.282637e+01  -3.226843e+01
   9.480636e+01  -1.870816e+01
