
 $NMID
 id='ANONYMOUS ', fmtdat='(2E16.6)'
 volume=1.0
 tramp=1.0
 $END
   4.623073e+03   7.265851e+01
   2.557341e+03   2.871708e+03
  -9.620094e+02   2.858409e+03
  -2.284732e+03   7.363487e+02
  -8.715630e+02  -8.545364e+02
   8.525265e+02  -6.016664e+02
   9.814648e+02   5.627585e+02
  -7.210127e+01   1.185156e+03
  -9.400101e+02   7.941150e+02
  -9.933027e+02  -1.675336e+02
  -4.219864e+02  -9.519555e+02
   3.237161e+02  -9.264478e+02
   7.108802e+02  -6.710257e+01
   3.885495e+02   8.072493e+02
  -3.276907e+02   7.873694e+02
  -6.504196e+02  -4.680319e+01
  -2.497262e+02  -7.303717e+02
   3.735916e+02  -6.236070e+02
   5.976633e+02  -3.968597e+01
   3.616446e+02   3.897505e+02
  -1.630914e+01   4.465094e+02
  -2.720585e+02   2.580755e+02
  -2.394203e+02  -9.411900e+00
   1.168988e+02  -1.331342e+02
   4.540467e+02   8.965615e+01
   2.412407e+02   4.691319e+02
  -4.835154e+02   4.712633e+02
  -9.197343e+02  -7.303129e+01
  -4.631481e+02  -6.134089e+02
   4.367094e+02  -5.438046e+02
   8.143740e+02   3.611917e+01
   3.746025e+02   5.266862e+02
  -3.038836e+02   5.582672e+02
  -6.025104e+02   2.103849e+02
  -4.351957e+02  -2.531282e+02
  -5.436848e+01  -5.142440e+02
   2.463462e+02  -2.944429e+02
   2.083385e+02   2.658300e+02
  -1.879115e+02   5.039815e+02
  -5.148439e+02  -1.283343e+01
  -2.819075e+02  -7.499620e+02
   3.594437e+02  -7.618470e+02
   6.728565e+02   1.811533e+01
   2.732175e+02   6.248470e+02
  -3.408031e+02   3.510759e+02
  -4.323666e+02  -3.562111e+02
   7.062578e+01  -5.918663e+02
   5.912163e+02  -1.474631e+02
   6.223360e+02   4.260531e+02
   1.634852e+02   6.113454e+02
  -4.102673e+02   3.607411e+02
  -6.592961e+02  -8.520649e+01
  -3.751031e+02  -4.195585e+02
   1.904579e+02  -3.907097e+02
   4.802857e+02  -3.792048e+01
   2.361135e+02   2.378440e+02
  -1.556897e+02   1.172689e+02
  -1.588494e+02  -1.874502e+02
   1.918729e+02  -2.139770e+02
   3.768988e+02   8.998290e+01
   1.387555e+02   3.287597e+02
  -2.193068e+02   2.602749e+02
  -3.253014e+02   5.933756e+01
  -1.809134e+02  -7.714384e+01
   1.820615e+01  -1.993532e+02
   1.972376e+02  -3.226291e+02
   3.334955e+02  -2.379119e+02
   3.097577e+02   1.324392e+02
   8.433234e+01   4.587458e+02
  -1.379435e+02   3.977809e+02
  -1.409927e+02   9.237286e+01
  -1.387363e+01  -3.927834e+01
  -1.613782e+01   8.801268e+01
  -1.862314e+02   1.556835e+02
  -2.956881e+02  -3.552023e+01
  -1.798025e+02  -2.789077e+02
   6.825790e+01  -2.776554e+02
   2.426485e+02  -2.363034e+01
   2.178440e+02   2.443360e+02
  -1.291527e+00   3.112894e+02
  -2.760586e+02   1.324445e+02
  -3.784387e+02  -1.674494e+02
  -1.916647e+02  -3.660209e+02
   1.122638e+02  -3.163173e+02
   2.398719e+02  -1.109845e+02
   1.466502e+02   1.260280e+01
   8.384431e+01  -3.087208e+01
   2.235650e+02  -7.745541e+01
   4.012657e+02   4.245440e+01
   3.390205e+02   2.789219e+02
   7.795588e+00   4.455235e+02
  -3.510188e+02   4.224152e+02
  -4.906414e+02   2.120052e+02
  -3.512201e+02  -9.204656e+01
  -6.343119e+01  -3.085686e+02
   1.422315e+02  -2.668550e+02
   9.985141e+01  -2.290239e+01
  -1.129648e+02   1.278096e+02
  -2.178964e+02  -1.160159e+00
  -5.936412e+01  -2.149517e+02
   1.784181e+02  -1.890538e+02
   1.991326e+02   6.730150e+01
  -1.777455e+01   2.120605e+02
  -2.069464e+02   4.095708e+01
  -1.685825e+02  -2.515233e+02
   3.238014e+01  -3.508888e+02
   2.244961e+02  -1.908443e+02
   3.168123e+02   5.783841e+01
   2.801584e+02   2.282592e+02
   1.073272e+02   2.615265e+02
  -1.090231e+02   1.681819e+02
  -1.864083e+02   2.468350e+01
  -6.452796e+01  -3.896540e+01
   7.744536e+01   3.311047e+01
   3.933546e+01   1.311135e+02
  -1.260221e+02   1.108289e+02
  -1.895311e+02  -9.519712e+00
  -6.547258e+01  -7.961504e+01
   8.166506e+01  -2.609594e+01
   6.248634e+01   6.777665e+01
  -1.141896e+02   8.920450e+01
  -2.758720e+02   1.042224e+01
  -2.674573e+02  -1.276502e+02
  -7.287644e+01  -2.532535e+02
   1.760781e+02  -2.721008e+02
   2.888729e+02  -1.369747e+02
   1.801368e+02   5.424367e+01
  -2.434020e+01   1.201494e+02
  -1.003662e+02   1.112047e+01
   2.703159e+01  -1.101801e+02
   2.005336e+02  -6.879503e+01
   2.225764e+02   1.017362e+02
   7.414539e+01   2.146288e+02
  -9.641132e+01   1.657152e+02
  -1.508565e+02   3.282379e+01
  -7.830387e+01  -4.470419e+01
   2.517700e+01  -1.245085e+01
   4.382393e+01   7.426949e+01
  -6.068285e+01   1.133523e+02
  -1.931189e+02   3.773010e+01
  -1.960463e+02  -1.170335e+02
  -2.675030e+01  -2.208705e+02
   1.661635e+02  -1.695582e+02
   1.999296e+02  -5.421931e+00
   6.823723e+01   1.213083e+02
  -6.865532e+01   1.174579e+02
  -8.801904e+01   3.238025e+01
  -2.442245e+01  -2.784080e+01
   1.702108e+01  -2.352690e+01
  -8.051932e+00   2.200904e+00
  -6.321122e+01  -9.296390e+00
  -8.355096e+01  -7.474865e+01
  -2.010945e+01  -1.505871e+02
   1.168572e+02  -1.536125e+02
   2.305816e+02  -3.465106e+01
   2.062016e+02   1.436505e+02
   4.576655e+01   2.384916e+02
  -1.097073e+02   1.731858e+02
  -1.369286e+02   2.696346e+01
  -6.880062e+01  -5.804704e+01
  -2.643953e+01  -3.710089e+01
  -5.178084e+01   1.217312e+01
  -7.616301e+01   7.907561e+00
  -3.800223e+01  -4.459316e+01
   3.951973e+01  -8.099289e+01
   9.233511e+01  -5.378157e+01
   7.862687e+01   2.851875e+01
  -8.285907e+00   1.029067e+02
  -1.305828e+02   8.774139e+01
  -1.940004e+02  -4.124661e+01
  -1.089507e+02  -1.950696e+02
   9.595505e+01  -2.320779e+02
   2.642593e+02  -1.044490e+02
   2.617364e+02   8.122439e+01
   1.143949e+02   1.776931e+02
  -3.698493e+01   1.501268e+02
  -9.533028e+01   8.563395e+01
  -8.109559e+01   6.878727e+01
  -6.748481e+01   8.875005e+01
  -9.055381e+01   7.240158e+01
  -1.254798e+02  -2.114773e+01
  -1.176397e+02  -1.507929e+02
  -3.317506e+01  -2.238172e+02
   9.550571e+01  -1.739258e+02
   1.763442e+02  -2.522476e+01
   1.406415e+02   1.180928e+02
   2.404704e+01   1.601387e+02
  -6.409079e+01   9.703525e+01
  -6.032788e+01   6.497557e+00
  -9.331592e+00  -3.955689e+01
   4.600894e+00  -3.558592e+01
  -3.805764e+01  -2.057780e+01
  -7.623593e+01  -2.253615e+01
  -4.305768e+01  -3.597285e+01
   5.905626e+01  -3.718941e+01
   1.511657e+02  -8.134097e+00
   1.428903e+02   4.478880e+01
   2.234429e+01   8.592580e+01
  -1.136845e+02   7.628778e+01
  -1.438869e+02   1.771595e+01
  -5.073447e+01  -3.729649e+01
   5.823614e+01  -3.568135e+01
   7.427638e+01   1.784819e+01
   5.509093e+00   6.441398e+01
  -5.636811e+01   5.415663e+01
  -6.026204e+01  -2.137566e+00
  -3.987314e+01  -4.713098e+01
  -4.203630e+01  -3.978815e+01
  -6.226941e+01  -2.404915e+00
  -6.562499e+01   1.227728e-01
  -3.312566e+01  -6.365844e+01
   3.164555e+01  -1.408379e+02
   1.094049e+02  -1.398481e+02
   1.560292e+02  -3.637761e+01
   1.204561e+02   8.614662e+01
   1.019287e+01   1.223794e+02
  -8.091347e+01   5.988207e+01
  -5.793582e+01  -1.511404e+01
   5.823413e+01  -2.015624e+01
   1.369446e+02   4.222029e+01
   7.773105e+01   1.058236e+02
  -7.756479e+01   1.131967e+02
  -1.892302e+02   5.590312e+01
  -1.636667e+02  -2.980949e+01
  -3.984798e+01  -8.634192e+01
   5.924635e+01  -7.330415e+01
   4.943795e+01  -1.049124e+01
  -3.688201e+01   2.583285e+01
  -8.837364e+01  -2.178391e+01
  -3.128479e+01  -1.165861e+02
   9.182849e+01  -1.509511e+02
   1.662336e+02  -5.951435e+01
   1.248357e+02   1.005158e+02
   9.819956e+00   1.954542e+02
  -8.419727e+01   1.437779e+02
  -1.039789e+02  -3.983959e+00
  -6.325161e+01  -1.155023e+02
  -2.626302e+00  -1.075557e+02
   4.380864e+01  -2.288165e+01
   5.387436e+01   3.060561e+01
   2.838610e+01   9.643145e+00
   3.390230e+00  -2.152932e+01
   1.811420e+01   1.153348e+01
   5.538342e+01   8.590478e+01
   4.527552e+01   1.099470e+02
  -4.317580e+01   4.703820e+01
  -1.372507e+02  -3.850782e+01
  -1.308905e+02  -7.001875e+01
  -1.798384e+01  -4.760117e+01
   8.836465e+01  -2.067298e+01
   8.786063e+01  -8.832513e+00
   9.183693e+00   5.034321e+00
  -3.921101e+01   2.218548e+01
  -1.269988e+01   2.039227e+01
   2.283085e+01  -1.378836e-01
  -6.210443e+00  -1.034727e+01
  -7.500002e+01  -5.734339e+00
  -8.947202e+01  -2.329580e+01
  -4.763484e+00  -7.707165e+01
   1.188164e+02  -1.105394e+02
   1.801800e+02  -5.644013e+01
   1.350559e+02   6.680879e+01
   2.397702e+01   1.591304e+02
  -7.552685e+01   1.462426e+02
  -1.101372e+02   5.624226e+01
  -7.907739e+01  -2.140660e+01
  -2.449318e+01  -3.358259e+01
   4.109784e+00  -6.541232e+00
  -9.390663e+00  -2.068471e+00
  -3.418209e+01  -4.384955e+01
  -2.470112e+01  -8.846048e+01
   2.814127e+01  -7.051090e+01
   8.027053e+01   1.913217e+01
   7.463204e+01   1.077314e+02
   1.463290e+00   1.096015e+02
  -8.218704e+01   2.029913e+01
  -9.949203e+01  -7.658384e+01
  -2.936596e+01  -1.006463e+02
   6.475022e+01  -5.183159e+01
   9.365629e+01   1.180338e+01
   3.742539e+01   4.630160e+01
  -3.024065e+01   4.796502e+01
  -2.756665e+01   2.848037e+01
   3.532288e+01   1.992130e+00
   6.803658e+01  -6.127015e+00
   1.390228e+01   2.344309e+01
  -7.762336e+01   6.528462e+01
  -1.118908e+02   6.055299e+01
  -6.084158e+01  -8.898116e+00
   1.551764e+01  -8.059607e+01
   4.949124e+01  -7.750148e+01
   3.288124e+01  -4.311988e+00
  -5.115158e-01   5.531691e+01
  -2.510850e+01   4.018433e+01
  -3.475784e+01  -2.029487e+01
  -2.561316e+01  -5.265434e+01
   2.504879e+00  -2.974170e+01
   3.203217e+01   9.315480e+00
   3.872719e+01   1.878518e+01
   2.053004e+01  -2.681199e-01
  -3.956028e-01  -1.168186e+01
  -7.961286e+00   6.559192e+00
  -1.006897e+01   3.623200e+01
  -1.994689e+01   3.974756e+01
  -3.170637e+01   2.631451e+00
  -2.541626e+01  -4.598853e+01
   6.580983e+00  -5.850409e+01
   4.444921e+01  -1.821626e+01
   5.286437e+01   3.955226e+01
   1.251120e+01   6.208573e+01
  -5.274982e+01   3.306477e+01
  -8.520285e+01  -1.558956e+01
  -4.756803e+01  -4.303342e+01
   2.760957e+01  -3.845771e+01
   6.247438e+01  -1.906351e+01
   2.197735e+01  -4.658461e+00
  -3.868701e+01  -4.738864e+00
  -3.733816e+01  -1.865559e+01
   3.298617e+01  -3.176452e+01
   9.321743e+01  -1.783900e+01
