
 $NMID
 id='ANONYMOUS ', fmtdat='(2E16.6)'
 volume=1.0
 tramp=1.0
 $END
  -4.731325e+03  -8.218341e+01
  -2.700538e+03  -2.909894e+03
   8.758438e+02  -2.988835e+03
   2.339018e+03  -9.068643e+02
   1.018533e+03   7.642300e+02
  -7.431680e+02   6.290032e+02
  -9.719593e+02  -4.990469e+02
   3.407053e+01  -1.172170e+03
   9.291506e+02  -8.326378e+02
   1.025067e+03   1.332587e+02
   4.672457e+02   9.591534e+02
  -2.924233e+02   9.676637e+02
  -7.054759e+02   1.084959e+02
  -4.042040e+02  -7.984517e+02
   3.161970e+02  -8.134015e+02
   6.663823e+02   2.503112e+01
   2.780373e+02   7.541901e+02
  -3.753544e+02   6.821429e+02
  -6.417614e+02   7.891985e+01
  -4.110559e+02  -3.986430e+02
  -3.531797e+00  -4.778422e+02
   2.725106e+02  -2.810464e+02
   2.355772e+02  -1.312609e+01
  -1.208956e+02   9.403329e+01
  -4.384449e+02  -1.267345e+02
  -2.104597e+02  -4.705186e+02
   5.046796e+02  -4.402985e+02
   9.222118e+02   9.768886e+01
   4.599897e+02   6.083387e+02
  -4.358806e+02   5.224688e+02
  -8.118307e+02  -5.202878e+01
  -3.693681e+02  -5.325423e+02
   3.175801e+02  -5.588584e+02
   6.210221e+02  -2.075029e+02
   4.490952e+02   2.585093e+02
   6.650187e+01   5.214999e+02
  -2.263441e+02   3.088149e+02
  -1.884894e+02  -2.400975e+02
   1.855060e+02  -4.771750e+02
   4.879741e+02   2.419332e+01
   2.572220e+02   7.468882e+02
  -3.616513e+02   7.623908e+02
  -6.643537e+02  -6.031912e+00
  -2.759951e+02  -6.127301e+02
   3.254035e+02  -3.473493e+02
   4.171524e+02   3.584097e+02
  -8.276212e+01   5.952038e+02
  -6.063598e+02   1.384515e+02
  -6.375395e+02  -4.544536e+02
  -1.667726e+02  -6.408940e+02
   4.238901e+02  -3.694546e+02
   6.833730e+02   9.436584e+01
   3.995749e+02   4.294441e+02
  -1.767738e+02   3.985075e+02
  -4.878400e+02   5.152213e+01
  -2.616734e+02  -2.243231e+02
   1.340797e+02  -1.193424e+02
   1.583016e+02   1.723125e+02
  -1.827951e+02   2.054846e+02
  -3.801743e+02  -8.715084e+01
  -1.490757e+02  -3.323599e+02
   2.299880e+02  -2.769547e+02
   3.611190e+02  -6.670888e+01
   2.056099e+02   9.890732e+01
  -3.626149e+01   2.350753e+02
  -2.424963e+02   3.405115e+02
  -3.650771e+02   2.294728e+02
  -3.132232e+02  -1.503647e+02
  -7.951661e+01  -4.749814e+02
   1.349992e+02  -4.181266e+02
   1.400007e+02  -1.193764e+02
   2.962678e+01   1.868321e+01
   4.383863e+01  -8.864552e+01
   2.074562e+02  -1.385255e+02
   2.997197e+02   5.726756e+01
   1.709277e+02   2.935384e+02
  -7.906327e+01   2.788773e+02
  -2.466191e+02   1.115094e+01
  -2.121114e+02  -2.617466e+02
   1.356116e+01  -3.193817e+02
   2.891559e+02  -1.242136e+02
   3.885724e+02   1.858345e+02
   1.968656e+02   3.848412e+02
  -1.147275e+02   3.327252e+02
  -2.516875e+02   1.261292e+02
  -1.652228e+02  -1.463509e+00
  -1.057085e+02   3.191559e+01
  -2.488160e+02   6.483433e+01
  -4.271081e+02  -6.773097e+01
  -3.510209e+02  -3.114659e+02
   9.927400e+00  -4.746768e+02
   3.928281e+02  -4.361823e+02
   5.280041e+02  -2.074383e+02
   3.623418e+02   1.052441e+02
   5.606304e+01   3.193100e+02
  -1.460365e+02   2.742092e+02
  -9.343994e+01   3.176314e+01
   1.184346e+02  -1.179458e+02
   2.152339e+02   6.695300e+00
   5.454771e+01   2.151819e+02
  -1.790104e+02   1.879927e+02
  -1.971535e+02  -6.783793e+01
   2.032221e+01  -2.118698e+02
   2.118198e+02  -3.448694e+01
   1.720400e+02   2.707081e+02
  -4.213050e+01   3.754759e+02
  -2.514701e+02   2.000520e+02
  -3.458184e+02  -7.570858e+01
  -2.911288e+02  -2.598028e+02
  -9.792216e+01  -2.826600e+02
   1.234141e+02  -1.706776e+02
   1.929869e+02  -2.058220e+01
   6.497229e+01   3.673238e+01
  -7.499492e+01  -4.076844e+01
  -3.198574e+01  -1.351795e+02
   1.345656e+02  -1.073985e+02
   1.940693e+02   1.539894e+01
   6.384061e+01   8.009355e+01
  -8.531926e+01   1.843644e+01
  -5.849821e+01  -7.735515e+01
   1.317042e+02  -8.921313e+01
   2.987951e+02   5.325182e+00
   2.779697e+02   1.522651e+02
   6.150768e+01   2.722360e+02
  -1.999065e+02   2.773197e+02
  -3.072752e+02   1.328235e+02
  -1.848447e+02  -5.846602e+01
   2.715420e+01  -1.201679e+02
   1.001542e+02  -9.122891e+00
  -3.458814e+01   1.097790e+02
  -2.115425e+02   6.267403e+01
  -2.294736e+02  -1.133688e+02
  -7.219309e+01  -2.262665e+02
   1.044806e+02  -1.702364e+02
   1.568723e+02  -3.002820e+01
   7.755033e+01   4.601208e+01
  -2.769236e+01   4.823362e+00
  -3.864993e+01  -8.637118e+01
   7.591301e+01  -1.177178e+02
   2.098629e+02  -2.841516e+01
   2.029864e+02   1.337943e+02
   2.012932e+01   2.344312e+02
  -1.800875e+02   1.744854e+02
  -2.107055e+02   3.107769e+00
  -6.959571e+01  -1.262467e+02
   7.398021e+01  -1.205733e+02
   9.146955e+01  -3.230495e+01
   2.130344e+01   2.801920e+01
  -2.149969e+01   2.021790e+01
   1.096381e+01  -6.479835e+00
   7.347626e+01   1.204078e+01
   9.017979e+01   8.802435e+01
   1.310784e+01   1.664859e+02
  -1.351616e+02   1.592703e+02
  -2.482345e+02   2.490644e+01
  -2.132943e+02  -1.622466e+02
  -4.123800e+01  -2.550045e+02
   1.202994e+02  -1.809809e+02
   1.468355e+02  -2.632367e+01
   7.438621e+01   6.224798e+01
   2.943327e+01   3.979588e+01
   5.696425e+01  -1.161871e+01
   8.424283e+01  -5.023312e+00
   4.188108e+01   5.317058e+01
  -4.727907e+01   9.068696e+01
  -1.079781e+02   5.502952e+01
  -8.768094e+01  -3.863928e+01
   1.618863e+01  -1.147542e+02
   1.496230e+02  -8.788442e+01
   2.073999e+02   5.598554e+01
   1.049826e+02   2.142916e+02
  -1.147668e+02   2.419576e+02
  -2.857302e+02   9.956242e+01
  -2.746499e+02  -9.536376e+01
  -1.153483e+02  -1.913064e+02
   4.373555e+01  -1.575744e+02
   1.031660e+02  -8.868234e+01
   8.711213e+01  -7.274303e+01
   7.395421e+01  -9.531832e+01
   1.001205e+02  -7.653772e+01
   1.357152e+02   2.645489e+01
   1.219908e+02   1.663060e+02
   2.755552e+01   2.412737e+02
  -1.080809e+02   1.822042e+02
  -1.878154e+02   1.975054e+01
  -1.440523e+02  -1.315454e+02
  -1.858148e+01  -1.707016e+02
   7.246013e+01  -9.821687e+01
   6.360019e+01  -1.007951e+00
   5.057074e+00   4.428358e+01
  -1.025317e+01   3.617679e+01
   3.904983e+01   2.063832e+01
   8.329680e+01   2.634360e+01
   4.617933e+01   4.139516e+01
  -6.755044e+01   3.746350e+01
  -1.661251e+02   2.433369e-01
  -1.508279e+02  -5.612910e+01
  -1.597535e+01  -9.322399e+01
   1.281924e+02  -7.615766e+01
   1.543663e+02  -1.223921e+01
   5.099792e+01   4.349357e+01
  -6.474411e+01   3.803535e+01
  -8.004666e+01  -2.178179e+01
  -5.756696e+00  -7.244274e+01
   6.131892e+01  -5.977247e+01
   6.677116e+01   3.949069e+00
   4.460263e+01   5.418005e+01
   4.484153e+01   4.526337e+01
   6.561234e+01   3.677187e+00
   7.031551e+01   1.975959e+00
   3.509858e+01   7.216268e+01
  -3.837246e+01   1.532396e+02
  -1.254325e+02   1.468211e+02
  -1.732927e+02   3.170247e+01
  -1.281461e+02  -9.878995e+01
  -4.803653e+00  -1.332183e+02
   9.189949e+01  -6.274358e+01
   6.310833e+01   1.750194e+01
  -6.320995e+01   2.007243e+01
  -1.454040e+02  -4.894386e+01
  -7.900346e+01  -1.154172e+02
   8.744815e+01  -1.179959e+02
   2.038038e+02  -5.224422e+01
   1.725595e+02   3.828260e+01
   3.860954e+01   9.283820e+01
  -6.563549e+01   7.421793e+01
  -5.219077e+01   7.662376e+00
   4.151056e+01  -2.740438e+01
   9.544726e+01   2.591189e+01
   3.206987e+01   1.268453e+02
  -1.010231e+02   1.618092e+02
  -1.797622e+02   6.221521e+01
  -1.325476e+02  -1.099427e+02
  -6.597194e+00  -2.103233e+02
   9.384433e+01  -1.516892e+02
   1.109161e+02   8.687393e+00
   6.261788e+01   1.260768e+02
  -2.856883e+00   1.132767e+02
  -4.847181e+01   2.103582e+01
  -5.522751e+01  -3.398030e+01
  -2.822819e+01  -9.696098e+00
  -4.376761e+00   2.204150e+01
  -2.058511e+01  -1.588076e+01
  -5.713437e+01  -9.490416e+01
  -4.343364e+01  -1.172887e+02
   4.973720e+01  -4.725586e+01
   1.462036e+02   4.489024e+01
   1.371560e+02   7.808579e+01
   1.753365e+01   5.277285e+01
  -9.451415e+01   2.142712e+01
  -9.410042e+01   6.529348e+00
  -1.069365e+01  -7.669706e+00
   4.177688e+01  -2.302607e+01
   1.482083e+01  -1.948922e+01
  -2.335959e+01   9.585381e-01
   6.178964e+00   1.008105e+01
   7.946237e+01   6.193970e+00
   9.636158e+01   2.753604e+01
   5.872269e+00   8.528577e+01
  -1.292944e+02   1.180685e+02
  -1.977318e+02   5.693302e+01
  -1.475403e+02  -7.556294e+01
  -2.300927e+01  -1.725328e+02
   8.697475e+01  -1.564396e+02
   1.220919e+02  -5.866883e+01
   8.493145e+01   2.488798e+01
   2.539069e+01   3.781131e+01
  -3.934004e+00   8.769795e+00
   1.031607e+01   4.115753e+00
   3.429260e+01   4.874705e+01
   2.253800e+01   9.567058e+01
  -3.253534e+01   7.517734e+01
  -8.580236e+01  -2.179561e+01
  -7.889962e+01  -1.171689e+02
  -9.890937e-01  -1.191910e+02
   8.857702e+01  -2.254452e+01
   1.071698e+02   8.333957e+01
   3.072514e+01   1.104566e+02
  -7.200375e+01   5.648530e+01
  -1.027505e+02  -1.534519e+01
  -3.953451e+01  -5.381064e+01
   3.583791e+01  -5.302586e+01
   3.290762e+01  -2.888826e+01
  -3.687648e+01  -7.493413e-01
  -7.363828e+01   5.266438e+00
  -1.483068e+01  -2.672237e+01
   8.542168e+01  -6.805980e+01
   1.230453e+02  -5.982903e+01
   6.645219e+01   1.370405e+01
  -1.889384e+01   8.729133e+01
  -5.747089e+01   8.232144e+01
  -3.857687e+01   4.303411e+00
   2.743336e-01  -5.957945e+01
   2.851919e+01  -4.422497e+01
   3.812830e+01   2.102020e+01
   2.660005e+01   5.779747e+01
  -4.049251e+00   3.401130e+01
  -3.484326e+01  -1.016898e+01
  -4.117932e+01  -2.280715e+01
  -2.168552e+01  -1.281513e+00
   4.568501e-02   1.446179e+01
   7.149713e+00  -4.073227e+00
   8.737606e+00  -3.909919e+01
   2.006941e+01  -4.636369e+01
   3.496671e+01  -6.111529e+00
   3.006615e+01   4.939581e+01
  -5.012654e+00   6.471728e+01
  -4.816446e+01   2.023256e+01
  -5.828497e+01  -4.357192e+01
  -1.333363e+01  -6.741307e+01
   5.869115e+01  -3.436783e+01
   9.316839e+01   1.895546e+01
   5.064220e+01   4.789869e+01
  -3.155151e+01   4.191532e+01
  -6.908086e+01   2.033896e+01
  -2.531481e+01   4.244632e+00
   4.022891e+01   3.655611e+00
   4.001960e+01   1.836134e+01
  -3.387187e+01   3.293011e+01
  -9.815482e+01   1.865206e+01
