
 $NMID
 id='ANONYMOUS ', fmtdat='(2E16.6)'
 volume=1.0
 tramp=1.0
 $END
  -3.429958e+03   1.482951e+01
  -2.225159e+03  -1.810232e+03
   1.169814e+02  -2.192673e+03
   1.411718e+03  -1.191226e+03
   9.656037e+02  -3.452410e+01
  -9.037285e+01   2.921685e+02
  -4.784233e+02  -1.509876e+02
  -5.685586e+01  -6.500899e+02
   5.150974e+02  -6.278856e+02
   7.048404e+02  -6.091110e+01
   4.439749e+02   5.745984e+02
  -3.433705e+01   7.005530e+02
  -3.693857e+02   1.820283e+02
  -2.822558e+02  -4.688209e+02
   1.374966e+02  -5.852924e+02
   4.450280e+02  -6.968667e+01
   2.991407e+02   5.217405e+02
  -1.599427e+02   6.277774e+02
  -4.920973e+02   2.430223e+02
  -4.345647e+02  -2.089217e+02
  -1.121446e+02  -3.767631e+02
   1.433093e+02  -2.522316e+02
   1.011584e+02  -7.059181e+01
  -1.609226e+02  -6.144011e+01
  -2.952099e+02  -2.378171e+02
  -2.985459e+01  -3.665588e+02
   4.575518e+02  -2.117714e+02
   6.461296e+02   1.563774e+02
   2.673244e+02   3.915514e+02
  -3.264043e+02   2.593511e+02
  -5.440233e+02  -1.050448e+02
  -2.223059e+02  -3.798615e+02
   2.595926e+02  -3.815733e+02
   4.711221e+02  -1.454545e+02
   3.403988e+02   1.691656e+02
   8.525405e+01   3.414028e+02
  -6.244149e+01   2.076348e+02
  -8.376601e+00  -1.098958e+02
   1.678211e+02  -2.142291e+02
   2.479528e+02   1.083957e+02
   6.698455e+01   5.213082e+02
  -2.547243e+02   4.924218e+02
  -3.814384e+02   8.076998e+00
  -1.551533e+02  -3.577402e+02
   1.736798e+02  -1.799333e+02
   2.177579e+02   2.734655e+02
  -9.840242e+01   4.157332e+02
  -4.600345e+02   7.526576e+01
  -5.029322e+02  -3.720749e+02
  -1.579110e+02  -5.083545e+02
   3.105186e+02  -2.831916e+02
   5.347886e+02   6.189261e+01
   3.472787e+02   2.751803e+02
  -6.396862e+01   2.562598e+02
  -3.177468e+02   8.147500e+01
  -2.247399e+02  -6.186870e+01
   1.527316e+01  -4.395783e+01
   7.118899e+01   6.633260e+01
  -1.074837e+02   8.626205e+01
  -2.502319e+02  -4.869341e+01
  -1.300393e+02  -2.117693e+02
   1.598461e+02  -2.477126e+02
   3.385952e+02  -1.225349e+02
   2.492650e+02   9.570517e+01
  -2.450963e+01   2.988908e+02
  -2.793511e+02   3.525763e+02
  -3.579160e+02   1.691412e+02
  -2.423561e+02  -1.554482e+02
  -5.510210e+01  -3.701234e+02
   5.038154e+01  -3.291499e+02
   4.277986e+01  -1.606374e+02
   3.423083e+01  -8.158828e+01
   1.189180e+02  -1.067271e+02
   2.356542e+02  -6.691986e+01
   2.438390e+02   1.063461e+02
   1.017312e+02   2.561998e+02
  -8.940829e+01   2.018087e+02
  -1.944538e+02  -3.105422e+01
  -1.440266e+02  -2.399625e+02
   4.058487e+01  -2.541225e+02
   2.463855e+02  -7.099627e+01
   3.129298e+02   1.697449e+02
   1.697974e+02   3.049688e+02
  -6.005133e+01   2.708380e+02
  -1.774085e+02   1.466340e+02
  -1.479257e+02   6.437261e+01
  -1.382406e+02   6.003101e+01
  -2.662450e+02   4.015486e+01
  -4.030869e+02  -8.910564e+01
  -3.169017e+02  -2.931243e+02
   2.229311e+01  -4.326099e+02
   3.744292e+02  -3.923372e+02
   4.750435e+02  -1.744242e+02
   2.916632e+02   9.850837e+01
   2.501482e+01   2.554781e+02
  -9.929965e+01   2.052868e+02
  -2.488789e+01   3.645230e+01
   1.137940e+02  -5.160124e+01
   1.401960e+02   3.098367e+01
   1.602753e+01   1.494609e+02
  -1.232063e+02   1.159344e+02
  -1.208786e+02  -5.281046e+01
   2.574882e+01  -1.406014e+02
   1.648584e+02  -5.793896e+00
   1.508409e+02   2.348153e+02
  -2.331363e+01   3.391003e+02
  -2.381983e+02   2.015409e+02
  -3.477179e+02  -6.319431e+01
  -2.740131e+02  -2.570869e+02
  -6.423649e+01  -2.698234e+02
   1.255221e+02  -1.412816e+02
   1.538280e+02  -7.799741e+00
   3.894217e+01   1.698140e+01
  -5.312934e+01  -5.693326e+01
  -1.357290e+00  -1.140939e+02
   1.228511e+02  -7.070050e+01
   1.503124e+02   2.483472e+01
   3.535894e+01   5.744692e+01
  -8.075673e+01  -8.198634e+00
  -4.010086e+01  -8.921925e+01
   1.438206e+02  -8.572663e+01
   2.951535e+02   2.040730e+01
   2.539969e+02   1.655046e+02
   3.074281e+01   2.588133e+02
  -2.029760e+02   2.341222e+02
  -2.684241e+02   9.869183e+01
  -1.412035e+02  -4.687014e+01
   2.894892e+01  -8.224079e+01
   6.779888e+01   2.832771e+00
  -4.969800e+01   8.224694e+01
  -1.845293e+02   3.583728e+01
  -1.890446e+02  -1.035224e+02
  -5.635435e+01  -1.890451e+02
   8.920653e+01  -1.369531e+02
   1.265270e+02  -1.785824e+01
   4.916979e+01   3.680638e+01
  -3.943469e+01  -1.780232e+01
  -2.761011e+01  -1.049374e+02
   9.324891e+01  -1.154153e+02
   2.069696e+02  -1.327285e+01
   1.805548e+02   1.328298e+02
   1.066760e+01   2.077046e+02
  -1.565492e+02   1.497670e+02
  -1.754999e+02   9.244761e+00
  -5.567359e+01  -9.672969e+01
   6.205221e+01  -9.604030e+01
   7.116858e+01  -2.494301e+01
   3.446322e+00   2.453772e+01
  -3.459202e+01   9.716137e+00
   9.247525e+00  -2.294249e+01
   8.545096e+01   2.664910e-01
   1.013143e+02   9.029495e+01
   1.022334e+01   1.718345e+02
  -1.401324e+02   1.507400e+02
  -2.354460e+02   1.046205e+01
  -1.903762e+02  -1.571414e+02
  -3.586987e+01  -2.273768e+02
   1.021595e+02  -1.586259e+02
   1.288527e+02  -2.940669e+01
   7.242720e+01   4.564743e+01
   3.271119e+01   2.987447e+01
   5.489828e+01  -1.365138e+01
   8.588873e+01  -6.330675e+00
   5.360841e+01   5.633604e+01
  -4.068478e+01   1.027853e+02
  -1.195852e+02   6.481515e+01
  -1.030231e+02  -4.381409e+01
   1.773374e+01  -1.261957e+02
   1.601192e+02  -8.761504e+01
   2.023436e+02   6.475105e+01
   8.443281e+01   2.100408e+02
  -1.227997e+02   2.192538e+02
  -2.650921e+02   8.050188e+01
  -2.425255e+02  -9.040900e+01
  -9.782116e+01  -1.685918e+02
   4.027345e+01  -1.371119e+02
   8.861993e+01  -7.898522e+01
   7.044206e+01  -6.875501e+01
   5.928156e+01  -9.289050e+01
   9.015253e+01  -7.771771e+01
   1.298318e+02   1.914454e+01
   1.169261e+02   1.528000e+02
   2.536435e+01   2.231881e+02
  -9.987238e+01   1.646610e+02
  -1.687374e+02   1.139515e+01
  -1.252322e+02  -1.256492e+02
  -9.411218e+00  -1.546701e+02
   7.389295e+01  -8.059998e+01
   6.135823e+01   1.269039e+01
  -3.233580e+00   5.154102e+01
  -2.465027e+01   3.496440e+01
   2.822281e+01   1.257090e+01
   8.298001e+01   1.872832e+01
   4.867497e+01   3.986047e+01
  -7.155259e+01   3.862572e+01
  -1.698516e+02  -2.618408e+00
  -1.420718e+02  -6.222632e+01
  -5.782065e-01  -9.542224e+01
   1.317771e+02  -7.166798e+01
   1.437223e+02  -5.430699e+00
   4.381802e+01   4.878919e+01
  -5.968397e+01   4.235485e+01
  -7.698898e+01  -1.836432e+01
  -1.711031e+01  -7.265822e+01
   4.715386e+01  -6.438311e+01
   6.744359e+01  -1.606557e+00
   5.546024e+01   5.060001e+01
   4.680026e+01   4.306117e+01
   5.547905e+01   1.942265e+00
   6.436797e+01   1.273341e+00
   4.254259e+01   7.157713e+01
  -2.803995e+01   1.504547e+02
  -1.239209e+02   1.431805e+02
  -1.769839e+02   3.206030e+01
  -1.280419e+02  -9.408317e+01
  -1.922777e+00  -1.309055e+02
   9.139336e+01  -6.726605e+01
   6.147699e+01   1.129258e+01
  -5.760984e+01   2.017535e+01
  -1.323729e+02  -4.157202e+01
  -6.977244e+01  -1.051631e+02
   8.260462e+01  -1.075024e+02
   1.866247e+02  -4.341619e+01
   1.546013e+02   4.010953e+01
   3.051051e+01   8.408495e+01
  -6.305664e+01   6.088138e+01
  -4.778875e+01  -4.278793e-01
   3.969579e+01  -3.010385e+01
   9.145316e+01   1.969622e+01
   3.874267e+01   1.146880e+02
  -7.946048e+01   1.540967e+02
  -1.568083e+02   6.916446e+01
  -1.251681e+02  -9.090271e+01
  -1.566790e+01  -1.901893e+02
   8.120836e+01  -1.388945e+02
   1.023491e+02   1.094063e+01
   5.447548e+01   1.182525e+02
  -1.185440e+01   1.013910e+02
  -5.012969e+01   1.481087e+01
  -4.537360e+01  -3.165056e+01
  -1.767361e+01  -7.255097e+00
  -5.563058e+00   1.756537e+01
  -2.860325e+01  -2.049778e+01
  -5.652121e+01  -8.870958e+01
  -3.268236e+01  -1.038005e+02
   5.402405e+01  -4.176161e+01
   1.339776e+02   3.699741e+01
   1.216922e+02   6.845821e+01
   1.787810e+01   5.207671e+01
  -8.026063e+01   2.522313e+01
  -8.531460e+01   5.812471e+00
  -1.625974e+01  -1.110415e+01
   3.435605e+01  -2.130836e+01
   1.841907e+01  -1.308991e+01
  -1.543483e+01   3.764624e+00
   3.246533e+00   5.833419e+00
   6.662370e+01  -7.507563e-01
   9.161178e+01   2.144923e+01
   2.006233e+01   8.008248e+01
  -1.068911e+02   1.166610e+02
  -1.852444e+02   6.522165e+01
  -1.498539e+02  -5.845268e+01
  -3.178211e+01  -1.573509e+02
   7.872960e+01  -1.526497e+02
   1.147665e+02  -6.432926e+01
   7.958014e+01   1.885318e+01
   2.598629e+01   3.713464e+01
   1.728568e+00   1.253676e+01
   1.316243e+01   7.901003e+00
   3.014962e+01   4.792128e+01
   1.828777e+01   8.954050e+01
  -2.864758e+01   7.084857e+01
  -7.773540e+01  -1.477042e+01
  -7.912880e+01  -1.005874e+02
  -1.350996e+01  -1.091588e+02
   7.462901e+01  -3.131908e+01
   1.044882e+02   6.458452e+01
   3.926538e+01   1.015968e+02
  -6.315950e+01   6.292758e+01
  -1.019253e+02  -7.579515e+00
  -4.447416e+01  -5.630953e+01
   3.359197e+01  -5.981421e+01
   3.848794e+01  -2.868435e+01
  -2.674998e+01   5.555181e+00
  -6.746487e+01   8.956813e+00
  -1.780927e+01  -2.661907e+01
   7.709622e+01  -6.501432e+01
   1.182774e+02  -5.344085e+01
   6.933513e+01   1.598886e+01
  -1.321424e+01   8.377021e+01
  -5.630545e+01   8.172990e+01
  -4.357118e+01   1.192301e+01
  -6.873651e+00  -5.200252e+01
   2.335789e+01  -4.714338e+01
   3.649745e+01   1.083022e+01
   2.827152e+01   5.291236e+01
  -8.633263e-01   3.849342e+01
  -3.298045e+01  -5.130145e+00
  -4.118120e+01  -2.434588e+01
  -2.046018e+01  -4.264042e+00
   3.448312e+00   1.900056e+01
   6.386811e+00   6.980245e+00
  -2.909885e+00  -3.215125e+01
   2.775815e+00  -5.134185e+01
   2.730065e+01  -2.026314e+01
   3.955603e+01   3.553951e+01
   1.141954e+01   5.926375e+01
  -4.013060e+01   2.519378e+01
  -6.150284e+01  -3.295011e+01
  -1.928677e+01  -5.977250e+01
   5.568048e+01  -3.569695e+01
   9.168194e+01   1.112546e+01
   5.032074e+01   4.242857e+01
  -2.801556e+01   4.461985e+01
  -6.435180e+01   2.748358e+01
  -2.802827e+01   6.723426e+00
   2.910492e+01  -3.071945e+00
   3.376379e+01   7.029351e+00
  -2.340300e+01   2.600765e+01
  -7.852673e+01   2.144444e+01
