
 $NMID
 id='ANONYMOUS ', fmtdat='(2E16.6)'
 volume=1.0
 tramp=1.0
 $END
   3.955174e+03  -5.125175e+01
   2.415900e+03   2.236877e+03
  -4.452746e+02   2.500490e+03
  -1.785124e+03   1.024773e+03
  -9.364855e+02  -3.459854e+02
   4.185949e+02  -4.431191e+02
   7.101506e+02   3.174090e+02
   1.891565e+01   8.877124e+02
  -6.899238e+02   7.160230e+02
  -8.345220e+02  -2.437753e+01
  -4.490570e+02  -7.343180e+02
   1.476191e+02  -8.050264e+02
   5.192954e+02  -1.423688e+02
   3.421653e+02   6.119297e+02
  -2.088602e+02   6.794089e+02
  -5.362647e+02   2.848488e+01
  -2.886354e+02  -6.094684e+02
   2.444030e+02  -6.310528e+02
   5.375905e+02  -1.621164e+02
   4.078886e+02   2.830053e+02
   6.221703e+01   4.074244e+02
  -1.960353e+02   2.588741e+02
  -1.625337e+02   3.890189e+01
   1.389067e+02  -2.687967e+01
   3.666261e+02   1.642836e+02
   1.312442e+02   4.075141e+02
  -4.606249e+02   3.344253e+02
  -7.676715e+02  -1.041556e+02
  -3.638084e+02  -4.818137e+02
   3.659303e+02  -3.922783e+02
   6.636909e+02   6.101087e+01
   2.981152e+02   4.382946e+02
  -2.697339e+02   4.643127e+02
  -5.252495e+02   1.838383e+02
  -3.860530e+02  -1.990768e+02
  -7.979936e+01  -4.166914e+02
   1.391547e+02  -2.498803e+02
   1.014579e+02   1.754755e+02
  -1.682080e+02   3.455195e+02
  -3.661693e+02  -5.738687e+01
  -1.744758e+02  -6.173079e+02
   2.883606e+02  -6.170566e+02
   5.104553e+02  -7.437422e+00
   2.175099e+02   4.712387e+02
  -2.418226e+02   2.611707e+02
  -3.184436e+02  -3.026745e+02
   7.627515e+01  -4.943675e+02
   5.151040e+02  -1.168029e+02
   5.620369e+02   3.853191e+02
   1.700679e+02   5.506012e+02
  -3.484220e+02   3.238327e+02
  -5.905782e+02  -6.142193e+01
  -3.659178e+02  -3.327298e+02
   1.136252e+02  -3.186446e+02
   3.887720e+02  -6.985087e+01
   2.333426e+02   1.360350e+02
  -7.563614e+01   7.899087e+01
  -1.130539e+02  -1.173720e+02
   1.412524e+02  -1.459364e+02
   3.075157e+02   6.079202e+01
   1.390645e+02   2.610992e+02
  -1.817601e+02   2.564652e+02
  -3.312193e+02   9.955757e+01
  -2.197793e+02  -8.441120e+01
   1.848084e+01  -2.545371e+02
   2.372552e+02  -3.418909e+02
   3.426341e+02  -2.047811e+02
   2.740174e+02   1.399517e+02
   7.544434e+01   4.074868e+02
  -8.269383e+01   3.613469e+02
  -8.482359e+01   1.324061e+02
  -2.582112e+01   2.803987e+01
  -7.170055e+01   9.847778e+01
  -2.107958e+02   1.092013e+02
  -2.670103e+02  -6.994156e+01
  -1.407383e+02  -2.629310e+02
   7.535834e+01  -2.362436e+02
   2.151299e+02   2.792290e+00
   1.805126e+02   2.379689e+02
  -1.802337e+01   2.790942e+02
  -2.569957e+02   1.026319e+02
  -3.442132e+02  -1.623063e+02
  -1.851790e+02  -3.284659e+02
   7.798853e+01  -2.924256e+02
   2.030612e+02  -1.344866e+02
   1.473557e+02  -3.248531e+01
   1.133922e+02  -4.833426e+01
   2.456148e+02  -6.024826e+01
   4.023090e+02   6.176585e+01
   3.307244e+02   2.808592e+02
  -1.687625e+00   4.375160e+02
  -3.565957e+02   4.107361e+02
  -4.777645e+02   1.987733e+02
  -3.191168e+02  -8.977689e+01
  -4.703741e+01  -2.775911e+02
   1.138512e+02  -2.346002e+02
   5.774837e+01  -3.202444e+01
  -1.111490e+02   8.716637e+01
  -1.744620e+02  -1.414464e+01
  -3.873647e+01  -1.773094e+02
   1.444248e+02  -1.511060e+02
   1.565075e+02   5.590551e+01
  -1.871069e+01   1.723738e+02
  -1.825980e+02   2.475420e+01
  -1.625524e+02  -2.391208e+02
   2.161475e+01  -3.443201e+02
   2.286531e+02  -2.001036e+02
   3.343850e+02   5.559865e+01
   2.799901e+02   2.393475e+02
   8.748781e+01   2.639598e+02
  -1.152685e+02   1.547538e+02
  -1.676358e+02   1.830925e+01
  -5.087292e+01  -2.565636e+01
   6.436315e+01   4.500865e+01
   2.033724e+01   1.208150e+02
  -1.222545e+02   9.043711e+01
  -1.676261e+02  -1.491660e+01
  -4.996288e+01  -6.612238e+01
   8.059688e+01  -8.355592e+00
   5.106077e+01   7.854243e+01
  -1.289974e+02   8.897208e+01
  -2.859484e+02  -2.234127e+00
  -2.616198e+02  -1.441081e+02
  -5.348965e+01  -2.547400e+02
   1.862983e+02  -2.534449e+02
   2.748407e+02  -1.202077e+02
   1.591370e+02   4.713753e+01
  -2.489910e+01   9.932497e+01
  -8.195833e+01   5.000109e+00
   3.776678e+01  -9.494158e+01
   1.902127e+02  -5.365813e+01
   2.052709e+02   9.894981e+01
   6.764374e+01   1.988910e+02
  -8.956883e+01   1.510625e+02
  -1.365858e+02   2.692202e+01
  -6.274684e+01  -3.897460e+01
   3.283273e+01   3.946164e+00
   3.595299e+01   9.044609e+01
  -7.681457e+01   1.152874e+02
  -1.998747e+02   2.722680e+01
  -1.890316e+02  -1.224293e+02
  -2.136819e+01  -2.127783e+02
   1.578146e+02  -1.610052e+02
   1.859755e+02  -1.077919e+01
   6.313308e+01   1.063738e+02
  -6.297456e+01   1.065059e+02
  -7.800621e+01   2.963474e+01
  -1.320120e+01  -2.556171e+01
   2.635393e+01  -1.609880e+01
  -8.673934e+00   1.383161e+01
  -7.559965e+01  -3.257616e+00
  -9.447527e+01  -8.190607e+01
  -1.702478e+01  -1.618035e+02
   1.270929e+02  -1.536589e+02
   2.323436e+02  -2.491113e+01
   1.994174e+02   1.475608e+02
   4.406985e+01   2.312033e+02
  -1.025375e+02   1.666138e+02
  -1.317960e+02   3.049552e+01
  -7.164691e+01  -4.996473e+01
  -3.047929e+01  -3.260795e+01
  -5.323105e+01   1.381094e+01
  -8.130772e+01   8.250069e+00
  -4.731560e+01  -5.042566e+01
   3.879946e+01  -9.359070e+01
   1.064357e+02  -6.130119e+01
   9.248954e+01   3.569252e+01
  -1.185504e+01   1.157911e+02
  -1.453369e+02   8.963565e+01
  -1.989791e+02  -5.107970e+01
  -9.833174e+01  -2.012907e+02
   1.069299e+02  -2.261403e+02
   2.626017e+02  -9.527897e+01
   2.519770e+02   8.194510e+01
   1.079007e+02   1.705047e+02
  -3.631491e+01   1.432672e+02
  -9.006809e+01   8.335595e+01
  -7.394403e+01   6.997678e+01
  -6.139219e+01   9.200097e+01
  -8.901697e+01   7.670133e+01
  -1.280372e+02  -1.797301e+01
  -1.194976e+02  -1.497616e+02
  -3.241407e+01  -2.225726e+02
   9.495667e+01  -1.700554e+02
   1.714316e+02  -2.037189e+01
   1.337805e+02   1.198137e+02
   1.848575e+01   1.564565e+02
  -6.784883e+01   8.879946e+01
  -6.069152e+01  -3.178938e+00
  -2.983750e+00  -4.598547e+01
   1.513754e+01  -3.525207e+01
  -3.287828e+01  -1.548446e+01
  -8.022155e+01  -1.915641e+01
  -4.668591e+01  -3.737679e+01
   6.529184e+01  -3.887870e+01
   1.611540e+02  -4.598190e+00
   1.429282e+02   5.207553e+01
   1.162411e+01   9.068697e+01
  -1.223021e+02   7.543840e+01
  -1.432757e+02   1.320347e+01
  -4.741744e+01  -4.278775e+01
   5.837126e+01  -4.026843e+01
   7.595165e+01   1.690447e+01
   1.297491e+01   6.879913e+01
  -5.029464e+01   6.065851e+01
  -6.418541e+01   9.156420e-01
  -4.921696e+01  -4.834008e+01
  -4.525484e+01  -4.086137e+01
  -5.844328e+01  -1.133923e+00
  -6.482100e+01   4.111700e-01
  -3.932396e+01  -6.741633e+01
   2.731857e+01  -1.464616e+02
   1.150192e+02  -1.432403e+02
   1.668132e+02  -3.644402e+01
   1.258641e+02   8.846411e+01
   7.568068e+00   1.267459e+02
  -8.563058e+01   6.518874e+01
  -6.005388e+01  -1.203369e+01
   5.746898e+01  -2.107786e+01
   1.348751e+02   3.957482e+01
   7.490685e+01   1.040278e+02
  -7.840212e+01   1.111125e+02
  -1.865748e+02   5.195307e+01
  -1.588575e+02  -3.282196e+01
  -3.600435e+01  -8.430442e+01
   6.007435e+01  -6.725527e+01
   4.827094e+01  -5.219312e+00
  -3.796730e+01   2.875684e+01
  -9.029465e+01  -1.916162e+01
  -3.725981e+01  -1.148441e+02
   8.237979e+01  -1.539469e+02
   1.597815e+02  -6.746688e+01
   1.264525e+02   9.300315e+01
   1.621424e+01   1.920665e+02
  -8.007610e+01   1.422051e+02
  -1.029717e+02  -6.152085e+00
  -6.015249e+01  -1.158170e+02
   3.666001e+00  -1.039179e+02
   4.687166e+01  -1.907590e+01
   4.956896e+01   3.026129e+01
   2.255630e+01   7.839938e+00
   4.240029e+00  -1.935063e+01
   2.408671e+01   1.619758e+01
   5.731632e+01   8.642763e+01
   4.000106e+01   1.056256e+02
  -4.836070e+01   4.473201e+01
  -1.358411e+02  -3.538556e+01
  -1.267149e+02  -6.691949e+01
  -1.866572e+01  -4.971665e+01
   8.339622e+01  -2.459737e+01
   8.616476e+01  -8.566819e+00
   1.317318e+01   8.246734e+00
  -3.609640e+01   2.230028e+01
  -1.551909e+01   1.651323e+01
   1.869143e+01  -2.521472e+00
  -4.725764e+00  -7.725638e+00
  -7.033004e+01  -9.110501e-01
  -9.089444e+01  -2.078674e+01
  -1.448814e+01  -7.854736e+01
   1.102257e+02  -1.156869e+02
   1.817919e+02  -6.413648e+01
   1.441335e+02   5.988650e+01
   3.084500e+01   1.575050e+02
  -7.481772e+01   1.507855e+02
  -1.116221e+02   6.241984e+01
  -7.957803e+01  -1.867620e+01
  -2.582487e+01  -3.510332e+01
   7.612314e-01  -9.924831e+00
  -1.149917e+01  -5.149469e+00
  -3.259967e+01  -4.548338e+01
  -2.253655e+01  -8.851673e+01
   2.723588e+01  -7.104156e+01
   7.904814e+01   1.538202e+01
   7.875427e+01   1.023911e+02
   9.917270e+00   1.091623e+02
  -7.753960e+01   2.771235e+01
  -1.033491e+02  -6.819766e+01
  -3.643914e+01  -1.005415e+02
   6.292974e+01  -5.895246e+01
   9.828638e+01   7.928434e+00
   4.202161e+01   5.117542e+01
  -3.127898e+01   5.494934e+01
  -3.311926e+01   2.899071e+01
   3.054671e+01  -2.772043e+00
   6.751314e+01  -8.788562e+00
   1.642562e+01   2.494367e+01
  -7.615052e+01   6.628788e+01
  -1.142724e+02   5.832133e+01
  -6.559737e+01  -1.183477e+01
   1.291163e+01  -8.248055e+01
   5.193876e+01  -8.052246e+01
   3.869099e+01  -9.055165e+00
   4.482233e+00   5.340155e+01
  -2.344947e+01   4.438741e+01
  -3.599938e+01  -1.445094e+01
  -2.789931e+01  -5.230001e+01
   1.111963e+00  -3.458968e+01
   3.265951e+01   6.461007e+00
   4.032893e+01   2.121340e+01
   2.045273e+01   1.913641e+00
  -2.274709e+00  -1.571726e+01
  -6.964391e+00  -8.313922e-01
  -2.266234e+00   3.407863e+01
  -9.751846e+00   4.644412e+01
  -2.917596e+01   1.292153e+01
  -3.396670e+01  -3.971340e+01
  -4.360355e+00  -5.894533e+01
   4.169079e+01  -2.277854e+01
   5.821434e+01   3.497467e+01
   1.725538e+01   6.050385e+01
  -5.375705e+01   3.532516e+01
  -8.891501e+01  -1.171159e+01
  -4.971615e+01  -4.186036e+01
   2.717039e+01  -4.226127e+01
   6.311070e+01  -2.471421e+01
   2.522385e+01  -6.150077e+00
  -3.339031e+01   2.306453e-01
  -3.560243e+01  -1.157170e+01
   2.710215e+01  -2.905844e+01
   8.463356e+01  -2.132480e+01
