
 $NMID
 id='ANONYMOUS ', fmtdat='(2E16.6)'
 volume=1.0
 tramp=1.0
 $END
   3.619646e+03   3.975285e+01
   2.277348e+03   1.963208e+03
  -2.137065e+02   2.282417e+03
  -1.511203e+03   1.159495e+03
  -9.600613e+02  -3.399575e+01
   1.622768e+02  -3.015452e+02
   5.184327e+02   2.040161e+02
   3.017296e+01   7.067853e+02
  -5.702518e+02   6.444620e+02
  -7.411008e+02   3.380829e+01
  -4.418323e+02  -6.215131e+02
   6.704600e+01  -7.296790e+02
   4.038073e+02  -1.668897e+02
   2.868756e+02   5.128743e+02
  -1.644035e+02   6.117970e+02
  -4.706648e+02   5.493654e+01
  -2.958862e+02  -5.527107e+02
   1.833194e+02  -6.387829e+02
   5.094306e+02  -2.294109e+02
   4.354207e+02   2.284231e+02
   1.020060e+02   3.897171e+02
  -1.585488e+02   2.556633e+02
  -1.126741e+02   6.196106e+01
   1.677869e+02   4.745817e+01
   3.196448e+02   2.391142e+02
   4.266458e+01   3.915937e+02
  -4.814181e+02   2.355548e+02
  -6.880341e+02  -1.650334e+02
  -2.821985e+02  -4.269526e+02
   3.538935e+02  -2.844181e+02
   5.824595e+02   1.128471e+02
   2.347834e+02   4.076529e+02
  -2.772627e+02   4.040823e+02
  -4.974882e+02   1.490586e+02
  -3.545220e+02  -1.846736e+02
  -7.893285e+01  -3.641141e+02
   8.184302e+01  -2.146820e+02
   1.903029e+01   1.311591e+02
  -1.837023e+02   2.416679e+02
  -2.782763e+02  -1.130409e+02
  -7.681711e+01  -5.608480e+02
   2.801030e+02  -5.235488e+02
   4.143447e+02   3.816445e+00
   1.595176e+02   3.929224e+02
  -1.974395e+02   1.927879e+02
  -2.372275e+02  -2.950424e+02
   1.059097e+02  -4.419391e+02
   4.860197e+02  -7.743370e+01
   5.238424e+02   3.925096e+02
   1.579968e+02   5.318833e+02
  -3.306413e+02   2.933217e+02
  -5.590801e+02  -7.118616e+01
  -3.542280e+02  -2.964778e+02
   8.057424e+01  -2.701172e+02
   3.385798e+02  -7.445830e+01
   2.266889e+02   7.845193e+01
  -2.893016e+01   4.666297e+01
  -7.618545e+01  -8.051319e+01
   1.212732e+02  -9.574068e+01
   2.659105e+02   5.800869e+01
   1.302311e+02   2.277296e+02
  -1.703915e+02   2.535392e+02
  -3.459991e+02   1.203659e+02
  -2.514425e+02  -9.593689e+01
   2.286707e+01  -2.999985e+02
   2.815450e+02  -3.619551e+02
   3.691324e+02  -1.787997e+02
   2.547462e+02   1.611027e+02
   5.496017e+01   3.888398e+02
  -6.188426e+01   3.412517e+02
  -5.017850e+01   1.569490e+02
  -3.034709e+01   7.509743e+01
  -1.142675e+02   1.110186e+02
  -2.415938e+02   7.634291e+01
  -2.566772e+02  -1.064122e+02
  -1.091132e+02  -2.681270e+02
   9.338481e+01  -2.138584e+02
   2.053660e+02   2.988386e+01
   1.529190e+02   2.500272e+02
  -4.137049e+01   2.669730e+02
  -2.579561e+02   7.602501e+01
  -3.265592e+02  -1.776220e+02
  -1.734911e+02  -3.198568e+02
   6.819552e+01  -2.804689e+02
   1.868866e+02  -1.456313e+02
   1.500776e+02  -5.978689e+01
   1.374121e+02  -6.063870e+01
   2.719631e+02  -4.450303e+01
   4.157560e+02   8.952449e+01
   3.271910e+02   3.023953e+02
  -2.259477e+01   4.470310e+02
  -3.858727e+02   4.054156e+02
  -4.918573e+02   1.801980e+02
  -3.045992e+02  -1.037313e+02
  -2.618963e+01  -2.682683e+02
   1.081082e+02  -2.143845e+02
   3.114195e+01  -3.413744e+01
  -1.195104e+02   5.860550e+01
  -1.510678e+02  -3.241503e+01
  -1.734165e+01  -1.602348e+02
   1.336769e+02  -1.228672e+02
   1.298273e+02   5.825120e+01
  -2.853304e+01   1.503695e+02
  -1.739890e+02   6.819235e+00
  -1.552449e+02  -2.440357e+02
   2.629576e+01  -3.495372e+02
   2.445030e+02  -2.061175e+02
   3.553867e+02   6.498051e+01
   2.823862e+02   2.635416e+02
   6.869499e+01   2.785670e+02
  -1.292270e+02   1.475094e+02
  -1.613635e+02   7.793902e+00
  -4.133750e+01  -2.008392e+01
   5.705971e+01   5.767095e+01
   3.406306e+00   1.198736e+02
  -1.281345e+02   7.531756e+01
  -1.580919e+02  -2.609805e+01
  -3.784551e+01  -6.186479e+01
   8.417354e+01   6.109354e+00
   4.331222e+01   9.097626e+01
  -1.461392e+02   8.884809e+01
  -3.031077e+02  -1.912934e+01
  -2.629595e+02  -1.687369e+02
  -3.411015e+01  -2.672959e+02
   2.088063e+02  -2.439372e+02
   2.793341e+02  -1.029297e+02
   1.479371e+02   5.048860e+01
  -3.087039e+01   8.760064e+01
  -7.269982e+01  -3.057730e+00
   5.052955e+01  -8.729775e+01
   1.922603e+02  -3.827344e+01
   1.968192e+02   1.080983e+02
   5.791262e+01   1.972716e+02
  -9.372643e+01   1.426251e+02
  -1.326085e+02   1.834396e+01
  -5.248498e+01  -3.954054e+01
   4.031818e+01   1.570063e+01
   3.019747e+01   1.062086e+02
  -9.381078e+01   1.192473e+02
  -2.127081e+02   1.520221e+01
  -1.869965e+02  -1.366062e+02
  -1.106423e+01  -2.152950e+02
   1.629973e+02  -1.547984e+02
   1.824238e+02  -7.842635e+00
   5.717784e+01   1.020298e+02
  -6.536432e+01   1.000700e+02
  -7.485981e+01   2.548003e+01
  -4.980378e+00  -2.614698e+01
   3.468880e+01  -1.146453e+01
  -8.890048e+00   2.200816e+01
  -8.595018e+01  -6.239416e-01
  -1.030237e+02  -9.156679e+01
  -1.128690e+01  -1.755310e+02
   1.430567e+02  -1.555330e+02
   2.426911e+02  -1.191563e+01
   1.969716e+02   1.618508e+02
   3.651110e+01   2.352900e+02
  -1.067394e+02   1.637729e+02
  -1.332677e+02   2.935877e+01
  -7.371895e+01  -4.809546e+01
  -3.285351e+01  -3.123740e+01
  -5.626307e+01   1.382557e+01
  -8.770961e+01   6.610885e+00
  -5.410620e+01  -5.680111e+01
   4.150862e+01  -1.039796e+02
   1.208716e+02  -6.622294e+01
   1.044331e+02   4.355923e+01
  -1.728966e+01   1.282881e+02
  -1.628269e+02   9.046938e+01
  -2.080574e+02  -6.531635e+01
  -8.846261e+01  -2.160462e+02
   1.254922e+02  -2.269836e+02
   2.737639e+02  -8.374817e+01
   2.510198e+02   9.380010e+01
   1.010609e+02   1.750637e+02
  -4.208632e+01   1.420639e+02
  -9.221092e+01   8.127437e+01
  -7.357320e+01   7.018353e+01
  -6.186236e+01   9.481380e+01
  -9.293839e+01   7.922701e+01
  -1.331481e+02  -2.020593e+01
  -1.198854e+02  -1.575496e+02
  -2.586645e+01  -2.300671e+02
   1.033282e+02  -1.699382e+02
   1.746976e+02  -1.194819e+01
   1.298360e+02   1.296474e+02
   1.008447e+01   1.600718e+02
  -7.607546e+01   8.424030e+01
  -6.359241e+01  -1.177125e+01
   2.188093e+00  -5.247898e+01
   2.396504e+01  -3.653887e+01
  -2.952074e+01  -1.395412e+01
  -8.469372e+01  -1.967314e+01
  -4.962798e+01  -4.073302e+01
   7.277047e+01  -3.974945e+01
   1.736669e+02   1.931188e+00
   1.465662e+02   6.323869e+01
   2.210569e+00   9.811998e+01
  -1.346195e+02   7.416812e+01
  -1.483098e+02   6.004754e+00
  -4.579312e+01  -4.968977e+01
   6.126810e+01  -4.289612e+01
   7.897036e+01   1.906229e+01
   1.668978e+01   7.385459e+01
  -4.917277e+01   6.501942e+01
  -6.874757e+01   1.329536e+00
  -5.578768e+01  -5.154535e+01
  -4.773451e+01  -4.409309e+01
  -5.760004e+01  -2.441745e+00
  -6.637789e+01  -1.477161e+00
  -4.302640e+01  -7.292608e+01
   2.940339e+01  -1.538842e+02
   1.268373e+02  -1.470716e+02
   1.807673e+02  -3.330170e+01
   1.310764e+02   9.645630e+01
   2.390610e+00   1.343145e+02
  -9.327342e+01   6.863099e+01
  -6.283886e+01  -1.203813e+01
   5.941068e+01  -2.053086e+01
   1.364114e+02   4.345783e+01
   7.201403e+01   1.087733e+02
  -8.518797e+01   1.109216e+02
  -1.927972e+02   4.488181e+01
  -1.599673e+02  -4.132183e+01
  -3.174469e+01  -8.710090e+01
   6.519448e+01  -6.349781e+01
   4.963320e+01  -1.789899e-01
  -4.061835e+01   3.058840e+01
  -9.374503e+01  -2.067677e+01
  -3.881546e+01  -1.180971e+02
   8.320669e+01  -1.576819e+02
   1.620737e+02  -6.957431e+01
   1.281680e+02   9.474661e+01
   1.481411e+01   1.960220e+02
  -8.446358e+01   1.429312e+02
  -1.056249e+02  -1.114711e+01
  -5.638812e+01  -1.219483e+02
   1.163728e+01  -1.052109e+02
   5.139696e+01  -1.587070e+01
   4.726794e+01   3.291293e+01
   1.891930e+01   8.036073e+00
   5.740115e+00  -1.842821e+01
   2.881737e+01   2.019402e+01
   5.783705e+01   9.125197e+01
   3.404295e+01   1.077970e+02
  -5.507052e+01   4.351140e+01
  -1.379536e+02  -3.878376e+01
  -1.256511e+02  -7.129678e+01
  -1.834892e+01  -5.331707e+01
   8.318350e+01  -2.506854e+01
   8.810919e+01  -5.825096e+00
   1.632641e+01   1.080693e+01
  -3.583745e+01   2.172565e+01
  -1.877956e+01   1.413904e+01
   1.636237e+01  -3.316172e+00
  -3.414207e+00  -6.452999e+00
  -6.902232e+01  -2.245204e-01
  -9.398171e+01  -2.249085e+01
  -1.925824e+01  -8.180056e+01
   1.111756e+02  -1.188372e+02
   1.902289e+02  -6.591143e+01
   1.526112e+02   6.091299e+01
   3.147154e+01   1.619580e+02
  -8.114736e+01   1.564078e+02
  -1.177485e+02   6.529349e+01
  -8.171456e+01  -1.987834e+01
  -2.659720e+01  -3.799319e+01
  -1.460039e+00  -1.227042e+01
  -1.339917e+01  -7.615999e+00
  -3.128505e+01  -4.923420e+01
  -1.901907e+01  -9.232499e+01
   2.969422e+01  -7.279655e+01
   8.001214e+01   1.590036e+01
   8.050291e+01   1.042286e+02
   1.255629e+01   1.120642e+02
  -7.717492e+01   3.087869e+01
  -1.065504e+02  -6.763069e+01
  -3.929779e+01  -1.043331e+02
   6.502379e+01  -6.362275e+01
   1.041017e+02   8.255945e+00
   4.531606e+01   5.712976e+01
  -3.417840e+01   6.061684e+01
  -3.886428e+01   2.968854e+01
   2.798787e+01  -4.778808e+00
   6.942359e+01  -8.733243e+00
   1.802270e+01   2.709811e+01
  -7.963126e+01   6.662993e+01
  -1.216392e+02   5.530304e+01
  -7.085124e+01  -1.590829e+01
   1.399145e+01  -8.584832e+01
   5.759408e+01  -8.378032e+01
   4.383073e+01  -1.184016e+01
   6.212119e+00   5.357921e+01
  -2.414001e+01   4.784051e+01
  -3.710406e+01  -1.196054e+01
  -2.870244e+01  -5.445913e+01
   8.961316e-01  -3.888596e+01
   3.372434e+01   5.696634e+00
   4.226764e+01   2.470369e+01
   2.118135e+01   4.115189e+00
  -3.461053e+00  -1.890970e+01
  -7.073068e+00  -6.206819e+00
   1.750423e+00   3.302721e+01
  -4.028166e+00   5.141840e+01
  -2.798548e+01   1.925761e+01
  -3.917210e+01  -3.710722e+01
  -1.016414e+01  -6.043683e+01
   4.151870e+01  -2.511141e+01
   6.230836e+01   3.438984e+01
   1.903536e+01   6.156210e+01
  -5.712932e+01   3.641584e+01
  -9.367816e+01  -1.193948e+01
  -5.139976e+01  -4.381502e+01
   2.878106e+01  -4.535229e+01
   6.593179e+01  -2.745201e+01
   2.834010e+01  -6.836910e+00
  -3.047249e+01   2.164030e+00
  -3.465130e+01  -8.364643e+00
   2.509394e+01  -2.683861e+01
   8.192286e+01  -2.106264e+01
