
 $NMID
 id='ANONYMOUS ', fmtdat='(2E16.6)'
 volume=1.0
 tramp=1.0
 $END
   3.302201e+03  -6.394956e+01
   2.064276e+03   1.818232e+03
  -2.882357e+02   2.095640e+03
  -1.448554e+03   9.414353e+02
  -8.201865e+02  -2.000224e+02
   2.804171e+02  -3.492882e+02
   5.611953e+02   2.303366e+02
   3.143999e+01   7.117402e+02
  -5.506433e+02   6.040989e+02
  -6.919930e+02   5.510178e+00
  -3.931948e+02  -5.945121e+02
   9.467336e+01  -6.733759e+02
   4.125948e+02  -1.364680e+02
   2.862702e+02   4.935016e+02
  -1.589190e+02   5.676259e+02
  -4.424719e+02   3.848299e+01
  -2.572236e+02  -5.049303e+02
   1.865059e+02  -5.480109e+02
   4.535251e+02  -1.642681e+02
   3.621039e+02   2.241092e+02
   6.914293e+01   3.451691e+02
  -1.551986e+02   2.241802e+02
  -1.255728e+02   4.242917e+01
   1.260363e+02  -3.004860e+00
   3.022155e+02   1.578541e+02
   9.213500e+01   3.429171e+02
  -3.967146e+02   2.637681e+02
  -6.372664e+02  -9.762872e+01
  -2.953744e+02  -3.935194e+02
   3.053134e+02  -3.105323e+02
   5.471670e+02   5.901934e+01
   2.432423e+02   3.639370e+02
  -2.282369e+02   3.846092e+02
  -4.411139e+02   1.539386e+02
  -3.251171e+02  -1.625812e+02
  -7.343016e+01  -3.424179e+02
   1.002674e+02  -2.071586e+02
   6.639835e+01   1.358745e+02
  -1.437146e+02   2.690205e+02
  -2.894897e+02  -5.988696e+01
  -1.295203e+02  -5.111630e+02
   2.376801e+02  -5.069195e+02
   4.112488e+02  -9.977817e+00
   1.766059e+02   3.796727e+02
  -1.914911e+02   2.083021e+02
  -2.538989e+02  -2.533873e+02
   6.805315e+01  -4.103179e+02
   4.326233e+02  -9.494902e+01
   4.760023e+02   3.268532e+02
   1.486324e+02   4.659761e+02
  -2.906221e+02   2.735015e+02
  -4.991015e+02  -4.904267e+01
  -3.151408e+02  -2.717993e+02
   8.426970e+01  -2.618239e+02
   3.192900e+02  -6.610588e+01
   2.009911e+02   9.815185e+01
  -5.045661e+01   6.028642e+01
  -8.853540e+01  -8.868908e+01
   1.134309e+02  -1.129872e+02
   2.531786e+02   4.765166e+01
   1.202150e+02   2.133994e+02
  -1.503455e+02   2.216114e+02
  -2.881708e+02   9.455402e+01
  -1.984981e+02  -7.410406e+01
   1.530130e+01  -2.317223e+02
   2.132956e+02  -3.011649e+02
   2.994508e+02  -1.716731e+02
   2.311093e+02   1.231616e+02
   6.348205e+01   3.438205e+02
  -6.118921e+01   3.060463e+02
  -6.216815e+01   1.221672e+02
  -2.396963e+01   3.759157e+01
  -7.286910e+01   8.819745e+01
  -1.882171e+02   8.617928e+01
  -2.266511e+02  -6.754605e+01
  -1.145852e+02  -2.254837e+02
   6.709653e+01  -1.971633e+02
   1.817014e+02   7.719816e+00
   1.495407e+02   2.056358e+02
  -1.906363e+01   2.362230e+02
  -2.196544e+02   8.326554e+01
  -2.922171e+02  -1.400391e+02
  -1.593094e+02  -2.777826e+02
   6.109423e+01  -2.488851e+02
   1.687622e+02  -1.210565e+02
   1.275339e+02  -3.708606e+01
   1.039583e+02  -4.576748e+01
   2.176631e+02  -4.937464e+01
   3.497152e+02   5.708133e+01
   2.857152e+02   2.440553e+02
  -3.089918e+00   3.783661e+02
  -3.104931e+02   3.546110e+02
  -4.122592e+02   1.701793e+02
  -2.708240e+02  -7.762797e+01
  -3.749533e+01  -2.351052e+02
   9.350861e+01  -1.971496e+02
   4.181626e+01  -2.914713e+01
  -9.652933e+01   6.782151e+01
  -1.431581e+02  -1.516673e+01
  -2.932001e+01  -1.468048e+02
   1.190807e+02  -1.235179e+02
   1.274864e+02   4.668025e+01
  -1.674606e+01   1.419433e+02
  -1.539431e+02   1.819467e+01
  -1.399728e+02  -2.051250e+02
   1.649925e+01  -2.975288e+02
   1.990626e+02  -1.757240e+02
   2.937202e+02   4.739793e+01
   2.433258e+02   2.097439e+02
   7.230386e+01   2.297821e+02
  -1.013225e+02   1.318836e+02
  -1.419339e+02   1.456363e+01
  -4.137672e+01  -1.979965e+01
   5.349423e+01   4.148838e+01
   1.392934e+01   1.030759e+02
  -1.055622e+02   7.458729e+01
  -1.413285e+02  -1.412524e+01
  -4.025242e+01  -5.491469e+01
   6.995205e+01  -3.847076e+00
   4.227958e+01   7.037039e+01
  -1.148062e+02   7.744984e+01
  -2.503413e+02  -4.087257e+00
  -2.262676e+02  -1.281856e+02
  -4.286031e+01  -2.216129e+02
   1.637468e+02  -2.166370e+02
   2.359669e+02  -1.011305e+02
   1.340185e+02   3.966014e+01
  -2.188622e+01   8.219823e+01
  -6.763295e+01   3.002514e+00
   3.497770e+01  -7.960240e+01
   1.632505e+02  -4.365608e+01
   1.748719e+02   8.540611e+01
   5.742315e+01   1.696242e+02
  -7.648186e+01   1.282767e+02
  -1.158432e+02   2.216074e+01
  -5.140864e+01  -3.284905e+01
   3.017808e+01   6.507449e+00
   2.992460e+01   8.172801e+01
  -6.971993e+01   1.006943e+02
  -1.749279e+02   2.180937e+01
  -1.628844e+02  -1.072779e+02
  -1.756330e+01  -1.831878e+02
   1.353593e+02  -1.381265e+02
   1.586669e+02  -1.037594e+01
   5.372274e+01   8.945190e+01
  -5.361109e+01   9.031033e+01
  -6.578034e+01   2.513586e+01
  -9.269609e+00  -2.186307e+01
   2.476576e+01  -1.265321e+01
  -7.511510e+00   1.428357e+01
  -6.797501e+01  -1.461348e+00
  -8.427935e+01  -7.230831e+01
  -1.441904e+01  -1.426698e+02
   1.122144e+02  -1.336077e+02
   2.021363e+02  -1.991489e+01
   1.719466e+02   1.287961e+02
   3.801016e+01   1.992822e+02
  -8.757538e+01   1.433549e+02
  -1.133553e+02   2.719705e+01
  -6.269722e+01  -4.172044e+01
  -2.721869e+01  -2.736684e+01
  -4.646514e+01   1.236209e+01
  -7.157632e+01   7.343636e+00
  -4.298853e+01  -4.477303e+01
   3.333574e+01  -8.371865e+01
   9.501536e+01  -5.491258e+01
   8.309469e+01   3.216113e+01
  -1.076038e+01   1.030759e+02
  -1.289562e+02   7.845064e+01
  -1.738526e+02  -4.606024e+01
  -8.350964e+01  -1.760041e+02
   9.486967e+01  -1.953601e+02
   2.276825e+02  -8.109687e+01
   2.169138e+02   7.120910e+01
   9.244776e+01   1.466163e+02
  -3.137053e+01   1.230569e+02
  -7.713261e+01   7.192490e+01
  -6.273815e+01   6.095233e+01
  -5.200908e+01   8.047603e+01
  -7.687628e+01   6.746852e+01
  -1.116268e+02  -1.486592e+01
  -1.041944e+02  -1.297053e+02
  -2.813491e+01  -1.929635e+02
   8.224994e+01  -1.469368e+02
   1.479073e+02  -1.680757e+01
   1.149068e+02   1.043296e+02
   1.503546e+01   1.351558e+02
  -5.966126e+01   7.557623e+01
  -5.286857e+01  -4.595439e+00
  -1.459427e+00  -4.124048e+01
   1.517010e+01  -3.066638e+01
  -2.748873e+01  -1.248590e+01
  -7.039338e+01  -1.587126e+01
  -4.127709e+01  -3.264724e+01
   5.784814e+01  -3.419588e+01
   1.418809e+02  -3.529284e+00
   1.242046e+02   4.652409e+01
   8.122628e+00   7.976505e+01
  -1.078058e+02   6.550712e+01
  -1.243028e+02   1.067880e+01
  -4.061026e+01  -3.821684e+01
   5.061997e+01  -3.589321e+01
   6.626265e+01   1.441908e+01
   1.281402e+01   6.048675e+01
  -4.236469e+01   5.389185e+01
  -5.644939e+01   1.478137e+00
  -4.459201e+01  -4.206125e+01
  -3.995381e+01  -3.561352e+01
  -4.997805e+01  -7.384145e-01
  -5.611257e+01   4.499599e-01
  -3.543360e+01  -5.915976e+01
   2.270756e+01  -1.282117e+02
   1.008038e+02  -1.251540e+02
   1.468858e+02  -3.188911e+01
   1.104060e+02   7.709911e+01
   6.197703e+00   1.109044e+02
  -7.515022e+01   5.773747e+01
  -5.252033e+01  -9.781245e+00
   4.971598e+01  -1.850959e+01
   1.166838e+02   3.376867e+01
   6.453233e+01   8.993783e+01
  -6.817011e+01   9.611845e+01
  -1.614602e+02   4.443543e+01
  -1.370287e+02  -2.902082e+01
  -3.054523e+01  -7.280744e+01
   5.233282e+01  -5.726058e+01
   4.173310e+01  -3.526386e+00
  -3.311843e+01   2.557232e+01
  -7.874480e+01  -1.603908e+01
  -3.357043e+01  -9.926668e+01
   6.953488e+01  -1.341804e+02
   1.373179e+02  -6.015785e+01
   1.100727e+02   7.916878e+01
   1.541818e+01   1.659951e+02
  -6.863085e+01   1.231559e+02
  -8.922451e+01  -5.700974e+00
  -5.170215e+01  -1.005964e+02
   4.373863e+00  -8.957834e+01
   4.131522e+01  -1.588706e+01
   4.221176e+01   2.621644e+01
   1.843275e+01   6.504247e+00
   3.856816e+00  -1.638728e+01
   2.213575e+01   1.488528e+01
   5.020060e+01   7.506929e+01
   3.372607e+01   9.088559e+01
  -4.298585e+01   3.847617e+01
  -1.176426e+02  -3.003107e+01
  -1.092042e+02  -5.744815e+01
  -1.639557e+01  -4.355089e+01
   7.137017e+01  -2.212066e+01
   7.446843e+01  -7.427400e+00
   1.225382e+01   7.730372e+00
  -3.071299e+01   1.937248e+01
  -1.405258e+01   1.362318e+01
   1.539265e+01  -2.619762e+00
  -3.789886e+00  -6.209924e+00
  -6.009322e+01   1.452281e-01
  -7.917090e+01  -1.747704e+01
  -1.454162e+01  -6.835704e+01
   9.387852e+01  -1.014140e+02
   1.579998e+02  -5.732236e+01
   1.268568e+02   5.043863e+01
   2.820683e+01   1.363188e+02
  -6.465551e+01   1.318291e+02
  -9.707732e+01   5.548552e+01
  -6.916357e+01  -1.562007e+01
  -2.272003e+01  -3.073670e+01
  -3.545186e-02  -9.237483e+00
  -1.043095e+01  -5.038169e+00
  -2.804300e+01  -3.979758e+01
  -1.920657e+01  -7.686242e+01
   2.341170e+01  -6.178513e+01
   6.835460e+01   1.258150e+01
   6.918321e+01   8.774709e+01
   1.032662e+01   9.457936e+01
  -6.630724e+01   2.550309e+01
  -9.042478e+01  -5.745601e+01
  -3.307980e+01  -8.715721e+01
   5.415530e+01  -5.258762e+01
   8.618777e+01   6.007696e+00
   3.746473e+01   4.529376e+01
  -2.723918e+01   4.909534e+01
  -2.980569e+01   2.535214e+01
   2.553385e+01  -3.301761e+00
   5.847185e+01  -8.189329e+00
   1.478479e+01   2.190633e+01
  -6.576324e+01   5.777859e+01
  -9.964934e+01   5.030323e+01
  -5.791295e+01  -1.074592e+01
   1.062242e+01  -7.194986e+01
   4.547468e+01  -7.055513e+01
   3.465955e+01  -8.876049e+00
   4.879171e+00   4.592749e+01
  -1.995589e+01   3.934954e+01
  -3.143843e+01  -1.136880e+01
  -2.469786e+01  -4.528857e+01
   6.157404e-01  -3.095656e+01
   2.844721e+01   5.023439e+00
   3.536416e+01   1.884186e+01
   1.776610e+01   2.072164e+00
  -2.396480e+00  -1.440708e+01
  -5.935012e+00  -2.165916e+00
  -4.491068e-01   2.907997e+01
  -6.374582e+00   4.151524e+01
  -2.471200e+01   1.321200e+01
  -3.110896e+01  -3.313568e+01
  -5.960792e+00  -5.113241e+01
   3.558895e+01  -2.066095e+01
   5.155174e+01   2.937073e+01
   1.592800e+01   5.215177e+01
  -4.681342e+01   3.115561e+01
  -7.787633e+01  -9.308217e+00
  -4.359415e+01  -3.605249e+01
   2.342941e+01  -3.744229e+01
   5.483104e+01  -2.260614e+01
   2.250804e+01  -5.683304e+00
  -2.790068e+01   1.131676e+00
  -3.049868e+01  -8.661508e+00
   2.239275e+01  -2.465327e+01
   7.174808e+01  -1.915488e+01
