
 $NMID
 id='ANONYMOUS ', fmtdat='(2E16.6)'
 volume=1.0
 tramp=1.0
 $END
  -2.612929e+03   6.815561e+00
  -1.859078e+03  -1.162679e+03
  -2.898659e+02  -1.655447e+03
   8.324535e+02  -1.293823e+03
   8.793957e+02  -5.000177e+02
   2.762489e+02   5.696023e+01
  -1.644871e+02   3.000522e+01
  -8.284150e+01  -3.300710e+02
   2.751638e+02  -4.778604e+02
   4.969697e+02  -1.577915e+02
   4.045054e+02   3.418575e+02
   1.041072e+02   5.206373e+02
  -1.632000e+02   2.054092e+02
  -1.900600e+02  -2.750016e+02
   4.214946e+01  -4.340666e+02
   3.039667e+02  -1.130808e+02
   2.955745e+02   3.767013e+02
  -3.376124e+01   5.758606e+02
  -3.886518e+02   3.283044e+02
  -4.324276e+02  -9.320881e+01
  -1.692257e+02  -3.064107e+02
   6.683952e+01  -2.251441e+02
   1.792040e+01  -9.637946e+01
  -1.901239e+02  -1.494639e+02
  -2.129341e+02  -3.066464e+02
   8.149294e+01  -3.096563e+02
   4.349747e+02  -7.272058e+01
   4.781853e+02   2.022814e+02
   1.396771e+02   2.686267e+02
  -2.709389e+02   9.603040e+01
  -3.820704e+02  -1.480143e+02
  -1.253290e+02  -2.923464e+02
   2.307389e+02  -2.693885e+02
   3.795874e+02  -9.960972e+01
   2.673107e+02   1.197345e+02
   8.596648e+01   2.299206e+02
   2.942488e+01   1.369393e+02
   1.039168e+02  -4.131256e+01
   1.684520e+02  -5.628150e+01
   1.081661e+02   1.683744e+02
  -5.670652e+01   3.913816e+02
  -2.019686e+02   3.218013e+02
  -2.094314e+02   1.904762e+00
  -6.921114e+01  -2.092950e+02
   9.078341e+01  -7.153919e+01
   9.360189e+01   2.298794e+02
  -1.151033e+02   3.054565e+02
  -3.708649e+02   2.994395e+01
  -4.128259e+02  -3.250135e+02
  -1.439736e+02  -4.236995e+02
   2.438530e+02  -2.229377e+02
   4.383798e+02   4.924710e+01
   3.038647e+02   1.832642e+02
  -4.103475e+00   1.634387e+02
  -2.118922e+02   8.930367e+01
  -1.915154e+02   3.247003e+01
  -5.070008e+01   6.967992e+00
   1.369825e+01   7.723104e+00
  -6.789618e+01   1.135331e+01
  -1.685345e+02  -3.198018e+01
  -1.109400e+02  -1.389422e+02
   1.177674e+02  -2.235009e+02
   3.175384e+02  -1.525638e+02
   2.711513e+02   9.000976e+01
  -1.375494e+01   3.313792e+02
  -2.960297e+02   3.566655e+02
  -3.515435e+02   1.312450e+02
  -1.977126e+02  -1.596621e+02
  -3.486246e+01  -3.045619e+02
   4.424447e+00  -2.679347e+02
  -1.705048e+01  -1.775077e+02
   3.119792e+01  -1.394252e+02
   1.601802e+02  -1.197447e+02
   2.524217e+02  -2.562824e+01
   2.101897e+02   1.362719e+02
   5.798084e+01   2.341211e+02
  -9.800839e+01   1.543395e+02
  -1.632838e+02  -5.788413e+01
  -1.011081e+02  -2.271433e+02
   5.901384e+01  -2.136426e+02
   2.204636e+02  -3.676446e+01
   2.633871e+02   1.615410e+02
   1.475891e+02   2.550395e+02
  -3.014288e+01   2.278895e+02
  -1.301590e+02   1.528286e+02
  -1.322097e+02   1.012350e+02
  -1.538110e+02   7.741965e+01
  -2.738586e+02   2.621152e+01
  -3.843636e+02  -1.012855e+02
  -2.916063e+02  -2.796736e+02
   3.106841e+01  -4.023725e+02
   3.602177e+02  -3.603115e+02
   4.387312e+02  -1.501802e+02
   2.457661e+02   9.657275e+01
   3.355642e+00   2.159741e+02
  -7.388819e+01   1.596013e+02
   1.590672e+01   3.515332e+01
   1.128192e+02  -1.182810e+01
   9.548251e+01   4.853753e+01
  -1.005585e+01   1.107727e+02
  -9.236502e+01   6.925071e+01
  -7.370574e+01  -4.709128e+01
   3.213177e+01  -9.711322e+01
   1.364399e+02   1.340402e+01
   1.345634e+02   2.113783e+02
  -1.357889e+01   3.119384e+02
  -2.267581e+02   1.989953e+02
  -3.432127e+02  -5.459461e+01
  -2.600794e+02  -2.524658e+02
  -4.310890e+01  -2.600990e+02
   1.263586e+02  -1.222202e+02
   1.293175e+02   1.710106e+00
   2.212138e+01   6.478617e+00
  -4.042745e+01  -6.667233e+01
   1.761239e+01  -1.016726e+02
   1.160563e+02  -4.766385e+01
   1.230100e+02   3.215258e+01
   1.703389e+01   4.479265e+01
  -7.829882e+01  -2.386228e+01
  -2.942100e+01  -9.580302e+01
   1.489607e+02  -8.317827e+01
   2.895534e+02   2.891949e+01
   2.370903e+02   1.719228e+02
   1.177163e+01   2.487784e+02
  -2.039017e+02   2.057410e+02
  -2.434749e+02   7.546168e+01
  -1.130310e+02  -4.154772e+01
   3.147969e+01  -5.894538e+01
   4.848174e+01   1.141711e+01
  -5.919436e+01   6.574484e+01
  -1.673971e+02   1.833767e+01
  -1.621959e+02  -9.820625e+01
  -4.447899e+01  -1.652834e+02
   8.058636e+01  -1.147523e+02
   1.075357e+02  -8.996873e+00
   3.138322e+01   3.230997e+01
  -4.692676e+01  -3.016702e+01
  -2.177909e+01  -1.148507e+02
   1.020941e+02  -1.133642e+02
   2.030589e+02  -4.212690e+00
   1.648539e+02   1.313719e+02
   3.743683e+00   1.895275e+02
  -1.416632e+02   1.320228e+02
  -1.520152e+02   1.101954e+01
  -4.526051e+01  -7.871629e+01
   5.536308e+01  -7.970972e+01
   5.860810e+01  -1.927410e+01
  -7.227936e+00   2.306292e+01
  -4.229879e+01   4.124070e+00
   7.241649e+00  -3.217548e+01
   9.062626e+01  -7.317535e+00
   1.065599e+02   8.967239e+01
   8.788837e+00   1.726296e+02
  -1.413512e+02   1.439263e+02
  -2.252925e+02   1.361638e+00
  -1.740528e+02  -1.529244e+02
  -3.094876e+01  -2.081578e+02
   9.109309e+01  -1.423772e+02
   1.162755e+02  -2.995564e+01
   6.941079e+01   3.530947e+01
   3.366961e+01   2.343668e+01
   5.278038e+01  -1.457927e+01
   8.554126e+01  -7.153784e+00
   5.991104e+01   5.673262e+01
  -3.553326e+01   1.080802e+02
  -1.241070e+02   7.030087e+01
  -1.108250e+02  -4.534560e+01
   1.769917e+01  -1.311710e+02
   1.639072e+02  -8.685281e+01
   1.969608e+02   6.906380e+01
   7.110939e+01   2.055169e+02
  -1.267438e+02   2.032919e+02
  -2.500980e+02   6.730254e+01
  -2.200137e+02  -8.767994e+01
  -8.509173e+01  -1.536818e+02
   3.861855e+01  -1.229945e+02
   7.926013e+01  -7.147803e+01
   5.981294e+01  -6.461751e+01
   4.988550e+01  -8.941365e+01
   8.289248e+01  -7.683946e+01
   1.241473e+02   1.479261e+01
   1.116867e+02   1.428561e+02
   2.294580e+01   2.094642e+02
  -9.440516e+01   1.516555e+02
  -1.555465e+02   5.474974e+00
  -1.121861e+02  -1.212598e+02
  -3.189086e+00  -1.435108e+02
   7.451574e+01  -6.924306e+01
   5.987550e+01   2.060380e+01
  -7.631865e+00   5.547978e+01
  -3.276684e+01   3.451080e+01
   2.106448e+01   8.200595e+00
   8.121743e+01   1.395103e+01
   4.938492e+01   3.822112e+01
  -7.277625e+01   3.900869e+01
  -1.697332e+02  -3.939434e+00
  -1.352515e+02  -6.524765e+01
   8.267687e+00  -9.612735e+01
   1.321542e+02  -6.828541e+01
   1.357587e+02  -9.198411e-01
   3.928813e+01   5.152605e+01
  -5.560337e+01   4.405733e+01
  -7.392335e+01  -1.619779e+01
  -2.358056e+01  -7.113702e+01
   3.788798e+01  -6.545897e+01
   6.657616e+01  -4.923128e+00
   6.087411e+01   4.717055e+01
   4.719059e+01   4.101361e+01
   4.865283e+01   1.379770e+00
   5.991877e+01   1.102709e+00
   4.631288e+01   6.978520e+01
  -2.161368e+01   1.461387e+02
  -1.213287e+02   1.389943e+02
  -1.765500e+02   3.212862e+01
  -1.259594e+02  -8.987810e+01
  -1.844414e-01  -1.278082e+02
   8.949449e+01  -6.898644e+01
   5.932162e+01   7.530131e+00
  -5.347685e+01   1.969796e+01
  -1.224773e+02  -3.722746e+01
  -6.290511e+01  -9.806204e+01
   7.903660e+01  -9.961347e+01
   1.742889e+02  -3.686814e+01
   1.419718e+02   4.141377e+01
   2.493502e+01   7.813808e+01
  -6.127893e+01   5.210193e+01
  -4.493768e+01  -5.353893e+00
   3.789792e+01  -3.118671e+01
   8.748663e+01   1.590857e+01
   4.155046e+01   1.055362e+02
  -6.596366e+01   1.462993e+02
  -1.406859e+02   7.116895e+01
  -1.181220e+02  -7.872303e+01
  -1.985779e+01  -1.751673e+02
   7.319029e+01  -1.288007e+02
   9.597655e+01   1.246952e+01
   4.860191e+01   1.123413e+02
  -1.749376e+01   9.343663e+01
  -5.068793e+01   1.107238e+01
  -3.884819e+01  -3.030379e+01
  -1.111368e+01  -6.251909e+00
  -6.395920e+00   1.475452e+01
  -3.314193e+01  -2.247210e+01
  -5.509196e+01  -8.378949e+01
  -2.529165e+01  -9.492997e+01
   5.600880e+01  -3.820085e+01
   1.245003e+02   3.237086e+01
   1.104288e+02   6.253736e+01
   1.782445e+01   5.088617e+01
  -7.053608e+01   2.640681e+01
  -7.896808e+01   4.918083e+00
  -1.947186e+01  -1.265685e+01
   2.958503e+01  -1.963668e+01
   2.058217e+01  -9.350824e+00
  -1.042111e+01   4.956770e+00
   1.266534e+00   3.409406e+00
   5.778053e+01  -4.195521e+00
   8.720812e+01   1.775068e+01
   2.787768e+01   7.513052e+01
  -9.220802e+01   1.130750e+02
  -1.747778e+02   6.862913e+01
  -1.482066e+02  -4.735344e+01
  -3.579625e+01  -1.457080e+02
   7.284499e+01  -1.478585e+02
   1.084782e+02  -6.642406e+01
   7.499847e+01   1.526252e+01
   2.595272e+01   3.615222e+01
   5.225187e+00   1.426938e+01
   1.484144e+01   9.848172e+00
   2.727978e+01   4.693734e+01
   1.528326e+01   8.486223e+01
  -2.612723e+01   6.711013e+01
  -7.153504e+01  -1.079994e+01
  -7.733939e+01  -8.934980e+01
  -2.021408e+01  -1.010488e+02
   6.490325e+01  -3.534343e+01
   1.004884e+02   5.272445e+01
   4.332034e+01   9.446931e+01
  -5.668673e+01   6.538415e+01
  -9.957528e+01  -2.887254e+00
  -4.689713e+01  -5.667307e+01
   3.139652e+01  -6.283724e+01
   4.119139e+01  -2.846737e+01
  -2.010095e+01   8.666014e+00
  -6.267683e+01   1.072102e+01
  -1.931180e+01  -2.600742e+01
   7.121449e+01  -6.191874e+01
   1.140669e+02  -4.876784e+01
   7.015333e+01   1.689672e+01
  -9.815517e+00   8.021457e+01
  -5.478001e+01   8.018511e+01
  -4.546644e+01   1.650546e+01
  -1.060994e+01  -4.643836e+01
   1.981111e+01  -4.792373e+01
   3.449709e+01   4.760530e+00
   2.862976e+01   4.917916e+01
   1.275682e+00   4.040019e+01
  -3.115664e+01  -2.175497e+00
  -4.068534e+01  -2.486552e+01
  -1.960403e+01  -5.998162e+00
   5.640571e+00   2.120750e+01
   6.423378e+00   1.339066e+01
  -9.357553e+00  -2.701281e+01
  -7.691945e+00  -5.262697e+01
   2.166936e+01  -2.788691e+01
   4.385645e+01   2.638867e+01
   2.064505e+01   5.435631e+01
  -3.456940e+01   2.735200e+01
  -6.197661e+01  -2.603935e+01
  -2.214627e+01  -5.411140e+01
   5.301778e+01  -3.584624e+01
   8.909173e+01   6.386031e+00
   4.915507e+01   3.859048e+01
  -2.536679e+01   4.539866e+01
  -6.026296e+01   3.107657e+01
  -2.908068e+01   8.239566e+00
   2.181745e+01  -6.416735e+00
   2.903124e+01   5.861633e-01
  -1.726936e+01   2.105310e+01
  -6.573271e+01   2.181589e+01
