
 $NMID
 id='ANONYMOUS ', fmtdat='(2E16.6)'
 volume=1.0
 tramp=1.0
 $END
  -2.912574e+03  -3.301791e+01
  -2.090498e+03  -1.295807e+03
  -3.605957e+02  -1.863147e+03
   9.239949e+02  -1.503009e+03
   1.031257e+03  -6.155992e+02
   3.705521e+02   5.497448e+01
  -1.570899e+02   6.306048e+01
  -1.006834e+02  -3.437745e+02
   2.947847e+02  -5.332962e+02
   5.544842e+02  -1.882350e+02
   4.605577e+02   3.742989e+02
   1.300006e+02   5.852506e+02
  -1.684680e+02   2.423568e+02
  -2.070032e+02  -2.949402e+02
   4.285584e+01  -4.838935e+02
   3.373198e+02  -1.327110e+02
   3.356929e+02   4.238479e+02
  -3.606146e+01   6.610828e+02
  -4.464815e+02   3.829256e+02
  -4.999805e+02  -1.039244e+02
  -1.968865e+02  -3.508202e+02
   7.238165e+01  -2.571266e+02
   1.353164e+01  -1.166149e+02
  -2.164348e+02  -1.891588e+02
  -2.254796e+02  -3.651409e+02
   1.139237e+02  -3.445655e+02
   4.964451e+02  -5.629037e+01
   5.241775e+02   2.458280e+02
   1.423520e+02   2.940401e+02
  -3.028965e+02   8.533522e+01
  -4.154939e+02  -1.806181e+02
  -1.279032e+02  -3.264425e+02
   2.658358e+02  -2.919006e+02
   4.275737e+02  -1.025430e+02
   2.978385e+02   1.363856e+02
   9.702353e+01   2.535410e+02
   4.421762e+01   1.528308e+02
   1.327769e+02  -3.290819e+01
   1.908254e+02  -4.094478e+01
   1.011888e+02   2.000327e+02
  -8.660480e+01   4.299699e+02
  -2.291195e+02   3.465608e+02
  -2.200053e+02   1.619099e+00
  -6.856693e+01  -2.219492e+02
   9.274550e+01  -6.935167e+01
   8.808116e+01   2.581919e+02
  -1.390791e+02   3.352185e+02
  -4.160658e+02   2.237562e+01
  -4.583520e+02  -3.766506e+02
  -1.563815e+02  -4.814610e+02
   2.767256e+02  -2.456648e+02
   4.929052e+02   6.322470e+01
   3.434685e+02   2.062437e+02
   1.573765e+00   1.787785e+02
  -2.337539e+02   1.020379e+02
  -2.206330e+02   4.547176e+01
  -6.852964e+01   1.102171e+01
   1.029517e+01   1.081605e-01
  -7.129534e+01   3.292501e+00
  -1.839713e+02  -3.646006e+01
  -1.244268e+02  -1.534005e+02
   1.354847e+02  -2.532118e+02
   3.685339e+02  -1.724359e+02
   3.134875e+02   1.106702e+02
  -2.391460e+01   3.863832e+02
  -3.527506e+02   4.040220e+02
  -4.069029e+02   1.380327e+02
  -2.183781e+02  -1.883015e+02
  -3.210298e+01  -3.434382e+02
   4.173167e+00  -3.028375e+02
  -2.213163e+01  -2.092404e+02
   4.097099e+01  -1.673950e+02
   1.933945e+02  -1.344309e+02
   2.926594e+02  -1.751543e+01
   2.339183e+02   1.651899e+02
   5.623258e+01   2.674315e+02
  -1.165325e+02   1.693981e+02
  -1.821846e+02  -7.325936e+01
  -1.059761e+02  -2.616508e+02
   7.448709e+01  -2.393625e+02
   2.509621e+02  -3.340925e+01
   2.938864e+02   1.904185e+02
   1.626674e+02   2.910328e+02
  -3.542160e+01   2.577573e+02
  -1.483214e+02   1.753223e+02
  -1.543001e+02   1.185706e+02
  -1.819097e+02   8.712182e+01
  -3.171340e+02   2.135427e+01
  -4.381829e+02  -1.274740e+02
  -3.266611e+02  -3.275422e+02
   4.612318e+01  -4.594015e+02
   4.218935e+02  -4.030833e+02
   5.046692e+02  -1.603385e+02
   2.754498e+02   1.159154e+02
  -3.021118e+00   2.436440e+02
  -8.464594e+01   1.773817e+02
   2.260176e+01   4.209496e+01
   1.290770e+02  -5.866917e+00
   1.027979e+02   5.917718e+01
  -1.642096e+01   1.218902e+02
  -1.029761e+02   7.272145e+01
  -7.814255e+01  -5.397512e+01
   3.893406e+01  -1.056013e+02
   1.529210e+02   2.039792e+01
   1.486374e+02   2.438270e+02
  -2.145108e+01   3.564764e+02
  -2.651307e+02   2.239214e+02
  -3.943185e+02  -7.042418e+01
  -2.921105e+02  -2.968203e+02
  -4.085105e+01  -2.992911e+02
   1.483663e+02  -1.354199e+02
   1.457945e+02   5.640967e+00
   2.359299e+01   6.185787e+00
  -4.306662e+01  -7.875487e+01
   2.485727e+01  -1.147068e+02
   1.335209e+02  -4.940613e+01
   1.374709e+02   4.024260e+01
   1.663796e+01   4.994606e+01
  -8.893093e+01  -3.138298e+01
  -2.998635e+01  -1.117574e+02
   1.745221e+02  -9.173035e+01
   3.323748e+02   4.155058e+01
   2.668949e+02   2.045978e+02
   5.260036e+00   2.854698e+02
  -2.396523e+02   2.286610e+02
  -2.789585e+02   7.881917e+01
  -1.260141e+02  -4.922461e+01
   3.738085e+01  -6.422548e+01
   5.296297e+01   1.485222e+01
  -7.061417e+01   7.199842e+01
  -1.909016e+02   1.529685e+01
  -1.814752e+02  -1.158771e+02
  -4.642406e+01  -1.884731e+02
   9.408725e+01  -1.278665e+02
   1.216434e+02  -7.166802e+00
   3.331601e+01   3.694168e+01
  -5.392373e+01  -3.777080e+01
  -2.118882e+01  -1.341112e+02
   1.216889e+02  -1.276833e+02
   2.336100e+02   1.265733e+00
   1.849750e+02   1.550456e+02
  -7.451020e-01   2.162728e+02
  -1.643497e+02   1.470085e+02
  -1.727902e+02   9.850249e+00
  -4.950787e+01  -8.937976e+01
   6.453018e+01  -8.874339e+01
   6.635654e+01  -2.045176e+01
  -1.020672e+01   2.590302e+01
  -4.969094e+01   2.748325e+00
   9.209499e+00  -3.815686e+01
   1.056326e+02  -6.940339e+00
   1.213583e+02   1.062356e+02
   5.583699e+00   1.994477e+02
  -1.666487e+02   1.616027e+02
  -2.584095e+02  -4.922092e+00
  -1.950550e+02  -1.797795e+02
  -3.045649e+01  -2.383871e+02
   1.067898e+02  -1.602951e+02
   1.333556e+02  -3.209883e+01
   7.914518e+01   4.110149e+01
   3.858016e+01   2.711561e+01
   6.102829e+01  -1.567356e+01
   9.885690e+01  -6.211038e+00
   6.846691e+01   6.721601e+01
  -4.324661e+01   1.246274e+02
  -1.457007e+02   7.852245e+01
  -1.276474e+02  -5.555115e+01
   2.388135e+01  -1.515155e+02
   1.917473e+02  -9.585912e+01
   2.246943e+02   8.501554e+01
   7.534192e+01   2.379203e+02
  -1.513412e+02   2.292354e+02
  -2.879565e+02   7.017443e+01
  -2.489074e+02  -1.056509e+02
  -9.318549e+01  -1.771897e+02
   4.700136e+01  -1.392218e+02
   9.184122e+01  -7.983036e+01
   6.917965e+01  -7.286642e+01
   5.852591e+01  -1.017687e+02
   9.664032e+01  -8.668554e+01
   1.422914e+02   1.947258e+01
   1.249199e+02   1.662283e+02
   2.132778e+01   2.404584e+02
  -1.116474e+02   1.711433e+02
  -1.777652e+02   2.075770e+00
  -1.248889e+02  -1.417693e+02
   3.605015e-01  -1.640655e+02
   8.743511e+01  -7.657304e+01
   6.812540e+01   2.622225e+01
  -1.087851e+01   6.416966e+01
  -3.967409e+01   3.867612e+01
   2.334168e+01   9.219063e+00
   9.328528e+01   1.749097e+01
   5.615540e+01   4.516073e+01
  -8.511445e+01   4.318070e+01
  -1.956746e+02  -8.985370e+00
  -1.534545e+02  -7.884993e+01
   1.308935e+01  -1.105057e+02
   1.541347e+02  -7.501867e+01
   1.555177e+02   2.671193e+00
   4.337720e+01   6.063663e+01
  -6.480803e+01   4.977205e+01
  -8.456728e+01  -2.018387e+01
  -2.626919e+01  -8.268513e+01
   4.424090e+01  -7.499764e+01
   7.693396e+01  -4.443431e+00
   6.982985e+01   5.570195e+01
   5.352634e+01   4.826613e+01
   5.526419e+01   2.531068e+00
   6.855369e+01   2.619979e+00
   5.220228e+01   8.157885e+01
  -2.768134e+01   1.677290e+02
  -1.430309e+02   1.568665e+02
  -2.044536e+02   3.264005e+01
  -1.429342e+02  -1.062815e+02
   3.127826e+00  -1.470221e+02
   1.048116e+02  -7.761259e+01
   6.810340e+01   9.645052e+00
  -6.166455e+01   2.145034e+01
  -1.392729e+02  -4.518177e+01
  -6.947334e+01  -1.136203e+02
   9.300373e+01  -1.120655e+02
   2.002676e+02  -3.771772e+01
   1.611381e+02   5.112163e+01
   2.629200e+01   8.986092e+01
  -7.151316e+01   5.752829e+01
  -5.119941e+01  -7.834411e+00
   4.432112e+01  -3.521885e+01
   1.001624e+02   1.996102e+01
   4.592026e+01   1.217571e+02
  -7.786078e+01   1.665864e+02
  -1.621619e+02   7.932809e+01
  -1.338069e+02  -9.205999e+01
  -1.949612e+01  -2.008584e+02
   8.636850e+01  -1.457541e+02
   1.095748e+02   1.679458e+01
   5.269718e+01   1.299147e+02
  -2.299026e+01   1.061894e+02
  -5.871142e+01   1.101237e+01
  -4.328536e+01  -3.556680e+01
  -1.187762e+01  -7.159396e+00
  -7.765880e+00   1.648437e+01
  -3.817513e+01  -2.715377e+01
  -6.142837e+01  -9.740167e+01
  -2.614648e+01  -1.088208e+02
   6.571813e+01  -4.215468e+01
   1.417906e+02   3.960754e+01
   1.246132e+02   7.383912e+01
   1.931338e+01   5.900922e+01
  -8.087048e+01   2.914595e+01
  -9.041293e+01   3.773673e+00
  -2.249841e+01  -1.538989e+01
   3.398000e+01  -2.185312e+01
   2.413371e+01  -9.733958e+00
  -1.156022e+01   5.764554e+00
   1.205184e+00   3.599867e+00
   6.577572e+01  -4.095432e+00
   9.973716e+01   2.207656e+01
   3.140345e+01   8.701537e+01
  -1.072886e+02   1.281557e+02
  -2.021825e+02   7.553355e+01
  -1.699479e+02  -5.693225e+01
  -3.849845e+01  -1.676877e+02
   8.688566e+01  -1.683451e+02
   1.261134e+02  -7.436403e+01
   8.568727e+01   1.890582e+01
   2.905876e+01   4.224138e+01
   6.050373e+00   1.692271e+01
   1.702285e+01   1.203311e+01
   2.996384e+01   5.462781e+01
   1.526740e+01   9.761584e+01
  -3.140267e+01   7.638340e+01
  -8.161377e+01  -1.357086e+01
  -8.711231e+01  -1.035774e+02
  -2.186982e+01  -1.162958e+02
   7.468708e+01  -3.995341e+01
   1.144877e+02   6.175625e+01
   4.833262e+01   1.093256e+02
  -6.632089e+01   7.452095e+01
  -1.146686e+02  -5.180813e+00
  -5.297011e+01  -6.669167e+01
   3.763009e+01  -7.215468e+01
   4.857318e+01  -3.169285e+01
  -2.267874e+01   1.009170e+01
  -7.204228e+01   1.116196e+01
  -2.183254e+01  -3.046449e+01
   8.289220e+01  -6.944434e+01
   1.321604e+02  -5.294094e+01
   8.058715e+01   2.140269e+01
  -1.280942e+01   9.196472e+01
  -6.498464e+01   9.098867e+01
  -5.325574e+01   1.840899e+01
  -1.171414e+01  -5.327006e+01
   2.364729e+01  -5.500314e+01
   3.962452e+01   5.540591e+00
   3.195543e+01   5.700774e+01
   6.597699e-01   4.695029e+01
  -3.575857e+01  -2.868482e+00
  -4.623564e+01  -2.976355e+01
  -2.230497e+01  -7.603950e+00
   6.176743e+00   2.495581e+01
   6.874061e+00   1.641315e+01
  -1.108395e+01  -3.096557e+01
  -8.814153e+00  -6.140610e+01
   2.524352e+01  -3.275956e+01
   5.076251e+01   3.054584e+01
   2.375716e+01   6.291507e+01
  -3.994842e+01   3.113245e+01
  -7.112845e+01  -3.075761e+01
  -2.472440e+01  -6.237373e+01
   6.174554e+01  -4.012457e+01
   1.024565e+02   8.939721e+00
   5.571663e+01   4.524686e+01
  -3.010562e+01   5.192099e+01
  -6.991592e+01   3.491428e+01
  -3.393939e+01   8.929163e+00
   2.453017e+01  -7.502837e+00
   3.309420e+01   4.530334e-01
  -1.953183e+01   2.343122e+01
  -7.480368e+01   2.396647e+01
