
 $NMID
 id='ANONYMOUS ', fmtdat='(2E16.6)'
 volume=1.0
 tramp=1.0
 $END
  -8.574276e+02  -2.170080e+01
  -6.033238e+02  -4.164120e+02
  -6.426022e+01  -5.658604e+02
   3.152262e+02  -4.126092e+02
   3.110478e+02  -1.282725e+02
   8.365074e+01   4.587572e+01
  -7.023700e+01   1.220753e+01
  -3.080582e+01  -1.182242e+02
   9.975770e+01  -1.602583e+02
   1.719366e+02  -4.442092e+01
   1.316051e+02   1.234307e+02
   2.440369e+01   1.790037e+02
  -6.394056e+01   6.902133e+01
  -6.507911e+01  -9.429162e+01
   1.994392e+01  -1.457572e+02
   1.053614e+02  -3.349605e+01
   9.166440e+01   1.306925e+02
  -2.514465e+01   1.889451e+02
  -1.372526e+02   9.729116e+01
  -1.400362e+02  -4.256700e+01
  -4.811530e+01  -1.055399e+02
   2.751442e+01  -7.399962e+01
   1.148124e+01  -3.262681e+01
  -5.290578e+01  -4.980618e+01
  -6.121260e+01  -9.659374e+01
   2.665227e+01  -9.428635e+01
   1.352183e+02  -1.929316e+01
   1.514691e+02   6.650974e+01
   4.762434e+01   8.749361e+01
  -8.370541e+01   3.226608e+01
  -1.219832e+02  -4.753609e+01
  -4.018261e+01  -9.474989e+01
   7.571749e+01  -8.553231e+01
   1.240450e+02  -2.862197e+01
   8.674655e+01   4.256603e+01
   2.671344e+01   7.862221e+01
   6.148471e+00   5.003403e+01
   2.758242e+01  -8.839261e+00
   4.863844e+01  -1.946998e+01
   3.308006e+01   4.847043e+01
  -1.728849e+01   1.227207e+02
  -6.621655e+01   1.056519e+02
  -7.203970e+01   2.986193e+00
  -2.609960e+01  -6.957689e+01
   2.892691e+01  -2.757206e+01
   3.062345e+01   7.172085e+01
  -3.829799e+01   9.764218e+01
  -1.197300e+02   6.549956e+00
  -1.291054e+02  -1.101975e+02
  -4.047319e+01  -1.400208e+02
   8.214424e+01  -7.023791e+01
   1.419838e+02   2.169136e+01
   9.768000e+01   6.608464e+01
  -3.170556e+00   5.723645e+01
  -7.305123e+01   2.770752e+01
  -6.631506e+01   4.426143e+00
  -1.606626e+01  -3.084702e+00
   8.341957e+00   2.453626e+00
  -2.023762e+01   6.152347e+00
  -5.623141e+01  -1.115384e+01
  -3.575056e+01  -4.819406e+01
   4.265241e+01  -7.097004e+01
   1.060589e+02  -4.156664e+01
   8.379227e+01   3.542656e+01
  -1.304098e+01   1.044126e+02
  -1.013279e+02   1.063121e+02
  -1.133117e+02   3.572891e+01
  -6.076265e+01  -5.311322e+01
  -7.790980e+00  -9.894717e+01
   6.262090e+00  -8.887752e+01
   9.778859e-01  -5.855498e+01
   1.522185e+01  -4.188071e+01
   5.262544e+01  -3.263807e+01
   7.865555e+01  -3.479504e+00
   6.387419e+01   4.552206e+01
   1.573586e+01   7.470777e+01
  -3.233390e+01   4.820981e+01
  -5.066919e+01  -1.979770e+01
  -2.921154e+01  -7.313601e+01
   2.114643e+01  -6.728624e+01
   7.040721e+01  -9.116986e+00
   8.224334e+01   5.532870e+01
   4.414738e+01   8.501428e+01
  -1.376363e+01   7.437804e+01
  -4.643007e+01   4.743726e+01
  -4.613065e+01   2.876517e+01
  -5.071148e+01   2.016521e+01
  -8.684003e+01   2.663068e+00
  -1.201907e+02  -3.926869e+01
  -8.810428e+01  -9.459711e+01
   1.699512e+01  -1.279221e+02
   1.214341e+02  -1.084827e+02
   1.429460e+02  -4.059870e+01
   7.766341e+01   3.423220e+01
  -1.298048e+00   6.919960e+01
  -2.596357e+01   5.165095e+01
   3.018227e+00   1.313292e+01
   3.461816e+01  -2.701267e+00
   3.011478e+01   1.516346e+01
  -3.206805e+00   3.526877e+01
  -3.005293e+01   2.277383e+01
  -2.420114e+01  -1.490936e+01
   1.039651e+01  -3.137375e+01
   4.328640e+01   5.440833e+00
   3.971873e+01   7.021378e+01
  -1.023464e+01   1.001558e+02
  -7.661229e+01   5.896209e+01
  -1.084371e+02  -2.477872e+01
  -7.794624e+01  -8.542352e+01
  -9.233864e+00  -8.311765e+01
   4.201485e+01  -3.676021e+01
   4.151666e+01   2.040307e+00
   7.853264e+00   2.226850e+00
  -1.147427e+01  -2.124868e+01
   6.663118e+00  -3.162611e+01
   3.724815e+01  -1.370063e+01
   3.903902e+01   1.154897e+01
   5.551924e+00   1.431255e+01
  -2.386184e+01  -8.645427e+00
  -7.409623e+00  -3.045765e+01
   4.886515e+01  -2.315709e+01
   9.129918e+01   1.486791e+01
   7.202471e+01   5.884863e+01
  -5.471025e-01   7.894419e+01
  -6.808550e+01   6.196525e+01
  -7.894056e+01   2.053102e+01
  -3.618266e+01  -1.470513e+01
   1.028205e+01  -1.873793e+01
   1.547420e+01   3.635142e+00
  -1.927184e+01   1.981717e+01
  -5.349988e+01   3.500010e+00
  -5.056317e+01  -3.381741e+01
  -1.192748e+01  -5.381975e+01
   2.749253e+01  -3.582929e+01
   3.466322e+01  -1.593564e+00
   1.004747e+01   1.040232e+01
  -1.355360e+01  -1.047402e+01
  -4.286311e+00  -3.642860e+01
   3.450508e+01  -3.359351e+01
   6.442856e+01   2.538318e+00
   5.018641e+01   4.472221e+01
  -1.918601e+00   6.066761e+01
  -4.765701e+01   4.011440e+01
  -4.940624e+01   1.112984e+00
  -1.375039e+01  -2.618104e+01
   1.888965e+01  -2.495792e+01
   1.923821e+01  -5.550388e+00
  -2.381776e+00   6.814974e+00
  -1.306717e+01   2.962142e-01
   3.410235e+00  -9.849593e+00
   2.909214e+01   5.329159e-02
   3.182055e+01   3.100352e+01
  -8.672624e-01   5.499121e+01
  -4.770428e+01   4.292481e+01
  -7.164026e+01  -3.676168e+00
  -5.277885e+01  -5.183717e+01
  -6.308401e+00  -6.728207e+01
   3.173172e+01  -4.428731e+01
   3.804099e+01  -7.514169e+00
   2.181419e+01   1.292827e+01
   1.042253e+01   8.417268e+00
   1.719690e+01  -3.562045e+00
   2.739240e+01  -4.383066e-01
   1.761687e+01   1.954415e+01
  -1.397374e+01   3.363060e+01
  -4.101931e+01   1.935232e+01
  -3.395387e+01  -1.702914e+01
   8.615124e+00  -4.116497e+01
   5.380887e+01  -2.400043e+01
   6.116018e+01   2.580490e+01
   1.884203e+01   6.649092e+01
  -4.388216e+01   6.230596e+01
  -8.093259e+01   1.708196e+01
  -6.892752e+01  -3.178496e+01
  -2.477334e+01  -5.067265e+01
   1.440819e+01  -3.880949e+01
   2.674039e+01  -2.164482e+01
   2.058301e+01  -1.981623e+01
   1.793999e+01  -2.784206e+01
   2.819639e+01  -2.297318e+01
   3.951070e+01   7.271730e+00
   3.302176e+01   4.792334e+01
   3.441779e+00   6.744297e+01
  -3.292367e+01   4.684396e+01
  -4.977559e+01  -8.696289e-01
  -3.368271e+01  -4.058386e+01
   1.408474e+00  -4.582189e+01
   2.470777e+01  -2.077645e+01
   1.834094e+01   7.509188e+00
  -3.616038e+00   1.717732e+01
  -1.086891e+01   9.975743e+00
   6.926362e+00   2.923328e+00
   2.576717e+01   6.254872e+00
   1.492696e+01   1.328538e+01
  -2.394400e+01   1.079196e+01
  -5.383353e+01  -4.820814e+00
  -4.171883e+01  -2.326378e+01
   4.413265e+00  -3.002172e+01
   4.332870e+01  -1.899144e+01
   4.326991e+01   2.144372e+00
   1.143655e+01   1.695435e+01
  -1.881687e+01   1.292440e+01
  -2.334227e+01  -6.677721e+00
  -5.827664e+00  -2.341929e+01
   1.378663e+01  -2.032698e+01
   2.142849e+01  -7.131252e-02
   1.830368e+01   1.661593e+01
   1.419606e+01   1.412754e+01
   1.568516e+01   1.230237e+00
   1.917970e+01   1.461063e+00
   1.318308e+01   2.337849e+01
  -1.002992e+01   4.639238e+01
  -4.145991e+01   4.184412e+01
  -5.683332e+01   6.467873e+00
  -3.836305e+01  -3.131706e+01
   2.487734e+00  -4.067363e+01
   3.005228e+01  -2.004342e+01
   1.891620e+01   3.698416e+00
  -1.753934e+01   5.298587e+00
  -3.863982e+01  -1.420623e+01
  -1.841036e+01  -3.248607e+01
   2.706374e+01  -3.038387e+01
   5.635103e+01  -8.699739e+00
   4.462041e+01   1.566143e+01
   6.675736e+00   2.535445e+01
  -2.031245e+01   1.561664e+01
  -1.407683e+01  -2.387734e+00
   1.281450e+01  -9.141811e+00
   2.775288e+01   6.893227e+00
   1.122296e+01   3.484828e+01
  -2.423178e+01   4.588583e+01
  -4.685274e+01   2.018638e+01
  -3.657983e+01  -2.767386e+01
  -3.023696e+00  -5.677066e+01
   2.588794e+01  -4.003238e+01
   3.039924e+01   5.713158e+00
   1.348002e+01   3.672050e+01
  -7.060325e+00   2.937795e+01
  -1.618885e+01   2.541661e+00
  -1.197204e+01  -1.025476e+01
  -3.654507e+00  -2.004232e+00
  -2.211991e+00   4.614946e+00
  -9.832953e+00  -7.961178e+00
  -1.596750e+01  -2.792009e+01
  -6.603858e+00  -3.072681e+01
   1.841854e+01  -1.099255e+01
   3.938361e+01   1.273064e+01
   3.437569e+01   2.199548e+01
   4.630616e+00   1.659544e+01
  -2.335389e+01   7.229397e+00
  -2.538570e+01   1.555458e-01
  -5.755704e+00  -4.511935e+00
   9.916789e+00  -5.852005e+00
   6.527668e+00  -2.573806e+00
  -3.629614e+00   1.508289e+00
   4.886642e-01   1.114170e+00
   1.888351e+01  -3.310486e-01
   2.763601e+01   7.453168e+00
   7.197039e+00   2.494517e+01
  -3.206953e+01   3.467085e+01
  -5.750605e+01   1.838810e+01
  -4.659414e+01  -1.851417e+01
  -8.594121e+00  -4.762621e+01
   2.631879e+01  -4.584234e+01
   3.619199e+01  -1.898142e+01
   2.380880e+01   6.391534e+00
   7.520123e+00   1.207808e+01
   1.175500e+00   4.726154e+00
   4.378503e+00   3.448154e+00
   7.805504e+00   1.542591e+01
   3.330377e+00   2.734424e+01
  -9.675155e+00   2.100030e+01
  -2.287056e+01  -4.848915e+00
  -2.317803e+01  -3.035557e+01
  -4.366702e+00  -3.308315e+01
   2.186309e+01  -1.009741e+01
   3.141494e+01   1.913933e+01
   1.190234e+01   3.134903e+01
  -1.972340e+01   1.974949e+01
  -3.185556e+01  -3.102941e+00
  -1.360926e+01  -1.909927e+01
   1.150976e+01  -1.929483e+01
   1.360562e+01  -8.076004e+00
  -6.914024e+00   2.481450e+00
  -2.038116e+01   2.200107e+00
  -5.560087e+00  -8.758287e+00
   2.403474e+01  -1.849777e+01
   3.726316e+01  -1.339092e+01
   2.188246e+01   6.868532e+00
  -4.804162e+00   2.554213e+01
  -1.911552e+01   2.443638e+01
  -1.492178e+01   4.055294e+00
  -2.475932e+00  -1.531759e+01
   7.466403e+00  -1.492595e+01
   1.116653e+01   2.370737e+00
   8.187021e+00   1.638237e+01
  -5.990518e-01   1.289185e+01
  -1.003350e+01  -1.382158e+00
  -1.240186e+01  -8.736304e+00
  -6.066251e+00  -2.234696e+00
   1.184289e+00   6.874957e+00
   1.508276e+00   4.185051e+00
  -2.386111e+00  -9.205479e+00
  -9.307778e-01  -1.725784e+01
   7.962967e+00  -8.371523e+00
   1.359334e+01   9.791004e+00
   5.292074e+00   1.823914e+01
  -1.183969e+01   8.103472e+00
  -1.940112e+01  -9.844690e+00
  -6.012834e+00  -1.797227e+01
   1.771333e+01  -1.036517e+01
   2.845761e+01   3.984250e+00
   1.499251e+01   1.339776e+01
  -9.149401e+00   1.397015e+01
  -2.009501e+01   8.636258e+00
  -9.445344e+00   1.909645e+00
   7.441847e+00  -1.746707e+00
   9.621846e+00   8.338965e-01
  -5.949393e+00   6.725193e+00
  -2.179839e+01   6.017285e+00
