
 $NMID
 id='ANONYMOUS ', fmtdat='(2E16.6)'
 volume=1.0
 tramp=1.0
 $END
   2.400007e+02  -1.236981e+01
   2.321410e+02   4.376274e+01
   1.422222e+02   1.628023e+02
  -1.825111e+01   2.422802e+02
  -1.391551e+02   1.775460e+02
  -1.299348e+02   2.796703e+01
  -3.510689e+01  -5.297981e+01
   2.746871e+01  -1.486993e+01
   1.010506e+01   5.019959e+01
  -3.842656e+01   5.005349e+01
  -6.166260e+01  -5.268513e+00
  -4.939483e+01  -4.926152e+01
  -1.643216e+01  -4.355390e+01
   1.533694e+01   1.410738e-01
   1.641360e+01   3.947659e+01
  -2.008671e+01   3.030201e+01
  -4.899593e+01  -3.021998e+01
  -2.037434e+01  -8.437100e+01
   4.411373e+01  -7.183380e+01
   7.158825e+01  -7.802210e+00
   3.984210e+01   3.638092e+01
   5.478728e+00   3.213586e+01
   1.365555e+01   2.347956e+01
   3.283463e+01   4.459174e+01
   1.235735e+01   6.194543e+01
  -3.660021e+01   3.296787e+01
  -6.015747e+01  -1.979912e+01
  -3.745409e+01  -3.902559e+01
   2.559092e+00  -1.291029e+01
   2.635201e+01   1.936497e+01
   2.383689e+01   2.946035e+01
   4.566398e-01   2.520242e+01
  -2.824534e+01   1.850691e+01
  -3.974692e+01   7.007913e+00
  -2.781467e+01  -7.448718e+00
  -1.625868e+01  -1.312124e+01
  -2.597273e+01  -9.765840e+00
  -3.858202e+01  -1.235178e+01
  -2.205485e+01  -2.582822e+01
   1.562168e+01  -3.563539e+01
   3.334931e+01  -3.002749e+01
   1.691058e+01  -1.523929e+01
  -3.781968e+00  -3.500541e+00
  -3.674594e+00  -1.003442e+00
   6.509719e+00  -9.640033e+00
   1.152465e+01  -2.363774e+01
   1.988049e+01  -2.376843e+01
   3.851964e+01   3.988251e+00
   4.614940e+01   4.080200e+01
   2.044908e+01   4.951053e+01
  -2.367401e+01   2.342500e+01
  -4.918050e+01  -4.264532e+00
  -4.104578e+01  -9.598814e+00
  -1.436251e+01  -8.013312e+00
   1.171159e+01  -1.822606e+01
   2.657633e+01  -2.547757e+01
   2.391000e+01  -9.609560e+00
   8.277993e+00   1.314775e+01
  -8.193275e-02   1.332271e+01
   9.653842e+00  -2.855625e-01
   1.519431e+01   6.429697e+00
  -1.007977e+01   3.110147e+01
  -4.775165e+01   2.972283e+01
  -4.752125e+01  -1.522438e+01
   2.676545e+00  -5.993568e+01
   5.264614e+01  -5.549163e+01
   5.397759e+01  -1.110795e+01
   2.088794e+01   2.586680e+01
   1.749126e+00   3.388562e+01
   9.749312e+00   3.095044e+01
   1.406222e+01   3.388491e+01
  -6.928936e+00   3.450816e+01
  -3.536983e+01   1.964476e+01
  -4.251627e+01  -6.649989e+00
  -2.451237e+01  -2.808650e+01
   6.687306e-01  -3.136441e+01
   1.668527e+01  -1.356523e+01
   1.809763e+01   1.479442e+01
   6.100952e+00   3.249374e+01
  -1.313191e+01   2.437640e+01
  -2.856846e+01  -1.803671e+00
  -3.067512e+01  -2.368617e+01
  -1.899898e+01  -2.989011e+01
  -1.831282e+00  -2.784212e+01
   1.156414e+01  -2.648980e+01
   1.938455e+01  -2.382304e+01
   2.876828e+01  -1.472505e+01
   4.485776e+01   5.052357e-01
   5.616961e+01   2.011720e+01
   3.991502e+01   4.228348e+01
  -7.940880e+00   5.704245e+01
  -5.506661e+01   4.899877e+01
  -6.196427e+01   1.756790e+01
  -2.879070e+01  -1.472747e+01
   3.952114e+00  -2.517746e+01
   5.641683e+00  -1.602148e+01
  -1.113657e+01  -6.726403e+00
  -1.649190e+01  -7.208155e+00
  -4.764618e+00  -1.052161e+01
   6.509216e+00  -8.410832e+00
   6.909321e+00  -1.522424e+00
   1.542389e+00   5.106053e+00
  -5.565901e+00   5.737425e+00
  -1.490174e+01  -6.034676e+00
  -1.756321e+01  -2.875527e+01
   8.172801e-01  -4.401927e+01
   3.455935e+01  -3.028044e+01
   5.359913e+01   8.485873e+00
   3.719306e+01   4.005716e+01
   1.278956e+00   3.880543e+01
  -2.028753e+01   1.465593e+01
  -1.498508e+01  -2.187953e+00
  -2.188915e-01   1.655963e+00
   3.036627e+00   1.248630e+01
  -6.995308e+00   1.279006e+01
  -1.649265e+01   2.252216e+00
  -1.329564e+01  -6.433941e+00
   1.042950e+00  -3.898720e+00
   1.128573e+01   7.483037e+00
   1.670818e+00   1.644974e+01
  -2.513914e+01   1.173091e+01
  -4.440807e+01  -7.756785e+00
  -3.296139e+01  -2.940106e+01
   3.171734e+00  -3.684525e+01
   3.276878e+01  -2.552793e+01
   3.299773e+01  -6.556363e+00
   1.188603e+01   5.136185e+00
  -5.095746e+00   4.128683e+00
  -3.225506e+00  -3.279259e+00
   1.125369e+01  -6.294118e+00
   2.246604e+01   1.154261e+00
   1.969024e+01   1.444677e+01
   4.435962e+00   2.102876e+01
  -1.084006e+01   1.334376e+01
  -1.278271e+01  -4.127032e-01
  -1.152970e+00  -3.756290e+00
   8.506292e+00   7.938696e+00
   1.287207e+00   2.031072e+01
  -1.865631e+01   1.676144e+01
  -3.117347e+01  -2.208675e+00
  -2.220402e+01  -2.092554e+01
   1.288297e+00  -2.602965e+01
   1.944335e+01  -1.693042e+01
   1.924919e+01  -2.103869e+00
   5.139314e+00   8.549369e+00
  -7.252003e+00   9.099988e+00
  -6.540560e+00   1.952156e+00
   3.511071e+00  -2.964201e+00
   8.217229e+00   1.016752e+00
  -1.191232e+00   7.123609e+00
  -1.580537e+01   2.146485e+00
  -1.761871e+01  -1.485347e+01
  -1.599856e-01  -2.761751e+01
   2.326701e+01  -2.064291e+01
   3.335347e+01   2.583129e+00
   2.351039e+01   2.378844e+01
   3.403289e+00   2.897625e+01
  -1.232501e+01   1.903748e+01
  -1.596499e+01   4.682653e+00
  -1.054207e+01  -3.661894e+00
  -5.646522e+00  -2.553288e+00
  -8.044416e+00   2.309923e+00
  -1.359074e+01   8.774651e-01
  -1.056748e+01  -9.624963e+00
   5.283698e+00  -1.830236e+01
   2.124982e+01  -1.155678e+01
   1.900681e+01   8.373377e+00
  -3.655971e+00   2.183147e+01
  -2.730321e+01   1.266413e+01
  -2.965960e+01  -1.276136e+01
  -7.520629e+00  -3.164378e+01
   2.154095e+01  -2.810743e+01
   3.647070e+01  -7.050522e+00
   2.978388e+01   1.377231e+01
   1.048179e+01   2.126722e+01
  -5.968223e+00   1.638009e+01
  -1.072391e+01   9.645591e+00
  -7.433753e+00   9.420733e+00
  -6.271150e+00   1.351667e+01
  -1.199635e+01   1.183213e+01
  -1.858480e+01  -1.882980e+00
  -1.621119e+01  -2.099486e+01
  -2.481231e+00  -3.040232e+01
   1.420696e+01  -2.100804e+01
   2.173797e+01   7.827044e-01
   1.454796e+01   1.849999e+01
  -1.214257e+00   2.023819e+01
  -1.197305e+01   8.163396e+00
  -8.835784e+00  -5.238178e+00
   2.575845e+00  -9.482318e+00
   7.116469e+00  -4.953233e+00
  -1.913806e+00  -2.430858e-01
  -1.261842e+01  -1.561273e+00
  -7.857821e+00  -6.007255e+00
   1.205048e+01  -5.863467e+00
   2.689814e+01   1.794452e+00
   1.960176e+01   1.150760e+01
  -3.737997e+00   1.510312e+01
  -2.134022e+01   9.427615e+00
  -1.973499e+01  -1.271841e+00
  -4.916089e+00  -8.837269e+00
   8.251964e+00  -7.212335e+00
   1.108218e+01   2.397679e+00
   4.814163e+00   1.131921e+01
  -4.414767e+00   1.074288e+01
  -1.053357e+01   1.173831e+00
  -1.070502e+01  -7.260070e+00
  -7.439088e+00  -6.341782e+00
  -6.282878e+00  -1.305174e-01
  -8.572588e+00  -3.071251e-01
  -7.865436e+00  -1.107704e+01
   2.682472e+00  -2.240692e+01
   1.932611e+01  -2.065153e+01
   2.814856e+01  -4.212893e+00
   1.924749e+01   1.398008e+01
  -9.114695e-01   1.960123e+01
  -1.423961e+01   1.093117e+01
  -9.053254e+00  -6.305450e-01
   7.703886e+00  -2.884568e+00
   1.729842e+01   5.305378e+00
   8.247528e+00   1.417382e+01
  -1.206534e+01   1.384921e+01
  -2.504522e+01   3.948048e+00
  -1.960525e+01  -7.195240e+00
  -2.554014e+00  -1.109688e+01
   9.348032e+00  -6.138466e+00
   6.344644e+00   2.049875e+00
  -5.838772e+00   5.051176e+00
  -1.309997e+01  -2.045606e+00
  -6.955000e+00  -1.512660e+01
   8.104796e+00  -2.168453e+01
   1.934921e+01  -1.153565e+01
   1.725569e+01   1.029301e+01
   3.629483e+00   2.487044e+01
  -1.026221e+01   1.819304e+01
  -1.377822e+01  -2.604884e+00
  -6.072846e+00  -1.665695e+01
   4.220323e+00  -1.287457e+01
   8.114890e+00  -6.751040e-01
   4.662652e+00   4.519686e+00
   3.602102e-01   6.228270e-01
   1.181004e+00  -1.682425e+00
   6.060770e+00   4.318204e+00
   8.175021e+00   1.250896e+01
   2.228990e+00   1.308233e+01
  -9.414677e+00   4.952155e+00
  -1.774440e+01  -4.496963e+00
  -1.500836e+01  -8.883799e+00
  -2.595020e+00  -7.927058e+00
   9.306456e+00  -4.400817e+00
   1.119123e+01  -3.839959e-01
   3.667908e+00   2.552277e+00
  -3.728963e+00   2.764616e+00
  -3.663279e+00   5.064530e-01
   6.465538e-01  -1.152986e+00
   1.619447e-01   3.581528e-02
  -7.424930e+00   1.392180e+00
  -1.294938e+01  -2.341871e+00
  -5.877020e+00  -1.128482e+01
   1.198680e+01  -1.720647e+01
   2.601527e+01  -1.106951e+01
   2.332591e+01   5.870850e+00
   6.169853e+00   2.098885e+01
  -1.093782e+01   2.229252e+01
  -1.631541e+01   1.064803e+01
  -1.097939e+01  -1.899657e+00
  -3.962052e+00  -5.672230e+00
  -1.449405e+00  -2.781956e+00
  -2.604701e+00  -2.115986e+00
  -3.508354e+00  -7.301034e+00
  -1.494149e+00  -1.247152e+01
   3.842915e+00  -9.814165e+00
   1.011733e+01   1.037656e+00
   1.181231e+01   1.214285e+01
   4.387650e+00   1.465208e+01
  -8.550152e+00   6.460485e+00
  -1.523099e+01  -6.234998e+00
  -7.495712e+00  -1.385111e+01
   8.047466e+00  -1.083745e+01
   1.546646e+01  -1.026842e-01
   7.667629e+00   9.413562e+00
  -4.948869e+00   1.054669e+01
  -7.271117e+00   4.175776e+00
   1.917005e+00  -2.156974e+00
   9.052396e+00  -1.911223e+00
   3.276602e+00   4.154139e+00
  -1.028463e+01   9.000342e+00
  -1.733615e+01   6.292127e+00
  -1.121163e+01  -3.275271e+00
   1.135577e+00  -1.205104e+01
   8.752137e+00  -1.218102e+01
   7.871641e+00  -3.307180e+00
   2.426872e+00   6.367881e+00
  -2.665666e+00   7.799277e+00
  -5.229293e+00   4.295467e-01
  -4.493367e+00  -7.180355e+00
  -3.877827e-01  -6.909044e+00
   4.647823e+00  -1.842166e-01
   6.215403e+00   4.261837e+00
   2.845352e+00   1.400282e+00
  -1.183894e+00  -3.946403e+00
  -7.496724e-01  -3.538734e+00
   2.897040e+00   3.452554e+00
   3.150481e+00   9.025378e+00
  -2.632675e+00   6.139485e+00
  -8.056115e+00  -2.603282e+00
  -5.136784e+00  -7.999489e+00
   4.517484e+00  -4.812433e+00
   1.004517e+01   2.998049e+00
   4.036081e+00   7.598857e+00
  -8.051235e+00   5.540903e+00
  -1.373129e+01  -3.807661e-01
  -7.488897e+00  -5.531968e+00
   3.728332e+00  -7.339046e+00
   8.984850e+00  -5.529735e+00
   4.942144e+00  -1.448613e+00
  -2.048866e+00   1.861383e+00
  -3.808323e+00   1.291220e+00
   1.378748e+00  -2.394746e+00
   7.833867e+00  -3.622072e+00
