
 $NMID
 id='ANONYMOUS ', fmtdat='(2E16.6)'
 volume=1.0
 tramp=1.0
 $END
   2.625899e+03  -9.453591e+01
   1.891952e+03   1.145682e+03
   2.907913e+02   1.672243e+03
  -8.457928e+02   1.280867e+03
  -8.655715e+02   4.555001e+02
  -2.351683e+02  -8.700434e+01
   2.000722e+02  -2.240013e+01
   9.525026e+01   3.551871e+02
  -2.780592e+02   4.944134e+02
  -5.048300e+02   1.602612e+02
  -4.120979e+02  -3.471373e+02
  -1.031659e+02  -5.271894e+02
   1.775318e+02  -2.068927e+02
   2.073154e+02   2.812485e+02
  -3.671942e+01   4.420498e+02
  -3.094599e+02   1.163260e+02
  -3.004388e+02  -3.746853e+02
   3.190177e+01  -5.690905e+02
   3.836133e+02  -3.210835e+02
   4.254244e+02   9.329770e+01
   1.670401e+02   3.029457e+02
  -6.734542e+01   2.253803e+02
  -2.536097e+01   9.359804e+01
   1.817735e+02   1.314510e+02
   2.207978e+02   2.819842e+02
  -5.737381e+01   3.051045e+02
  -4.182578e+02   9.715295e+01
  -4.860000e+02  -1.744534e+02
  -1.600765e+02  -2.670982e+02
   2.615964e+02  -1.197070e+02
   3.909395e+02   1.246002e+02
   1.421249e+02   2.873988e+02
  -2.171634e+02   2.802455e+02
  -3.746748e+02   1.135652e+02
  -2.718590e+02  -1.131352e+02
  -9.219422e+01  -2.335902e+02
  -2.357880e+01  -1.430165e+02
  -8.492173e+01   4.670109e+01
  -1.569626e+02   7.637842e+01
  -1.227556e+02  -1.495305e+02
   2.771563e+01  -3.916507e+02
   1.888926e+02  -3.377698e+02
   2.223215e+02  -1.289358e+01
   8.644255e+01   2.154210e+02
  -9.231196e+01   8.639246e+01
  -1.115818e+02  -2.217322e+02
   9.908819e+01  -3.108571e+02
   3.675956e+02  -4.567018e+01
   4.196245e+02   3.079875e+02
   1.537889e+02   4.166450e+02
  -2.368920e+02   2.308269e+02
  -4.375749e+02  -3.587585e+01
  -3.067796e+02  -1.796349e+02
   3.991525e+00  -1.709895e+02
   2.156178e+02  -9.402478e+01
   1.917061e+02  -2.634255e+01
   4.314712e+01  -9.002032e-02
  -2.182775e+01  -1.198244e+01
   6.768413e+01  -2.233122e+01
   1.739578e+02   2.637285e+01
   1.153012e+02   1.397786e+02
  -1.129683e+02   2.235641e+02
  -3.076899e+02   1.526441e+02
  -2.627524e+02  -8.227722e+01
   7.829729e+00  -3.183327e+02
   2.769632e+02  -3.518052e+02
   3.373515e+02  -1.399902e+02
   2.003838e+02   1.483113e+02
   4.530150e+01   3.013065e+02
  -1.283890e+00   2.683117e+02
   1.338179e+01   1.717201e+02
  -2.916541e+01   1.294840e+02
  -1.482706e+02   1.170882e+02
  -2.409752e+02   3.490256e+01
  -2.098771e+02  -1.227749e+02
  -6.735591e+01  -2.267907e+02
   8.895301e+01  -1.570618e+02
   1.623741e+02   4.828672e+01
   1.086270e+02   2.179931e+02
  -4.885986e+01   2.125547e+02
  -2.147796e+02   4.550645e+01
  -2.650619e+02  -1.498469e+02
  -1.531846e+02  -2.488135e+02
   2.592276e+01  -2.275048e+02
   1.281868e+02  -1.520432e+02
   1.287845e+02  -9.758948e+01
   1.461312e+02  -7.621417e+01
   2.636516e+02  -3.316409e+01
   3.768321e+02   8.725290e+01
   2.926129e+02   2.651046e+02
  -1.876079e+01   3.940638e+02
  -3.414757e+02   3.619090e+02
  -4.252780e+02   1.597952e+02
  -2.458428e+02  -8.666361e+01
  -1.201087e+01  -2.131433e+02
   6.934619e+01  -1.624749e+02
  -1.167133e+01  -3.515573e+01
  -1.079780e+02   1.864314e+01
  -9.823332e+01  -4.143087e+01
   2.981596e+00  -1.112080e+02
   8.996108e+01  -7.557675e+01
   7.809728e+01   4.309448e+01
  -2.678685e+01   9.964578e+01
  -1.352321e+02  -6.732332e+00
  -1.380212e+02  -2.039679e+02
   6.109641e+00  -3.061960e+02
   2.164511e+02  -1.989283e+02
   3.348829e+02   4.574082e+01
   2.598380e+02   2.388186e+02
   5.059017e+01   2.516481e+02
  -1.189750e+02   1.236085e+02
  -1.279161e+02   3.220539e+00
  -2.383990e+01  -6.421010e+00
   4.189326e+01   6.220333e+01
  -1.215933e+01   9.981221e+01
  -1.114673e+02   5.175967e+01
  -1.228974e+02  -2.660770e+01
  -2.004144e+01  -4.389016e+01
   7.626920e+01   1.945673e+01
   3.177276e+01   9.113094e+01
  -1.418423e+02   8.427197e+01
  -2.818292e+02  -2.012706e+01
  -2.356470e+02  -1.599081e+02
  -1.970236e+01  -2.415071e+02
   1.919109e+02  -2.074677e+02
   2.364269e+02  -8.229463e+01
   1.139391e+02   3.735520e+01
  -2.812317e+01   6.045441e+01
  -4.919601e+01  -8.353542e+00
   5.426639e+01  -6.670709e+01
   1.632856e+02  -2.422332e+01
   1.627916e+02   9.118921e+01
   4.909712e+01   1.615527e+02
  -7.573416e+01   1.159503e+02
  -1.059389e+02   1.284549e+01
  -3.334500e+01  -3.054319e+01
   4.497258e+01   2.699327e+01
   2.415365e+01   1.095575e+02
  -9.528437e+01   1.122738e+02
  -1.969691e+02   9.986531e+00
  -1.647612e+02  -1.232049e+02
  -9.425009e+00  -1.855408e+02
   1.354082e+02  -1.338213e+02
   1.498700e+02  -1.478618e+01
   4.748160e+01   7.698345e+01
  -5.206180e+01   8.065267e+01
  -5.762511e+01   2.110159e+01
   5.214463e+00  -2.236283e+01
   3.987238e+01  -5.378045e+00
  -6.788878e+00   3.038934e+01
  -8.736592e+01   8.194519e+00
  -1.048586e+02  -8.470069e+01
  -1.269986e+01  -1.670627e+02
   1.333504e+02  -1.436099e+02
   2.193017e+02  -7.944336e+00
   1.743438e+02   1.441823e+02
   3.604881e+01   2.031518e+02
  -8.574172e+01   1.423886e+02
  -1.134956e+02   3.210604e+01
  -6.880470e+01  -3.369090e+01
  -3.329420e+01  -2.269832e+01
  -5.111054e+01   1.533513e+01
  -8.284974e+01   8.856896e+00
  -5.869910e+01  -5.376785e+01
   3.267908e+01  -1.052037e+02
   1.183667e+02  -7.031295e+01
   1.075997e+02   4.145306e+01
  -1.425517e+01   1.270523e+02
  -1.564600e+02   8.802569e+01
  -1.930874e+02  -6.170519e+01
  -7.541764e+01  -1.977216e+02
   1.171977e+02  -2.017858e+02
   2.422312e+02  -7.308683e+01
   2.180399e+02   7.947298e+01
   8.802531e+01   1.483228e+02
  -3.431146e+01   1.218254e+02
  -7.600978e+01   7.231524e+01
  -5.756223e+01   6.486606e+01
  -4.723637e+01   8.856542e+01
  -7.937893e+01   7.678253e+01
  -1.215166e+02  -1.175212e+01
  -1.125568e+02  -1.368775e+02
  -2.786141e+01  -2.040632e+02
   8.820531e+01  -1.509191e+02
   1.520153e+02  -1.003716e+01
   1.132434e+02   1.150473e+02
   7.508656e+00   1.401580e+02
  -7.020945e+01   7.015655e+01
  -5.846237e+01  -1.763618e+01
   5.729363e+00  -5.339378e+01
   3.003420e+01  -3.402722e+01
  -2.156739e+01  -7.727409e+00
  -7.943609e+01  -1.211299e+01
  -4.875595e+01  -3.611642e+01
   6.953390e+01  -3.944883e+01
   1.646588e+02  -3.052007e-01
   1.333604e+02   5.954936e+01
  -4.788869e+00   9.305094e+01
  -1.264058e+02   6.968189e+01
  -1.323861e+02   4.831792e+00
  -3.973070e+01  -4.859360e+01
   5.340491e+01  -4.396137e+01
   7.248022e+01   1.412566e+01
   2.384726e+01   6.880880e+01
  -3.629207e+01   6.453568e+01
  -6.464877e+01   5.984168e+00
  -5.963100e+01  -4.487765e+01
  -4.674249e+01  -3.891182e+01
  -4.800279e+01  -4.694056e-02
  -5.863973e+01   4.544651e-01
  -4.617398e+01  -6.691107e+01
   1.813018e+01  -1.429126e+02
   1.145639e+02  -1.381819e+02
   1.705049e+02  -3.529366e+01
   1.246185e+02   8.461965e+01
   3.464673e+00   1.242304e+02
  -8.544030e+01   6.885783e+01
  -5.806517e+01  -6.271565e+00
   5.184973e+01  -2.053804e+01
   1.208986e+02   3.341271e+01
   6.429789e+01   9.420773e+01
  -7.446691e+01   9.945355e+01
  -1.693390e+02   4.096259e+01
  -1.400314e+02  -3.629011e+01
  -2.682819e+01  -7.568574e+01
   5.812782e+01  -5.300881e+01
   4.386935e+01   3.492317e+00
  -3.625864e+01   3.106387e+01
  -8.577945e+01  -1.368276e+01
  -4.273438e+01  -1.024939e+02
   6.182394e+01  -1.447242e+02
   1.366500e+02  -7.259049e+01
   1.175717e+02   7.473117e+01
   2.335734e+01   1.712330e+02
  -6.854844e+01   1.280109e+02
  -9.403587e+01  -9.471151e+00
  -5.061167e+01  -1.082862e+02
   1.388736e+01  -9.173931e+01
   4.871282e+01  -1.232889e+01
   3.916262e+01   2.842312e+01
   1.169786e+01   5.708398e+00
   5.673736e+00  -1.474934e+01
   3.208829e+01   2.093647e+01
   5.570264e+01   8.047541e+01
   2.786504e+01   9.223442e+01
  -5.308191e+01   3.869535e+01
  -1.227082e+02  -2.870096e+01
  -1.100118e+02  -5.837350e+01
  -1.851948e+01  -4.906168e+01
   6.892107e+01  -2.743206e+01
   7.715252e+01  -6.919420e+00
   1.876585e+01   1.174398e+01
  -2.871700e+01   2.007489e+01
  -1.937703e+01   9.904162e+00
   1.059491e+01  -5.074414e+00
  -1.608860e+00  -3.488240e+00
  -5.704328e+01   5.310798e+00
  -8.559913e+01  -1.545169e+01
  -2.806414e+01  -7.301178e+01
   8.831898e+01  -1.126807e+02
   1.691735e+02  -7.058747e+01
   1.453662e+02   4.365581e+01
   3.803680e+01   1.419044e+02
  -6.769402e+01   1.458159e+02
  -1.044180e+02   6.691389e+01
  -7.371760e+01  -1.330673e+01
  -2.604802e+01  -3.456062e+01
  -4.950286e+00  -1.362974e+01
  -1.437092e+01  -9.035490e+00
  -2.790840e+01  -4.489855e+01
  -1.729479e+01  -8.237003e+01
   2.393270e+01  -6.619298e+01
   7.044983e+01   9.052032e+00
   7.764753e+01   8.605046e+01
   2.146486e+01   9.864709e+01
  -6.333971e+01   3.564482e+01
  -9.950854e+01  -4.999256e+01
  -4.398643e+01  -9.153093e+01
   5.425105e+01  -6.465832e+01
   9.704309e+01   9.263055e-01
   4.651795e+01   5.389555e+01
  -2.931980e+01   6.139711e+01
  -3.896537e+01   2.850852e+01
   2.014078e+01  -8.732501e+00
   6.112642e+01  -1.181516e+01
   1.918511e+01   2.488500e+01
  -6.817741e+01   6.224754e+01
  -1.098013e+02   5.062321e+01
  -6.830370e+01  -1.466664e+01
   7.913318e+00  -7.852612e+01
   5.136897e+01  -7.926288e+01
   4.363440e+01  -1.649110e+01
   1.112878e+01   4.553241e+01
  -1.851606e+01   4.696058e+01
  -3.398283e+01  -4.432820e+00
  -2.899163e+01  -4.745433e+01
  -1.880011e+00  -3.899924e+01
   3.056438e+01   1.657205e+00
   4.007529e+01   2.308615e+01
   1.919294e+01   5.134411e+00
  -5.648086e+00  -2.025311e+01
  -6.335169e+00  -1.211053e+01
   9.139318e+00   2.676190e+01
   7.465102e+00   5.103984e+01
  -2.123960e+01   2.686519e+01
  -4.294936e+01  -2.573549e+01
  -2.040326e+01  -5.307531e+01
   3.358065e+01  -2.726480e+01
   6.087503e+01   2.459796e+01
   2.259776e+01   5.268642e+01
  -5.088008e+01   3.606924e+01
  -8.698746e+01  -4.562235e+00
  -4.882362e+01  -3.666947e+01
   2.386095e+01  -4.461370e+01
   5.828802e+01  -3.126887e+01
   2.793641e+01  -8.465743e+00
  -2.193763e+01   6.585216e+00
  -2.890584e+01  -4.684928e-01
   1.679129e+01  -2.157497e+01
   6.469227e+01  -2.305684e+01
