
 $NMID
 id='ANONYMOUS ', fmtdat='(2E16.6)'
 volume=1.0
 tramp=1.0
 $END
   7.066128e+02  -9.147045e+00
   4.839281e+02   3.420485e+02
   2.834486e+01   4.521078e+02
  -2.597577e+02   2.985085e+02
  -2.196585e+02   6.835442e+01
  -2.663947e+01  -4.119024e+01
   7.425112e+01   1.070053e+01
   1.887629e+01   1.130708e+02
  -9.002040e+01   1.309297e+02
  -1.406186e+02   2.827158e+01
  -1.015135e+02  -1.057051e+02
  -1.089174e+01  -1.434401e+02
   6.110252e+01  -4.732360e+01
   5.633295e+01   8.548101e+01
  -1.918253e+01   1.196888e+02
  -8.742329e+01   2.302450e+01
  -7.134795e+01  -1.046384e+02
   2.107357e+01  -1.425127e+02
   1.034268e+02  -6.912566e+01
   1.031593e+02   3.436977e+01
   3.436991e+01   8.031523e+01
  -2.383826e+01   5.665948e+01
  -1.342433e+01   2.046425e+01
   4.129833e+01   2.573825e+01
   5.909532e+01   6.428814e+01
  -6.531641e+00   7.876718e+01
  -1.043532e+02   3.280992e+01
  -1.311985e+02  -4.144403e+01
  -4.787451e+01  -7.604502e+01
   6.903123e+01  -4.105833e+01
   1.078162e+02   2.904377e+01
   4.093459e+01   7.797201e+01
  -5.681532e+01   7.623961e+01
  -9.934805e+01   2.935064e+01
  -7.152384e+01  -3.307481e+01
  -2.105707e+01  -6.645666e+01
   2.574473e+00  -4.061520e+01
  -1.183571e+01   1.665314e+01
  -3.874335e+01   3.067382e+01
  -4.059017e+01  -3.231132e+01
  -1.167627e+00  -1.059685e+02
   5.224463e+01  -9.513576e+01
   6.824750e+01  -2.298922e+00
   2.678013e+01   6.511485e+01
  -2.981211e+01   2.931135e+01
  -3.610403e+01  -5.826861e+01
   2.450174e+01  -8.420139e+01
   9.707846e+01  -1.281379e+01
   1.078878e+02   8.111635e+01
   3.633224e+01   1.091802e+02
  -6.439072e+01   5.982367e+01
  -1.142228e+02  -1.214480e+01
  -7.721411e+01  -5.288318e+01
   6.846834e+00  -4.912506e+01
   6.162249e+01  -2.102166e+01
   4.942600e+01   2.313975e+00
   5.067659e+00   4.283700e+00
  -9.878983e+00  -7.877388e+00
   1.991153e+01  -1.115512e+01
   4.887222e+01   8.779051e+00
   2.883008e+01   4.059989e+01
  -3.212938e+01   5.578424e+01
  -7.740368e+01   3.310189e+01
  -6.176549e+01  -2.183881e+01
   4.398925e+00  -7.481555e+01
   6.790396e+01  -8.391868e+01
   8.343859e+01  -3.542534e+01
   5.167485e+01   3.686122e+01
   1.104749e+01   7.897989e+01
  -5.522181e+00   7.027519e+01
  -2.494974e+00   4.044280e+01
  -7.956829e+00   2.665753e+01
  -3.333217e+01   2.672765e+01
  -5.754009e+01   1.063748e+01
  -5.325062e+01  -2.858172e+01
  -1.877132e+01  -5.742667e+01
   2.182713e+01  -4.166855e+01
   4.186345e+01   1.044617e+01
   2.880953e+01   5.474188e+01
  -1.154183e+01   5.483053e+01
  -5.469144e+01   1.273197e+01
  -6.780296e+01  -3.858928e+01
  -3.776901e+01  -6.548316e+01
   9.980671e+00  -5.873766e+01
   3.585246e+01  -3.580206e+01
   3.310849e+01  -2.007139e+01
   3.469068e+01  -1.640001e+01
   6.376962e+01  -7.854847e+00
   9.285337e+01   2.222878e+01
   7.193002e+01   6.720036e+01
  -5.929842e+00   9.834045e+01
  -8.622687e+01   8.895697e+01
  -1.073805e+02   3.864489e+01
  -6.315999e+01  -2.258796e+01
  -3.542761e+00  -5.521351e+01
   1.985383e+01  -4.290501e+01
   6.702664e-01  -8.682073e+00
  -2.651487e+01   7.224134e+00
  -2.737446e+01  -9.215989e+00
  -7.824062e-01  -3.025126e+01
   2.486738e+01  -2.171242e+01
   2.263714e+01   1.141839e+01
  -6.567394e+00   2.768194e+01
  -3.523644e+01  -8.059355e-01
  -3.385463e+01  -5.231566e+01
   3.900307e+00  -7.673732e+01
   5.467723e+01  -4.751461e+01
   8.167008e+01   1.358206e+01
   6.316790e+01   5.989622e+01
   1.272752e+01   6.235965e+01
  -2.956630e+01   3.103987e+01
  -3.317683e+01   8.695365e-01
  -7.132898e+00  -2.562960e+00
   1.092634e+01   1.458424e+01
  -1.944615e+00   2.527743e+01
  -2.799255e+01   1.389834e+01
  -3.202537e+01  -6.550047e+00
  -6.133940e+00  -1.184482e+01
   1.868984e+01   3.858215e+00
   8.143313e+00   2.183128e+01
  -3.456132e+01   1.999961e+01
  -6.899189e+01  -5.674527e+00
  -5.794110e+01  -3.965737e+01
  -5.082146e+00  -5.975289e+01
   4.776536e+01  -5.184321e+01
   6.006208e+01  -2.068160e+01
   2.984506e+01   1.015313e+01
  -6.981395e+00   1.647937e+01
  -1.352243e+01  -1.610420e+00
   1.280419e+01  -1.731987e+01
   4.130564e+01  -6.460759e+00
   4.135422e+01   2.351394e+01
   1.206061e+01   4.154731e+01
  -1.977188e+01   2.964485e+01
  -2.742389e+01   3.280571e+00
  -9.407930e+00  -7.997370e+00
   1.021399e+01   5.789275e+00
   5.800442e+00   2.600186e+01
  -2.306607e+01   2.702349e+01
  -4.834605e+01   2.145292e+00
  -4.076249e+01  -3.099325e+01
  -1.877628e+00  -4.672187e+01
   3.490244e+01  -3.331663e+01
   3.848667e+01  -2.652468e+00
   1.199288e+01   2.047434e+01
  -1.366013e+01   2.069525e+01
  -1.517325e+01   5.288294e+00
   5.164518e-01  -5.550882e+00
   9.114836e+00  -1.567725e+00
  -1.964191e+00   6.609474e+00
  -2.088675e+01   9.293480e-01
  -2.466674e+01  -2.121472e+01
  -2.344149e+00  -4.068498e+01
   3.312583e+01  -3.483704e+01
   5.428323e+01  -1.528499e+00
   4.303495e+01   3.637710e+01
   8.105032e+00   5.123129e+01
  -2.253896e+01   3.554271e+01
  -2.883011e+01   7.170933e+00
  -1.681492e+01  -9.407981e+00
  -7.904577e+00  -6.224295e+00
  -1.269753e+01   3.391213e+00
  -2.024859e+01   1.659579e+00
  -1.350149e+01  -1.335836e+01
   8.917913e+00  -2.501151e+01
   2.881375e+01  -1.606588e+01
   2.535234e+01   1.051885e+01
  -4.127546e+00   3.045931e+01
  -3.824875e+01   2.069064e+01
  -4.714383e+01  -1.568165e+01
  -1.842208e+01  -4.892341e+01
   2.928191e+01  -4.983704e+01
   6.060432e+01  -1.760187e+01
   5.451783e+01   2.073145e+01
   2.168840e+01   3.780622e+01
  -9.137930e+00   3.063853e+01
  -1.965669e+01   1.781784e+01
  -1.522561e+01   1.582315e+01
  -1.273266e+01   2.159534e+01
  -2.032159e+01   1.834967e+01
  -2.998923e+01  -3.853449e+00
  -2.711594e+01  -3.473278e+01
  -5.908464e+00  -5.095959e+01
   2.272265e+01  -3.734884e+01
   3.815309e+01  -2.124213e+00
   2.803953e+01   2.897582e+01
   1.596876e+00   3.508709e+01
  -1.742278e+01   1.764748e+01
  -1.427484e+01  -3.953834e+00
   1.308830e+00  -1.265603e+01
   6.828501e+00  -8.176456e+00
  -5.791145e+00  -2.358164e+00
  -1.941962e+01  -3.753435e+00
  -1.162579e+01  -9.180746e+00
   1.703692e+01  -9.215919e+00
   4.010973e+01   6.719567e-01
   3.272640e+01   1.495389e+01
  -9.261670e-01   2.258685e+01
  -3.111618e+01   1.658951e+01
  -3.291797e+01   8.492497e-01
  -9.795707e+00  -1.182108e+01
   1.356399e+01  -1.028487e+01
   1.782455e+01   3.995902e+00
   4.920700e+00   1.699662e+01
  -9.927234e+00   1.542914e+01
  -1.584112e+01   8.503822e-01
  -1.384279e+01  -1.151147e+01
  -1.114661e+01  -9.884691e+00
  -1.224556e+01  -3.138751e-01
  -1.464490e+01  -2.123182e-01
  -1.058745e+01  -1.667538e+01
   5.685304e+00  -3.505247e+01
   2.883093e+01  -3.339403e+01
   4.173900e+01  -7.704252e+00
   3.007298e+01   2.159794e+01
   3.378238e-01   3.052470e+01
  -2.131619e+01   1.618238e+01
  -1.427894e+01  -2.137755e+00
   1.307051e+01  -4.766790e+00
   3.007003e+01   9.129029e+00
   1.572142e+01   2.386159e+01
  -1.894956e+01   2.447205e+01
  -4.246299e+01   9.617385e+00
  -3.494363e+01  -9.471073e+00
  -6.588887e+00  -1.906125e+01
   1.458478e+01  -1.332141e+01
   1.090289e+01   6.791793e-01
  -9.136143e+00   7.286145e+00
  -2.113712e+01  -4.090298e+00
  -9.635662e+00  -2.592412e+01
   1.691562e+01  -3.554320e+01
   3.496617e+01  -1.678674e+01
   2.880437e+01   1.980961e+01
   4.441249e+00   4.304013e+01
  -1.802198e+01   3.163186e+01
  -2.337177e+01  -2.676399e+00
  -1.223583e+01  -2.712075e+01
   3.406272e+00  -2.292327e+01
   1.188489e+01  -3.055316e+00
   9.920256e+00   7.241736e+00
   3.353153e+00   1.539911e+00
   1.393308e+00  -3.792553e+00
   7.337289e+00   5.098626e+00
   1.325826e+01   2.028896e+01
   6.900413e+00   2.333707e+01
  -1.296898e+01   9.440393e+00
  -3.050070e+01  -8.013570e+00
  -2.739934e+01  -1.528106e+01
  -4.258399e+00  -1.214054e+01
   1.771780e+01  -6.215298e+00
   1.934258e+01  -1.350780e+00
   4.248510e+00   2.826896e+00
  -7.488308e+00   4.870712e+00
  -4.597641e+00   2.618829e+00
   3.014113e+00  -1.077898e+00
  -5.325523e-01  -1.057778e+00
  -1.463621e+01   7.065084e-01
  -2.111981e+01  -4.513344e+00
  -5.812205e+00  -1.832042e+01
   2.329350e+01  -2.725775e+01
   4.241272e+01  -1.602213e+01
   3.529462e+01   1.229224e+01
   8.186133e+00   3.569877e+01
  -1.772627e+01   3.554180e+01
  -2.628523e+01   1.557514e+01
  -1.825224e+01  -3.920788e+00
  -6.165515e+00  -8.631342e+00
  -8.514088e-01  -3.199462e+00
  -3.317856e+00  -2.114064e+00
  -6.796357e+00  -1.116172e+01
  -4.024320e+00  -2.053317e+01
   6.381085e+00  -1.629715e+01
   1.761020e+01   2.900548e+00
   1.859563e+01   2.227627e+01
   4.159383e+00   2.478772e+01
  -1.639817e+01   8.012395e+00
  -2.428579e+01  -1.366222e+01
  -9.897900e+00  -2.309440e+01
   1.407172e+01  -1.525632e+01
   2.381324e+01   1.114328e+00
   1.085105e+01   1.333330e+01
  -7.634018e+00   1.455000e+01
  -9.416182e+00   6.760911e+00
   5.488952e+00  -1.760817e+00
   1.533524e+01  -2.410888e+00
   4.419541e+00   6.207621e+00
  -1.740847e+01   1.505072e+01
  -2.734964e+01   1.213472e+01
  -1.649122e+01  -3.850799e+00
   2.615540e+00  -1.936765e+01
   1.304641e+01  -1.915971e+01
   1.055144e+01  -3.417754e+00
   2.162839e+00   1.159543e+01
  -5.041027e+00   1.127200e+01
  -8.408829e+00  -1.753185e+00
  -6.780430e+00  -1.201044e+01
  -8.314856e-02  -9.348717e+00
   7.579839e+00   8.051815e-01
   9.680277e+00   5.787829e+00
   4.718946e+00   1.209304e+00
  -1.093943e+00  -4.778727e+00
  -1.484061e+00  -2.458858e+00
   1.554957e+00   6.976437e+00
   7.004830e-01   1.235121e+01
  -5.762503e+00   5.803612e+00
  -9.964299e+00  -7.231616e+00
  -3.935040e+00  -1.342064e+01
   8.770183e+00  -6.282963e+00
   1.465011e+01   6.869054e+00
   4.990050e+00   1.340591e+01
  -1.279426e+01   8.504416e+00
  -2.136523e+01  -1.951701e+00
  -1.178999e+01  -9.497268e+00
   6.257150e+00  -1.067390e+01
   1.468585e+01  -7.014453e+00
   6.759302e+00  -1.794123e+00
  -5.967210e+00   1.208800e+00
  -7.415579e+00  -7.949974e-01
   4.706828e+00  -5.564203e+00
   1.691668e+01  -5.234651e+00
