
 $NMID
 id='ANONYMOUS ', fmtdat='(2E16.6)'
 volume=1.0
 tramp=1.0
 $END
  -2.120851e+03   4.192811e+01
  -1.338242e+03  -1.189905e+03
   1.983463e+02  -1.378839e+03
   9.724948e+02  -6.104041e+02
   5.612758e+02   1.590677e+02
  -1.796201e+02   2.600832e+02
  -3.806451e+02  -1.366492e+02
  -3.274108e+01  -4.670194e+02
   3.581587e+02  -3.980897e+02
   4.554947e+02  -2.684058e+00
   2.581943e+02   3.911813e+02
  -6.469107e+01   4.440930e+02
  -2.752898e+02   9.511134e+01
  -1.919115e+02  -3.180699e+02
   1.034297e+02  -3.704105e+02
   2.906679e+02  -2.541621e+01
   1.644321e+02   3.308337e+02
  -1.313991e+02   3.556727e+02
  -3.028516e+02   9.882909e+01
  -2.342416e+02  -1.550405e+02
  -3.955771e+01  -2.280298e+02
   1.040988e+02  -1.463192e+02
   8.657658e+01  -3.060409e+01
  -6.963830e+01   2.817043e-01
  -1.840370e+02  -9.540314e+01
  -6.077817e+01  -2.102626e+02
   2.439072e+02  -1.656973e+02
   4.029089e+02   5.813398e+01
   1.948371e+02   2.484864e+02
  -1.866091e+02   2.016437e+02
  -3.470242e+02  -3.239759e+01
  -1.578038e+02  -2.298982e+02
   1.434411e+02  -2.451586e+02
   2.815699e+02  -9.766773e+01
   2.093370e+02   1.054055e+02
   4.896154e+01   2.229045e+02
  -6.559575e+01   1.404308e+02
  -5.059265e+01  -7.961624e+01
   8.163767e+01  -1.736081e+02
   1.818940e+02   2.822331e+01
   8.801980e+01   3.194556e+02
  -1.477605e+02   3.271039e+02
  -2.669998e+02   1.351470e+01
  -1.207884e+02  -2.421999e+02
   1.190607e+02  -1.399271e+02
   1.641665e+02   1.557649e+02
  -4.110579e+01   2.606415e+02
  -2.747704e+02   6.043195e+01
  -3.011600e+02  -2.107407e+02
  -9.156469e+01  -2.998693e+02
   1.869536e+02  -1.748494e+02
   3.192254e+02   3.393655e+01
   2.031770e+02   1.788878e+02
  -5.314685e+01   1.732230e+02
  -2.085746e+02   4.400849e+01
  -1.350578e+02  -6.784989e+01
   3.142967e+01  -4.559048e+01
   6.209828e+01   5.521015e+01
  -6.879888e+01   7.591851e+01
  -1.639440e+02  -2.889322e+01
  -7.869066e+01  -1.389393e+02
   9.962893e+01  -1.413597e+02
   1.877560e+02  -5.343829e+01
   1.228896e+02   5.375490e+01
  -1.873348e+01   1.451996e+02
  -1.411263e+02   1.830156e+02
  -1.894290e+02   1.035815e+02
  -1.444857e+02  -7.855473e+01
  -3.921911e+01  -2.193594e+02
   4.202908e+01  -1.988015e+02
   4.651647e+01  -8.051800e+01
   2.171601e+01  -2.068631e+01
   4.730612e+01  -4.928289e+01
   1.158842e+02  -5.023470e+01
   1.399811e+02   4.323805e+01
   7.112842e+01   1.416432e+02
  -4.193786e+01   1.241167e+02
  -1.132355e+02  -4.857906e+00
  -9.269521e+01  -1.295960e+02
   1.278865e+01  -1.485863e+02
   1.383333e+02  -5.144423e+01
   1.840367e+02   9.074399e+01
   9.975766e+01   1.790562e+02
  -4.162890e+01   1.603607e+02
  -1.120532e+02   7.660469e+01
  -8.555942e+01   2.015082e+01
  -6.754322e+01   2.407993e+01
  -1.366519e+02   2.593273e+01
  -2.188025e+02  -4.181384e+01
  -1.768527e+02  -1.587427e+02
   7.505366e+00  -2.390040e+02
   2.016253e+02  -2.191100e+02
   2.632339e+02  -1.022318e+02
   1.712413e+02   5.095731e+01
   2.294663e+01   1.488528e+02
  -6.036772e+01   1.266848e+02
  -2.884830e+01   2.138714e+01
   5.864657e+01  -4.245790e+01
   9.030201e+01   7.778498e+00
   1.999912e+01   9.253768e+01
  -7.491691e+01   8.024344e+01
  -8.204530e+01  -2.813825e+01
   9.392460e+00  -9.051905e+01
   9.695388e+01  -1.150201e+01
   8.643972e+01   1.321224e+02
  -1.523102e+01   1.893759e+02
  -1.298982e+02   1.073093e+02
  -1.850672e+02  -3.674998e+01
  -1.495502e+02  -1.367978e+02
  -4.211371e+01  -1.449571e+02
   6.508583e+01  -8.156973e+01
   9.004874e+01  -8.659792e+00
   2.742499e+01   1.232655e+01
  -3.240521e+01  -2.572136e+01
  -8.454402e+00  -6.405579e+01
   6.638955e+01  -4.627956e+01
   8.933669e+01   9.243538e+00
   2.617001e+01   3.439056e+01
  -4.278760e+01   1.759823e+00
  -2.486646e+01  -4.400723e+01
   7.369536e+01  -4.574524e+01
   1.571430e+02   7.515394e+00
   1.397901e+02   8.417962e+01
   2.367467e+01   1.393388e+02
  -1.055212e+02   1.339573e+02
  -1.500507e+02   6.170694e+01
  -8.538985e+01  -2.568134e+01
   1.335926e+01  -5.215551e+01
   4.278712e+01  -2.573572e+00
  -2.187583e+01   4.921801e+01
  -1.030485e+02   2.616279e+01
  -1.100024e+02  -5.560336e+01
  -3.506410e+01  -1.082459e+02
   4.948822e+01  -8.094094e+01
   7.358304e+01  -1.349825e+01
   3.290786e+01   2.041006e+01
  -1.732126e+01  -4.948475e+00
  -1.626119e+01  -5.118611e+01
   4.569536e+01  -6.107509e+01
   1.100840e+02  -1.044274e+01
   1.010325e+02   7.000088e+01
   8.847684e+00   1.160721e+02
  -8.755796e+01   8.615961e+01
  -1.015378e+02   4.993858e+00
  -3.399166e+01  -5.749369e+01
   3.465518e+01  -5.708320e+01
   4.210093e+01  -1.577826e+01
   5.976687e+00   1.303843e+01
  -1.500330e+01   6.914743e+00
   6.056114e+00  -8.583202e+00
   4.329849e+01   3.376725e+00
   5.123570e+01   4.809338e+01
   5.727417e+00   9.009050e+01
  -7.315537e+01   8.178386e+01
  -1.274812e+02   9.213538e+00
  -1.065347e+02  -8.384775e+01
  -2.136330e+01  -1.269398e+02
   5.752509e+01  -9.013870e+01
   7.273760e+01  -1.566686e+01
   3.967929e+01   2.796881e+01
   1.708925e+01   1.828668e+01
   2.976820e+01  -6.860693e+00
   4.538445e+01  -2.941541e+00
   2.570788e+01   2.982084e+01
  -2.373413e+01   5.223270e+01
  -6.149570e+01   3.168392e+01
  -5.110349e+01  -2.290463e+01
   9.686209e+00  -6.448583e+01
   8.287429e+01  -4.608948e+01
   1.083392e+02   3.239430e+01
   4.956937e+01   1.118298e+02
  -6.266195e+01   1.212853e+02
  -1.448548e+02   4.783862e+01
  -1.363810e+02  -4.793855e+01
  -5.686782e+01  -9.406509e+01
   2.138120e+01  -7.765609e+01
   5.002704e+01  -4.478179e+01
   4.108130e+01  -3.816675e+01
   3.478269e+01  -5.057480e+01
   5.030097e+01  -4.146247e+01
   7.070034e+01   1.165078e+01
   6.383564e+01   8.416940e+01
   1.463852e+01   1.227062e+02
  -5.430040e+01   9.182776e+01
  -9.367714e+01   8.671707e+00
  -7.101775e+01  -6.741010e+01
  -7.672610e+00  -8.547267e+01
   3.825628e+01  -4.671287e+01
   3.252280e+01   3.621216e+00
  -2.209837e-01   2.541818e+01
  -9.854626e+00   1.821151e+01
   1.779386e+01   8.032223e+00
   4.454185e+01   1.171413e+01
   2.537524e+01   2.169424e+01
  -3.724542e+01   2.005888e+01
  -8.939152e+01  -1.035311e+00
  -7.722682e+01  -3.144249e+01
  -3.596282e+00  -4.958151e+01
   6.914726e+01  -3.888105e+01
   7.854328e+01  -4.792179e+00
   2.464983e+01   2.447646e+01
  -3.310764e+01   2.174792e+01
  -4.178206e+01  -1.045241e+01
  -6.496142e+00  -3.912345e+01
   2.851209e+01  -3.381680e+01
   3.597701e+01   4.680222e-01
   2.719355e+01   2.824458e+01
   2.452597e+01   2.352134e+01
   3.186225e+01   1.007776e+00
   3.560655e+01   6.136701e-01
   2.093884e+01   3.857082e+01
  -1.721346e+01   8.110529e+01
  -6.619833e+01   7.696681e+01
  -9.336159e+01   1.668754e+01
  -6.828383e+01  -5.118953e+01
  -1.681700e+00  -7.002982e+01
   4.898130e+01  -3.472905e+01
   3.333987e+01   7.369555e+00
  -3.192152e+01   1.092016e+01
  -7.364234e+01  -2.327771e+01
  -3.957298e+01  -5.787954e+01
   4.463527e+01  -5.970132e+01
   1.027679e+02  -2.571487e+01
   8.616211e+01   2.023191e+01
   1.838022e+01   4.635331e+01
  -3.356897e+01   3.544995e+01
  -2.604775e+01   1.750407e+00
   2.166570e+01  -1.546277e+01
   4.981081e+01   1.175664e+01
   1.957773e+01   6.406279e+01
  -4.686872e+01   8.461418e+01
  -8.892447e+01   3.615283e+01
  -6.902952e+01  -5.238483e+01
  -7.069028e+00  -1.061078e+02
   4.555892e+01  -7.726652e+01
   5.626022e+01   5.002753e+00
   3.107356e+01   6.433595e+01
  -3.827355e+00   5.619270e+01
  -2.602799e+01   9.166243e+00
  -2.642976e+01  -1.695076e+01
  -1.187303e+01  -3.947417e+00
  -2.505451e+00   1.029131e+01
  -1.319750e+01  -1.024711e+01
  -3.042091e+01  -4.859231e+01
  -2.032840e+01  -5.778632e+01
   2.756144e+01  -2.321931e+01
   7.434191e+01   2.099807e+01
   6.858825e+01   3.797027e+01
   9.428538e+00   2.788745e+01
  -4.608041e+01   1.314835e+01
  -4.732763e+01   3.586520e+00
  -7.240319e+00  -5.396978e+00
   1.987878e+01  -1.202867e+01
   8.714567e+00  -8.225056e+00
  -1.011623e+01   1.716933e+00
   2.570541e+00   3.926995e+00
   3.863239e+01   6.303068e-01
   5.005770e+01   1.262664e+01
   7.667510e+00   4.441704e+01
  -6.190559e+01   6.330391e+01
  -1.017617e+02   3.326745e+01
  -7.992418e+01  -3.513979e+01
  -1.550958e+01  -8.752581e+01
   4.366762e+01  -8.236996e+01
   6.299340e+01  -3.320018e+01
   4.379152e+01   1.119872e+01
   1.369505e+01   1.995110e+01
  -5.274097e-01   6.078773e+00
   6.189096e+00   3.490594e+00
   1.697172e+01   2.551384e+01
   1.089384e+01   4.883083e+01
  -1.596726e+01   3.881447e+01
  -4.346628e+01  -9.126230e+00
  -4.271476e+01  -5.729373e+01
  -4.751864e+00  -6.088874e+01
   4.324276e+01  -1.526499e+01
   5.698022e+01   3.851595e+01
   1.929867e+01   5.644292e+01
  -3.591431e+01   3.238280e+01
  -5.474874e+01  -5.807349e+00
  -2.240072e+01  -2.964650e+01
   1.871865e+01  -3.037448e+01
   1.923394e+01  -1.502903e+01
  -1.678700e+01   1.975479e+00
  -3.744532e+01   4.166434e+00
  -8.792303e+00  -1.432935e+01
   4.278931e+01  -3.558781e+01
   6.374145e+01  -2.999311e+01
   3.612489e+01   8.170156e+00
  -8.203986e+00   4.559812e+01
  -3.024466e+01   4.362412e+01
  -2.240763e+01   4.380552e+00
  -2.356269e+00  -2.968759e+01
   1.374641e+01  -2.463919e+01
   2.022949e+01   7.999024e+00
   1.484665e+01   2.933794e+01
  -1.400752e+00   1.961421e+01
  -1.818425e+01  -3.798705e+00
  -2.182135e+01  -1.263494e+01
  -1.102286e+01  -1.558890e+00
   8.553013e-01   9.244446e+00
   3.069806e+00   1.204757e+00
   7.758050e-01  -1.918451e+01
   5.613049e+00  -2.696730e+01
   1.688910e+01  -7.929586e+00
   1.950939e+01   2.246520e+01
   2.592524e+00   3.349233e+01
  -2.338942e+01   1.262119e+01
  -3.244836e+01  -2.009716e+01
  -9.225175e+00  -3.379049e+01
   3.037999e+01  -1.878787e+01
   4.944824e+01   7.671489e+00
   2.705665e+01   2.381819e+01
  -1.584837e+01   2.326882e+01
  -3.563255e+01   1.318516e+01
  -1.441729e+01   2.880105e+00
   1.828066e+01  -6.025429e-01
   1.986614e+01   6.024538e+00
  -1.450619e+01   1.583965e+01
  -4.631586e+01   1.160470e+01
