
 $NMID
 id='ANONYMOUS ', fmtdat='(2E16.6)'
 volume=1.0
 tramp=1.0
 $END
   2.209806e+02  -1.590089e+01
   2.001826e+02   6.605028e+01
   8.900837e+01   1.582178e+02
  -5.062731e+01   1.832234e+02
  -1.190896e+02   1.062653e+02
  -8.201851e+01   2.963298e-01
  -6.096996e+00  -3.556981e+01
   2.415427e+01   6.419861e+00
  -3.811642e+00   4.885832e+01
  -4.191790e+01   3.442902e+01
  -5.123939e+01  -1.678023e+01
  -3.113487e+01  -4.914216e+01
  -2.589388e-01  -3.464171e+01
   1.899863e+01   9.092326e+00
   8.597982e+00   3.896781e+01
  -2.357074e+01   2.192571e+01
  -3.808493e+01  -3.107836e+01
  -7.448205e+00  -6.784215e+01
   4.112603e+01  -4.958749e+01
   5.530923e+01   1.803328e+00
   2.690829e+01   3.249487e+01
  -2.173631e-01   2.657802e+01
   4.956311e+00   1.770191e+01
   2.061325e+01   2.988818e+01
   1.096722e+01   4.168761e+01
  -2.147957e+01   2.499077e+01
  -4.346884e+01  -8.684371e+00
  -3.494565e+01  -2.513576e+01
  -6.154320e+00  -1.401423e+01
   1.963634e+01   5.832214e+00
   2.476355e+01   1.792780e+01
   6.014112e+00   2.186786e+01
  -2.132023e+01   1.931169e+01
  -3.381077e+01   7.977858e+00
  -2.502536e+01  -7.680325e+00
  -1.339377e+01  -1.590441e+01
  -1.542188e+01  -1.286904e+01
  -2.166505e+01  -8.225372e+00
  -1.347497e+01  -1.164160e+01
   6.162551e+00  -2.104357e+01
   1.728564e+01  -2.645440e+01
   1.317562e+01  -2.050203e+01
   6.026059e+00  -5.529676e+00
   3.879571e+00   5.547195e+00
   2.396300e+00  -2.369323e-01
   2.117092e+00  -1.776140e+01
   1.289791e+01  -2.266414e+01
   3.252267e+01   2.451595e-01
   3.873471e+01   3.258620e+01
   1.601639e+01   4.151353e+01
  -2.073651e+01   2.096384e+01
  -4.167707e+01  -3.579770e+00
  -3.392417e+01  -1.221456e+01
  -8.785556e+00  -1.195974e+01
   1.471543e+01  -1.444404e+01
   2.348677e+01  -1.398055e+01
   1.538664e+01  -3.007441e+00
   2.039887e+00   7.813771e+00
   5.656291e-01   5.488216e+00
   1.164558e+01  -3.192253e-01
   1.321328e+01   8.616334e+00
  -1.005418e+01   2.478892e+01
  -3.779312e+01   1.977325e+01
  -3.399364e+01  -1.307628e+01
   4.438774e+00  -4.306561e+01
   3.972689e+01  -3.963445e+01
   4.024168e+01  -9.041076e+00
   1.718255e+01   1.889103e+01
   2.502054e+00   2.835865e+01
   5.060700e+00   2.710584e+01
   6.348111e+00   2.557853e+01
  -6.978517e+00   2.260811e+01
  -2.487689e+01   1.252324e+01
  -3.004462e+01  -4.078748e+00
  -1.888806e+01  -1.946783e+01
  -1.334576e+00  -2.384236e+01
   1.161205e+01  -1.202648e+01
   1.434190e+01   9.611104e+00
   6.172097e+00   2.437928e+01
  -8.817314e+00   1.965985e+01
  -2.206991e+01   1.217218e-01
  -2.495779e+01  -1.806543e+01
  -1.531781e+01  -2.495717e+01
   2.049419e-01  -2.342884e+01
   1.176151e+01  -1.982988e+01
   1.634946e+01  -1.561956e+01
   2.122931e+01  -9.165599e+00
   3.280486e+01   8.304927e-01
   4.214792e+01   1.541152e+01
   3.022967e+01   3.276065e+01
  -6.369378e+00   4.372810e+01
  -4.243764e+01   3.705101e+01
  -4.808346e+01   1.339936e+01
  -2.348667e+01  -1.107875e+01
   1.846708e+00  -2.037604e+01
   5.220389e+00  -1.452264e+01
  -6.056040e+00  -5.936803e+00
  -1.158222e+01  -3.698056e+00
  -5.344275e+00  -6.392591e+00
   3.139352e+00  -7.720252e+00
   6.086682e+00  -3.823771e+00
   3.539065e+00   3.444177e+00
  -3.317021e+00   6.286318e+00
  -1.213851e+01  -3.443779e+00
  -1.358262e+01  -2.280151e+01
   1.752922e+00  -3.430855e+01
   2.700880e+01  -2.203590e+01
   4.008048e+01   7.964246e+00
   2.754109e+01   3.074985e+01
   1.264727e+00   2.912600e+01
  -1.513587e+01   1.140556e+01
  -1.223209e+01  -1.136150e+00
  -1.221279e+00   9.338315e-01
   2.477866e+00   8.685370e+00
  -4.355071e+00   9.723109e+00
  -1.235060e+01   2.572450e+00
  -1.104905e+01  -4.330817e+00
  -2.589622e-01  -3.262475e+00
   8.126759e+00   4.998609e+00
   1.308953e+00   1.179720e+01
  -1.870050e+01   8.199567e+00
  -3.305783e+01  -6.307435e+00
  -2.463253e+01  -2.210109e+01
   2.110470e+00  -2.760826e+01
   2.454867e+01  -1.968684e+01
   2.567750e+01  -5.663718e+00
   1.025939e+01   3.968540e+00
  -3.422296e+00   4.116470e+00
  -3.193448e+00  -1.794622e+00
   7.801171e+00  -5.132441e+00
   1.733226e+01   2.398061e-01
   1.578411e+01   1.110707e+01
   3.765611e+00   1.681719e+01
  -8.508561e+00   1.095132e+01
  -1.035910e+01   1.241316e-01
  -1.750965e+00  -2.796402e+00
   5.581982e+00   5.587559e+00
   6.337748e-01   1.456358e+01
  -1.380728e+01   1.202004e+01
  -2.323619e+01  -1.858596e+00
  -1.687333e+01  -1.595670e+01
   9.527651e-01  -2.019187e+01
   1.538910e+01  -1.328181e+01
   1.562191e+01  -1.364190e+00
   4.425176e+00   7.264105e+00
  -5.722153e+00   7.544848e+00
  -5.481300e+00   1.774842e+00
   2.114489e+00  -2.044698e+00
   5.618274e+00   7.765178e-01
  -1.293899e+00   4.832139e+00
  -1.166803e+01   7.593176e-01
  -1.251146e+01  -1.158885e+01
   4.714308e-01  -2.051289e+01
   1.765608e+01  -1.515876e+01
   2.517175e+01   2.095676e+00
   1.785110e+01   1.825289e+01
   2.384312e+00   2.258045e+01
  -9.962114e+00   1.488671e+01
  -1.265744e+01   3.266207e+00
  -8.072128e+00  -3.464581e+00
  -4.190307e+00  -2.380560e+00
  -6.169054e+00   1.513638e+00
  -1.017377e+01   2.950727e-01
  -7.313624e+00  -7.490725e+00
   4.710683e+00  -1.331057e+01
   1.594871e+01  -7.757442e+00
   1.353553e+01   6.721480e+00
  -3.313716e+00   1.591933e+01
  -2.043017e+01   8.771393e+00
  -2.200432e+01  -9.905765e+00
  -5.605524e+00  -2.378568e+01
   1.627285e+01  -2.119040e+01
   2.791048e+01  -5.287997e+00
   2.305735e+01   1.077357e+01
   8.177738e+00   1.666976e+01
  -4.711329e+00   1.281031e+01
  -8.587557e+00   7.454227e+00
  -6.246145e+00   7.209683e+00
  -5.423204e+00   1.023601e+01
  -9.575914e+00   8.681006e+00
  -1.415458e+01  -1.982628e+00
  -1.199372e+01  -1.645632e+01
  -1.454681e+00  -2.337471e+01
   1.116979e+01  -1.606125e+01
   1.676526e+01   5.992956e-01
   1.113429e+01   1.415872e+01
  -8.994608e-01   1.552899e+01
  -8.913000e+00   6.372792e+00
  -6.418125e+00  -3.681657e+00
   1.974041e+00  -6.735067e+00
   4.993534e+00  -3.425873e+00
  -1.851998e+00  -3.464944e-01
  -9.522523e+00  -1.681215e+00
  -5.698376e+00  -4.754990e+00
   9.057069e+00  -4.044992e+00
   1.997953e+01   1.902678e+00
   1.463519e+01   8.779596e+00
  -2.696393e+00   1.099562e+01
  -1.604930e+01   6.686317e+00
  -1.501341e+01  -1.065243e+00
  -3.645946e+00  -6.491603e+00
   6.551841e+00  -5.149155e+00
   8.387349e+00   2.114512e+00
   3.007618e+00   8.717831e+00
  -4.034785e+00   7.977656e+00
  -7.966842e+00   4.673857e-01
  -7.573650e+00  -5.916348e+00
  -5.400990e+00  -5.010597e+00
  -5.036206e+00  -1.748433e-01
  -6.609490e+00  -3.751077e-01
  -5.428978e+00  -8.584022e+00
   2.795220e+00  -1.694252e+01
   1.495542e+01  -1.517886e+01
   2.108945e+01  -2.475483e+00
   1.417476e+01   1.105397e+01
  -1.007478e+00   1.471245e+01
  -1.098766e+01   7.744788e+00
  -6.894366e+00  -8.457292e-01
   6.012128e+00  -2.051489e+00
   1.333209e+01   4.439446e+00
   6.265376e+00   1.101732e+01
  -9.382488e+00   1.048855e+01
  -1.928732e+01   2.866052e+00
  -1.506375e+01  -5.571004e+00
  -2.013922e+00  -8.550378e+00
   7.071093e+00  -4.829043e+00
   4.752045e+00   1.381663e+00
  -4.576765e+00   3.594950e+00
  -9.968689e+00  -1.970203e+00
  -4.812268e+00  -1.194345e+01
   7.129884e+00  -1.655881e+01
   1.554388e+01  -8.267643e+00
   1.315033e+01   8.598314e+00
   2.119662e+00   1.944484e+01
  -8.338825e+00   1.394521e+01
  -1.050672e+01  -2.094070e+00
  -4.518332e+00  -1.276880e+01
   3.041341e+00  -9.816735e+00
   5.976968e+00  -4.952453e-01
   3.721620e+00   3.450587e+00
   6.057922e-01   4.281202e-01
   8.354831e-01  -1.357698e+00
   4.149910e+00   3.324466e+00
   5.939013e+00   9.742832e+00
   1.861053e+00   1.014545e+01
  -6.975411e+00   3.620293e+00
  -1.366600e+01  -3.868463e+00
  -1.163518e+01  -7.111822e+00
  -1.765712e+00  -6.026308e+00
   7.553649e+00  -3.139290e+00
   8.658379e+00  -1.603259e-01
   2.483742e+00   1.954847e+00
  -3.063923e+00   2.126877e+00
  -2.574597e+00   4.514082e-01
   7.842539e-01  -8.554986e-01
  -1.754891e-02  -6.526816e-02
  -6.068788e+00   8.135366e-01
  -9.870711e+00  -2.176341e+00
  -3.781061e+00  -8.913537e+00
   1.003818e+01  -1.293220e+01
   2.022759e+01  -7.607971e+00
   1.748269e+01   5.471287e+00
   4.063243e+00   1.643723e+01
  -8.906718e+00   1.667871e+01
  -1.275847e+01   7.529747e+00
  -8.421392e+00  -1.792239e+00
  -2.833170e+00  -4.368688e+00
  -8.085839e-01  -2.068389e+00
  -1.775238e+00  -1.562027e+00
  -2.602694e+00  -5.529788e+00
  -1.041146e+00  -9.521552e+00
   3.169397e+00  -7.448497e+00
   7.888499e+00   1.125671e+00
   8.767829e+00   9.875913e+00
   2.695466e+00   1.153269e+01
  -7.080599e+00   4.545168e+00
  -1.157672e+01  -5.555934e+00
  -5.151394e+00  -1.092026e+01
   6.619321e+00  -7.850346e+00
   1.171221e+01   4.961643e-01
   5.358765e+00   7.209686e+00
  -4.092642e+00   7.615317e+00
  -5.372339e+00   2.910108e+00
   1.866486e+00  -1.498481e+00
   7.060049e+00  -1.188853e+00
   2.274030e+00   3.225117e+00
  -8.130658e+00   6.706135e+00
  -1.320993e+01   4.578965e+00
  -8.218227e+00  -2.669852e+00
   1.253569e+00  -9.182075e+00
   6.862878e+00  -8.968000e+00
   5.910879e+00  -2.013801e+00
   1.546265e+00   5.141441e+00
  -2.363789e+00   5.758023e+00
  -4.096896e+00  -8.671604e-02
  -3.213340e+00  -5.651850e+00
   1.241018e-02  -5.088557e+00
   3.603351e+00   9.800496e-02
   4.546745e+00   3.287365e+00
   2.104967e+00   1.008510e+00
  -6.434730e-01  -2.885975e+00
  -3.791298e-01  -2.324245e+00
   1.819641e+00   2.998806e+00
   1.575908e+00   6.883996e+00
  -2.507315e+00   4.200857e+00
  -5.851630e+00  -2.663223e+00
  -3.234136e+00  -6.467281e+00
   3.796324e+00  -3.448052e+00
   7.487997e+00   2.833060e+00
   2.762327e+00   6.088539e+00
  -6.267149e+00   3.968113e+00
  -1.042138e+01  -8.141644e-01
  -5.563478e+00  -4.477959e+00
   3.098211e+00  -5.377048e+00
   7.086032e+00  -3.781387e+00
   3.683432e+00  -8.687868e-01
  -1.993988e+00   1.272491e+00
  -3.204895e+00   6.094261e-01
   1.326723e+00  -2.095775e+00
   6.584441e+00  -2.680725e+00
