
 $NMID
 id='ANONYMOUS ', fmtdat='(2E16.6)'
 volume=1.0
 tramp=1.0
 $END
  -7.761635e+02  -8.198215e+01
  -5.026627e+02  -3.797767e+02
  -4.935908e+01  -4.657447e+02
   2.423164e+02  -3.534978e+02
   2.410339e+02  -1.553860e+02
   8.139216e+01  -1.314042e+01
  -2.732342e+01  -7.620375e+00
  -9.492492e-01  -8.931704e+01
   9.154328e+01  -1.224068e+02
   1.406390e+02  -3.250875e+01
   1.035519e+02   1.039634e+02
   1.913107e+01   1.455009e+02
  -4.346416e+01   4.819399e+01
  -3.900909e+01  -8.612124e+01
   2.456276e+01  -1.212806e+02
   8.678927e+01  -2.346326e+01
   7.694727e+01   1.142054e+02
  -1.554993e+01   1.664633e+02
  -1.136082e+02   9.293237e+01
  -1.241584e+02  -2.929308e+01
  -4.607844e+01  -8.971882e+01
   2.209715e+01  -6.240699e+01
   1.793294e+00  -2.469056e+01
  -6.406706e+01  -4.917539e+01
  -6.413087e+01  -1.048033e+02
   3.625836e+01  -1.001279e+02
   1.434828e+02  -1.128118e+01
   1.422896e+02   8.053742e+01
   2.716849e+01   8.859363e+01
  -9.370526e+01   1.706649e+01
  -1.132747e+02  -6.229192e+01
  -2.602834e+01  -9.490243e+01
   8.059179e+01  -7.453606e+01
   1.178394e+02  -1.873431e+01
   7.505065e+01   4.296100e+01
   1.640546e+01   6.768895e+01
   6.033563e+00   3.364467e+01
   4.116433e+01  -1.689651e+01
   6.335518e+01  -9.956944e+00
   3.066540e+01   6.474992e+01
  -3.495002e+01   1.238006e+02
  -7.544970e+01   8.725240e+01
  -5.880280e+01  -1.367357e+01
  -5.828465e+00  -6.579780e+01
   3.320791e+01  -1.150336e+01
   1.896755e+01   7.876584e+01
  -4.685569e+01   9.006652e+01
  -1.144651e+02  -2.447299e+00
  -1.172505e+02  -1.089741e+02
  -3.354289e+01  -1.299456e+02
   7.921927e+01  -5.934618e+01
   1.301768e+02   2.597792e+01
   8.377510e+01   5.935591e+01
  -7.235992e+00   4.286157e+01
  -6.188366e+01   1.826477e+01
  -5.165253e+01   9.058905e+00
  -1.454187e+01   7.963819e+00
  -1.944919e+00   4.383543e+00
  -2.476698e+01  -2.617245e+00
  -4.750012e+01  -1.665086e+01
  -2.700872e+01  -4.267628e+01
   3.879419e+01  -6.382965e+01
   9.658944e+01  -4.325283e+01
   8.294520e+01   2.887891e+01
  -5.121732e+00   1.023305e+02
  -9.525363e+01   1.080061e+02
  -1.120309e+02   3.491241e+01
  -5.789799e+01  -5.448134e+01
  -2.286924e+00  -9.321600e+01
   6.763083e+00  -7.712453e+01
  -6.670357e+00  -5.133643e+01
   6.997341e+00  -4.446552e+01
   5.117498e+01  -3.848623e+01
   8.144721e+01  -4.902973e+00
   6.414810e+01   4.757174e+01
   1.230160e+01   7.493539e+01
  -3.538606e+01   4.539276e+01
  -5.040674e+01  -2.265368e+01
  -2.632365e+01  -7.351570e+01
   2.387413e+01  -6.499393e+01
   6.971335e+01  -5.987521e+00
   7.707537e+01   5.564778e+01
   3.853156e+01   7.984962e+01
  -1.357736e+01   6.627537e+01
  -3.958824e+01   4.266358e+01
  -3.869164e+01   3.001536e+01
  -4.754827e+01   2.390833e+01
  -8.584828e+01   5.202974e+00
  -1.174714e+02  -3.697848e+01
  -8.502216e+01  -9.047323e+01
   1.621405e+01  -1.231148e+02
   1.164405e+02  -1.050374e+02
   1.370750e+02  -3.825115e+01
   7.289653e+01   3.542623e+01
  -4.738948e+00   6.662824e+01
  -2.667650e+01   4.499352e+01
   5.894265e+00   8.143307e+00
   3.756986e+01  -9.631204e-01
   2.850339e+01   1.965841e+01
  -7.859029e+00   3.442068e+01
  -3.128647e+01   1.656381e+01
  -2.012419e+01  -1.832102e+01
   1.414009e+01  -2.845476e+01
   4.218331e+01   8.209639e+00
   3.701472e+01   6.680353e+01
  -8.999487e+00   9.428574e+01
  -7.170541e+01   5.801035e+01
  -1.043706e+02  -2.044462e+01
  -7.661305e+01  -8.129479e+01
  -9.103851e+00  -8.166430e+01
   4.154732e+01  -3.568159e+01
   3.958688e+01   3.918394e+00
   5.421681e+00   3.010600e+00
  -1.196181e+01  -2.218155e+01
   8.030167e+00  -3.198686e+01
   3.758719e+01  -1.216266e+01
   3.707215e+01   1.334084e+01
   3.248217e+00   1.478308e+01
  -2.485073e+01  -8.904831e+00
  -8.119430e+00  -3.078496e+01
   4.711374e+01  -2.430424e+01
   8.925388e+01   1.265632e+01
   7.103737e+01   5.684530e+01
  -3.718336e-01   7.768726e+01
  -6.695530e+01   6.025731e+01
  -7.648759e+01   1.812154e+01
  -3.299945e+01  -1.573735e+01
   1.200996e+01  -1.716308e+01
   1.471088e+01   5.663228e+00
  -2.039880e+01   1.968555e+01
  -5.233895e+01   2.075227e+00
  -4.758960e+01  -3.361554e+01
  -9.893367e+00  -5.134102e+01
   2.725005e+01  -3.310334e+01
   3.314433e+01  -1.192482e-02
   8.379463e+00   1.134467e+01
  -1.525078e+01  -9.713008e+00
  -5.966588e+00  -3.635583e+01
   3.309733e+01  -3.436860e+01
   6.306425e+01   1.441574e+00
   4.872079e+01   4.322902e+01
  -2.347549e+00   5.823582e+01
  -4.571247e+01   3.750481e+01
  -4.597249e+01   2.354195e-01
  -1.149661e+01  -2.479371e+01
   1.877688e+01  -2.292018e+01
   1.819474e+01  -4.250363e+00
  -2.952280e+00   7.707545e+00
  -1.373004e+01   1.153152e+00
   1.863973e+00  -1.002430e+01
   2.765104e+01  -1.922099e+00
   3.201394e+01   2.836020e+01
   8.852032e-01   5.338498e+01
  -4.556569e+01   4.267150e+01
  -6.966133e+01  -2.985302e+00
  -5.111403e+01  -4.990813e+01
  -5.833770e+00  -6.408614e+01
   3.028131e+01  -4.154426e+01
   3.563950e+01  -7.151170e+00
   2.018486e+01   1.144642e+01
   9.713135e+00   7.278053e+00
   1.626959e+01  -3.819553e+00
   2.635093e+01  -1.304357e+00
   1.810344e+01   1.768624e+01
  -1.153788e+01   3.274486e+01
  -3.874893e+01   2.084541e+01
  -3.403543e+01  -1.465504e+01
   6.494231e+00  -4.038510e+01
   5.158462e+01  -2.524869e+01
   6.003263e+01   2.387593e+01
   1.894039e+01   6.479967e+01
  -4.242085e+01   6.096964e+01
  -7.810681e+01   1.658127e+01
  -6.583981e+01  -3.077915e+01
  -2.310167e+01  -4.857210e+01
   1.410519e+01  -3.685282e+01
   2.534751e+01  -2.026381e+01
   1.900881e+01  -1.838958e+01
   1.621217e+01  -2.623940e+01
   2.614206e+01  -2.225759e+01
   3.757537e+01   6.103589e+00
   3.201544e+01   4.518157e+01
   3.822417e+00   6.442799e+01
  -3.137634e+01   4.486743e+01
  -4.789794e+01  -1.076478e+00
  -3.250072e+01  -3.927083e+01
   1.524335e+00  -4.426041e+01
   2.448380e+01  -2.017454e+01
   1.871329e+01   7.362818e+00
  -2.823129e+00   1.744854e+01
  -1.077705e+01   1.082379e+01
   5.844554e+00   3.084365e+00
   2.447383e+01   5.105747e+00
   1.471775e+01   1.218577e+01
  -2.284277e+01   1.134202e+01
  -5.231799e+01  -3.062879e+00
  -4.092811e+01  -2.210103e+01
   3.829751e+00  -3.015047e+01
   4.166767e+01  -1.953808e+01
   4.184541e+01   1.860443e+00
   1.158138e+01   1.669306e+01
  -1.732730e+01   1.276084e+01
  -2.233668e+01  -5.903371e+00
  -6.636525e+00  -2.165834e+01
   1.195568e+01  -1.916035e+01
   2.029664e+01  -8.711371e-01
   1.820634e+01   1.467609e+01
   1.397296e+01   1.302998e+01
   1.468675e+01   1.388501e+00
   1.827107e+01   1.272837e+00
   1.353673e+01   2.165829e+01
  -8.268630e+00   4.418223e+01
  -3.903047e+01   4.119603e+01
  -5.469190e+01   8.000913e+00
  -3.747834e+01  -2.900457e+01
   1.569331e+00  -3.937222e+01
   2.810501e+01  -2.023066e+01
   1.785416e+01   2.960055e+00
  -1.656288e+01   5.199890e+00
  -3.667404e+01  -1.328503e+01
  -1.760296e+01  -3.108399e+01
   2.580912e+01  -2.931566e+01
   5.407564e+01  -8.429974e+00
   4.292429e+01   1.517001e+01
   6.245340e+00   2.449895e+01
  -1.996313e+01   1.496247e+01
  -1.401983e+01  -2.495785e+00
   1.186255e+01  -9.119039e+00
   2.637323e+01   5.961749e+00
   1.115173e+01   3.242169e+01
  -2.191581e+01   4.315242e+01
  -4.336629e+01   1.939388e+01
  -3.445709e+01  -2.554283e+01
  -3.380641e+00  -5.333218e+01
   2.430989e+01  -3.798167e+01
   2.930387e+01   5.347586e+00
   1.316430e+01   3.530454e+01
  -7.123557e+00   2.869467e+01
  -1.600447e+01   2.779048e+00
  -1.131824e+01  -1.014396e+01
  -3.053448e+00  -2.458095e+00
  -2.348727e+00   4.433274e+00
  -1.026699e+01  -7.029575e+00
  -1.569170e+01  -2.630983e+01
  -5.911849e+00  -2.969458e+01
   1.796864e+01  -1.118202e+01
   3.734394e+01   1.177189e+01
   3.253868e+01   2.099016e+01
   4.867716e+00   1.582113e+01
  -2.157374e+01   6.760554e+00
  -2.420686e+01   2.115516e-01
  -6.084409e+00  -3.938394e+00
   9.263552e+00  -5.347090e+00
   6.771875e+00  -2.677437e+00
  -3.000855e+00   1.114235e+00
   1.166722e-01   1.112982e+00
   1.728659e+01  -1.962667e-01
   2.625850e+01   6.559358e+00
   7.729849e+00   2.271869e+01
  -2.931521e+01   3.271162e+01
  -5.394423e+01   1.869022e+01
  -4.432096e+01  -1.586731e+01
  -8.826709e+00  -4.456075e+01
   2.411663e+01  -4.419054e+01
   3.374192e+01  -1.895241e+01
   2.252564e+01   5.680088e+00
   7.541781e+00   1.137546e+01
   1.702312e+00   4.271262e+00
   4.660450e+00   3.143936e+00
   7.735103e+00   1.490595e+01
   3.380789e+00   2.633630e+01
  -8.922958e+00   2.008509e+01
  -2.142228e+01  -4.366854e+00
  -2.203730e+01  -2.805666e+01
  -4.838888e+00  -3.058344e+01
   1.973812e+01  -9.673659e+00
   2.943201e+01   1.715155e+01
   1.199750e+01   2.901861e+01
  -1.774916e+01   1.917990e+01
  -3.022937e+01  -1.935908e+00
  -1.395537e+01  -1.779588e+01
   1.004731e+01  -1.897718e+01
   1.309816e+01  -8.509813e+00
  -5.830894e+00   2.110314e+00
  -1.912381e+01   2.372977e+00
  -5.684140e+00  -8.088570e+00
   2.258949e+01  -1.780149e+01
   3.581592e+01  -1.335695e+01
   2.151825e+01   5.921503e+00
  -3.994017e+00   2.423946e+01
  -1.777013e+01   2.395563e+01
  -1.392948e+01   4.896464e+00
  -2.527478e+00  -1.395835e+01
   6.427622e+00  -1.433374e+01
   1.008509e+01   1.751636e+00
   8.053384e+00   1.529055e+01
   1.732390e-01   1.237662e+01
  -9.304122e+00  -1.019275e+00
  -1.228510e+01  -8.140631e+00
  -6.062739e+00  -2.175281e+00
   1.742937e+00   6.519007e+00
   2.278694e+00   4.418192e+00
  -2.473201e+00  -7.791378e+00
  -2.274610e+00  -1.561514e+01
   6.243172e+00  -8.244313e+00
   1.275197e+01   7.968251e+00
   5.775420e+00   1.614899e+01
  -1.058864e+01   7.752900e+00
  -1.835356e+01  -8.395289e+00
  -5.961260e+00  -1.650021e+01
   1.660161e+01  -1.030142e+01
   2.695192e+01   2.917439e+00
   1.442493e+01   1.234755e+01
  -8.144087e+00   1.355904e+01
  -1.849483e+01   8.780792e+00
  -8.976470e+00   2.356609e+00
   6.296870e+00  -1.363912e+00
   8.322674e+00   5.827757e-01
  -5.662703e+00   5.702622e+00
  -1.999217e+01   5.157430e+00
