
 $NMID
 id='ANONYMOUS ', fmtdat='(2E16.6)'
 volume=1.0
 tramp=1.0
 $END
  -1.402389e+07  -3.069556e+06
  -7.547355e+06  -7.670368e+06
   1.566606e+06  -8.091638e+06
   6.354362e+06  -5.044225e+06
   4.788877e+06  -5.633690e+05
   2.136564e+05   2.295491e+06
  -2.743734e+06   1.311771e+06
  -2.096882e+06  -2.181203e+06
   6.909242e+05  -3.968047e+06
   2.687213e+06  -1.660710e+06
   2.176170e+06   2.237064e+06
  -4.585124e+04   3.277130e+06
  -1.654290e+06   4.272136e+05
  -1.085980e+06  -2.918594e+06
   9.896046e+05  -3.105612e+06
   2.366423e+06  -1.015319e+05
   1.464135e+06   3.019116e+06
  -1.101919e+06   3.480904e+06
  -3.059274e+06   1.221826e+06
  -2.693973e+06  -1.503969e+06
  -6.086121e+05  -2.442751e+06
   8.794064e+05  -1.438541e+06
   2.561462e+05  -3.749912e+05
  -1.434347e+06  -9.079455e+05
  -1.687354e+06  -2.460936e+06
   5.807986e+05  -2.944666e+06
   3.591280e+06  -1.339080e+06
   4.420696e+06   1.118483e+06
   2.085811e+06   2.416168e+06
  -1.322237e+06   1.775246e+06
  -2.688358e+06  -1.088019e+04
  -9.861785e+05  -1.511964e+06
   1.781270e+06  -1.552660e+06
   2.775646e+06   7.875756e+04
   1.271839e+06   2.121043e+06
  -8.362472e+05   2.582602e+06
  -1.385395e+06   8.539065e+05
  -2.904950e+05  -1.211338e+06
   7.584497e+05  -1.239914e+06
   5.116903e+05   7.158640e+05
  -5.839790e+05   2.157271e+06
  -1.273680e+06   1.284170e+06
  -9.469707e+05  -7.872418e+05
   2.834454e+04  -1.551796e+06
   8.514713e+05  -2.023037e+05
   7.764216e+05   1.617541e+06
  -4.617151e+05   1.895765e+06
  -2.126276e+06   3.459055e+05
  -2.676954e+06  -1.610793e+06
  -1.210595e+06  -2.377614e+06
   1.254472e+06  -1.506126e+06
   2.540195e+06   1.191029e+05
   1.588649e+06   1.136853e+06
  -4.214624e+05   8.876965e+05
  -1.462078e+06  -8.306318e+04
  -8.079966e+05  -6.868641e+05
   4.786055e+05  -4.099207e+05
   9.366274e+05   3.138876e+05
   2.137702e+05   7.214072e+05
  -7.383330e+05   4.741830e+05
  -7.348876e+05  -1.547650e+05
   3.581116e+05  -5.523468e+05
   1.338478e+06  -1.911475e+05
   8.426714e+05   8.841041e+05
  -1.069229e+06   1.836909e+06
  -2.765460e+06   1.609790e+06
  -2.743123e+06   2.321976e+04
  -1.248424e+06  -1.834075e+06
   1.647550e+05  -2.617256e+06
   5.091154e+05  -2.091793e+06
   2.768714e+05  -1.219079e+06
   4.666972e+05  -8.794682e+05
   1.256438e+06  -8.524613e+05
   1.929568e+06  -2.923080e+05
   1.769815e+06   9.717030e+05
   7.084365e+05   1.974581e+06
  -6.803131e+05   1.608252e+06
  -1.510385e+06  -5.408674e+04
  -1.118021e+06  -1.637163e+06
   3.089849e+05  -1.759790e+06
   1.652964e+06  -3.858546e+05
   1.792525e+06   1.212304e+06
   7.296528e+05   1.791012e+06
  -4.390182e+05   1.278115e+06
  -7.776895e+05   5.616808e+05
  -5.149658e+05   3.659682e+05
  -6.117852e+05   5.533328e+05
  -1.460545e+06   4.626219e+05
  -2.270724e+06  -3.045293e+05
  -1.862314e+06  -1.477175e+06
  -2.892014e+04  -2.307324e+06
   2.003493e+06  -2.112487e+06
   2.626572e+06  -8.452562e+05
   1.437233e+06   7.062940e+05
  -3.186527e+05   1.436657e+06
  -1.016251e+06   9.048275e+05
  -2.876448e+05  -1.818626e+05
   7.808368e+05  -6.536628e+05
   9.957054e+05  -1.146135e+05
   2.888614e+05   6.556501e+05
  -4.564640e+05   6.451034e+05
  -4.779059e+05  -1.653407e+05
   1.995804e+05  -7.267392e+05
   9.368379e+05  -1.210128e+05
   1.010800e+06   1.309537e+06
   1.071540e+05   2.196368e+06
  -1.340051e+06   1.537293e+06
  -2.280505e+06  -2.417880e+05
  -1.881094e+06  -1.699031e+06
  -4.181725e+05  -1.806796e+06
   8.680575e+05  -8.664307e+05
   1.009312e+06  -9.301239e+03
   2.858355e+05   3.997036e+04
  -1.989876e+05  -4.314826e+05
   1.805083e+05  -6.512777e+05
   9.183441e+05  -2.607789e+05
   1.043888e+06   3.862528e+05
   2.726500e+05   6.768124e+05
  -6.318077e+05   3.575670e+05
  -6.497712e+05  -2.461301e+05
   3.703719e+05  -5.193519e+05
   1.436120e+06  -9.402927e+04
   1.361885e+06   7.798824e+05
   3.249181e+04   1.375775e+06
  -1.394708e+06   1.118636e+06
  -1.652137e+06   1.671083e+05
  -6.507434e+05  -6.706666e+05
   5.091549e+05  -6.973651e+05
   7.379876e+05  -2.452261e+04
  -7.349974e+03   5.436903e+05
  -8.591424e+05   3.557099e+05
  -9.854694e+05  -4.030898e+05
  -3.156973e+05  -9.301404e+05
   5.071517e+05  -6.908652e+05
   7.521559e+05   7.487713e+03
   2.652157e+05   3.798122e+05
  -3.641956e+05   3.788661e+04
  -3.587825e+05  -6.009433e+05
   4.092864e+05  -7.839946e+05
   1.193561e+06  -2.113868e+05
   1.125585e+06   6.859693e+05
   1.713415e+05   1.182748e+06
  -8.088345e+05   9.119465e+05
  -9.733536e+05   1.458294e+05
  -3.360568e+05  -4.731251e+05
   3.579842e+05  -4.920293e+05
   4.605557e+05  -3.147688e+04
   1.562924e+04   3.614308e+05
  -4.043750e+05   2.909749e+05
  -3.374351e+05  -6.092540e+04
   1.026160e+05  -1.622153e+05
   3.503938e+05   2.083573e+05
  -1.392454e+04   6.413029e+05
  -7.683040e+05   5.249201e+05
  -1.197650e+06  -2.577984e+05
  -8.007238e+05  -1.151611e+06
   1.780177e+05  -1.444844e+06
   9.849051e+05  -9.162469e+05
   1.101492e+06   2.837496e+03
   6.800134e+05   6.400342e+05
   2.562062e+05   6.632943e+05
   1.441212e+05   3.248772e+05
   1.785476e+05   1.470788e+05
   1.556971e+03   3.355887e+05
  -4.707086e+05   5.365082e+05
  -8.806684e+05   2.600221e+05
  -7.344530e+05  -4.647118e+05
   7.658806e+04  -9.911657e+05
   1.037824e+06  -7.033696e+05
   1.366940e+06   2.929252e+05
   7.075101e+05   1.216961e+06
  -5.046636e+05   1.343761e+06
  -1.399695e+06   6.421889e+05
  -1.421159e+06  -2.797493e+05
  -7.396315e+05  -7.791765e+05
   1.232886e+04  -7.166245e+05
   3.486183e+05  -4.650715e+05
   2.907730e+05  -4.404685e+05
   2.135049e+05  -6.343991e+05
   3.920659e+05  -6.321111e+05
   6.971644e+05  -1.171984e+05
   7.283867e+05   6.822475e+05
   2.662254e+05   1.136648e+06
  -4.188763e+05   8.326941e+05
  -7.677884e+05   8.745873e+02
  -4.833243e+05  -7.007724e+05
   1.513082e+05  -7.904074e+05
   5.530206e+05  -3.317475e+05
   4.277449e+05   2.284287e+05
   3.263642e+04   5.045298e+05
  -1.550022e+05   4.561566e+05
   1.849798e+04   3.071472e+05
   2.175894e+05   2.490138e+05
   6.281357e+03   2.446802e+05
  -6.163217e+05   1.151994e+05
  -1.115492e+06  -2.126122e+05
  -9.199320e+05  -5.847334e+05
  -4.593674e+04  -7.503530e+05
   8.352683e+05  -5.863907e+05
   1.029290e+06  -1.972064e+05
   5.060794e+05   1.611104e+05
  -1.148426e+05   2.558372e+05
  -2.574289e+05   6.385116e+04
   4.382760e+04  -1.658839e+05
   3.158521e+05  -1.194508e+05
   2.579152e+05   2.177782e+05
   2.721257e+04   4.720785e+05
  -5.480287e+04   3.006952e+05
   8.881792e+04  -1.270641e+05
   2.454296e+05  -2.639862e+05
   1.759546e+05   1.295686e+05
  -1.567321e+05   6.187713e+05
  -5.522585e+05   5.852498e+05
  -6.881250e+05  -1.226097e+04
  -3.548800e+05  -5.753825e+05
   2.823535e+05  -5.615653e+05
   6.873416e+05  -5.808320e+04
   4.046899e+05   3.926469e+05
  -4.009001e+05   3.849058e+05
  -9.784638e+05  -3.066637e+04
  -7.137201e+05  -4.936100e+05
   1.976288e+05  -6.532180e+05
   9.144891e+05  -4.010517e+05
   8.159481e+05   5.476467e+04
   1.249274e+05   3.285571e+05
  -3.744093e+05   1.942564e+05
  -1.835923e+05  -1.534263e+05
   4.144951e+05  -2.479114e+05
   6.969550e+05   1.588878e+05
   2.749507e+05   7.689703e+05
  -5.138746e+05   9.661776e+05
  -9.692020e+05   4.192514e+05
  -7.268409e+05  -5.287866e+05
  -5.808744e+04  -1.104693e+06
   4.773400e+05  -8.120056e+05
   5.648382e+05   6.422319e+04
   2.949391e+05   7.129937e+05
  -6.676107e+04   6.188996e+05
  -3.109548e+05   7.047275e+04
  -3.350600e+05  -2.489922e+05
  -1.668812e+05  -1.036549e+05
  -2.970290e+03   7.565280e+04
  -5.542281e+04  -1.456123e+05
  -2.407255e+05  -5.778290e+05
  -1.718941e+05  -6.630407e+05
   3.424859e+05  -2.256336e+05
   8.901097e+05   3.219929e+05
   8.281099e+05   5.321597e+05
   1.004646e+05   4.079375e+05
  -5.958547e+05   2.264066e+05
  -6.216432e+05   1.109354e+05
  -1.535943e+05  -5.845465e+03
   1.219617e+05  -1.266196e+05
  -5.751561e+04  -1.560204e+05
  -2.472036e+05  -1.040773e+05
   7.121522e+03  -9.001506e+04
   5.010136e+05  -9.533122e+04
   6.196826e+05   6.982035e+04
   1.083477e+05   4.277014e+05
  -6.328640e+05   6.331988e+05
  -9.948260e+05   3.253151e+05
  -7.302120e+05  -3.677092e+05
  -8.206054e+04  -8.718318e+05
   4.899295e+05  -7.672645e+05
   6.529191e+05  -2.269485e+05
   4.014196e+05   2.093393e+05
   3.062907e+04   2.218764e+05
  -1.219892e+05  -5.522149e+03
   1.686685e+04  -6.138733e+04
   2.035436e+05   2.025341e+05
   1.523520e+05   4.902642e+05
  -1.513384e+05   3.846006e+05
  -4.256888e+05  -1.521919e+05
  -3.638369e+05  -6.578590e+05
   6.025486e+04  -6.229883e+05
   5.172004e+05  -4.742801e+04
   5.741668e+05   5.465088e+05
   1.144042e+05   6.679059e+05
  -4.726553e+05   3.216017e+05
  -6.313044e+05  -1.149312e+05
  -2.448684e+05  -3.388121e+05
   2.001380e+05  -3.236800e+05
   1.792190e+05  -1.826594e+05
  -2.211869e+05  -3.548836e+04
  -4.108868e+05  -1.142527e+04
  -5.008011e+04  -1.792025e+05
   5.204884e+05  -3.849412e+05
   7.105478e+05  -3.223050e+05
   3.743632e+05   8.756283e+04
  -1.009174e+05   4.901163e+05
  -3.059307e+05   4.567654e+05
  -1.965844e+05   2.234273e+04
   2.110726e+04  -3.222941e+05
   1.779497e+05  -2.148375e+05
   2.156462e+05   1.644137e+05
   1.195785e+05   3.599169e+05
  -7.158961e+04   1.984654e+05
  -2.328059e+05  -7.041175e+04
  -2.474723e+05  -1.458096e+05
  -1.368932e+05  -2.833131e+04
  -2.225261e+04   4.534718e+04
   3.641022e+04  -7.266620e+04
   9.037145e+04  -2.619612e+05
   1.833803e+05  -2.715670e+05
   2.517936e+05  -7.322373e+03
   1.834572e+05   3.298350e+05
  -4.324111e+04   4.164977e+05
  -2.931764e+05   1.439371e+05
  -3.492561e+05  -2.414751e+05
  -9.875444e+04  -3.833690e+05
   3.016967e+05  -1.868851e+05
   4.919088e+05   1.143375e+05
   2.530310e+05   2.500941e+05
  -1.979258e+05   1.806236e+05
  -3.820319e+05   5.036680e+04
  -1.027664e+05  -1.475782e+04
   2.849296e+05   1.695594e+04
   2.764026e+05   1.228163e+05
  -1.651695e+05   2.156026e+05
  -5.504275e+05   1.387724e+05
