
 $NMID
 id='ANONYMOUS ', fmtdat='(2E16.6)'
 volume=1.0
 tramp=1.0
 $END
  -3.079781e+07   3.067878e+05
  -2.012863e+07  -1.601973e+07
   1.264610e+06  -2.013501e+07
   1.398885e+07  -1.135721e+07
   1.056165e+07   5.174397e+05
  -1.604268e+05   5.467410e+06
  -6.027060e+06   1.589844e+06
  -3.648299e+06  -5.145312e+06
   2.160627e+06  -7.380081e+06
   5.657749e+06  -2.889754e+06
   4.625628e+06   3.773265e+06
   5.874214e+05   5.864541e+06
  -2.695296e+06   1.416516e+06
  -2.051235e+06  -4.537438e+06
   1.913521e+06  -5.396928e+06
   4.920314e+06  -1.566570e+05
   3.413517e+06   5.914973e+06
  -1.588000e+06   7.315418e+06
  -5.758482e+06   3.575615e+06
  -5.989931e+06  -1.495612e+06
  -2.975073e+06  -4.203447e+06
   8.494738e+04  -3.864203e+06
   5.997180e+05  -2.406617e+06
  -1.098636e+06  -2.091531e+06
  -1.987562e+06  -3.313730e+06
   5.076948e+05  -4.209495e+06
   5.096304e+06  -2.749160e+06
   7.271108e+06   6.698040e+05
   4.331659e+06   3.337388e+06
  -1.058031e+06   3.151610e+06
  -3.661272e+06   7.546228e+05
  -1.567552e+06  -1.470022e+06
   2.147488e+06  -1.736638e+06
   3.518083e+06   6.862746e+04
   1.846392e+06   2.590389e+06
  -6.227249e+05   3.684796e+06
  -1.721087e+06   2.019226e+06
  -1.108615e+06  -1.031003e+06
   1.070112e+05  -2.107517e+06
   4.939516e+05   1.772665e+05
  -5.481959e+05   2.874558e+06
  -1.997236e+06   2.092819e+06
  -1.909238e+06  -1.647356e+06
   3.589979e+05  -3.644292e+06
   2.855734e+06  -1.053581e+06
   2.758763e+06   3.339469e+06
  -4.806536e+05   4.604115e+06
  -4.218273e+06   1.501466e+06
  -5.056671e+06  -2.672218e+06
  -2.078779e+06  -4.234946e+06
   2.265513e+06  -2.541539e+06
   4.330035e+06   3.950499e+05
   2.559738e+06   2.181874e+06
  -1.053884e+06   1.745550e+06
  -2.932703e+06  -1.159273e+05
  -1.585605e+06  -1.433178e+06
   9.274586e+05  -9.309177e+05
   1.547756e+06   5.831940e+05
  -1.666888e+05   1.175062e+06
  -1.721666e+06   1.246090e+05
  -8.932760e+05  -1.317076e+06
   1.618800e+06  -1.524786e+06
   3.104356e+06  -1.354629e+05
   1.824624e+06   1.976895e+06
  -1.382233e+06   3.502960e+06
  -4.110073e+06   3.232260e+06
  -4.527578e+06   7.765240e+05
  -2.718497e+06  -2.571881e+06
  -3.578970e+05  -4.441144e+06
   8.902683e+05  -3.700691e+06
   8.420962e+05  -1.767436e+06
   6.697012e+05  -8.073234e+05
   1.323624e+06  -1.023701e+06
   2.362982e+06  -7.427351e+05
   2.538803e+06   9.042079e+05
   1.274630e+06   2.535008e+06
  -7.040346e+05   2.229731e+06
  -2.014596e+06  -3.790395e+04
  -1.657677e+06  -2.307932e+06
   2.654104e+05  -2.668633e+06
   2.437487e+06  -9.452080e+05
   3.152758e+06   1.422115e+06
   1.841388e+06   2.767411e+06
  -2.314361e+05   2.528591e+06
  -1.296294e+06   1.504079e+06
  -1.132958e+06   8.645618e+05
  -1.184575e+06   8.780958e+05
  -2.409728e+06   7.219789e+05
  -3.695164e+06  -4.158594e+05
  -3.056210e+06  -2.266593e+06
  -1.704062e+05  -3.626856e+06
   2.940920e+06  -3.417718e+06
   3.888915e+06  -1.578385e+06
   2.241441e+06   7.925564e+05
  -2.204231e+05   2.099232e+06
  -1.319385e+06   1.496012e+06
  -4.480909e+05  -1.840906e+05
   1.097805e+06  -1.077158e+06
   1.583679e+06  -2.933752e+05
   6.070452e+05   9.922410e+05
  -6.067485e+05   9.964198e+05
  -6.429497e+05  -3.089151e+05
   5.513414e+05  -1.043070e+06
   1.668751e+06   1.979182e+05
   1.414390e+06   2.470217e+06
  -3.138007e+05   3.472925e+06
  -2.421483e+06   2.066101e+06
  -3.472497e+06  -6.552542e+05
  -2.689050e+06  -2.616865e+06
  -5.915890e+05  -2.673572e+06
   1.245934e+06  -1.349490e+06
   1.503327e+06  -1.005474e+05
   4.446191e+05   4.451726e+04
  -3.316129e+05  -6.664302e+05
   2.672806e+05  -1.097550e+06
   1.507333e+06  -5.104399e+05
   1.733299e+06   6.080693e+05
   4.479068e+05   1.128696e+06
  -1.001910e+06   5.749129e+05
  -9.556583e+05  -3.920593e+05
   6.583769e+05  -7.310288e+05
   2.193410e+06  -2.598875e+04
   1.971359e+06   1.227191e+06
  -2.894941e+04   2.052076e+06
  -2.130437e+06   1.703877e+06
  -2.548642e+06   3.104502e+05
  -1.078795e+06  -1.045493e+06
   7.519031e+05  -1.201069e+06
   1.222865e+06  -1.378155e+05
   8.707244e+04   8.712461e+05
  -1.325927e+06   6.276412e+05
  -1.566278e+06  -6.169719e+05
  -4.681734e+05  -1.473983e+06
   8.528691e+05  -1.051597e+06
   1.190243e+06   7.960233e+04
   3.747038e+05   6.422037e+05
  -6.201780e+05   8.549857e+04
  -6.204555e+05  -9.187245e+05
   5.625976e+05  -1.248854e+06
   1.822095e+06  -4.246146e+05
   1.798357e+06   9.782910e+05
   3.420333e+05   1.841335e+06
  -1.235132e+06   1.478853e+06
  -1.531688e+06   2.554303e+05
  -5.227205e+05  -7.495335e+05
   5.578623e+05  -7.708657e+05
   6.659909e+05  -5.695985e+04
  -3.266905e+04   4.973503e+05
  -5.858727e+05   3.593293e+05
  -3.843796e+05  -1.150745e+05
   2.717985e+05  -1.742198e+05
   5.584762e+05   4.161605e+05
  -4.579756e+04   1.043874e+06
  -1.197827e+06   8.504849e+05
  -1.880632e+06  -3.464736e+05
  -1.314409e+06  -1.745737e+06
   2.027015e+05  -2.230393e+06
   1.492947e+06  -1.406482e+06
   1.665575e+06   2.097424e+04
   9.675789e+05   9.396493e+05
   3.384764e+05   8.857241e+05
   2.743456e+05   3.743088e+05
   3.881954e+05   2.100748e+05
   6.049512e+04   5.719874e+05
  -7.362588e+05   8.536295e+05
  -1.354607e+06   3.940702e+05
  -1.089034e+06  -6.939860e+05
   1.428040e+05  -1.483910e+06
   1.585688e+06  -1.086563e+06
   2.107995e+06   4.098236e+05
   1.122758e+06   1.881379e+06
  -7.758188e+05   2.144029e+06
  -2.207173e+06   1.043040e+06
  -2.213995e+06  -4.480277e+05
  -1.083670e+06  -1.217694e+06
   7.785698e+04  -1.046889e+06
   4.894455e+05  -6.279370e+05
   3.071218e+05  -6.549792e+05
   2.068552e+05  -1.037673e+06
   5.669333e+05  -1.061536e+06
   1.100185e+06  -2.538867e+05
   1.177882e+06   9.993570e+05
   4.818650e+05   1.733567e+06
  -5.910811e+05   1.305443e+06
  -1.186396e+06   2.509042e+04
  -7.810187e+05  -1.100665e+06
   2.435028e+05  -1.261717e+06
   9.314655e+05  -5.069681e+05
   7.282872e+05   4.272955e+05
   3.419170e+04   8.671810e+05
  -3.087833e+05   7.423859e+05
  -7.107364e+03   4.545992e+05
   3.578356e+05   3.453390e+05
   3.067762e+04   3.646320e+05
  -9.827831e+05   2.149647e+05
  -1.788511e+06  -2.653053e+05
  -1.469707e+06  -8.836067e+05
  -7.711085e+04  -1.224514e+06
   1.314980e+06  -1.001223e+06
   1.622310e+06  -3.322724e+05
   8.046481e+05   3.037904e+05
  -1.766413e+05   4.495625e+05
  -4.278823e+05   9.214840e+04
   1.543704e+04  -2.921172e+05
   4.509690e+05  -2.047630e+05
   4.188684e+05   3.156423e+05
   1.164324e+05   6.862975e+05
  -1.799294e+04   4.399425e+05
   1.410183e+05  -1.609815e+05
   3.438221e+05  -3.558100e+05
   2.717877e+05   2.010355e+05
  -1.881344e+05   9.333613e+05
  -8.170875e+05   9.471277e+05
  -1.110309e+06   8.679128e+04
  -6.441428e+05  -8.357593e+05
   3.793258e+05  -9.341761e+05
   1.069612e+06  -1.995675e+05
   6.475249e+05   5.604504e+05
  -6.159914e+05   6.119738e+05
  -1.500791e+06  -3.463439e+04
  -1.061753e+06  -7.698049e+05
   3.434111e+05  -9.972293e+05
   1.408443e+06  -5.841925e+05
   1.229444e+06   1.032961e+05
   1.759368e+05   4.994591e+05
  -5.850816e+05   2.964157e+05
  -3.172396e+05  -2.354044e+05
   5.859820e+05  -4.205992e+05
   1.068561e+06   1.602685e+05
   5.086283e+05   1.122576e+06
  -6.640352e+05   1.510214e+06
  -1.418812e+06   7.265621e+05
  -1.140543e+06  -7.463941e+05
  -1.556261e+05  -1.675039e+06
   6.978036e+05  -1.243097e+06
   8.753096e+05   1.054909e+05
   4.583611e+05   1.097958e+06
  -1.256910e+05   9.474217e+05
  -4.956547e+05   1.120810e+05
  -4.902762e+05  -3.704387e+05
  -2.187824e+05  -1.546025e+05
  -1.997893e+04   1.109599e+05
  -1.585490e+05  -2.212810e+05
  -4.267613e+05  -8.737289e+05
  -2.514961e+05  -1.018415e+06
   5.677281e+05  -3.802843e+05
   1.373400e+06   4.448576e+05
   1.255772e+06   7.878408e+05
   1.760562e+05   6.307071e+05
  -8.600486e+05   3.683841e+05
  -9.381908e+05   1.849113e+05
  -2.775164e+05  -7.965351e+03
   1.627793e+05  -1.982682e+05
  -4.290293e+04  -2.336956e+05
  -3.259567e+05  -1.407340e+05
  -1.181472e+04  -1.268232e+05
   7.018987e+05  -1.720874e+05
   9.523017e+05   4.948003e+04
   2.667212e+05   6.226812e+05
  -8.685133e+05   1.018055e+06
  -1.516170e+06   6.139203e+05
  -1.187529e+06  -4.592114e+05
  -1.989790e+05  -1.311445e+06
   7.029958e+05  -1.228871e+06
   9.694664e+05  -4.239827e+05
   6.092410e+05   2.701377e+05
   8.258421e+04   3.286077e+05
  -1.335133e+05   8.105750e+03
   5.182943e+04  -7.072758e+04
   3.102802e+05   3.206683e+05
   2.478718e+05   7.491833e+05
  -1.908722e+05   6.042796e+05
  -6.376600e+05  -1.764433e+05
  -6.150961e+05  -9.369384e+05
  -4.475264e+03  -9.375366e+05
   7.390669e+05  -1.393421e+05
   9.116433e+05   7.470978e+05
   2.531240e+05   1.001111e+06
  -6.762857e+05   5.549743e+05
  -9.892026e+05  -1.068851e+05
  -4.388205e+05  -5.184960e+05
   2.662246e+05  -5.511553e+05
   2.927610e+05  -3.194383e+05
  -2.931447e+05  -4.236435e+04
  -6.152667e+05   1.339960e+04
  -1.071384e+05  -2.713716e+05
   7.711089e+05  -6.201456e+05
   1.112605e+06  -5.299863e+05
   6.341226e+05   1.191675e+05
  -1.076706e+05   7.708215e+05
  -4.619696e+05   7.539731e+05
  -3.247036e+05   9.703635e+04
  -4.298216e+03  -4.671475e+05
   2.380158e+05  -3.593971e+05
   3.217174e+05   2.008808e+05
   2.141174e+05   5.370964e+05
  -6.891758e+04   3.366435e+05
  -3.546960e+05  -7.389184e+04
  -4.139120e+05  -2.235979e+05
  -2.227670e+05  -5.560336e+04
   1.495070e+03   9.024219e+04
   7.978552e+04  -5.545577e+04
   8.008675e+04  -3.589186e+05
   1.692289e+05  -4.329612e+05
   3.286102e+05  -8.456216e+04
   3.315334e+05   4.232688e+05
   2.648113e+04   6.018342e+05
  -4.096309e+05   2.506667e+05
  -5.638568e+05  -3.063221e+05
  -1.910847e+05  -5.541626e+05
   4.549662e+05  -3.189973e+05
   7.733713e+05   1.103671e+05
   4.157319e+05   3.565388e+05
  -2.749995e+05   3.181129e+05
  -5.727142e+05   1.442368e+05
  -1.836674e+05   5.348675e+03
   3.817488e+05  -5.107571e+03
   3.952978e+05   1.336503e+05
  -2.152522e+05   3.010524e+05
  -7.753480e+05   2.283917e+05
