
 $NMID
 id='ANONYMOUS ', fmtdat='(2E16.6)'
 volume=1.0
 tramp=1.0
 $END
   1.916367e+07  -1.994363e+06
   1.267034e+07   1.117463e+07
  -1.707637e+06   1.355020e+07
  -9.445692e+06   5.543840e+06
  -5.921835e+06  -2.640414e+06
   1.225042e+06  -3.820860e+06
   3.795242e+06   1.389249e+05
   1.306280e+06   3.570811e+06
  -2.068393e+06   3.570308e+06
  -3.490018e+06   8.734991e+05
  -2.626223e+06  -2.183184e+06
  -3.335471e+05  -3.147720e+06
   1.591022e+06  -1.120352e+06
   1.246617e+06   1.819059e+06
  -1.082375e+06   2.320661e+06
  -2.690598e+06  -3.267222e+05
  -1.599825e+06  -3.317972e+06
   1.178568e+06  -3.834385e+06
   3.278302e+06  -1.931193e+06
   3.573187e+06   5.756268e+05
   2.369233e+06   2.392795e+06
   4.446347e+05   3.011157e+06
  -1.047304e+06   2.255888e+06
  -9.947372e+05   8.512158e+05
   1.492121e+05   3.220641e+05
   3.326252e+05   1.111773e+06
  -1.391597e+06   1.687667e+06
  -3.160997e+06   6.390190e+05
  -2.683014e+06  -1.211955e+06
  -4.205894e+05  -1.995674e+06
   1.176471e+06  -1.312693e+06
   9.806294e+05  -2.883529e+05
   4.366585e+04   2.326000e+05
  -4.817075e+05   2.046027e+05
  -5.158339e+05  -3.541275e+05
  -1.724224e+05  -1.177779e+06
   5.992553e+05  -1.246617e+06
   1.215311e+06   8.237544e+03
   8.168195e+05   1.279438e+06
  -1.662393e+05   8.472049e+05
  -2.613603e+05  -6.242816e+05
   6.895276e+05  -6.869563e+05
   9.085799e+05   1.139873e+06
  -6.716317e+05   2.253011e+06
  -2.447251e+06   6.197533e+05
  -2.107581e+06  -2.161103e+06
   2.651724e+05  -2.953189e+06
   2.347372e+06  -1.110220e+06
   2.374348e+06   1.177068e+06
   6.924031e+05   1.885188e+06
  -1.141506e+06   9.763959e+05
  -1.768147e+06  -4.389238e+05
  -7.742396e+05  -1.303839e+06
   9.533367e+05  -1.004933e+06
   1.722471e+06   2.124588e+05
   7.724963e+05   1.101310e+06
  -6.156455e+05   6.707101e+05
  -6.476726e+05  -3.781569e+05
   5.283673e+05  -4.601406e+05
   1.023626e+06   6.358021e+05
  -1.007084e+05   1.424217e+06
  -1.592561e+06   8.508065e+05
  -1.843354e+06  -4.309475e+05
  -8.212571e+05  -1.318532e+06
   4.585310e+05  -1.625018e+06
   1.391591e+06  -1.515410e+06
   1.844250e+06  -6.868814e+05
   1.533417e+06   8.526291e+05
   4.198187e+05   1.966721e+06
  -6.569752e+05   1.565987e+06
  -7.404762e+05   2.422364e+05
  -5.144234e+04  -3.924069e+05
   2.932422e+05   1.339511e+05
  -1.812285e+05   7.023505e+05
  -7.928941e+05   3.663561e+05
  -7.705229e+05  -4.280646e+05
  -1.593599e+05  -6.914617e+05
   4.660621e+05  -1.816019e+05
   6.204851e+05   5.661910e+05
   1.116839e+05   9.486860e+05
  -8.292531e+05   6.586846e+05
  -1.465110e+06  -2.210372e+05
  -1.125988e+06  -1.131003e+06
  -7.082407e+04  -1.384187e+06
   7.041911e+05  -9.062860e+05
   7.198097e+05  -3.391268e+05
   5.541543e+05  -1.834483e+05
   8.398899e+05  -1.899790e+05
   1.265685e+06   1.300509e+05
   1.067437e+06   7.485421e+05
   1.510502e+05   1.214858e+06
  -8.036611e+05   1.220620e+06
  -1.169542e+06   7.530756e+05
  -8.686608e+05  -1.979007e+04
  -2.161612e+05  -6.756169e+05
   3.073575e+05  -6.751020e+05
   2.736320e+05  -1.890797e+04
  -2.653079e+05   5.039964e+05
  -6.615085e+05   2.371917e+05
  -4.002867e+05  -3.953616e+05
   1.554003e+05  -4.660564e+05
   2.179167e+05   6.691892e+04
  -2.912053e+05   2.767121e+05
  -6.114473e+05  -3.361234e+05
  -2.169940e+05  -1.086044e+06
   5.272532e+05  -1.065038e+06
   9.729000e+05  -2.983797e+05
   9.487814e+05   4.846355e+05
   6.371319e+05   8.114879e+05
   1.562399e+05   7.305871e+05
  -3.350649e+05   4.260150e+05
  -4.804994e+05   8.146994e+04
  -1.556427e+05  -2.833089e+04
   1.640886e+05   2.120869e+05
  -5.284690e+04   4.643173e+05
  -5.965260e+05   2.908849e+05
  -7.377359e+05  -2.119279e+05
  -2.349443e+05  -5.011246e+05
   3.333458e+05  -3.150206e+05
   3.410665e+05   3.696480e+04
  -1.496587e+05   1.545631e+05
  -5.752352e+05  -1.936688e+04
  -5.113690e+05  -3.158973e+05
   1.865876e+04  -5.568080e+05
   6.337921e+05  -5.395213e+05
   8.439630e+05  -1.372844e+05
   4.294050e+05   4.006145e+05
  -2.562478e+05   5.429957e+05
  -5.382888e+05   1.181258e+05
  -1.483071e+05  -3.657912e+05
   4.434892e+05  -3.168214e+05
   5.801312e+05   1.879574e+05
   1.609869e+05   5.374194e+05
  -3.374011e+05   3.742088e+05
  -4.547859e+05  -4.870429e+04
  -1.663779e+05  -2.730219e+05
   2.014490e+05  -1.290193e+05
   2.809913e+05   2.027365e+05
  -5.080514e+04   4.028515e+05
  -5.166801e+05   2.400012e+05
  -6.228452e+05  -2.260750e+05
  -1.792602e+05  -6.125720e+05
   4.102689e+05  -5.464936e+05
   5.687182e+05  -8.933484e+04
   2.186531e+05   3.092316e+05
  -1.782752e+05   3.261134e+05
  -2.365067e+05   8.346857e+04
  -4.953200e+04  -9.957640e+04
   7.233897e+04  -1.025121e+05
   1.920041e+04  -4.407022e+04
  -8.893029e+04  -6.208452e+04
  -1.042991e+05  -1.793009e+05
   5.333082e+04  -3.022941e+05
   3.546764e+05  -2.585283e+05
   5.845967e+05   6.531776e+04
   4.585788e+05   5.157532e+05
  -2.387722e+04   7.132271e+05
  -4.683795e+05   4.491468e+05
  -5.092025e+05  -3.048560e+04
  -2.461431e+05  -2.921902e+05
  -6.571514e+04  -2.139943e+05
  -1.092531e+05  -5.506871e+04
  -1.541466e+05  -5.985901e+04
  -4.759549e+03  -1.798765e+05
   2.390955e+05  -2.153940e+05
   3.542341e+05  -7.137028e+04
   2.401654e+05   1.818819e+05
  -6.688123e+04   3.719759e+05
  -4.378117e+05   3.018039e+05
  -6.240448e+05  -9.000544e+04
  -3.827729e+05  -5.636249e+05
   2.119467e+05  -7.093965e+05
   7.110701e+05  -3.723348e+05
   7.197852e+05   1.384826e+05
   3.258936e+05   3.872999e+05
  -3.977910e+04   2.944622e+05
  -1.132945e+05   1.533893e+05
  -1.809710e+04   2.101949e+05
  -1.058353e+04   3.783693e+05
  -1.704399e+05   3.911470e+05
  -3.675948e+05   1.229038e+05
  -4.127478e+05  -2.836548e+05
  -2.086697e+05  -5.402305e+05
   1.467336e+05  -4.413321e+05
   3.812389e+05  -4.474828e+04
   2.775960e+05   3.426264e+05
  -7.026507e+04   4.187953e+05
  -3.192027e+05   1.652356e+05
  -2.508217e+05  -1.587734e+05
  -7.114776e+03  -3.026255e+05
   1.107859e+05  -2.483550e+05
   1.157061e+04  -1.436882e+05
  -1.036980e+05  -9.834226e+04
  -1.851883e+03  -9.887951e+04
   3.079334e+05  -6.765464e+04
   5.616848e+05   5.435365e+04
   4.812453e+05   2.493486e+05
   5.485624e+04   3.999872e+05
  -4.043470e+05   3.648110e+05
  -5.306790e+05   1.364414e+05
  -2.736810e+05  -1.035730e+05
   5.504602e+04  -1.558288e+05
   1.387934e+05  -2.284864e+04
  -1.203380e+04   9.984778e+04
  -1.504521e+05   5.451577e+04
  -1.333162e+05  -1.092245e+05
  -4.474066e+04  -2.092638e+05
  -1.191239e+04  -1.376181e+05
  -4.239540e+04   2.588247e+04
  -7.118968e+04   9.233338e+04
  -5.168987e+04  -3.932368e+04
   4.429218e+04  -2.497654e+05
   2.097533e+05  -2.934881e+05
   3.273038e+05  -6.931821e+04
   2.241998e+05   2.291956e+05
  -9.140114e+04   3.037012e+05
  -3.309303e+05   9.021625e+04
  -2.070336e+05  -1.663088e+05
   1.973739e+05  -1.958325e+05
   4.702839e+05   1.181182e+04
   3.166272e+05   2.421931e+05
  -1.222710e+05   3.032978e+05
  -4.366731e+05   1.751222e+05
  -3.740599e+05  -2.744858e+04
  -5.582394e+04  -1.534182e+05
   1.822315e+05  -1.071941e+05
   1.189017e+05   6.062411e+04
  -1.554678e+05   1.491908e+05
  -3.328172e+05  -1.099783e+04
  -1.918773e+05  -3.303434e+05
   1.708971e+05  -4.865223e+05
   4.318183e+05  -2.528389e+05
   3.686957e+05   2.213654e+05
   6.705749e+04   5.241952e+05
  -2.062756e+05   3.916501e+05
  -2.737305e+05  -2.721701e+04
  -1.552897e+05  -3.347114e+05
   2.383496e+04  -2.949297e+05
   1.467425e+05  -4.667936e+04
   1.527798e+05   1.011045e+05
   6.943471e+04   4.073236e+04
   1.136674e+04  -3.915318e+04
   6.726794e+04   6.130605e+04
   1.585924e+05   2.679007e+05
   9.258364e+04   3.257901e+05
  -1.823032e+05   1.369859e+05
  -4.402462e+05  -1.209375e+05
  -3.982597e+05  -2.345639e+05
  -6.003799e+04  -1.933165e+05
   2.600366e+05  -1.200915e+05
   2.889262e+05  -6.711378e+04
   9.146830e+04  -2.005229e+02
  -4.992164e+04   6.877591e+04
   5.042013e+02   7.567679e+04
   8.942424e+04   3.184092e+04
   1.128158e+04   2.621940e+04
  -2.002179e+05   6.115665e+04
  -2.952937e+05   9.323768e+03
  -1.063182e+05  -1.815494e+05
   2.453426e+05  -3.354782e+05
   4.665965e+05  -2.265551e+05
   3.825022e+05   1.166013e+05
   8.228176e+04   4.021141e+05
  -1.959919e+05   3.928036e+05
  -2.827160e+05   1.519526e+05
  -1.858852e+05  -6.292663e+04
  -3.835849e+04  -9.098142e+04
   2.828621e+04  -3.928839e+03
  -1.928338e+04   1.899567e+04
  -1.006931e+05  -9.473549e+04
  -9.543594e+04  -2.278093e+05
   3.825138e+04  -1.975464e+05
   1.989229e+05   3.140159e+04
   2.169121e+05   2.728513e+05
   2.822034e+04   2.931786e+05
  -2.237921e+05   6.153757e+04
  -2.975370e+05  -2.136497e+05
  -9.839451e+04  -3.066306e+05
   1.973611e+05  -1.858086e+05
   3.083658e+05   1.167389e+04
   1.516535e+05   1.489378e+05
  -6.305728e+04   1.778064e+05
  -8.168788e+04   1.141052e+05
   8.697031e+04   1.802425e+04
   1.862298e+05  -1.141807e+04
   3.767569e+04   8.186138e+04
  -2.322300e+05   2.070957e+05
  -3.478571e+05   1.861184e+05
  -2.099179e+05  -2.739993e+04
   1.924891e+04  -2.471821e+05
   1.354416e+05  -2.491883e+05
   1.002889e+05  -4.119484e+04
   7.327920e+03   1.418158e+05
  -6.563032e+04   1.152138e+05
  -9.818234e+04  -5.553701e+04
  -7.536896e+04  -1.631898e+05
   1.149235e+04  -1.086327e+05
   1.119158e+05   1.478910e+04
   1.391947e+05   6.492229e+04
   7.308180e+04   1.786631e+04
  -8.694579e+03  -2.835223e+04
  -3.103502e+04   1.212378e+04
  -1.535525e+04   1.060059e+05
  -3.393190e+04   1.359046e+05
  -9.326028e+04   3.643651e+04
  -1.116174e+05  -1.182080e+05
  -2.359525e+04  -1.800020e+05
   1.195917e+05  -8.358138e+04
   1.790937e+05   8.098104e+04
   6.837312e+04   1.639388e+05
  -1.359269e+05   1.076162e+05
  -2.429383e+05  -1.633655e+04
  -1.378676e+05  -1.027274e+05
   7.764423e+04  -1.092166e+05
   1.770166e+05  -6.083350e+04
   6.237447e+04  -5.671698e+03
  -1.134649e+05   1.107865e+04
  -1.236397e+05  -3.198619e+04
   6.008252e+04  -9.461023e+04
   2.342741e+05  -8.082230e+04
