
 $NMID
 id='ANONYMOUS ', fmtdat='(2E16.6)'
 volume=1.0
 tramp=1.0
 $END
   3.081958e+07  -1.667208e+06
   2.100966e+07   1.448708e+07
   1.224956e+05   1.993191e+07
  -1.313606e+07   1.259881e+07
  -1.075087e+07   6.887433e+05
  -4.293082e+05  -5.475272e+06
   5.987855e+06  -2.346573e+06
   4.300413e+06   4.849472e+06
  -1.481877e+06   7.888850e+06
  -5.531479e+06   3.523505e+06
  -4.978398e+06  -3.622512e+06
  -9.251083e+05  -6.082908e+06
   2.750730e+06  -1.542966e+06
   2.453601e+06   4.748219e+06
  -1.565168e+06   5.853076e+06
  -5.002912e+06   5.784577e+05
  -3.887695e+06  -5.799939e+06
   1.140892e+06  -7.548153e+06
   5.649702e+06  -3.906419e+06
   6.099420e+06   1.320687e+06
   3.029022e+06   4.142764e+06
  -6.376669e+04   3.720744e+06
  -3.426663e+05   2.198676e+06
   1.654592e+06   2.067095e+06
   2.524369e+06   3.603771e+06
  -3.656264e+05   4.667634e+06
  -5.412321e+06   3.149453e+06
  -7.769420e+06  -4.563762e+05
  -4.634404e+06  -3.358386e+06
   1.152703e+06  -3.342628e+06
   4.003940e+06  -8.606128e+05
   1.752592e+06   1.699126e+06
  -2.388328e+06   2.175072e+06
  -4.011614e+06   1.266338e+05
  -2.184435e+06  -2.856702e+06
   5.965632e+05  -4.085896e+06
   1.796232e+06  -2.115176e+06
   1.069508e+06   1.221046e+06
  -2.266685e+05   2.194442e+06
  -5.801279e+05  -4.060423e+05
   5.008303e+05  -3.255036e+06
   2.004062e+06  -2.384703e+06
   2.094190e+06   1.520203e+06
   7.793864e+03   3.675060e+06
  -2.596407e+06   1.228998e+06
  -2.872195e+06  -3.138828e+06
   1.750207e+05  -4.590199e+06
   4.185032e+06  -1.725908e+06
   5.447163e+06   2.448215e+06
   2.528024e+06   4.291460e+06
  -2.182340e+06   2.877400e+06
  -4.629480e+06  -4.792915e+04
  -2.923693e+06  -2.070744e+06
   8.985674e+05  -1.891542e+06
   3.016367e+06  -1.113631e+05
   1.753161e+06   1.330936e+06
  -8.775134e+05   1.008638e+06
  -1.698621e+06  -4.924433e+05
  -3.186915e+04  -1.293516e+06
   1.738635e+06  -4.387372e+05
   1.173648e+06   1.102272e+06
  -1.345368e+06   1.647440e+06
  -3.100852e+06   4.561746e+05
  -2.014660e+06  -1.834532e+06
   1.287161e+06  -3.715136e+06
   4.232983e+06  -3.600205e+06
   4.745797e+06  -9.895312e+05
   2.917991e+06   2.624763e+06
   5.672063e+05   4.660413e+06
  -6.539533e+05   3.961642e+06
  -6.878701e+05   2.024902e+06
  -7.075686e+05   1.060254e+06
  -1.532435e+06   1.249421e+06
  -2.651960e+06   8.705965e+05
  -2.838345e+06  -9.600802e+05
  -1.492600e+06  -2.779759e+06
   7.042326e+05  -2.515815e+06
   2.265286e+06  -7.596619e+04
   1.968675e+06   2.443345e+06
  -1.538317e+05   2.914874e+06
  -2.588540e+06   1.104341e+06
  -3.401191e+06  -1.413970e+06
  -2.012327e+06  -2.836217e+06
   1.586280e+05  -2.596905e+06
   1.245056e+06  -1.566087e+06
   1.067666e+06  -9.577108e+05
   1.160178e+06  -1.041356e+06
   2.521975e+06  -9.592166e+05
   3.985697e+06   1.934282e+05
   3.428414e+06   2.235727e+06
   4.136162e+05   3.898277e+06
  -2.977361e+06   3.868112e+06
  -4.134080e+06   1.910844e+06
  -2.467228e+06  -7.744124e+05
   1.640779e+05  -2.309339e+06
   1.382852e+06  -1.679354e+06
   4.934433e+05   1.918853e+05
  -1.137801e+06   1.223732e+06
  -1.679042e+06   4.034697e+05
  -6.870796e+05  -1.030209e+06
   6.116474e+05  -1.118956e+06
   7.455306e+05   2.798569e+05
  -4.655526e+05   1.201330e+06
  -1.784750e+06   1.182065e+04
  -1.766967e+06  -2.471020e+06
  -3.190710e+04  -3.789443e+06
   2.403650e+06  -2.506612e+06
   3.837245e+06   3.945195e+05
   3.156076e+06   2.657975e+06
   8.397946e+05   2.888837e+06
  -1.278469e+06   1.544480e+06
  -1.632915e+06   1.915347e+05
  -4.836798e+05  -2.085500e+04
   4.007442e+05   6.977692e+05
  -2.103667e+05   1.185112e+06
  -1.570313e+06   6.374381e+05
  -1.892285e+06  -5.273533e+05
  -5.630487e+05  -1.169336e+06
   1.037508e+06  -6.899748e+05
   1.076513e+06   3.561886e+05
  -6.432687e+05   8.611864e+05
  -2.387912e+06   2.130377e+05
  -2.258998e+06  -1.190757e+06
  -1.311469e+05  -2.248967e+06
   2.195778e+06  -2.003717e+06
   2.739535e+06  -5.044176e+05
   1.225800e+06   1.050910e+06
  -7.327243e+05   1.322658e+06
  -1.290328e+06   2.149830e+05
  -1.329272e+05  -9.257727e+05
   1.389483e+06  -7.548750e+05
   1.730522e+06   5.568576e+05
   6.191149e+05   1.556157e+06
  -8.328657e+05   1.207926e+06
  -1.291952e+06   1.700712e+04
  -4.633825e+05  -6.569896e+05
   6.502775e+05  -1.325083e+05
   7.205750e+05   9.512554e+05
  -5.371469e+05   1.381012e+06
  -1.946174e+06   5.639103e+05
  -2.000333e+06  -9.506571e+05
  -4.827905e+05  -1.964764e+06
   1.234284e+06  -1.672722e+06
   1.633929e+06  -3.795912e+05
   6.200564e+05   7.704365e+05
  -5.481279e+05   8.728713e+05
  -7.290204e+05   1.049992e+05
  -1.151252e+04  -5.594297e+05
   6.235395e+05  -4.521495e+05
   4.604358e+05   9.843687e+04
  -2.571807e+05   2.326650e+05
  -6.350154e+05  -3.869167e+05
  -3.305519e+04  -1.122643e+06
   1.233637e+06  -9.976178e+05
   2.053390e+06   2.537218e+05
   1.527924e+06   1.804099e+06
  -7.958934e+04   2.429596e+06
  -1.526215e+06   1.631973e+06
  -1.817156e+06   9.825187e+04
  -1.134655e+06  -9.662013e+05
  -4.381494e+05  -9.740968e+05
  -3.051028e+05  -4.163261e+05
  -4.065032e+05  -1.994225e+05
  -9.390625e+04  -5.996628e+05
   7.342111e+05  -9.719385e+05
   1.442523e+06  -5.250765e+05
   1.240454e+06   6.832659e+05
  -4.539956e+04   1.632077e+06
  -1.646418e+06   1.289840e+06
  -2.313477e+06  -3.055199e+05
  -1.343441e+06  -1.958137e+06
   6.865290e+05  -2.362074e+06
   2.304993e+06  -1.276829e+06
   2.428145e+06   3.234241e+05
   1.277021e+06   1.242224e+06
   2.190748e+03   1.158447e+06
  -5.025823e+05   7.362763e+05
  -3.235882e+05   7.318945e+05
  -1.790227e+05   1.119469e+06
  -5.450913e+05   1.167840e+06
  -1.165491e+06   3.360597e+05
  -1.332186e+06  -1.011133e+06
  -6.267342e+05  -1.847595e+06
   5.613139e+05  -1.449896e+06
   1.283237e+06  -1.055494e+05
   9.170691e+05   1.131570e+06
  -1.699566e+05   1.375300e+06
  -9.544611e+05   6.207484e+05
  -8.061915e+05  -3.895331e+05
  -1.068165e+05  -9.161793e+05
   2.626805e+05  -8.203633e+05
  -3.278338e+04  -5.000163e+05
  -4.052185e+05  -3.579909e+05
  -5.323525e+04  -3.956044e+05
   1.040765e+06  -2.949044e+05
   1.938437e+06   1.735880e+05
   1.642939e+06   8.562693e+05
   1.720398e+05   1.305155e+06
  -1.343847e+06   1.155845e+06
  -1.725724e+06   4.700376e+05
  -8.906241e+05  -2.571550e+05
   1.572847e+05  -4.861262e+05
   4.499754e+05  -1.333276e+05
  -7.612201e+03   3.063776e+05
  -4.828539e+05   2.472900e+05
  -4.704628e+05  -3.167806e+05
  -1.542140e+05  -7.433399e+05
   6.246085e+03  -4.814679e+05
  -1.420982e+05   1.936831e+05
  -3.587862e+05   4.217434e+05
  -3.089568e+05  -1.984788e+05
   1.524001e+05  -1.028562e+06
   8.257512e+05  -1.072302e+06
   1.180775e+06  -1.482671e+05
   7.309890e+05   8.694467e+05
  -3.562658e+05   1.020247e+06
  -1.138497e+06   2.648693e+05
  -7.341090e+05  -5.722744e+05
   6.243800e+05  -7.027178e+05
   1.631708e+06  -6.543485e+04
   1.216512e+06   7.591102e+05
  -2.922889e+05   1.110305e+06
  -1.488112e+06   7.422562e+05
  -1.348950e+06  -2.124877e+04
  -2.302091e+05  -5.317969e+05
   6.116826e+05  -3.641811e+05
   3.520392e+05   2.315317e+05
  -6.174684e+05   4.856227e+05
  -1.168052e+06  -1.197733e+05
  -6.069900e+05  -1.193655e+06
   6.446756e+05  -1.674160e+06
   1.502882e+06  -8.650219e+05
   1.281917e+06   7.451917e+05
   2.696765e+05   1.809948e+06
  -6.786981e+05   1.398388e+06
  -9.560411e+05  -5.042625e+04
  -5.741202e+05  -1.158506e+06
   6.358233e+04  -1.039259e+06
   5.253527e+05  -1.565989e+05
   5.641397e+05   3.715852e+05
   2.578224e+05   1.552020e+05
   1.012117e+04  -1.239135e+05
   1.689358e+05   2.262703e+05
   5.100041e+05   9.192137e+05
   3.483757e+05   1.088322e+06
  -5.772085e+05   4.463297e+05
  -1.518634e+06  -3.980471e+05
  -1.421866e+06  -7.745929e+05
  -2.304324e+05  -6.701933e+05
   9.207279e+05  -4.530834e+05
   1.008988e+06  -2.627365e+05
   2.911719e+05  -1.262882e+04
  -1.687527e+05   2.247017e+05
   7.446546e+04   2.542467e+05
   3.766648e+05   1.370137e+05
   1.546226e+04   1.387281e+05
  -7.658980e+05   2.269141e+05
  -1.034569e+06  -9.871457e+02
  -3.064994e+05  -6.612918e+05
   8.951071e+05  -1.150423e+06
   1.600314e+06  -7.441699e+05
   1.300099e+06   4.383708e+05
   2.890364e+05   1.413372e+06
  -6.864960e+05   1.368746e+06
  -1.027534e+06   5.081694e+05
  -6.800547e+05  -2.635678e+05
  -1.032898e+05  -3.523822e+05
   1.573681e+05  -1.157904e+04
  -4.570517e+04   8.763726e+04
  -3.605786e+05  -3.237970e+05
  -3.184347e+05  -7.960897e+05
   1.743980e+05  -6.641667e+05
   7.062596e+05   1.617391e+05
   7.164237e+05   9.897701e+05
   4.563550e+04   1.018014e+06
  -8.035711e+05   1.841524e+05
  -1.030835e+06  -7.686854e+05
  -3.248275e+05  -1.071697e+06
   7.047937e+05  -6.325624e+05
   1.073305e+06   6.286656e+04
   4.969996e+05   5.294467e+05
  -2.580526e+05   6.015307e+05
  -2.889631e+05   3.583658e+05
   3.325967e+05   3.042622e+04
   6.696318e+05  -4.950671e+04
   1.276416e+05   2.866401e+05
  -7.991090e+05   7.191946e+05
  -1.163291e+06   6.462052e+05
  -6.810581e+05  -8.568720e+04
   7.354823e+04  -8.376871e+05
   4.477584e+05  -8.374990e+05
   3.369841e+05  -1.133567e+05
   2.712483e+04   5.122929e+05
  -2.406206e+05   3.979164e+05
  -3.635827e+05  -2.089042e+05
  -2.620066e+05  -5.705412e+05
   6.001189e+04  -3.603660e+05
   3.894782e+05   6.396445e+04
   4.565328e+05   2.119772e+05
   2.431296e+05   4.093122e+04
   1.648281e+02  -9.098958e+04
  -7.912993e+04   8.127001e+04
  -7.846888e+04   4.037513e+05
  -1.810318e+05   4.728861e+05
  -3.622790e+05   9.373862e+04
  -3.734318e+05  -4.550438e+05
  -4.595230e+04  -6.569524e+05
   4.359879e+05  -2.917492e+05
   6.239039e+05   3.078516e+05
   2.350662e+05   5.951355e+05
  -4.720230e+05   3.699898e+05
  -8.398870e+05  -8.088657e+04
  -4.684097e+05  -3.634270e+05
   2.815675e+05  -3.531249e+05
   6.120868e+05  -1.794489e+05
   1.911566e+05  -1.283570e+04
  -4.269165e+05   2.211342e+04
  -4.435823e+05  -1.324398e+05
   2.235179e+05  -3.480158e+05
   8.427342e+05  -2.958119e+05
