
 $NMID
 id='ANONYMOUS ', fmtdat='(2E16.6)'
 volume=1.0
 tramp=1.0
 $END
  -5.041858e+07  -1.813840e+06
  -2.955336e+07  -3.162806e+07
   7.264432e+06  -3.370123e+07
   2.493343e+07  -1.298421e+07
   1.488675e+07   6.037332e+06
  -2.904585e+06   8.321327e+06
  -8.937739e+06  -9.046614e+05
  -2.660861e+06  -8.815109e+06
   5.599460e+06  -8.702551e+06
   8.809098e+06  -1.882635e+06
   6.223622e+06   5.885652e+06
   4.509202e+05   7.993363e+06
  -3.787024e+06   2.276972e+06
  -2.297665e+06  -5.353376e+06
   3.574970e+06  -6.176520e+06
   7.154692e+06   1.248685e+06
   3.872930e+06   9.360800e+06
  -3.651670e+06   1.063393e+07
  -9.275516e+06   5.032840e+06
  -9.607657e+06  -2.272947e+06
  -5.519683e+06  -6.928904e+06
  -2.303306e+05  -7.543111e+06
   2.557051e+06  -5.102090e+06
   1.234343e+06  -2.504559e+06
  -1.250510e+06  -2.489016e+06
   7.462897e+04  -4.213118e+06
   5.507528e+06  -3.830401e+06
   9.144159e+06   1.216353e+05
   6.269388e+06   4.203327e+06
  -2.533113e+05   4.624652e+06
  -3.818669e+06   1.998963e+06
  -2.259655e+06  -4.399863e+05
   1.027360e+06  -1.109723e+06
   2.607192e+06  -2.705344e+05
   2.059736e+06   1.787181e+06
   2.387564e+05   3.893531e+06
  -1.908888e+06   3.354522e+06
  -2.710882e+06  -4.333108e+05
  -1.149864e+06  -3.331319e+06
   7.682844e+05  -1.396296e+06
   3.802707e+04   2.581709e+06
  -2.438635e+06   2.183251e+06
  -2.219332e+06  -2.920001e+06
   2.145826e+06  -5.489821e+06
   6.028613e+06  -8.067440e+05
   4.348280e+06   6.265272e+06
  -1.853680e+06   7.567319e+06
  -6.770725e+06   1.965325e+06
  -6.387155e+06  -4.282390e+06
  -1.709647e+06  -5.699868e+06
   3.303406e+06  -2.565865e+06
   5.018522e+06   1.449300e+06
   2.345622e+06   3.278008e+06
  -2.186839e+06   2.011433e+06
  -4.136464e+06  -8.961026e+05
  -1.770084e+06  -2.493463e+06
   1.590885e+06  -1.208930e+06
   1.665915e+06   9.921598e+05
  -1.091065e+06   9.467037e+05
  -2.258627e+06  -1.393869e+06
   3.639688e+05  -2.934639e+06
   3.986455e+06  -1.678637e+06
   4.755224e+06   1.171656e+06
   2.082514e+06   3.588239e+06
  -1.882003e+06   4.803197e+06
  -4.976281e+06   4.307292e+06
  -5.878769e+06   1.311975e+06
  -4.044658e+06  -3.184052e+06
  -5.943052e+05  -5.815340e+06
   1.800718e+06  -4.474513e+06
   1.591055e+06  -1.302570e+06
   2.793408e+05   1.179942e+03
   3.373158e+05  -9.975219e+05
   1.867746e+06  -1.489982e+06
   2.778596e+06   1.407047e+05
   1.787206e+06   2.171914e+06
  -2.387930e+05   2.185521e+06
  -1.694245e+06   8.316473e+04
  -1.612416e+06  -2.221883e+06
   1.719388e+05  -2.898192e+06
   2.768841e+06  -1.395154e+06
   4.141203e+06   1.411013e+06
   2.780168e+06   3.650821e+06
  -2.230919e+05   3.839710e+06
  -2.138802e+06   2.367626e+06
  -2.016153e+06   1.010726e+06
  -1.716428e+06   6.791093e+05
  -2.863985e+06   4.440001e+05
  -4.213463e+06  -8.357968e+05
  -3.323327e+06  -2.798466e+06
   6.783690e+03  -4.060237e+06
   3.320164e+06  -3.715457e+06
   4.228277e+06  -1.861881e+06
   2.568282e+06   6.148670e+05
   7.457104e+04   2.237193e+06
  -1.237729e+06   1.804944e+06
  -5.392352e+05  -9.804898e+04
   1.156080e+06  -1.229708e+06
   1.870656e+06  -3.042859e+05
   8.110672e+05   1.204776e+06
  -5.934500e+05   1.076664e+06
  -4.734771e+05  -4.005486e+05
   9.917845e+05  -7.568043e+05
   1.803262e+06   1.112622e+06
   7.164875e+05   3.319525e+06
  -1.438189e+06   3.418658e+06
  -3.058912e+06   1.240523e+06
  -3.336995e+06  -1.400437e+06
  -2.293704e+06  -2.848839e+06
  -3.913247e+05  -2.675267e+06
   1.310408e+06  -1.407992e+06
   1.586143e+06  -1.405410e+05
   4.848314e+05   6.481131e+04
  -3.287550e+05  -7.586354e+05
   4.378820e+05  -1.291652e+06
   1.867655e+06  -4.996557e+05
   1.962107e+06   9.179539e+05
   3.473948e+05   1.391618e+06
  -1.179505e+06   5.352605e+05
  -9.027536e+05  -4.887922e+05
   8.422239e+05  -5.489344e+05
   2.207464e+06   3.304726e+05
   1.768144e+06   1.417413e+06
  -2.816526e+05   2.008969e+06
  -2.365538e+06   1.598475e+06
  -2.771087e+06   1.774075e+05
  -1.153032e+06  -1.281590e+06
   9.531032e+05  -1.420874e+06
   1.514424e+06  -1.202495e+05
   1.364329e+05   1.058658e+06
  -1.526529e+06   6.651423e+05
  -1.679931e+06  -8.257528e+05
  -3.031229e+05  -1.652772e+06
   1.099319e+06  -9.630106e+05
   1.251297e+06   3.211234e+05
   2.434563e+05   7.788307e+05
  -7.787805e+05   3.440460e+04
  -6.878628e+05  -1.069423e+06
   6.326440e+05  -1.389358e+06
   2.017212e+06  -4.530083e+05
   1.975048e+06   1.125057e+06
   3.015451e+05   2.068841e+06
  -1.480204e+06   1.575077e+06
  -1.716364e+06   1.530509e+05
  -4.758842e+05  -8.783982e+05
   6.824870e+05  -7.816369e+05
   6.532563e+05  -4.410918e+04
  -1.195141e+05   3.946971e+05
  -5.304858e+05   2.245967e+05
  -1.781441e+05  -8.552242e+04
   4.164089e+05   3.794047e+04
   5.111157e+05   6.456828e+05
  -2.180163e+05   1.166440e+06
  -1.394989e+06   8.477558e+05
  -2.052451e+06  -4.824488e+05
  -1.380911e+06  -1.982136e+06
   3.083563e+05  -2.403139e+06
   1.665546e+06  -1.365293e+06
   1.700175e+06   1.732553e+05
   8.513357e+05   9.500320e+05
   2.941592e+05   7.174699e+05
   4.306123e+05   2.666986e+05
   5.769411e+05   3.147190e+05
   6.184116e+04   7.356944e+05
  -8.894320e+05   8.703504e+05
  -1.458037e+06   2.908587e+05
  -1.042879e+06  -7.626498e+05
   2.861100e+05  -1.472766e+06
   1.755232e+06  -1.025160e+06
   2.229394e+06   5.583159e+05
   1.067211e+06   2.126620e+06
  -1.064854e+06   2.315774e+06
  -2.547917e+06   9.516552e+05
  -2.329050e+06  -7.168812e+05
  -9.405059e+05  -1.371386e+06
   2.230053e+05  -9.708442e+05
   4.355242e+05  -5.219345e+05
   1.516843e+05  -7.350181e+05
   1.711965e+05  -1.262642e+06
   7.042781e+05  -1.234128e+06
   1.282090e+06  -2.626474e+05
   1.281443e+06   1.126238e+06
   4.777197e+05   1.905699e+06
  -6.771673e+05   1.404619e+06
  -1.282440e+06  -4.595809e+04
  -7.691490e+05  -1.294704e+06
   4.190244e+05  -1.373904e+06
   1.149944e+06  -3.887645e+05
   7.831436e+05   6.833114e+05
  -1.319183e+05   1.046486e+06
  -5.291652e+05   7.677968e+05
  -8.915276e+04   4.262121e+05
   4.103427e+05   3.549239e+05
   4.146560e+04   3.845302e+05
  -1.137172e+06   1.729952e+05
  -2.022313e+06  -3.958490e+05
  -1.570667e+06  -1.078845e+06
   6.788250e+04  -1.413692e+06
   1.597057e+06  -1.071991e+06
   1.824918e+06  -2.230445e+05
   8.224989e+05   4.972142e+05
  -2.672537e+05   5.448840e+05
  -5.041034e+05   2.709211e+04
  -1.020577e+04  -4.006697e+05
   4.558484e+05  -2.331494e+05
   4.617759e+05   3.568998e+05
   2.052868e+05   7.283144e+05
   5.978679e+04   4.771718e+05
   1.438157e+05  -1.017220e+05
   3.056998e+05  -2.946913e+05
   2.707299e+05   2.379227e+05
  -1.847131e+05   9.795695e+05
  -9.302999e+05   1.025414e+06
  -1.337389e+06   1.190243e+05
  -7.938426e+05  -9.358480e+05
   4.500702e+05  -1.101608e+06
   1.246777e+06  -2.762022e+05
   7.044749e+05   6.007610e+05
  -7.180919e+05   6.227079e+05
  -1.584465e+06  -1.467273e+05
  -9.906658e+05  -8.959922e+05
   5.050238e+05  -9.822681e+05
   1.517814e+06  -4.417720e+05
   1.236687e+06   2.275598e+05
   1.214297e+05   5.223145e+05
  -6.570509e+05   2.513842e+05
  -3.686897e+05  -3.016295e+05
   6.061469e+05  -4.911142e+05
   1.171575e+06   1.321975e+05
   6.136471e+05   1.201639e+06
  -6.592756e+05   1.666060e+06
  -1.512585e+06   8.195255e+05
  -1.222044e+06  -8.033347e+05
  -1.353776e+05  -1.794499e+06
   7.867530e+05  -1.269174e+06
   9.205106e+05   2.034274e+05
   3.940903e+05   1.205803e+06
  -2.479033e+05   9.667784e+05
  -5.630031e+05   6.831011e+04
  -4.565896e+05  -3.970859e+05
  -1.634424e+05  -1.478975e+05
  -5.076758e+04   9.586517e+04
  -2.622754e+05  -2.971259e+05
  -4.712033e+05  -9.792373e+05
  -1.569350e+05  -1.086982e+06
   7.204120e+05  -3.727377e+05
   1.455040e+06   5.173920e+05
   1.252065e+06   8.831114e+05
   1.611023e+05   7.022622e+05
  -8.692597e+05   3.850974e+05
  -9.903722e+05   1.476232e+05
  -3.562720e+05  -6.121228e+04
   1.543645e+05  -2.183576e+05
   4.052898e+04  -2.075847e+05
  -2.634350e+05  -1.080522e+05
  -4.514376e+04  -1.338854e+05
   6.700790e+05  -2.092012e+05
   1.042940e+06   4.686727e+04
   4.056746e+05   7.004669e+05
  -8.792154e+05   1.142870e+06
  -1.717307e+06   6.987422e+05
  -1.389877e+06  -4.739389e+05
  -2.274228e+05  -1.410737e+06
   8.088264e+05  -1.347842e+06
   1.062791e+06  -5.028597e+05
   6.454468e+05   2.535514e+05
   1.221896e+05   3.610434e+05
  -7.102689e+04   6.175380e+04
   8.329541e+04  -1.516045e+04
   2.888776e+05   3.780824e+05
   2.203943e+05   8.161379e+05
  -2.002860e+05   6.720384e+05
  -6.744285e+05  -1.420395e+05
  -7.067897e+05  -9.703093e+05
  -8.548431e+04  -1.030165e+06
   7.552477e+05  -2.244793e+05
   1.008805e+06   7.476076e+05
   3.161834e+05   1.095984e+06
  -7.296156e+05   6.558401e+05
  -1.114372e+06  -1.062470e+05
  -5.153062e+05  -6.275807e+05
   3.046853e+05  -6.709329e+05
   3.917536e+05  -3.585817e+05
  -2.425369e+05  -1.785177e+04
  -6.480229e+05   1.960234e+04
  -1.384352e+05  -3.113756e+05
   8.448069e+05  -6.515410e+05
   1.277416e+06  -4.999072e+05
   7.599134e+05   2.005111e+05
  -1.214608e+05   8.654308e+05
  -5.788035e+05   8.407426e+05
  -4.311770e+05   1.535874e+05
  -4.030719e+04  -4.768241e+05
   2.494667e+05  -4.289064e+05
   3.446047e+05   1.537690e+05
   2.370471e+05   5.830100e+05
  -6.224534e+04   4.275112e+05
  -3.880869e+05  -5.432316e+04
  -4.690044e+05  -2.959692e+05
  -2.403407e+05  -1.056659e+05
   3.345562e+04   1.528268e+05
   8.470667e+04   5.186849e+04
  -5.764847e+03  -3.476499e+05
   5.552569e+04  -5.477577e+05
   3.181035e+05  -2.149921e+05
   4.494034e+05   3.837319e+05
   1.452942e+05   6.463314e+05
  -4.129028e+05   3.034939e+05
  -6.567705e+05  -2.930463e+05
  -2.388568e+05  -5.764462e+05
   5.177755e+05  -3.518476e+05
   8.806319e+05   9.671718e+04
   4.688737e+05   3.896476e+05
  -3.029448e+05   3.948828e+05
  -6.436156e+05   2.147006e+05
  -2.539299e+05   1.363480e+04
   3.402315e+05  -6.038193e+04
   4.003900e+05   7.009724e+04
  -1.726061e+05   2.805904e+05
  -7.413279e+05   2.474494e+05
