
 $NMID
 id='ANONYMOUS ', fmtdat='(2E16.6)'
 volume=1.0
 tramp=1.0
 $END
  -4.527164e+07   7.337995e+05
  -2.843041e+07  -2.612199e+07
   4.137758e+06  -3.036642e+07
   2.147485e+07  -1.379650e+07
   1.414187e+07   3.756233e+06
  -1.702206e+06   7.731660e+06
  -8.254374e+06   2.888543e+05
  -3.437932e+06  -7.725974e+06
   4.254790e+06  -8.749278e+06
   7.938131e+06  -2.635958e+06
   6.103065e+06   5.108380e+06
   8.212700e+05   7.506723e+06
  -3.440369e+06   2.209049e+06
  -2.482733e+06  -5.147939e+06
   2.889935e+06  -6.238089e+06
   6.664131e+06   5.379793e+05
   4.183700e+06   8.337075e+06
  -2.677112e+06   9.975508e+06
  -8.189251e+06   5.033679e+06
  -8.755418e+06  -1.729710e+06
  -5.072222e+06  -6.004766e+06
  -4.156150e+05  -6.500002e+06
   1.759856e+06  -4.440952e+06
   3.776298e+05  -2.520844e+06
  -1.611471e+06  -2.832780e+06
   9.558946e+04  -4.342662e+06
   5.400750e+06  -3.757117e+06
   8.779715e+06  -9.747421e+03
   5.951583e+06   3.797308e+06
  -3.547429e+05   4.256130e+06
  -3.792044e+06   1.766092e+06
  -2.091120e+06  -7.217100e+05
   1.419815e+06  -1.383585e+06
   3.000260e+06  -2.344825e+05
   2.109764e+06   2.066979e+06
   7.845244e+04   3.946630e+06
  -1.787775e+06   3.073480e+06
  -2.258250e+06  -5.460882e+05
  -8.781677e+05  -2.959883e+06
   6.322263e+05  -9.193123e+05
  -8.590934e+04   2.759935e+06
  -2.296038e+06   2.306647e+06
  -2.299530e+06  -2.491994e+06
   1.385031e+06  -5.109301e+06
   5.086854e+06  -1.151784e+06
   4.166595e+06   5.279065e+06
  -1.155715e+06   6.843630e+06
  -6.025616e+06   2.111471e+06
  -6.281506e+06  -3.635396e+06
  -2.095492e+06  -5.321699e+06
   2.960179e+06  -2.764391e+06
   5.001273e+06   9.515298e+05
   2.628582e+06   2.928405e+06
  -1.778823e+06   2.077409e+06
  -3.887572e+06  -4.922269e+05
  -1.869875e+06  -2.138982e+06
   1.357845e+06  -1.214373e+06
   1.720290e+06   8.203321e+05
  -7.648640e+05   1.105153e+06
  -2.206422e+06  -8.199029e+05
  -1.865290e+05  -2.483073e+06
   3.226667e+06  -1.834419e+06
   4.388527e+06   5.787845e+05
   2.196131e+06   3.073266e+06
  -1.606183e+06   4.575443e+06
  -4.695570e+06   4.243457e+06
  -5.555861e+06   1.370007e+06
  -3.824731e+06  -2.932348e+06
  -7.373943e+05  -5.508413e+06
   1.386139e+06  -4.427556e+06
   1.350280e+06  -1.577057e+06
   4.460133e+05  -2.887082e+05
   6.686138e+05  -1.032482e+06
   2.042714e+06  -1.323995e+06
   2.775543e+06   3.211088e+05
   1.732458e+06   2.302094e+06
  -3.332811e+05   2.273335e+06
  -1.853369e+06   9.933386e+04
  -1.753700e+06  -2.267444e+06
   1.091129e+05  -2.916563e+06
   2.691150e+06  -1.379638e+06
   3.978489e+06   1.315160e+06
   2.673582e+06   3.364145e+06
  -9.502410e+04   3.518189e+06
  -1.832537e+06   2.223658e+06
  -1.744386e+06   1.067361e+06
  -1.569715e+06   8.305456e+05
  -2.787657e+06   6.498539e+05
  -4.201055e+06  -5.792607e+05
  -3.434259e+06  -2.597037e+06
  -1.893620e+05  -4.042909e+06
   3.174976e+06  -3.841421e+06
   4.185760e+06  -1.963806e+06
   2.556290e+06   6.071558e+05
   4.956877e+04   2.254698e+06
  -1.241957e+06   1.799004e+06
  -5.271166e+05  -1.068440e+05
   1.127554e+06  -1.253627e+06
   1.817676e+06  -3.791321e+05
   8.104678e+05   1.137191e+06
  -5.743978e+05   1.105199e+06
  -5.589527e+05  -3.617891e+05
   8.442534e+05  -9.144535e+05
   1.854546e+06   7.694116e+05
   1.098583e+06   3.114661e+06
  -9.804769e+05   3.608343e+06
  -2.905101e+06   1.675287e+06
  -3.550147e+06  -1.081246e+06
  -2.604270e+06  -2.793218e+06
  -5.602423e+05  -2.752731e+06
   1.286794e+06  -1.477536e+06
   1.606205e+06  -1.848905e+05
   4.905612e+05   4.325035e+04
  -3.655460e+05  -7.382811e+05
   3.466078e+05  -1.279026e+06
   1.782776e+06  -5.847150e+05
   1.977571e+06   7.683641e+05
   4.454640e+05   1.329263e+06
  -1.131852e+06   6.056256e+05
  -9.623645e+05  -4.376835e+05
   7.896044e+05  -6.530484e+05
   2.285467e+06   1.493598e+05
   1.941441e+06   1.342319e+06
  -1.388824e+05   2.099362e+06
  -2.309431e+06   1.765501e+06
  -2.779818e+06   3.230337e+05
  -1.211053e+06  -1.201060e+06
   8.626240e+05  -1.424008e+06
   1.457277e+06  -1.855798e+05
   1.619088e+05   1.019831e+06
  -1.481215e+06   7.252384e+05
  -1.722980e+06  -7.215807e+05
  -4.286081e+05  -1.633822e+06
   1.014539e+06  -1.064262e+06
   1.281209e+06   2.018481e+05
   3.257059e+05   7.444876e+05
  -7.425905e+05   7.702830e+04
  -7.169256e+05  -1.027337e+06
   5.852391e+05  -1.402068e+06
   1.999013e+06  -5.208509e+05
   2.013736e+06   1.046054e+06
   3.944971e+05   2.046949e+06
  -1.390034e+06   1.643945e+06
  -1.704452e+06   2.543445e+05
  -5.407388e+05  -8.437650e+05
   6.314330e+05  -8.262876e+05
   6.748814e+05  -7.453123e+04
  -8.112997e+04   4.428601e+05
  -5.583566e+05   2.920723e+05
  -2.548729e+05  -9.426828e+04
   3.844826e+05  -4.585634e+04
   5.656926e+05   5.742701e+05
  -1.299012e+05   1.170965e+06
  -1.346835e+06   9.209377e+05
  -2.075964e+06  -3.856585e+05
  -1.467468e+06  -1.920895e+06
   2.027729e+05  -2.433553e+06
   1.615778e+06  -1.481172e+06
   1.752021e+06   6.945442e+04
   9.540363e+05   9.514271e+05
   3.445043e+05   7.925339e+05
   3.992644e+05   3.007314e+05
   5.398091e+05   2.717984e+05
   8.529585e+04   7.034677e+05
  -8.410720e+05   9.229252e+05
  -1.464302e+06   3.806285e+05
  -1.118246e+06  -7.348439e+05
   2.010644e+05  -1.536525e+06
   1.723821e+06  -1.135675e+06
   2.279292e+06   4.545594e+05
   1.190240e+06   2.076436e+06
  -9.237590e+05   2.365941e+06
  -2.481658e+06   1.098186e+06
  -2.389622e+06  -5.695226e+05
  -1.067484e+06  -1.331532e+06
   1.473526e+05  -1.036833e+06
   4.519154e+05  -5.909095e+05
   1.872391e+05  -7.370099e+05
   1.479453e+05  -1.232288e+06
   6.391579e+05  -1.238324e+06
   1.252529e+06  -3.103013e+05
   1.324701e+06   1.077355e+06
   5.575337e+05   1.892937e+06
  -6.230122e+05   1.438644e+06
  -1.291973e+06   1.967010e+04
  -8.404451e+05  -1.244132e+06
   3.265772e+05  -1.393431e+06
   1.098110e+06  -4.798971e+05
   8.109851e+05   5.912953e+05
  -4.493605e+04   1.022082e+06
  -4.444037e+05   8.001589e+05
  -4.841066e+04   4.528865e+05
   4.179520e+05   3.516357e+05
   5.104673e+04   3.904366e+05
  -1.116649e+06   2.293829e+05
  -2.021243e+06  -2.999386e+05
  -1.621993e+06  -9.959205e+05
  -2.553379e+04  -1.394978e+06
   1.516848e+06  -1.133354e+06
   1.806684e+06  -3.284923e+05
   8.585640e+05   4.182956e+05
  -2.276309e+05   5.381079e+05
  -4.933512e+05   6.659727e+04
  -1.355189e+04  -3.777027e+05
   4.633729e+05  -2.476303e+05
   4.751102e+05   3.400500e+05
   2.054249e+05   7.337480e+05
   5.044489e+04   4.796303e+05
   1.445769e+05  -1.306812e+05
   3.193837e+05  -3.354598e+05
   2.865854e+05   2.261748e+05
  -1.622974e+05   1.003555e+06
  -8.903697e+05   1.061016e+06
  -1.299643e+06   1.517501e+05
  -7.977761e+05  -9.086640e+05
   4.064727e+05  -1.094463e+06
   1.219618e+06  -2.980171e+05
   7.286972e+05   5.846647e+05
  -6.864460e+05   6.636049e+05
  -1.613774e+06  -6.026736e+04
  -1.078331e+06  -8.489832e+05
   4.330588e+05  -1.036723e+06
   1.515350e+06  -5.563327e+05
   1.282475e+06   1.506746e+05
   1.619211e+05   5.273270e+05
  -6.446555e+05   2.968187e+05
  -3.718994e+05  -2.765153e+05
   6.040917e+05  -5.026022e+05
   1.179813e+06   1.087023e+05
   6.370499e+05   1.195705e+06
  -6.294508e+05   1.691082e+06
  -1.505566e+06   8.652631e+05
  -1.262353e+06  -7.708872e+05
  -2.062414e+05  -1.809926e+06
   7.403091e+05  -1.329130e+06
   9.416782e+05   1.459181e+05
   4.688265e+05   1.195080e+06
  -1.814519e+05   9.989598e+05
  -5.554034e+05   1.032814e+05
  -4.965297e+05  -3.854008e+05
  -1.931895e+05  -1.485326e+05
  -3.795703e+04   1.058539e+05
  -2.435227e+05  -2.734425e+05
  -5.033417e+05  -9.603055e+05
  -2.315945e+05  -1.093078e+06
   6.786437e+05  -4.101462e+05
   1.492955e+06   4.615399e+05
   1.324945e+06   8.376325e+05
   1.942885e+05   6.959461e+05
  -8.834840e+05   4.219798e+05
  -1.000634e+06   1.983910e+05
  -3.422116e+05  -3.407816e+04
   1.552471e+05  -2.244908e+05
   5.094074e+03  -2.242886e+05
  -2.981318e+05  -1.135330e+05
  -3.878438e+04  -1.348764e+05
   6.979046e+05  -2.262389e+05
   1.048321e+06   1.573685e+04
   3.932311e+05   6.858362e+05
  -8.688800e+05   1.168115e+06
  -1.683624e+06   7.479821e+05
  -1.382815e+06  -4.415273e+05
  -2.713550e+05  -1.417483e+06
   7.563102e+05  -1.377959e+06
   1.051061e+06  -5.263809e+05
   6.633629e+05   2.471372e+05
   1.237072e+05   3.584024e+05
  -9.421847e+04   4.829714e+04
   7.373374e+04  -3.735368e+04
   3.178697e+05   3.608182e+05
   2.638716e+05   8.123316e+05
  -1.819498e+05   6.775225e+05
  -6.895918e+05  -1.366581e+05
  -7.311936e+05  -9.691110e+05
  -9.370424e+04  -1.031462e+06
   7.692815e+05  -2.279554e+05
   1.035022e+06   7.404587e+05
   3.405852e+05   1.090952e+06
  -7.157088e+05   6.669207e+05
  -1.112451e+06  -7.473218e+04
  -5.252269e+05  -5.948767e+05
   2.813066e+05  -6.613320e+05
   3.588324e+05  -3.682778e+05
  -2.700974e+05  -1.782085e+04
  -6.584742e+05   3.931473e+04
  -1.420713e+05  -3.041158e+05
   8.264333e+05  -6.904285e+05
   1.246026e+06  -5.682051e+05
   7.474463e+05   1.552652e+05
  -9.291875e+04   8.660105e+05
  -5.307895e+05   8.569463e+05
  -4.046739e+05   1.517362e+05
  -4.513362e+04  -4.892898e+05
   2.408904e+05  -4.276405e+05
   3.546668e+05   1.643546e+05
   2.561580e+05   5.794248e+05
  -5.386567e+04   4.126640e+05
  -3.919385e+05  -5.037268e+04
  -4.746365e+05  -2.657481e+05
  -2.452461e+05  -8.391121e+04
   2.740506e+04   1.355212e+05
   8.570235e+04   1.323607e+04
   1.203808e+04  -3.649123e+05
   8.066288e+04  -5.304234e+05
   3.278367e+05  -1.878345e+05
   4.374740e+05   3.976496e+05
   1.298647e+05   6.503227e+05
  -4.167181e+05   3.094263e+05
  -6.570727e+05  -2.872835e+05
  -2.494203e+05  -5.813154e+05
   5.023322e+05  -3.688405e+05
   8.768829e+05   7.690046e+04
   4.790400e+05   3.764401e+05
  -2.914324e+05   3.913948e+05
  -6.348564e+05   2.182022e+05
  -2.379255e+05   1.871021e+04
   3.652005e+05  -5.555520e+04
   4.159291e+05   8.099329e+04
  -1.833720e+05   3.040096e+05
  -7.705802e+05   2.752719e+05
