
 $NMID
 id='ANONYMOUS ', fmtdat='(2E16.6)'
 volume=1.0
 tramp=1.0
 $END
  -4.768486e+07  -5.821835e+05
  -2.903735e+07  -2.833337e+07
   5.318919e+06  -3.176357e+07
   2.292400e+07  -1.381189e+07
   1.464768e+07   4.361720e+06
  -2.034233e+06   8.030671e+06
  -8.621505e+06   5.318595e+04
  -3.359494e+06  -8.171998e+06
   4.681754e+06  -9.022268e+06
   8.374865e+06  -2.530826e+06
   6.275844e+06   5.533261e+06
   6.737023e+05   7.912152e+06
  -3.688516e+06   2.237570e+06
  -2.506071e+06  -5.462527e+06
   3.171049e+06  -6.460468e+06
   6.964949e+06   7.538031e+05
   4.157421e+06   8.865882e+06
  -3.090807e+06   1.039638e+07
  -8.755827e+06   5.058456e+06
  -9.176239e+06  -2.075807e+06
  -5.170207e+06  -6.493605e+06
  -2.181496e+05  -6.879822e+06
   2.026766e+06  -4.597257e+06
   4.726480e+05  -2.562728e+06
  -1.672433e+06  -2.961255e+06
   1.575054e+05  -4.573451e+06
   5.767156e+06  -3.865376e+06
   9.259175e+06   1.763460e+05
   6.184747e+06   4.152516e+06
  -4.795301e+05   4.509720e+06
  -4.055580e+06   1.807034e+06
  -2.229616e+06  -8.024953e+05
   1.477512e+06  -1.464673e+06
   3.154852e+06  -2.377456e+05
   2.212733e+06   2.198352e+06
   2.512278e+04   4.174156e+06
  -1.969468e+06   3.206263e+06
  -2.399246e+06  -6.565458e+05
  -8.492513e+05  -3.177731e+06
   7.345466e+05  -9.638884e+05
  -1.135141e+05   2.913546e+06
  -2.451144e+06   2.374103e+06
  -2.336855e+06  -2.675227e+06
   1.611737e+06  -5.304221e+06
   5.384366e+06  -1.024251e+06
   4.216329e+06   5.690337e+06
  -1.428098e+06   7.155141e+06
  -6.400944e+06   2.048158e+06
  -6.502754e+06  -3.970595e+06
  -2.068941e+06  -5.620883e+06
   3.161214e+06  -2.823801e+06
   5.208775e+06   1.107533e+06
   2.675119e+06   3.118192e+06
  -1.922624e+06   2.118958e+06
  -4.062016e+06  -6.250233e+05
  -1.895879e+06  -2.292871e+06
   1.462214e+06  -1.235790e+06
   1.781249e+06   8.961029e+05
  -8.232044e+05   1.115624e+06
  -2.259215e+06  -9.292099e+05
  -8.974702e+04  -2.586197e+06
   3.446078e+06  -1.800314e+06
   4.571758e+06   7.424897e+05
   2.208303e+06   3.284514e+06
  -1.801529e+06   4.776157e+06
  -5.035629e+06   4.368133e+06
  -5.884616e+06   1.317441e+06
  -3.965853e+06  -3.185601e+06
  -6.489316e+05  -5.816240e+06
   1.556823e+06  -4.604106e+06
   1.432331e+06  -1.603231e+06
   4.385124e+05  -2.998209e+05
   7.034185e+05  -1.108517e+06
   2.183868e+06  -1.387403e+06
   2.939236e+06   3.764252e+05
   1.804107e+06   2.456475e+06
  -3.771044e+05   2.398330e+06
  -1.949196e+06   8.941569e+04
  -1.811128e+06  -2.404617e+06
   1.643764e+05  -3.066799e+06
   2.865101e+06  -1.402760e+06
   4.168821e+06   1.472470e+06
   2.737369e+06   3.612139e+06
  -1.958647e+05   3.706012e+06
  -1.994242e+06   2.287731e+06
  -1.860394e+06   1.066210e+06
  -1.658262e+06   8.289523e+05
  -2.931161e+06   6.240404e+05
  -4.393163e+06  -6.902261e+05
  -3.552560e+06  -2.790466e+06
  -1.239949e+05  -4.245974e+06
   3.402539e+06  -3.977787e+06
   4.436172e+06  -1.992702e+06
   2.684959e+06   6.843191e+05
   1.774727e+04   2.380046e+06
  -1.340563e+06   1.876555e+06
  -5.563948e+05  -1.230735e+05
   1.208522e+06  -1.300140e+06
   1.918489e+06  -3.615053e+05
   8.292491e+05   1.215971e+06
  -6.231875e+05   1.153643e+06
  -5.778180e+05  -3.839304e+05
   8.949561e+05  -9.308518e+05
   1.907214e+06   8.484403e+05
   1.072195e+06   3.271121e+06
  -1.092059e+06   3.735197e+06
  -3.052729e+06   1.686221e+06
  -3.683898e+06  -1.189778e+06
  -2.681005e+06  -2.959002e+06
  -5.462185e+05  -2.891118e+06
   1.374732e+06  -1.530744e+06
   1.691059e+06  -1.680345e+05
   5.139068e+05   5.432562e+04
  -3.702338e+05  -7.816718e+05
   3.909701e+05  -1.334815e+06
   1.884463e+06  -5.759103e+05
   2.057796e+06   8.472543e+05
   4.382581e+05   1.402795e+06
  -1.198840e+06   6.138422e+05
  -1.001559e+06  -4.730012e+05
   8.335664e+05  -6.671898e+05
   2.385582e+06   1.930170e+05
   2.010855e+06   1.432090e+06
  -1.770064e+05   2.193312e+06
  -2.449118e+06   1.811329e+06
  -2.921126e+06   2.896961e+05
  -1.246599e+06  -1.284110e+06
   9.365306e+05  -1.478254e+06
   1.535690e+06  -1.631316e+05
   1.492707e+05   1.077495e+06
  -1.569620e+06   7.338662e+05
  -1.793045e+06  -7.889898e+05
  -4.182738e+05  -1.718481e+06
   1.080989e+06  -1.093614e+06
   1.335467e+06   2.356276e+05
   3.253117e+05   7.844750e+05
  -7.814290e+05   6.526223e+04
  -7.346422e+05  -1.092587e+06
   6.393156e+05  -1.463300e+06
   2.109146e+06  -5.124640e+05
   2.096247e+06   1.134557e+06
   3.765203e+05   2.155943e+06
  -1.489294e+06   1.698534e+06
  -1.791869e+06   2.344116e+05
  -5.503678e+05  -8.943635e+05
   6.773289e+05  -8.547514e+05
   7.099058e+05  -6.844117e+04
  -8.853287e+04   4.607105e+05
  -5.854421e+05   2.999538e+05
  -2.657653e+05  -9.507466e+04
   3.979517e+05  -3.596172e+04
   5.772706e+05   6.110786e+05
  -1.586598e+05   1.222507e+06
  -1.428666e+06   9.409102e+05
  -2.170993e+06  -4.416128e+05
  -1.505744e+06  -2.042239e+06
   2.550508e+05  -2.550029e+06
   1.718383e+06  -1.525210e+06
   1.833485e+06   1.013039e+05
   9.856745e+05   1.009080e+06
   3.546926e+05   8.337629e+05
   4.196023e+05   3.252806e+05
   5.611222e+05   2.999081e+05
   7.417369e+04   7.407425e+05
  -8.977560e+05   9.514362e+05
  -1.539524e+06   3.742759e+05
  -1.160227e+06  -7.859881e+05
   2.339517e+05  -1.604810e+06
   1.825153e+06  -1.161260e+06
   2.382424e+06   5.153087e+05
   1.211135e+06   2.197746e+06
  -1.012408e+06   2.462983e+06
  -2.621773e+06   1.105009e+06
  -2.492949e+06  -6.392035e+05
  -1.094881e+06  -1.410531e+06
   1.688177e+05  -1.081004e+06
   4.790839e+05  -6.144337e+05
   2.083959e+05  -7.767138e+05
   1.802854e+05  -1.294779e+06
   6.960370e+05  -1.287898e+06
   1.321531e+06  -3.017184e+05
   1.371943e+06   1.154933e+06
   5.521562e+05   1.997008e+06
  -6.791523e+05   1.499541e+06
  -1.355504e+06  -1.927666e+03
  -8.580191e+05  -1.319915e+06
   3.684315e+05  -1.453651e+06
   1.158225e+06  -4.798238e+05
   8.352447e+05   6.366407e+05
  -6.923396e+04   1.068791e+06
  -4.810531e+05   8.269789e+05
  -5.745510e+04   4.719789e+05
   4.335827e+05   3.768026e+05
   4.734543e+04   4.108694e+05
  -1.175436e+06   2.192538e+05
  -2.115325e+06  -3.527084e+05
  -1.683077e+06  -1.074103e+06
   6.457523e+02  -1.462224e+06
   1.613751e+06  -1.159596e+06
   1.900096e+06  -3.109860e+05
   8.894912e+05   4.541442e+05
  -2.505718e+05   5.595687e+05
  -5.174802e+05   5.974445e+04
  -5.480932e+03  -3.981488e+05
   4.908943e+05  -2.528773e+05
   4.926115e+05   3.656794e+05
   2.041462e+05   7.761775e+05
   4.533853e+04   5.068959e+05
   1.517537e+05  -1.343697e+05
   3.378262e+05  -3.482605e+05
   2.964127e+05   2.414471e+05
  -1.861854e+05   1.051287e+06
  -9.532782e+05   1.098104e+06
  -1.369347e+06   1.339195e+05
  -8.224131e+05  -9.708443e+05
   4.483834e+05  -1.142221e+06
   1.288401e+06  -2.901500e+05
   7.554665e+05   6.265543e+05
  -7.316023e+05   6.833525e+05
  -1.690345e+06  -9.071638e+04
  -1.114863e+06  -9.060154e+05
   4.708436e+05  -1.076711e+06
   1.595504e+06  -5.570223e+05
   1.340340e+06   1.783691e+05
   1.610262e+05   5.545206e+05
  -6.804853e+05   2.995674e+05
  -3.849249e+05  -2.979237e+05
   6.438333e+05  -5.188127e+05
   1.238714e+06   1.343356e+05
   6.496165e+05   1.268455e+06
  -6.904793e+05   1.767319e+06
  -1.596854e+06   8.838605e+05
  -1.312592e+06  -8.309211e+05
  -1.858259e+05  -1.903345e+06
   7.983638e+05  -1.381767e+06
   9.837990e+05   1.692725e+05
   4.707506e+05   1.260446e+06
  -2.067914e+05   1.042601e+06
  -5.838278e+05   9.797000e+04
  -5.145373e+05  -4.111167e+05
  -2.004310e+05  -1.571299e+05
  -4.129442e+04   1.095121e+05
  -2.502563e+05  -2.943547e+05
  -5.113947e+05  -1.017813e+06
  -2.240253e+05  -1.148776e+06
   7.195947e+05  -4.159160e+05
   1.558894e+06   5.097475e+05
   1.375529e+06   8.996721e+05
   1.913882e+05   7.335262e+05
  -9.342231e+05   4.296461e+05
  -1.052659e+06   1.915484e+05
  -3.577777e+05  -4.359565e+04
   1.669082e+05  -2.337408e+05
   8.664739e+03  -2.326277e+05
  -3.117774e+05  -1.214015e+05
  -3.891069e+04  -1.431713e+05
   7.367533e+05  -2.284297e+05
   1.101107e+06   3.467762e+04
   4.014920e+05   7.305218e+05
  -9.332524e+05   1.214032e+06
  -1.782652e+06   7.549363e+05
  -1.446223e+06  -4.901034e+05
  -2.610947e+05  -1.493627e+06
   8.186844e+05  -1.433125e+06
   1.114177e+06  -5.349463e+05
   6.935287e+05   2.701126e+05
   1.240184e+05   3.794945e+05
  -1.006535e+05   5.162234e+04
   7.656429e+04  -3.674192e+04
   3.265044e+05   3.833062e+05
   2.628210e+05   8.564644e+05
  -2.031425e+05   7.089217e+05
  -7.232826e+05  -1.544627e+05
  -7.530019e+05  -1.031226e+06
  -8.094295e+04  -1.087363e+06
   8.136120e+05  -2.280550e+05
   1.076260e+06   7.955734e+05
   3.390182e+05   1.152892e+06
  -7.645900e+05   6.886985e+05
  -1.167703e+06  -9.860693e+04
  -5.400040e+05  -6.353626e+05
   3.088705e+05  -6.899444e+05
   3.841133e+05  -3.787903e+05
  -2.834996e+05  -2.109966e+04
  -6.922090e+05   3.059210e+04
  -1.436888e+05  -3.225633e+05
   8.793481e+05  -7.105709e+05
   1.316950e+06  -5.728584e+05
   7.809559e+05   1.784731e+05
  -1.133394e+05   9.080807e+05
  -5.734376e+05   8.889515e+05
  -4.295484e+05   1.506101e+05
  -4.009200e+04  -5.154032e+05
   2.613328e+05  -4.455364e+05
   3.713935e+05   1.780875e+05
   2.591189e+05   6.130879e+05
  -6.528268e+04   4.333166e+05
  -4.115386e+05  -5.954000e+04
  -4.926304e+05  -2.882511e+05
  -2.548590e+05  -9.266518e+04
   2.520403e+04   1.441228e+05
   8.667865e+04   1.619230e+04
   1.704488e+04  -3.853074e+05
   9.501195e+04  -5.598570e+05
   3.506661e+05  -1.936430e+05
   4.554109e+05   4.270708e+05
   1.263026e+05   6.884177e+05
  -4.436015e+05   3.189405e+05
  -6.866073e+05  -3.139332e+05
  -2.529296e+05  -6.154926e+05
   5.342529e+05  -3.781507e+05
   9.206276e+05   9.677969e+04
   4.967384e+05   4.041219e+05
  -3.142452e+05   4.063442e+05
  -6.723461e+05   2.180830e+05
  -2.508345e+05   1.407253e+04
   3.855240e+05  -5.454527e+04
   4.373340e+05   9.088820e+04
  -1.961032e+05   3.175099e+05
  -8.133207e+05   2.786306e+05
