
 $NMID
 id='ANONYMOUS ', fmtdat='(2E16.6)'
 volume=1.0
 tramp=1.0
 $END
  -2.661736e+07   1.450099e+06
  -1.931650e+07  -1.186568e+07
  -1.182715e+06  -1.758472e+07
   1.175040e+07  -1.222866e+07
   1.057835e+07  -1.348390e+06
   8.601110e+05   5.225367e+06
  -5.894363e+06   2.637489e+06
  -4.468965e+06  -4.600700e+06
   1.389016e+06  -7.848060e+06
   5.314266e+06  -3.554242e+06
   4.474255e+06   3.439061e+06
   5.775380e+05   5.672265e+06
  -2.518997e+06   1.189108e+06
  -1.948834e+06  -4.755924e+06
   1.731730e+06  -5.685636e+06
   4.728365e+06  -6.444199e+05
   3.592722e+06   5.356487e+06
  -1.048286e+06   6.919065e+06
  -5.053787e+06   3.421544e+06
  -5.205208e+06  -1.303561e+06
  -2.358257e+06  -3.471494e+06
   2.013720e+04  -2.807407e+06
  -2.499087e+05  -1.822800e+06
  -1.995796e+06  -2.499192e+06
  -2.132725e+06  -4.169410e+06
   1.003222e+06  -4.523522e+06
   5.479245e+06  -2.309894e+06
   7.142256e+06   1.196689e+06
   3.895274e+06   3.373207e+06
  -1.485309e+06   2.718594e+06
  -3.837967e+06   1.306595e+05
  -1.227380e+06  -2.014726e+06
   2.964998e+06  -1.857037e+06
   4.152591e+06   5.469113e+05
   1.681092e+06   3.238301e+06
  -1.217335e+06   3.818246e+06
  -1.785272e+06   1.625968e+06
  -4.739602e+05  -1.227217e+06
   5.793185e+05  -1.684740e+06
   2.349113e+05   7.875333e+05
  -1.048892e+06   3.151847e+06
  -2.152437e+06   2.180425e+06
  -2.020915e+06  -1.410744e+06
  -2.610685e+05  -3.484245e+06
   2.030740e+06  -1.438141e+06
   2.548850e+06   2.546286e+06
   3.668494e+04   4.057387e+06
  -3.703823e+06   1.493325e+06
  -5.051439e+06  -2.499477e+06
  -2.310390e+06  -4.270883e+06
   2.253365e+06  -2.749457e+06
   4.583050e+06   2.381822e+05
   2.878097e+06   2.168422e+06
  -8.006531e+05   1.876581e+06
  -2.839966e+06   1.223412e+05
  -1.704173e+06  -1.245338e+06
   7.877220e+05  -9.306235e+05
   1.661115e+06   5.689648e+05
   6.533436e+04   1.469999e+06
  -1.871336e+06   6.624728e+05
  -1.560570e+06  -1.037430e+06
   9.628165e+05  -1.787468e+06
   2.946984e+06  -6.348113e+05
   1.966127e+06   1.649798e+06
  -1.404733e+06   3.321427e+06
  -4.267407e+06   2.972198e+06
  -4.442825e+06   5.116809e+05
  -2.384131e+06  -2.609415e+06
  -1.767098e+05  -4.344844e+06
   7.811387e+05  -3.817155e+06
   8.132971e+05  -2.152904e+06
   1.036735e+06  -1.103590e+06
   1.899333e+06  -9.240442e+05
   2.736867e+06  -3.097917e+05
   2.536280e+06   1.421752e+06
   9.885418e+05   2.934979e+06
  -1.098413e+06   2.352821e+06
  -2.306376e+06  -2.599023e+05
  -1.667128e+06  -2.673371e+06
   4.741798e+05  -2.805716e+06
   2.551958e+06  -7.440397e+05
   2.986344e+06   1.651713e+06
   1.588989e+06   2.709040e+06
  -2.652777e+05   2.262600e+06
  -1.100386e+06   1.341165e+06
  -9.516199e+05   9.255892e+05
  -1.182406e+06   1.022568e+06
  -2.552429e+06   7.880677e+05
  -3.878126e+06  -4.841304e+05
  -3.161988e+06  -2.456614e+06
  -6.263585e+04  -3.843495e+06
   3.273692e+06  -3.481483e+06
   4.204581e+06  -1.404509e+06
   2.256994e+06   1.043433e+06
  -4.757608e+05   2.195903e+06
  -1.535419e+06   1.425364e+06
  -4.311377e+05  -2.500733e+05
   1.232479e+06  -1.053968e+06
   1.641117e+06  -2.470012e+05
   5.472535e+05   1.019591e+06
  -7.218713e+05   1.017115e+06
  -7.541591e+05  -3.657006e+05
   5.420716e+05  -1.262763e+06
   1.871615e+06  -2.921884e+04
   1.748488e+06   2.565752e+06
  -1.581041e+05   3.939280e+06
  -2.650717e+06   2.489445e+06
  -3.903976e+06  -6.849728e+05
  -2.950463e+06  -3.006553e+06
  -5.456006e+05  -2.992725e+06
   1.424362e+06  -1.382546e+06
   1.618018e+06  -6.540761e+03
   4.720204e+05   6.497798e+04
  -3.297546e+05  -7.169904e+05
   2.787993e+05  -1.129770e+06
   1.548974e+06  -5.047303e+05
   1.806412e+06   6.358275e+05
   4.841097e+05   1.175164e+06
  -1.070963e+06   5.955503e+05
  -1.047747e+06  -4.634136e+05
   7.258702e+05  -8.443625e+05
   2.442546e+06  -1.417723e+04
   2.175616e+06   1.430504e+06
  -8.015975e+04   2.292259e+06
  -2.372106e+06   1.791726e+06
  -2.744751e+06   2.477087e+05
  -1.112974e+06  -1.117676e+06
   7.999840e+05  -1.206169e+06
   1.239424e+06  -1.122395e+05
   4.093745e+04   8.815004e+05
  -1.413003e+06   6.077837e+05
  -1.655494e+06  -6.873886e+05
  -4.983239e+05  -1.596390e+06
   9.201167e+05  -1.156533e+06
   1.301644e+06   6.756144e+04
   4.318215e+05   6.895197e+05
  -6.304103e+05   8.651821e+04
  -6.077264e+05  -9.851657e+05
   6.599126e+05  -1.285232e+06
   1.949216e+06  -3.539505e+05
   1.855765e+06   1.116770e+06
   2.940569e+05   1.959257e+06
  -1.347331e+06   1.530965e+06
  -1.636779e+06   2.400756e+05
  -5.557840e+05  -8.101290e+05
   6.125387e+05  -8.160224e+05
   7.367783e+05  -2.164186e+04
  -5.102320e+04   5.890441e+05
  -7.030580e+05   3.955043e+05
  -4.853023e+05  -1.889583e+05
   2.832064e+05  -2.686676e+05
   6.302992e+05   4.152855e+05
  -4.201489e+04   1.117216e+06
  -1.297644e+06   8.765092e+05
  -1.990158e+06  -4.349564e+05
  -1.326996e+06  -1.905126e+06
   3.101576e+05  -2.378678e+06
   1.668866e+06  -1.478060e+06
   1.828814e+06   7.169815e+04
   1.044071e+06   1.102664e+06
   3.107851e+05   1.060692e+06
   2.061684e+05   4.507952e+05
   3.541195e+05   1.964628e+05
   4.695757e+04   5.720243e+05
  -8.062540e+05   9.000730e+05
  -1.487198e+06   3.920852e+05
  -1.174357e+06  -8.149635e+05
   2.039997e+05  -1.639550e+06
   1.756128e+06  -1.128039e+06
   2.255730e+06   5.207765e+05
   1.153693e+06   2.051685e+06
  -8.658151e+05   2.266790e+06
  -2.371365e+06   1.069412e+06
  -2.384009e+06  -5.240415e+05
  -1.177514e+06  -1.364705e+06
   1.094304e+05  -1.186565e+06
   6.100910e+05  -6.888653e+05
   4.281598e+05  -6.499242e+05
   2.821953e+05  -1.035879e+06
   6.202483e+05  -1.077510e+06
   1.153688e+06  -2.231079e+05
   1.200562e+06   1.113875e+06
   4.344760e+05   1.867683e+06
  -6.904545e+05   1.363938e+06
  -1.273455e+06  -1.392807e+04
  -8.090102e+05  -1.187111e+06
   2.725190e+05  -1.344618e+06
   9.866317e+05  -5.621226e+05
   7.784521e+05   4.158623e+05
   6.159541e+04   9.051178e+05
  -3.034086e+05   8.081820e+05
  -1.038640e+04   5.169983e+05
   3.519068e+05   3.929280e+05
   8.110254e+03   3.938703e+05
  -1.039779e+06   2.038600e+05
  -1.871813e+06  -3.347537e+05
  -1.536828e+06  -9.821677e+05
  -7.764647e+04  -1.293040e+06
   1.395200e+06  -1.015575e+06
   1.736513e+06  -3.202746e+05
   8.762176e+05   3.124643e+05
  -1.792719e+05   4.562800e+05
  -4.544603e+05   1.052902e+05
   3.284840e+04  -2.772498e+05
   5.025977e+05  -1.861027e+05
   4.278680e+05   3.531029e+05
   5.543622e+04   7.347741e+05
  -7.258947e+04   4.586347e+05
   1.710706e+05  -1.895556e+05
   4.216190e+05  -3.850540e+05
   2.894545e+05   2.263060e+05
  -2.643061e+05   9.943956e+05
  -9.087102e+05   9.679104e+05
  -1.136444e+06   3.456276e+04
  -6.072571e+05  -9.055038e+05
   4.328997e+05  -9.454660e+05
   1.112260e+06  -1.402770e+05
   6.568439e+05   6.354386e+05
  -6.763806e+05   6.379976e+05
  -1.624349e+06  -8.546241e+04
  -1.153441e+06  -8.748112e+05
   3.840165e+05  -1.094098e+06
   1.557469e+06  -6.123584e+05
   1.351532e+06   1.475375e+05
   1.825152e+05   5.563931e+05
  -6.388533e+05   3.105783e+05
  -3.201453e+05  -2.488580e+05
   6.546899e+05  -3.985626e+05
   1.119407e+06   2.447489e+05
   4.540925e+05   1.222833e+06
  -8.107047e+05   1.553979e+06
  -1.557499e+06   6.801552e+05
  -1.177755e+06  -8.622781e+05
  -8.203125e+04  -1.804247e+06
   8.103798e+05  -1.316931e+06
   9.465065e+05   1.321714e+05
   4.655541e+05   1.200792e+06
  -1.533270e+05   1.035903e+06
  -5.307700e+05   1.132675e+05
  -5.279169e+05  -4.320720e+05
  -2.487034e+05  -1.921163e+05
  -1.933945e+04   1.290809e+05
  -1.295904e+05  -2.139429e+05
  -4.057646e+05  -9.416701e+05
  -2.510699e+05  -1.117170e+06
   5.919059e+05  -3.988872e+05
   1.453892e+06   5.414691e+05
   1.336336e+06   9.107235e+05
   1.650433e+05   6.783413e+05
  -9.612384e+05   3.427193e+05
  -1.025134e+06   1.606973e+05
  -2.807924e+05   1.070379e+03
   1.918741e+05  -1.983980e+05
  -5.955822e+04  -2.775619e+05
  -3.670674e+05  -1.944807e+05
   7.074001e+03  -1.337537e+05
   7.880365e+05  -1.256913e+05
   1.006810e+06   1.076461e+05
   2.094367e+05   6.562863e+05
  -1.000399e+06   1.014514e+06
  -1.618775e+06   5.648283e+05
  -1.199341e+06  -5.531992e+05
  -1.330349e+05  -1.410800e+06
   7.992168e+05  -1.268901e+06
   1.047655e+06  -3.825536e+05
   6.348577e+05   3.381646e+05
   5.783436e+04   3.494466e+05
  -1.638587e+05  -2.621913e+04
   5.604355e+04  -9.772556e+04
   3.329375e+05   3.531327e+05
   2.396650e+05   8.155139e+05
  -2.378371e+05   6.256290e+05
  -6.697462e+05  -2.436213e+05
  -5.828604e+05  -1.044387e+06
   7.554841e+04  -9.848079e+05
   8.035555e+05  -7.535700e+04
   9.149098e+05   8.670897e+05
   1.995464e+05   1.072060e+06
  -7.468907e+05   5.331821e+05
  -1.031371e+06  -1.683680e+05
  -4.308488e+05  -5.489593e+05
   3.009656e+05  -5.470860e+05
   3.014603e+05  -3.270585e+05
  -3.343309e+05  -7.964476e+04
  -6.625920e+05  -2.413074e+04
  -9.273024e+04  -2.864827e+05
   8.550078e+05  -6.257970e+05
   1.196798e+06  -5.369541e+05
   6.500932e+05   1.286309e+05
  -1.528223e+05   8.045825e+05
  -5.033867e+05   7.771342e+05
  -3.173854e+05   7.616783e+04
   3.766546e+04  -5.047631e+05
   2.725739e+05  -3.543511e+05
   3.261045e+05   2.556635e+05
   1.962771e+05   5.832821e+05
  -9.003909e+04   3.306456e+05
  -3.695138e+05  -1.075213e+05
  -4.267023e+05  -2.396238e+05
  -2.395198e+05  -5.529503e+04
  -9.160311e+03   7.277291e+04
   1.008085e+05  -9.508955e+04
   1.435027e+05  -3.828182e+05
   2.424465e+05  -4.093699e+05
   3.552358e+05  -2.281782e+04
   2.886485e+05   4.869072e+05
  -4.846787e+04   6.321590e+05
  -4.582779e+05   2.291807e+05
  -5.627267e+05  -3.671714e+05
  -1.583065e+05  -6.064390e+05
   4.929650e+05  -3.147347e+05
   7.997193e+05   1.647002e+05
   4.165176e+05   3.999192e+05
  -3.035038e+05   3.057110e+05
  -6.033902e+05   1.028661e+05
  -1.751799e+05  -1.367476e+03
   4.275219e+05   4.386659e+04
   4.155658e+05   1.945808e+05
  -2.730650e+05   3.185342e+05
  -8.745341e+05   1.891690e+05
