
 $NMID
 id='ANONYMOUS ', fmtdat='(2E16.6)'
 volume=1.0
 tramp=1.0
 $END
   2.877114e+03  -3.774031e+02
   2.405905e+03   1.601086e+03
  -2.491826e+02   2.073915e+03
  -1.108317e+03   1.377698e+03
  -1.119667e+03   9.026991e+01
  -2.812444e+00  -3.155213e+02
   5.676104e+02   8.809949e+01
   1.624167e+02   6.327242e+02
  -4.671599e+02   6.405402e+02
  -7.078926e+02   1.524781e+02
  -3.932474e+02  -5.205051e+02
  -3.277058e+01  -7.179038e+02
   3.093226e+02  -2.299480e+02
   3.410091e+02   4.373733e+02
  -7.541246e+01   5.447610e+02
  -3.651753e+02   1.526643e+02
  -2.757934e+02  -4.644774e+02
   1.021577e+02  -5.968873e+02
   4.832546e+02  -2.731877e+02
   4.114866e+02   1.947428e+02
   9.602114e+01   3.230928e+02
  -1.376468e+02   2.239401e+02
  -1.077456e+02   7.699518e+01
   1.883119e+02   1.554767e+01
   3.169450e+02   2.632458e+02
   4.352105e+01   3.888708e+02
  -4.587925e+02   2.461109e+02
  -6.370485e+02  -9.516212e+01
  -2.447337e+02  -3.452036e+02
   3.200611e+02  -2.188395e+02
   5.547361e+02   1.374356e+02
   2.502669e+02   3.102505e+02
  -2.402478e+02   3.538185e+02
  -4.390792e+02   1.445481e+02
  -3.261519e+02  -1.370566e+02
  -9.013307e+01  -3.262466e+02
   5.907572e+01  -2.506322e+02
   3.662253e+00   6.769525e+01
  -1.135337e+02   1.508399e+02
  -2.429945e+02  -7.568381e+01
  -4.395844e+01  -4.604637e+02
   2.200198e+02  -5.091759e+02
   3.305958e+02  -5.673001e+01
   1.713463e+02   3.409912e+02
  -1.396028e+02   1.880564e+02
  -1.608667e+02  -2.011926e+02
   1.524511e+01  -4.043309e+02
   3.844538e+02  -3.050583e+01
   4.533617e+02   3.329831e+02
   1.816751e+02   4.580367e+02
  -2.382682e+02   2.779000e+02
  -5.984009e+02  -9.785287e+00
  -3.518125e+02  -3.212721e+02
  -1.959269e+00  -2.682729e+02
   2.591215e+02  -1.137423e+02
   2.188943e+02   4.653107e+01
  -4.627674e+01   5.096737e+01
  -7.451435e+01  -1.168528e+02
   8.111706e+01  -1.016808e+02
   2.748829e+02   1.412368e+01
   1.355600e+02   1.598514e+02
  -1.310565e+02   1.815723e+02
  -3.123224e+02   1.372080e+02
  -2.841313e+02  -6.317120e+01
   2.477817e+01  -3.078815e+02
   1.955128e+02  -3.476748e+02
   3.565387e+02  -2.153695e+02
   2.842945e+02   1.507339e+02
   5.991904e+01   3.603203e+02
  -4.342861e+01   3.097290e+02
  -3.157216e+01   1.620825e+02
  -2.284656e+01   8.187297e+01
  -1.010963e+02   1.082417e+02
  -2.263684e+02   4.977775e+01
  -2.166209e+02  -7.018679e+01
  -1.118436e+02  -2.046170e+02
   8.224315e+01  -2.069233e+02
   2.277067e+02   4.346358e+01
   1.603959e+02   2.528110e+02
  -6.442281e+01   2.739479e+02
  -2.287033e+02   3.915867e+01
  -3.081094e+02  -2.026923e+02
  -1.573485e+02  -2.901200e+02
   2.595824e+01  -2.302347e+02
   1.921081e+02  -1.614451e+02
   1.279615e+02  -7.190950e+01
   1.215578e+02  -8.043332e+01
   2.665733e+02  -2.822412e+01
   3.907791e+02   6.386798e+00
   3.050679e+02   3.152838e+02
   7.627560e+01   4.164122e+02
  -3.260378e+02   4.567333e+02
  -4.629327e+02   1.776895e+02
  -2.838324e+02  -9.775102e+01
   1.530131e+01  -2.357325e+02
   6.940646e+01  -1.722690e+02
   2.822508e+01  -2.798412e+01
  -9.874505e+01   5.811618e+01
  -9.995180e+01  -1.413906e+01
  -3.270277e+01  -1.318812e+02
   1.474627e+02  -1.125634e+02
   1.064511e+02   4.244760e+01
   3.088935e+01   7.371500e+01
  -1.592468e+02   3.202102e+01
  -1.523993e+02  -1.868110e+02
   6.148535e+01  -2.997279e+02
   1.904116e+02  -1.917765e+02
   3.791555e+02   4.855911e+01
   2.818823e+02   2.108151e+02
   1.140693e+02   2.619143e+02
  -1.084307e+02   1.298792e+02
  -1.115959e+02   4.028939e+01
  -5.223844e+01  -1.337946e+01
   6.561239e+01   9.036008e+01
   4.262981e+01   1.364594e+02
  -1.150221e+02   7.500708e+01
  -1.677307e+02  -2.316201e+01
  -1.376905e+01  -6.690487e+01
   1.118990e+02  -1.120864e+01
   2.761638e+01   8.113917e+01
  -1.410586e+02   1.148148e+02
  -2.894435e+02  -1.534528e+01
  -2.739496e+02  -1.920133e+02
  -2.420875e+01  -2.481319e+02
   2.114218e+02  -2.896029e+02
   2.697731e+02  -1.252571e+02
   1.537922e+02   5.298338e+01
  -4.297532e+01   1.027213e+02
  -2.489403e+01  -1.910305e+01
   6.694708e+01  -1.220556e+02
   2.039313e+02  -6.037032e+01
   1.702176e+02   9.689355e+01
   8.845154e+01   1.770380e+02
  -1.007310e+02   8.453300e+01
  -1.407427e+02  -8.131036e+00
  -3.996180e+01  -5.771901e+01
   6.006139e+01   8.947973e+00
   2.922876e+01   9.734045e+01
  -6.926085e+01   1.298500e+02
  -2.183017e+02   2.912938e+01
  -1.825737e+02  -1.644810e+02
  -6.532976e+01  -1.854934e+02
   1.518167e+02  -1.658962e+02
   1.859861e+02   6.845713e+00
   7.029002e+01   8.132836e+01
  -7.289125e+01   6.759695e+01
  -3.229898e+01   2.007696e+01
   3.506583e+00  -6.867567e+01
   6.004168e+01   8.519045e+00
  -1.630032e+01   1.592555e+01
  -8.416121e+01   2.127445e+01
  -1.295996e+02  -1.069208e+02
  -3.966351e+01  -1.791870e+02
   1.181696e+02  -1.601503e+02
   2.314792e+02  -4.388805e+01
   1.376636e+02   1.407942e+02
   6.495707e+01   1.857980e+02
  -1.283575e+02   1.869603e+02
  -1.446967e+02   3.789484e+01
  -6.633761e+01  -1.665991e+01
  -2.955510e+01  -5.831719e+01
  -7.272940e+01   5.712844e+01
  -8.005042e+01  -4.192220e+00
  -4.599347e+01  -4.562690e+01
   1.517597e+01  -1.204851e+02
   1.197253e+02  -1.112952e+02
   7.033953e+01   1.539656e+01
   8.911437e+00   1.604703e+02
  -1.925348e+02   1.236332e+02
  -2.334571e+02  -3.628684e+01
  -1.111094e+02  -2.141286e+02
   8.306644e+01  -2.146918e+02
   2.832245e+02  -9.077326e+01
   2.518794e+02   8.875833e+01
   1.158832e+02   1.535627e+02
  -5.799777e+01   1.157190e+02
  -9.158209e+01   5.714991e+01
  -2.745273e+01   5.637504e+01
  -8.540458e+01   9.511650e+01
  -7.767593e+01   7.964877e+01
  -1.713956e+02  -3.207511e+01
  -1.171604e+02  -1.467966e+02
  -6.786105e+01  -1.937661e+02
   9.396984e+01  -2.034551e+02
   1.517808e+02  -3.317435e+01
   1.486756e+02   1.406808e+02
   1.650660e+01   1.491950e+02
  -7.636849e+01   7.730350e+01
  -8.022097e+01  -6.019759e+01
  -1.358205e+01  -4.802625e+01
   2.078547e+00  -1.655595e+01
  -5.265419e+01   8.064373e-01
  -1.044181e+02   1.420155e+01
  -5.546202e+01  -3.898852e+01
   7.917148e+01  -4.543980e+01
   1.711478e+02   1.858895e+01
   1.737727e+02   6.059107e+01
   6.452804e+00   9.678020e+01
  -1.089697e+02   7.706943e+01
  -1.222547e+02  -9.105884e+00
  -5.179900e+01  -2.704564e+01
   7.157257e+01   5.265637e+00
   7.062085e+01   8.984019e+00
   3.565451e+00   6.402958e+01
  -6.492209e+01   7.803467e+01
  -7.780544e+01  -7.064451e+00
  -7.416950e+01  -3.713533e+01
  -6.281375e+01  -8.551870e+01
  -4.008116e+01  -4.178415e+01
  -6.002956e+01   1.469275e+01
  -1.930368e+01  -5.618991e+01
   2.121495e+01  -1.424538e+02
   1.007682e+02  -1.559574e+02
   1.699657e+02  -5.368690e+01
   1.162489e+02   9.116562e+01
   3.466913e+01   9.371486e+01
  -6.703331e+01   7.713737e+01
  -1.055298e+02  -1.351093e+01
   5.503648e+01  -2.646315e+00
   1.532516e+02   3.372056e+01
   9.304694e+01   9.193864e+01
  -4.526943e+01   1.215520e+02
  -1.762411e+02   1.073785e+02
  -1.361590e+02  -2.330289e+01
  -3.280410e+01  -7.636711e+01
   4.469557e+01  -5.565821e+01
   3.957880e+01   9.090390e+00
  -1.710436e+01   1.477127e+01
  -1.417769e+02  -1.953725e+01
  -2.189503e+01  -9.712598e+01
   1.208604e+02  -1.471641e+02
   1.443554e+02  -1.119082e+02
   1.265851e+02   1.534466e+02
   1.392763e+01   2.083003e+02
  -5.671501e+01   1.519724e+02
  -1.130629e+02  -9.764977e+00
  -5.231297e+01  -1.450964e+02
   4.913940e+01  -1.344940e+02
   4.215955e+01  -5.799801e+01
   6.670379e+01   2.734492e+00
   1.114368e+01  -1.630481e+00
  -3.237987e+01   4.822038e+00
   5.453462e+00  -2.128683e-01
   1.188982e+02   1.065622e+02
   4.467872e+01   1.066180e+02
  -5.142670e+01   3.923271e+01
  -1.098396e+02   7.038909e+00
  -1.133316e+02  -2.856917e+01
  -2.182573e+01  -7.923922e+01
   8.982630e+01  -8.362163e+00
   9.688601e+01  -6.163538e+01
   2.797151e+01  -2.689104e+01
  -3.970718e+01   3.798251e+01
  -1.684944e+01  -1.156492e+01
   4.310174e+01  -4.934212e+00
  -9.685024e+00   1.511756e+01
  -3.461089e+01   2.763036e+01
  -1.051707e+02   1.444288e+01
  -3.227019e+01  -4.011591e+01
   5.946797e+01  -1.129869e+02
   1.635458e+02  -5.838513e+01
   1.354470e+02   1.923308e+01
   2.206467e+01   1.599352e+02
  -5.481742e+01   1.500768e+02
  -9.300167e+01   6.058093e+01
  -6.875561e+01  -5.430228e+00
  -3.450729e+01  -5.159497e+01
  -7.085820e+00  -6.424457e-01
   6.051920e+00  -9.542224e+00
  -3.113163e+01  -2.611776e+01
   3.324734e+01  -8.134529e+01
  -1.960917e+01  -3.567449e+01
   7.121131e+01  -9.410288e+00
   3.106945e+01   9.959353e+01
   1.885098e+01   8.252344e+01
  -7.875903e+01   1.669320e+01
  -1.029842e+02  -4.050148e+01
  -5.616184e+01  -5.673840e+01
   4.853941e+01  -5.206264e+01
   7.768666e+01   2.142894e+01
   1.249962e+01   4.438768e+01
  -4.212568e+01   8.332154e+01
  -8.121022e+01   1.976230e+01
   5.646343e+01  -1.107540e+01
   3.929392e+01  -4.294553e+01
  -6.038110e+00  -2.172620e+01
  -6.673911e+01   7.801309e+01
  -1.484943e+02   2.611477e+01
  -2.849461e+01   1.776544e+01
  -7.840676e+00  -1.120552e+02
   3.509804e+01  -1.191162e+02
   7.962984e+00  -4.426573e+01
  -1.462281e+00   5.814622e+01
  -3.444908e+01   4.715906e+01
  -5.345074e+01  -1.313588e+01
  -2.263780e+01  -5.939013e+01
  -1.177310e+01  -3.553558e+01
   4.003612e+01  -1.364654e+01
   2.966473e+01   9.741455e+00
   3.428912e+01   1.791728e+01
  -7.241981e-01  -2.655047e+01
  -2.127589e+00   1.267986e+01
  -3.288307e+01   4.896408e+01
   2.440761e+00   8.204521e+00
  -2.556369e+01   2.495548e+01
  -8.275944e+01  -2.434319e+01
  -5.148921e+01  -9.497185e+01
   4.767583e+01  -3.934215e+01
   7.025041e+01   1.223856e+01
   3.502728e+01   7.206292e+01
  -3.846720e+01   5.521993e+01
  -8.342288e+01  -3.462812e+01
  -4.041684e+01  -4.843943e+01
   1.971350e+01  -7.579313e+01
   7.567323e+01  -1.791543e+01
   5.242534e+01   4.770917e+00
  -5.808695e+01   1.386816e+01
  -3.585760e+01  -5.894101e-01
   3.400430e+00  -5.055122e+01
   7.475136e+01   3.301160e-01
