
 $NMID
 id='ANONYMOUS ', fmtdat='(2E16.6)'
 volume=1.0
 tramp=1.0
 $END
  -3.097514e+03   3.283190e+02
  -2.393228e+03  -1.529491e+03
   5.170822e+01  -2.065223e+03
   1.218035e+03  -1.399515e+03
   9.979369e+02  -3.325698e+01
  -5.060033e+01   3.870173e+02
  -6.241634e+02  -5.317567e+01
  -2.440330e+02  -6.052369e+02
   3.985922e+02  -7.736126e+02
   7.399797e+02  -2.427387e+02
   4.556936e+02   4.916967e+02
   6.720279e+01   7.679837e+02
  -3.178870e+02   2.699808e+02
  -3.916404e+02  -4.304903e+02
   1.190078e+02  -6.108436e+02
   4.614874e+02  -1.937915e+02
   3.883610e+02   4.833631e+02
  -3.163268e+01   6.729820e+02
  -4.555727e+02   3.101983e+02
  -4.327527e+02  -1.461682e+02
  -1.268685e+02  -3.825440e+02
   1.393598e+02  -2.286444e+02
   1.019589e+02  -3.048038e+01
  -1.576366e+02  -1.696446e+01
  -3.092012e+02  -2.039026e+02
  -7.943671e+01  -3.681878e+02
   4.112023e+02  -2.999927e+02
   6.523259e+02   6.497190e+00
   3.159308e+02   3.447672e+02
  -2.507947e+02   2.952909e+02
  -5.226272e+02  -4.454866e+01
  -3.116754e+02  -2.903441e+02
   2.150766e+02  -3.661820e+02
   4.357360e+02  -2.090265e+02
   3.702246e+02   1.323367e+02
   1.252607e+02   3.328218e+02
  -3.295104e+01   2.512026e+02
  -4.795884e+01  -6.201016e+01
   7.957080e+01  -2.038257e+02
   3.018483e+02   6.650725e+01
   7.615624e+01   5.067397e+02
  -2.215508e+02   6.420671e+02
  -3.973321e+02   1.256444e+02
  -1.738247e+02  -3.572745e+02
   9.754342e+01  -2.186403e+02
   2.528731e+02   2.335963e+02
  -3.046733e+01   3.406965e+02
  -4.060672e+02   1.286778e+02
  -5.083864e+02  -3.161080e+02
  -2.141478e+02  -5.133788e+02
   2.851210e+02  -3.303763e+02
   5.632425e+02   2.728400e+01
   4.032225e+02   2.675711e+02
  -6.093044e+01   2.705034e+02
  -2.750044e+02   1.278712e+02
  -1.681299e+02  -4.927275e+01
   2.939228e+01  -1.758852e+01
   9.229682e+01   8.893475e+01
  -1.082278e+02   1.436327e+02
  -2.892790e+02   8.419984e+00
  -1.732919e+02  -1.488841e+02
   7.758922e+01  -2.705374e+02
   2.858001e+02  -1.715506e+02
   2.566367e+02   3.271950e+01
   3.161817e+01   3.331097e+02
  -2.442436e+02   3.538261e+02
  -3.747659e+02   1.744498e+02
  -2.753589e+02  -1.981936e+02
  -6.126822e+01  -3.518875e+02
   3.584191e+01  -2.811457e+02
   3.403463e+01  -1.677933e+02
   3.054782e+01  -9.566436e+01
   1.565024e+02  -1.110280e+02
   2.271472e+02  -8.940156e+01
   2.621113e+02   7.808381e+01
   6.912938e+01   2.516242e+02
  -6.831465e+01   2.175220e+02
  -2.024814e+02  -8.624715e+00
  -1.589346e+02  -2.082526e+02
   7.062181e+00  -2.554452e+02
   1.862364e+02  -8.229739e+01
   3.393136e+02   1.147577e+02
   2.481409e+02   2.905559e+02
  -7.429234e+00   2.788758e+02
  -1.816577e+02   1.550573e+02
  -1.612683e+02   1.030823e+02
  -1.511543e+02   1.191449e+02
  -2.691518e+02   9.749268e+01
  -4.328828e+02  -6.427663e+01
  -3.670704e+02  -2.926169e+02
  -2.753639e+01  -4.415956e+02
   2.980357e+02  -4.263999e+02
   4.170136e+02  -2.070200e+02
   3.314076e+02   3.220949e+01
   2.182096e+01   2.350170e+02
  -6.588261e+01   1.850705e+02
   2.273048e+01   2.711913e+01
   1.206243e+02  -7.322342e+01
   1.595130e+02  -1.790823e+01
   3.572635e+01   1.419568e+02
  -1.679685e+02   1.362646e+02
  -1.122339e+02  -2.847626e+01
  -2.011745e+01  -8.570189e+01
   1.160305e+02  -4.459376e+01
   1.652394e+02   1.773544e+02
  -2.451473e+01   3.213430e+02
  -2.577573e+02   2.056040e+02
  -3.605716e+02  -8.332242e+01
  -2.544612e+02  -2.128262e+02
  -7.610895e+01  -2.636298e+02
   1.020690e+02  -1.371134e+02
   1.351818e+02  -2.172892e+01
   5.315194e+01  -2.637524e+01
  -5.119404e+01  -6.983776e+01
   2.041245e+01  -1.330541e+02
   1.284264e+02  -8.439109e+01
   1.316236e+02   3.868739e+01
   2.038893e+01   6.837253e+01
  -1.238524e+02   3.386317e+01
  -5.815158e+01  -7.558113e+01
   1.551581e+02  -9.091301e+01
   2.991926e+02  -1.518950e+01
   3.023771e+02   1.510475e+02
   3.205080e+01   2.645512e+02
  -1.610324e+02   2.828459e+02
  -2.873482e+02   1.394645e+02
  -1.471348e+02  -1.315081e+01
   7.804700e+00  -8.935498e+01
   5.311368e+01   3.756027e+01
  -4.075507e+01   8.463507e+01
  -2.275891e+02   8.100911e+01
  -2.199950e+02  -1.202184e+02
  -6.997689e+01  -1.432927e+02
   9.215460e+01  -1.509447e+02
   8.088786e+01  -4.671480e+01
   2.481639e+01   3.830242e+01
  -4.503447e+01   1.265646e+01
  -6.942039e+01  -1.051012e+02
   5.841609e+01  -1.211667e+02
   2.334546e+02  -5.421592e+01
   1.690296e+02   1.205240e+02
   5.628243e+01   2.271742e+02
  -1.353431e+02   1.883504e+02
  -2.119593e+02   3.181444e+01
  -4.719926e+01  -1.072636e+02
   6.020866e+01  -7.614661e+01
   4.775034e+01  -3.603939e+01
  -4.246162e+01   3.117946e+01
  -5.728073e+01  -2.413354e+00
  -4.046083e+00  -1.559109e+01
   8.468101e+01   1.753328e+01
   1.242398e+02   4.045062e+01
   5.638036e+01   1.791904e+02
  -1.320860e+02   1.791904e+02
  -2.177822e+02   1.283066e+01
  -1.493210e+02  -1.370039e+02
  -4.838857e+01  -1.977788e+02
   8.083047e+01  -1.873614e+02
   1.035205e+02  -5.236146e+01
   9.534259e+01   2.771895e+01
   8.982096e+01   4.752069e+00
   5.118544e+01  -7.864382e+01
   1.334363e+02  -1.358971e+01
   4.327901e+01   4.722285e+01
  -5.708407e+01   1.049162e+02
  -1.179972e+02   9.221109e+01
  -1.106865e+02  -4.813971e+01
   2.382544e+01  -1.054357e+02
   1.351771e+02  -7.736447e+01
   2.029578e+02   1.911743e+01
   9.736874e+01   2.222633e+02
  -1.018642e+02   2.471057e+02
  -2.447926e+02   1.049607e+02
  -2.671012e+02  -5.276461e+01
  -1.260823e+02  -1.462490e+02
   3.386525e+01  -1.770415e+02
   5.529892e+01  -7.777143e+01
   7.692657e+01  -4.850272e+01
   2.935151e+01  -8.858615e+01
   6.986012e+01  -9.809945e+01
   1.152096e+02  -1.600807e+01
   1.665251e+02   1.132175e+02
   6.410166e+01   2.308367e+02
  -7.809859e+01   1.371402e+02
  -1.271916e+02   2.802718e+01
  -1.567572e+02  -8.895514e+01
   8.102162e+00  -1.820322e+02
   7.747138e+01  -8.788434e+01
   3.153227e+01   5.118059e+01
  -3.577025e+00   3.423874e+01
  -4.437254e+01   8.012312e+01
   4.402162e+01   3.664559e+01
   5.630529e+01   3.847585e+01
   5.029794e+01   5.151060e+00
  -8.663633e+01   3.852542e+01
  -1.898958e+02   1.564992e+01
  -1.505022e+02  -5.081354e+01
   2.582770e+01  -9.170970e+01
   1.019110e+02  -7.047529e+01
   9.805770e+01  -1.557091e+01
   3.948405e+01   2.652844e+01
  -7.657767e+01   5.711312e+01
  -7.709426e+01   2.546105e+01
  -3.495879e+01  -7.146109e+01
   6.630232e+01  -7.158372e+01
   3.729003e+01  -4.276869e+01
   4.091780e+01   8.985446e+00
   7.451896e+01   4.598424e+01
   5.113560e+01  -7.239894e+00
   8.343322e+01  -5.397012e+00
   6.321159e+01   1.016994e+02
  -1.060068e+01   1.410821e+02
  -7.672172e+01   1.859718e+02
  -1.762090e+02   2.886623e+01
  -1.571356e+02  -8.750398e+01
  -2.329152e+01  -1.397022e+02
   7.964642e+01  -6.323671e+01
   7.115773e+01   6.695071e+00
  -6.441036e+01   6.406775e+01
  -1.276554e+02  -5.788388e+01
  -1.262834e+02  -9.182961e+01
   6.578561e+01  -1.528962e+02
   1.792179e+02  -5.835826e+01
   1.484867e+02   6.937163e+01
   2.163233e+01   9.773457e+01
  -3.127895e+01   8.549194e+01
  -4.241772e+01  -2.892044e+01
   2.778449e+01  -6.064092e+01
   9.277694e+01   4.780288e+01
   6.603287e+01   1.280562e+02
  -9.861469e+01   1.707269e+02
  -1.723289e+02   8.665608e+01
  -8.381024e+01  -7.323639e+01
  -2.447222e+01  -2.160295e+02
   5.776493e+01  -1.214560e+02
   1.133121e+02  -4.531403e+01
   4.098829e+01   6.498028e+01
  -5.823460e+00   1.139445e+02
  -1.083194e+02   4.206096e+01
  -9.351152e+01  -1.897165e+01
   3.122870e+01  -6.280627e+00
  -2.552707e+01   2.026676e+01
  -3.495297e+01   9.018899e+00
  -7.102193e+01  -8.093005e+01
  -9.454067e+00  -1.163416e+02
   6.171502e+01  -3.674321e+01
   1.551848e+02   3.565206e+01
   1.257952e+02   6.451745e+01
   3.562717e+00   4.535132e+01
  -8.343060e+01   1.582305e+01
  -5.678323e+01   2.319881e+01
   2.464836e+01  -1.404990e+01
   2.500346e+01   3.108957e+01
  -1.136988e+01   1.085108e+00
  -1.807344e+01   4.769302e+00
  -2.502575e+01   4.653972e+01
   6.437305e+01  -5.396608e+00
   7.252420e+01   2.072094e+01
   3.521354e+01   1.149941e+02
  -9.397685e+01   9.130569e+01
  -1.359650e+02   8.614416e+01
  -1.272357e+02  -4.719947e+01
  -8.906479e+01  -1.530973e+02
   8.176250e+01  -1.786982e+02
   1.139969e+02  -9.088494e+01
   8.409486e+01  -5.271222e+00
   4.926507e+01   9.138285e+01
  -2.288671e+01  -9.584703e+00
   1.567935e+01  -7.121797e+00
   3.667068e+01   4.947162e+01
   3.180649e+01   5.937499e+01
  -1.304162e+01   4.100966e+01
  -5.224524e+01   5.837539e+01
  -5.564548e+01  -9.388032e+01
  -4.546642e+01  -7.989676e+01
   8.608337e+01  -4.760263e+01
   1.161621e+02   7.670371e+01
   6.325696e+01   1.053370e+02
  -3.652526e+01   6.782543e+01
  -9.284639e+01  -1.417974e+01
  -5.375967e+01  -7.336368e+01
  -4.232407e+00  -5.801260e+01
   6.103930e+01  -3.422566e+01
   4.093583e-01   1.112170e+01
  -7.858550e+01   1.740045e+01
   2.856135e+01  -2.174777e+01
   6.243914e+01  -6.643379e+01
   8.070847e+01  -8.779602e+01
   8.459056e+01   9.429191e+00
   6.472267e+00   1.225830e+02
  -4.644269e+01   1.143066e+02
  -3.599391e+01   1.168470e+01
  -4.541985e+01  -3.391690e+01
   1.008719e+01  -5.300864e+01
   2.486301e+01   8.168596e+00
   4.483876e+01   4.958387e+01
   3.227262e+00   7.397419e+01
  -9.006375e+01  -4.953369e+01
  -7.976571e+01  -3.503258e+01
  -3.971238e+01   6.291583e+00
   8.480654e-01  -1.285097e+01
  -1.077488e+01   1.615009e+01
   6.146548e+01  -4.798196e+01
  -7.205723e+00  -8.295474e+01
   1.205075e+01  -2.323967e+01
   2.783881e+01   2.367825e+01
   2.491561e+00   3.546330e+01
  -2.477669e+00  -2.126967e+00
  -4.263621e+01  -6.417506e+01
  -3.519551e+01  -4.390605e+01
   4.756882e+01  -4.399024e+01
   7.448726e+01   5.633909e+01
   3.442777e+01   7.239646e+01
  -2.541815e+01   3.731425e+01
  -9.636694e+01   1.856823e+01
  -3.973417e+01  -1.432912e+01
   2.862466e+01  -1.866340e+01
   2.603530e+01   3.653157e+00
  -1.629355e+01   1.850485e+01
  -7.321084e+01   3.079504e+01
