
 $NMID
 id='ANONYMOUS ', fmtdat='(2E16.6)'
 volume=1.0
 tramp=1.0
 $END
  -2.513614e+03   6.308714e+01
  -1.836972e+03  -9.968182e+02
  -1.363142e+02  -1.385511e+03
   7.392174e+02  -1.284463e+03
   8.710213e+02  -5.612216e+02
   2.512261e+02   1.507454e+01
  -1.347715e+02   7.801146e+01
  -1.160658e+02  -3.535050e+02
   2.455321e+02  -4.812797e+02
   4.743920e+02  -2.104065e+02
   4.244974e+02   3.736031e+02
   7.529830e+01   5.355620e+02
  -1.866267e+02   1.477713e+02
  -2.076600e+02  -2.383273e+02
  -3.275271e+01  -4.635299e+02
   2.937639e+02  -1.070042e+02
   3.120274e+02   3.696685e+02
  -6.658034e+00   5.295384e+02
  -3.920022e+02   3.764159e+02
  -3.686030e+02  -5.008456e+01
  -1.667031e+02  -2.973841e+02
   6.891723e+01  -2.307368e+02
   7.171270e+01  -4.815988e+01
  -1.818891e+02  -7.131467e+01
  -2.090270e+02  -2.656525e+02
  -3.614500e+01  -2.784438e+02
   3.323690e+02  -1.798913e+02
   4.983606e+02   1.454398e+02
   1.438258e+02   2.360881e+02
  -2.339074e+02   1.899268e+02
  -3.545035e+02  -1.177290e+02
  -1.473457e+02  -2.923932e+02
   2.020464e+02  -2.873712e+02
   3.304241e+02  -1.881805e+02
   2.186547e+02   1.237450e+02
   4.589571e+01   2.013771e+02
   1.616005e+01   8.078566e+01
   8.607955e+01  -1.471201e+01
   1.371010e+02  -8.422866e+01
   9.131660e+01   1.574781e+02
   4.393052e+00   3.674312e+02
  -2.050410e+02   2.952661e+02
  -2.157627e+02  -2.897705e+01
  -4.526296e+01  -2.356122e+02
   1.429219e+02  -1.182268e+02
   1.106771e+02   2.025155e+02
  -1.077399e+02   3.363712e+02
  -3.390891e+02   1.107015e+02
  -3.159868e+02  -2.195734e+02
  -1.249201e+02  -3.909411e+02
   2.291289e+02  -2.351457e+02
   3.935481e+02   5.162023e+01
   3.426202e+02   1.978416e+02
   2.293732e+01   1.290128e+02
  -2.057332e+02   6.432948e+01
  -1.977452e+02   3.532868e+01
  -4.771274e+01  -3.896655e+01
   3.064739e+01  -2.280755e+01
  -2.433035e+01  -2.540624e+01
  -1.353628e+02  -4.708496e+01
  -1.282114e+02  -1.069613e+02
   1.143644e+02  -2.554350e+02
   2.664995e+02  -1.606689e+02
   2.883925e+02   7.378452e+01
  -2.154692e+01   2.821730e+02
  -2.063657e+02   4.032140e+02
  -3.060023e+02   1.092989e+02
  -2.224835e+02  -1.902239e+02
  -1.919069e+01  -2.841227e+02
   3.344242e+01  -2.812171e+02
  -6.236176e+01  -1.847154e+02
   2.259807e+01  -1.295002e+02
   1.268838e+02  -9.930940e+01
   2.338518e+02  -4.253717e+01
   3.043531e+02   1.230361e+02
   8.672508e+01   1.984295e+02
  -5.414194e+01   1.160479e+02
  -1.568622e+02  -7.016376e+01
  -6.668395e+01  -2.301104e+02
   3.083533e+01  -2.574617e+02
   2.134502e+02  -5.154537e+01
   2.732440e+02   1.072670e+02
   1.657757e+02   1.866355e+02
   2.531254e+01   2.303027e+02
  -1.016517e+02   1.278075e+02
  -1.185664e+02   1.031786e+02
  -1.607836e+02   3.359378e+01
  -2.707389e+02   5.707406e+01
  -3.524619e+02  -9.968239e+01
  -3.088958e+02  -2.550739e+02
   2.782893e+01  -3.360062e+02
   3.004318e+02  -2.937368e+02
   4.097280e+02  -1.069858e+02
   2.630739e+02   6.592074e+01
  -3.418482e+00   2.160309e+02
  -9.962953e+01   1.870673e+02
   1.886088e+01   5.564506e+01
   1.426808e+02  -3.173245e+01
   6.540520e+01   2.841690e+01
  -4.143829e+01   9.777324e+01
  -6.272524e+01   6.680117e+01
  -6.149639e+01  -1.476350e+01
   2.523455e+01  -1.128743e+02
   1.516635e+02  -2.704028e+01
   1.616020e+02   2.500061e+02
   1.189553e+01   2.976479e+02
  -2.210462e+02   1.821697e+02
  -3.897715e+02  -4.667596e+01
  -2.356179e+02  -2.042377e+02
  -2.595559e+01  -2.473082e+02
   1.069827e+02  -1.039982e+02
   1.143137e+02  -6.604517e+00
   1.722386e+01  -1.042357e+01
  -2.732695e+01  -5.205550e+01
  -3.380386e+01  -8.825262e+01
   7.880104e+01  -1.066943e+02
   1.681221e+02  -1.253410e+01
   4.599634e+01   7.019824e+01
  -4.262819e+01  -9.172955e+00
  -6.440433e+01  -5.073552e+01
   1.330692e+02  -9.733133e+01
   2.962497e+02   2.972443e+01
   1.962642e+02   1.539061e+02
   2.515693e+01   2.605328e+02
  -2.106845e+02   1.649187e+02
  -1.795982e+02   7.594221e+01
  -9.629779e+01  -3.128648e+01
   3.364428e+01  -2.319298e+01
   1.652622e+01  -2.137842e+01
  -6.268218e+01   7.245863e+01
  -1.332575e+02   1.348245e+00
  -1.543301e+02  -9.755437e+01
  -2.636862e+01  -1.333999e+02
   9.420282e+01  -1.333036e+02
   8.335147e+01  -2.514664e+01
   3.758032e+01   6.025324e+01
  -7.005121e+01  -6.067259e+01
  -1.345239e+01  -9.235724e+01
   6.793869e+01  -1.247135e+02
   1.774120e+02  -4.683501e+01
   1.679095e+02   1.738106e+02
  -3.341392e+00   1.486829e+02
  -1.373439e+02   1.437756e+02
  -1.358155e+02   2.486304e+01
  -6.240262e+01  -1.099216e+02
   4.877212e+01  -5.741194e+01
   1.721747e+01  -2.631226e+01
  -3.503881e+01   6.856603e+01
  -3.402793e+01   2.580541e+00
   1.073412e+00  -2.143393e+01
   7.265156e+01  -4.456998e+01
   1.119348e+02   7.624490e+01
   1.481374e+01   1.678441e+02
  -8.945607e+01   1.316144e+02
  -2.283805e+02   7.080217e+01
  -2.325991e+02  -1.560856e+02
  -3.622303e+01  -1.912906e+02
   6.715120e+01  -1.715252e+02
   1.052087e+02  -3.844303e+01
   4.779801e+01   2.909345e+01
   5.533174e+01   3.057835e-01
   3.017746e+01   1.578879e+01
   8.697126e+01   5.337027e+01
   6.125476e+01   6.807021e+01
  -4.570421e+01   9.283393e+01
  -8.960529e+01   6.299347e+01
  -8.113375e+01  -3.773780e+01
  -2.304487e+01  -1.221705e+02
   9.554268e+01  -7.367415e+01
   2.047970e+02   9.245266e+01
   1.197056e+02   1.933849e+02
  -6.258110e+01   1.628191e+02
  -2.172332e+02   7.504722e+01
  -2.014916e+02  -4.711986e+01
  -1.065134e+02  -1.434154e+02
   2.221508e+01  -8.493800e+01
   3.935140e+01  -6.754795e+01
   9.233173e+01  -1.051261e+02
   7.516220e+01  -9.749448e+01
   5.184881e+01  -7.113576e+01
   1.231233e+02   2.914950e+01
   1.413792e+02   8.245395e+01
   3.191348e+01   1.900358e+02
  -7.748988e+01   1.492226e+02
  -1.656138e+02   4.363212e+01
  -1.305054e+02  -1.336454e+02
  -3.611195e+01  -1.349609e+02
   8.477921e+01  -7.630542e+01
   4.253049e+01   3.245886e+01
  -3.486224e+01   8.172669e+01
   7.964507e+00   6.521318e+01
   2.948430e+01   1.101365e+01
   1.112829e+02   5.003569e+01
   2.503577e+01   4.474218e+01
  -1.019974e+02   2.071650e+01
  -1.782479e+02  -2.552885e-01
  -1.355260e+02  -8.731218e+01
   1.157292e+00  -1.020667e+02
   1.758795e+02  -5.121392e+01
   8.827640e+01  -2.191245e+01
   2.424328e+01   1.019393e+02
  -4.321005e+01   5.398852e+01
  -4.175091e+01  -1.441887e+01
  -1.480039e+01  -4.667460e+01
  -6.284081e+00  -3.560962e+01
   6.079222e+01  -3.329815e+01
   6.156187e+01   6.998754e+01
   4.174730e+01   1.727205e+01
   4.949628e+01  -3.002498e+01
   6.157601e+01   1.003010e+01
   7.674576e+01   5.109442e+01
   4.006386e+00   1.392601e+02
  -1.008683e+02   1.328293e+02
  -2.102821e+02   2.366224e+01
  -7.968308e+01  -5.515386e+01
  -5.732068e+00  -7.808908e+01
   1.464311e+02  -6.702815e+01
   5.543829e+01  -2.091951e+01
  -4.754638e+01   2.764638e+01
  -1.078922e+02  -2.132685e+01
  -3.443627e+01  -9.989043e+01
   4.253950e+01  -1.235961e+02
   1.394433e+02  -2.355701e+01
   1.020112e+02   3.907226e+01
   1.517329e+01   3.276522e+01
  -7.910896e+01   1.374649e+01
  -4.742467e+01  -3.256008e+01
   2.685699e+01  -3.052857e+01
   5.582815e+01   9.684319e-01
   4.849411e+01   8.929818e+01
  -3.364711e+01   1.376536e+02
  -1.206139e+02   5.382839e+01
  -8.532241e+01  -8.382352e+01
  -2.883695e+01  -1.662732e+02
   8.152489e+01  -1.198136e+02
   8.047176e+01   1.030540e+01
   2.674359e+01   1.056742e+02
  -1.652319e+01   1.157870e+02
  -1.332343e+01   6.352461e+01
   2.868953e+00  -5.523410e+01
   1.394599e+01  -3.356663e+01
   3.932570e+00   7.967333e+00
  -2.006482e+01  -2.724333e+01
  -7.230969e+01  -5.435907e+01
   1.119735e+00  -7.944929e+01
   4.005079e+01  -3.986572e+01
   9.750486e+01   2.172371e+01
   1.057066e+02   6.175610e+01
   3.342004e+01   4.978362e+01
  -8.304354e+01   1.241702e+01
  -7.682849e+01   4.814005e+01
   2.961970e+01  -6.138598e+01
   2.156851e+01  -2.405236e+01
  -2.097961e+01  -1.671050e+01
  -7.988913e+00   3.926755e+00
  -2.742556e+01  -2.674412e+01
   9.937988e+01  -2.387202e+00
   8.333799e+01   2.188493e+01
   1.781341e+01   2.932621e+01
  -8.475787e+01   1.013225e+02
  -1.836217e+02   6.154037e+01
  -1.359549e+02  -7.216585e+01
  -7.801384e+00  -1.548653e+02
   6.202106e+01  -1.519888e+02
   1.329108e+02  -6.863497e+01
   4.606614e+01  -1.018741e+01
   5.341217e+00   2.082653e+01
   1.517963e+01   2.205959e+01
  -2.796704e+00   4.975390e+01
   4.153926e+01   7.024880e+01
  -4.738155e+01   7.222534e+01
  -5.564726e+01   5.109288e+01
  -5.256740e+01  -2.819348e+00
  -5.550230e+01  -7.670517e+01
  -3.461541e+01  -8.713925e+01
   4.383411e+01  -7.147326e+01
   6.755707e+01   3.838541e+01
   4.225580e+01   9.558871e+01
  -5.532823e+01   5.648409e+01
  -1.027788e+02   1.011804e+01
  -4.338387e+01  -4.757104e+01
   3.797557e+01  -6.825180e+01
   5.191875e+01  -3.247788e+01
  -5.747789e+00   1.434082e+01
  -5.413934e+01   3.844847e+01
  -3.535369e+01  -1.697141e+01
   8.798547e+01  -2.347460e+01
   8.685114e+01  -4.856282e+01
   3.220896e+01   2.285502e+01
  -4.097139e+01   5.230520e+01
  -7.564233e+01   5.167080e+01
  -2.356181e+01   4.436792e+00
   9.164467e+00  -1.255533e+01
   1.532521e+01  -5.301228e+01
   2.339465e+01   1.480692e+01
   3.151567e+01   2.766595e+01
  -2.010042e+01  -4.309731e+00
  -2.752041e+01   2.544828e+01
  -4.617078e+01  -1.793014e+01
  -3.033973e+01   1.314418e+01
  -1.676176e+01   1.820483e+01
   2.425711e+01   4.323384e+01
  -1.368410e+01  -3.268486e+01
  -2.618789e-01  -4.143440e+01
   1.002247e+01  -3.369678e+01
   4.586548e+01   2.614299e+01
   1.998376e+01   6.960718e+01
  -4.077508e+01   4.309720e+01
  -5.024118e+01  -1.289585e+01
  -1.241519e+01  -6.939134e+01
   4.298688e+01  -4.461078e+01
   5.596803e+01   5.032595e+00
   2.438392e+01   5.691304e+01
  -7.967084e+00   7.044918e+01
  -9.259635e+01   6.856613e+01
  -2.434062e+01  -1.642860e+01
   8.152010e+00  -2.029952e+01
   1.432312e+01  -5.030435e+00
  -1.523080e+01   1.639406e+01
  -5.916581e+01   3.631525e+01
