
 $NMID
 id='ANONYMOUS ', fmtdat='(2E16.6)'
 volume=1.0
 tramp=1.0
 $END
  -2.002495e+03   2.313135e+02
  -1.430585e+03  -8.981304e+02
  -5.038876e+01  -1.725756e+03
   9.150754e+02  -1.269503e+03
   8.559605e+02  -4.173344e+02
   2.930978e+02   1.541709e+02
  -2.216610e+02   3.472744e+01
  -1.538574e+02  -3.617377e+02
   3.013497e+02  -4.543087e+02
   4.512310e+02  -1.613012e+02
   3.720923e+02   3.164625e+02
   9.118231e+01   4.580126e+02
  -1.677371e+02   2.128816e+02
  -1.834428e+02  -2.204849e+02
  -5.117135e+00  -4.270492e+02
   3.185168e+02  -1.513418e+02
   2.805582e+02   3.856144e+02
  -7.518692e+01   6.091068e+02
  -4.221887e+02   2.748830e+02
  -3.833948e+02  -1.287685e+02
  -1.559434e+02  -3.250917e+02
   2.599489e+01  -2.011054e+02
   3.338793e+01  -8.453735e+01
  -1.796692e+02  -1.462767e+02
  -1.859511e+02  -2.684001e+02
   9.308396e+01  -2.861229e+02
   3.494066e+02  -9.076744e+01
   3.579385e+02   9.859200e+01
   8.413751e+01   2.123953e+02
  -2.211165e+02   9.813395e+01
  -2.738742e+02  -1.523830e+02
  -8.131978e+01  -1.874777e+02
   2.372347e+02  -2.477765e+02
   3.696743e+02  -8.071354e+01
   2.444356e+02   1.180211e+02
   1.149278e+02   2.926501e+02
   3.510728e+01   1.147771e+02
   6.530809e+01  -2.470630e+00
   9.268807e+01  -4.573413e+01
   7.977282e+01   1.291358e+02
   8.637528e+00   3.186912e+02
  -1.785644e+02   3.099467e+02
  -1.692764e+02   1.566603e+01
  -7.606103e+01  -1.780173e+02
   7.148652e+01  -7.009579e+01
   9.543810e+01   2.264666e+02
  -8.589674e+01   3.198266e+02
  -3.157391e+02   4.005271e+01
  -3.803011e+02  -2.361702e+02
  -1.511046e+02  -4.102405e+02
   2.166891e+02  -2.753969e+02
   3.945077e+02   5.692931e+01
   2.784684e+02   2.004438e+02
   1.100763e+01   1.610778e+02
  -1.354250e+02   8.687571e+01
  -1.432165e+02   1.221194e+01
  -7.266676e+01   2.753165e+01
   3.314707e+01  -3.824845e+00
  -6.859525e+01   5.743576e+00
  -1.959298e+02  -4.684199e+01
  -1.129208e+02  -1.199467e+02
   9.871286e+01  -2.376180e+02
   2.709565e+02  -1.152665e+02
   2.332320e+02   9.892843e+01
  -4.021123e+01   3.145136e+02
  -2.858184e+02   3.252214e+02
  -3.064020e+02   1.197817e+02
  -1.782828e+02  -1.074364e+02
  -4.626121e+01  -2.716446e+02
   6.010112e+01  -2.655984e+02
   1.113056e+01  -1.868800e+02
   7.220289e+01  -1.127112e+02
   1.190345e+02  -1.062476e+02
   1.779158e+02   2.672743e+00
   2.107505e+02   1.390061e+02
   2.113478e+01   2.016684e+02
  -5.228679e+01   1.443066e+02
  -1.254227e+02  -4.837439e+01
  -1.012563e+02  -1.525487e+02
   1.205333e+01  -2.000754e+02
   1.362654e+02  -9.023991e+01
   1.944150e+02   1.224133e+02
   1.654823e+02   1.897540e+02
  -2.950359e+01   2.075247e+02
  -1.693285e+02   1.499005e+02
  -1.110546e+02   6.964885e+01
  -1.611803e+02   1.275145e+02
  -2.226547e+02   4.224045e+00
  -2.999423e+02  -8.356035e+01
  -3.403429e+02  -1.879173e+02
   3.223957e+01  -3.922599e+02
   3.256092e+02  -3.774448e+02
   3.798277e+02  -1.035892e+02
   2.303536e+02   7.760485e+01
  -2.759934e+01   2.153142e+02
  -5.579675e+01   1.507410e+02
  -1.410021e+01   5.075789e+01
   8.930530e+01  -2.602513e+01
   4.671306e+01   3.502355e+01
   3.590421e+01   8.900114e+01
  -8.164194e+01   3.547611e+01
  -9.359548e+01  -1.658893e+01
   7.082070e+01   2.422684e+00
   1.115062e+02   1.874392e+01
   1.120993e+02   1.752079e+02
  -9.960078e+00   2.373607e+02
  -1.795556e+02   1.495813e+02
  -2.916057e+02  -7.082858e+01
  -2.399761e+02  -2.185187e+02
  -5.833482e+01  -2.380683e+02
   1.100746e+02  -1.125984e+02
   8.075371e+01  -8.763325e+00
   6.032654e+01  -1.246200e+00
  -2.717380e+01  -3.681667e+01
   1.611942e+01  -7.738143e+01
   4.678978e+01  -4.664540e+01
   9.161443e+01   2.359630e+01
   4.072627e+01   5.244879e+01
  -2.454677e+01  -2.911209e+01
  -3.387078e+01  -7.206262e+01
   1.490656e+02  -6.403282e+01
   2.598680e+02   1.918228e+01
   1.844517e+02   1.310213e+02
   4.043852e+01   2.188727e+02
  -1.529074e+02   1.424427e+02
  -1.737600e+02  -1.385154e+01
  -1.066243e+02  -5.159383e+01
   1.736122e+01  -9.998881e+00
   4.230961e+01  -5.903111e+00
  -5.243190e+01   7.162012e+01
  -1.045174e+02  -7.142416e+00
  -1.554305e+02  -8.607028e+01
  -5.318254e+01  -1.227021e+02
   1.709492e+01  -1.047713e+02
   1.303100e+02  -2.042701e+01
   3.989036e+01   4.630102e+01
  -1.228324e+01   2.686928e+00
  -6.719375e+00  -9.714575e+01
   4.550567e+01  -1.039695e+02
   1.779761e+02   2.742201e+01
   1.899195e+02   1.362594e+02
   1.854293e+01   1.933155e+02
  -1.466390e+02   1.222924e+02
  -1.609417e+02  -1.185550e+01
  -3.289251e+01  -9.289592e+01
   6.758468e+01  -4.938952e+01
   4.335570e+01   1.320505e+01
  -2.176345e+01   5.347608e+01
  -3.103467e+01  -4.897142e+01
   7.487403e-01  -3.622615e+01
   1.231244e+02  -2.361690e+01
   1.079845e+02   8.427986e+01
  -1.112774e+00   1.379046e+02
  -1.434126e+02   1.130740e+02
  -2.017059e+02   1.024949e+00
  -1.431747e+02  -1.428350e+02
  -3.156822e+01  -1.852120e+02
   7.556178e+01  -1.165843e+02
   9.193375e+01  -1.117626e+01
   5.463639e+01   8.665629e+01
   5.582436e+01   1.967670e+01
   2.011935e+01   1.894133e+01
   8.528021e+01  -3.757736e+01
   4.350173e+01   3.562072e+01
  -7.174620e+01   1.011752e+02
  -8.840453e+01   7.844329e+01
  -1.210170e+02  -5.407656e+01
  -8.324803e+00  -9.991908e+01
   1.480356e+02  -5.653056e+01
   1.951798e+02   4.276784e+01
   9.277678e+01   1.780462e+02
  -1.529019e+02   1.497853e+02
  -2.471510e+02   3.573962e+01
  -2.208093e+02  -8.486454e+01
  -1.190926e+02  -1.643828e+02
   4.690626e+01  -1.200759e+02
   5.447947e+01  -9.020647e+01
   4.940542e+01  -8.926688e+01
   4.410310e+01  -5.342274e+01
   7.259529e+01  -8.121182e+01
   8.103036e+01   1.205144e+01
   1.039874e+02   9.206416e+01
   3.952091e+01   1.730995e+02
  -9.401838e+01   1.239358e+02
  -1.550122e+02   2.885228e+01
  -1.059818e+02  -1.163514e+02
   2.655877e+01  -1.259221e+02
   3.904492e+01  -5.854282e+01
   6.858056e+01   4.769614e+01
  -1.007247e+01   3.387964e+01
  -2.027898e+01   2.750419e+01
   4.481296e+01   2.869750e+01
   4.634730e+01   2.154804e+01
   5.964303e+01   7.241747e+01
  -9.458701e+01   3.301840e+01
  -2.095667e+02  -4.125871e+00
  -8.336360e+01  -4.852496e+01
   4.195767e+01  -1.404246e+02
   1.136343e+02  -9.789996e+01
   1.368389e+02   6.660929e+00
   1.240897e+01   6.115669e+01
  -2.363317e+01   1.986828e+01
  -5.593237e+01  -1.845006e+01
   7.087390e+00  -6.958256e+01
   2.622817e+01  -8.076749e+01
   5.607111e+01   1.818750e+01
   4.743058e+01   1.835823e+01
   5.049864e+01   7.086782e+01
   2.342413e+01   1.330296e+01
   3.048485e+01   4.243016e+01
   1.585518e+01   6.579972e+01
  -5.649548e+01   1.238952e+02
  -1.389746e+02   6.400780e+01
  -1.342150e+02   2.612596e+01
  -7.768298e+01  -8.046667e+01
   5.244950e+01  -9.780515e+01
   5.036748e+01  -5.402143e+01
   2.213313e+01  -4.668614e+00
  -4.148460e+01   8.039790e+00
  -1.157628e+02  -6.470537e+01
  -1.624591e+01  -7.498516e+01
   9.045135e+01  -7.410600e+01
   1.169851e+02  -5.977496e+01
   1.398504e+02   1.086169e+01
   5.988930e+01   3.778981e+01
  -2.816372e+01   8.056285e+01
  -1.891107e+01  -2.188314e+01
   4.631021e+01  -6.621730e+00
   9.343498e+01  -2.179944e+01
   4.308363e+01   9.781330e+01
  -4.208765e+01   1.093495e+02
  -1.714923e+02   5.986949e+01
  -1.394158e+02  -8.132541e+01
   1.180040e+01  -1.364376e+02
   1.312089e+02  -9.018305e+01
   8.848075e+01   2.058444e+01
   2.758617e+01   7.275605e+01
  -4.055733e+01   1.215381e+02
  -5.932419e+01   2.161417e+01
  -3.671867e+01  -1.144630e+01
  -5.216445e+01  -2.052521e+01
  -2.966714e+00   6.015785e+00
  -1.057201e+02  -6.207008e+01
  -7.832675e+01  -9.846566e+01
  -9.670789e+00  -9.343889e+01
   3.377919e+01  -6.820108e+01
   1.275959e+02   4.715184e+01
   1.182934e+02   1.798798e+01
  -2.281720e+01   1.198888e+01
  -5.525993e+01   3.622631e+01
  -7.169598e+01   9.259034e+00
  -3.993336e+01  -2.794567e+01
   4.463939e+01  -2.433045e+01
  -3.035517e+01  -2.990425e+01
  -1.854338e+01  -3.037983e+01
   2.045627e+00  -1.367571e+01
   3.328344e+01  -1.934636e+01
   6.915791e+01   4.354263e+01
   1.580464e+01   9.840467e+01
  -5.688723e+01   1.155316e+02
  -1.550445e+02   6.190591e+01
  -1.218104e+02  -5.777619e+01
  -2.400153e+01  -1.378501e+02
   3.749958e+01  -1.180636e+02
   8.732984e+01  -8.644201e+01
   4.461660e+01   2.225665e+01
   3.171044e+01   3.476505e+01
   8.275762e+00  -2.342481e+01
   4.157004e+01  -1.719653e+01
   1.992115e+01   1.130749e+01
   1.210841e+01   9.195910e+01
  -2.465524e+01   6.400742e+01
  -4.819402e+01  -2.925661e+01
  -6.835998e+01  -6.255922e+01
  -1.922413e+01  -8.572484e+01
   7.904015e+01  -3.449346e+01
   7.788593e+01   5.800657e+01
   1.907775e+01   1.120139e+02
  -2.368816e+01   6.285581e+01
  -1.067121e+02  -2.687765e+00
  -3.289585e+01  -5.978848e+01
   4.138629e+01  -7.542644e+01
   5.922549e+01  -4.407302e+01
   4.574643e+00   4.839584e+01
  -6.153076e+01   5.359775e+01
  -2.617859e-02  -2.686206e+01
   6.280078e+01  -7.422722e+01
   7.114078e+01  -7.623195e+01
   4.295704e+01   2.022714e+00
  -2.810059e+01   4.525470e+01
  -2.867853e+01   6.354201e+01
  -2.626435e+01   4.157738e+01
  -2.892948e+00  -4.361695e+01
   3.537288e+01  -4.729510e+01
  -1.286331e+00   4.769951e+01
   1.971634e+01   7.732327e+01
  -3.283219e+01   4.547550e+01
   1.886091e+00  -2.344773e+00
  -1.742478e+01  -3.641164e+01
  -9.518565e-02   7.176729e+00
   4.859679e+00   5.143672e+01
  -2.473153e+01   2.077131e+01
  -1.708620e+01  -3.541879e+01
  -2.839480e+01  -2.244329e+01
   3.708025e+01  -3.789968e+01
   6.503434e+01   4.177456e+01
   3.288553e+01   6.196412e+01
  -1.927911e+01  -1.068732e+00
  -3.887011e+01  -2.040276e+01
   1.625196e-01  -4.646697e+01
   1.862374e+01  -3.922310e+01
   1.242199e+02   3.308803e+01
   9.205636e+00   5.120938e+01
   2.320985e+01   1.915578e+01
  -3.604036e+01   3.116011e+01
  -6.510004e+00  -5.756218e-01
   2.619906e+01  -1.125180e+01
   9.088303e+00   3.978121e+01
   2.380300e+01  -1.334781e+00
  -2.314743e+01   1.981220e+01
