
 $NMID
 id='ANONYMOUS ', fmtdat='(2E16.6)'
 volume=1.0
 tramp=1.0
 $END
  -1.072970e+03   4.395374e+02
  -8.061008e+02  -5.562092e+02
  -2.950212e+02  -8.205755e+02
   4.487425e+02  -7.094723e+02
   4.010621e+02  -9.897707e+01
   1.720265e+02   6.962021e+01
  -1.874351e+02   7.790897e+01
  -1.166097e+02  -1.651822e+02
   1.525785e+02  -2.572167e+02
   2.745856e+02  -1.584690e+02
   2.752379e+02   1.263388e+02
   7.709601e+01   2.679842e+02
  -1.206863e+02   1.468907e+02
  -1.802332e+02  -1.259811e+02
   3.830056e+01  -2.330593e+02
   1.378063e+02  -1.283441e+02
   1.781108e+02   1.684319e+02
  -1.198040e+01   2.744223e+02
  -1.910550e+02   1.831329e+02
  -1.987227e+02  -6.460273e+01
  -9.539813e+01  -1.456291e+02
  -3.489331e+00  -1.091129e+02
   1.760334e+01  -8.315959e+01
  -9.865950e+01  -3.390192e+01
  -1.315197e+02  -1.492699e+02
   1.274741e+01  -1.880053e+02
   1.818903e+02  -8.958741e+01
   2.385075e+02   4.470299e+01
   1.140527e+02   9.921471e+01
  -5.184617e+01   1.126286e+02
  -1.782921e+02  -1.684418e+01
  -7.637822e+01  -1.640459e+02
   8.554433e+01  -1.703259e+02
   2.084081e+02  -9.648888e+01
   2.192080e+02   7.466131e+01
   9.938957e+01   1.473674e+02
   2.881365e+00   1.243889e+02
   1.422575e+01  -2.341741e+01
   2.595051e+01  -8.797357e+01
   5.380012e+01   9.323815e+01
   4.812764e+01   2.062944e+02
  -9.092950e+01   2.420261e+02
  -1.604290e+02  -1.157207e-01
  -8.284323e+01  -7.774948e+01
   4.352282e+01  -7.618730e+01
   6.344728e+01   1.022587e+02
   4.632466e+00   1.460827e+02
  -1.461873e+02   4.687837e+01
  -1.884109e+02  -9.885923e+01
  -1.253715e+02  -1.801434e+02
   5.006798e+01  -1.206100e+02
   2.114718e+02  -5.140217e+00
   2.357744e+02   8.966255e+01
  -2.940933e+01   9.004346e+01
  -1.091631e+02   9.395344e+01
  -1.030630e+02   5.838652e+00
  -7.879252e+01  -3.910641e+01
   6.163940e+01  -6.512514e-01
  -4.658979e+01   1.053824e+01
  -1.064874e+02   4.259525e+00
  -8.599358e+01  -4.797125e+01
   3.006158e+01  -9.691870e+01
   1.726352e+02  -1.023660e+02
   9.047875e+01   2.724228e+01
   3.116900e+01   1.964833e+02
  -1.451870e+02   1.568896e+02
  -1.264558e+02   6.805248e+01
  -1.397177e+02  -3.159908e+01
  -5.387302e+01  -1.368229e+02
  -3.329310e+01  -1.969310e+02
   3.941680e+01  -1.514225e+02
   5.242521e+01  -4.888435e+01
   1.940645e+01  -5.100381e+01
   1.058188e+02   1.710268e+01
   1.253598e+02   6.404888e+01
   6.086739e+01   1.315929e+02
   2.361937e+01   9.534642e+01
  -2.220470e+01  -4.018492e+00
  -6.972984e+01  -6.598051e+01
   3.383476e+01  -1.057983e+02
   1.030261e+02  -6.961153e+01
   1.437207e+02   8.161052e+01
   1.384760e+02   1.131147e+02
   4.076421e+01   1.465316e+02
  -9.954366e+01   1.228472e+02
  -8.701552e+01   2.311852e+01
  -7.988341e+01   6.468109e+01
  -9.422331e+01   5.625069e+01
  -1.870933e+02   2.350152e+00
  -1.642717e+02  -1.191608e+02
  -7.129021e+00  -1.767280e+02
   1.633578e+02  -1.981566e+02
   2.298069e+02  -1.421516e+02
   1.440012e+02   3.887908e+01
   2.669594e+01   5.666491e+01
  -4.305289e+01   1.223303e+02
   3.079713e+01   3.997405e+01
   6.876934e+01  -9.024200e+00
  -1.036063e+01  -6.580969e+00
   2.636783e+01   4.312525e+01
  -4.334161e+01   6.843585e+00
  -4.447599e+01   7.882989e+00
  -1.712871e+01  -1.624444e+01
   3.488614e+01  -1.311434e+01
   9.503895e+01   7.008273e+01
   1.019558e+01   1.181816e+02
  -6.672214e+01   9.920974e+01
  -1.857747e+02  -2.457394e+00
  -1.682367e+02  -6.391286e+01
  -3.444995e+01  -1.798578e+02
   3.252681e+01  -8.073061e+01
   6.957184e+01  -2.601898e+01
   4.184187e+01  -1.780325e+01
   5.000690e+00   1.953091e+01
   8.463028e+00  -6.926839e+01
   1.389395e+01   2.433451e+01
   5.859507e+01  -1.760097e+01
   3.119787e+00  -8.444233e+00
  -5.091337e+00  -4.701059e+01
  -2.024626e+01  -2.031476e+01
   6.551038e+01  -2.602054e+01
   1.323237e+02   1.152671e+01
   8.151038e+01   7.834533e+01
   4.145394e+01   1.174083e+02
  -4.654273e+01   8.975088e+01
  -7.347655e+01   1.839855e+01
  -5.278533e+01   2.037064e+01
   3.136168e+01  -2.088824e+01
   2.136435e+01  -2.041566e+01
  -5.984540e+00   3.717482e+01
  -8.991508e+01   4.891106e+01
  -6.274925e+01  -5.471667e+01
  -4.670185e+01  -6.923996e+01
   3.653316e+01  -8.857044e+01
   5.008635e+01  -5.093568e+01
   1.701071e+01   2.678603e+00
  -2.060258e+01   3.442405e+00
  -1.596374e+01  -8.733255e+01
   8.423284e+01  -1.080921e+02
   1.111543e+02   8.359543e+00
   7.361662e+01   5.534605e+01
   8.336342e+00   9.901008e+01
  -3.234450e+01   5.908184e+01
  -6.916610e+01   2.818449e+01
   4.339516e-01  -6.512766e+00
   5.170866e+01  -1.029038e+02
   2.914060e+01  -2.837894e+01
   3.770901e+01   6.874808e+00
  -1.533071e+01  -6.275431e+00
   1.456337e+01  -2.954560e+01
  -1.579128e+01   1.801484e+00
   5.436629e+01   6.184807e+01
   9.604863e+00   8.677777e+01
  -7.371414e+01   5.742016e+01
  -6.850463e+01   4.014927e+01
  -5.514309e+01  -8.411688e+01
  -3.512627e+01  -5.488253e+01
   8.076139e+01  -1.277615e+02
   8.423782e+01  -7.174052e+01
   2.616564e+01   5.878994e+00
   1.726394e+01  -3.476140e+00
  -2.511485e+01  -1.758400e+01
   3.265693e+01  -1.582833e+00
   6.560462e+01   4.750031e+01
  -3.804061e+01   3.187461e+01
  -1.459590e+01   1.324196e+01
  -3.821778e+01  -3.159668e+01
   5.208842e+01  -9.163901e+01
   9.908201e+01  -2.754999e+01
   9.066729e+01   9.571840e+00
   2.410064e+01   6.128773e+01
  -3.721463e+01   1.511758e+02
  -9.527607e+01   3.824466e+01
  -1.446042e+02  -3.616774e+01
  -3.096439e+01  -4.808743e+01
   9.453961e+00  -7.136039e+01
   1.180890e+01  -2.595448e+01
   4.484699e+01  -4.053133e+01
   6.090537e+01  -8.964413e+00
   7.005917e+01  -6.563242e+01
   9.296927e+01  -1.476621e+01
   5.014500e+01   8.413351e+01
   3.770309e+01   9.790754e+01
  -1.976338e+01   6.501030e+01
  -6.020809e+01   1.232292e+01
  -1.740316e+01  -1.862663e+01
   1.999678e+01  -5.459986e+01
   4.151357e+01  -8.024203e+00
   2.377486e+01   2.778291e+01
  -8.613908e+00  -1.063338e+01
  -4.389466e+00   3.005511e+01
   9.076286e+00   1.733534e+01
   9.047134e+01   4.299846e+01
  -7.144180e+00  -2.930792e+00
  -4.647841e+01   1.319469e+01
  -8.585646e+01  -1.372423e+01
  -4.363145e+01  -4.266725e+01
  -8.601649e+00  -6.816422e+01
   7.050988e+01  -3.724432e+01
   3.271226e+01  -2.272702e-01
   2.840799e+01   4.903005e+01
   1.648964e+01  -3.184179e+01
  -4.613918e+01  -4.305623e+01
  -1.987577e+01   4.711038e+00
  -9.282133e+00  -4.168493e+01
   2.820150e+01   1.637531e+01
   7.127838e+01  -2.153160e+01
   5.186167e+01  -3.114806e+00
   2.569715e+01  -1.472965e+01
   5.319879e+01  -3.248349e+01
  -1.716086e+01   3.967704e+01
   7.190176e+00   4.788276e+01
  -6.343325e+01   3.252527e+01
  -7.391531e+01   4.555114e+01
  -7.975992e+01  -2.172207e+01
  -7.563786e+00  -6.967234e+01
   5.099790e+01  -3.496024e+01
  -2.216745e+00   5.970282e+00
   4.602747e-01   7.481554e+00
  -2.574491e+01   7.494347e+00
  -2.043640e+01  -4.538575e+00
  -1.784148e-01  -6.236862e+01
   1.007303e+02  -5.446780e+01
   1.032655e+02  -1.817731e+00
   1.848080e+01   7.430520e+01
  -2.045487e+01   1.571165e+01
  -6.026901e+01   2.812401e+00
   3.224492e+01  -4.332709e+01
   5.686739e+01  -1.311727e+01
   2.181303e+01   9.370708e+01
  -6.226885e+01   5.280146e+01
  -7.779918e+01   4.116895e+01
  -4.769751e+01  -4.057383e+01
  -3.167379e+01  -1.120244e+02
   3.158925e+01  -1.059292e+02
   5.882567e+01   1.422459e+01
   4.715939e+01   6.198054e+01
   3.777451e+01   1.784247e+01
   7.379461e+00   3.862915e+01
  -5.565331e+01   1.033837e+01
   6.726578e+00  -1.554554e+01
   1.612497e+01   1.923856e+01
  -3.338163e+01  -2.184752e+01
  -3.242004e+01  -7.167013e+01
  -1.128217e+00  -7.710043e+01
   2.089278e+01  -3.480485e+01
   6.720874e+01  -1.023003e+00
   8.319148e+01   4.923500e+01
   2.933571e+01   9.346739e+00
  -5.543870e+01   2.158197e+01
   3.578682e+01   1.240848e+01
  -4.024776e+01   8.756788e+00
  -2.557692e+01   1.477608e+01
   1.249085e+01  -2.057313e+01
  -6.393377e+01   2.729396e+01
  -2.244565e+01   8.308507e+00
   3.623164e+00  -2.052154e+01
   1.652045e+01   2.748319e+01
  -2.246037e+01   2.079634e+01
  -4.669534e+01   5.411989e+01
  -1.057815e+02   3.301450e+01
  -1.080709e+02  -3.521860e+01
  -3.836916e+01  -6.986340e+01
  -4.912726e+00  -1.144412e+02
   9.120023e+01  -4.442399e+01
   3.017756e+01  -3.228719e+00
  -4.315066e+00   2.295011e+01
  -3.927208e+00   4.331410e+01
   3.539966e+01   9.198993e+00
   2.671568e+01   2.119044e+01
   2.209177e+01   5.234018e+01
  -3.081398e+01  -5.351412e+00
  -1.757397e+01  -1.045129e+01
  -5.945914e+01  -5.641617e+01
  -1.804478e+01  -3.919497e+01
   4.151065e+01  -8.477949e+01
   5.447432e+01   1.200573e+00
   1.302542e+01   4.714519e+01
  -4.669552e+01   3.357584e+01
  -7.958627e+01  -5.534385e+00
  -7.004732e+01  -2.540631e+01
   1.864697e+01  -2.620308e+01
  -1.308108e+01  -1.858302e+01
  -3.121345e+01  -1.631127e+01
   2.304898e+00   2.031510e+01
  -9.710169e+00  -2.856875e+01
   4.448061e+01  -2.611122e+01
   5.758147e+01  -2.395642e+01
   1.699866e+00   1.128164e+01
   1.573538e+01   3.266699e+01
   1.326622e+01   5.049869e+01
   3.753372e+01   5.627173e+00
  -1.718794e+01  -6.379821e+00
   6.514227e+00  -3.158680e+01
  -3.375722e+01  -2.475775e+01
   3.006843e+01   5.198884e+01
   1.023062e+01   2.207943e+01
  -3.466747e+01   9.019005e+00
  -2.513030e+01  -1.886367e+01
   1.872979e+01  -2.350557e+01
  -4.243755e+00  -1.013318e+01
   2.014705e+01   9.957032e+00
  -2.568245e+01  -1.197583e+00
  -2.521175e+01  -1.049382e+01
   2.641675e+01  -4.799021e+01
   3.067002e+01  -4.021409e+00
   6.768914e+01   5.794980e+01
  -5.180435e-01   3.667785e+01
   8.837818e+00   2.035802e+01
  -2.830108e+01  -2.345254e+01
   2.257018e+01  -7.448994e+00
   2.704284e+01  -3.664450e+01
   4.651367e+01   4.092895e+01
   2.618584e+01   4.992936e+01
  -3.514868e+01   4.042262e+01
  -6.218706e+01   1.650948e+01
   1.479403e+01  -4.529862e+01
  -3.419961e+01   3.458872e-01
   1.643905e+00   1.838019e+01
  -3.185936e+00  -1.939009e+01
