
 $NMID
 id='ANONYMOUS ', fmtdat='(2E16.6)'
 volume=1.0
 tramp=1.0
 $END
  -2.725578e+03   2.544825e+02
  -1.919952e+03  -1.056386e+03
  -5.484949e+01  -1.612179e+03
   9.094805e+02  -1.075991e+03
   8.312424e+02  -2.830800e+02
   1.642334e+02   2.765561e+02
  -2.684790e+02   1.331217e+02
  -1.407340e+02  -3.829861e+02
   2.097877e+02  -5.540139e+02
   4.791680e+02  -2.024245e+02
   4.348342e+02   3.800365e+02
   3.865628e+01   5.525279e+02
  -1.922451e+02   1.726129e+02
  -3.052822e+02  -3.141642e+02
   4.873961e+00  -4.710319e+02
   3.088017e+02  -1.900033e+02
   2.845805e+02   3.095690e+02
  -2.964850e+01   4.680965e+02
  -2.924449e+02   3.389712e+02
  -3.471980e+02  -1.042382e+02
  -1.904524e+02  -3.093206e+02
  -2.889794e+00  -2.284537e+02
   7.637131e+01  -8.964555e+01
  -6.660384e+01  -8.143986e+01
  -2.295915e+02  -1.413539e+02
  -5.003676e+01  -2.218183e+02
   3.192586e+02  -1.418930e+02
   5.150035e+02   5.401454e+01
   2.734326e+02   2.147795e+02
  -1.747512e+02   2.492556e+02
  -4.559845e+02   2.604794e+01
  -1.791648e+02  -2.093101e+02
   1.141129e+02  -3.460555e+02
   2.924702e+02  -2.008742e+02
   3.298731e+02   4.832070e+01
   1.293351e+02   2.626339e+02
  -2.603337e+01   1.967785e+02
  -5.604238e+00  -2.961544e+01
   1.213587e+02  -9.650142e+01
   1.498829e+02   5.454147e+01
   7.253309e+01   3.757415e+02
  -1.238116e+02   3.179806e+02
  -3.238709e+02   6.137601e+01
  -1.936438e+02  -1.936959e+02
   5.256690e+01  -1.874661e+02
   1.888311e+02   1.680620e+02
  -2.467448e+01   2.944104e+02
  -3.126688e+02   8.647774e+01
  -4.011736e+02  -2.402538e+02
  -1.640333e+02  -3.277057e+02
   1.820412e+02  -2.318418e+02
   4.018891e+02  -5.510481e+00
   2.411473e+02   1.222457e+02
   1.866532e+01   1.332310e+02
  -2.553695e+02   9.995781e+01
  -1.723324e+02  -4.645222e+01
   7.658202e+00  -3.989868e+01
   2.448386e+01  -2.608619e+00
  -5.051986e+01   1.024613e+01
  -1.572006e+02   3.898952e+01
  -1.331608e+02  -1.049628e+02
   9.611542e+01  -1.580793e+02
   2.568773e+02  -1.173406e+02
   2.461429e+02   4.300652e+01
   6.855698e+01   2.433413e+02
  -2.082799e+02   3.411437e+02
  -3.105716e+02   1.762808e+02
  -2.383928e+02  -1.183916e+02
  -6.095477e+01  -2.366855e+02
   6.834518e+01  -2.351976e+02
   1.447745e+01  -1.308779e+02
   3.787502e+01  -8.053269e+01
   8.043672e+01  -1.045096e+02
   1.614930e+02  -2.568994e+00
   1.810107e+02   9.233691e+01
   1.133008e+02   1.877160e+02
  -5.120272e+01   1.383039e+02
  -1.633081e+02  -2.784675e+00
  -1.052829e+02  -1.886850e+02
  -1.964729e+01  -1.995113e+02
   1.922246e+02  -6.379884e+01
   2.075930e+02   1.000269e+02
   1.906382e+02   2.027235e+02
  -1.865588e+01   2.149603e+02
  -1.254773e+02   1.280363e+02
  -1.298349e+02   9.216697e+01
  -1.380402e+02   9.367794e+01
  -2.423990e+02   2.341802e+01
  -3.326013e+02  -6.591148e+01
  -2.274051e+02  -2.088701e+02
  -4.003571e+01  -3.303690e+02
   2.435398e+02  -2.972495e+02
   3.954778e+02  -1.405653e+02
   2.295817e+02   4.503890e+01
   1.293587e+01   1.572868e+02
  -3.333616e+01   1.708816e+02
   6.137538e+00   6.422898e+01
   7.485237e+01  -6.196081e+01
   6.899345e+01  -4.311265e+00
  -3.372569e+00   9.930019e+01
  -1.023640e+02   8.397182e+01
  -6.050433e+01  -2.248738e+01
   2.803458e+01  -9.214347e+01
   1.669536e+02  -6.200890e+01
   1.388065e+02   1.937361e+02
  -2.841723e+01   2.542645e+02
  -1.746246e+02   1.848226e+02
  -3.199099e+02  -2.104084e+01
  -2.282891e+02  -1.863037e+02
  -3.001978e+01  -1.847692e+02
   6.901314e+01  -1.271608e+02
   1.450490e+02  -5.202518e+01
   2.969734e+01  -4.509674e+01
   8.382892e-01  -5.396855e+01
   4.081501e+01  -8.639647e+01
   1.035013e+02  -3.009083e+01
   1.235284e+02   4.631527e+01
   6.824746e+00   4.262550e+01
  -1.011951e+02  -1.057998e+01
  -2.784754e+01  -7.547439e+01
   1.073701e+02  -1.020095e+02
   2.945416e+02  -1.731191e+01
   2.524691e+02   1.106137e+02
   3.554437e+01   1.968375e+02
  -1.093354e+02   1.452577e+02
  -1.641002e+02   9.120958e+01
  -8.622714e+01  -9.029452e+00
  -2.884893e+01  -7.258709e+01
   5.586297e+01   1.437588e+01
  -5.857591e+01   7.929561e+01
  -1.385897e+02  -5.774500e-01
  -1.177458e+02  -1.016183e+02
  -2.763787e+01  -1.322977e+02
   9.530224e+00  -9.799198e+01
   1.194205e+02  -4.393725e+01
   9.700958e+00   3.159543e+01
  -3.740791e+01  -1.779381e+01
  -2.522485e+01  -4.324841e+01
   7.126867e+01  -9.280743e+01
   1.639809e+02  -2.017708e+01
   1.231188e+02   9.229833e+01
   2.670371e+01   1.452526e+02
  -1.179159e+02   8.352979e+01
  -1.056342e+02   2.544562e+01
  -6.019993e+01  -6.550264e+01
   6.667102e+01  -5.288370e+01
   8.774611e+01  -3.499891e+01
   7.542176e-02   1.815599e+01
  -3.095503e+01  -3.570245e+00
   2.046940e+00  -1.268901e+01
   6.436677e+01  -2.758899e+01
   5.695812e+01   4.711852e+01
  -2.366971e+01   1.649225e+02
  -1.290495e+02   9.958919e+01
  -1.523470e+02   3.469657e+01
  -1.349094e+02  -1.074549e+02
  -3.696997e+01  -1.742815e+02
   5.521299e+01  -1.222652e+02
   6.258738e+01  -3.092469e+01
   3.569697e+01   2.229338e+01
   7.081504e+01  -8.710584e+00
   7.564700e+01   1.902900e+01
   8.642288e+01   2.774633e+01
   5.388031e+01   4.057143e+01
  -4.946848e+01   5.175117e+01
  -9.134040e+01   7.019956e+01
  -6.818449e+01  -6.496854e+01
   1.395116e+01  -8.666047e+01
   1.238005e+02  -3.596630e+01
   1.469562e+02   1.546067e+01
   6.242690e+01   1.245612e+02
  -4.917507e+01   1.719757e+02
  -2.094088e+02   1.403015e+02
  -2.204104e+02  -6.501638e+01
  -7.594535e+01  -1.232128e+02
  -1.680197e+01  -1.191120e+02
   6.151967e+01  -1.094954e+02
   3.793045e+01  -3.472788e+01
  -1.040972e+01  -8.106831e+01
   7.712873e+01  -6.659504e+01
   1.168839e+02   2.171822e+01
   9.194150e+01   8.909119e+01
   4.660664e+01   1.445300e+02
  -9.454445e+01   1.320024e+02
  -9.631348e+01  -4.933492e+01
  -1.056366e+02  -1.394644e+02
   5.786734e+00  -1.317455e+02
   5.425929e+01  -4.567201e+01
   6.831980e+01  -1.506270e+00
  -1.339382e+01   4.892850e+01
  -1.214800e+00   2.220319e+01
   9.008237e+00   2.739950e+01
   8.391686e+01  -3.018727e+01
  -4.308739e+00   4.093093e+01
  -4.343527e+01   5.396228e+01
  -1.428563e+02   1.471955e+01
  -1.668721e+02  -4.414918e+01
  -4.506231e+01  -5.960796e+01
   9.341973e+01  -5.836102e+01
   1.477587e+02   8.659209e+00
   1.053274e+01   3.599327e+01
  -5.987851e+01   7.184519e+01
  -5.820783e+01   2.016382e+00
   1.580790e+00  -8.279845e+01
   2.781411e+01  -5.917081e+01
   1.105989e+02  -5.127173e+00
   5.385711e+01   4.389733e+01
   1.369184e+01   5.432125e+01
   6.093649e+01   2.442681e+00
   5.169912e+01  -1.156829e+01
   1.228080e+01   5.210500e+01
   2.156469e+01   1.182151e+02
  -9.637848e+01   1.183179e+02
  -1.584492e+02   6.099672e+01
  -1.296953e+02  -7.235882e+01
   8.815332e+00  -8.508343e+01
   7.861090e+01  -4.524688e+01
   2.539075e+01   1.438894e+01
  -1.590627e+01   8.204582e+00
  -7.750615e+01  -4.401824e+01
  -6.162378e+01  -8.586513e+01
   2.631084e+01  -7.895157e+01
   1.524446e+02  -8.003125e+01
   2.018225e+02   4.826169e+01
   1.821137e+01   6.117945e+01
  -3.526806e+01   4.512403e+01
  -3.679055e+01  -3.095870e+00
  -1.804195e+01  -2.600210e+01
   4.297911e+01   5.323586e+00
   4.455400e+01   6.437775e+01
  -7.801564e+01   1.194155e+02
  -1.161823e+02   7.614270e+01
  -9.541798e+01  -6.655614e+01
  -5.946723e+01  -1.851167e+02
   5.283791e+01  -1.305179e+02
   1.010770e+02  -1.858267e+01
   5.793437e+01   6.942195e+01
  -4.779371e+01   4.162784e+01
  -6.802554e+01  -3.155523e-01
   4.266243e+00  -2.380094e+01
  -1.079898e+01  -6.285664e+00
   1.445693e+01   1.554918e+01
  -2.786934e+01   3.245779e+01
  -5.187236e+01  -4.523308e+01
  -9.577393e+00  -1.081283e+02
   3.559443e+01  -7.556375e+01
   1.195830e+02   3.107550e+01
   1.179803e+02   2.424891e+01
   1.166908e+01   1.288890e+01
  -8.523929e+01   5.641066e+01
  -7.624773e+01   1.629995e+01
  -2.427496e+01   1.121826e+01
   7.926653e+00  -1.915992e+01
   8.609589e+00  -8.316294e+00
  -1.121461e+00   1.745767e+01
  -1.166826e+00   2.863114e+00
   6.380247e+01  -3.683483e+00
   7.461724e+01   5.833810e+01
   4.748130e+01   2.693700e+01
  -8.080937e+01   6.028793e+01
  -1.554268e+02   5.651579e+01
  -1.362331e+02  -1.814305e+01
  -5.386501e+01  -1.829679e+02
   5.012784e+01  -1.352816e+02
   9.122392e+01  -1.207526e+02
   1.043906e+02  -4.254414e+01
   8.597125e+01   5.567892e+01
  -2.032390e+00   3.969064e+01
  -1.924932e+01  -1.068130e+01
   1.134249e+01   3.375835e+01
   3.637597e+01   5.933548e+01
  -5.037089e+01   3.965248e+01
  -3.888667e+01   1.321546e+01
  -4.092800e+01  -7.296956e+01
  -3.873928e+01  -6.916532e+01
   5.427023e+01   4.185756e-01
   9.217083e+01   3.761359e+01
   3.342447e+01   1.021211e+02
  -3.237673e+01   5.097015e+01
  -7.826182e+01  -1.366357e+01
  -1.547919e+01  -1.982577e+01
   1.494450e+01  -5.049342e+01
   5.104813e+01  -4.017988e+01
  -3.498264e+01   1.276317e+01
  -7.582393e+01   1.251751e+01
  -2.505985e+00  -3.357094e+01
   3.639459e+01  -3.954440e+01
   1.081390e+02  -2.277719e+01
   2.697014e+01  -3.713389e+01
  -7.482916e+00   6.839750e+01
  -4.453473e+01   8.687460e+01
  -5.936802e+01   6.716003e+00
   4.420067e+01  -6.103918e+01
   9.137589e+00  -4.882996e+01
   6.208233e+01   2.769279e+01
   4.116930e+01   3.853228e+01
   1.435920e+00   5.490593e+01
  -1.277606e+01  -2.496536e+01
  -4.786513e+01  -3.089093e+01
   1.090607e+01  -1.651709e+01
  -4.188736e+01   1.342606e+01
  -4.107964e+00   1.959464e+01
   9.727188e+00  -7.054331e+01
  -5.555895e-02  -6.676706e+01
   1.658114e+01  -4.342469e+01
   5.158322e+00  -1.222539e+01
   2.818946e+01   7.353529e+01
  -2.553368e+01   6.364185e+01
  -5.238911e+01  -1.068735e+01
  -1.309044e+01  -7.520030e+01
   1.594474e+01  -2.984604e+01
   4.375236e+01   2.164962e+01
   1.788973e+01   5.917355e+01
  -9.246621e+00   4.616267e+01
  -4.350768e+01   2.605388e+01
  -4.387499e+01  -1.064926e+01
   5.323955e+01   1.201294e+01
   1.280965e+01  -4.539700e+00
   5.508300e+00   3.084148e+01
  -6.076151e+01   2.085690e+00
