
 $NMID
 id='ANONYMOUS ', fmtdat='(2E16.6)'
 volume=1.0
 tramp=1.0
 $END
  -3.150435e+03   4.391373e+02
  -2.341024e+03  -1.332227e+03
  -1.515782e+02  -1.950486e+03
   1.186587e+03  -1.198114e+03
   8.532028e+02  -2.913722e+02
   1.564188e+02   2.686464e+02
  -4.757862e+02   8.534928e+01
  -1.830141e+01  -4.955827e+02
   3.718906e+02  -5.802438e+02
   6.227562e+02  -1.783162e+02
   4.508442e+02   4.783484e+02
   1.444546e+01   5.938624e+02
  -2.670067e+02   2.710321e+02
  -2.473396e+02  -3.767250e+02
   9.825092e+01  -4.906735e+02
   3.504388e+02  -1.397596e+02
   3.477455e+02   4.576001e+02
  -6.173472e+01   6.593003e+02
  -4.465221e+02   2.710606e+02
  -4.948914e+02  -1.850642e+02
  -1.294843e+02  -3.382846e+02
   5.713875e+01  -2.654263e+02
   9.420633e+01  -9.664759e+01
  -1.579473e+02  -6.896506e+01
  -2.874284e+02  -2.585190e+02
  -5.837601e+01  -3.749173e+02
   3.974598e+02  -2.553249e+02
   5.987094e+02   2.190744e+02
   2.672207e+02   3.245783e+02
  -2.820014e+02   2.381549e+02
  -4.498739e+02  -5.694199e+01
  -2.232138e+02  -3.344479e+02
   2.161726e+02  -3.294190e+02
   4.050887e+02  -1.046179e+02
   3.263425e+02   1.078529e+02
   9.354442e+01   2.813571e+02
   1.215590e+01   2.076808e+02
   6.619424e+00  -3.271324e+01
   1.073776e+02  -2.099604e+02
   2.397244e+02   5.522489e+01
   9.276550e+01   4.119918e+02
  -2.796095e+02   3.835065e+02
  -3.370478e+02   4.138368e+01
  -1.253118e+02  -3.062157e+02
   1.083956e+02  -1.408366e+02
   1.502805e+02   1.878519e+02
  -1.137564e+02   3.655833e+02
  -3.838119e+02   4.089582e+01
  -5.078279e+02  -3.504064e+02
  -1.074831e+02  -4.801519e+02
   3.217231e+02  -2.636232e+02
   5.114277e+02   1.665009e+00
   3.530510e+02   2.203985e+02
   1.655161e+01   2.587050e+02
  -2.455781e+02   1.196731e+02
  -3.164338e+02  -2.372931e+01
  -3.456699e+01  -1.176328e+01
   2.343962e+01   5.184119e+01
  -7.232052e+01   5.199321e+01
  -2.564591e+02  -6.258910e+00
  -1.473790e+02  -2.034467e+02
   1.000630e+02  -2.575260e+02
   3.522678e+02  -1.401383e+02
   2.711301e+02   3.746413e+01
   4.714085e+00   3.099272e+02
  -2.816780e+02   3.914775e+02
  -3.301215e+02   1.693386e+02
  -2.440901e+02  -1.554983e+02
  -2.758201e+01  -3.750916e+02
   2.690663e+01  -2.666826e+02
  -8.097414e+00  -1.826120e+02
   3.792817e+01  -1.008151e+02
   1.085861e+02  -7.846829e+01
   2.580664e+02  -6.539614e+01
   2.542973e+02   1.035739e+02
   7.865160e+01   3.186320e+02
  -8.081478e+01   2.240206e+02
  -2.115985e+02  -5.801513e+01
  -1.027395e+02  -2.736987e+02
   5.882214e+01  -2.077764e+02
   2.595249e+02  -8.628756e+01
   2.779941e+02   1.462953e+02
   1.503930e+02   2.699205e+02
   7.690079e+00   2.655819e+02
  -1.386243e+02   1.562729e+02
  -1.576854e+02   1.241346e+02
  -1.277101e+02   6.678155e+01
  -2.965313e+02   5.792351e+01
  -4.344073e+02  -9.318401e+01
  -3.460335e+02  -2.919808e+02
   1.468552e+01  -3.746388e+02
   4.074679e+02  -3.297460e+02
   4.167050e+02  -9.437322e+01
   3.293808e+02   1.423402e+02
  -2.472805e+01   2.424600e+02
  -4.841618e+01   1.515967e+02
   3.495730e+01   6.180474e+01
   1.300523e+02  -4.153038e+01
   5.894810e+01   2.436622e+01
  -1.084512e+01   1.601115e+02
  -8.197455e+01   8.242550e+01
  -9.614640e+01  -5.029583e+01
   3.799847e+01  -1.305281e+02
   1.574630e+02  -2.818774e+01
   1.686593e+02   2.245383e+02
  -5.430337e+00   2.894928e+02
  -2.219305e+02   2.169818e+02
  -3.458443e+02  -6.272657e+01
  -2.380930e+02  -2.116716e+02
  -8.022306e+01  -2.264609e+02
   9.457010e+01  -1.249603e+02
   1.775978e+02  -1.824010e+01
   5.918228e+01   2.386308e+01
  -7.961056e+01  -7.204873e+01
   5.367521e+00  -6.404023e+01
   1.269369e+02  -4.573719e+01
   1.307401e+02   1.557302e+01
  -6.303908e+00   7.358477e+01
  -9.630746e+01   1.662200e+01
  -2.999070e+01  -9.269895e+01
   1.122490e+02  -9.107825e+01
   2.951192e+02  -3.659480e+00
   2.352927e+02   1.534708e+02
   4.316911e+01   2.521091e+02
  -1.907025e+02   2.621591e+02
  -2.307419e+02   1.439274e+02
  -1.721681e+02  -2.405843e+01
  -2.021582e+00  -5.596076e+01
   2.305794e+01  -2.992686e+01
  -6.836310e+01   9.037745e+01
  -1.890360e+02   4.031260e+01
  -1.558163e+02  -4.359593e+01
  -4.006304e+01  -1.568216e+02
   8.584993e+01  -1.102194e+02
   9.769359e+01  -2.408044e+01
   4.818807e+01   2.226575e+01
  -1.957361e+01  -1.964561e+01
  -4.245297e+01  -1.025820e+02
   8.317287e+01  -1.070106e+02
   2.223149e+02  -3.584691e+01
   2.134378e+02   1.233786e+02
   2.858778e+01   2.046383e+02
  -1.372615e+02   1.052383e+02
  -1.557122e+02  -1.569974e+01
  -7.774791e+01  -4.213030e+01
   1.001505e+02  -1.239359e+02
   1.213954e+02  -2.807207e+01
  -5.379285e+00  -1.291301e+01
  -3.374942e+01  -3.365135e+01
   9.121003e+00  -2.775450e+01
   4.026899e+01   2.751863e+01
   9.660143e+01   6.395887e+01
  -2.745222e+00   2.132862e+02
  -1.295038e+02   1.086515e+02
  -1.963850e+02   4.577539e+01
  -2.036028e+02  -1.453884e+02
  -4.721760e+01  -2.019600e+02
   6.938982e+01  -1.028626e+02
   1.014711e+02  -5.358014e+01
   6.392962e+01   2.499627e+01
   3.782910e+01   5.066708e+01
   8.199319e+01  -1.147301e+01
   1.094916e+02  -9.123584e+00
   7.320251e+01   3.398789e+01
  -2.666367e+01   1.247303e+02
  -1.217771e+02   8.936665e+01
  -9.810657e+01  -3.055717e+01
   1.820089e+01  -1.391277e+02
   1.828928e+02  -8.508909e+01
   2.014343e+02   6.726019e+01
   7.300956e+01   2.273774e+02
  -9.590669e+01   1.928238e+02
  -2.330236e+02   7.019903e+01
  -2.763190e+02  -1.390408e+02
  -9.239202e+01  -1.378041e+02
   8.928058e+01  -1.600234e+02
   5.549340e+01  -7.625367e+01
   7.968556e+01  -7.617820e+01
   2.520165e+01  -9.268296e+01
   1.099644e+02  -5.973114e+01
   1.053337e+02   6.229644e+01
   9.660619e+01   1.304549e+02
   1.153194e+01   2.214831e+02
  -9.002717e+01   1.386309e+02
  -1.400243e+02   1.497987e+01
  -1.070408e+02  -1.251888e+02
  -3.087782e+01  -1.352764e+02
   8.191431e+01  -5.801845e+01
   8.783752e+01   6.889057e+01
   2.397424e+01   6.028666e+01
  -1.040173e+01   4.535248e+01
   4.100484e+01   3.623067e+00
   1.038339e+02   2.048883e+01
   2.519398e+01   2.787358e+01
  -8.495367e+01   6.479711e+01
  -1.466930e+02   1.952259e+01
  -1.452410e+02  -6.332824e+01
  -3.532671e+01  -9.472573e+01
   1.167935e+02  -6.816841e+01
   9.861055e+01  -2.961485e+01
   1.481631e+01   2.585210e+01
  -6.404786e+01   3.424475e+01
  -1.010711e+02  -6.797436e+01
  -6.572102e+00  -6.729818e+01
   6.273676e+01  -6.772469e+01
   5.591219e+01  -3.958771e+00
   1.407175e+01   8.030374e+01
   5.663834e+01   4.613001e+01
   2.427913e+01   3.137264e+00
   6.718841e+01  -1.216753e+01
   5.307119e+01   1.114839e+02
  -2.835802e+01   1.262697e+02
  -1.262813e+02   1.451180e+02
  -1.694275e+02   5.957114e+01
  -1.209722e+02  -8.683065e+01
  -4.490680e+01  -1.631388e+02
   7.936314e+01  -8.335690e+01
   5.881142e+01   7.831188e+00
  -3.643596e+01   3.465493e+01
  -1.240209e+02  -3.138481e+01
  -6.290757e+01  -8.183331e+01
   5.773995e+01  -1.204826e+02
   1.930361e+02  -6.834423e+01
   1.711948e+02   2.270605e+01
   2.443202e+01   7.887109e+01
  -5.545731e+01   7.781692e+01
  -6.860210e+01  -1.082505e+01
   2.331587e+01  -2.768212e+01
   9.564898e+01   1.361263e+01
   8.822319e+01   7.993572e+01
  -9.315215e+01   1.516738e+02
  -1.655019e+02   4.415273e+01
  -1.196268e+02  -6.321641e+01
  -3.938796e+01  -1.189414e+02
   1.002841e+02  -9.906479e+01
   1.338162e+02  -2.405949e+01
   9.504056e+01   1.434718e+02
  -4.140577e+01   9.914070e+01
  -2.991364e+01   2.283581e+01
  -6.222181e+01  -2.417302e+01
  -1.419945e+01  -8.969455e+00
   1.152771e+01   9.032015e+00
   2.648085e+01  -3.481904e+01
  -8.810473e+01  -5.790183e+01
  -1.294975e+01  -8.002303e+01
   3.211371e+01  -3.140558e+01
   1.387938e+02   1.395194e+01
   7.065195e+01   1.275997e+02
   2.889297e+01   6.731244e+01
  -6.801313e+01   1.773125e+01
  -1.012459e+02   5.578062e+01
   8.264716e-01  -9.441325e+00
   6.062965e+01   1.764116e+01
   5.348597e+01   1.537748e+01
  -2.947778e+01  -1.761974e+01
  -1.128923e+00   2.637955e+00
   7.612049e+01   2.117751e+01
   8.624016e+01  -5.175022e+00
   2.110647e+01   6.824975e+01
  -1.013894e+02   7.840243e+01
  -1.896723e+02   6.745387e+01
  -1.660562e+02  -5.731564e+01
  -3.331728e+01  -1.474929e+02
   6.406526e+01  -1.404053e+02
   1.159897e+02  -4.816774e+01
   1.064777e+02  -9.633762e+00
   4.594182e+01   5.239159e+01
  -3.373273e+01   3.111276e+01
   1.485743e+01  -9.570832e+00
   3.284204e+01   8.800827e+01
  -3.828587e+01   8.007843e+01
  -1.509620e+01   4.880137e+01
  -6.813954e+01  -2.677947e+01
  -6.862768e+01  -8.056525e+01
   2.236761e+01  -1.073962e+02
   7.632520e+01  -2.649853e+01
   6.858742e+01   7.332454e+01
   4.155641e+01   7.521654e+01
  -3.025274e+01   6.341571e+01
  -7.768807e+01  -3.436949e+01
  -4.417370e+01  -6.004180e+01
   3.144791e+01  -8.132260e+01
   5.324687e+01  -5.452695e+01
  -1.877577e+01  -2.289491e+00
  -7.235562e+01   2.534504e+01
  -2.050273e+01  -4.550163e+01
   7.045544e+01  -5.375253e+01
   1.313721e+02  -8.388887e+01
   5.628145e+01   3.153438e+01
   1.702485e+01   7.306891e+01
  -5.579295e+01   1.354923e+02
  -4.929127e+01  -4.333819e+00
   1.830217e+01  -5.941684e+01
   6.243341e+01  -7.298233e+01
   1.940445e+01   3.261263e+01
   5.011131e+01   4.563841e+01
   5.610878e+01   2.172677e+01
  -3.426679e+01  -2.560954e+01
  -6.956910e+01  -1.794269e+01
   1.981868e+01   1.479467e+01
   2.487125e+01   1.607017e-01
   2.861173e+01   3.088225e+01
   1.337058e+01  -2.490491e+01
  -2.199334e+01  -4.310694e+01
   3.292249e+00  -2.780834e+01
   9.519946e+01   1.623397e+01
   1.934404e+01   8.455798e+01
  -2.863026e+01   2.135445e+01
  -5.318513e+01  -2.340733e+01
  -1.333164e+01  -1.554938e+01
   7.805499e+01  -4.842804e+01
   8.840945e+01  -2.535409e+01
   2.644983e+01   4.007862e+01
   1.998957e+01   4.812717e+01
  -5.926473e+01   7.715900e+01
  -1.870357e+00  -3.290743e+01
   1.494050e+01  -1.167014e+01
   1.544742e+01  -1.646699e+01
  -1.359476e+01   2.324841e+01
  -8.907231e+01  -3.682801e+01
