
 $NMID
 id='ANONYMOUS ', fmtdat='(2E16.6)'
 volume=1.0
 tramp=1.0
 $END
   2.519964e+03  -7.081551e+01
   1.750293e+03   1.129466e+03
   2.503498e+02   1.499339e+03
  -8.518259e+02   9.959443e+02
  -8.817932e+02   4.647818e+02
  -2.570192e+02   2.175379e+01
   1.764153e+02   6.107695e+01
   1.140765e+01   3.839585e+02
  -3.133444e+02   5.005741e+02
  -5.258988e+02   1.116993e+02
  -3.765763e+02  -3.457890e+02
  -1.554658e+01  -4.599483e+02
   1.125562e+02  -2.167174e+02
   1.854839e+02   3.096918e+02
  -5.084532e+01   4.022501e+02
  -2.953395e+02   1.432058e+02
  -3.187653e+02  -3.700818e+02
   5.864280e+01  -5.882111e+02
   3.997702e+02  -3.465551e+02
   4.016197e+02   1.057468e+02
   2.049064e+02   3.179648e+02
  -5.052099e+01   2.497471e+02
  -5.023650e+01   5.963725e+01
   1.983076e+02   1.516430e+02
   1.788457e+02   3.214453e+02
  -4.143335e+01   3.079027e+02
  -3.847185e+02   4.050017e+01
  -4.471888e+02  -2.487392e+02
  -1.165826e+02  -2.526394e+02
   2.258529e+02  -9.337752e+01
   3.147090e+02   1.950427e+02
   1.488599e+02   3.513422e+02
  -2.088657e+02   3.074530e+02
  -3.838653e+02   9.526487e+01
  -3.193341e+02  -1.276723e+02
  -1.062580e+02  -2.303370e+02
  -9.510891e+01  -8.657493e+01
  -8.108910e+01   1.635207e+01
  -1.345796e+02   4.766428e+01
  -1.091794e+02  -1.579238e+02
   9.124794e+00  -3.402570e+02
   2.116120e+02  -3.015308e+02
   2.389992e+02  -1.776058e-01
   5.930807e+01   2.005658e+02
  -9.692767e+01   7.130229e+01
  -7.906884e+01  -2.072439e+02
   7.902232e+01  -2.880539e+02
   3.232959e+02  -4.047123e-01
   3.991371e+02   2.951324e+02
   1.473915e+02   4.273340e+02
  -2.586952e+02   2.000530e+02
  -3.880450e+02  -7.508891e+01
  -3.342620e+02  -2.259356e+02
   2.495301e+01  -1.865163e+02
   1.875816e+02  -6.248962e+01
   1.823343e+02  -6.408684e+01
   2.740050e+01  -3.753888e+01
  -2.383926e+01  -6.119161e+00
   1.086366e+02  -3.429328e+01
   2.244742e+02   1.373059e+01
   1.111095e+02   1.117620e+02
  -1.510230e+02   2.520986e+02
  -2.929205e+02   1.382202e+02
  -2.581708e+02  -1.116630e+02
  -2.891469e+00  -2.860730e+02
   3.033209e+02  -3.375124e+02
   3.291901e+02  -8.492638e+01
   1.810019e+02   1.434898e+02
   1.373391e+01   2.823644e+02
  -2.062745e+00   2.079721e+02
   2.450311e+01   2.047248e+02
  -1.192875e+01   1.937917e+02
  -1.476613e+02   1.427591e+02
  -2.356646e+02   1.217103e+01
  -2.057612e+02  -1.716843e+02
  -4.780452e+01  -2.349389e+02
   1.601521e+02  -1.608080e+02
   1.664822e+02   6.163277e+01
   1.164700e+02   2.054283e+02
  -7.296825e+01   2.188472e+02
  -2.158531e+02  -7.238775e+00
  -2.659881e+02  -1.859890e+02
  -1.626934e+02  -2.584362e+02
   5.258508e+01  -2.731408e+02
   1.045181e+02  -1.526923e+02
   1.615485e+02  -1.457148e+02
   1.374912e+02  -1.111082e+02
   2.690439e+02  -3.374108e+01
   4.068689e+02   1.213805e+02
   2.584076e+02   2.945293e+02
  -7.318507e+01   3.697964e+02
  -3.861993e+02   3.343988e+02
  -4.100765e+02   9.333107e+01
  -2.922789e+02  -1.436243e+02
   4.320508e+00  -2.553958e+02
   5.161983e+01  -1.704291e+02
   6.977994e+00  -3.625269e+01
  -1.255836e+02   2.428465e+01
  -5.976510e+01  -2.677836e+01
   2.166012e+01  -1.181621e+02
   9.429959e+01  -1.004000e+02
   9.455376e+01   4.941350e+01
  -6.744713e+01   1.427855e+02
  -1.943981e+02  -2.945329e+01
  -1.232228e+02  -2.199732e+02
   1.241626e+01  -2.893212e+02
   2.759054e+02  -2.498291e+02
   3.249356e+02   9.766400e+01
   2.297589e+02   2.268062e+02
   4.097417e+01   2.732463e+02
  -1.299455e+02   1.293193e+02
  -1.459664e+02   3.140534e+01
  -4.203847e+01  -9.482091e+00
   5.484944e+01   8.118489e+01
  -1.433927e+01   7.581756e+01
  -8.633931e+01   4.018356e+01
  -1.088184e+02  -3.062209e+01
  -2.500991e+01  -4.840588e+01
   7.250683e+01  -2.412047e+01
   2.065696e+01   9.747534e+01
  -1.282445e+02   2.437060e+01
  -2.852783e+02  -1.440415e+01
  -2.125203e+02  -2.085897e+02
  -2.271887e+01  -2.569837e+02
   1.973274e+02  -1.942615e+02
   2.300925e+02  -4.109792e+01
   1.336627e+02   8.356918e+01
  -3.713076e+01   2.980099e+01
  -3.500191e+01  -6.513883e+00
   9.547218e+01  -4.854996e+01
   1.674346e+02   2.414010e+01
   1.501279e+02   3.889062e+01
   3.707796e+01   1.484514e+02
  -7.253520e+01   9.862658e+01
  -1.046805e+02   2.554068e+01
  -1.320613e+01  -1.643155e+01
   7.102571e+01   2.562477e+01
   5.484514e+01   1.192310e+02
  -1.122216e+02   1.238146e+02
  -1.629356e+02   1.762665e+01
  -1.369896e+02  -1.481415e+02
   3.014645e+00  -1.677551e+02
   1.459284e+02  -1.318801e+02
   1.580992e+02   4.651470e+01
   5.298899e+01   4.426780e+01
  -4.362858e+01   1.049462e+02
  -7.169407e+01   8.779971e+00
  -4.892525e+00   2.209680e+01
   3.692799e+01  -4.930966e+00
  -2.008992e+01  -3.424766e-01
  -9.744394e+01   2.318319e+01
  -1.052381e+02  -1.108591e+02
   5.487305e+00  -1.759164e+02
   1.101593e+02  -1.390052e+02
   2.691535e+02  -1.972461e+01
   1.951004e+02   1.510143e+02
   6.093801e+00   2.148736e+02
  -8.063001e+01   1.618399e+02
  -8.361698e+01  -3.919951e+00
  -8.752099e+01  -1.711645e+01
  -4.331682e+01  -3.973329e+01
  -5.478388e+01  -2.862155e-01
  -9.690624e+01   2.639257e+00
  -1.023660e+02  -4.034627e+01
   3.642251e+01  -1.245343e+02
   1.415941e+02  -5.962234e+01
   8.650013e+01   3.802355e+01
  -3.015755e+01   1.083375e+02
  -1.358123e+02   5.031526e+01
  -2.179308e+02  -6.575191e+01
  -3.812869e+01  -1.935907e+02
   1.497922e+02  -1.947294e+02
   2.502346e+02  -4.923437e+01
   2.171775e+02   9.463438e+01
   1.273129e+02   1.554106e+02
  -4.592864e+01   1.473002e+02
  -7.549389e+01   5.644264e+01
  -1.058443e+02   8.302454e+01
  -2.863675e+01   6.719038e+01
  -6.580179e+01   9.918459e+01
  -1.128415e+02   1.757721e+00
  -1.206343e+02  -2.064757e+02
  -6.126385e+01  -1.742743e+02
   1.367721e+02  -1.717430e+02
   1.603367e+02   2.755123e+01
   1.675897e+02   1.067534e+02
   2.857366e+01   1.353697e+02
  -7.454498e+01   4.567299e+01
  -8.860415e+01  -3.380916e+01
  -1.107923e+01  -8.064699e+01
   2.484680e+01  -3.770226e+00
  -2.833591e+01   1.008138e+01
  -8.318921e+01   5.284564e+00
  -3.530189e+01  -1.903368e+01
   5.382535e+01  -9.942190e+00
   1.850548e+02  -1.027886e+01
   1.199097e+02   5.426230e+01
  -3.674795e+00   1.121420e+02
  -1.245740e+02   4.930986e+01
  -1.289714e+02   2.460684e+01
  -3.772856e+01  -4.369182e+01
   7.734545e+01  -5.304748e+01
   8.584491e+01   5.719549e+00
   4.542879e+01   6.509563e+01
  -4.455660e+01   5.796445e+01
  -1.033153e+02   3.692896e+01
  -9.206815e+01  -6.024123e+01
  -4.222666e+01  -2.314612e+01
  -5.777111e+01   2.236128e+00
  -3.007563e+01  -2.202608e+01
  -6.152597e+01  -1.179081e+02
   5.816021e+01  -1.679522e+02
   1.369023e+02  -1.224607e+02
   1.679281e+02  -3.170512e+01
   1.543507e+02   1.117523e+02
   1.472967e+01   1.107281e+02
  -8.254364e+01   8.667595e+01
  -8.330364e+01  -5.647920e+00
   4.911812e+01   2.004281e+01
   1.200395e+02   2.311059e+01
   6.041294e+01   1.122688e+02
  -4.226286e+01   9.049925e+01
  -1.834224e+02   2.128823e+01
  -1.442919e+02  -3.747503e+01
  -9.577671e+00  -4.185052e+01
   7.367215e+01  -6.243049e+01
   7.655320e+01   3.260328e+01
  -4.881604e+01   5.157230e+01
  -7.830185e+01   5.018840e+00
  -6.379754e+01  -6.485468e+01
   4.780727e+01  -1.329531e+02
   1.288847e+02  -8.500926e+01
   1.511306e+02   1.108097e+02
   6.496038e+01   1.739831e+02
  -7.121470e+01   1.025713e+02
  -1.078016e+02  -7.912793e+00
  -6.064175e+01  -1.199843e+02
   5.736190e+01  -8.656858e+01
   3.119811e+01   2.258150e+01
  -2.130569e+00   3.708802e+01
   3.095529e-01  -1.455024e+01
   2.152197e+01  -6.155794e+00
  -3.536948e+00  -1.119263e+01
   9.623517e+01   7.827985e+01
   3.460420e+01   7.382436e+01
  -4.408829e+01   4.907037e+01
  -1.210823e+02  -2.594112e+01
  -8.365961e+01  -6.397015e+01
  -2.407865e+01  -6.487921e+01
   9.571389e+01  -1.424004e+01
   7.062503e+01  -2.630304e+01
   6.665982e+01   2.919094e+01
  -2.441587e+01   4.827994e+01
  -2.353946e+01   4.478921e+01
   1.750289e+01   3.821342e+01
   1.223673e+01  -1.309169e+01
  -3.187335e+01   2.578746e+01
  -1.177797e+02  -2.691311e+01
  -3.557434e+01  -7.468990e+01
   8.742771e+01  -1.451143e+02
   1.748842e+02  -9.961626e+01
   1.498972e+02   4.071659e+01
   4.646707e+01   1.579615e+02
  -9.604477e+01   1.230630e+02
  -1.055340e+02   8.990636e+01
  -8.027045e+01   3.315093e+00
  -3.989660e+00   2.140357e+01
   1.973378e+01   4.137784e+01
  -1.802465e+01  -1.539817e+00
  -5.117841e+01  -7.917253e+01
   1.996669e+01  -1.086180e+02
   3.329362e+01  -8.750834e+01
   7.729153e+01   1.303368e+01
   7.289147e+01   8.298792e+01
   5.131054e+01   1.261144e+02
  -5.530407e+01   5.397091e+01
  -8.213098e+01  -6.538784e+01
  -4.817587e+01  -1.022520e+02
   5.878768e+01  -7.839102e+01
   7.744118e+01   4.309812e+01
   6.173934e+01   7.647327e+01
  -1.666211e+01   5.555523e+01
  -4.126806e+01   2.321663e+01
   5.715832e+00   4.419008e+01
   5.681770e+01   7.906274e+00
  -9.518864e+00   3.894943e+01
  -4.874519e+01   4.676123e+01
  -1.304108e+02   5.523677e+01
  -3.960614e+01  -8.321621e+00
  -2.239944e+01  -5.281738e+01
   6.273465e+01  -7.845245e+01
   9.757582e+01  -6.199648e+00
   1.367384e+01   4.188667e+01
  -2.768623e+01   6.646365e+01
   2.460155e+00   1.792739e+01
  -3.318583e+01  -4.875797e+01
  -5.507208e+00  -9.314577e+00
   4.773722e+01   1.033669e+01
   1.007090e+02   4.873897e+01
  -1.722506e+01  -2.733717e+01
   2.233466e+01  -4.547121e+01
  -5.806339e+01   4.190798e+01
   4.109640e+01   4.145037e+01
  -2.151132e-01   9.266828e+00
  -5.170916e+01   7.956209e+01
  -5.425014e+01  -6.251981e+01
  -1.798325e+01  -4.295186e+01
   3.634573e+01   1.145916e+01
   7.666601e+01   3.956883e+01
   2.403507e+01   1.532043e+01
  -6.093042e+01   4.655580e+01
  -7.965235e+01  -9.881291e+00
  -3.946824e+01  -2.177135e+01
   1.737635e+01  -1.938478e+01
   5.474331e+01  -2.484608e+01
   2.387082e+01  -1.801942e+01
  -5.221978e+00  -9.686069e+00
  -3.956862e+01   1.894450e+01
   3.708841e+01  -3.724962e+01
   7.269226e+01  -4.693890e-01
