
 $NMID
 id='ANONYMOUS ', fmtdat='(2E16.6)'
 volume=1.0
 tramp=1.0
 $END
  -2.544649e+03  -7.760036e+01
  -1.927466e+03  -1.018412e+03
  -1.463530e+02  -1.430209e+03
   8.218132e+02  -9.734966e+02
   8.559992e+02  -3.589899e+02
   2.961221e+02   1.271634e+02
  -2.198650e+02   8.503970e+00
  -1.119781e+02  -4.245294e+02
   3.452418e+02  -4.924017e+02
   5.262316e+02  -6.400824e+01
   3.273688e+02   3.604223e+02
   1.054988e+02   5.977661e+02
  -1.811006e+02   2.287298e+02
  -8.905744e+01  -2.846920e+02
   5.061280e+01  -4.517358e+02
   3.218220e+02  -8.675080e+01
   3.003253e+02   3.673563e+02
  -4.633423e+01   5.583276e+02
  -4.193776e+02   3.498310e+02
  -4.241585e+02  -1.945845e+02
  -1.648535e+02  -3.061039e+02
   6.834289e+01  -2.697028e+02
   2.985022e+01  -4.315317e+01
  -1.589799e+02  -1.068211e+02
  -2.255455e+02  -2.986201e+02
   5.251942e+01  -3.096347e+02
   4.227967e+02  -1.089414e+02
   4.283381e+02   1.957911e+02
   9.429870e+01   3.020216e+02
  -3.319437e+02   1.207239e+02
  -3.782451e+02  -1.559265e+02
  -1.716214e+02  -3.533820e+02
   2.528233e+02  -2.452341e+02
   4.029738e+02  -1.222064e+02
   2.427604e+02   6.827816e+01
   9.312162e+01   2.259172e+02
   2.213031e+01   1.082677e+02
   7.219243e+01  -4.621515e+01
   2.003138e+02  -6.519861e+01
   8.911434e+01   1.687481e+02
  -1.218839e+02   4.258948e+02
  -1.992546e+02   2.799742e+02
  -2.557058e+02   1.727090e+01
  -7.272628e+01  -1.275693e+02
   8.569033e+01  -7.475610e+01
   1.144589e+02   2.288572e+02
  -5.441993e+01   2.758729e+02
  -3.614201e+02   3.549242e+01
  -3.652288e+02  -2.432457e+02
  -1.143322e+02  -3.894161e+02
   2.147822e+02  -2.214342e+02
   3.993620e+02   5.120930e+01
   2.666035e+02   2.026447e+02
  -1.817865e+01   2.219545e+02
  -1.892493e+02   8.205306e+01
  -2.081730e+02   5.544764e+01
  -8.152965e+01   8.475046e+00
  -2.033382e+00  -2.086675e+01
  -9.292718e-01   3.102815e+01
  -1.844630e+02  -3.429343e+01
  -9.106758e+01  -1.351869e+02
   1.463527e+02  -2.529830e+02
   2.883061e+02  -1.507383e+02
   2.724028e+02   9.090084e+01
  -5.002116e+00   3.205095e+02
  -2.899703e+02   3.220997e+02
  -3.136929e+02   4.991923e+01
  -1.548979e+02  -1.682779e+02
  -1.842472e+01  -3.022144e+02
   3.651864e+01  -2.751861e+02
  -2.046311e+01  -1.684317e+02
   4.489575e+01  -1.665420e+02
   1.488414e+02  -9.161281e+01
   1.880484e+02  -1.864413e+01
   2.211814e+02   9.619777e+01
   6.058471e+01   1.596639e+02
  -7.373268e+01   1.103356e+02
  -2.220095e+02  -6.855675e+01
  -9.697464e+01  -2.515359e+02
   6.037293e+01  -2.227371e+02
   2.149928e+02  -7.946931e+01
   2.383609e+02   1.353253e+02
   1.815614e+02   2.940815e+02
  -5.137324e+01   2.154088e+02
  -1.279834e+02   1.616399e+02
  -1.460653e+02   1.102047e+02
  -1.223374e+02   2.605253e+01
  -2.415194e+02   8.521902e+00
  -3.718000e+02  -1.185427e+02
  -2.921706e+02  -3.319455e+02
   1.838933e+01  -3.817476e+02
   3.272548e+02  -3.334428e+02
   3.978336e+02  -6.228617e+01
   2.526259e+02   1.329249e+02
   1.883173e+01   2.581059e+02
  -2.572018e+01   1.815261e+02
  -3.475347e+01   3.358655e+01
   1.451180e+02  -2.175403e+01
   2.357343e+01   8.046537e+01
  -1.394229e+01   1.105922e+02
  -8.831632e+01   8.273697e+01
  -3.098240e+01  -7.461045e+01
   4.115218e+01  -8.191502e+01
   1.275136e+02  -3.745044e+01
   8.782978e+01   1.672051e+02
  -7.741860e+01   2.717473e+02
  -2.491088e+02   1.658803e+02
  -3.189900e+02  -6.288585e+01
  -2.480909e+02  -2.256555e+02
  -7.921634e+01  -2.295609e+02
   1.246983e+02  -1.060070e+02
   1.412560e+02  -3.043508e+01
  -3.248893e+00  -1.399297e+01
  -6.338870e+01  -2.863741e+01
   1.525754e+01  -8.550075e+01
   9.173475e+01  -4.112922e+01
   1.024795e+02   2.103057e+01
   1.362690e+00   4.851460e+01
  -6.636139e+01  -1.773436e+01
  -4.265645e+01  -6.910520e+01
   1.506759e+02  -3.166024e+01
   2.547825e+02   3.346901e+01
   2.453296e+02   1.534155e+02
   3.687762e+01   2.634253e+02
  -2.281264e+02   2.217276e+02
  -2.304568e+02   7.088950e+01
  -9.292100e+01  -1.991714e+01
  -1.639246e+00  -2.293594e+01
   2.136693e+01   2.304394e+01
  -1.340394e+01   8.832814e+01
  -1.512171e+02   6.878719e+00
  -1.771659e+02  -7.858585e+01
  -4.685732e+01  -1.277511e+02
   1.128962e+02  -1.064709e+02
   9.976832e+01  -5.507873e+01
   1.969416e+01   2.692345e+01
  -6.692885e+01  -1.039927e+01
  -5.548638e+01  -1.508372e+02
   1.384027e+02  -9.535298e+01
   2.224758e+02  -4.180787e+01
   1.772554e+02   1.609567e+02
   8.156938e+00   1.919377e+02
  -1.411284e+02   1.137659e+02
  -1.165467e+02   1.168060e+01
  -4.802766e+01  -8.239796e+01
   4.551963e+01  -7.052119e+01
   5.611926e+01  -2.490228e+01
  -2.710207e+01   2.160848e+01
  -8.246579e+01  -6.254914e+00
  -1.038464e+01  -5.965763e+01
   1.074366e+02  -2.800637e+01
   1.100394e+02   4.866461e+01
   2.351793e+01   1.307051e+02
  -1.592215e+02   1.692392e+02
  -1.760249e+02   3.565505e+01
  -1.586941e+02  -1.529350e+02
  -2.625956e+01  -2.058659e+02
   1.259792e+02  -1.293857e+02
   8.213343e+01  -3.640182e+01
   8.373203e+01   3.972652e+01
   3.965385e+01   4.326856e+01
   3.967331e+01  -2.609860e+01
   1.184943e+02  -2.382123e+01
   4.602655e+01   3.782384e+01
  -3.812775e+01   1.196809e+02
  -1.001075e+02   7.071479e+01
  -1.310037e+02  -3.964177e+01
   3.428082e+01  -1.579279e+02
   1.239560e+02  -6.986591e+01
   1.977269e+02   7.035921e+01
   8.755577e+01   1.620098e+02
  -9.942044e+01   1.738448e+02
  -2.030680e+02   5.826209e+01
  -2.289732e+02  -7.576607e+01
  -7.121701e+01  -1.531776e+02
   4.999070e+01  -1.082623e+02
   6.549122e+01  -9.861025e+01
   8.561288e+01  -2.660402e+01
   1.654411e+01  -3.716631e+01
   1.001723e+02  -7.975581e+01
   1.607067e+02   4.211949e+00
   1.478907e+02   1.135454e+02
   3.421453e+01   1.721239e+02
  -7.791102e+01   1.293503e+02
  -1.419297e+02  -4.296614e+00
  -1.357696e+02  -1.391411e+02
  -4.179693e+00  -8.941790e+01
   5.687574e+01  -7.633483e+01
   7.518053e+01   6.114555e+01
  -1.562965e+01   2.532058e+01
  -8.888076e+01   3.002517e+01
   4.110984e+01   5.525328e-01
   5.474050e+01  -1.099133e+01
   3.708534e+01  -3.213987e+01
  -6.153339e+01   5.787545e+01
  -2.015774e+02   1.196729e+01
  -1.238985e+02  -3.420578e+01
  -1.736043e+01  -4.400196e+01
   1.009514e+02  -8.195586e+01
   1.032380e+02  -3.174616e+01
   6.306713e+01   6.325514e+01
  -7.286602e+01   2.128473e+01
  -3.835408e+01  -4.747464e+00
   3.402768e+01  -4.847423e+01
   4.640407e+01  -3.493036e+01
   6.598188e+01   8.157078e+00
   4.300050e+01   3.023891e+01
   3.935237e+01   5.031028e+01
   5.441679e+01   2.118136e+01
   8.770650e+01  -1.848860e+01
   6.091706e+01   7.465602e+01
  -3.216542e+01   1.122281e+02
  -1.149935e+02   1.459317e+02
  -1.690004e+02   4.804731e+01
  -1.181407e+02  -6.893116e+01
   2.987186e+01  -1.568918e+02
   5.615389e+01  -4.346948e+01
   4.004942e+01   2.420496e+01
  -7.956143e+01  -5.621932e+00
  -1.348869e+02  -2.083323e+01
  -2.374922e+01  -1.176091e+02
   7.557639e+01  -8.779123e+01
   1.177707e+02  -2.985330e+01
   1.124901e+02   4.294628e+01
   7.340772e+00   4.542053e+01
  -6.972930e+01   5.508828e+01
  -2.650077e+01   1.147874e+01
   5.787862e+01   1.299171e+01
   7.332015e+01   1.711446e+01
   3.832070e+01   6.273077e+01
  -7.527287e+01   1.363561e+02
  -1.474985e+02   1.748062e+01
  -8.907196e+01  -1.046003e+02
  -1.867683e+01  -1.695535e+02
   9.218688e+01  -1.407950e+02
   8.861745e+01   4.599695e+01
   5.844537e+01   1.121064e+02
  -4.602938e+01   1.037284e+02
  -4.328486e+01  -1.893061e+01
  -7.708503e+01  -5.804772e+01
  -2.886403e+01   6.269498e+00
   3.250033e+01   1.407595e+01
  -3.348306e+01  -3.189729e+01
  -9.836496e+01  -7.675133e+01
   2.517963e-01  -8.287996e+01
   8.977051e+01  -2.136901e+01
   1.006741e+02  -1.552527e+01
   1.306362e+02   7.823144e+01
  -8.063519e-01   6.349622e+01
  -7.843999e+01   2.422753e+01
  -1.079644e+02  -4.492350e+00
  -5.658397e+00  -4.945610e+01
   7.009424e+01  -2.278027e+01
   3.829557e+01  -3.475158e+01
   1.168217e+01  -8.341800e+00
  -2.832961e+01   5.193549e+00
   3.829904e+01   4.689933e+00
   7.496238e+01   1.611123e+01
   4.036771e+01   1.016484e+02
  -1.014992e+02   1.329589e+02
  -1.833534e+02   4.584167e+01
  -1.654308e+02  -4.360332e+01
  -9.007109e+01  -1.200047e+02
   1.000837e+02  -9.495614e+01
   8.763370e+01  -8.482427e+01
   8.031715e+01  -2.498357e+01
   7.359974e+01   4.860182e+01
   3.975589e+01   8.682976e+00
  -3.551609e+00  -5.395997e+00
   4.606884e+01   6.508268e+01
   3.749056e+01   7.507959e+01
  -8.929557e+00   3.529301e+01
  -4.670641e+01  -1.088603e+01
  -2.204140e+01  -3.096730e+01
  -4.740190e+01  -1.277554e+02
   5.271240e+01  -3.927255e+01
   6.886083e+01   5.297781e+01
   4.205826e+01   1.107683e+02
  -5.643739e+01   5.755146e+01
  -1.086291e+02   1.048127e+01
  -4.573237e+01  -5.422930e+01
   2.705484e+01  -5.306954e+01
   9.003039e+00   9.980336e+00
   1.625547e+01   4.876668e-01
  -4.645186e+01   4.164485e+01
  -7.080524e+01  -3.358015e+00
   6.860971e+01  -6.800234e+01
   8.172337e+01  -1.987537e+01
   8.774362e+01   4.843284e+01
  -2.029716e+01   3.835412e+01
  -6.343890e+01   7.925065e+01
  -8.999248e+01  -2.321632e+01
  -1.738639e+00  -4.861695e+01
  -1.731052e+00  -1.026329e+02
   6.260897e+00  -1.819008e+01
   4.820137e+01   8.180288e+01
  -2.228635e+01   5.556653e+01
   2.985509e+01   1.815478e+01
  -6.275557e+01  -3.175574e+01
   3.441529e+01   1.208868e+01
  -3.176540e+01  -2.026927e+01
   2.233813e+01   8.536826e+00
   2.631691e+00  -1.867271e+01
  -4.404487e+01   2.058838e+00
   1.720149e+01  -2.920646e+01
   3.528023e+01   4.631875e+01
   2.457510e+01   3.442278e+01
  -4.856296e+01   1.509300e+01
  -5.566551e+01  -2.896535e+01
  -1.421555e+01  -6.246052e+01
   4.648791e+01  -3.798941e+01
   9.381833e+01  -7.100577e+00
   3.855195e+01   8.989261e+01
  -3.103239e+00   6.540927e+01
  -4.412836e+01   4.023039e+01
  -1.444502e+01  -1.565831e+01
  -1.718815e+01   6.573364e+00
  -1.356842e+00   3.165712e+01
  -1.636200e+01   5.090624e+01
  -6.375389e+01   1.300905e+01
