
 $NMID
 id='ANONYMOUS ', fmtdat='(2E16.6)'
 volume=1.0
 tramp=1.0
 $END
   2.333811e+03   4.586497e+02
   1.439798e+03   1.122261e+03
   1.013722e+01   1.110470e+03
  -5.962696e+02   9.364124e+02
  -6.851745e+02   3.377903e+02
  -2.350091e+02   6.549171e+01
   1.432862e+02  -9.963534e+00
   8.177420e+01   3.492494e+02
  -2.900085e+02   4.100437e+02
  -4.961555e+02   1.111540e+02
  -2.775190e+02  -3.588956e+02
  -1.254297e+02  -4.149883e+02
   1.489897e+02  -1.717444e+02
   1.164095e+02   1.884744e+02
  -1.166073e+02   3.564078e+02
  -2.000696e+02   6.666394e+01
  -2.542538e+02  -3.191263e+02
  -3.250667e-01  -4.614259e+02
   4.302564e+02  -2.727664e+02
   3.628113e+02   1.649159e+02
   1.195544e+02   2.736660e+02
  -8.260083e+01   2.476265e+02
  -9.804898e-02   7.959587e+01
   1.540144e+02   1.597783e+02
   1.302311e+02   2.469872e+02
  -1.036567e+02   2.427141e+02
  -3.936917e+02   2.391207e+00
  -3.615328e+02  -1.806670e+02
  -1.063731e+02  -1.763362e+02
   2.226360e+02  -1.098763e+02
   3.417651e+02   7.436546e+01
   8.795898e+01   2.699954e+02
  -2.213407e+02   2.144829e+02
  -2.950094e+02   8.368184e+01
  -2.026830e+02  -1.064133e+02
  -4.788107e+01  -2.227067e+02
   5.805500e+00  -1.188422e+02
  -1.151945e+02   3.504902e+01
  -1.122671e+02   3.572968e+01
  -8.300220e+01  -1.697603e+02
   8.261808e+01  -3.324820e+02
   1.557117e+02  -1.942885e+02
   2.303744e+02   3.278486e+01
   2.526778e+01   1.317288e+02
  -8.142192e+01  -9.394091e+00
  -8.394698e+01  -1.972031e+02
   1.019066e+02  -2.650780e+02
   3.325325e+02  -2.529662e+01
   3.272376e+02   2.214468e+02
   7.653312e+01   3.566755e+02
  -2.303191e+02   2.071186e+02
  -3.999269e+02  -3.012918e+01
  -2.536258e+02  -1.348523e+02
   8.139284e+01  -1.610060e+02
   1.859543e+02  -9.928943e+01
   1.459907e+02  -3.246941e+01
   5.135090e+01   1.365074e+01
  -2.789185e+01   4.770478e+01
   3.547604e+01  -1.710032e+01
   1.782575e+02   1.166653e+02
   7.544577e+01   1.385111e+02
  -1.052438e+02   1.991885e+02
  -2.843372e+02   1.294676e+02
  -2.235968e+02  -8.317113e+01
   3.410309e+01  -2.558354e+02
   2.685713e+02  -2.144495e+02
   2.549547e+02  -6.190416e+01
   1.429049e+02   1.738228e+02
  -4.081488e+01   2.131559e+02
   2.368507e+01   2.111405e+02
   1.897346e+01   1.395705e+02
  -9.366074e+00   1.164869e+02
  -1.832769e+02   9.626982e+01
  -1.880499e+02   3.711977e+01
  -1.609661e+02  -1.048414e+02
  -6.382452e+01  -1.763968e+02
   1.112677e+02  -1.754258e+02
   9.500214e+01   5.430336e+01
   6.993800e+01   2.192267e+02
  -4.912397e+01   1.630495e+02
  -1.408656e+02   2.722303e+01
  -1.500635e+02  -1.238852e+02
  -1.563255e+02  -2.152227e+02
   3.801415e+01  -1.715637e+02
   5.238774e+01  -1.303008e+02
   1.043497e+02  -8.896158e+01
   1.251232e+02  -6.670721e+01
   2.473655e+02  -2.362069e+01
   3.318172e+02   8.838142e+01
   2.489028e+02   2.902780e+02
   1.361674e+01   3.637176e+02
  -2.911038e+02   2.654018e+02
  -3.244308e+02   2.945616e+01
  -1.782356e+02  -9.400613e+01
   1.361315e+01  -1.906473e+02
   5.501043e+01  -9.142868e+01
  -3.329920e+01  -6.072981e+01
  -1.017913e+02   2.361133e+01
  -2.777322e+01  -8.442258e+01
   2.202644e+01  -7.127145e+01
   7.698054e+01  -4.975537e+00
   9.809853e+01   5.753787e+01
  -4.203202e+01   5.995764e+01
  -1.004410e+02   2.476149e+00
  -1.332518e+02  -1.879750e+02
   3.622074e+01  -2.737219e+02
   1.986479e+02  -1.597605e+02
   2.705146e+02   6.776588e+01
   2.343170e+02   2.572318e+02
   4.781171e+01   2.287687e+02
  -1.147349e+02   8.870602e+01
  -1.126603e+02   1.101269e+01
   1.193812e+01   2.089476e+01
  -7.338623e+00   6.047759e+01
  -5.257041e+01   5.068294e+01
  -6.666359e+01  -6.736998e+00
  -9.767181e+01  -2.366846e+01
  -4.236565e+01  -6.033994e+01
   2.384253e+01   2.789420e+01
  -7.477057e+00   8.749385e+01
  -1.409420e+02   6.387146e+01
  -2.411518e+02  -2.953121e+01
  -2.076666e+02  -1.543601e+02
  -5.013637e+00  -1.717630e+02
   1.964046e+02  -1.303914e+02
   1.773464e+02  -7.479681e+01
   1.297323e+02   5.217488e+01
  -3.763522e+01   5.454507e+01
  -4.701238e+01   1.711247e+01
   6.020641e+01  -7.795832e+01
   9.852173e+01   1.044587e+01
   1.148989e+02   3.575918e+01
   9.536355e+00   1.546189e+02
  -5.436328e+01   1.031595e+02
  -6.522344e+01  -3.030437e+01
   8.244532e-02  -5.711370e+01
   4.041887e+01   1.970320e+01
   1.029986e+01   1.580756e+02
  -8.641433e+01   1.018927e+02
  -1.872077e+02  -2.350875e+01
  -1.153066e+02  -1.555796e+02
   2.888389e+01  -1.228017e+02
   1.039498e+02  -8.756870e+01
   1.320819e+02   1.007384e+00
   1.243184e+01   6.611859e+01
  -3.211969e+01   5.003972e+01
  -6.272979e+01   3.476011e+01
   3.403746e+01  -5.608275e+01
   3.158340e+01   1.370785e+01
  -1.728279e+01  -6.883582e+00
  -1.091231e+02   6.106484e+01
  -8.237860e+01  -9.287971e+01
  -1.811083e+01  -9.722928e+01
   6.320643e+01  -9.865158e+01
   1.840567e+02   2.693998e+01
   1.299470e+02   1.274331e+02
   3.514372e+01   1.445394e+02
  -6.345399e+01   1.421469e+02
  -1.209073e+02   5.327908e+01
  -4.268803e+01  -6.788126e+00
  -4.145438e+01  -4.376376e+01
  -3.782671e+01   1.989873e+01
  -1.077983e+02   4.350365e+01
  -6.912424e+01  -5.085633e+01
   7.996872e+01  -6.662352e+01
   1.278163e+02  -4.434264e+01
   7.567486e+01   3.556153e+01
  -3.497849e+01   6.993232e+01
  -1.222182e+02   5.559297e+01
  -1.490105e+02  -5.577152e+01
  -5.808368e+01  -1.865393e+02
   7.526448e+01  -1.505368e+02
   2.343009e+02  -8.601379e+01
   2.157031e+02   8.315917e+01
   6.558497e+01   1.316019e+02
  -5.088039e+01   8.475671e+01
  -4.809884e+01   4.522026e+01
  -4.416349e+01   4.304344e+01
  -4.154871e+01   4.283233e+01
  -4.217441e+01   6.148085e+01
  -9.577070e+01  -3.302885e+01
  -9.682307e+01  -1.537985e+02
  -1.483399e+01  -1.703185e+02
   9.714772e+01  -1.241461e+02
   1.105853e+02   2.083648e+01
   9.644329e+01   6.377184e+01
  -6.030505e+01   1.148691e+02
  -6.380745e+01   1.100344e+02
  -4.227859e+01  -3.954438e+00
  -1.256052e+01  -3.305404e+01
   5.140031e+01  -1.554435e-01
  -9.724699e+00   1.298655e+01
  -1.090454e+02  -2.781335e+01
  -1.030295e+02  -5.683717e+01
   6.202909e+01  -3.212340e+01
   1.314915e+02  -1.015863e+01
   1.371223e+02   6.457455e+01
  -7.401376e+00   7.736114e+01
  -9.719249e+01   5.937255e+01
  -9.707057e+01  -4.168000e+01
  -2.334708e+01  -3.525320e+01
   2.207235e+01  -4.411070e+01
   7.064971e+01   4.041014e+01
   7.024919e+00   6.584376e+01
  -8.164282e+01   4.755094e+01
  -4.734909e+01  -3.113770e+01
  -5.760499e+01  -3.894661e+01
  -7.182115e+01  -4.429524e+01
  -3.177826e+01  -3.921441e+01
  -3.754168e+01  -4.240049e+01
  -3.875915e+01  -1.259654e+01
   2.698261e+01  -1.201877e+02
   1.326921e+02  -1.007761e+02
   1.570858e+02   2.954225e+01
   1.014140e+02   9.272152e+01
  -3.488487e+01   8.271833e+01
  -6.490684e+01   3.802047e+01
  -7.392397e+01   9.881803e+00
   6.198648e+01   1.375533e+01
   1.087623e+02   9.407414e+01
   1.327902e+01   8.514758e+01
  -5.331375e+01   8.134553e+01
  -6.900768e+01   1.996387e+01
  -1.177758e+02  -5.384708e+01
   2.554557e+00  -7.396007e+01
   1.977990e+01  -4.396950e+01
   5.691386e+01   1.583460e+00
   3.487592e+00   2.294465e+01
  -6.831084e+01  -1.909744e+01
  -5.020798e+01  -1.144934e+02
   6.263163e+01  -6.910521e+01
   1.361209e+02   2.183499e+01
   1.333108e+02   3.749425e+01
   2.183838e+00   1.452836e+02
  -3.833853e+01   1.269459e+02
  -8.667139e+01   9.573138e+00
  -3.441895e+01  -5.884856e+01
  -2.325044e+01  -8.605811e+01
   3.698762e+01  -2.082753e+01
   5.041083e+01   1.105835e+01
   1.133072e+01   1.942977e+01
   2.146899e+01  -2.106811e+01
   5.389070e+01   7.516439e+01
   2.307913e+01   7.824394e+01
   1.154909e+01   1.128635e+02
  -5.260131e+01   6.720184e+01
  -1.001320e+02  -8.118441e+00
  -6.252410e+01  -6.839630e+01
  -2.692724e+00  -5.497781e+01
   7.742941e+01  -2.212875e+01
   7.659580e+01  -1.694350e+01
   1.807283e+01   3.154077e+01
  -2.058838e+01   1.602578e+01
   4.967148e+00   3.091779e+01
  -1.233059e+01   7.383831e+00
  -1.040778e+01  -2.248360e+01
  -2.837538e+01  -2.542805e+01
  -7.640564e+01  -3.672702e+01
  -6.495740e+01  -8.400548e+01
   5.064198e+01  -6.570507e+01
   1.297355e+02  -4.764640e+01
   1.471378e+02   2.702602e+01
   5.289779e+01   1.127940e+02
  -7.018798e+01   1.300003e+02
  -9.010287e+01   5.714108e+01
  -8.227739e+01  -4.366495e+01
  -2.096333e+01  -4.068142e+01
  -3.775111e+01  -3.532265e+01
  -2.329958e-01  -9.385666e+00
  -2.124711e+01  -9.538198e+00
  -6.247837e+01  -2.295429e+01
   1.017988e+01  -3.196954e+01
   2.833093e+01   1.988273e+01
   8.286201e+01   5.747123e+01
  -2.769685e+01   8.348542e+01
  -4.987885e+01   3.121318e+01
  -8.433697e+01  -7.471714e+01
  -5.993807e+01  -1.182445e+02
   3.718682e+01  -6.797649e+01
   7.123270e+01   4.029332e+01
   4.416845e+01   3.704398e+01
  -2.085921e+01   6.348790e+01
   9.446707e+00   1.181216e+01
   3.353945e+01   1.508415e+01
   6.150662e+01  -3.415783e+01
   2.232478e+01   1.032604e+01
  -8.057893e+01   4.853029e+01
  -4.676692e+01   1.090163e+01
  -4.003920e+01   6.191262e-02
   6.621964e+00  -6.900673e+01
   3.584670e+01  -4.813494e+01
   3.111732e+00  -7.385578e+00
   6.917176e+00   2.012142e+01
  -1.787847e+01   8.707849e+00
  -1.493428e+01  -2.266419e+00
  -6.095399e+01  -2.580360e+01
   1.305454e+01  -4.133284e+01
   1.983186e+01  -3.219245e+01
   3.690414e+01   1.783088e+00
   4.194989e+01   1.501631e+00
   1.709586e+01  -2.762803e+01
   1.097780e+01  -5.999848e+00
   2.227342e+01   4.550910e+01
  -6.322212e+00  -8.034710e+00
  -3.555194e+01   1.097602e+01
  -1.820648e+00  -4.385707e+01
  -3.233500e+01  -2.528286e+01
   2.390528e+01   1.253542e+01
   3.229970e+01   3.805812e+01
  -3.744356e+00   2.509391e+01
  -4.345786e+01   5.023380e+01
  -6.121067e+01  -4.603391e+01
  -9.152079e+01  -3.432067e+01
   2.405799e+01   8.889551e-01
   6.882773e+01   2.837727e+00
   3.492660e+01   2.321128e+01
  -2.791477e+01  -3.623101e+00
   3.308045e+00  -2.185010e+01
   1.246370e+01  -3.412362e+01
   3.935037e+01   9.835465e+00
