
 $NMID
 id='ANONYMOUS ', fmtdat='(2E16.6)'
 volume=1.0
 tramp=1.0
 $END
  -1.551253e+03   1.428064e+02
  -1.251726e+03  -6.164694e+02
  -7.231399e+01  -1.040793e+03
   3.041541e+02  -7.924487e+02
   5.642501e+02  -2.198299e+02
   3.080595e+02   8.173714e+01
  -1.289417e+02   1.018264e+02
  -1.365637e+02  -1.984223e+02
   4.690392e+01  -3.601820e+02
   3.409658e+02  -1.331626e+02
   2.709450e+02   1.408279e+02
   1.180507e+02   3.254199e+02
  -3.793980e+01   1.797612e+02
  -1.152361e+02  -7.059281e+01
   1.183650e+01  -2.927964e+02
   1.507704e+02  -8.045143e+01
   2.774779e+02   1.982347e+02
  -2.151899e+01   3.190139e+02
  -2.729426e+02   2.251010e+02
  -3.231262e+02  -7.975095e+01
  -7.114553e+01  -2.096669e+02
   4.120962e+01  -2.189538e+02
   1.512642e+01  -1.437144e+02
  -9.633269e+01  -1.743343e+02
  -1.135548e+02  -6.766967e+01
   2.341238e+01  -1.364709e+02
   2.221160e+02  -3.241605e+01
   3.018754e+02  -1.382755e+01
   1.446048e+02   8.204433e+01
  -6.611122e+01   5.647988e+01
  -2.125303e+02   3.339762e+01
  -7.468445e+01  -9.936840e+01
   1.085943e+02  -1.623936e+02
   2.306755e+02  -9.500803e+01
   1.620737e+02   4.019369e+00
   8.316992e+01   1.512168e+02
   4.833308e+01   1.182192e+02
   3.648571e+01   1.659839e+01
   5.480379e+01   3.277164e+01
   1.700473e+01   6.913637e+01
   2.727470e+01   1.837271e+02
  -5.415751e+01   1.221564e+02
  -9.707314e+01   7.456083e+00
  -6.456114e+01  -9.230073e+01
   3.041022e+01  -4.770871e+01
   6.919201e+01   1.430148e+02
  -3.355273e+01   2.017218e+02
  -1.821913e+02   1.055248e+02
  -2.788774e+02  -1.378216e+02
  -1.269074e+02  -2.872396e+02
   1.401712e+02  -1.399310e+02
   2.780612e+02  -2.508663e+01
   1.967069e+02   1.136373e+02
   3.806196e+01   1.221393e+02
  -1.325532e+02   9.217231e+01
  -1.254132e+02   7.142829e+01
  -3.671205e+01   5.566367e-01
   7.230522e+00  -5.374087e+01
   1.641126e+01  -1.254950e+01
  -7.227155e+01  -6.379901e+00
  -7.141226e+01  -4.862757e+01
   3.326074e+01  -1.631130e+02
   1.927804e+02  -1.163623e+02
   2.001453e+02   4.028956e+01
   4.284698e+01   2.336310e+02
  -1.442733e+02   2.307924e+02
  -1.948297e+02   1.104571e+02
  -1.220038e+02  -1.283178e+02
  -6.615291e+01  -1.616022e+02
  -6.836668e+01  -1.408961e+02
  -7.547184e+00  -1.874417e+02
   1.098025e+02  -1.006345e+02
   5.744854e+01  -7.542928e+01
   1.676901e+02  -1.794441e+01
   1.290746e+02   7.241492e+01
   2.603080e+01   7.453231e+01
  -4.182470e+01   9.014379e+01
  -7.368024e+01  -5.657254e-01
  -2.937222e+01  -1.230230e+02
   3.057788e+01  -7.024306e+01
   9.035365e+01  -2.147075e+01
   1.548804e+02   8.795409e+01
   1.078966e+02   1.042073e+02
   1.269446e+01   1.322263e+02
  -7.790989e+01   1.185722e+02
  -9.502650e+01   1.243949e+02
  -7.455626e+01   8.883641e+01
  -1.705296e+02   2.785889e+01
  -2.550162e+02  -2.980641e+01
  -1.913466e+02  -1.499271e+02
   1.469138e+01  -1.878469e+02
   2.689637e+02  -2.316841e+02
   2.368059e+02  -5.235789e+01
   1.263050e+02   4.169282e+01
   8.654224e+00   1.477434e+02
  -5.940757e+01   1.058610e+02
   5.693996e+01   6.145628e+01
   2.714894e+01   3.297578e+01
   1.550576e+01  -5.965200e+00
   2.241286e+01   1.808117e+01
  -3.580192e+01   1.134139e+01
  -2.185432e+01  -2.707953e+01
  -1.091809e+01  -5.828723e+01
   4.200915e+01  -2.374251e+01
   6.637027e+01   1.051687e+02
   1.076166e+01   1.862939e+02
  -1.282094e+02   6.885823e+01
  -2.448191e+02  -3.890259e+01
  -1.627413e+02  -1.382715e+02
   1.836519e+01  -1.778827e+02
   2.917060e+01  -5.195499e+01
   6.079318e+01   1.407514e+00
   8.520976e+00  -1.347586e+01
  -3.766438e+00  -1.005891e+01
   2.326862e+01  -4.374011e+01
   6.541960e+01   1.241942e+01
   7.200655e+01   2.398567e+01
   6.639340e+00   5.261250e+01
  -9.841744e+01  -1.249230e+01
  -4.655141e+01  -1.211821e+02
   9.352268e+01  -9.607189e+01
   1.882285e+02  -1.229735e+00
   1.125059e+02   1.074102e+02
   4.009811e+01   1.151690e+02
  -1.144705e+02   1.215198e+02
  -1.546729e+02   5.418062e+01
  -4.680685e+01  -5.690057e-01
   2.534527e+01   4.862800e-02
   2.873063e+01   1.094905e+01
  -1.876681e+01   7.746684e+01
  -8.357736e+01  -5.606158e+00
  -1.233211e+02  -1.196152e+01
  -4.009242e+01  -1.104650e+02
   8.313883e+01  -5.254231e+01
   6.651844e+01  -4.065792e+01
   7.689508e+01   4.137389e+01
  -6.066566e+01  -1.646420e+01
  -1.725036e+01  -5.958214e+01
   4.548914e+01  -7.493810e+01
   7.556749e+01   1.130334e+01
   7.900027e+01   1.006773e+02
   3.043646e+01   1.117292e+02
  -7.531899e+01   1.091636e+02
  -8.439777e+01  -2.537925e+01
  -5.076470e+01  -4.349793e+01
   3.012033e+01  -1.430170e+01
  -3.748597e+00  -2.761210e+01
   2.439825e+01  -9.852019e+00
  -3.652134e+01   2.508600e+01
   2.967749e+01   2.154849e+00
   5.366220e+01  -7.537148e+00
   9.141063e+01   6.415872e+01
   3.270833e+01   9.398349e+01
  -7.924768e+01   4.782773e+01
  -1.131889e+02  -5.598679e+00
  -1.082942e+02  -6.763219e+01
   3.208147e+00  -1.241289e+02
   7.340700e+01  -4.478209e+01
   8.359029e+01  -3.777974e+01
   8.344929e+01   2.594223e+01
   7.896449e+01  -2.045644e+00
   1.639165e+01   8.982198e-01
   7.050426e+01  -2.509761e+01
   3.132985e+01   3.497417e+01
   2.546899e+00   4.314799e+01
  -4.590729e+01   5.909883e+01
  -7.418599e+01  -1.412825e+01
  -2.252623e+01  -6.436405e+01
   8.304445e+01  -4.664864e+01
   9.243438e+01   3.959382e+01
   3.535045e+01   1.144247e+02
  -2.028370e+01   1.297325e+02
  -1.282474e+02  -5.412675e+00
  -1.011498e+02  -3.769876e+01
  -6.931102e+01  -8.124650e+01
   4.692781e+01  -1.036547e+02
   3.012474e+01  -1.652853e+01
   1.935584e+01  -5.122141e+01
   2.032254e+01  -2.883330e+01
   8.225114e+01  -5.583904e+01
   8.337452e+01  -1.679731e+01
   6.483886e+01   9.746090e+01
   1.543495e+01   1.233781e+02
  -8.490817e+01   1.181744e+02
  -8.763529e+01  -3.360464e+01
  -5.531824e+01  -9.659547e+01
   2.093421e+01  -8.684320e+01
   4.685679e+01  -8.004845e+01
   3.249170e+01   4.301452e+01
   2.072613e+01   1.159672e+01
  -2.098344e+01   2.935175e+01
   4.891151e+01   2.028461e+01
  -3.098503e+00   2.201186e+01
   2.511379e+01  -9.346008e+00
  -6.112132e+01   4.777147e-01
  -7.677952e+01  -4.125222e+01
  -8.141676e+01  -2.796581e+01
  -1.234638e+01  -7.073653e+01
   6.675144e+01  -4.467427e+01
   9.758103e+01   9.267417e+00
   4.364809e+01   3.931722e+00
  -4.789001e+01   5.553287e+01
  -5.942610e+01   1.735467e+00
  -2.152688e+01  -6.165931e+01
   4.495469e+00  -3.646268e+01
   4.712537e+01   5.527939e+00
   1.056046e+02   1.405095e+01
   3.789085e+01   5.586185e+01
   3.791421e+01   1.213728e+01
   6.925886e+01  -3.067796e+01
   1.356245e+01   5.123807e+01
   3.332955e+01   7.131159e+01
  -2.641370e+01   5.460182e+01
  -7.162649e+01   5.591240e+01
  -7.072990e+01  -4.466137e+01
  -2.803116e+01  -8.782984e+01
   1.549008e+01  -2.091573e+01
   3.151936e+00   3.047243e+00
  -6.384438e+01   4.784852e-01
  -3.119627e+01  -4.627120e+01
  -5.444484e+01  -4.170217e+01
   2.939051e+01  -5.430301e+01
   8.985145e+01  -4.591463e+01
   9.359262e+01   3.228245e+01
   1.286786e+01   2.105775e+01
   3.180855e+01   3.733867e+01
  -2.576314e+01  -2.397512e+01
   1.490205e+01  -1.855752e+01
   8.226724e+01  -2.376484e+01
   3.776883e+01   4.915055e+01
  -1.068826e+01   8.327998e+01
  -4.017367e+01   5.579393e+01
  -8.275058e+01  -3.708203e+01
   9.558697e-01  -7.936510e+01
  -6.607040e+00  -9.586324e+01
   3.783039e+01   4.780508e+01
   6.725697e+01   1.014860e+02
   1.164038e+01   4.356080e+01
  -2.570529e+01   3.253348e+01
  -2.500919e+01   4.575801e+01
   1.517507e+00   8.502352e+00
   4.165560e+01   3.073997e+00
  -3.996735e+01  -1.649844e+01
  -7.620854e+01  -2.510793e+00
  -1.389231e+01  -2.375408e+01
   2.847522e+01  -3.403540e+01
   4.520219e+01   1.327184e+01
   5.633697e+01   4.120311e+01
   1.999456e+01   2.548805e+01
  -6.924573e+01  -1.384663e+01
  -8.124965e+01   1.830444e+01
  -3.777505e+01  -2.055539e+01
   4.830938e+01  -3.037792e+01
   3.932107e+01  -1.336784e+00
  -1.199432e+01   1.173849e+01
   2.454125e+01  -1.339404e+00
   3.392910e+01   1.576260e+01
   4.433099e+01   1.570916e+01
   2.847951e+01   9.605937e+01
  -5.319223e+01   7.937287e+01
  -8.399068e+01   7.364137e+01
  -1.092998e+02  -2.479163e+01
   4.006390e+00  -4.460540e+01
   1.688718e+01  -5.856999e+01
   6.744801e+01  -4.926244e+01
   3.955122e+01   1.614171e+01
   2.393129e+01   2.933576e+01
  -2.172247e+01  -3.811145e+00
   2.628333e+00   1.838233e+01
   2.649061e+01   2.795589e+01
   6.028583e+01   7.396102e+01
   2.148156e+01   3.707355e+01
  -2.433695e+01  -4.101827e+01
  -6.247536e+01  -1.947665e+01
   1.695559e+01  -8.610031e+01
   2.985607e+01  -1.281446e+01
   3.652297e+01   5.788990e+01
  -1.153927e+01   1.009699e+02
  -3.160989e+01   6.891200e+01
  -6.663854e+01  -4.785619e+00
  -3.664910e+01  -4.708412e+01
   1.154818e+01  -4.330843e+01
   5.821239e+00  -3.500747e+01
  -1.260222e+01   9.225651e+00
  -2.904122e+01   4.697464e+01
   1.753409e+01  -2.193564e+01
   1.364778e+01  -5.284730e+01
   6.368488e+01  -1.006930e+01
   1.561748e+01   2.099198e+01
   2.434146e+01   3.563369e+01
  -9.845266e-01   7.308872e+00
  -8.245264e+00  -1.724719e+01
   1.408716e+00  -1.671558e+00
   5.953255e+00  -5.633908e+01
  -3.997709e+00  -1.927698e+01
   3.479457e+01   7.021370e+01
  -1.903872e+00   1.858549e+01
  -3.040399e+01   7.667997e+00
  -4.711288e+01  -1.769407e+01
  -2.371109e+01  -3.959770e+00
  -7.568277e+00   4.656426e+01
  -1.952925e+01  -4.033096e+00
   1.166843e+01   2.339175e+00
   1.804058e+00  -3.050061e+01
   1.105816e+01  -2.995054e+01
   1.013504e+01  -3.950445e+01
   5.934626e+01   1.383177e+01
  -3.474789e+01   2.223812e+01
  -3.463920e+01   1.533828e+01
  -3.044579e+01  -3.566141e+01
   5.879191e+01  -1.229662e+01
   6.660498e+01  -2.416058e+01
   5.332246e+01   3.344810e+01
  -2.402909e+01  -7.025725e+00
  -1.998612e+01   7.912507e+00
  -2.626577e+00   1.609490e+01
   2.763518e+01  -2.419829e+01
   1.013810e+00   8.368497e+00
   6.207083e+00  -5.002410e+01
  -2.087852e+01   2.319317e+01
