
 $NMID
 id='ANONYMOUS ', fmtdat='(2E16.6)'
 volume=1.0
 tramp=1.0
 $END
  -1.629332e+03   6.488907e+02
  -1.002479e+03  -3.141209e+02
  -4.875851e+02  -8.817406e+02
   3.646904e+02  -1.162626e+03
   5.505988e+02  -2.740040e+02
   3.531110e+02   1.765479e+01
  -8.443128e+01   7.131717e+01
  -1.460099e+02  -1.056195e+01
  -3.612122e+01  -3.884900e+02
   2.590037e+02  -1.733677e+02
   2.068626e+02   1.570315e+02
   1.478943e+02   2.733263e+02
  -3.961976e+01   2.664209e+02
  -2.113130e+02  -9.810180e+01
  -7.436710e+01  -2.636492e+02
   1.533163e+02  -1.592883e+02
   2.450031e+02   1.797541e+02
   2.323028e+01   3.688297e+02
  -2.324082e+02   2.392909e+02
  -3.514219e+02  -2.899326e+01
  -2.319917e+02  -1.441369e+02
  -2.977930e+01  -2.115351e+02
  -2.066083e+01  -1.717669e+02
  -5.925130e+01  -1.255665e+02
  -5.067663e+01  -1.115199e+02
   2.493449e+01  -1.649670e+02
   2.142734e+02  -7.306904e+01
   3.368785e+02   4.844611e+00
   1.534281e+02   9.435985e+01
  -8.635347e+01   1.427370e+02
  -1.895411e+02  -2.203499e+01
  -7.791041e+01  -1.555552e+02
   1.168974e+02  -1.354896e+02
   2.066393e+02  -1.291003e+02
   1.638044e+02   3.457095e+01
   1.034207e+02   9.532154e+01
   5.154750e+01   1.270895e+02
   1.931361e+01  -1.506036e+00
   3.814428e+01  -2.890421e+00
   7.419569e+01   9.895008e+01
   8.669959e+00   1.868162e+02
  -1.877750e+01   2.704900e+02
  -8.456277e+01   1.744148e+01
  -1.276499e+02  -1.048292e+02
  -2.244897e+00  -6.656014e+01
   7.483416e+01   9.125276e+01
   1.788353e+01   1.653316e+02
  -2.007231e+02   7.374540e+01
  -2.778196e+02  -1.110784e+02
  -1.610270e+02  -2.626925e+02
   1.049593e+02  -1.974760e+02
   2.480995e+02  -7.231815e+01
   2.901045e+02   7.253169e+01
   3.511639e+01   1.041698e+02
  -1.375648e+02   1.110382e+02
  -1.521480e+02   6.444977e+01
  -2.510808e+01  -7.490285e+00
   5.172515e+01  -4.536064e+01
   5.293301e+01   2.117424e+01
  -1.248396e+02   2.875944e+01
  -1.392800e+02  -1.401299e+02
   4.276638e+01  -1.624979e+02
   2.456052e+02  -1.628426e+02
   2.306981e+02   3.466023e+01
  -5.071878e+00   2.550410e+02
  -1.360873e+02   2.049497e+02
  -2.350970e+02   5.996383e+01
  -1.159586e+02  -1.401067e+02
  -1.019527e+02  -1.856844e+02
  -7.621520e+01  -2.016925e+02
  -1.431709e+01  -1.258022e+02
   3.782115e+01  -1.232042e+02
   9.935695e+01  -4.518109e+01
   1.331971e+02  -6.400070e+01
   1.633209e+02  -1.491519e+01
   7.286942e+01   1.792608e+02
  -6.516411e+00   1.199328e+02
  -1.048980e+02   6.678690e+00
  -1.301444e+02  -8.520416e+01
  -5.345685e+01  -1.273323e+02
   9.019902e+01  -8.365057e+01
   1.279998e+02   3.832625e+01
   1.952970e+02   1.587498e+02
   2.139798e+01   1.524083e+02
  -1.152560e+02   7.900761e+01
  -7.240865e+01   1.253629e+01
  -7.795878e+01   5.854512e+01
  -1.359183e+02   8.885709e+01
  -2.065885e+02   3.122339e+01
  -2.769282e+02  -1.986697e+02
  -5.428881e+01  -2.390261e+02
   1.821935e+02  -2.360634e+02
   2.669541e+02  -1.454842e+02
   1.176386e+02   6.167921e+01
   6.437369e+01   1.625109e+02
  -7.328139e+00   1.296952e+02
  -8.328166e-02   5.572048e+01
   1.164382e+02  -2.116059e+01
   4.721400e+01   6.184208e+00
   2.154916e+01   8.874594e+01
  -3.483179e+01   1.764048e+01
  -4.639888e+01  -2.267879e+01
  -2.385574e+01  -8.793676e+01
   5.838317e+01  -5.491451e+01
   1.084838e+02   6.719011e+01
   7.402585e+01   2.020806e+02
  -1.221549e+02   1.621924e+02
  -1.789377e+02   6.276508e+00
  -1.883078e+02  -1.283601e+02
  -3.922334e+01  -1.077171e+02
   4.237213e+01  -5.185850e+01
   8.434060e+01  -4.847561e+01
   1.652235e+01   9.212243e+00
  -3.937319e+01  -6.974267e+01
   3.008072e+01  -7.760239e+01
   7.527161e+01  -2.863830e+01
   8.018675e+01  -3.529984e+00
   1.470415e+01  -7.997701e-01
  -3.508799e+01   7.301329e+00
  -2.490594e+01  -1.056030e+02
   7.898945e+01  -3.357089e+01
   2.201181e+02  -2.223059e+01
   1.547942e+02   1.117839e+02
   8.126805e-01   1.432168e+02
  -9.581292e+01   1.236302e+02
  -1.564484e+02   9.084819e+01
  -5.789438e+01   2.375365e+00
   1.503056e+01  -4.534141e+01
   4.137861e+01  -8.190100e+00
  -4.237288e+01   7.717733e+01
  -1.055587e+02   5.939887e+01
  -1.163740e+02  -3.220949e+01
  -1.904303e+01  -9.910593e+01
  -1.354980e+01  -5.700440e+01
   5.908976e+01  -5.356536e+01
   4.280925e+01   4.897960e+00
  -1.098751e+01  -9.883297e+00
  -3.133526e+01  -4.179027e+01
   2.106896e+01  -1.050524e+02
   1.525651e+02  -2.757601e+01
   1.562108e+02   8.299953e+01
   4.250806e+01   1.364079e+02
  -8.026767e+01   1.061622e+02
  -1.285471e+02   2.529190e+01
  -6.595518e+01  -4.085415e+01
   2.681710e+01  -6.074869e+01
   4.046461e+01  -8.666397e+01
  -3.641150e+00  -7.306634e+00
  -3.302726e+01  -3.568859e+00
  -1.321201e-01  -8.367836e+00
   6.454756e+01   1.349805e+01
   6.155013e+01   1.353639e+01
   3.899652e+01   8.808680e+01
  -6.200319e+01   1.316787e+02
  -1.378385e+02  -1.870107e+01
  -1.094319e+02  -4.262162e+01
  -7.896130e+01  -1.114277e+02
   9.142348e+01  -1.101831e+02
   9.517981e+01  -5.392225e+01
   5.284072e+01   4.385105e+01
   2.546296e+01   6.218432e+01
  -2.309829e+01  -6.437493e+01
   7.470549e+00  -3.946448e+01
   4.050678e+01   2.268632e+01
  -1.801596e+01   9.045984e+01
  -5.453111e+01   7.687945e+01
  -9.486142e+01  -1.121711e+01
  -4.717040e-01  -5.413660e+01
   5.295744e+01  -2.169436e+01
   1.188416e+02  -5.737703e-02
   9.373531e+01   1.450853e+02
  -2.684882e+01   1.415180e+02
  -1.453441e+02   1.063720e+02
  -1.283687e+02   6.458971e+00
  -5.750939e+01  -5.127179e+01
  -2.794951e+01  -8.578919e+01
   7.030188e+01  -9.494856e+01
   6.154160e+01  -4.632718e+01
   7.977072e+01  -9.677725e+01
   4.557969e+01  -6.813511e+01
   3.737421e+01  -4.908475e+01
   9.223766e+01   8.393274e+01
   7.279605e+01   1.133860e+02
  -4.953659e+01   1.087293e+02
  -8.942982e+01   1.086715e+01
  -8.270848e+01  -5.256554e+01
  -2.366467e+00  -7.168567e+01
   4.576624e+01  -6.022628e+01
   3.354524e+01   1.399860e+01
   2.847949e+00   4.987171e+01
  -4.707115e+01   2.459016e+01
   3.177889e+01  -1.950390e+01
   2.246300e+01  -7.632759e+00
   4.456988e+01   5.242318e+01
  -9.142646e+00   4.233778e+01
  -9.830541e+01   6.241371e+00
  -2.073928e+01  -4.278645e+01
   5.098158e+01  -8.276730e+01
   5.699357e+01  -3.233518e+01
   1.067422e+02   2.244877e+01
  -1.164781e+01   2.604242e+01
  -2.208859e+01   2.814369e+01
  -3.026977e+01  -3.766207e+01
  -3.658061e+01  -4.064368e+01
  -1.342916e+01  -9.511657e+01
   6.199821e+01  -2.210417e+01
   3.823187e+01   5.245113e+01
   4.227136e+01   3.706037e+01
   4.475142e+00   1.249433e+01
   5.349150e+01   6.449393e-03
   9.216699e+01   2.567467e+01
  -1.605862e+01   1.121748e+02
  -6.853058e+01   1.003014e+02
  -1.063328e+02   2.724087e+01
  -8.357551e+01  -5.914506e+01
  -2.473762e+01  -7.995860e+01
   2.461101e+01  -7.525938e+01
   5.610659e+01  -1.082452e+01
  -6.036690e+01   2.266635e+01
  -5.769819e+01   2.304209e+00
  -7.697470e+01  -3.754921e+01
   3.490710e+01  -4.382006e+01
   1.610539e+02  -5.311837e+01
   1.041520e+02   3.655547e+01
   3.608543e+01   6.238725e+01
  -2.473019e+01   7.986557e+01
  -6.395742e+00   5.671485e+00
   1.485150e+01   5.954055e+00
   5.145848e+01  -2.463203e+01
   3.040109e+00   5.141488e+01
  -3.396981e+01   7.453956e+01
  -6.727353e+01   3.626088e+01
  -7.653825e+01  -3.659690e+01
   1.017367e+01  -9.130847e+01
   8.343315e+01  -6.254855e+01
   4.846550e+01   3.476345e+01
   4.298268e+01   2.712080e+01
  -2.045452e+00   1.016274e+02
  -2.203771e+00   3.298497e+00
  -4.898140e+01   1.392208e+01
  -2.939567e+01   1.499397e+01
   7.308419e+00  -1.519968e+01
  -4.468536e+01   3.179799e+01
  -3.904498e+01  -5.752123e+01
  -5.330152e+01  -5.306868e+01
   3.890441e+01  -2.393303e+01
   1.119519e+02   1.189571e+01
   8.239193e+01   3.172709e+01
   1.218741e+01   4.130797e+01
  -8.084062e+01   3.796376e+01
  -3.633819e+01  -1.994459e+01
  -1.883604e+01   2.104379e+01
   4.764784e+01   1.224825e+01
   2.627919e+01   6.453594e-01
   9.124099e+00   1.303920e+01
  -3.238696e+00   2.350142e+01
   4.358659e+01  -2.527802e+01
   6.224755e+01   1.287325e+01
   1.242695e+01   4.440180e+01
  -2.578483e+01   1.253473e+02
  -1.247857e+02   4.376537e+01
  -9.828449e+01  -1.894766e+00
  -4.812361e+01  -9.399944e+01
   1.758234e+00  -6.910821e+01
   3.232700e+01  -7.591726e+01
   4.465792e+01  -4.146817e+00
   6.674809e+00  -2.978397e+00
   3.057560e+01   2.083997e+00
   3.429617e+00  -3.079855e+01
   3.927513e+01   2.929452e+01
   7.345002e+01   5.612030e+01
   2.246227e+01   5.160759e+01
  -3.014422e+01  -2.925756e+01
  -4.823470e+01  -4.799576e+01
  -2.360586e+01  -6.046130e+01
   2.592860e+01  -2.259855e+01
   9.215670e+01   2.154773e+01
   2.791524e+01   6.017537e+01
  -4.689450e+01   2.116282e+01
  -5.093566e+01   2.801072e+01
  -1.777948e+01  -4.544432e+01
   3.322760e+01  -6.412739e+01
  -2.712536e+01  -1.346984e+01
  -8.993849e+00  -2.099255e+01
  -2.988374e+01   1.149190e+01
  -3.291287e+01  -6.453147e+00
   3.858089e+01  -2.659173e+01
   4.798321e+01  -4.678200e+01
   4.134055e+01   2.412018e+00
  -6.283323e+00   5.416979e+01
   1.030727e-01   5.742812e+01
  -4.214801e+01   3.957080e+01
  -5.136323e+01  -5.716462e+00
   2.550544e+01  -2.898898e+01
   1.866987e+01  -1.985201e+01
   2.252468e+01   2.287031e+01
   3.661727e+00   4.072968e+01
   7.146294e+00   9.311209e+00
   1.407357e+00  -2.115556e-01
  -1.179574e+01  -2.630960e+01
   2.453241e+01   6.396345e+00
  -2.565883e+01   1.343167e+01
   6.868801e+00  -1.170657e+01
   5.412342e+00  -6.385132e+00
   1.335377e+01  -6.040429e+00
  -3.170346e+00  -7.458247e+00
   1.174301e+01   2.350701e+01
  -2.567239e+01   3.437908e+01
  -1.606074e+01  -1.781815e+01
  -1.343625e+00  -2.815059e+01
   1.716057e+01   1.535374e+01
   5.599061e+01   1.965790e+01
   5.210802e+01   1.161809e+01
  -3.235348e+01  -1.291196e-01
  -7.161330e+01   3.292611e+01
  -9.978813e+00   1.449866e+01
   1.368377e+01  -4.780216e+01
   3.012993e+01  -1.250554e+01
  -2.932888e+01   4.715164e+00
  -1.913817e+01   1.333261e+01
