
 $NMID
 id='ANONYMOUS ', fmtdat='(2E16.6)'
 volume=1.0
 tramp=1.0
 $END
   4.077535e+03   6.775029e+01
   2.431665e+03   2.403740e+03
  -5.496279e+02   2.001132e+03
  -1.719689e+03   5.283892e+02
  -8.185946e+02  -4.961687e+02
   5.808008e+02  -4.087613e+02
   6.901172e+02   4.313709e+02
  -4.574834e+01   8.972112e+02
  -7.625710e+02   5.966531e+02
  -8.611471e+02  -1.909750e+02
  -3.520221e+02  -8.052551e+02
   2.536241e+02  -8.148357e+02
   5.789533e+02  -4.836466e+01
   3.005775e+02   7.236381e+02
  -2.918711e+02   7.378296e+02
  -5.276338e+02  -5.769452e+01
  -2.337199e+02  -6.229362e+02
   3.455192e+02  -5.907478e+02
   5.435913e+02  -4.724092e+01
   4.254703e+02   3.554939e+02
  -4.726467e+01   3.722503e+02
  -1.998108e+02   2.189101e+02
  -1.388681e+02  -1.428936e+01
   1.463736e+02  -6.300508e+01
   3.704005e+02   1.787266e+02
   1.736724e+02   4.242522e+02
  -4.804545e+02   3.938282e+02
  -7.950477e+02  -1.728443e+02
  -2.926427e+02  -5.729740e+02
   4.295712e+02  -3.762779e+02
   6.580475e+02   7.643657e+01
   2.951674e+02   4.855902e+02
  -2.843197e+02   4.632872e+02
  -5.663713e+02   1.063727e+02
  -3.859134e+02  -2.435567e+02
  -3.864295e+01  -4.701846e+02
   2.010170e+02  -2.204878e+02
   9.123060e+01   2.635076e+02
  -1.847145e+02   3.270088e+02
  -4.440055e+02  -9.260546e+01
  -1.285038e+02  -6.714403e+02
   3.456589e+02  -5.604899e+02
   5.186617e+02   1.338740e+01
   1.705404e+02   5.311265e+02
  -3.205568e+02   2.889207e+02
  -3.167568e+02  -3.010161e+02
   1.681794e+02  -5.620201e+02
   5.449629e+02  -1.268881e+02
   5.199260e+02   4.136929e+02
   1.533556e+02   5.547024e+02
  -3.380295e+02   3.228864e+02
  -6.468138e+02  -5.650889e+01
  -3.064704e+02  -3.554763e+02
   1.662850e+02  -3.391327e+02
   4.207413e+02  -2.996475e+01
   2.132293e+02   1.293121e+02
  -1.035984e+02   9.622739e+01
  -1.135061e+02  -1.365903e+02
   1.557755e+02  -1.192237e+02
   3.022259e+02   1.090091e+02
   1.147583e+02   3.102714e+02
  -1.872722e+02   2.802695e+02
  -3.152034e+02   9.011644e+01
  -1.828546e+02  -9.314939e+01
   2.808629e+01  -2.179354e+02
   1.748684e+02  -2.900853e+02
   3.303736e+02  -2.273605e+02
   2.243775e+02   1.426827e+02
   2.289245e+01   3.783344e+02
  -1.345509e+02   3.560226e+02
  -8.970205e+01   5.923690e+01
  -4.754682e+01  -1.568462e+01
  -6.363827e+01   4.729589e+01
  -1.924527e+02   1.130804e+02
  -2.207819e+02  -8.460072e+01
  -1.741515e+02  -2.941706e+02
   9.926735e+01  -2.301693e+02
   2.155011e+02   4.692869e+01
   1.983111e+02   2.424130e+02
  -4.139148e+01   2.908362e+02
  -2.459865e+02   1.217180e+02
  -3.111608e+02  -1.492070e+02
  -1.880683e+02  -3.184532e+02
   9.705828e+01  -2.603671e+02
   2.180227e+02  -8.306608e+01
   1.759481e+02   1.877645e+01
   6.473385e+01   2.357432e+01
   1.984517e+02  -3.860827e+01
   2.822983e+02   9.245283e+01
   2.709592e+02   2.835983e+02
  -4.295542e+01   3.926311e+02
  -3.527610e+02   3.978735e+02
  -4.888516e+02   1.555408e+02
  -3.504479e+02  -1.359423e+02
  -5.012849e+01  -3.301645e+02
   1.620682e+02  -2.265660e+02
   6.931858e+01  -2.481862e+01
  -8.712191e+01   8.673777e+01
  -1.746990e+02   1.731227e+01
   1.051694e+01  -1.919518e+02
   1.630478e+02  -1.193331e+02
   2.105898e+02   1.771015e+01
   1.915413e+01   2.068486e+02
  -2.012190e+02   4.629551e+00
  -1.259068e+02  -2.217779e+02
   2.920940e+01  -3.318637e+02
   2.324976e+02  -1.717007e+02
   3.091165e+02   1.094587e+02
   2.456321e+02   2.727397e+02
   9.576821e+01   3.055645e+02
  -1.092686e+02   1.843181e+02
  -1.479646e+02   4.620063e+00
  -2.078179e+01  -6.246669e+01
   6.391979e+01   6.251517e+00
  -2.101776e+01   1.243260e+02
  -1.438986e+02   9.096106e+01
  -1.822433e+02  -9.102721e-02
   5.773609e+00  -7.746809e+01
   1.069819e+02  -5.437971e+01
   6.134017e+01   9.818515e+01
  -8.276685e+01   8.048037e+01
  -2.751678e+02   4.379479e+01
  -2.452044e+02  -1.387172e+02
  -3.671964e+01  -2.569936e+02
   1.607395e+02  -2.529711e+02
   2.859299e+02  -9.635279e+01
   1.948962e+02   6.582225e+01
   5.442014e+01   1.232740e+02
  -1.066355e+02   5.057043e+01
   2.751167e+01  -1.091105e+02
   1.759729e+02  -6.451340e+01
   1.994271e+02   7.900996e+01
   5.455871e+01   1.768320e+02
  -7.125775e+01   2.166608e+02
  -1.618437e+02  -7.928672e+00
  -8.309949e+01  -4.985103e+01
   3.408767e+01  -2.716809e+01
  -6.165978e+00   1.081270e+02
  -8.120803e+01   1.027937e+02
  -2.013557e+02   6.911104e+00
  -1.619644e+02  -1.268242e+02
  -1.901206e+01  -2.293072e+02
   1.305609e+02  -1.352418e+02
   2.220578e+02   4.694589e+01
   6.964971e+01   7.486998e+01
  -7.810325e+01   7.633785e+01
  -9.817805e+01   4.429412e+01
  -1.703620e+01  -2.513662e+01
  -1.237280e+00  -2.949096e+01
   1.312159e+01  -2.769485e+01
  -6.685098e+01  -8.313795e+00
  -7.332259e+01  -1.240560e+02
  -4.797706e+00  -1.659266e+02
   1.501395e+02  -1.306308e+02
   2.117598e+02  -1.448640e+00
   1.972277e+02   1.278174e+02
   2.437170e+01   2.077262e+02
  -1.446276e+02   1.727650e+02
  -1.516838e+02  -1.344530e+01
  -4.218677e+01  -2.919285e+01
   1.369590e+01  -1.095984e+02
  -3.765083e+01  -1.388070e+01
  -4.532346e+01   3.955904e+00
  -4.899154e+01  -8.912415e+01
   2.543363e+01  -9.811717e+01
   9.845780e+01  -4.305456e+01
   7.927555e+01   3.589682e-01
  -9.598547e-01   1.144147e+02
  -1.453397e+02   1.503710e+02
  -1.334007e+02   6.012931e+00
  -9.143403e+01  -2.109533e+02
   1.069277e+02  -2.287652e+02
   2.753404e+02  -6.501870e+01
   2.147228e+02   1.187012e+02
   8.355493e+01   1.324367e+02
  -4.014869e+01   1.269741e+02
  -8.778257e+01   6.500777e+01
  -1.371419e+02   2.775751e+01
  -9.814921e+01   1.020118e+02
  -9.808666e+01   6.699660e+01
  -1.177999e+02  -1.687751e+01
  -9.549706e+01  -1.491431e+02
  -5.390332e+01  -1.717910e+02
   7.306095e+01  -1.727396e+02
   1.142745e+02  -3.565561e+01
   1.300909e+02   9.909337e+01
   6.374577e+00   1.361517e+02
  -6.690759e+01   8.696416e+01
  -9.466505e+01  -6.034369e+00
   1.086697e+01  -6.566776e+01
   1.131219e+00  -7.152901e+01
  -2.955024e+01  -6.181752e+01
  -1.445296e+02  -3.647676e+01
  -2.201710e+01  -1.567548e+01
   3.153696e+01  -9.077349e+00
   1.698162e+02  -2.739766e+00
   1.507027e+02   2.646881e+01
  -1.485720e+01   7.379978e+01
  -9.917976e+01   6.846524e+01
  -1.521870e+02   1.200431e+01
  -3.785998e+01  -8.390612e+00
   8.133891e+01  -1.673331e+01
   7.480218e+01   7.554951e+01
   1.128117e+01   4.563884e+01
  -3.966852e+01   2.372483e+01
  -8.319551e+00  -5.118094e+00
  -3.179857e+01  -4.442984e+01
  -6.045687e+01  -3.685896e+01
  -8.027269e+01   1.679348e+01
  -6.585362e+01  -1.305615e+01
  -1.670651e+01  -9.499107e+01
   4.403598e+01  -1.576187e+02
   9.740419e+01  -1.068532e+02
   1.872891e+02  -2.856850e+01
   1.582090e+02   9.842427e+01
   9.165504e+00   1.072665e+02
  -1.149636e+02   6.799308e+01
  -4.645949e+01  -1.472428e-01
   7.237377e+01  -1.720827e+01
   1.350421e+02   1.683816e+01
   3.476806e+01   1.673443e+02
  -5.903983e+01   1.285392e+02
  -1.921921e+02   1.375528e+01
  -1.263052e+02  -3.012878e+01
  -3.058069e+01  -7.671923e+01
   5.896624e+01  -5.273219e+01
   5.101031e+01   8.511633e-01
  -2.847187e+01   1.544543e+01
  -9.549104e+01  -3.700114e+01
  -2.689839e+01  -1.057475e+02
   9.561035e+01  -1.333603e+02
   1.456603e+02  -5.715003e+01
   1.080345e+02   1.129219e+02
  -9.363278e+00   2.181818e+02
  -2.626694e+01   1.042175e+02
  -8.223266e+01   2.128064e+01
  -6.185489e+01  -1.353962e+02
  -2.093156e+01  -6.780575e+01
   5.446271e+01  -2.786787e+01
   5.178338e+01   4.314295e+01
   5.458473e+01   2.498779e+01
   9.564718e+00  -4.250800e+01
  -3.051332e+00   4.750227e+00
   7.105337e+01   9.155168e+01
  -9.394026e+00   1.025852e+02
  -5.541334e+01   3.771226e+01
  -1.113019e+02  -2.031489e+01
  -9.255849e+01  -8.286135e+01
  -1.904778e+01  -4.896699e+01
   8.717361e+01  -1.368740e+01
   6.165124e+01  -7.454416e+00
  -1.323355e+00   2.891838e+01
  -2.512999e+01   1.725337e+01
  -3.132223e+01   3.002529e+01
   1.086932e+01  -8.198081e+00
  -2.528051e+01  -6.315356e+00
  -5.761225e+01   1.855259e+01
  -1.022584e+02  -3.916399e+01
  -5.655433e+01  -8.909843e+01
   1.233530e+02  -1.136338e+02
   1.643886e+02  -8.188775e+01
   1.586427e+02   4.489201e+01
   8.601475e+00   1.778457e+02
  -9.122162e+01   1.404830e+02
  -9.351281e+01   7.113147e+01
  -3.587616e+01   7.986520e+00
  -3.204945e+01   4.731378e+00
   3.923762e+00   1.848912e+00
   8.609869e+00  -1.858000e+01
   1.246303e+00  -6.754077e+01
   2.300563e+01  -5.051340e+01
  -8.715511e+00  -5.923085e+01
   5.542032e+01   2.194031e+01
   5.965615e+01   1.104396e+02
   4.253092e+01   1.146871e+02
  -6.073217e+01   3.183798e+01
  -1.087083e+02  -8.116943e+01
  -6.596303e+01  -9.279238e+01
   7.755478e+01  -6.426619e+01
   4.904968e+01   2.433835e+01
  -1.078923e+01   5.491292e+01
  -5.738680e+01   7.371744e+01
  -4.687046e+01   1.223273e+01
   2.771318e+01   2.095528e+01
   5.756616e+01  -2.201231e+01
   1.522320e+01  -2.624451e+01
  -1.284402e+02   7.282969e+01
  -1.405472e+02   3.774321e+01
  -2.098847e+01  -6.956527e+00
   2.492771e+00  -5.695258e+01
   9.347047e+01  -9.956346e+01
   2.724354e+01  -7.289377e+00
   2.546533e+01   6.733075e+01
  -1.635927e+01   2.245952e+01
  -2.673388e+01   1.584846e+01
  -3.023385e+01  -4.278759e+01
  -3.766462e+00  -3.985817e+01
   4.618063e+01   4.029884e+01
   3.296683e+01   5.060292e+01
  -1.264198e+01  -1.489357e+01
   1.439435e+01  -3.431305e+00
   9.485373e+00   1.074792e+00
  -7.156022e+00   6.685829e+01
  -2.010992e+01   3.001983e+01
  -4.650060e+01  -7.558875e-01
  -1.377505e+00  -1.263166e+01
   2.164258e+01  -8.364076e+01
   4.892127e+01  -1.892694e+01
   6.085322e+01   7.436440e+01
  -1.081323e+01   7.527613e+01
  -4.884320e+01   1.838628e+01
  -1.009766e+02   2.365057e+01
  -7.723979e+01  -5.391936e+01
   3.664331e+00  -5.957586e+01
   5.307425e+01  -3.529710e-01
  -1.326321e+01  -1.862383e+01
  -4.600253e+01  -7.018939e+00
  -3.664015e+01  -7.746012e+01
   3.085473e+01  -1.173096e+01
   9.176119e+01   3.686882e+01
