
 $NMID
 id='ANONYMOUS ', fmtdat='(2E16.6)'
 volume=1.0
 tramp=1.0
 $END
   4.477418e+03   1.822529e+02
   2.349985e+03   2.439590e+03
  -5.250615e+02   2.587319e+03
  -1.715999e+03   1.069415e+03
  -8.497281e+02  -3.348731e+02
   4.364829e+02  -4.291105e+02
   6.858557e+02   4.127036e+02
  -4.732417e+01   9.572012e+02
  -8.052884e+02   7.498786e+02
  -8.170271e+02  -1.345213e+02
  -4.111128e+02  -7.908744e+02
   2.183301e+02  -7.480905e+02
   6.055905e+02  -1.304760e+02
   3.831844e+02   6.255182e+02
  -2.729039e+02   6.964832e+02
  -6.042873e+02   3.877811e+00
  -3.229115e+02  -6.890902e+02
   2.746338e+02  -6.461286e+02
   5.670808e+02  -1.434480e+02
   4.608889e+02   3.199343e+02
   9.719228e+00   4.477672e+02
  -2.514549e+02   2.964395e+02
  -1.442962e+02   1.186846e+01
   1.257014e+02  -2.425938e+01
   4.061339e+02   1.982641e+02
   9.530144e+01   4.442113e+02
  -5.098816e+02   3.455835e+02
  -7.585591e+02  -1.948982e+02
  -3.948600e+02  -5.250261e+02
   3.694701e+02  -4.203366e+02
   6.607817e+02   5.711479e+01
   3.082318e+02   5.093949e+02
  -2.980555e+02   4.864836e+02
  -5.061568e+02   1.369960e+02
  -3.647493e+02  -2.427638e+02
  -1.613596e+01  -3.922744e+02
   2.333557e+02  -2.706098e+02
   1.037258e+02   2.321869e+02
  -2.283986e+02   3.638063e+02
  -4.271566e+02  -6.128172e+01
  -1.035498e+02  -6.046046e+02
   2.704444e+02  -5.964255e+02
   5.222624e+02   2.909801e+01
   2.229577e+02   4.802424e+02
  -2.922052e+02   2.796758e+02
  -2.854861e+02  -2.795345e+02
   9.237886e+01  -4.844630e+02
   5.456356e+02  -1.213312e+02
   5.998359e+02   4.226467e+02
   1.896054e+02   6.183275e+02
  -4.079264e+02   3.296939e+02
  -6.558123e+02  -8.815232e+01
  -3.383463e+02  -3.635182e+02
   1.422333e+02  -3.385060e+02
   4.001516e+02  -5.987360e+01
   2.688655e+02   1.745008e+02
  -6.220819e+01   6.042524e+01
  -1.458704e+02  -1.220743e+02
   2.041014e+02  -1.654015e+02
   3.498206e+02   7.838954e+01
   2.065016e+02   3.069306e+02
  -2.078320e+02   2.622221e+02
  -3.415503e+02   8.895123e+01
  -2.269524e+02  -7.624148e+01
   6.152985e+01  -2.807118e+02
   2.524639e+02  -3.449671e+02
   3.558894e+02  -1.860940e+02
   2.938188e+02   1.974298e+02
   5.662961e+01   3.935073e+02
  -1.222349e+02   3.910971e+02
  -7.486172e+01   7.998331e+01
   2.949518e+01  -2.511497e+01
  -5.989858e+01   7.668691e+01
  -1.776195e+02   9.440110e+01
  -2.689955e+02  -7.775663e+01
  -1.651510e+02  -2.784610e+02
   7.914123e+01  -2.506712e+02
   2.511521e+02  -2.260750e+01
   1.917535e+02   2.494461e+02
  -1.101993e+01   3.022549e+02
  -2.658839e+02   6.018763e+01
  -3.721405e+02  -1.696451e+02
  -1.887415e+02  -3.708545e+02
   7.480435e+01  -3.021093e+02
   2.562894e+02  -1.377861e+02
   1.167967e+02  -2.706669e+01
   1.061416e+02   2.565790e+01
   2.313702e+02  -3.171854e+01
   3.390340e+02   8.587866e+01
   3.335953e+02   2.272669e+02
  -2.846607e+01   4.895714e+02
  -3.346403e+02   4.044347e+02
  -4.705633e+02   2.222006e+02
  -3.483422e+02  -6.267414e+01
  -4.165039e+01  -3.243290e+02
   1.367544e+02  -2.210780e+02
   5.562057e+01  -1.451328e+01
  -9.624806e+01   1.264835e+02
  -1.900342e+02   3.794575e+01
  -2.038365e+01  -1.760459e+02
   1.105220e+02  -1.703922e+02
   1.621564e+02   5.442327e+01
  -2.629632e+01   1.929138e+02
  -1.522155e+02  -1.640525e+01
  -1.140659e+02  -2.472581e+02
   1.519275e+01  -3.223913e+02
   2.468416e+02  -2.314056e+02
   3.863242e+02   7.020612e+01
   2.507628e+02   3.310096e+02
   1.063188e+02   3.130302e+02
  -1.351146e+02   1.908806e+02
  -1.724386e+02  -1.387033e+01
  -5.727947e+01  -2.541940e+01
   9.186289e+01   9.258118e-01
   2.216087e+01   8.512787e+01
  -1.050125e+02   8.085477e+01
  -1.484135e+02  -5.453147e+00
  -1.010840e+01  -3.099940e+01
   5.542381e+01  -6.052920e+01
   5.034769e+01   4.223759e+01
  -1.968235e+02   8.712680e+01
  -2.532589e+02   1.533520e+01
  -2.698718e+02  -1.137047e+02
  -9.349220e+01  -2.616810e+02
   2.022926e+02  -2.351479e+02
   3.499459e+02  -1.433617e+02
   1.784738e+02   6.186413e+01
  -4.835837e+01   1.138085e+02
  -1.119440e+02  -6.027654e+00
   5.845995e+01  -7.853214e+01
   1.323252e+02  -3.052052e+01
   2.114639e+02   7.893949e+01
   1.145800e+02   2.248238e+02
  -7.967998e+01   1.497581e+02
  -1.006523e+02   4.708016e+01
  -7.819664e+01  -4.182464e+01
   4.760765e+01   9.515905e+00
   3.970532e+01   7.043026e+01
  -9.333737e+01   1.661019e+02
  -2.039406e+02   3.558225e+01
  -2.050468e+02  -1.199543e+02
  -3.897467e+01  -2.370879e+02
   1.520258e+02  -1.947337e+02
   1.846358e+02   2.907608e+01
   7.405590e+01   1.255699e+02
  -5.056484e+01   1.154056e+02
  -1.210405e+02  -5.892969e+00
  -3.839925e+01  -4.021178e+01
  -3.406653e+00  -3.522728e+01
   1.474610e+01   1.541399e+01
  -9.185965e+01  -9.737759e+00
  -6.718965e+01  -8.315687e+01
  -1.132019e+01  -1.720129e+02
   1.230148e+02  -1.482671e+02
   2.587399e+02  -3.905119e+01
   2.192628e+02   1.396252e+02
   5.179943e+00   2.263759e+02
  -1.188090e+02   1.470514e+02
  -1.188826e+02   2.842319e+01
  -6.735481e+01  -6.128034e+01
  -2.609942e+01  -2.032826e+01
  -5.857770e+01   1.402987e+01
  -9.117958e+01   8.053285e+00
  -4.546438e+01  -5.134257e+01
   7.991817e+01  -6.658297e+01
   1.125127e+02  -7.338884e+01
   7.283606e+01   2.520011e+01
  -1.466989e+01   9.732204e+01
  -1.377590e+02   1.158130e+02
  -1.783368e+02  -6.321284e+01
  -8.391772e+01  -2.261247e+02
   6.670334e+01  -1.868112e+02
   2.907493e+02  -6.999582e+01
   2.821855e+02   1.150869e+02
   9.498871e+01   1.881280e+02
  -4.160596e+01   1.522660e+02
  -7.223540e+01   1.171960e+02
  -5.118082e+01   3.558902e+01
  -7.042879e+01   8.337287e+01
  -1.289478e+02   7.805827e+01
  -1.215811e+02  -6.727543e+00
  -1.037577e+02  -1.680100e+02
   4.738332e+00  -3.071219e+02
   1.125894e+02  -1.629180e+02
   1.777540e+02   1.978855e+01
   1.312547e+02   1.287745e+02
   1.854446e+01   1.608014e+02
  -5.588120e+01   8.963242e+01
  -8.938074e+01  -9.087628e+00
   1.234383e+01  -8.332055e+01
  -1.828316e+01  -2.905617e+00
   1.057091e+01   1.655712e+01
  -7.173777e+01  -2.819165e+01
  -4.292811e+01  -8.730641e+01
   8.761111e+01  -5.625418e+01
   1.746906e+02  -1.399580e+01
   1.380733e+02   3.721519e+01
   1.743200e+01   1.004603e+02
  -1.291648e+02   6.089809e+01
  -1.527003e+02   1.152438e+00
  -5.738278e+01  -3.712337e+01
   1.024793e+02  -3.455416e+01
   1.267670e+02  -7.718053e+00
   1.370600e+01   5.103806e+01
  -3.877802e+01   5.377189e+01
  -6.338855e+01   2.517091e+00
  -4.578284e+01  -5.915006e+01
  -3.030310e+01  -5.341852e+01
  -4.439451e+01  -1.863908e+01
  -9.771602e+01  -2.104099e+01
  -1.920303e+01  -5.994649e+01
   6.496680e+01  -1.409549e+02
   1.520365e+02  -1.134459e+02
   1.608835e+02  -3.025268e+01
   1.412358e+02   8.572440e+01
   1.569389e+01   1.360473e+02
  -8.455001e+01   2.999179e+01
  -8.148062e+01   2.971803e+01
   4.252206e+01  -4.850569e+01
   1.432463e+02   4.449726e+01
   8.153168e+01   1.284894e+02
  -8.181834e+01   1.486165e+02
  -2.153054e+02   8.187288e+01
  -1.575912e+02   1.277928e+00
  -8.421400e+01  -1.044386e+02
   7.704674e+01  -7.942946e+01
   9.089870e+01   2.854368e+01
  -3.619401e+01   7.068358e+01
  -8.212761e+01  -5.553520e+01
  -2.416841e+01  -1.213833e+02
   9.561774e+01  -1.560109e+02
   1.965407e+02  -3.245838e+01
   1.427025e+02   1.005849e+02
   3.571330e+01   1.913986e+02
  -8.843966e+01   1.607980e+02
  -1.227241e+02  -3.606190e+00
  -2.420901e+01  -1.069153e+02
   2.821256e+01  -9.327512e+01
   5.918808e+01  -1.542938e+01
   3.943909e+01   5.714460e+01
   1.652740e+01  -1.421265e+01
   2.465594e+01  -2.212957e+01
   2.111798e+01   1.145721e+01
   6.605501e+01   9.681658e+01
   1.600466e+01   1.045972e+02
  -6.540482e+01  -5.137280e+00
  -1.612518e+02  -6.006073e+01
  -9.743620e+01  -7.029978e+01
  -2.473095e+01  -6.063561e+01
   1.035708e+02  -2.587381e+01
   5.703283e+01  -3.577214e+01
   1.701877e+01   1.887778e+01
  -3.107021e+01  -7.503219e+00
   1.869070e+01   1.452753e+01
  -2.720123e+01   1.854233e+01
   4.642528e+00  -1.065246e+01
  -3.902911e+01  -6.984096e+00
  -8.786731e+01   2.075237e+00
   2.497044e+01  -7.950785e+01
   1.185970e+02  -5.533137e+01
   1.754018e+02  -3.449431e+01
   1.224859e+02   4.672207e+01
   4.902784e+01   1.504324e+02
  -4.425196e+01   1.692812e+02
  -1.075527e+02   6.369458e+01
  -8.494158e+01  -3.246339e+01
  -4.142492e+01  -4.309518e+01
  -2.084714e+01  -3.360134e+01
   3.849150e+01  -4.655007e+00
  -4.807199e+01  -6.836470e+01
  -1.518703e+01  -1.010392e+02
   1.469952e+01  -6.181620e+01
   7.501745e+01   2.107571e+01
   7.796288e+01   7.962933e+01
   2.197888e+01   7.343158e+01
  -3.189346e+01  -2.654149e+00
  -6.497035e+01  -3.316648e+01
  -5.376631e+01  -9.970846e+01
   3.864338e+01  -1.001620e+02
   7.086093e+01   1.121415e+01
   2.521656e+01   5.498564e+01
  -2.006323e+01   6.231018e+01
  -1.356950e+01   4.734848e+01
  -1.474917e+00   2.722652e+01
   7.177828e+01  -3.537424e+01
  -2.423964e+01   1.918844e+01
  -7.722323e+01   6.716717e+01
  -1.382749e+02   5.019133e+01
  -1.005479e+02  -3.934269e+01
   1.243273e-01  -1.034510e+02
   3.427462e+01  -7.442914e+01
   5.901167e+01   3.682867e+01
   1.491782e+01   2.502037e+01
  -4.459007e+01   5.212089e+01
  -3.297411e+01  -8.850169e+00
  -4.723912e+01  -8.059522e+01
   1.158456e+01  -7.685979e+01
   5.794965e+01   1.656755e+01
   8.460786e+01  -3.464747e+00
   8.402838e+00   1.296487e+01
  -1.856529e+01   1.109911e+01
   1.897727e+00  -2.466638e+01
  -2.116653e+00   1.091304e+00
   3.057283e+00   4.343797e+01
  -1.053447e+01   2.749223e+01
  -5.330903e+01  -4.195002e+01
  -4.334329e+01  -8.315440e+01
   1.272483e+01  -2.389960e+00
   1.104647e+02   4.788290e+01
  -1.334084e+01   8.309301e+01
  -5.834328e+01   5.036849e+01
  -9.992193e+01  -1.917065e+01
  -3.610586e+01  -2.867901e+01
   1.906560e+01  -1.223655e+01
   5.594347e+01  -1.394524e+01
  -1.950665e+01   2.447721e+01
  -2.300660e+01   2.630353e+00
  -7.609581e+01   1.239242e+01
   3.467657e+01  -4.739045e+01
   7.336949e+01  -4.119255e+01
