
 $NMID
 id='ANONYMOUS ', fmtdat='(2E16.6)'
 volume=1.0
 tramp=1.0
 $END
   2.476749e+03   7.125564e+02
   1.547075e+03   1.113857e+03
   9.539838e+01   1.570079e+03
  -7.298559e+02   8.434100e+02
  -7.555287e+02   3.830010e+02
  -1.595559e+02   3.945009e+01
   1.765244e+02   2.699221e+01
  -3.122808e+01   4.118110e+02
  -3.093232e+02   3.538472e+02
  -4.769633e+02   1.163479e+02
  -3.823708e+02  -3.225800e+02
  -9.223856e+01  -4.900134e+02
   1.498203e+02  -1.359445e+02
   1.245248e+02   2.491085e+02
  -2.273638e+01   3.479719e+02
  -3.069882e+02   2.836570e+01
  -2.765094e+02  -3.468883e+02
   6.233548e+01  -5.375446e+02
   3.779732e+02  -3.257671e+02
   4.202535e+02   1.179586e+02
   1.563641e+02   2.563082e+02
  -1.015407e+02   2.361465e+02
  -2.579387e+00   5.255720e+01
   1.464405e+02   1.724347e+02
   1.954003e+02   2.782290e+02
  -7.892825e+01   3.175943e+02
  -3.747730e+02   3.774950e+01
  -4.162819e+02  -2.234457e+02
  -1.637797e+02  -2.711215e+02
   2.476343e+02  -4.681204e+01
   3.544800e+02   1.172358e+02
   7.181024e+01   3.194500e+02
  -2.586598e+02   2.735218e+02
  -3.495174e+02   1.183362e+02
  -2.638470e+02  -1.406903e+02
  -1.162064e+02  -1.884754e+02
  -3.556414e+01  -1.878802e+02
  -1.459014e+02   6.032145e+00
  -1.875164e+02   2.946882e+01
  -1.462148e+02  -1.495377e+02
   9.013584e+01  -3.504833e+02
   1.510645e+02  -2.306588e+02
   1.680865e+02   4.962287e+01
   2.921250e+01   1.422893e+02
  -5.976999e+01   5.398965e+01
  -8.327672e+01  -2.625002e+02
   1.590874e+02  -2.689478e+02
   3.707106e+02   3.605618e+01
   4.191244e+02   2.968293e+02
   1.115458e+02   4.175532e+02
  -2.267367e+02   2.013457e+02
  -3.889385e+02  -6.080320e+01
  -2.820130e+02  -1.700075e+02
   3.174147e+01  -1.404325e+02
   1.505730e+02  -7.815113e+01
   1.394730e+02  -3.071114e+01
   6.177080e+01  -5.441064e+00
   1.488257e+01   1.294390e+01
   6.655149e+01  -3.540627e+01
   1.409613e+02   5.994461e+01
   1.094714e+02   1.079648e+02
  -1.794370e+02   2.088176e+02
  -3.356514e+02   1.115144e+02
  -2.495766e+02  -1.228038e+02
   6.691081e+01  -2.758113e+02
   2.678718e+02  -3.126926e+02
   3.140532e+02  -7.810256e+01
   1.724664e+02   1.757132e+02
   6.733547e+01   2.488008e+02
   3.056351e+01   2.382063e+02
  -3.766684e+01   1.802071e+02
   1.755265e+01   9.881606e+01
  -1.603921e+02   2.831644e+01
  -2.837164e+02   3.398308e+01
  -1.479086e+02  -1.069438e+02
  -7.014599e+01  -2.032981e+02
   8.894238e+01  -1.537416e+02
   1.353628e+02   5.398237e+01
   1.057851e+02   2.016084e+02
  -3.109158e+01   2.181669e+02
  -1.902901e+02   4.503472e+00
  -2.247983e+02  -1.818675e+02
  -1.452305e+02  -2.742691e+02
   6.881942e+01  -2.115501e+02
   1.960835e+02  -1.460064e+02
   1.116946e+02  -9.834775e+01
   1.401021e+02  -8.286613e+01
   2.296879e+02   4.277455e+01
   3.791070e+02   1.147958e+02
   3.299351e+02   2.845226e+02
  -4.152780e+01   3.559295e+02
  -3.269038e+02   2.742376e+02
  -4.363381e+02   1.323646e+02
  -2.143511e+02  -1.275632e+02
  -2.833860e+01  -2.296378e+02
   7.262002e+01  -1.098957e+02
   3.432687e+01  -1.590280e+01
  -1.226651e+02  -7.180538e+00
  -5.116655e+01  -4.682345e+01
   5.287206e+01  -9.452756e+01
   8.367264e+01  -9.925233e+01
   6.704041e+01   4.044796e+01
  -4.483088e+01   9.392972e+01
  -1.126154e+02   2.153276e+01
  -6.041871e+01  -2.462782e+02
   5.439614e+01  -2.779929e+02
   2.065851e+02  -1.707014e+02
   3.492779e+02   8.807133e+01
   2.247522e+02   2.463589e+02
   5.046078e+01   2.450239e+02
  -1.228388e+02   9.260792e+01
  -1.570330e+02   3.186725e+01
  -2.448172e+01  -1.184713e+01
   2.054333e+01   2.961274e+01
  -2.326475e+01   1.416893e+02
  -6.765406e+01   4.990958e+01
  -1.209894e+02  -2.303194e+01
  -2.750241e+01  -6.324651e+01
   6.758069e+01   2.151862e+01
   3.216473e+01   1.106006e+02
  -1.629556e+02   6.679614e+01
  -2.613423e+02  -5.610983e+01
  -2.422148e+02  -1.839258e+02
   1.191611e+01  -2.733943e+02
   2.208139e+02  -1.624994e+02
   2.317477e+02  -8.338280e+01
   7.508633e+01   5.543064e+01
  -2.276952e+00   5.587382e+01
  -9.101854e+01  -4.038990e+01
   8.341578e+01  -8.086707e+01
   1.379153e+02  -2.643872e+01
   1.698576e+02   7.885939e+01
   2.444321e+01   1.305719e+02
  -6.819941e+01   1.246341e+02
  -1.125945e+02  -1.386492e+01
  -6.538868e+01  -7.937984e+01
   6.267690e+01   4.686756e+01
   9.030655e+00   1.600247e+02
  -1.020661e+02   1.015282e+02
  -1.819226e+02   7.076439e+01
  -1.343975e+02  -9.994660e+01
  -6.579288e+00  -1.916683e+02
   1.516904e+02  -1.187570e+02
   1.379698e+02  -1.531790e+01
   1.560069e+01   8.919552e+01
  -3.053766e+01   9.996380e+01
  -3.859446e+01   4.197422e+01
  -8.461528e+00  -1.729663e+01
   3.221885e+01   2.442582e-01
  -3.421637e+00  -1.042460e+00
  -6.542800e+01  -2.054945e+01
  -1.102849e+02  -9.404994e+01
  -1.741987e+01  -1.483447e+02
   1.790564e+02  -1.159042e+02
   1.970342e+02   1.326229e+01
   1.568895e+02   1.209423e+02
  -1.055980e+01   1.615205e+02
  -4.552500e+01   1.075209e+02
  -6.433257e+01   7.192129e+01
  -7.756105e+01  -1.185743e+01
  -1.267287e+01  -5.092854e+01
  -9.859302e+01   4.845802e+00
  -4.920506e+01   3.194718e+00
  -7.508637e+01  -4.051769e+01
   4.132010e+01  -6.718925e+01
   1.325620e+02  -2.304813e+01
   7.467499e+01   7.178457e+01
  -1.934601e+01   1.166522e+02
  -1.394969e+02   5.288876e+01
  -1.962273e+02  -8.647939e+01
  -3.160613e+01  -2.008190e+02
   1.532888e+02  -2.446964e+02
   2.560698e+02  -3.627813e+01
   2.009704e+02   1.543328e+02
   1.048108e+02   1.472812e+02
  -6.601130e+01   9.314234e+01
  -7.132220e+01   6.239497e+01
  -6.434811e+01   4.540583e+01
  -3.356461e+01   1.039309e+02
  -3.132422e+01   6.172206e+01
  -1.147150e+02  -5.049487e+01
  -4.421381e+01  -1.349220e+02
   9.017457e+00  -1.665860e+02
   1.252546e+02  -8.404356e+01
   1.652579e+02   2.671392e+01
   1.026111e+02   1.321791e+02
  -2.433837e+01   1.268737e+02
  -1.011856e+02   4.902746e+01
  -6.828991e+01  -1.062884e+01
  -1.561149e+01  -7.666555e+01
   4.525444e+01  -6.762975e+00
  -5.428778e+00  -4.139475e+01
  -5.623152e+01  -5.228292e+01
  -1.167203e+01  -2.947652e+01
   7.516413e+01  -2.490138e+01
   1.803454e+02   4.633374e+00
   1.243676e+02   5.619531e+01
   1.479284e+01   4.358008e+01
  -8.508274e+01   4.471339e+01
  -1.015821e+02   3.084798e+01
  -2.314748e+01  -5.474681e+01
   3.607400e+01   3.425188e+00
   8.036573e+01   2.843566e+00
   1.214169e+01   2.723318e+01
  -4.256900e+01   1.631953e+01
  -9.845509e+01  -2.392064e+01
  -6.412383e+01  -1.862589e+01
  -7.476415e+01  -4.497247e+01
  -6.410543e+01  -5.360020e+01
  -4.557506e+01  -1.204231e+01
  -4.247528e+01  -7.166723e+01
   7.160614e+01  -9.030153e+01
   1.297728e+02  -9.496678e+01
   1.879198e+02   1.397138e+01
   1.159419e+02   1.247528e+02
  -5.168522e+01   1.113186e+02
  -9.508407e+01   6.628879e+01
  -4.185024e+01  -1.888073e+01
   2.383508e+01  -2.332747e+01
   1.563625e+02   9.037554e+00
   4.565284e+01   1.207769e+02
  -6.305663e+01   1.031194e+02
  -1.783146e+02   2.910197e+01
  -1.141389e+02  -3.287235e+01
  -1.819205e+01  -8.144986e+01
   5.529400e+01  -5.309900e+01
   1.883015e+01  -1.976528e+00
  -3.235559e+01   2.506874e+01
  -1.039050e+02  -1.017672e+01
  -2.012914e+01  -1.186671e+02
   3.162085e+01  -1.425338e+02
   1.249991e+02  -4.906985e+01
   9.434021e+01   1.369176e+01
   2.379465e+01   1.615311e+02
  -5.275072e+01   1.002339e+02
  -9.653963e+01  -4.786859e+01
  -7.344753e+01  -1.122167e+02
   6.090613e+00  -5.141841e+01
   3.495181e+01  -1.179694e+01
   4.901039e+01   7.468225e+01
  -3.082017e+01   1.289090e+01
  -2.559104e+01   1.850098e+01
   3.612310e+01   1.966553e+01
   5.980452e+01   8.863906e+01
  -9.160210e+00   8.193750e+01
  -2.211246e+01  -4.262370e+00
  -9.659992e+01  -3.465319e+01
  -7.448096e+01  -6.627261e+01
  -1.291887e+01  -5.190488e+01
   9.252901e+01  -2.132926e+01
   9.576065e+01  -2.659968e+01
   2.462443e+01   3.573355e+01
   1.718584e+01   5.242389e+01
  -1.492243e+01  -1.422885e+01
   4.680881e+01   1.243789e+01
  -2.277743e+01   1.671616e+01
  -3.642275e+01  -3.210911e+01
  -8.146035e+01  -1.781830e+01
  -9.572991e+00  -8.665596e+01
   1.228971e+02  -7.861671e+01
   1.386704e+02  -5.926787e+01
   1.352297e+02   6.650291e+01
   2.090049e+01   1.275644e+02
  -3.281152e+01   1.285079e+02
  -6.808297e+01   3.984178e+01
  -6.671393e+01  -2.662971e+01
  -4.411805e+01  -7.537832e+00
  -1.241935e+01  -1.683308e+01
  -1.375449e+01   9.433926e+00
  -3.651328e+01  -6.639910e+01
  -1.711099e+01  -7.301593e+01
  -9.900303e+00  -8.021543e+01
   3.294250e+01  -2.504996e+01
   7.348246e+01   1.003229e+02
   8.174294e+00   7.752567e+01
  -8.474280e+01  -4.379636e+00
  -8.348623e+01  -4.720537e+01
  -5.448932e+01  -1.050130e+02
   6.811744e+01  -4.553186e+01
   1.110820e+02   4.953726e+00
   1.771186e+01   1.016516e+02
  -3.135417e+01   6.851050e+01
  -1.520046e+01   6.013194e+01
   2.077934e+01   1.616159e+01
   4.277331e+01  -2.256962e+00
   7.455811e+00   6.803365e+01
  -8.607238e+01   2.824119e+01
  -1.267251e+02  -2.753800e+00
  -6.730001e+01  -2.059009e+01
  -1.217354e+01  -8.741298e+01
   1.252889e+01  -8.366406e+01
   9.396400e+01   1.996872e+01
  -1.300263e+01   4.982532e+01
  -1.118530e+02   2.507957e+01
  -7.324073e+01  -7.017104e+00
  -1.130877e+01  -2.820917e+01
   9.601350e+00  -4.268683e+01
   5.064186e+01   3.068793e+00
   4.644804e+01  -1.008051e+01
   3.683856e+01   4.724951e+00
  -3.233787e+00  -2.474868e+01
   3.724149e+01  -3.311036e+01
   4.737567e+01   8.316473e+01
  -2.994790e+00   1.896046e+01
  -4.965197e+01   1.621692e+01
  -1.144208e+02  -1.516565e+01
  -3.039677e+01  -4.160732e+01
   3.308819e+01  -4.919673e+00
   7.494041e+01   2.529653e+01
   9.203255e+00   6.061651e+01
  -2.870604e+01   1.898215e+01
  -6.854458e+01   8.299161e+00
  -2.583478e+01  -2.653880e+01
   6.598660e+01  -8.914563e+00
  -1.334431e+00  -8.153089e+00
   1.509419e+01   3.005531e+01
  -1.356920e+01  -7.000105e+00
  -5.484442e+01  -1.063952e+01
   3.183273e+01  -2.241356e+01
   7.128013e+01   2.308649e+01
