
 $NMID
 id='ANONYMOUS ', fmtdat='(2E16.6)'
 volume=1.0
 tramp=1.0
 $END
   2.106202e+03  -1.085866e+02
   1.822732e+03   7.539067e+02
   3.202312e+02   1.153092e+03
  -4.254846e+02   1.234792e+03
  -7.355852e+02   3.572115e+02
  -1.685045e+02  -1.000109e+02
   1.854277e+02  -4.643706e+01
   2.683192e+01   3.393124e+02
  -2.535970e+02   4.334290e+02
  -3.838687e+02   2.288640e+02
  -3.616146e+02  -2.848437e+02
  -9.965921e+01  -4.461543e+02
   1.491857e+02  -1.858865e+02
   1.553493e+02   2.339517e+02
  -6.289752e+01   3.734485e+02
  -2.904683e+02   1.411774e+02
  -3.366824e+02  -3.118304e+02
  -1.901649e+01  -4.968838e+02
   3.223038e+02  -2.986911e+02
   3.864202e+02   8.129541e+01
   1.308137e+02   2.933964e+02
  -3.976840e+01   1.568143e+02
  -1.668034e+01   7.198512e+01
   1.491909e+02   1.317190e+02
   1.900106e+02   2.346500e+02
  -3.733343e+01   2.756146e+02
  -3.489905e+02   1.223042e+02
  -4.688037e+02  -1.759626e+02
  -1.248775e+02  -2.752355e+02
   1.982416e+02  -1.228290e+02
   3.297581e+02   1.504127e+02
   9.041716e+01   2.881175e+02
  -1.417367e+02   2.140156e+02
  -2.123973e+02   1.218830e+02
  -1.881254e+02  -7.649221e+01
  -7.524530e+01  -2.117199e+02
  -1.858723e+01  -1.438376e+02
  -9.785660e+01   8.486994e+01
  -1.283803e+02   1.206747e+02
  -1.057387e+02  -1.246993e+02
   7.287335e+01  -3.620994e+02
   1.383401e+02  -2.509325e+02
   1.936795e+02   7.461719e+01
   8.115500e+01   1.710322e+02
  -5.452273e+01   4.910506e+01
  -7.269793e+01  -1.495500e+02
   7.601825e+01  -2.898893e+02
   3.005679e+02  -1.864317e+01
   3.715951e+02   2.311015e+02
   1.007553e+02   3.886103e+02
  -2.046427e+02   1.893190e+02
  -3.723011e+02  -6.614944e+00
  -2.812383e+02  -1.737661e+02
   1.692177e+01  -1.371630e+02
   1.421526e+02  -1.142323e+02
   2.325930e+02  -5.573929e+01
   8.715377e+01   5.472393e+01
  -4.581244e+01   1.726670e+01
   6.330212e+00  -3.292663e+01
   1.187783e+02   2.595379e+01
   7.997151e+01   8.492227e+01
  -4.471711e+01   1.836050e+02
  -2.394239e+02   1.067737e+02
  -2.490669e+02  -8.553204e+01
   1.086724e+01  -2.461978e+02
   2.550442e+02  -3.097177e+02
   3.450388e+02  -6.317458e+01
   1.401229e+02   1.397085e+02
  -3.680697e+01   1.968008e+02
  -4.144351e-01   2.226103e+02
  -5.571073e+00   1.324241e+02
  -1.181649e+01   1.346426e+02
  -1.284848e+02   1.123376e+02
  -1.585562e+02   1.769640e+01
  -1.840583e+02  -1.092379e+02
  -3.508240e+01  -2.086297e+02
   9.116194e+01  -1.195555e+02
   8.473629e+01   6.990098e+01
   1.022884e+02   2.605124e+02
  -3.280932e+01   1.806092e+02
  -1.901850e+02   7.242254e+01
  -2.071815e+02  -1.159339e+02
  -8.910042e+01  -2.801192e+02
   2.089063e+01  -2.133614e+02
   1.023233e+02  -1.464245e+02
   1.064913e+02  -1.232512e+02
   1.078922e+02  -8.451254e+01
   2.593243e+02  -2.657448e+01
   3.213075e+02   1.067838e+02
   2.560730e+02   1.986521e+02
   1.621759e+01   3.088091e+02
  -3.572115e+02   3.207313e+02
  -3.828693e+02   1.052270e+02
  -1.885250e+02  -4.506088e+01
  -9.998578e+01  -1.787855e+02
   8.093987e+01  -1.788429e+02
  -3.839888e+01  -4.829501e+01
  -6.750677e+01   3.395696e+01
  -1.158779e+02   1.825548e+01
  -2.577315e+00  -1.000351e+02
   8.558972e+01  -6.311091e+01
   8.219367e+01   7.542478e+00
  -1.494273e+01   9.627798e+01
  -1.262320e+02  -4.696024e+00
  -8.777745e+01  -1.563777e+02
   5.832328e+00  -2.997536e+02
   1.999409e+02  -1.764108e+02
   2.807589e+02   1.227491e+01
   2.231171e+02   2.046262e+02
   2.478970e+01   2.173835e+02
  -8.397658e+01   1.197245e+02
  -1.347801e+02  -9.280651e+00
  -6.249658e+01  -5.675075e+00
   7.627540e+01   6.233242e+01
  -1.345949e+01   1.228711e+02
  -9.074735e+01   7.643343e+01
  -1.294861e+02   2.366511e+01
  -5.542126e+01  -6.889708e+01
   6.108120e+01  -6.511634e+00
   5.211425e+01   1.004483e+02
  -1.341380e+02   8.534729e+01
  -2.495737e+02  -4.824627e+01
  -2.125065e+02  -1.459430e+02
  -4.041087e+01  -2.232094e+02
   1.388501e+02  -1.985645e+02
   2.034862e+02  -6.614490e+01
   1.374831e+02   1.439366e+01
  -3.138082e+01   7.730592e+01
  -5.969137e+01  -1.788358e+01
   5.149823e+01  -7.628310e+01
   1.350601e+02  -3.055501e+01
   1.158933e+02   9.696575e+01
  -4.462631e+00   1.462319e+02
  -2.121504e+01   1.462876e+02
  -1.213083e+02  -1.113052e+01
  -3.884700e+01  -4.389033e+01
   5.059468e+01  -9.296409e+00
   4.053114e+01   9.501334e+01
  -5.221707e+01   1.234229e+02
  -1.567609e+02   1.352616e+01
  -1.585392e+02  -1.237631e+02
   1.308874e+01  -1.559874e+02
   1.350059e+02  -8.112782e+01
   1.256341e+02   7.387320e+00
   7.227211e+01   7.512526e+01
  -5.410427e+01   5.666765e+01
  -3.437642e+01   2.066681e+01
  -4.422802e+01  -1.201274e+01
   3.258614e+01  -1.767622e+01
  -2.561427e+01   6.858905e+01
  -6.367217e+01  -6.417185e+00
  -1.211093e+02  -6.368466e+01
  -2.834620e+01  -1.487231e+02
   9.067362e+01  -1.186252e+02
   1.639347e+02  -1.855095e+01
   1.631862e+02   1.014588e+02
   2.727247e+01   2.085191e+02
  -1.023233e+02   6.842697e+01
  -1.120038e+02   2.392878e+01
  -7.283628e+01  -3.341155e+01
  -4.269482e+01  -4.503359e+01
  -4.215846e+01   1.533081e+00
  -7.452594e+01  -1.146111e+00
  -5.867974e+01  -7.399980e+01
   4.098568e+01  -7.015977e+01
   6.055275e+01  -5.599103e+01
   8.521794e+01   4.091364e+01
  -6.914129e+01   1.389883e+02
  -1.520973e+02   6.079290e+01
  -1.308360e+02  -5.869571e+01
  -5.924744e+01  -1.728306e+02
   1.061369e+02  -1.578637e+02
   2.415423e+02  -9.279965e+01
   2.238645e+02   9.583988e+01
   8.229126e+01   1.390115e+02
  -9.889784e+00   1.415913e+02
  -6.288535e+01   6.424206e+01
  -3.198655e+01   5.918241e+01
  -7.053974e+01   6.078105e+01
  -3.179447e+01   8.289961e+01
  -1.199979e+02  -9.455603e+00
  -1.009527e+02  -1.078112e+02
  -3.516590e+01  -1.756040e+02
   6.127180e+01  -1.187038e+02
   1.124529e+02   3.892019e+01
   5.639970e+01   1.159498e+02
  -2.933717e+01   1.430765e+02
  -9.846414e+01   7.273534e+01
  -6.609767e+01  -1.181213e+01
   1.177823e+01  -6.431330e+01
   6.054119e+01  -6.303334e+00
   6.966156e+00  -4.631943e+00
  -5.582922e+01   8.633878e+00
  -5.486964e+01  -1.359303e+01
   4.870403e+01  -2.392508e+01
   1.462042e+02  -3.710564e+01
   5.631347e+01   9.792403e+00
  -1.168269e+01   8.496183e+01
  -8.232638e+01   8.042539e+01
  -1.030647e+02   2.895275e+00
  -2.710532e+01  -2.022216e+01
   2.984043e+01  -1.199346e+01
   6.138124e+01  -7.660634e+00
   2.579190e+01   5.956416e+01
  -2.425678e+01   9.857562e+00
  -8.589257e+01   2.266063e+01
  -6.843534e+01  -1.775139e+01
  -3.525774e+01  -2.058725e+01
  -7.682605e+01  -3.234232e+01
  -4.953344e+01   1.507439e+01
  -2.810767e+01  -1.543636e+01
   8.497171e+00  -1.139425e+02
   6.694435e+01  -1.190749e+02
   1.559616e+02  -4.605621e+01
   1.407602e+02   7.687710e+01
   2.689871e+01   8.385402e+01
  -5.442099e+01   3.373377e+01
   2.147531e-01   5.112995e+00
   4.365402e+01  -9.447584e+00
   4.946962e+01   5.562381e+01
   3.830462e+01   4.824378e+01
  -8.697520e+01   5.335751e+01
  -1.685139e+02   5.688314e+01
  -8.148663e+01  -2.476457e+01
   1.628485e+01  -8.030433e+01
   4.274230e+01  -3.997492e+01
   4.616486e+01   7.349630e+00
  -1.506732e+01   2.358453e+01
  -8.593265e+01   2.005100e+01
  -3.778039e+00  -9.310069e+01
   5.192999e+01  -5.736112e+01
   1.183726e+02  -5.413994e+01
   4.823761e+01   7.293126e+01
  -2.830231e+01   1.427947e+02
  -3.696183e+01   1.211830e+02
  -8.647339e+01  -1.070067e+00
  -3.687087e+01  -5.503226e+01
  -2.751271e+01  -8.065734e+01
   5.372488e+01  -1.689424e+01
   1.881009e+01   5.515063e+00
   2.027228e+01   5.683475e+01
   5.641074e+00  -1.517266e+01
   4.523858e+01   1.679683e+00
   6.594001e+01   3.857696e+01
   1.299339e+01   8.590864e+01
  -5.863935e+01   3.632035e+01
  -1.352434e+02  -2.419091e+01
  -9.191331e+01  -3.741175e+01
  -4.693874e+00  -3.221870e+01
   7.625124e+01  -2.127425e+01
   5.842881e+01  -4.863476e+00
   4.322854e+01   5.083068e+01
   1.784369e+00   1.199298e+01
  -5.027890e+01  -1.122423e+01
   3.755094e+01  -1.961537e+01
  -2.655170e+00   3.015356e+01
  -4.175324e+01  -2.860299e+00
  -4.408243e+01  -2.822873e+01
  -2.925142e+01  -5.568212e+01
   5.370771e+01  -9.540615e+01
   1.926122e+02  -3.690809e+01
   1.231014e+02   5.654784e+01
   1.015672e+01   1.156531e+02
  -5.204871e+01   9.232716e+01
  -4.900943e+01   3.974979e+01
  -8.294073e+01  -2.727527e+01
  -2.163998e+01  -4.421324e+01
  -4.169651e+00  -1.922886e+01
  -9.001306e+00   1.658137e+01
  -3.192251e+01  -6.489959e+01
  -6.712335e+00  -5.111717e+01
   3.287154e+01  -7.909923e+01
   6.564756e+01  -9.699738e+00
   7.198875e+01   4.914112e+01
  -2.126730e-01   1.107950e+02
  -7.445831e+01   2.831098e+01
  -1.038237e+02  -7.398729e+01
  -6.961061e+01  -1.033672e+02
   3.729738e+01  -4.284861e+01
   8.730719e+01   5.469134e+00
   2.050208e+01   1.558023e+01
   6.928821e+00   8.657372e+01
  -2.047083e+01   3.494951e+01
  -9.097844e+00  -8.723511e+00
   4.097845e+01  -2.509654e+01
   2.346686e+01   2.439120e+01
  -9.656136e+01   8.525452e+01
  -1.038407e+02   6.479892e+01
  -4.086522e+01  -1.921542e+01
   1.277720e+01  -1.984953e+01
   3.492732e+01  -2.632744e+01
   1.311469e+01   1.382864e+00
   4.822925e+00   4.909306e+01
  -5.453257e+01   5.310079e+01
  -1.702540e+01  -1.764867e+01
  -4.532356e+01  -3.041140e+01
   3.767700e+01  -2.323821e+01
   2.410209e+01  -1.242427e+01
  -1.089415e+00   9.524463e+00
   2.957076e+01  -4.851565e+00
   4.465953e+00  -1.712411e+01
   3.726701e+00   1.103537e+01
  -4.471703e+01   2.031844e+01
  -1.020970e+01   2.876562e+01
  -1.906824e+01   3.180803e+01
  -2.953791e+01  -7.829268e+00
  -1.310303e+00  -3.030716e+01
   2.660633e+01  -1.479574e+00
   2.527189e+01   3.663399e+01
   2.366919e+01   7.439573e+01
  -5.037648e+01   8.655423e+01
  -1.094148e+02  -2.429872e+01
  -5.171248e+01  -7.192210e+00
   3.270077e+00  -1.200252e+01
   1.111380e+01  -2.915770e+01
   1.729639e+01  -4.598106e+01
  -6.684143e+01  -2.016187e+01
   2.461353e+01  -1.577724e+01
   2.452730e+01  -8.146539e+00
   5.941758e+01  -1.041070e+01
