
 $NMID
 id='ANONYMOUS ', fmtdat='(2E16.6)'
 volume=1.0
 tramp=1.0
 $END
   3.621033e+03   9.409802e+02
   1.680982e+03   2.420407e+03
  -8.735083e+02   2.204355e+03
  -2.035342e+03   5.309047e+02
  -7.945973e+02  -6.451220e+02
   5.493323e+02  -5.230766e+02
   8.257297e+02   3.857937e+02
   1.598029e+00   9.487410e+02
  -8.086261e+02   6.518361e+02
  -8.400210e+02  -2.329962e+02
  -2.730602e+02  -7.903846e+02
   3.394337e+02  -7.011097e+02
   6.648695e+02   5.915573e+00
   2.302994e+02   6.214042e+02
  -3.255562e+02   5.710527e+02
  -6.002637e+02  -9.436595e+01
  -1.529049e+02  -6.503112e+02
   3.700436e+02  -5.086341e+02
   5.888303e+02  -3.217476e+01
   3.791436e+02   4.238681e+02
  -5.565947e+01   4.376665e+02
  -2.667698e+02   1.837188e+02
  -2.094913e+02  -6.274454e+01
   1.287664e+02  -1.171957e+02
   3.478153e+02   1.258065e+02
   1.318871e+02   4.208390e+02
  -4.254221e+02   2.972047e+02
  -7.109506e+02  -1.434819e+02
  -2.830640e+02  -4.803244e+02
   4.023162e+02  -3.514627e+02
   6.561465e+02   1.256285e+02
   2.165024e+02   5.121097e+02
  -2.822779e+02   4.159295e+02
  -5.372597e+02   1.181127e+02
  -3.298841e+02  -2.936282e+02
   1.925283e+01  -3.950602e+02
   2.561286e+02  -1.995825e+02
   2.114374e+02   2.228651e+02
  -1.911459e+02   3.740365e+02
  -3.918113e+02  -4.938547e+01
  -1.997088e+02  -5.942021e+02
   3.172216e+02  -5.596883e+02
   5.428360e+02   4.218772e+01
   1.662980e+02   4.881354e+02
  -3.157779e+02   2.503244e+02
  -2.907173e+02  -2.914052e+02
   1.008024e+02  -4.989424e+02
   4.662293e+02  -9.570244e+01
   5.191693e+02   3.918693e+02
   6.052452e+01   5.439926e+02
  -3.701884e+02   2.756401e+02
  -5.608165e+02  -1.612811e+02
  -3.480893e+02  -3.612892e+02
   1.902743e+02  -3.158256e+02
   3.747815e+02  -1.140884e+01
   1.759766e+02   2.289597e+02
  -1.361583e+02   9.682358e+01
  -8.745911e+01  -1.169173e+02
   1.247730e+02  -1.087746e+02
   2.689818e+02   8.677908e+01
   1.355854e+02   2.589077e+02
  -2.061857e+02   1.919156e+02
  -3.179336e+02   2.260007e+01
  -1.780088e+02  -1.299570e+02
   8.522454e+01  -2.039327e+02
   2.155764e+02  -2.196536e+02
   2.705868e+02  -1.398913e+02
   2.016383e+02   1.740231e+02
   2.342438e+01   4.089479e+02
  -1.376244e+02   2.644766e+02
  -1.358901e+02   6.147447e+01
   1.227926e+01  -3.501432e+00
  -6.191696e+01   1.003746e+02
  -1.595971e+02   1.416998e+02
  -2.482466e+02  -9.011131e+01
  -1.543618e+02  -2.972649e+02
   3.429300e+01  -1.802834e+02
   1.910872e+02   4.592097e+01
   1.238510e+02   2.565930e+02
  -2.524570e+01   2.478606e+02
  -2.014719e+02   8.684783e+01
  -3.231518e+02  -2.147728e+02
  -1.101520e+02  -2.915382e+02
   1.531376e+02  -2.936289e+02
   1.926992e+02  -4.982874e+01
   9.418013e+01   2.462775e+01
   5.538269e+01  -4.888205e+01
   1.979737e+02  -3.979947e+01
   3.668993e+02   1.013195e+02
   2.845892e+02   2.242225e+02
  -3.987866e+01   3.341176e+02
  -3.307005e+02   3.175029e+02
  -4.495321e+02   1.363884e+02
  -2.356902e+02  -1.520684e+02
  -4.365615e+01  -2.725125e+02
   1.709267e+02  -2.022338e+02
   1.085002e+02  -1.460212e+01
  -1.074070e+02   8.959402e+01
  -1.685276e+02   1.488076e+01
  -1.961498e+01  -1.673094e+02
   1.305935e+02  -1.114920e+02
   1.488350e+02   7.120594e+01
  -6.563516e+01   1.500537e+02
  -1.575600e+02   9.396109e+00
  -8.944328e+01  -2.408120e+02
   7.553833e+01  -2.574955e+02
   1.729334e+02  -1.560842e+02
   2.416235e+02   7.384962e+01
   2.236822e+02   2.363960e+02
   2.748157e+01   2.624981e+02
  -1.173331e+02   7.406688e+01
  -1.210702e+02  -4.781477e+01
  -4.249661e+00  -1.391429e+01
   4.294969e+01   4.346188e+01
   4.795034e+00   9.899318e+01
  -9.076297e+01   6.861994e+01
  -1.615008e+02  -7.580096e+00
  -1.304633e+01  -7.851335e+01
   8.858624e+01  -1.628316e+01
   5.255310e+01   8.534648e+01
  -5.908944e+01   6.776383e+01
  -2.364599e+02  -2.884027e+01
  -2.223327e+02  -9.440420e+01
  -3.907433e+01  -2.682230e+02
   1.590079e+02  -2.013906e+02
   2.259462e+02  -6.117626e+01
   1.671053e+02   3.937636e+01
  -4.278902e+01   7.538015e+01
  -7.939677e+01   7.700575e+00
   8.171507e+01  -9.122122e+01
   2.015409e+02  -2.393448e+01
   1.318120e+02   9.715843e+01
   4.782204e+01   1.672684e+02
  -8.938283e+01   1.197082e+02
  -1.519136e+02   3.354312e+01
  -1.049525e+02  -1.539492e+01
  -2.364790e+01   2.377947e+01
   5.728444e+01   2.662398e+01
  -7.470144e+01   9.557008e+01
  -1.763385e+02  -3.959531e+00
  -1.285092e+02  -1.261413e+02
  -2.584034e+01  -1.596247e+02
   1.970173e+02  -1.045577e+02
   1.369427e+02   5.608510e+00
   7.275512e+01   8.688895e+01
  -7.354318e+01   1.163412e+02
  -1.053808e+02   4.225683e+01
   4.519244e+00  -1.852419e+01
  -2.308238e+01  -2.964847e+01
   1.185753e+01   2.304671e-01
  -6.000087e+01  -4.742631e+01
  -6.453014e+01  -6.580161e+01
   5.092903e-01  -1.253205e+02
   1.042090e+02  -1.197325e+02
   2.085444e+02  -3.279789e+00
   1.183647e+02   1.507937e+02
   6.885235e+01   1.897120e+02
  -9.035323e+01   1.698489e+02
  -1.241875e+02   2.118641e+01
  -6.955788e+01  -4.856082e+01
  -1.048346e+01  -7.973336e+01
  -1.646113e+01   2.692351e+00
  -5.481738e+01  -7.432087e+00
  -3.948586e+01  -5.928864e+01
   4.391621e+01  -7.859193e+01
   5.946203e+01   1.167800e+01
   5.032868e+01   2.783847e+01
  -1.791143e+01   1.043569e+02
  -1.025962e+02   5.266726e+01
  -1.479584e+02  -3.444522e+01
  -6.553422e+01  -1.653925e+02
   5.995356e+01  -1.998262e+02
   2.106960e+02  -8.080307e+01
   1.978001e+02   7.369449e+01
   8.390533e+01   1.672362e+02
  -2.905544e+01   1.466052e+02
  -1.095742e+02   5.450683e+01
  -9.969664e+01   5.511731e+01
  -5.122658e+01   6.025614e+01
  -8.710853e+01   8.009722e+01
  -9.595009e+01  -3.580317e+01
  -8.245889e+01  -1.231739e+02
  -1.720945e+01  -1.649467e+02
   1.337008e+02  -1.353483e+02
   1.746033e+02  -2.219388e+01
   1.239378e+02   1.195161e+02
   1.559931e+01   1.195515e+02
  -4.979522e+01   8.358366e+01
  -5.420297e+01  -1.290415e+01
   2.166534e+01  -6.549427e+01
  -4.982279e+01  -3.341074e+01
  -8.906897e+00  -1.397313e+01
  -6.546961e+01  -5.764577e+00
  -5.106102e+01  -3.014173e+01
   4.846449e+01  -3.095033e+00
   1.277633e+02  -3.721708e+00
   1.327780e+02   6.394910e+01
   2.077471e+01   1.242413e+02
  -1.174118e+02   4.715654e+01
  -1.295594e+02   6.720876e+00
  -1.452226e+01  -3.153411e+01
   5.994349e+01  -7.346535e+01
   9.223475e+01   3.336496e+01
  -2.948185e+01   6.219264e+01
  -6.696253e+01  -3.390433e+00
  -2.651850e+01  -6.455051e+00
  -4.889400e+01  -9.517697e+01
  -4.088671e+01  -4.050544e+01
  -2.719263e+01   1.746879e+01
  -6.092111e+01   1.341635e+01
  -5.226237e+01  -5.798331e+01
   1.216998e+01  -1.223999e+02
   1.020170e+02  -1.387912e+02
   1.523506e+02  -2.612410e+01
   8.505584e+01   1.002820e+02
  -2.280292e+01   1.300693e+02
  -8.182305e+01   7.737199e+01
  -4.747779e+01  -5.717957e+01
   4.099271e+01  -2.465733e+01
   7.501427e+01   6.640512e+01
   2.116748e+01   1.181846e+02
  -4.258856e+01   9.293403e+01
  -1.673857e+02   2.466887e+01
  -1.219020e+02  -4.836278e+01
   1.900629e+01  -8.940580e+01
   8.050909e+01  -6.629428e+01
   4.864013e+01   4.655020e-01
  -1.245999e+00   3.375012e+00
  -3.080422e+01  -3.100762e+01
  -3.514431e+01  -6.706783e+01
   9.622548e+01  -1.246891e+02
   1.288665e+02  -3.309447e+01
   6.416490e+01   1.392482e+02
  -2.284546e+00   1.623861e+02
  -7.394228e+01   1.054803e+02
  -8.350048e+01   1.753165e+01
  -4.632668e+01  -1.095514e+02
  -3.324192e+01  -7.863083e+01
   4.171466e+00   5.177779e+00
   7.532511e+01  -6.227427e+00
   3.139465e+01   2.948011e+01
   1.142514e+01  -2.853363e+01
  -2.060340e+01   2.670903e+01
   3.906386e+01   5.098368e+01
   1.249577e+01   7.482216e+01
  -3.895706e+01   1.725845e+01
  -1.300786e+02  -2.276674e+01
  -1.075326e+02  -9.650399e+01
  -1.192131e+01  -6.874449e+01
   1.278254e+02  -2.243267e+01
   8.998756e+01  -3.539720e+01
  -4.550900e+00   2.623231e+01
  -9.802678e+01   4.204891e+01
  -7.147977e+01   2.550207e+01
  -1.181001e+01   2.689006e+01
  -2.895851e+01  -2.598493e+01
  -7.201485e+01  -3.555852e+01
  -6.290205e+01  -3.473827e+01
  -5.497899e+01  -1.198485e+02
   1.563094e+02  -1.000088e+02
   1.839816e+02  -3.002684e+01
   1.282103e+02   7.130184e+01
  -5.149698e+00   1.877768e+02
  -1.114573e+02   9.972479e+01
  -7.927146e+01   3.476476e+00
  -5.709000e+01  -3.452835e+01
  -3.890968e+01  -4.526734e+01
   1.519634e+01  -2.259158e+01
  -3.858186e+01  -9.153676e+00
  -4.617398e+01  -6.866629e+01
  -2.968830e+01  -1.243548e+02
   3.982061e+01  -1.023197e+02
   4.542632e+01   4.497757e+01
   6.191231e+01   9.778536e+01
  -1.909968e+01   7.123257e+01
  -8.332332e+01   2.167915e+01
  -6.320701e+01  -6.429842e+01
  -1.387889e+01  -6.765534e+01
   7.542648e+01  -3.864518e+01
   1.232983e+02   5.788209e+01
   8.808184e+00   3.989778e+01
  -5.576682e+01   9.219661e+00
   2.941394e+00   2.372661e+01
   5.745957e+01  -1.734840e+00
   5.601504e+01  -3.460258e+01
   2.062471e+01   2.560555e+01
  -7.464505e+01   3.504096e+01
  -1.113488e+02   3.375845e+01
  -3.396040e+01  -3.867844e+01
  -3.206198e+00  -3.769147e+01
   2.593009e+01  -4.728647e+01
   1.882371e+01  -3.922933e+01
  -6.323021e+00   3.539866e+01
  -1.083293e+01   6.387895e+01
  -1.910900e+01  -3.689199e+01
  -9.590515e+00  -5.089672e+01
  -1.165511e+01  -1.110036e+01
   6.514896e+01   2.587981e+01
  -2.555064e+01   4.337761e+01
   5.723533e+01   4.360557e+01
   9.843497e+00  -2.272056e+01
  -7.957016e+00   5.657834e+00
  -1.929216e+01   2.064074e+01
  -2.176002e+01   1.694352e+01
  -1.170838e+01  -1.601061e+01
   2.528521e+00  -2.937103e+01
   1.848701e+01  -6.173784e+01
   2.055136e+01   2.256218e+01
   7.216249e+01   1.623401e+01
   8.064920e+00   8.391697e+01
  -3.699012e+01   2.398813e+01
  -8.279434e+01  -2.524322e+01
  -5.505773e+01  -5.734406e+01
   3.518120e+01  -3.886160e+01
   9.446863e+01  -5.560387e+00
   2.228259e+01  -8.166542e+00
  -4.403617e+01   2.870729e+01
  -1.850549e+01  -3.190983e+01
   2.379072e+01  -4.064820e+01
   6.356739e+01   5.386631e+00
