
 $NMID
 id='ANONYMOUS ', fmtdat='(2E16.6)'
 volume=1.0
 tramp=1.0
 $END
  -2.683760e+03  -6.443048e+02
  -1.147291e+03  -1.663920e+03
   7.158555e+02  -1.561392e+03
   1.201315e+03  -3.783194e+02
   4.458638e+02   4.156962e+02
  -4.982456e+02   1.406484e+02
  -4.080905e+02  -4.966263e+02
   1.727883e+02  -6.342221e+02
   6.370857e+02  -3.215550e+02
   5.102959e+02   1.825032e+02
   1.498527e+02   5.970197e+02
  -3.131317e+02   4.894729e+02
  -4.366413e+02  -2.851806e+01
  -1.481944e+02  -5.408737e+02
   2.623571e+02  -4.282234e+02
   3.527639e+02   8.815852e+01
   8.853535e+01   4.562806e+02
  -2.556709e+02   3.509301e+02
  -3.985897e+02  -4.734399e+01
  -2.382857e+02  -2.495651e+02
   1.968062e+00  -2.739692e+02
   1.603694e+02  -1.238324e+02
   1.177062e+02  -2.033974e+01
   3.394609e+01   4.426773e+01
  -2.353058e+02  -9.048895e+01
  -1.091230e+02  -2.831398e+02
   3.765383e+02  -2.397543e+02
   4.695850e+02   1.784350e+02
   1.512450e+02   3.740991e+02
  -3.232481e+02   2.538907e+02
  -4.783456e+02  -1.516059e+02
  -1.459632e+02  -3.783903e+02
   2.768531e+02  -2.377302e+02
   3.664819e+02  -9.670709e+01
   1.913983e+02   1.620449e+02
  -4.023032e+01   2.327262e+02
  -1.779740e+02   1.280650e+02
  -6.639369e+01  -1.377999e+02
   1.796970e+02  -2.729439e+02
   2.738870e+02   2.548880e+01
   9.921384e+01   4.882558e+02
  -3.240944e+02   4.156188e+02
  -3.695147e+02  -3.195268e+01
  -1.220928e+02  -3.622979e+02
   2.159379e+02  -1.176677e+02
   1.703446e+02   2.958901e+02
  -6.417902e+01   3.369905e+02
  -3.926456e+02  -8.895341e-01
  -3.395713e+02  -3.903625e+02
   3.308268e+01  -4.019813e+02
   2.790605e+02  -1.645447e+02
   3.440910e+02   1.362790e+02
   1.607508e+02   2.706973e+02
  -1.189846e+02   2.443521e+02
  -3.213321e+02  -1.071226e+01
  -1.371237e+02  -1.604443e+02
   6.623362e+01  -3.753943e+01
   5.517462e+01   1.118598e+02
  -1.587190e+02   4.635718e+01
  -2.779123e+02  -1.451962e+02
  -1.219890e+02  -2.207429e+02
   1.663417e+02  -1.965633e+02
   1.881024e+02   1.343498e+01
   1.204049e+02   8.284849e+01
   6.592271e+00   1.191186e+02
  -1.411172e+02   1.461683e+02
  -1.810814e+02   1.474877e+02
  -1.634931e+02  -5.978376e+01
   7.586738e+00  -2.957202e+02
   7.392702e+01  -2.353696e+02
   1.026330e+02  -4.426291e+01
  -1.094015e+01  -2.181136e+00
   2.911978e+01  -2.832806e+01
   1.376936e+02  -7.071629e+01
   1.495731e+02   2.561518e+01
   1.005149e+02   1.966244e+02
  -7.054665e+01   1.565506e+02
  -1.314992e+02  -2.011224e+01
  -7.147956e+01  -1.420789e+02
  -4.974703e+00  -1.285431e+02
   1.595345e+02  -4.624543e+01
   1.745417e+02   1.853923e+02
   5.935546e+01   2.251449e+02
  -1.054412e+02   1.513618e+02
  -1.310119e+02   3.426203e+01
  -5.893842e+01  -2.037892e+01
  -2.830397e+00   2.461619e+01
  -1.447586e+02   9.636981e+00
  -2.101884e+02  -7.872428e+01
  -2.190848e+02  -1.912930e+02
   3.755960e+01  -2.284665e+02
   2.759126e+02  -2.317933e+02
   3.692796e+02  -3.253828e+01
   2.043441e+02   6.969557e+01
   2.272481e+01   2.167883e+02
  -1.376949e+02   1.432308e+02
  -5.836157e+01   1.427190e+01
   8.953617e+01  -8.667585e+01
   1.346331e+02   1.872229e+01
   2.225235e+01   1.452748e+02
  -1.186967e+02   9.647637e+01
  -1.170156e+02  -6.725141e+01
   5.389508e+01  -1.303296e+02
   1.351926e+02  -1.221974e+01
   7.474156e+01   1.677363e+02
  -2.295405e+01   1.789450e+02
  -1.135746e+02   8.768605e+01
  -1.751589e+02  -9.837027e+01
  -1.531770e+02  -1.598835e+02
   6.478267e+00  -1.678493e+02
   2.656602e+01  -9.402095e+01
   9.620396e+01   2.361706e+01
   2.056289e+00   3.479857e+01
  -5.005189e+01  -2.159104e+01
  -4.163421e+01  -9.997638e+01
   9.682644e+01  -2.149546e+01
   1.415604e+02   5.037900e+01
   3.367596e+01   7.251428e+01
  -1.085449e+02  -1.332121e+01
  -1.529667e+01  -5.463026e+01
   1.201745e+02  -4.791736e+01
   1.803215e+02   4.112027e+01
   1.759744e+02   9.792573e+01
  -3.123387e+01   1.202692e+02
  -1.600747e+02   1.694823e+02
  -1.416420e+02   1.172185e+02
  -7.713396e+01  -4.169145e+01
   1.788312e+01  -7.810707e+01
   2.544590e+01   2.804087e+01
  -5.559700e+01   6.490173e+01
  -1.206868e+02   3.048630e+01
  -1.360578e+02  -9.162684e+01
  -2.928568e+01  -1.685559e+02
   5.091803e+01  -8.132351e+01
   1.150436e+02   3.654607e+00
   4.133160e+01   3.059373e+01
  -6.140453e-01  -9.239325e+00
  -2.051971e+01  -5.445641e+01
   6.401705e+01  -4.299968e+01
   1.462751e+02   8.809079e+00
   1.210398e+02   1.001889e+02
  -4.100490e+00   1.209284e+02
  -1.005384e+02   1.011870e+02
  -1.416401e+02  -1.877310e+01
  -2.676398e+01  -1.109739e+02
   7.335872e+01  -1.676726e+01
   3.110699e+01  -7.831031e+00
  -2.760540e+01   3.788406e+01
  -2.279059e+01   3.980701e+01
   1.545755e+01   1.747017e+01
   5.172048e+01   5.639403e+01
   1.931112e+01   5.188372e+01
   4.056727e+00   1.012016e+02
  -9.903592e+01   8.737742e+01
  -1.742224e+02   1.016274e+00
  -8.471445e+01  -1.162562e+02
   2.145100e+01  -1.029043e+02
   2.670223e+01  -1.176142e+02
   1.074523e+02   2.503571e+01
   4.178366e+01   4.402589e+01
   1.038343e+01   5.367455e+01
   2.725181e+01  -1.067449e+01
   2.809646e+01   2.664180e+00
  -1.891138e+01  -1.345466e+01
  -6.607514e+01  -2.060523e+01
  -7.762906e+01  -8.215608e+00
  -3.664788e+01  -5.638834e+01
   1.700804e+01  -2.803261e+01
   9.051107e+01  -9.826160e+00
   1.257286e+02   5.778651e+01
   5.378819e+01   1.059440e+02
  -7.143221e+01   1.092572e+02
  -1.352680e+02   4.113072e+01
  -1.536955e+02  -9.880987e+01
  -5.300323e+01  -1.121145e+02
   7.790762e+01  -7.919063e+01
   6.141533e+01  -1.763173e+01
   3.295365e+01  -3.308543e+01
   2.291938e+01  -3.106015e+01
   3.878442e+01  -4.026164e+01
   5.769434e+01   2.277877e+01
   5.245265e+01   1.270338e+02
   3.473382e+00   1.143841e+02
  -5.229144e+01   9.911025e+01
  -1.203238e+02   1.245687e+01
  -1.483610e+01  -7.843222e+01
   2.567724e+01  -8.364557e+01
   5.721444e+01  -7.384668e+01
   5.348484e+01   1.231067e+01
   1.832605e+01   2.160637e+01
   1.093324e+01  -1.906988e+01
   3.831206e+01   2.323960e+01
   2.054362e+01   4.082578e+01
   3.729913e+01   4.925438e+01
  -5.839642e+01   8.517162e+00
  -1.026230e+02  -6.274232e+00
  -8.764782e+01  -4.203196e+01
  -5.367849e+01  -5.700603e+01
   6.158895e+01  -4.428398e+01
   9.705328e+01   2.130813e+01
   2.498360e+01  -8.040207e+00
  -3.665981e+00   3.662702e+00
  -4.093273e+01  -3.182311e+01
   2.721445e+01  -4.813406e+01
   4.226553e+01  -5.052827e+01
   2.618813e+01   1.276062e+01
   2.355088e+01   3.630509e+01
   1.101551e+01   3.647950e+01
   5.504966e+01   4.711061e+00
   5.373265e+01   8.645361e+00
  -1.592323e+01   6.063548e+01
  -4.190923e+01   7.398149e+01
  -4.650313e+01   8.675637e+01
  -7.324922e+01  -3.192178e+00
  -7.363207e+01  -6.376524e+01
  -2.262883e+01  -5.269364e+01
   5.628791e+01  -4.973765e+01
   4.907459e+01   7.010186e+00
  -5.971735e+01  -2.345355e+01
  -1.119784e+02  -8.909551e+00
  -6.517655e+01  -6.346350e+01
   1.572496e+01  -2.196506e+01
   9.906041e+01  -3.723235e+01
   1.054723e+02   3.176729e+01
   2.175916e+01   9.184994e+01
  -6.312689e+01   1.014046e+02
  -1.824927e+01   8.735352e+00
  -2.384170e+01  -1.461716e+01
   5.700616e+01   6.673463e+01
   4.323344e+01   1.176079e+02
  -5.722287e+01   1.182784e+02
  -8.823633e+01   3.787877e+01
  -7.206241e+01  -6.555863e+01
   8.905765e+00  -1.134556e+02
   5.562570e+01  -1.091195e+02
   7.395595e+01   2.801754e+01
   1.674683e+01   7.452258e+01
  -1.601719e+01   8.174272e+01
  -1.121732e+01  -3.325248e-01
  -4.011249e+01  -4.782178e+01
  -1.965446e+01  -7.083494e+00
   1.806202e+01   3.639373e+00
  -3.481252e+00  -2.915778e+01
  -2.880874e+01  -4.271110e+01
   6.547907e+00  -9.853653e+01
   8.997427e+00  -3.521260e+00
   6.408823e+01   4.084822e+01
   8.674653e+01   5.938516e+01
  -4.544555e+00   8.099199e+01
  -7.773138e+01  -1.100065e+01
  -1.574323e+01  -1.860551e+01
  -1.258313e+01  -1.732705e+01
   8.074465e+00  -3.855349e+01
   4.008972e+01  -3.200708e+01
  -1.428023e+01  -4.328230e+01
  -2.494039e-01  -1.293486e+01
   2.679547e+01  -5.561178e+00
   2.802695e+01   3.213436e+01
   5.740107e+00   2.673112e+01
  -6.278888e+01   1.008836e+02
  -1.078210e+02   2.115377e+01
  -9.136913e+01  -4.461483e+01
  -3.672213e+01  -1.414595e+02
   5.497996e+01  -6.950904e+01
   7.347482e+01  -2.636101e+01
   3.567782e+01   2.483076e+01
  -1.303826e+01   4.597807e+01
   7.383282e+00   6.351407e-01
   3.735664e+00  -3.410838e+01
   8.345586e+00   2.155426e+01
  -5.933373e+00   4.764193e+01
   1.135363e+01   1.797550e+01
  -5.489326e+01   4.659293e+00
  -7.973399e+01  -5.089797e+01
   2.467368e+01  -5.572680e+01
   3.256055e+01  -3.595804e+00
   7.344977e+01   7.742594e+01
   2.668880e+01   1.551026e+01
  -3.900449e+01   8.421821e+00
  -9.010795e+01  -3.110581e+01
  -1.474203e+01  -9.588215e+00
   1.354842e+01   1.148557e+01
   7.565000e+00   8.713229e+00
  -5.185313e+01   5.092911e+01
  -7.549036e+01   1.588580e+01
  -4.713336e+01   7.424739e-01
   4.496153e+01  -7.659452e+00
   6.654119e+01  -3.142692e+01
  -2.246909e+00   6.502323e+01
   3.694409e+01   3.725034e+01
  -5.348185e+01   4.515838e+01
  -4.263284e+01   7.323517e+01
   3.318705e+01  -3.138297e+01
  -1.606596e+01  -1.875677e+01
   5.329436e+01   1.173065e+01
   3.633270e+01   7.077847e+01
  -3.524824e+01   2.797735e+01
  -3.681254e+01  -3.814978e+01
  -7.086953e+01  -4.032252e+01
   1.142004e+01  -1.926439e+01
  -1.919554e+01   6.931484e+01
   1.943401e+01   2.023308e+01
  -1.243370e+01  -5.231293e+01
  -6.499972e+00  -2.464398e+01
   1.121782e+01  -8.309379e+00
  -2.753426e+01   1.431705e+01
  -1.067683e+01  -3.356141e+01
  -2.541837e+01   3.306078e-01
  -4.322979e+01  -1.483186e+01
  -1.422173e+01  -6.134388e+01
   1.903423e+01  -4.177019e+01
   5.252830e+01  -1.782750e+01
   3.713101e+01   3.927692e+01
  -7.218400e+01   2.857544e+01
  -6.415002e+01  -2.114319e+01
  -5.188264e+01  -7.257911e+00
   1.196186e+01   1.522355e+01
   3.467890e+01   2.014745e+01
  -2.213513e+01  -8.454596e+00
  -9.169313e+01  -5.431398e+00
