
 $NMID
 id='ANONYMOUS ', fmtdat='(2E16.6)'
 volume=1.0
 tramp=1.0
 $END
  -4.049506e+03  -3.752919e+02
  -1.952094e+03  -2.521220e+03
   5.000932e+02  -2.351101e+03
   1.915078e+03  -9.320432e+02
   9.119892e+02   4.378229e+02
  -4.781981e+02   5.199710e+02
  -7.391714e+02  -3.375589e+02
  -7.730721e+00  -8.866530e+02
   7.676847e+02  -6.825433e+02
   8.291556e+02   7.815622e+01
   3.579654e+02   7.869303e+02
  -2.174945e+02   7.620742e+02
  -5.688893e+02   6.640692e+01
  -3.417682e+02  -6.144408e+02
   3.111401e+02  -7.170794e+02
   5.686486e+02   7.752464e+00
   1.994623e+02   6.563836e+02
  -2.768250e+02   6.124448e+02
  -5.680112e+02   1.487406e+02
  -4.241658e+02  -2.364965e+02
  -3.391651e+01  -4.055307e+02
   2.487842e+02  -2.751864e+02
   1.267392e+02  -2.048291e+01
  -1.174140e+02  -1.383505e+01
  -3.387298e+02  -1.742366e+02
  -1.030048e+02  -4.598401e+02
   5.040444e+02  -2.378715e+02
   7.811435e+02   1.376963e+02
   3.803224e+02   5.581701e+02
  -3.912600e+02   3.595466e+02
  -6.831501e+02  -7.381283e+01
  -2.585301e+02  -5.005789e+02
   3.103663e+02  -4.527313e+02
   5.027688e+02  -1.150146e+02
   3.719819e+02   2.468479e+02
   2.983963e+01   4.086512e+02
  -1.953599e+02   2.679242e+02
  -1.445229e+02  -1.906154e+02
   2.621093e+02  -3.979257e+02
   3.535149e+02   8.829794e+01
   6.074566e+01   6.656651e+02
  -2.604669e+02   5.211158e+02
  -4.928972e+02  -7.016617e+01
  -1.871439e+02  -4.856764e+02
   2.702043e+02  -2.142589e+02
   2.760381e+02   3.395576e+02
  -1.250851e+02   4.713834e+02
  -5.203559e+02   9.886234e+01
  -5.292189e+02  -4.050944e+02
  -1.268918e+02  -5.849289e+02
   4.277185e+02  -2.083317e+02
   6.256494e+02   1.323397e+02
   2.838667e+02   3.674659e+02
  -1.821997e+02   2.807513e+02
  -3.789238e+02  -6.277946e+00
  -2.304678e+02  -1.976214e+02
   8.030609e+01  -6.977472e+01
   1.228367e+02   1.262001e+02
  -1.242980e+02   1.466486e+02
  -2.888837e+02  -7.822021e+01
  -1.126741e+02  -2.726309e+02
   2.189452e+02  -2.356376e+02
   3.097225e+02  -8.971922e+01
   2.220085e+02   8.640908e+01
   9.725547e+00   2.687446e+02
  -2.408615e+02   3.151213e+02
  -3.799616e+02   1.723237e+02
  -2.554251e+02  -1.950680e+02
  -6.297891e+01  -4.092391e+02
   7.141005e+01  -3.692461e+02
   1.001190e+02  -1.172589e+02
   2.230646e+01  -1.798605e+01
   4.984077e+01  -8.988170e+01
   1.959812e+02  -8.923232e+01
   2.424163e+02   9.490984e+01
   8.230762e+01   2.780004e+02
  -1.070594e+02   2.233053e+02
  -2.259104e+02   6.757337e-01
  -1.877838e+02  -2.320670e+02
   1.100530e+01  -2.918165e+02
   1.779336e+02  -9.064884e+01
   3.033306e+02   1.958936e+02
   1.946751e+02   3.325564e+02
  -6.793658e+01   2.796436e+02
  -1.959960e+02   8.969403e+01
  -1.671845e+02  -4.529652e+00
  -1.312288e+02   8.518972e+01
  -2.371001e+02   3.039816e+01
  -4.374061e+02   3.965321e-01
  -2.736160e+02  -2.875037e+02
  -2.733470e+01  -4.260753e+02
   3.393094e+02  -4.551053e+02
   4.623035e+02  -1.917274e+02
   2.974311e+02   9.746779e+01
   6.808539e+01   2.468803e+02
  -1.310352e+02   2.233397e+02
  -5.658417e+01  -2.463667e+01
   1.369806e+02  -1.032320e+02
   1.307025e+02   1.821701e+01
   3.984550e+01   1.784143e+02
  -1.332670e+02   1.506242e+02
  -1.451054e+02  -2.833318e+01
   3.176005e+01  -1.665821e+02
   1.956116e+02   4.073496e+01
   1.482299e+02   2.115325e+02
  -8.082476e+01   3.117456e+02
  -2.173336e+02   1.488992e+02
  -3.222493e+02  -8.715223e+01
  -2.536499e+02  -2.366667e+02
  -1.075013e+02  -2.276182e+02
   1.265633e+02  -1.248842e+02
   1.657335e+02   8.686840e+00
   1.484305e+01   3.149970e+01
  -8.228305e+01  -2.279833e+01
  -2.486554e+01  -1.301016e+02
   1.268927e+02  -9.154013e+01
   1.803250e+02   3.405209e+01
   4.423557e+01   6.250308e+01
  -6.561395e+01   8.962031e+00
  -5.823745e+01  -9.051246e+01
   1.186621e+02  -9.421421e+01
   3.017325e+02   3.052469e+01
   2.802654e+02   1.330673e+02
   5.036996e+01   2.652753e+02
  -1.777814e+02   2.768028e+02
  -3.034500e+02   6.503596e+01
  -1.347021e+02  -3.698709e+01
   6.811034e+01  -1.006907e+02
   6.834033e+01  -2.000614e+01
  -5.242037e+01   1.209745e+02
  -1.656936e+02   7.268824e+01
  -2.095653e+02  -9.461061e+01
  -3.353143e+01  -1.741141e+02
   1.045608e+02  -1.595062e+02
   1.161887e+02  -1.590229e+01
   7.004469e+01   9.689971e+01
  -1.281090e+01  -2.750037e+01
  -5.908544e+01  -5.898500e+01
   7.651553e+01  -9.924935e+01
   1.813340e+02  -4.191988e+01
   1.552470e+02   1.175380e+02
   2.627851e+01   1.936489e+02
  -1.632435e+02   1.538508e+02
  -1.662318e+02   2.438046e+01
  -7.697643e+01  -1.054583e+02
   8.552368e+01  -1.449230e+02
   9.100507e+01   1.558330e+00
   6.623518e+00  -3.683113e+00
   6.068086e+00   4.043408e+01
  -5.020470e+01  -6.640809e+00
   4.475598e+01   8.767380e+00
   7.662107e+01   9.108186e+01
  -4.283784e-01   1.641041e+02
  -1.354128e+02   1.208312e+02
  -1.830636e+02  -7.728806e-01
  -2.289180e+02  -1.524717e+02
  -4.502677e+01  -2.447486e+02
   1.391223e+02  -1.688052e+02
   1.201259e+02  -2.655293e+01
   5.316460e+01   5.857037e+01
   1.917425e+01   1.176106e+01
   6.410674e+01  -1.171482e+00
   4.424120e+01  -1.530547e+01
   6.547307e+01   8.022946e+01
  -7.007648e+00   7.040909e+01
  -1.210214e+02   6.388899e+01
  -9.123894e+01  -7.123342e+00
   3.030989e+01  -1.338304e+02
   1.517005e+02  -7.679371e+01
   2.386765e+02   5.504833e+01
   7.105354e+01   1.671168e+02
  -4.302007e+01   2.516902e+02
  -2.749290e+02   7.737083e+01
  -2.270488e+02  -9.616656e+01
  -1.133780e+02  -1.683657e+02
   8.885040e+01  -1.087941e+02
   1.155597e+02  -8.484138e+01
   8.328966e+01  -2.494994e+01
   4.716823e+01  -8.589137e+01
   8.989803e+01  -4.158093e+01
   1.015850e+02   4.418949e+00
   5.345057e+01   1.653266e+02
   1.982626e+01   2.175743e+02
  -9.895040e+01   1.195770e+02
  -2.033500e+02   2.883266e+01
  -9.187478e+01  -1.505876e+02
  -8.801309e+00  -1.190723e+02
   9.323602e+01  -1.086560e+02
   7.788046e+01   3.493841e+01
  -2.163479e+01   7.424888e+01
  -4.861110e+00  -3.113119e+00
   1.339636e+01  -9.534263e+00
   9.591648e+01   1.098508e+01
   6.409059e+01   2.673493e+01
  -5.823301e+01   3.404304e+01
  -1.559041e+02  -3.710257e+01
  -1.342753e+02  -4.312942e+01
   2.076687e+01  -7.895081e+01
   1.513471e+02  -5.146295e+01
   1.269870e+02  -1.853036e+01
   2.453259e+01   4.615564e+01
  -6.994698e+01   3.068806e+01
  -7.697144e+01  -7.269278e+00
  -1.295056e+01  -5.479304e+01
   8.404171e+01  -8.922901e+01
   5.390686e+01   2.499498e+01
   4.715626e+01   5.085710e+01
   5.446593e+01   2.424120e+01
   2.095952e+01   1.058652e+01
   4.224740e+01  -2.052887e+00
   5.420909e+00   4.813435e+01
  -2.910063e+01   1.736265e+02
  -1.389492e+02   1.348564e+02
  -2.058121e+02   6.707126e+01
  -1.102714e+02  -3.578891e+01
   7.475409e+00  -1.231144e+02
   4.147806e+01  -5.929369e+01
   9.765665e+01   3.368146e+01
  -4.193998e+01   3.970286e+01
  -1.269674e+02  -1.020147e+01
  -5.302672e+01  -1.122795e+02
   7.272003e+01  -1.089069e+02
   2.155672e+02  -1.712901e+01
   2.009952e+02   1.607010e+01
   1.286607e+01   7.977889e+01
  -9.160172e+01   5.911226e+01
  -5.427821e+01   1.416928e+01
   4.274512e+01  -6.850118e+01
   1.309187e+02   3.755171e+01
   1.744054e+01   9.165130e+01
  -8.377106e+01   1.494496e+02
  -1.626264e+02   4.549455e+01
  -1.754074e+02  -1.020348e+02
  -2.463989e+01  -1.915674e+02
   7.195532e+01  -1.212419e+02
   8.191046e+01  -2.456648e+00
   3.562038e+01   7.433119e+01
   1.955198e+01   9.483105e+01
  -8.418968e+01   3.756644e+01
  -2.484419e+01  -4.090806e+01
  -3.890727e+01   1.689825e+01
   1.134685e+01   4.467555e+01
  -2.437995e+01  -4.474189e+01
  -1.120590e+02  -1.117921e+02
  -8.445483e+00  -9.422813e+01
   3.527536e+01  -5.156388e+01
   1.764894e+02   5.187602e+01
   1.322411e+02   8.888357e+01
   3.538566e+01   4.827535e+01
  -7.980316e+01   2.370560e+01
  -1.001493e+02   7.998203e+00
  -3.241722e+01  -2.441618e+01
   3.402048e+01  -6.829037e+00
  -2.155069e+00  -2.002676e+01
   4.447324e+00  -2.076684e+01
   2.333708e+00   2.407145e+01
   2.384430e+01   1.869698e+01
   1.013604e+02  -1.641216e+01
   4.783193e+01   1.155408e+02
  -1.300252e+02   1.412843e+02
  -1.748183e+02   2.653266e+01
  -1.482373e+02  -6.114001e+01
  -5.171867e+01  -1.636199e+02
   1.149178e+02  -1.228851e+02
   1.097526e+02  -1.040617e+02
   1.100941e+02   3.327693e+01
   6.761634e+01   4.592919e+01
  -2.677252e+01   4.194854e+01
   1.459098e+01   1.651693e+01
   3.272920e+01   4.980295e+01
   2.887525e+01   7.561030e+01
  -2.920204e+01   1.917035e+01
  -6.431883e+01  -2.515815e+01
  -6.174564e+01  -1.051712e+02
   3.217366e-01  -1.184634e+02
   1.042788e+02  -9.754469e+00
   1.323217e+02   9.886040e+01
   1.972372e+01   7.377525e+01
  -4.707881e+01   7.830546e+01
  -7.925438e+01  -3.089166e+01
  -3.260492e+01  -1.694569e-01
  -8.809347e+00  -6.345186e+01
   5.660046e+01  -1.811307e+01
  -1.859147e+01   2.683971e+01
  -1.427081e+01  -2.069745e+01
  -1.105463e+00  -2.272316e+01
   7.898670e+01  -7.389481e+01
   1.359540e+02  -8.702649e+01
   3.110139e+01   2.070419e+01
   8.060159e+00   6.224628e+01
  -5.869045e+01   6.305404e+01
  -8.296092e+01   3.326799e+01
   6.703653e+01  -4.089908e+01
   9.707686e+00  -2.866922e+01
  -1.213361e+01  -5.026528e+00
   3.683543e+00   6.977086e+01
   6.633729e+00   5.837770e+01
   6.883285e+00   3.444266e+01
  -3.979397e+01  -5.387070e+01
  -4.129082e+01  -2.662113e+01
  -2.697911e+01  -1.126168e+01
   1.820030e+01  -2.636203e+00
   1.027519e+01  -5.482459e+00
   1.872607e+01  -7.748730e+01
  -4.257575e+00   1.131589e+01
   6.709943e+01   4.761035e+01
  -7.802882e+00   5.523378e+01
  -1.973339e+01  -1.101967e+01
  -2.745052e+01  -3.182740e+01
  -2.451001e+01  -5.734413e+01
   8.438475e+01  -2.204739e+01
   8.625671e+01  -2.242951e+01
   3.660068e+01   6.750371e+01
  -2.304001e+01   9.839205e+00
  -2.629171e+01  -2.527275e+01
  -7.957364e+00   2.785676e+01
   1.527046e+01   9.299980e+00
  -7.920879e+00  -6.497058e+00
  -3.162278e+01   5.102838e+01
  -9.789854e+01  -1.537595e+01
