
 $NMID
 id='ANONYMOUS ', fmtdat='(2E16.6)'
 volume=1.0
 tramp=1.0
 $END
   4.377795e+03   2.377820e+02
   2.403249e+03   2.396864e+03
  -9.934357e+02   2.703283e+03
  -2.099933e+03   7.778074e+02
  -7.245772e+02  -7.594747e+02
   7.396596e+02  -5.129869e+02
   9.304542e+02   5.884491e+02
  -7.060878e+01   1.026557e+03
  -8.180966e+02   7.222333e+02
  -9.905577e+02  -1.591433e+02
  -4.155864e+02  -8.914226e+02
   3.497455e+02  -8.221593e+02
   6.729870e+02  -1.929353e+01
   2.883558e+02   7.845313e+02
  -3.466720e+02   6.922375e+02
  -6.337917e+02  -7.359024e+01
  -2.532691e+02  -7.287472e+02
   3.657863e+02  -5.417391e+02
   6.614105e+02  -6.060581e+01
   3.569287e+02   3.458416e+02
  -1.457040e+01   3.587608e+02
  -2.396225e+02   2.085798e+02
  -2.808959e+02   4.928099e+01
   8.443365e+01  -1.029813e+02
   3.655656e+02   6.857608e+01
   1.754776e+02   4.573011e+02
  -4.326643e+02   3.952351e+02
  -8.104677e+02  -1.399962e+02
  -3.732876e+02  -6.285897e+02
   4.400971e+02  -4.502727e+02
   7.808240e+02   1.098592e+02
   2.799090e+02   4.998810e+02
  -2.981272e+02   5.054286e+02
  -5.520450e+02   1.599472e+02
  -3.346536e+02  -2.621860e+02
  -1.015282e+01  -4.815086e+02
   2.690872e+02  -2.234394e+02
   1.635667e+02   2.681232e+02
  -1.866573e+02   4.365233e+02
  -4.677876e+02  -3.163699e+01
  -2.607731e+02  -7.167974e+02
   3.343391e+02  -6.901836e+02
   6.292035e+02  -8.911510e+00
   1.930543e+02   5.701472e+02
  -3.397948e+02   3.427778e+02
  -4.051978e+02  -3.779014e+02
   1.230578e+02  -6.260875e+02
   6.156300e+02  -1.369134e+02
   5.513790e+02   4.449356e+02
   9.684761e+01   6.156571e+02
  -4.337007e+02   3.323912e+02
  -5.556578e+02  -1.868876e+02
  -3.202522e+02  -4.158284e+02
   1.628481e+02  -3.649636e+02
   4.869799e+02   1.546332e+01
   1.982837e+02   2.394849e+02
  -1.617396e+02   1.329331e+02
  -1.622758e+02  -1.621573e+02
   1.911244e+02  -1.555490e+02
   3.270436e+02   1.632013e+02
   1.101628e+02   3.404096e+02
  -2.094276e+02   2.705664e+02
  -3.701151e+02   6.329664e+01
  -1.714304e+02  -8.888916e+01
   3.629348e+01  -2.270675e+02
   1.933343e+02  -2.641064e+02
   3.450367e+02  -1.592964e+02
   3.088647e+02   1.687458e+02
   8.634254e+01   4.059703e+02
  -2.019867e+02   3.409977e+02
  -1.436761e+02   1.453051e+02
   1.784441e+01  -6.225942e+01
  -5.837114e+01   9.459304e+01
  -1.934843e+02   1.473906e+02
  -2.682225e+02  -7.389938e+01
  -1.275221e+02  -2.789125e+02
   8.481268e+01  -2.360085e+02
   2.313472e+02   1.097682e+01
   1.881717e+02   2.247397e+02
  -3.430782e+01   2.966333e+02
  -2.545554e+02   1.099007e+02
  -3.144216e+02  -1.876498e+02
  -1.185124e+02  -3.820988e+02
   1.691271e+02  -3.184898e+02
   2.500713e+02  -8.691640e+01
   1.258808e+02   3.387914e+01
   9.462299e+01   1.447503e+01
   2.305989e+02  -6.893774e+01
   3.504152e+02   6.413368e+01
   3.590963e+02   2.930524e+02
  -8.946196e+00   3.935462e+02
  -3.780360e+02   4.060352e+02
  -5.372359e+02   1.660208e+02
  -3.154987e+02  -1.169904e+02
  -3.015235e+01  -2.684430e+02
   1.009868e+02  -2.688091e+02
   8.022042e+01  -6.502344e+00
  -8.440434e+01   1.528499e+02
  -2.251759e+02  -9.976702e+00
  -5.582448e+01  -2.096756e+02
   1.319487e+02  -1.714467e+02
   1.457065e+02   9.801536e+01
  -2.919511e+01   2.061353e+02
  -2.010784e+02   5.251973e+01
  -1.770313e+02  -2.952097e+02
   1.287401e+01  -3.437871e+02
   2.671428e+02  -1.686141e+02
   3.233306e+02   1.055196e+02
   2.244881e+02   2.422053e+02
   6.657407e+01   2.616936e+02
  -9.880843e+01   1.341792e+02
  -1.958173e+02  -3.955396e+01
  -5.116170e+01  -6.273274e+01
   4.504029e+01   2.610883e+01
   2.140374e+01   1.519526e+02
  -1.223088e+02   8.343526e+01
  -1.774384e+02  -4.330367e+01
  -4.564975e+01  -7.668398e+01
   1.428649e+02   5.713486e+00
   7.265904e+01   6.342409e+01
  -1.106414e+02   1.326948e+02
  -2.744925e+02  -2.602335e+01
  -2.384815e+02  -1.331879e+02
  -5.532046e+01  -2.728330e+02
   1.935075e+02  -2.564486e+02
   3.115901e+02  -1.063224e+02
   1.547258e+02   1.150071e+02
  -4.459790e+01   5.671453e+01
  -1.008781e+02  -1.104661e+01
   5.038595e+01  -1.187467e+02
   2.240737e+02  -5.946926e+01
   2.096600e+02   1.233803e+02
   4.120976e+01   2.296498e+02
  -5.149229e+01   1.743516e+02
  -1.719522e+02   3.731270e+01
  -8.139031e+01  -5.912682e+01
   5.075290e+01  -4.605665e+01
   3.534233e+01   7.082464e+01
  -7.345255e+01   1.241590e+02
  -1.599765e+02   2.161320e+01
  -1.599291e+02  -1.422314e+02
  -2.363876e+01  -1.888553e+02
   1.230061e+02  -1.535071e+02
   1.829329e+02  -7.801748e+00
   8.700395e+01   1.479314e+02
  -4.774255e+01   1.034137e+02
  -3.999733e+01   5.367321e+00
  -6.534269e+00  -4.635769e+01
  -1.297990e+01  -2.009334e+01
   1.578356e+01   2.480336e+01
  -8.243458e+01  -2.507120e+01
  -1.105353e+02  -4.812583e+01
  -1.371340e+01  -1.973155e+02
   1.061332e+02  -1.106321e+02
   2.234361e+02  -5.925010e+00
   1.639864e+02   1.728707e+02
   6.676778e+01   2.059890e+02
  -1.079699e+02   1.647760e+02
  -1.796184e+02   1.149691e+00
  -7.501752e+01  -1.096794e+02
   4.268373e+00  -4.961536e+01
  -7.870528e+01   3.430984e+01
  -8.237267e+01  -1.004456e+01
  -1.674832e+01  -7.549548e+01
   6.581228e+01  -6.743455e+01
   1.247677e+02  -2.483699e+01
   8.420779e+01   3.582652e+01
  -5.217601e+00   9.435708e+01
  -1.145307e+02   1.046545e+02
  -1.927000e+02  -3.186104e+01
  -1.291919e+02  -1.701184e+02
   9.660104e+01  -2.265194e+02
   2.715239e+02  -1.100908e+02
   2.572334e+02   1.191008e+02
   1.446702e+02   1.798851e+02
  -6.420218e+01   1.125460e+02
  -1.221352e+02   9.841263e+01
  -4.389816e+01   1.238734e+01
  -4.031679e+01   2.145033e+01
  -7.970129e+01   6.503165e+01
  -1.315304e+02  -4.981893e+01
  -7.121776e+01  -1.543882e+02
  -3.646602e+01  -2.132095e+02
   1.266896e+02  -1.460605e+02
   2.174592e+02  -2.186640e+01
   1.020717e+02   1.034829e+02
   3.983686e+01   1.620773e+02
  -9.647155e+01   5.398188e+01
  -5.225835e+01  -5.443951e+01
  -2.463031e+01  -7.813488e+01
  -5.129452e+00  -4.913064e+01
  -2.980437e+01  -6.031727e+01
  -1.956336e+01   2.184243e+01
  -4.648908e+01  -4.525520e+01
   1.769670e+01  -8.748926e+00
   1.272958e+02   1.100929e+01
   1.550044e+02   4.168343e+01
   3.042232e+01   6.882850e+01
  -1.634138e+02   1.075369e+02
  -1.738350e+02   1.076962e+00
  -2.471829e+01  -9.399568e+00
   1.495840e+01  -3.764513e+01
   1.081233e+02   3.035398e+01
   4.216417e+00   4.645797e+01
  -5.702090e+01   6.164396e+01
  -5.124331e+01   1.968086e+01
  -6.791049e+01  -4.260664e+01
  -9.225972e+01  -3.870731e+01
  -4.286078e+01  -4.096999e+01
  -3.339587e+01   2.560796e+00
   1.243762e+01  -8.343408e+01
   7.072830e+01  -1.538633e+02
   8.759097e+01  -1.201457e+02
   1.378024e+02  -3.239525e+01
   1.294731e+02   8.354389e+01
   1.500160e+01   9.944667e+01
  -7.880543e+01   4.394068e+01
  -3.655412e+01  -1.735061e+01
   6.251556e+01   2.650159e+00
   1.094103e+02   5.238446e+01
   7.722394e+01   1.021689e+02
  -4.703669e+01   7.550452e+01
  -1.977103e+02   4.729865e+01
  -1.729417e+02  -4.991841e+01
  -1.081769e+02  -8.400287e+01
   5.123457e+01  -7.015363e+01
   5.065737e+01  -1.694293e+01
  -5.595924e+01   2.935804e+01
  -5.553816e+01  -2.218574e+01
  -4.459957e+01  -1.067047e+02
   1.123867e+02  -1.283485e+02
   1.743442e+02  -6.238885e+01
   1.280449e+02   6.857131e+01
   7.131784e+00   1.516131e+02
  -9.176114e+01   1.378670e+02
  -1.010541e+02  -1.268155e+01
  -4.716764e+01  -1.505981e+02
  -9.850198e+00  -1.070036e+02
   4.848483e+01  -4.082067e+01
   6.206315e+01   4.560973e+01
   5.677421e+01   4.190616e+01
   9.063558e-01   9.920537e+00
  -2.387127e+01   2.018598e+01
   4.525875e+01   9.109921e+01
   6.798546e+01   1.064059e+02
  -2.827188e+01   4.987697e+01
  -1.301080e+02  -4.481175e+01
  -1.126633e+02  -8.041126e+01
  -3.877097e+01  -7.387787e+01
   8.155184e+01  -6.205282e+01
   7.096857e+01  -2.358111e+01
   2.304499e+01   3.061256e+00
  -7.826324e+01   3.480850e+01
  -1.188961e+01   5.450156e+01
   1.348408e+01   1.801257e+01
  -1.426772e+01   1.038727e+00
  -7.788674e+01  -8.907130e+00
  -6.194206e+01  -6.952732e+01
   9.163683e+00  -8.144335e+01
   1.437118e+02  -1.229282e+02
   1.775159e+02  -4.613595e+01
   9.724183e+01   1.196889e+02
   2.669353e+01   1.765944e+02
  -7.818352e+01   1.767385e+02
  -9.759386e+01   8.537764e+01
  -8.420055e+01  -6.379368e+01
  -4.722972e+00  -4.290606e+00
  -3.987242e+00  -1.518784e+01
   2.645991e+01  -1.137564e+01
  -6.173401e+01  -3.781663e+01
  -7.635445e+00  -8.408551e+01
   5.457969e+01  -1.006600e+02
   1.053614e+02   1.184858e+01
   4.017924e+01   1.005852e+02
   3.378091e+00   1.095437e+02
  -7.448644e+01   2.913411e+01
  -9.047976e+01  -5.079926e+01
  -4.373571e+01  -1.130114e+02
   7.182753e+01  -5.591077e+01
   1.202412e+02  -8.230681e+00
   7.138963e+01   6.688760e+01
  -1.823381e+00   1.529081e+01
  -6.770015e+01  -8.135860e+00
   1.052588e+00  -5.462090e+01
   7.743709e+01   1.756763e+01
   4.469971e+01   2.999814e+01
  -1.262555e+02   4.826105e+01
  -1.040857e+02   6.262287e+01
  -6.459122e+01   5.653103e+00
  -3.900593e+00  -8.992504e+01
   2.401025e+01  -7.382982e+01
   6.811265e+01  -1.913630e+01
   4.330777e+00   7.383242e+01
  -1.530949e+01   8.178569e+01
  -5.176931e+01   1.544925e+01
  -3.414148e+01  -5.311228e+01
   3.967519e+01  -2.685143e+01
   5.241269e+01   2.871168e+01
   1.084663e+01   8.720256e+00
  -8.298818e+00   3.546107e+00
   4.705940e+01  -2.646113e+01
   1.767263e+00  -1.872670e+01
  -2.067453e+01   4.949443e+01
   9.613560e+00   6.270972e+01
  -2.876644e+01   3.804356e+00
  -8.881876e+00   5.452374e+00
   4.496429e+01  -3.515301e+01
   5.376696e+01   1.142552e+01
   3.202684e+01   4.707393e+01
   1.947160e+01   3.232122e+01
  -5.972010e+01  -3.150967e-01
  -4.765658e+01  -1.317489e+01
  -3.421690e+01  -4.675479e+01
   6.524558e+01  -6.153542e+01
   7.618855e+01  -5.819191e+01
   7.334287e+01   2.388876e+01
  -3.528399e+01  -1.660596e+01
  -1.210221e+01  -6.880667e+00
   7.248993e+01  -1.401277e+01
   1.097852e+02  -6.329668e+00
