
 $NMID
 id='ANONYMOUS ', fmtdat='(2E16.6)'
 volume=1.0
 tramp=1.0
 $END
  -2.818223e+03  -1.601856e+02
  -1.936793e+03  -1.177733e+03
  -1.704293e+02  -1.732472e+03
   9.382747e+02  -1.090316e+03
   7.660493e+02  -4.608589e+02
   1.645441e+02   4.893459e+01
  -1.277604e+02  -4.696842e+01
   2.572712e+01  -2.944362e+02
   3.754701e+02  -4.161726e+02
   4.736135e+02  -9.511863e+01
   3.816707e+02   3.489273e+02
   1.859508e+01   5.789606e+02
  -2.461034e+02   1.180163e+02
  -2.109319e+02  -3.402501e+02
   1.099679e+02  -4.752745e+02
   3.222702e+02  -1.377618e+02
   3.039121e+02   4.168622e+02
  -8.269735e+01   6.039925e+02
  -3.941585e+02   2.799822e+02
  -4.224040e+02  -1.045814e+02
  -1.372536e+02  -3.258975e+02
   1.020257e+02  -2.403826e+02
   1.580616e+01  -7.840318e+01
  -2.396897e+02  -1.483131e+02
  -2.312133e+02  -3.303668e+02
   9.513612e+01  -3.717628e+02
   5.208544e+02  -9.711172e+01
   5.459795e+02   2.169858e+02
   1.405721e+02   3.316556e+02
  -3.548008e+02   1.217829e+02
  -4.114229e+02  -1.516598e+02
  -8.478033e+01  -3.160347e+02
   2.539927e+02  -2.554018e+02
   4.515791e+02  -5.539573e+01
   2.628440e+02   1.073404e+02
   2.610462e+01   2.686863e+02
   2.637208e+01   8.795117e+01
   8.426098e+01  -4.045711e+01
   2.340846e+02  -4.003440e+01
   1.031511e+02   2.147130e+02
  -1.034053e+02   4.198301e+02
  -3.111220e+02   3.855862e+02
  -2.544553e+02  -7.736813e+01
  -8.287154e+01  -3.129095e+02
   1.185808e+02  -1.119158e+02
   9.762588e+01   2.959512e+02
  -1.906937e+02   2.966804e+02
  -3.917970e+02   2.415450e+01
  -4.182609e+02  -4.040186e+02
  -1.197471e+02  -4.319213e+02
   2.566174e+02  -2.169224e+02
   4.180400e+02   1.283073e+02
   3.020875e+02   2.271952e+02
  -3.724076e+01   1.795176e+02
  -2.434074e+02   6.820053e+01
  -2.146341e+02   1.430088e+01
  -7.767556e+00   2.859499e+01
  -3.207730e+00  -4.484510e+01
  -1.265603e+02  -9.455901e-01
  -1.913317e+02  -6.772027e+01
  -8.844132e+01  -1.860807e+02
   1.237816e+02  -2.249229e+02
   3.512480e+02  -9.802239e+01
   2.422994e+02   8.586009e+01
  -2.357180e+01   2.794163e+02
  -2.820099e+02   3.820154e+02
  -3.814928e+02   1.474068e+02
  -1.896556e+02  -1.987267e+02
   7.209564e+00  -3.802875e+02
   2.409938e+01  -2.767394e+02
  -1.388743e+01  -1.921303e+02
  -5.749638e+00  -1.663413e+02
   1.762536e+02  -6.067068e+01
   2.882763e+02  -2.054636e+01
   2.514820e+02   1.910631e+02
   7.460221e+01   2.650448e+02
  -1.068634e+02   1.412844e+02
  -1.936348e+02  -5.098337e+01
  -1.389543e+02  -2.889275e+02
   7.029834e+01  -2.085030e+02
   2.147934e+02  -1.740715e+01
   2.611839e+02   2.049519e+02
   1.103307e+02   2.339423e+02
  -4.866484e+01   2.449588e+02
  -1.547060e+02   1.074228e+02
  -1.376374e+02   7.666184e+01
  -1.584169e+02   6.987378e+01
  -2.706041e+02   3.287353e+01
  -4.434063e+02  -1.140592e+02
  -2.882984e+02  -3.065319e+02
   3.415072e+01  -4.234896e+02
   4.112466e+02  -3.847285e+02
   4.478524e+02  -1.184041e+02
   2.708729e+02   1.042919e+02
   1.200600e+01   2.307177e+02
  -4.745061e+01   1.797232e+02
   1.009583e+00  -1.405070e+01
   1.685267e+02  -3.554738e+00
   1.823090e+02   2.817978e+01
  -5.208925e+01   1.448546e+02
  -1.399115e+02   9.402199e+01
  -1.053235e+02  -9.078106e+01
   5.565267e+01  -1.120274e+02
   1.406042e+02   1.777186e-01
   1.568217e+02   2.179101e+02
  -4.378670e+01   3.554479e+02
  -2.686882e+02   1.554443e+02
  -3.791127e+02  -5.033970e+01
  -2.530268e+02  -2.684226e+02
  -4.789023e+01  -2.644936e+02
   1.061366e+02  -1.558718e+02
   1.357407e+02  -1.159145e+01
  -4.941325e+00   1.891644e+01
  -7.473185e+01  -5.679020e+01
   2.301047e+01  -1.192422e+02
   1.275966e+02  -5.631329e+01
   1.405276e+02   4.633229e+01
   5.479436e+01   7.814488e+01
  -1.222763e+02  -2.230790e+01
  -6.548056e+01  -1.141102e+02
   1.490782e+02  -1.047912e+02
   3.206930e+02   4.544086e+01
   2.198120e+02   1.984237e+02
   3.190576e+01   2.881262e+02
  -2.426248e+02   2.204954e+02
  -2.982849e+02   1.380417e+01
  -1.136596e+02  -7.827275e+01
   5.255527e+01  -3.479279e+01
   5.380195e+01   7.555430e+01
  -9.705144e+01   1.321051e+02
  -1.941849e+02   7.394410e+00
  -1.882468e+02  -1.043088e+02
   1.545705e+00  -2.049344e+02
   1.107097e+02  -1.226081e+02
   1.414157e+02  -3.440731e+00
   5.528856e+01   5.461345e+01
  -7.200263e+01  -2.266118e+01
  -2.046646e+01  -1.007886e+02
   7.347030e+01  -1.132798e+02
   2.401965e+02  -2.427537e+01
   1.626543e+02   1.114526e+02
  -1.981794e+00   2.187491e+02
  -1.730468e+02   1.076215e+02
  -1.774336e+02  -2.030103e+01
  -1.363001e+01  -1.191992e+02
   9.077891e+01  -1.069122e+02
   2.893763e+01  -7.438999e+00
  -1.299763e+01   4.701885e+01
   2.401119e+01   9.785467e+00
   1.781792e+00  -2.542147e+01
   4.850713e+01  -2.868101e+00
   1.031520e+02   8.993393e+01
  -2.547152e+01   1.641699e+02
  -1.776097e+02   1.839271e+02
  -2.310813e+02   4.482538e+00
  -1.660713e+02  -1.460744e+02
  -4.182482e+01  -2.648733e+02
   1.003175e+02  -7.825906e+01
   1.155066e+02  -3.175358e+01
   4.447462e+01   2.711215e+01
   6.619653e+01  -7.295220e+00
   5.540704e+01  -1.402161e+01
   1.338413e+02  -2.980857e+01
   4.959329e+01   5.896941e+01
  -6.953810e+01   9.502292e+01
  -1.142262e+02   3.728029e+01
  -1.163393e+02  -2.086398e+01
   2.541951e+01  -1.502405e+02
   1.580895e+02  -8.376235e+01
   2.180655e+02   8.235206e+01
   2.959489e+01   1.747385e+02
  -1.270617e+02   2.124838e+02
  -2.811682e+02   6.123052e+01
  -1.894923e+02  -1.390617e+02
  -5.217691e+01  -1.527422e+02
   6.293974e+01  -1.077544e+02
   6.998184e+01  -6.775996e+01
   3.640720e+01  -8.569620e+01
   3.308529e+01  -8.590316e+01
   1.186025e+02  -1.006943e+02
   1.128856e+02   1.210195e+01
   6.045903e+01   1.541240e+02
  -1.476411e+01   2.218325e+02
  -1.723419e+02   1.430038e+02
  -1.649667e+02  -7.598622e+00
  -1.282168e+02  -1.842841e+02
   3.391224e+00  -1.854249e+02
   7.910867e+01  -5.875766e+01
   3.819530e+01   1.183773e+01
   3.984320e+01   4.194349e+01
  -1.983934e+01   3.043569e+01
   1.893043e+01   1.405240e+01
   6.657547e+01   6.520857e+01
   5.114426e+01   3.416562e+01
  -4.001399e+01   1.283313e+01
  -1.474100e+02  -2.465280e+00
  -1.370008e+02  -1.077101e+02
  -4.689962e+00  -9.800455e+01
   1.416638e+02  -9.123698e+01
   1.543582e+02   5.600187e+00
   3.417367e+01   6.325423e+01
  -6.243966e+01   3.634641e+01
  -6.692795e+01  -6.279001e+01
  -3.975866e+01  -6.843632e+01
   2.713637e+01  -1.196778e+02
   8.304274e+01   4.141118e+00
   5.195680e+01   1.013745e+01
   4.767120e+01   4.238145e+01
   7.459781e+01   1.249175e+01
   7.567125e+01   1.461188e+00
   6.339262e+01   8.585940e+01
  -3.274292e+01   1.432663e+02
  -1.651816e+02   1.336965e+02
  -1.755710e+02  -1.218528e+01
  -9.821399e+01  -1.083666e+02
   2.926589e+00  -1.320578e+02
   8.356858e+01  -5.383079e+01
   8.457709e+01   3.221297e+01
  -6.399124e+01   4.225133e+01
  -1.177788e+02  -4.961285e+01
  -4.327059e+01  -1.079482e+02
   1.130602e+02  -1.337273e+02
   1.799810e+02  -4.811892e+01
   1.609783e+02   8.036159e+01
   5.840663e+01   1.016650e+02
  -1.220066e+02   7.080826e+01
  -6.335046e+01   7.079230e+00
   2.687088e+01  -3.991761e+01
   1.202764e+02   1.540873e+01
   6.866639e+01   1.586181e+02
  -1.029375e+02   1.153383e+02
  -1.285244e+02   6.131836e+01
  -1.103782e+02  -4.733721e+01
  -3.420439e+01  -1.676906e+02
   1.017706e+02  -1.202558e+02
   9.873915e+01   2.272943e+01
   2.812972e+01   1.257158e+02
  -1.303982e+01   1.149547e+02
  -3.433067e+01  -1.052276e+00
  -5.565822e+01  -4.397379e+01
  -1.226346e+00  -8.432582e+00
  -1.468141e+01  -2.106974e+01
  -7.079921e+01   7.080420e+00
  -5.898045e+01  -1.221582e+02
   4.767484e+00  -1.170379e+02
   3.981147e+01  -7.626079e+01
   1.445529e+02   6.523926e+01
   1.362316e+02   1.242211e+02
   1.332804e+01   2.887644e+01
  -8.980257e+01   6.115711e+01
  -7.613333e+01  -4.437867e+00
  -5.265870e+01  -2.456910e+01
  -3.120103e+00  -7.207068e+00
  -1.627936e+01   2.126143e+00
  -2.439958e+01   1.076722e+01
  -6.885677e+00  -6.347745e+00
   8.410771e+01  -3.548252e+01
   7.624112e+01  -5.587093e+00
   2.179047e+01   8.410486e+01
  -1.130701e+02   1.353376e+02
  -1.990672e+02   5.334079e+01
  -1.732126e+02  -2.815154e+01
  -3.538212e+00  -1.496139e+02
   7.554764e+01  -1.455591e+02
   1.001814e+02  -7.956637e+01
   5.730441e+01  -1.852591e+01
   6.922004e+01   3.949596e+01
   2.451066e+01   9.402177e-01
   4.901474e+01   1.764901e+01
   3.927197e+01   2.893761e+01
   9.029741e+00   8.452826e+01
  -3.682252e+01   8.435524e+01
  -4.309147e+01   1.111051e+01
  -6.418504e+01  -1.161478e+02
  -1.431960e+01  -1.265936e+02
   1.196310e+02  -5.416886e+01
   9.165741e+01   6.137360e+01
   4.259243e+01   9.408088e+01
  -4.688636e+01   3.109688e+01
  -9.151855e+01   1.417268e+01
  -5.340078e+01  -7.122093e+01
   4.780415e+00  -6.750758e+01
   9.888348e+01  -3.023249e+01
  -2.802106e+01   2.645581e+01
  -7.152386e+01   1.313344e+01
  -2.611360e+01  -2.150571e+01
   6.055081e+01  -8.244469e+01
   1.003924e+02  -3.077728e+01
   5.284186e+01   2.270734e+01
  -7.263259e+00   4.377105e+01
  -7.151442e+01   6.968673e+01
  -9.338803e+01   5.742547e+00
  -2.834907e+01  -8.430971e+01
   2.199631e+01  -3.336564e+01
   3.092703e+01   4.279513e+01
   3.030585e+01   2.698728e+01
   2.493793e+01   4.573907e+01
  -2.264780e+01   3.041807e+00
   1.039335e+01  -1.145506e+01
  -2.864444e+01  -1.300126e+01
   1.137753e+01   3.985996e+01
   1.606358e+00   1.366708e+01
   9.744025e+00  -2.460846e+01
   1.622861e+01  -6.572496e+01
   3.035701e+01  -1.565704e+00
   3.159114e+01   5.045316e+01
   1.153730e+01   3.694164e+01
  -9.871210e+00   2.124069e+01
  -6.913751e+01  -1.787542e+01
  -1.305433e+01  -3.311870e+01
   5.006915e+01  -4.492933e+01
   2.880511e+01  -1.193250e+00
   3.558890e+01   9.067607e+01
  -5.715169e+01   4.753580e+01
  -7.327936e+01   5.036874e+00
  -3.452612e+01   1.253041e+01
   8.158273e+00   6.106570e+00
   2.148061e+01   8.336834e+00
  -4.214486e+01   2.457303e+01
  -7.106815e+01  -4.536643e+01
