
 $NMID
 id='ANONYMOUS ', fmtdat='(2E16.6)'
 volume=1.0
 tramp=1.0
 $END
   2.466967e+03   2.771800e+01
   1.929122e+03   1.050807e+03
   3.056252e+02   1.714248e+03
  -9.270810e+02   1.253024e+03
  -7.851055e+02   4.333512e+02
  -1.084008e+02  -1.268001e+02
   2.063186e+02   1.580592e+02
  -2.608762e+01   4.126481e+02
  -4.207905e+02   4.963054e+02
  -5.029512e+02   8.245950e+01
  -4.700513e+02  -3.701604e+02
  -4.801653e+00  -5.962141e+02
   2.051022e+02  -1.822078e+02
   2.683880e+02   3.325320e+02
  -6.404503e+01   4.909905e+02
  -3.318490e+02   5.957056e+01
  -3.665652e+02  -4.238347e+02
   6.737019e+01  -6.112066e+02
   3.799991e+02  -2.639384e+02
   3.773239e+02   1.103616e+02
   1.014857e+02   3.047340e+02
  -1.172722e+02   1.730538e+02
  -6.891680e+01   4.095389e+01
   1.806371e+02   1.074465e+02
   2.591929e+02   2.963043e+02
  -3.664585e+01   3.338041e+02
  -4.618322e+02   9.552878e+01
  -5.455716e+02  -1.820345e+02
  -1.860937e+02  -3.850276e+02
   2.588696e+02  -1.071362e+02
   4.162082e+02   1.342410e+02
   1.531181e+02   3.642819e+02
  -2.425823e+02   3.177182e+02
  -4.006011e+02   1.428760e+02
  -2.660915e+02  -1.228640e+02
  -5.460687e+01  -2.773845e+02
   2.862227e+01  -1.710424e+02
  -8.754620e+01   9.055253e+01
  -1.861260e+02   1.535348e+02
  -1.571031e+02  -1.544078e+02
   5.172773e+01  -3.835460e+02
   2.440830e+02  -4.193643e+02
   2.406477e+02   4.000245e+01
   1.178243e+02   3.458272e+02
  -1.689846e+02   1.173637e+02
  -1.597137e+02  -2.110689e+02
   1.021087e+02  -3.312662e+02
   3.540521e+02  -8.680920e+01
   4.392190e+02   4.166046e+02
   1.255778e+02   4.044811e+02
  -2.059375e+02   2.658906e+02
  -4.863487e+02  -3.449469e+01
  -3.376162e+02  -1.738246e+02
   3.675145e+01  -1.568923e+02
   2.300060e+02  -7.256204e+01
   1.872284e+02   1.093577e+01
  -1.850660e+01   3.768523e+01
  -7.121328e+01  -3.737964e+01
   1.306748e+02  -3.067194e+01
   1.935253e+02   7.516945e+01
   7.776995e+01   1.878596e+02
  -1.661322e+02   2.376030e+02
  -3.218150e+02   1.462162e+02
  -2.517957e+02  -1.044940e+02
   1.392434e+01  -2.771518e+02
   2.783564e+02  -3.887425e+02
   3.632647e+02  -1.611208e+02
   2.192040e+02   1.276633e+02
   3.716239e+00   3.071138e+02
  -4.818569e+01   2.995548e+02
   8.564981e-01   1.449755e+02
  -5.037518e+01   1.023528e+02
  -1.673118e+02   1.064171e+02
  -2.620798e+02   3.530141e+01
  -2.294388e+02  -9.839831e+01
  -6.358081e+01  -2.723563e+02
   1.094543e+02  -1.778796e+02
   1.658004e+02   7.095191e+01
   1.103984e+02   2.461481e+02
  -7.120055e+01   1.840894e+02
  -1.809579e+02   8.219873e+01
  -2.446612e+02  -1.351968e+02
  -1.695477e+02  -2.842239e+02
   5.238699e+01  -1.584816e+02
   1.372473e+02  -1.700632e+02
   9.378461e+01  -8.618058e+01
   1.602924e+02  -2.879129e+01
   2.507041e+02  -8.165586e+00
   3.571293e+02   7.648914e+01
   2.861592e+02   3.042801e+02
  -4.105900e+01   4.054695e+02
  -3.609251e+02   2.946903e+02
  -4.251540e+02   1.649084e+02
  -2.345352e+02  -7.905126e+01
  -2.477326e+01  -2.161194e+02
   1.024511e+02  -1.950203e+02
   2.100677e+01  -3.783406e+01
  -1.333627e+02   2.494841e+01
  -7.837279e+01  -2.701372e+01
   7.357450e+00  -1.240282e+02
   1.160032e+02  -8.371809e+01
   8.211007e+01   5.128784e+01
  -3.751332e+01   1.325337e+02
  -1.127345e+02   2.858808e+00
  -1.789941e+02  -1.772179e+02
   1.095493e+01  -3.352872e+02
   1.980322e+02  -2.222502e+02
   3.598803e+02   5.203580e+01
   2.509109e+02   2.321854e+02
   9.083004e+01   3.093445e+02
  -1.200938e+02   1.227910e+02
  -1.063043e+02  -1.448937e+00
  -4.322300e+01   7.511114e+00
   3.478165e+01   4.077891e+01
  -2.037059e+01   1.437073e+02
  -1.303694e+02   8.458186e+01
  -1.371887e+02  -5.315947e+01
   4.999051e+00  -7.837957e+01
   9.428803e+01   1.328277e+01
   5.624265e+01   1.154627e+02
  -1.544928e+02   9.834755e+01
  -3.148881e+02  -3.349388e+01
  -2.433824e+02  -1.635059e+02
   2.004718e+01  -2.667727e+02
   1.894905e+02  -1.690176e+02
   2.200676e+02  -5.279132e+01
   1.487222e+02   9.428666e+01
  -6.733377e+01   6.980090e+01
  -5.234843e+01  -4.095918e+01
   7.849859e+01  -1.284815e+02
   1.338930e+02  -1.840346e+01
   2.270683e+02   1.010935e+02
   7.966362e+01   1.742780e+02
  -9.729717e+01   9.668414e+01
  -8.364128e+01   3.883244e+00
  -9.986653e+00  -6.739941e+01
   5.261444e+01   1.381418e+01
   2.998012e+01   1.264638e+02
  -7.447473e+01   6.976075e+01
  -2.372444e+02   5.346853e+00
  -1.615057e+02  -1.294850e+02
  -2.725819e+00  -1.901232e+02
   1.489460e+02  -1.329865e+02
   1.510643e+02   1.134748e+01
   8.504980e+00   1.112308e+02
  -1.779087e+01   8.911877e+01
  -5.305102e+01   2.229984e+01
   2.716518e+01  -6.800550e+01
   8.006490e+01   2.493393e+01
  -1.536650e+01   2.527874e+01
  -7.530206e+01  -8.781544e+00
  -1.060726e+02  -8.895177e+01
   1.559791e+01  -1.420659e+02
   1.466190e+02  -1.738627e+02
   2.378498e+02   5.741310e+01
   2.021169e+02   1.673393e+02
  -4.022888e+01   2.024059e+02
  -7.360078e+01   1.076894e+02
  -8.948082e+01   4.680100e+01
  -5.088617e+01  -3.299161e+01
  -3.284188e+01   4.103814e+00
  -7.128039e+01   4.122569e+01
  -9.015134e+01   1.881098e+01
  -6.782083e+01  -4.552104e+01
   3.384146e+01  -1.117884e+02
   8.485978e+01  -6.789028e+01
   1.001993e+02   7.606525e+01
  -6.435703e+01   1.377199e+02
  -2.255447e+02   5.826473e+01
  -2.072878e+02  -6.910572e+01
  -5.409216e+01  -1.932335e+02
   1.790252e+02  -1.803903e+02
   2.633583e+02  -2.757117e+01
   2.436038e+02   1.049720e+02
   5.397800e+01   1.378987e+02
  -8.543925e+01   1.307511e+02
  -6.009154e+01   5.644466e+01
  -3.014711e+01   4.534742e+01
  -3.403078e+01   7.250644e+01
  -8.686423e+01   7.835430e+01
  -1.232908e+02  -2.602059e+01
  -9.786938e+01  -1.366242e+02
  -3.889282e+01  -2.463296e+02
   1.238832e+02  -2.077332e+02
   1.066370e+02  -1.731592e+00
   9.835351e+01   1.380198e+02
  -1.126851e+01   1.520299e+02
  -1.243626e+02   9.340254e+01
  -7.342846e+01  -2.781780e+01
   1.131464e+01  -5.708107e+01
   3.798329e+01  -5.300002e+01
   6.401883e+00   1.413151e+01
  -7.094599e+01   5.086038e+00
  -4.708887e+01  -4.851440e+01
   6.247665e+01  -5.223852e+01
   1.278094e+02  -1.919379e+01
   1.414435e+02   9.431806e+01
   7.343335e+00   7.181330e+01
  -1.196461e+02   3.947183e+01
  -1.243839e+02  -5.637060e+00
  -5.883690e+01  -5.582709e+01
   5.246137e+01  -3.310014e+01
   7.397914e+01  -1.229140e+01
  -3.499214e-01   5.721232e+01
  -5.981687e+01   5.078450e+01
  -8.497730e+01   4.174031e+01
  -7.582077e+00  -4.844396e+01
  -2.610110e+01  -4.205726e+01
  -6.412270e+01  -2.005007e+01
  -3.929498e+01   4.670439e+00
   1.319478e+01  -8.512340e+01
   4.480734e+01  -1.282066e+02
   1.278961e+02  -1.690478e+02
   1.629176e+02  -4.074131e+00
   1.262106e+02   1.147059e+02
   1.449171e+01   9.939909e+01
  -1.313626e+02   6.748566e+01
  -6.875657e+01   3.701898e+01
   4.252942e+01   7.114082e+00
   1.536269e+02   4.464903e+01
   5.434076e+01   9.058040e+01
  -6.714543e+01   1.074540e+02
  -2.163540e+02  -9.415784e+00
  -9.936717e+01  -3.963450e+01
   2.904858e+00  -7.276759e+01
   4.510596e+01  -5.046016e+01
   3.966356e+01   1.097259e+00
  -5.515380e+01   5.212584e+01
  -7.603462e+01   8.791728e+00
  -5.825766e+01  -1.143624e+02
   5.668561e+01  -1.587568e+02
   1.417804e+02  -2.898942e+01
   1.147488e+02   1.097879e+02
  -4.583968e+00   1.850850e+02
  -8.767348e+01   1.266963e+02
  -5.754658e+01  -1.749445e+01
  -7.186106e+01  -1.223680e+02
   1.760471e+01  -8.878934e+01
   3.619960e+01  -2.956053e+01
   2.479491e+01   4.236146e+01
   1.562730e+01   2.526260e+01
   1.112054e+01   3.061575e+00
   4.887511e+01   1.772579e+01
   8.842758e+01   7.129565e+01
   4.774495e+00   1.096003e+02
  -1.587038e+01   1.477055e+01
  -9.892833e+01  -4.245357e+01
  -1.244616e+02  -7.742654e+01
  -6.262219e+01  -1.930444e+01
   1.022835e+02   2.360749e+00
   7.888986e+01   3.190256e+01
  -1.201614e+01   2.298260e+01
  -4.427214e+01   1.752527e+01
  -1.103273e+01  -5.093636e+00
   2.298721e+01   1.700670e+01
   3.753444e+01  -3.027593e+01
  -4.917176e+01   7.283164e+00
  -1.119675e+02   1.167786e+01
  -8.716053e+00  -6.995371e+01
   9.421390e+01  -1.109411e+02
   1.713094e+02  -7.944449e+01
   1.268723e+02   5.785629e+01
   3.999296e+01   1.410515e+02
  -7.350377e+01   1.544802e+02
  -9.991578e+01   5.111877e+01
  -9.130337e+01  -1.957588e+01
   3.272855e+00  -1.588605e+01
  -5.469127e+01  -4.361440e+00
   9.269425e+00  -8.656555e+00
  -3.246819e+01  -3.442238e+01
  -1.042794e+01  -1.113609e+02
   3.573778e+01  -6.705401e+01
   4.596154e+01   1.367026e+01
   8.877830e+01   9.510387e+01
   2.265609e+01   1.061447e+02
  -6.752349e+01   3.550704e+01
  -6.575267e+01  -6.131203e+01
   2.942366e-01  -1.093356e+02
   2.154258e+01  -6.661788e+01
   7.052642e+01   2.667306e+01
   2.109237e+01   1.634410e+01
  -1.924977e+01   6.029344e+01
  -4.069673e+01   1.251653e+01
   2.823435e+01  -2.084640e+01
   2.381507e+00  -1.196012e+01
   2.845737e+01   5.259349e+00
  -6.053734e+01   8.175309e+01
  -1.365651e+02   6.698782e+01
  -8.009177e+01   7.522744e+00
   1.554817e+01  -9.049409e+01
   3.578251e+01  -6.011436e+01
   4.904044e+01   6.590359e+00
   4.849217e+00   7.307594e+01
  -3.263489e+01   4.629636e+01
  -1.697097e+01  -4.606071e+01
   6.798803e+00  -4.712979e+01
   1.488646e+00  -4.576793e+01
   1.688578e+01  -1.105025e+01
   4.218537e+01   3.725804e+01
   5.206612e+01   4.150129e+01
  -1.078737e+01  -2.892197e+01
   8.229379e+00   1.479643e+01
  -1.062454e+00   4.543005e+01
  -9.135827e+00   4.586519e+01
  -3.480685e+01   2.517076e+01
  -5.062201e+01  -6.156489e+00
  -3.931890e+01  -5.690813e+01
  -1.150665e+01  -2.668641e+01
   6.235583e+01   4.629573e+01
   2.879657e+01   2.664351e+01
  -9.413531e+01   1.089775e+01
  -3.296146e+01   3.118091e+01
  -5.961240e+01  -4.931022e+01
   5.316098e+01  -3.158254e+01
   8.376773e+01  -2.550507e+01
   2.353735e+01   2.887694e+01
  -4.775205e+01   2.575221e+01
  -3.224955e+01   7.577232e+00
   5.449274e+01  -2.123169e+01
   6.930914e+01  -2.774111e+00
