
 $NMID
 id='ANONYMOUS ', fmtdat='(2E16.6)'
 volume=1.0
 tramp=1.0
 $END
  -2.278713e+03   1.375865e+02
  -1.942028e+03  -1.067792e+03
  -1.966698e+02  -1.751523e+03
   9.454687e+02  -1.188613e+03
   8.281419e+02  -4.434258e+02
   1.095676e+02   1.431040e+02
  -2.777910e+02  -3.807268e+01
  -7.071779e+00  -3.193268e+02
   3.191295e+02  -4.090713e+02
   4.896984e+02  -9.029414e+01
   4.241137e+02   3.929892e+02
   9.323666e+01   4.809165e+02
  -2.200448e+02   2.104774e+02
  -1.833962e+02  -2.997690e+02
   1.137932e+02  -4.474270e+02
   2.985681e+02  -6.713718e+01
   2.635490e+02   4.146249e+02
  -7.339898e+01   5.058129e+02
  -4.003200e+02   2.507851e+02
  -4.286658e+02  -1.027828e+02
  -8.436137e+01  -3.030826e+02
   6.474269e+01  -1.365516e+02
   1.232607e+01  -6.741319e+01
  -1.407359e+02  -6.361607e+01
  -2.291429e+02  -2.893748e+02
   8.552663e+01  -3.246528e+02
   4.255645e+02  -5.432126e+01
   5.317618e+02   2.655095e+02
   8.428202e+01   2.855851e+02
  -3.027887e+02   8.652038e+01
  -3.721000e+02  -1.426414e+02
  -8.891796e+01  -3.307105e+02
   1.830160e+02  -2.819250e+02
   3.768525e+02  -4.321114e+01
   2.239023e+02   1.271673e+02
   9.582943e+01   2.425039e+02
   4.145790e+01   8.929047e+01
   7.805472e+01   4.460361e+00
   1.185076e+02  -1.148696e+02
   7.188565e+01   1.666184e+02
  -5.989907e+01   2.968805e+02
  -2.482903e+02   3.760508e+02
  -1.735872e+02  -1.150156e+02
  -5.008320e+01  -2.155138e+02
   7.220523e+01  -8.636852e+01
   9.329753e+01   2.189898e+02
  -1.317527e+02   2.301628e+02
  -3.323979e+02   1.026967e+01
  -4.042561e+02  -4.013162e+02
  -9.790604e+01  -3.924561e+02
   2.994803e+02  -2.372126e+02
   4.029917e+02   4.419261e+01
   2.896846e+02   1.521632e+02
  -5.981560e+00   1.355840e+02
  -1.750411e+02   5.914860e+01
  -1.377288e+02   5.338777e+01
  -3.874343e+01   1.089388e+01
  -3.197149e+01   1.028072e+01
  -7.813201e+01  -1.894091e+01
  -1.726292e+02  -5.957537e+01
  -1.076251e+02  -1.340680e+02
   1.431711e+02  -1.799419e+02
   2.787800e+02  -1.064954e+02
   1.974402e+02   5.446715e+01
   1.097191e+01   2.767672e+02
  -2.954803e+02   2.462016e+02
  -3.598180e+02   1.140489e+02
  -2.185832e+02  -1.359779e+02
  -7.875474e+01  -2.972922e+02
   6.705608e+01  -2.592017e+02
  -2.055768e+00  -1.084119e+02
   4.547870e+01  -1.080542e+02
   1.445801e+02  -1.320108e+02
   2.199322e+02  -7.701500e+01
   2.313457e+02   9.829706e+01
   7.232701e+01   2.502870e+02
  -1.317557e+02   1.674914e+02
  -1.878700e+02  -1.906341e+01
  -7.030475e+01  -2.272287e+02
   8.678181e+01  -2.425229e+02
   2.033303e+02  -7.663581e+00
   2.755350e+02   1.361853e+02
   1.300290e+02   2.124480e+02
  -5.384945e+01   2.016051e+02
  -1.292715e+02   1.275750e+02
  -1.027787e+02   1.051194e+02
  -1.665797e+02   8.460102e+01
  -1.990868e+02   4.707364e+01
  -3.021434e+02  -9.416669e+01
  -2.511982e+02  -2.785408e+02
   5.176564e+01  -4.018283e+02
   3.358508e+02  -3.632306e+02
   4.287630e+02  -1.173621e+02
   2.446324e+02   8.522672e+01
   1.341189e+01   2.017983e+02
  -1.134067e+02   1.313694e+02
  -3.479381e+01   5.374335e+01
   1.129864e+02  -1.440493e+01
   1.036709e+02   3.004657e+01
  -4.658983e+01   1.246738e+02
  -1.241933e+02   7.777613e+01
  -7.781751e+01  -6.780120e+01
   5.188717e+01  -1.262340e+02
   1.973893e+02  -8.751086e+00
   1.207826e+02   2.027731e+02
  -3.891636e+01   3.139995e+02
  -2.663794e+02   2.201129e+02
  -3.257892e+02  -6.998264e+01
  -1.937291e+02  -2.452137e+02
  -5.067239e+01  -2.711516e+02
   1.567672e+02  -1.395406e+02
   1.391522e+02  -2.545104e+00
   4.819211e+01   4.450471e+01
  -6.532636e+01  -7.046539e+01
   1.784476e+01  -1.189703e+02
   1.244950e+02  -7.610386e+01
   1.291644e+02  -2.338000e+01
   4.373330e+01   8.534059e+01
  -8.570446e+01  -2.618998e+01
   4.739072e+00  -1.211725e+02
   1.552553e+02  -8.170534e+01
   2.812993e+02   6.486732e+01
   2.320004e+02   2.273223e+02
  -4.369485e+00   2.415570e+02
  -1.923945e+02   1.964235e+02
  -2.983750e+02   4.098297e+01
  -1.519767e+02  -1.043359e+02
   6.573161e+01  -3.688775e-01
   5.192254e+01   1.344929e+00
  -4.439109e+01   1.086925e+02
  -2.010548e+02   5.974053e+00
  -1.711963e+02  -9.874638e+01
   6.949248e+00  -1.554967e+02
   6.600728e+01  -1.282961e+02
   5.696306e+01   3.231156e+01
   2.388828e+01   6.387561e+01
  -7.641519e+01   2.814689e+01
   1.355594e+01  -8.799626e+01
   7.027906e+01  -9.744376e+01
   2.378230e+02  -1.011106e+01
   1.887673e+02   1.779110e+02
   3.989782e+00   1.814018e+02
  -1.722912e+02   1.060847e+02
  -1.204335e+02  -5.614650e+00
  -3.937161e+00  -4.944086e+01
   4.626449e+01  -1.210282e+02
   4.531041e+01   1.536483e+01
   1.214716e+01   2.306833e+01
  -5.688449e+01  -1.685790e+01
   2.999143e+01  -2.818418e+01
   8.596332e+01   2.802398e+01
   9.368496e+01   8.569558e+01
   3.001978e+00   1.738872e+02
  -1.213157e+02   1.359747e+02
  -1.990088e+02  -1.992295e+01
  -1.826068e+02  -1.367640e+02
  -3.177222e+00  -2.118505e+02
   9.229882e+01  -1.080911e+02
   1.309085e+02   2.985958e+01
   1.126862e+01   2.392084e+01
   4.221334e+01  -2.670052e+00
   4.238694e+01   1.671186e+01
   7.187488e+01  -4.828220e+01
   7.581097e+01   3.304799e+01
  -2.707523e+01   1.032267e+02
  -1.024640e+02   6.703478e+01
  -1.194732e+02  -4.898192e+01
   4.808304e+01  -1.367721e+02
   1.661357e+02  -8.010935e+01
   1.503599e+02   6.934394e+01
   3.951845e+01   1.747265e+02
  -1.530000e+02   1.502914e+02
  -2.661687e+02   7.112528e+01
  -2.227443e+02  -1.196494e+02
  -8.386075e+01  -1.356939e+02
   5.958031e+01  -1.212960e+02
   5.449274e+01  -6.610320e+01
   7.047220e+01  -6.322939e+01
  -8.169312e+00  -6.355630e+01
   8.264223e+01  -4.058418e+01
   1.290672e+02   1.621529e+01
   1.122278e+02   1.217527e+02
   5.889781e-01   1.787523e+02
  -1.324145e+02   1.392801e+02
  -1.427849e+02   3.989678e+01
  -1.073580e+02  -1.496541e+02
  -5.473444e+00  -1.562679e+02
   9.743612e+01  -6.815928e+01
   3.325216e+01   4.997674e+00
  -3.478403e+01   4.139346e+01
  -6.365875e+01   2.079017e+01
   8.577305e+00  -2.248342e+01
   8.402724e+01   3.099848e+01
   3.058993e+01  -1.923928e+00
  -2.874562e+01   4.085708e+01
  -2.118003e+02   1.239572e+01
  -1.293436e+02   3.314618e+00
  -4.746924e+01  -5.478602e+01
   1.171635e+02  -4.151344e+01
   1.028103e+02  -5.513491e+01
   1.405743e+01   2.744099e+01
  -3.918871e+01   1.114882e+01
  -2.741761e+01  -1.210601e+01
   1.813358e+01  -4.267757e+01
   7.506452e+00  -1.014394e+01
   5.187609e+01  -1.494275e+01
   5.994815e+01   2.015444e+01
   4.147626e+01   7.782583e+01
   1.118884e+01   5.530274e+01
   2.089141e+01  -7.391633e+00
  -6.208098e+00   5.473647e+01
  -1.715343e+01   1.560932e+02
  -1.156330e+02   1.208733e+02
  -1.360458e+02   4.198845e+01
  -7.293656e+01  -9.654991e+01
  -6.397229e+00  -7.283015e+01
   6.843696e+01  -5.663455e+01
   4.645655e+01   1.421492e+00
  -7.052635e+01   2.603340e+01
  -1.218423e+02  -2.834833e+01
  -4.761674e+01  -1.167985e+02
   8.236192e+01  -5.059328e+01
   1.667864e+02  -5.955948e+01
   7.809791e+01   2.941121e+01
   2.881737e+00   8.507132e+01
  -4.329500e+01   5.414087e+01
  -4.755118e+01   1.614712e+01
   1.488098e+01  -6.334627e+01
   4.417375e+01  -2.273368e+00
   2.424062e+01   1.318691e+02
  -3.479603e+01   1.837049e+02
  -1.395620e+02   8.649008e+01
  -6.384321e+01  -6.125594e+01
  -6.576084e+01  -1.385584e+02
   4.634356e+01  -1.085898e+02
   7.260168e+01   3.144900e+01
   1.371293e+01   1.035145e+02
  -7.339337e+01   7.157673e+01
  -1.222673e+01   3.642687e+01
  -3.534691e+01  -2.435968e+01
  -6.380767e+01  -2.397327e+01
   1.007122e+01  -1.463446e+01
  -1.190518e+01  -1.260039e+01
  -8.301144e+01  -6.744446e+01
  -1.813724e+01  -8.328513e+01
   5.638078e+01  -1.287396e+01
   9.017311e+01   1.000127e+01
   1.116583e+02   6.069146e+01
   4.085529e+00  -1.123890e+01
  -7.146644e+01   3.474852e+01
  -6.049543e+01   1.960060e+01
  -3.484553e+01  -1.683880e+01
   3.664231e+01  -3.391143e+01
  -1.376093e-03   1.787654e+01
  -2.528692e+01   1.918019e+01
  -4.643445e+01   2.045719e+01
   6.027751e+01  -4.486584e+00
   5.398114e+01   4.735603e+01
   4.048514e+01   3.440853e+01
  -7.284240e+01   1.109559e+02
  -1.175753e+02   5.246968e+01
  -1.580836e+02  -5.976598e+01
  -8.650389e+01  -1.308021e+02
   5.943968e+01  -1.412839e+02
   9.117954e+01  -5.489907e+01
   3.265792e+01   3.125164e+01
   1.820654e+01   2.477643e+01
   2.812607e+01   3.093184e+01
   3.841204e+01   1.065354e+01
   2.861700e+01   3.498734e+01
  -2.600094e+01   6.564382e+01
  -5.427529e+01   5.305197e+01
  -3.670270e+01  -1.201288e+01
  -4.497038e+01  -7.664214e+01
  -8.544856e-02  -9.706404e+01
   9.398280e+01  -2.209047e+01
   9.804445e+01   4.754791e+01
   4.057993e+01   8.489418e+01
  -3.109356e+01   3.882256e+01
  -6.956431e+01  -4.734624e+01
  -4.118044e+01  -2.206858e+01
   4.842951e+01  -5.107968e+01
   2.353495e+01  -3.118367e+00
  -4.172063e+01   7.127121e-01
  -5.297319e+01   1.659651e+01
  -1.794658e+01  -1.298835e+01
   5.366458e+01  -9.714950e+01
   7.453073e+01  -5.183036e+01
   9.323081e+01   1.668462e+01
   1.631921e+01   9.948629e+01
  -4.000930e+01   9.159303e+01
  -1.407862e+01  -1.397220e+01
  -1.699972e+01  -6.618227e+01
   2.772855e+01  -5.105880e+01
   4.320094e+00  -1.031252e+01
   5.056029e+01   6.590405e+01
   3.918244e+00   6.017224e+01
  -3.689758e+01  -2.049293e+01
  -2.847816e+01  -5.071731e+01
   6.161221e+00  -4.986569e+01
  -1.026131e+01   4.736808e+01
   1.517082e+01  -1.461696e+01
   2.263933e+01  -5.833692e+01
   1.736289e+01  -9.504759e+01
   3.542479e+01  -3.363015e+01
   3.599302e+01   1.714902e+01
  -7.218849e+00   5.793749e+01
  -1.185644e+01   1.011964e+01
  -5.561407e+01  -2.334146e+01
   4.267380e+00  -7.470493e+01
   6.099513e+01  -3.132301e+01
   8.136788e+01   1.146743e+01
   7.219187e+01   1.589996e+01
  -4.481464e+01   6.035596e+01
  -5.775813e+01   2.316546e+01
  -2.433252e+01   3.357410e+01
   2.926129e+01   2.928356e+01
   2.657737e+01  -2.992613e+01
  -6.574298e+00   1.556905e+01
  -4.206308e+01   9.126008e+00
