
 $NMID
 id='ANONYMOUS ', fmtdat='(2E16.6)'
 volume=1.0
 tramp=1.0
 $END
   3.016572e+03   5.211024e+02
   1.648256e+03   2.282169e+03
  -5.937670e+02   1.849563e+03
  -1.642229e+03   4.356475e+02
  -6.023374e+02  -4.916181e+02
   4.594003e+02  -3.362878e+02
   5.105385e+02   3.930930e+02
  -1.116954e+02   7.526370e+02
  -6.440796e+02   4.622519e+02
  -6.357517e+02  -1.919904e+02
  -2.052567e+02  -6.530855e+02
   2.886925e+02  -6.279621e+02
   4.726662e+02   2.979241e+01
   1.605841e+02   5.154171e+02
  -3.147107e+02   5.392777e+02
  -4.104686e+02  -8.271227e+01
  -1.156935e+02  -5.145826e+02
   2.564906e+02  -3.915620e+02
   4.131943e+02   3.630736e+01
   2.648240e+02   2.939018e+02
  -5.650122e+01   3.288965e+02
  -2.617198e+02   1.306250e+02
  -8.855125e+01  -5.235078e+01
   1.908872e+02  -6.120009e+01
   2.462005e+02   1.549956e+02
   5.658342e+01   2.937228e+02
  -3.556810e+02   1.944429e+02
  -5.608261e+02  -1.944324e+02
  -2.073752e+02  -4.744639e+02
   3.317056e+02  -1.892418e+02
   4.851987e+02   1.180005e+02
   1.761303e+02   4.163515e+02
  -2.946917e+02   3.149832e+02
  -3.862750e+02   2.655700e+01
  -2.109817e+02  -2.133865e+02
   8.114676e+00  -3.049918e+02
   1.566054e+02  -1.595414e+02
   7.283780e+01   1.805873e+02
  -1.902945e+02   2.474458e+02
  -2.994402e+02  -4.022046e+01
  -9.907826e+01  -5.219838e+02
   3.813414e+02  -4.159528e+02
   3.519355e+02   8.251759e+01
   5.317169e+01   3.987718e+02
  -2.209326e+02   1.852252e+02
  -2.368082e+02  -2.533890e+02
   6.409312e+01  -3.638943e+02
   3.963549e+02  -4.617203e+01
   3.744460e+02   3.796355e+02
   1.419280e+01   4.415893e+02
  -2.785033e+02   1.606044e+02
  -4.182111e+02  -1.028100e+02
  -1.962024e+02  -3.088510e+02
   1.519699e+02  -2.445955e+02
   3.143094e+02  -1.223452e+01
   1.295215e+02   1.295808e+02
  -9.282563e+01   7.928078e+01
  -1.157419e+02  -1.454109e+02
   1.270906e+02  -8.302768e+01
   1.980237e+02   7.624371e+01
   9.553465e+01   2.418620e+02
  -1.917506e+02   1.681843e+02
  -2.204472e+02   4.858221e+01
  -1.322927e+02  -1.185667e+02
   5.023713e+01  -1.945325e+02
   1.673571e+02  -2.590894e+02
   1.961624e+02  -1.401704e+02
   1.626052e+02   1.163182e+02
   1.872637e+00   3.313160e+02
  -8.518679e+01   2.108927e+02
  -6.645194e+01   8.306461e+01
   1.767524e+01  -8.356649e-01
  -5.662390e+01   6.184328e+01
  -1.269670e+02   6.554896e+01
  -1.793811e+02  -8.403065e+01
  -5.674840e+01  -2.196003e+02
   7.116316e+01  -1.571368e+02
   1.887087e+02   1.828522e+01
   4.567041e+01   2.099754e+02
  -3.148018e+01   1.936095e+02
  -2.216510e+02   5.522970e+01
  -2.038871e+02  -2.089703e+02
  -1.996318e+01  -2.600421e+02
   1.069245e+02  -1.936804e+02
   1.559278e+02  -3.978732e+01
   1.009571e+02  -2.093295e+00
   6.253657e+01  -3.427139e+01
   1.769497e+02  -7.420536e+01
   2.651790e+02   9.773932e+01
   2.080579e+02   2.033560e+02
  -8.226606e+01   3.032485e+02
  -2.951040e+02   2.161500e+02
  -3.509070e+02   7.086046e+01
  -2.028000e+02  -1.349457e+02
  -1.402517e+01  -2.058314e+02
   1.344851e+02  -2.003910e+02
   5.534303e+01   5.752703e+00
  -7.667651e+01   8.936100e+01
  -1.258426e+02  -2.339009e+00
   6.493397e+00  -1.779135e+02
   1.403203e+02  -1.134764e+02
   1.580064e+02   8.420497e+01
  -4.055241e+01   1.411945e+02
  -1.289563e+02  -1.274962e+01
  -9.430128e+01  -1.568751e+02
   6.762550e+01  -2.574967e+02
   2.023304e+02  -6.808074e+01
   1.735995e+02   1.183737e+02
   1.016286e+02   2.218502e+02
   9.134980e+00   1.842471e+02
  -5.803018e+01   9.187978e+01
  -1.156108e+02   6.332438e+00
  -4.118343e+01  -1.167009e+01
   6.321903e+01   6.982053e+01
   1.068722e+01   1.038275e+02
  -7.816791e+01   3.098314e+01
  -1.015202e+02  -4.459549e+01
  -1.596248e+01  -4.771112e+01
   3.878331e+01   1.453586e+00
   3.146383e+01   7.657133e+01
  -1.310094e+02   4.607587e+01
  -2.201767e+02  -4.919021e+01
  -1.672528e+02  -1.388305e+02
   1.759873e+01  -2.090431e+02
   1.863398e+02  -1.520434e+02
   2.114696e+02  -2.784530e+01
   1.046115e+02   5.197371e+01
  -4.891544e+01   7.435229e+01
  -1.173201e+02   2.951391e+01
   2.368737e+01  -8.049483e+01
   1.624736e+02   3.377062e+01
   1.267335e+02   7.946370e+01
   2.992175e+01   1.362989e+02
  -1.191698e+02   1.023880e+02
  -1.179496e+02  -5.951771e+00
  -2.945347e+01  -9.208551e+00
   1.062597e+01   2.711422e+01
   2.500679e+01   6.049851e+01
  -8.304230e+01   7.789318e+01
  -1.237768e+02   2.460491e+00
  -1.139977e+02  -1.048579e+02
   3.040381e+01  -1.582992e+02
   1.191264e+02  -7.755154e+01
   1.261954e+02  -4.984454e+00
   5.846428e+01   6.415350e+01
  -7.530782e+01   7.052353e+00
  -6.166545e+01   3.225596e+01
  -4.234091e+01  -1.480756e+01
  -1.126505e+00  -1.724806e+01
  -4.054114e+01   3.009313e+01
  -6.369461e+01   1.417947e+01
  -8.615313e+01  -4.864844e+01
  -5.965540e+00  -1.099734e+02
   8.574536e+01  -6.920374e+01
   1.526087e+02   4.536459e+01
   1.289812e+02   2.082076e+02
  -2.707313e+01   1.554988e+02
  -1.170978e+02   5.722836e+01
  -1.049720e+02   2.473915e+01
  -4.185452e+01  -4.029640e+01
   1.931485e+01  -3.030238e+01
  -4.121140e+01   7.103439e+00
  -5.108083e+01   1.548155e+01
  -1.388559e+01  -2.621398e+01
   2.769069e+01  -7.873406e+01
   7.095421e+01  -4.477437e+01
   6.388364e+01   2.163600e+01
   1.413554e+01   7.337250e+01
  -1.114008e+02   1.241077e+01
  -9.611500e+01  -1.880547e+01
  -1.795447e+01  -1.741167e+02
   9.150896e+01  -1.551091e+02
   1.708666e+02  -2.971840e+01
   1.914155e+02   8.311415e+01
   7.585025e+00   1.386838e+02
  -6.505402e+01   7.465827e+01
  -7.827396e+01   3.920463e+01
  -6.068165e+01   6.927279e+00
  -7.899679e+01   2.933391e+01
  -5.144287e+01   2.943803e+01
  -6.910826e+01  -3.323393e+01
  -6.186726e+01  -1.206262e+02
   1.765557e+00  -1.404814e+02
   5.605762e+01  -1.114215e+02
   8.907823e+01   4.665225e+01
   9.373589e+01   8.469198e+01
   6.585890e+00   1.226971e+02
  -7.531006e+01   3.054285e+01
   2.529004e+01  -1.794177e+01
   4.679026e+01   2.308707e+00
   1.776993e+00  -1.575410e+01
  -2.811851e+01  -3.899892e+01
  -5.533625e+01   1.713326e+01
  -1.503786e+01   9.263402e+00
   6.637077e+01  -1.992710e+01
   7.585960e+01   2.685586e+01
   7.383412e+01   5.002989e+01
  -3.721386e+01   3.602340e+01
  -9.525581e+01   1.886586e+01
  -7.821054e+01  -2.812708e+00
  -1.254346e+00  -1.701932e+01
   3.728933e+01  -3.168773e+01
   4.714940e+01   5.012347e+01
  -2.990419e+01   6.589485e+01
  -3.082528e+01   5.359966e+01
  -4.838626e+01  -4.298394e+00
  -2.102589e+01  -5.513341e+01
  -2.602610e+01  -6.540330e+00
  -7.462795e+01   4.225140e+01
  -8.234009e+01   2.730786e+01
   1.739851e+01  -3.176647e+01
   3.409776e+01  -8.232109e+01
   7.252928e+01  -6.644292e+01
   1.092330e+02   1.580863e+01
   7.180434e+01   1.030507e+02
   9.752058e+00   7.391827e+01
  -8.903682e+01   4.615550e+01
  -2.592742e+01  -2.484211e+01
   4.502722e+01  -2.516164e+01
   1.136699e+02   5.304120e+01
   4.773165e+01   9.042021e+01
  -7.939043e+01   5.236417e+01
  -1.390399e+02   4.670202e-01
  -6.419188e+01  -6.722416e+01
   3.739703e+00  -4.660152e+01
   1.875165e+01  -3.075415e+01
   3.969906e+01   4.776678e+00
  -2.140093e+01   8.768291e+00
  -2.076137e+01  -2.520715e+01
  -3.658660e+01  -9.526748e+01
   6.613228e+01  -6.718332e+01
   7.060181e+01  -5.854232e+01
   8.274557e+01   4.994824e+01
   9.043071e+00   1.530778e+02
  -6.805977e+01   1.290597e+02
  -7.157846e+01  -5.191371e+01
  -5.702545e+01  -1.064817e+02
   1.594700e+01  -5.394359e+01
   4.553223e+01   6.730365e+00
   6.814572e+01   1.744774e+01
   1.446978e+01   2.005192e+01
  -7.150716e+01   2.515486e+01
   4.528777e+01   6.994770e+00
   2.667720e+01   5.507245e+01
   3.444309e+01   1.035792e+02
  -5.527206e+01   7.964557e+00
  -1.459706e+02  -2.048128e+01
  -7.391572e+01  -4.598695e+01
  -6.798135e+00  -5.489260e+01
   8.444196e+01  -2.241644e+01
   5.376601e+01  -1.564751e+01
  -9.776873e+00  -1.288786e+01
  -4.231062e+01   1.221391e+01
  -2.658899e+01   4.378646e+01
  -2.991550e+01  -1.924698e+00
  -1.462411e+01  -1.042367e+01
  -2.730256e+01  -2.204115e+01
  -7.272256e+01  -5.843010e+01
   1.770769e+01  -1.940008e+01
   7.287816e+01  -3.654124e+01
   1.354329e+02  -3.375403e+00
   1.035219e+02   1.790664e+01
   4.715049e+01   1.381654e+02
  -3.954965e+01   8.251883e+01
  -6.703091e+01   2.718925e+01
  -5.331602e+01  -4.911783e+00
  -5.707941e+00  -1.579735e+01
  -9.268591e+00  -1.467754e+01
  -3.055867e+01   1.484276e+01
  -4.720079e+01  -4.400973e+01
  -1.319133e+01  -8.863531e+01
   5.901568e+01  -3.078263e+01
   8.221019e+00   2.388770e+01
   2.698650e+01   3.522957e+01
   1.467010e+01   6.555720e+01
  -8.534301e+01  -6.285000e+00
  -6.929874e+01  -3.289939e+01
  -1.619687e+01  -8.255544e+01
   4.345110e+01  -4.034238e+01
   6.825090e+01   2.132933e+00
   5.578527e+01   4.748801e+01
  -6.149102e+01   5.885895e+01
  -3.400065e+01   6.669700e+00
   5.188134e+01  -4.665617e+01
   7.433791e+01  -1.906831e+00
   7.673082e-01   7.718824e+00
  -6.723781e+01  -1.735244e+01
  -7.287492e+01   1.301009e+00
  -4.353662e+01  -4.884707e+01
  -7.245587e+00  -5.032874e+01
   3.265063e+01  -3.680919e+01
   3.494443e+01  -4.953980e+01
  -2.809568e+00   1.100347e+01
  -3.260924e+01   9.888456e+00
  -1.717636e+01  -1.483914e+01
   1.608138e+00   7.814098e-01
  -3.516520e+01  -6.633625e+01
   3.809884e+01   2.335786e+01
   3.737575e+01  -2.144684e+00
   3.728464e+01  -9.625983e+00
  -2.631724e+01  -2.518196e+01
  -1.759591e+01  -1.579885e+01
   1.471181e+01   3.221118e+01
  -7.922420e+01   5.928231e+01
   1.759122e+01  -2.661176e+01
  -2.122583e+01  -5.240118e+01
   1.700090e+01  -7.747091e+01
   3.740726e+01   7.179768e-01
   2.131294e+01   1.466339e+01
   4.564819e+01   4.093677e+01
  -5.324198e+01  -1.382086e+01
  -2.453962e+01  -4.833384e+01
  -3.997181e+01  -1.249604e+00
   1.139688e+01  -3.970531e+01
   6.201617e+01  -2.505990e+01
  -4.797037e-02   2.845816e+01
   7.584006e+00   2.079243e+01
  -1.207321e+01  -4.866792e+01
   5.186236e+01  -2.854861e+01
   7.119413e+01   1.511943e+01
