
 $NMID
 id='ANONYMOUS ', fmtdat='(2E16.6)'
 volume=1.0
 tramp=1.0
 $END
   3.312969e+03   6.855220e+01
   2.071688e+03   1.631347e+03
   4.633737e+01   2.041552e+03
  -1.343134e+03   1.188297e+03
  -1.094503e+03   5.851438e+01
   7.310231e+01  -2.614281e+02
   4.588910e+02   1.516126e+02
   1.331458e+01   5.378536e+02
  -3.779482e+02   3.913722e+02
  -5.604820e+02   7.788258e+01
  -3.619438e+02  -4.761893e+02
  -1.278913e+01  -5.894419e+02
   3.316060e+02  -1.928912e+02
   2.589586e+02   4.426518e+02
  -1.405540e+02   4.495654e+02
  -3.779593e+02   5.234685e+01
  -2.332316e+02  -4.875725e+02
   1.240687e+02  -5.305059e+02
   4.696321e+02  -1.651566e+02
   3.650770e+02   1.597748e+02
   7.757392e+01   2.927209e+02
  -1.270998e+02   1.775496e+02
  -7.110870e+01   6.460353e+01
   1.815760e+02   2.787802e+01
   2.434174e+02   2.509119e+02
   8.204461e+00   3.555002e+02
  -3.767162e+02   1.412694e+02
  -5.246253e+02  -1.488183e+02
  -2.183866e+02  -3.305421e+02
   2.942733e+02  -2.119851e+02
   4.185179e+02   1.325350e+02
   1.861891e+02   3.408043e+02
  -2.497070e+02   3.441884e+02
  -3.992308e+02   1.584605e+02
  -3.346298e+02  -1.329312e+02
  -1.107718e+02  -3.385784e+02
   4.821789e+01  -1.384313e+02
  -1.493921e+01   1.143639e+02
  -1.854494e+02   2.296299e+02
  -1.770985e+02  -1.269096e+02
  -7.427949e+01  -5.307737e+02
   2.443891e+02  -4.243276e+02
   3.402612e+02   5.670025e+01
   1.788015e+02   3.098619e+02
  -1.405524e+02   1.013859e+02
  -1.320452e+02  -2.484872e+02
   8.176257e+01  -3.610440e+02
   3.560602e+02  -4.409770e+01
   5.070962e+02   3.164409e+02
   1.817084e+02   4.308680e+02
  -2.570677e+02   2.634361e+02
  -4.444260e+02  -5.164199e+01
  -2.998148e+02  -2.713142e+02
   4.841755e+01  -2.471042e+02
   3.235326e+02  -7.574344e+01
   2.429343e+02   7.532422e+01
  -2.929059e+01  -1.253312e+00
  -4.572976e+01  -9.935995e+01
   1.272941e+02  -8.461621e+01
   2.266436e+02   1.795665e+01
   1.055901e+02   2.205775e+02
  -1.322186e+02   2.062294e+02
  -3.670943e+02   9.762032e+01
  -2.182745e+02  -5.459967e+01
   7.925978e+01  -2.857533e+02
   2.757991e+02  -3.684640e+02
   3.352470e+02  -1.682582e+02
   1.982249e+02   1.365803e+02
   4.293591e+01   3.459278e+02
   5.842190e+01   3.298149e+02
   2.199377e+01   1.968835e+02
  -3.018863e+01   9.151149e+01
  -7.781227e+01   8.575182e+01
  -2.020338e+02   5.922495e+01
  -2.476779e+02  -9.699233e+01
  -7.282017e+01  -2.496300e+02
   9.473697e+01  -1.814563e+02
   1.580401e+02   4.431875e+01
   1.203804e+02   2.066165e+02
  -1.229874e+01   2.379836e+02
  -1.970492e+02   9.650670e+01
  -2.876899e+02  -1.598941e+02
  -1.405719e+02  -3.474220e+02
   3.243818e+01  -2.244068e+02
   1.627190e+02  -9.050238e+01
   1.283775e+02  -5.317219e+01
   1.440068e+02  -4.637299e+01
   2.196717e+02  -7.335943e+01
   3.591242e+02   2.426390e+01
   2.624750e+02   2.859123e+02
  -2.219173e+01   4.274688e+02
  -3.428173e+02   4.199570e+02
  -3.811569e+02   1.999028e+02
  -2.552597e+02  -5.947936e+01
  -3.560397e+01  -1.933658e+02
   8.201360e+01  -2.173869e+02
   5.659662e+00   3.311728e+01
  -1.079235e+02   5.121205e+01
  -1.531279e+02  -3.560616e+01
  -2.238533e+01  -1.284123e+02
   1.016871e+02  -1.266582e+02
   1.223884e+02   7.059720e+01
  -2.354787e+01   1.514629e+02
  -1.461139e+02  -3.317188e+01
  -1.102313e+02  -1.670425e+02
   5.775641e+01  -3.369153e+02
   2.237849e+02  -1.954075e+02
   3.059766e+02   5.079255e+01
   2.343042e+02   2.727509e+02
   3.782652e+01   2.181166e+02
  -1.130444e+02   1.145104e+02
  -1.386531e+02  -1.111235e+01
   1.060728e+01  -4.412626e+00
   3.542439e+01   5.566350e+01
   7.957037e+00   9.977026e+01
  -1.161739e+02   1.060393e+02
  -1.441458e+02  -1.995308e+01
  -2.278733e+01  -4.050600e+01
   8.492355e+01  -7.373855e+00
   2.858369e+01   8.292366e+01
  -8.857368e+01   1.299584e+02
  -2.435361e+02  -3.693354e+01
  -2.216649e+02  -1.267464e+02
  -1.642188e+01  -2.266146e+02
   1.964171e+02  -2.104969e+02
   2.159935e+02  -9.027585e+01
   8.085938e+01   7.670073e+01
  -3.738505e+01  -2.793735e+00
   7.851977e+00  -4.163923e+01
   4.375977e+01  -6.133997e+01
   1.836834e+02  -5.483355e+01
   1.392015e+02   9.079909e+01
   3.929685e+01   1.440890e+02
  -1.020881e+02   1.228469e+02
  -9.517381e+01   2.598356e+01
  -4.998603e+01  -5.452486e+01
   2.373666e+01   2.750820e+01
  -2.832822e+00   1.237053e+02
  -8.025136e+01   1.133761e+02
  -2.289018e+02   2.722426e+01
  -1.669961e+02  -8.265507e+01
  -3.113205e+01  -2.009774e+02
   1.514159e+02  -1.585926e+02
   1.704864e+02  -2.779106e+01
   7.437727e+01   9.562317e+01
  -7.449291e+01   7.855741e+01
  -8.094556e+01   2.427043e+01
   3.306994e+00  -3.448184e+01
   4.228628e+01  -1.142075e+01
   1.763288e+01   4.095364e+01
  -7.108715e+01  -2.514084e+01
  -1.154488e+02  -1.036398e+02
  -6.172613e+01  -1.498511e+02
   1.359843e+02  -1.583069e+02
   2.140390e+02  -1.501002e+00
   1.944867e+02   1.319816e+02
   4.313596e+01   2.024833e+02
  -1.109979e+02   1.527701e+02
  -1.571368e+02   2.326917e+01
  -7.954343e+01  -7.938831e+01
  -6.123376e+01  -7.461185e+01
  -6.068414e+01  -8.202298e+00
  -1.026382e+02  -5.863747e+00
  -5.203991e+01  -4.657603e+01
   4.922842e+01  -1.318914e+02
   1.392570e+02  -5.072740e+01
   7.340194e+01  -2.046131e+01
  -4.336396e+01   1.518750e+02
  -1.630373e+02   5.462407e+01
  -1.417668e+02  -5.936944e+01
  -7.900359e+01  -1.862359e+02
   1.327857e+02  -1.716137e+02
   2.012119e+02  -5.289326e+01
   1.849279e+02   7.855093e+01
   7.197805e+01   1.258065e+02
  -1.357446e+01   1.210887e+02
  -4.434435e+01   8.080375e+01
  -7.072207e+01   8.778472e+01
  -3.917835e+01   1.410563e+02
  -8.749713e+01   1.181150e+02
  -1.266359e+02  -6.802173e+01
  -1.267365e+02  -1.276172e+02
  -2.088868e+01  -1.890910e+02
   6.907216e+01  -1.313036e+02
   1.401774e+02  -2.872642e+01
   1.389246e+02   1.170140e+02
  -3.963525e+00   1.238618e+02
  -9.828654e+01   6.648349e+01
  -3.934688e+01  -5.396372e+01
  -1.082794e+01  -3.165844e+01
   2.421992e+01   1.919470e+01
  -8.795480e+00   3.625292e+01
  -1.001841e+02   2.445476e+01
  -2.891507e+01  -4.807559e+01
   3.729435e+01  -3.698442e+01
   2.054311e+02  -2.209021e+01
   1.400539e+02   1.488265e+01
  -1.802291e+01   1.036478e+02
  -1.284599e+02   5.734887e+01
  -1.144317e+02  -8.338022e+00
  -4.955684e+01  -5.413950e+01
   2.033829e+01  -5.439730e+01
   5.301636e+01   4.327302e+01
  -1.620269e+01   6.427047e+01
  -1.724257e+01   3.870698e+01
  -3.763685e+01  -2.804924e+01
  -6.075558e+01  -4.231062e+01
  -6.005062e+01  -3.249702e+01
  -5.095530e+01  -1.727952e+01
  -4.669073e+01  -3.096311e+01
  -3.399610e+01  -5.127679e+01
   4.619768e+01  -1.270768e+02
   6.448003e+01  -1.237442e+02
   1.673158e+02  -6.112225e+01
   8.050895e+01   8.220540e+01
  -2.775609e+00   1.118882e+02
  -9.977457e+01   4.977681e+01
  -6.136082e+01   2.022651e+01
   6.375485e+01   1.600322e+01
   8.954856e+01   1.089089e+01
   1.743157e+01   1.134640e+02
  -5.529627e+01   1.639094e+02
  -1.526862e+02   1.183855e-01
  -1.517567e+02  -3.015960e+01
   5.232856e+00  -9.414974e+01
   2.740803e+01  -4.323551e+01
   3.768443e+01   4.289359e+00
  -7.660832e+00   1.590227e+01
  -5.230538e+01  -5.565493e+01
   1.041530e+01  -1.011996e+02
   3.929595e+01  -1.137708e+02
   1.490272e+02  -6.507967e+01
   9.772191e+01   1.012746e+02
   5.524636e+01   1.653187e+02
  -5.902459e+01   1.560949e+02
  -7.767114e+01  -2.733896e+01
  -4.723297e+01  -1.104749e+02
   8.688447e+00  -1.342862e+02
   4.417579e+01  -1.621621e+01
   5.406986e+01   2.927686e+01
   1.748136e+01  -3.410059e+01
  -2.268115e+01  -1.614241e+01
   1.529094e+01   4.795730e+01
   5.962869e+01   9.534909e+01
   4.988535e+01   7.238516e+01
  -4.211624e+01   8.600138e+01
  -1.371844e+02  -4.705697e+01
  -1.223174e+02  -8.929171e+01
  -2.201360e+01  -5.232283e+01
   3.633790e+01  -5.707648e+01
   1.109924e+02   9.021655e+00
   5.756719e+01   9.467145e+00
  -1.924386e+01   3.552550e+01
  -4.580281e+01   5.223953e+01
  -4.982479e+00   1.062806e+00
   9.430775e+00   1.572167e+00
  -6.454597e+01   3.247746e+01
  -7.703555e+01  -2.619668e+01
  -4.808135e+01  -1.142577e+02
   1.519684e+02  -1.298674e+02
   1.437484e+02  -7.774175e+01
   1.557355e+02   1.898371e+01
  -7.392562e+00   1.659383e+02
  -9.589918e+01   1.624386e+02
  -7.325656e+01   5.848821e+01
  -8.167846e+01  -1.607970e+01
  -7.567939e+00  -4.405651e+01
   3.041973e+00  -3.413597e+01
   1.372826e+01  -3.716625e+00
  -3.736150e+01  -5.215113e+00
  -4.364133e+01  -6.804866e+01
   4.439431e+00  -1.027581e+02
   5.618059e+01   2.136106e+01
   7.849749e+01   6.676520e+01
   7.809010e+00   8.651730e+01
  -9.918357e+01   3.854768e+01
  -1.112936e+02  -1.902594e+01
  -1.934894e+00  -7.221544e+01
   6.761864e+01  -7.836319e+01
   3.820396e+01   3.768563e+01
   3.051555e+01   2.967758e+01
  -6.693745e+00   7.812050e+01
  -1.442925e+01   6.782892e+01
   1.909319e+01  -4.013714e+01
   4.742643e+01  -1.137029e+01
  -1.307361e+00   3.524028e+01
  -6.233148e+01   6.785660e+01
  -1.281434e+02   8.261911e+01
  -8.415269e+01   2.499496e+00
   1.194684e+01  -1.065780e+02
   8.448115e+01  -5.704170e+01
   4.584173e+01   1.983313e+01
  -7.926025e-01   4.390471e+01
   2.385124e+00   3.113379e+01
  -4.549974e+01  -1.534840e+01
  -5.977988e+01  -2.426823e+01
   5.690495e+00  -1.715097e+01
   2.048582e+00  -3.827870e+01
   4.028083e+01   4.378407e+01
   9.032802e+00  -1.451473e+01
   8.611359e+00   3.177615e+00
   4.086127e+00  -4.047681e+01
  -1.501369e+01   2.347727e+01
   2.760936e+01   2.141084e+01
  -2.842663e+01   1.188921e+01
  -8.113046e+01  -5.440429e+01
   8.139700e+00  -4.111486e+01
   5.162980e+01  -6.420531e+01
   3.373139e+01   5.714870e+01
   5.055504e+01   6.425596e+01
  -5.126272e+01   4.840010e+01
  -1.009962e+02   1.394026e+01
  -7.762332e+01  -3.504805e+01
   2.864466e+01  -6.511082e+01
   5.244364e+01  -1.377296e+01
   3.211097e+01  -8.826462e+00
  -1.670864e+01   1.835495e+01
  -8.504223e+00   2.848977e+00
  -1.277538e+01  -2.467400e+01
   5.336700e+01   2.214891e+01
