
 $NMID
 id='ANONYMOUS ', fmtdat='(2E16.6)'
 volume=1.0
 tramp=1.0
 $END
   4.682447e+03   4.488902e+01
   2.774387e+03   3.106148e+03
  -1.118130e+03   3.192910e+03
  -2.546587e+03   9.504543e+02
  -1.070908e+03  -9.764365e+02
   7.884614e+02  -7.141794e+02
   1.011883e+03   5.397180e+02
   6.271461e+00   1.198553e+03
  -9.309078e+02   8.862929e+02
  -1.123445e+03  -1.493343e+02
  -5.809335e+02  -1.005409e+03
   3.652054e+02  -9.714188e+02
   8.086129e+02  -7.972893e+01
   4.657931e+02   8.970396e+02
  -3.689126e+02   8.816255e+02
  -7.217360e+02  -1.068892e+02
  -3.107166e+02  -8.395533e+02
   3.993481e+02  -6.751559e+02
   6.440503e+02  -4.405952e+01
   3.888297e+02   4.075840e+02
   5.357264e+01   4.637953e+02
  -2.893726e+02   2.768466e+02
  -2.479795e+02   9.021967e+01
   9.518748e+01  -1.702428e+02
   4.189273e+02   4.905674e+01
   2.936313e+02   4.834220e+02
  -4.734289e+02   5.557672e+02
  -9.474850e+02  -3.246863e+01
  -5.072855e+02  -6.125442e+02
   4.386331e+02  -5.696336e+02
   8.296620e+02   2.061664e+01
   4.629809e+02   5.687280e+02
  -2.833705e+02   5.714083e+02
  -6.576339e+02   2.332100e+02
  -4.608944e+02  -2.623075e+02
  -1.114567e+02  -5.668137e+02
   2.656148e+02  -3.596180e+02
   1.675842e+02   3.039510e+02
  -2.392595e+02   5.070346e+02
  -4.226212e+02  -4.716277e+01
  -2.999185e+02  -7.417693e+02
   3.110286e+02  -8.003413e+02
   6.959215e+02   5.083238e+01
   2.807875e+02   5.977861e+02
  -3.383502e+02   3.942901e+02
  -4.349986e+02  -3.225707e+02
   1.375726e+01  -5.964952e+02
   6.847529e+02  -1.745319e+02
   6.860463e+02   4.656468e+02
   1.409019e+02   7.049664e+02
  -4.595951e+02   3.580408e+02
  -6.914909e+02  -8.598686e+01
  -3.816371e+02  -4.434698e+02
   1.784207e+02  -4.638133e+02
   5.550238e+02  -4.528687e+01
   2.864187e+02   2.008751e+02
  -1.376916e+02   1.301148e+02
  -1.466312e+02  -1.829656e+02
   1.992987e+02  -2.154880e+02
   3.859582e+02   2.903455e+01
   1.608364e+02   3.716888e+02
  -1.837201e+02   2.756740e+02
  -3.598633e+02   4.826198e+01
  -2.286240e+02  -8.856065e+01
  -1.228547e+01  -2.004768e+02
   2.485676e+02  -3.516855e+02
   3.888351e+02  -2.387119e+02
   3.516387e+02   1.794642e+02
   4.274906e+01   5.653480e+02
  -1.308566e+02   4.416033e+02
  -1.118878e+02   7.991934e+01
  -3.293237e+01  -3.289700e+01
  -2.237400e+01   1.038352e+02
  -2.246001e+02   1.960363e+02
  -3.545356e+02  -4.270305e+01
  -1.962506e+02  -2.969958e+02
   6.582117e+01  -3.084456e+02
   2.485268e+02  -4.760490e+01
   2.277692e+02   2.237677e+02
  -1.216623e+00   3.095423e+02
  -3.031349e+02   1.198074e+02
  -3.541702e+02  -1.877204e+02
  -2.031898e+02  -3.527614e+02
   1.407678e+02  -3.413774e+02
   2.577701e+02  -1.021222e+02
   1.379937e+02  -2.048668e+01
   6.324320e+01  -3.740417e+00
   2.803817e+02  -7.237019e+01
   4.244225e+02   4.383016e+01
   4.027638e+02   2.825925e+02
  -1.372782e+01   4.573834e+02
  -4.254675e+02   4.504666e+02
  -5.749051e+02   2.262830e+02
  -3.670145e+02  -1.049946e+02
  -7.848276e+01  -2.959809e+02
   1.576069e+02  -2.558799e+02
   1.513001e+02  -3.267681e+01
  -1.444716e+02   2.008898e+02
  -2.115665e+02   8.735725e+00
  -9.005021e+01  -1.856555e+02
   1.639764e+02  -1.866798e+02
   1.803363e+02   1.046829e+02
   3.826546e+01   1.887528e+02
  -2.175907e+02   6.746984e+01
  -2.055278e+02  -2.696722e+02
  -7.176488e+00  -4.042928e+02
   2.043167e+02  -2.334205e+02
   3.363841e+02   5.284664e+01
   3.238291e+02   2.419509e+02
   1.109862e+02   2.996891e+02
  -1.139140e+02   1.360629e+02
  -1.371570e+02   2.846330e+00
  -5.800406e+01  -1.802065e+01
   5.887263e+01   2.367673e+01
   3.643894e+01   7.786806e+01
  -1.222353e+02   7.693086e+01
  -1.975448e+02  -2.596439e+01
  -8.492422e+01  -9.762842e+01
   6.267728e+01  -6.152484e+01
   4.243848e+01   7.110010e+01
  -8.476469e+01   1.082523e+02
  -2.513171e+02  -8.669036e+00
  -2.916332e+02  -1.248018e+02
  -1.067273e+02  -2.920856e+02
   1.914117e+02  -2.879157e+02
   3.092288e+02  -1.923649e+02
   2.097460e+02   8.332840e+01
  -1.461754e+01   1.288804e+02
  -8.611298e+01   4.130288e+01
   1.342970e+01  -8.301735e+01
   2.131657e+02  -8.040155e+01
   1.553137e+02   8.272723e+01
   6.301685e+01   2.074131e+02
  -1.108862e+02   1.695099e+02
  -1.474702e+02   4.403063e+01
  -7.706636e+01  -1.666001e+01
   3.342144e+01  -2.596306e+01
   1.783918e+01   8.088007e+01
  -9.526708e+01   1.087283e+02
  -2.301378e+02   2.600406e+01
  -1.968217e+02  -1.408127e+02
  -4.549811e+01  -2.270916e+02
   2.221105e+02  -1.542998e+02
   2.316346e+02   2.486901e+01
   8.123294e+01   1.195323e+02
  -9.025980e+01   9.378588e+01
  -5.581309e+01   4.904450e+01
  -4.630032e+01  -2.933156e+01
  -5.105729e+00   5.145091e+00
  -3.001074e+01   2.982836e+01
  -1.474950e+02   3.600389e+00
  -8.842760e+01  -4.222617e+01
  -1.660941e+01  -1.661894e+02
   1.236604e+02  -1.614870e+02
   2.182235e+02  -3.072657e+01
   1.766302e+02   1.724070e+02
   7.694904e+01   2.569372e+02
  -1.023555e+02   1.823622e+02
  -1.345174e+02  -3.516043e+01
  -4.214778e+01  -5.832156e+01
  -7.564225e+00  -4.591296e+01
  -1.892859e+01   9.464770e+00
  -1.025905e+02   2.870333e+00
  -3.702952e+01  -6.422918e+01
   3.285347e+01  -5.123085e+01
   1.214205e+02  -4.265084e+01
   1.055813e+02   5.273163e+01
  -6.915855e+00   1.335720e+02
  -1.502883e+02   7.991806e+01
  -2.360139e+02  -5.237894e+01
  -1.192407e+02  -2.060467e+02
   9.185335e+01  -1.602811e+02
   2.950973e+02  -1.578094e+02
   2.669090e+02   1.224217e+02
   6.994988e+01   2.137047e+02
  -5.747584e+01   1.492814e+02
  -7.840313e+01   8.524815e+01
  -6.179718e+01   3.196200e+01
  -2.400564e+01   1.102548e+02
  -4.626505e+01   9.366530e+01
  -1.131115e+02  -1.709424e+01
  -1.034810e+02  -1.513496e+02
  -5.869381e+01  -2.223439e+02
   1.160305e+02  -2.064331e+02
   2.234747e+02   5.582616e-01
   1.983805e+02   1.218606e+02
   5.368564e+00   1.695850e+02
  -1.007043e+02   1.235179e+02
  -6.446747e+01  -3.848398e+00
   4.683179e+01  -2.914621e+01
  -1.090436e+01   2.519773e+01
  -2.411037e+01  -1.009645e+01
  -7.796350e+01  -1.362653e+01
  -3.953037e+01  -6.609047e+01
   5.984859e+01  -3.039834e+01
   1.633057e+02   1.438337e+01
   1.615191e+02   3.400479e+01
   1.430911e+01   7.632146e+01
  -1.203348e+02   6.140545e+01
  -1.462419e+02   2.296167e+01
  -2.835878e+01  -6.281025e+01
   3.501533e+01  -3.737715e+01
   6.697005e+01   6.047959e+00
   1.693916e+01   5.338411e+01
  -4.493034e+01   1.181407e+02
  -3.283705e+01  -4.621296e+00
  -3.105386e+01  -4.038001e+01
  -5.598171e+01  -2.937280e+01
  -2.702865e+01   1.799787e+01
  -9.589639e+01   1.751432e+00
  -5.129343e+01  -1.309044e+02
   2.911550e+01  -1.563526e+02
   8.203711e+01  -1.836763e+02
   1.853157e+02  -3.269874e+01
   1.352294e+02   8.059213e+01
   2.121827e+01   1.337747e+02
  -8.417306e+01   8.105328e+01
  -7.784729e+01   2.322965e+01
   4.113738e+01  -2.291965e+01
   1.313088e+02   5.165225e+01
   6.557255e+01   1.114407e+02
  -7.026782e+01   1.074240e+02
  -1.907026e+02   8.074150e+01
  -2.061828e+02  -5.119465e+01
  -2.632035e+01  -9.666434e+01
   7.770036e+01  -4.228708e+01
   5.461366e+01  -1.193237e+01
  -2.408732e+01  -1.930800e+00
  -1.056508e+02  -2.308331e+00
  -5.593312e+01  -1.007945e+02
   1.115046e+02  -1.437563e+02
   1.975414e+02  -5.136914e+01
   1.394696e+02   9.125354e+01
   2.289484e+01   1.817738e+02
  -8.754744e+01   1.558591e+02
  -1.303162e+02  -3.692813e+00
  -4.939093e+01  -1.130818e+02
  -1.157053e+01  -1.181591e+02
   5.056053e+01  -3.174080e+01
   5.309031e+01   6.544957e+01
   6.342539e+01   6.172609e+01
  -4.518029e+01   7.080869e+00
  -2.228017e+01   2.555798e+01
   2.570327e+01   7.307456e+01
   2.133030e+01   1.107543e+02
  -5.567698e+01   3.604916e+01
  -1.309217e+02  -4.760111e+01
  -1.344891e+02  -7.121428e+01
  -2.969866e+01  -6.445956e+01
   1.124316e+02  -1.277961e+01
   9.159630e+01  -5.705157e+01
   1.242797e+01  -3.154652e+01
  -7.277037e+01   2.285559e+01
  -8.330194e+00   1.864698e+01
   3.027709e+01   1.254467e+01
   2.683739e+01   1.336864e+01
  -8.956732e+01   1.065810e+01
  -8.789584e+01  -3.787452e+01
  -1.143063e+01  -1.085292e+02
   1.071355e+02  -8.897268e+01
   1.760513e+02  -8.953672e+01
   1.553148e+02   6.901081e+01
   4.289008e+01   1.480200e+02
  -1.561320e+02   1.652740e+02
  -1.148369e+02   3.673974e+01
  -1.286462e+02  -4.392591e+01
  -2.018971e+01  -4.498253e+01
   1.979001e+01  -1.402239e+01
  -1.922885e+01  -6.945581e-02
  -5.178002e+01  -5.370496e+01
   2.679470e+01  -8.226945e+01
   4.344126e+01  -6.268907e+01
   3.773443e+01   1.996850e+01
   8.662525e+01   1.006853e+02
   3.108413e+01   1.251160e+02
  -7.040115e+01   3.556173e+01
  -1.132724e+02  -1.027652e+02
  -2.326670e+01  -1.697433e+02
   7.974198e+01  -7.299585e+01
   1.110285e+02   2.064700e+01
   6.858845e+01   8.280866e+01
  -4.653744e+01   5.032369e+01
  -1.586718e+01   5.753411e+01
   1.937080e+01   1.760247e+01
   6.957647e+01   1.731054e+01
   6.105959e+00   8.475722e+01
  -1.077730e+02   7.788199e+01
  -1.702858e+02   7.310242e+01
  -7.240389e+01  -1.972486e+01
   2.525907e+01  -9.027200e+01
   6.967371e+01  -8.864305e+01
   3.784250e+00   2.020168e+01
  -4.368856e+01   8.960009e+01
   2.451130e+00   6.846760e+01
  -5.912585e+01   3.015533e+00
  -5.422511e+01  -2.480438e+01
   1.102692e+01   2.046627e+01
   6.347710e+01   2.785408e+01
   1.181814e+01   2.065949e+01
   5.805433e+00  -2.106009e+01
  -2.825517e+01  -2.823683e+01
   1.497652e+01  -3.323134e+00
   7.562211e+00   4.471072e+01
  -7.646781e+00   4.410493e+01
  -5.390193e+01  -1.102313e+01
  -7.871574e+01  -4.974710e+01
   5.998498e+01  -5.330913e+01
   4.034034e+01   5.888616e+00
   3.682495e+01   4.394630e+01
   2.202679e+01   7.786114e+01
  -4.468869e+01   1.654731e+01
  -6.859173e+01  -2.561279e+01
  -1.448556e+01  -3.095828e+01
   1.034167e+01  -2.795132e+01
   6.439660e+01  -8.397089e+00
   2.580577e+01  -1.792041e+01
  -1.206618e+01   3.681623e+00
  -2.750771e+01  -4.527119e+01
   2.696223e+01  -1.002080e+01
   8.254131e+01   1.901095e+01
