
 $NMID
 id='ANONYMOUS ', fmtdat='(2E16.6)'
 volume=1.0
 tramp=1.0
 $END
  -2.616059e+03  -1.241458e+02
  -1.868027e+03  -1.511224e+03
  -4.099824e+01  -1.847072e+03
   1.117286e+03  -1.120948e+03
   9.682309e+02  -2.021224e+02
   8.321182e+01   2.469367e+02
  -2.100915e+02  -1.806747e+01
   4.822663e+01  -4.027751e+02
   2.434229e+02  -4.061524e+02
   5.046793e+02  -1.120856e+02
   3.589660e+02   4.157753e+02
   6.981261e+01   4.743458e+02
  -1.914775e+02   1.885159e+02
  -1.922910e+02  -3.209939e+02
   8.203393e+01  -4.355311e+02
   2.795882e+02  -5.102266e+01
   1.938325e+02   4.050472e+02
  -1.645096e+02   5.287365e+02
  -4.084739e+02   1.776908e+02
  -3.185670e+02  -1.145523e+02
  -1.213482e+02  -2.653659e+02
   1.019609e+02  -1.772501e+02
   1.587288e+01  -1.066641e+02
  -1.717881e+02  -9.580651e+01
  -1.938030e+02  -2.965766e+02
   4.214855e+01  -3.168949e+02
   3.934641e+02  -8.826811e+01
   4.323997e+02   1.818881e+02
   1.600760e+02   2.643534e+02
  -2.588518e+02   1.261850e+02
  -4.034885e+02  -1.518152e+02
  -3.670910e+01  -2.779730e+02
   2.547528e+02  -2.847759e+02
   3.607811e+02  -9.191532e+01
   2.928027e+02   1.231350e+02
   1.022728e+02   2.950075e+02
  -1.226264e+01   1.189691e+02
   3.657059e+01  -2.295473e+01
   1.775002e+02  -9.875751e+01
   1.467064e+02   1.125128e+02
   6.159121e+00   4.690558e+02
  -2.677023e+02   3.049657e+02
  -2.136147e+02   5.936618e+00
  -1.311310e+02  -2.592820e+02
   1.394209e+02  -9.672336e+01
   1.250238e+02   2.578606e+02
  -1.691620e+02   2.883395e+02
  -3.423046e+02   9.362931e+00
  -3.988392e+02  -3.530197e+02
  -1.210258e+02  -4.560137e+02
   2.539106e+02  -2.390517e+02
   4.133622e+02   5.608757e+01
   3.311842e+02   1.764116e+02
  -1.465663e+01   1.173075e+02
  -2.698948e+02   1.121550e+02
  -2.227360e+02  -6.754038e+01
  -1.126054e+00   1.622847e+01
   2.991138e+01   4.008584e+01
  -8.140433e+01   3.753674e+01
  -1.560846e+02   2.479512e+01
  -1.125861e+02  -1.284359e+02
   1.562376e+02  -1.551388e+02
   3.200474e+02  -7.929402e+01
   2.669738e+02   1.071023e+02
  -2.625244e+01   3.030204e+02
  -2.422532e+02   3.140809e+02
  -2.898153e+02   1.600520e+02
  -2.040428e+02  -1.282859e+02
  -7.807554e+01  -3.316871e+02
   2.103320e+01  -3.213446e+02
   3.334056e+01  -2.243264e+02
   4.871891e+00  -8.343394e+01
   1.512927e+02  -1.103598e+02
   2.210745e+02  -3.142098e+01
   1.912440e+02   9.679127e+01
   6.954813e+01   2.461062e+02
  -1.137567e+02   2.122138e+02
  -1.312974e+02  -2.240599e+00
  -1.440724e+02  -2.476892e+02
   4.861632e+01  -1.934559e+02
   1.844733e+02  -5.599275e+01
   2.541126e+02   1.840063e+02
   1.501065e+02   2.180905e+02
   2.366530e+01   2.206387e+02
  -1.407329e+02   1.559201e+02
  -1.144933e+02   9.558807e+01
  -1.264932e+02   1.376615e+02
  -2.772678e+02   5.329871e+01
  -3.452451e+02  -4.655332e+01
  -2.295016e+02  -2.800232e+02
   7.128344e+01  -3.744368e+02
   3.231008e+02  -3.666287e+02
   4.650346e+02  -1.335561e+02
   2.273983e+02   8.177177e+01
   1.953602e+01   1.883081e+02
  -9.639151e+01   1.903299e+02
   3.764358e+01   9.404155e+01
   8.162875e+01  -7.240424e+00
   1.108685e+02   2.520925e+01
  -2.320054e+01   1.052170e+02
  -8.865032e+01   9.259055e+01
  -1.203978e+02  -7.013800e+01
   2.302034e+01  -1.107534e+02
   8.285425e+01   4.668020e+01
   1.157712e+02   2.096603e+02
  -4.614183e+01   2.674923e+02
  -2.394262e+02   1.583936e+02
  -2.581523e+02  -5.943754e+01
  -2.298434e+02  -2.092861e+02
  -4.563028e+01  -2.716669e+02
   1.295952e+02  -1.283666e+02
   9.267520e+01  -1.351373e+01
   2.709842e+01   8.284605e+00
  -3.281157e+01  -7.874976e+01
   2.767086e+01  -5.878973e+01
   1.300933e+02  -4.049487e+01
   1.304549e+02   1.606522e+00
   4.354276e+01   2.939751e+01
  -8.365928e+01  -2.846927e+01
  -1.514889e+01  -1.135488e+02
   1.372638e+02  -7.378941e+01
   2.822458e+02   4.958015e+01
   2.326538e+02   1.867691e+02
   1.966348e+01   1.649240e+02
  -1.493816e+02   2.087078e+02
  -2.819281e+02   5.732436e+01
  -9.119772e+01  -4.420084e+01
   2.145928e+01  -6.342870e+01
   1.447381e+01   7.116179e+01
  -8.288264e+01   6.026568e+01
  -1.978268e+02   1.983063e+01
  -1.225657e+02  -9.598562e+01
  -3.506534e+00  -1.619987e+02
   3.278679e+01  -1.113562e+02
   1.286119e+02  -7.185250e+00
  -3.843700e+00   5.894850e+01
  -4.876906e+01  -1.913640e+01
  -2.911434e+01  -7.768312e+01
   9.614410e+01  -1.274534e+02
   1.575018e+02  -1.514131e+01
   1.522400e+02   1.074997e+02
   2.397054e+01   1.633126e+02
  -1.375804e+02   1.222047e+02
  -1.545238e+02  -1.368758e-01
  -4.755117e+01  -6.077141e+01
   1.078014e+02  -1.276378e+02
   4.354552e+01  -4.238280e+01
   2.534648e+01   7.388840e+00
  -2.301970e+01   2.895803e+01
  -1.740073e+01  -1.710223e+00
   7.634735e+01   2.785181e+00
   1.433014e+02   8.116550e+01
   2.445019e+01   1.669156e+02
  -1.535251e+02   1.504225e+02
  -2.164473e+02   1.676016e+01
  -1.684021e+02  -1.343493e+02
  -1.713080e+01  -2.158393e+02
   7.123265e+01  -9.470825e+01
   1.022451e+02  -5.696617e+01
   5.063322e+01   5.031610e+01
   7.025000e+01   4.678640e+01
   7.634429e+01  -1.426357e+01
   1.370036e+02  -8.039426e+00
   4.627312e+01   3.636695e+01
  -5.481175e+01   1.222092e+02
  -1.272085e+02   6.472303e+01
  -1.114891e+02  -2.760489e+01
  -1.847308e+01  -1.642269e+02
   1.693064e+02  -8.687877e+01
   1.829782e+02   7.848283e+01
   1.035958e+02   2.479994e+02
  -1.197176e+02   1.582426e+02
  -1.957959e+02   9.297208e+01
  -1.821632e+02  -9.303115e+01
  -7.307623e+01  -8.543830e+01
   3.665417e+01  -1.079131e+02
   6.222262e+01  -5.420468e+01
   5.738739e+01  -4.405680e+01
   3.287832e+01  -8.841989e+01
   1.103458e+02  -9.504858e+01
   6.847867e+01   3.333987e+01
   9.403352e+01   1.804466e+02
   4.078438e+01   1.914868e+02
  -9.093581e+01   1.076658e+02
  -1.564761e+02   4.244991e+01
  -9.505627e+01  -1.210915e+02
   3.162429e+01  -1.661782e+02
   9.771541e+01  -8.795569e+01
   2.988639e+01   8.642225e+00
   1.149510e+01   1.637475e+01
  -4.871428e+01   4.025550e+01
   4.314601e+01  -1.538175e+01
   1.121288e+02   1.153636e+01
   2.668238e+01   5.246622e+00
  -8.376561e+01   2.806145e+01
  -1.834847e+02   1.119329e+01
  -1.497708e+02  -1.196566e+02
  -1.182337e+01  -1.124588e+02
   1.247085e+02  -8.543748e+01
   1.100560e+02   3.955478e+00
   5.200604e+01   1.000411e+02
  -5.866865e+01   4.781732e+01
  -6.862045e+01  -3.542869e+01
  -3.160501e+01  -6.212825e+01
   3.206569e+01  -9.567143e+01
   7.357406e+01   2.619122e+01
  -1.763521e+01   6.445347e+01
   5.273120e+01   4.834089e+01
   1.160198e+01  -3.817046e+01
   8.308845e+01   5.156800e+00
   6.278557e+01   1.844573e+01
  -1.523063e+01   1.614571e+02
  -9.150798e+01   5.157626e+01
  -1.452807e+02  -1.527670e+00
  -9.965016e+01  -1.035918e+02
   2.643329e+01  -7.598632e+01
   8.666234e+01  -4.343019e+01
   4.588112e+01   1.726215e+01
  -7.372223e+01  -5.239560e+00
  -1.396193e+02  -7.181170e+01
  -4.558058e+01  -1.019238e+02
   7.735350e+01  -1.214248e+02
   1.494241e+02  -2.799761e+01
   1.132649e+02  -2.116662e+01
   6.263186e+00   5.344597e+01
  -6.358701e+01   4.257584e+01
  -3.825818e+01   6.193966e+00
   3.143270e+01  -3.408501e+01
   1.274140e+02   2.390540e+01
   5.942628e+01   6.710525e+01
  -5.670319e+01   1.376989e+02
  -1.408267e+02   4.286817e+01
  -9.707116e+01  -9.940049e+01
  -1.348951e+01  -1.266831e+02
   5.043360e+01  -1.123984e+02
   1.038299e+02  -1.122924e+01
   5.656183e+01   9.444788e+01
  -1.082954e+01   5.953180e+01
  -3.834391e+01  -1.087770e+01
  -6.552989e+01  -1.700711e+01
  -2.877144e+01   3.762267e+01
   3.266559e+00   1.722878e+01
  -1.132712e+01  -3.311703e+01
   5.025405e+00  -7.412625e+01
  -4.644000e+00  -7.937296e+01
   1.148113e+01  -4.116514e+00
   1.058493e+02   6.525534e+01
   7.060440e+01   3.818177e+01
  -1.556088e+01   1.774015e+01
  -4.847866e+01   1.131867e+01
  -7.013975e+01  -9.685452e-01
  -2.205426e+01  -2.121967e+01
   4.904191e+01  -3.681898e+01
   2.216061e+01  -1.806754e+01
  -3.197767e+01  -1.534539e+01
  -2.858754e+01  -1.477345e+01
   7.075886e+01   3.865381e+00
   8.742613e+01   3.297198e+01
   3.842919e+01   5.829366e+01
  -1.101449e+02   1.108783e+02
  -1.665377e+02   1.014209e+01
  -1.172283e+02  -5.537020e+01
  -3.593851e+01  -1.640991e+02
   4.468791e+01  -1.780086e+02
   8.854494e+01  -4.727060e+01
   6.780809e+01   6.716479e+01
   8.764525e+00   2.434392e+01
  -1.103450e+01   1.438373e+01
   7.408901e+01   4.753550e+01
   2.559821e+01   6.938516e+01
  -3.664033e+01   6.409215e+01
  -3.734666e+01   5.698971e+01
  -4.790637e+01  -4.202546e+01
  -4.839708e+01  -1.008885e+02
   7.816709e+00  -1.174317e+02
   5.906679e+01  -5.895908e+00
   1.095222e+02   1.052479e+02
   6.410787e+01   7.328629e+01
  -4.091586e+01   7.294858e+01
  -1.276027e+02  -1.612725e+01
  -2.325029e+01  -4.718587e+01
   2.797829e+01  -3.857155e+01
   1.021214e+01  -2.224703e+01
  -3.287868e+01  -2.596784e+00
  -2.173628e+01   4.506053e+00
  -4.948898e+01  -2.575180e+01
   2.930277e+01  -8.509870e+01
   1.285345e+02  -8.493615e+01
   5.797477e+01   1.477999e+01
  -2.103545e+01   7.241048e+01
  -4.994079e+01   1.041060e+02
  -5.036724e+00  -2.767961e+01
   1.904340e+00  -7.287360e+01
   3.643075e+01  -4.491049e+01
   9.401516e+00   7.044731e+01
   5.181111e+01   6.319396e+01
  -5.018059e+00   2.490350e+01
  -4.103575e+01  -5.118445e+00
  -2.667653e+01  -5.060926e+01
  -1.742769e+01  -2.946177e+01
   7.351169e+00   3.482797e+01
  -7.846506e+00   6.167850e+01
  -3.813105e+00  -2.505990e+01
   1.710788e+01  -7.102989e+01
   4.760663e+01  -4.370169e+01
   4.679510e+01   7.422704e+00
   5.142768e+01   3.303219e+01
  -4.443057e+01   3.200222e+01
  -3.726778e+01   1.948088e+00
  -4.951996e+01  -5.505587e+01
   5.878574e+01  -2.093105e+01
   7.118397e+01   4.825043e+01
   4.234775e+01   3.507602e+01
  -3.586046e+01   2.982377e+01
  -6.510822e+01   3.092213e+01
  -6.941138e-01   2.033450e+01
   1.598162e+01  -1.465004e+01
  -1.497535e+01  -4.571355e+00
  -1.271109e+01   1.641495e+01
  -7.517406e+01  -8.402597e+00
