
 $NMID
 id='ANONYMOUS ', fmtdat='(2E16.6)'
 volume=1.0
 tramp=1.0
 $END
  -3.272428e+03   1.142880e+02
  -2.351142e+03  -1.757738e+03
   6.933838e+01  -1.984172e+03
   1.539586e+03  -1.347572e+03
   1.068904e+03  -2.344834e+02
   4.910703e+01   1.786872e+02
  -4.054914e+02  -2.809216e+01
  -4.164437e+01  -4.932800e+02
   3.740314e+02  -6.263837e+02
   6.925592e+02  -1.014475e+02
   4.350862e+02   5.330117e+02
   6.207521e+00   6.464823e+02
  -2.895513e+02   1.865253e+02
  -3.223914e+02  -4.402864e+02
   1.006444e+02  -5.412042e+02
   3.450168e+02  -8.392278e+01
   2.794169e+02   4.638063e+02
  -1.405745e+02   5.972996e+02
  -4.292112e+02   2.114059e+02
  -4.040040e+02  -1.382100e+02
  -1.316971e+02  -4.095430e+02
   9.561601e+01  -2.908827e+02
   5.932241e+01  -4.161186e+00
  -1.646202e+02  -3.174595e+01
  -2.097143e+02  -2.468292e+02
   1.431251e+01  -3.261852e+02
   4.887740e+02  -1.606630e+02
   5.555658e+02   1.854029e+02
   2.676534e+02   3.551307e+02
  -2.429525e+02   2.397402e+02
  -5.810743e+02  -1.180486e+02
  -2.053352e+02  -3.398388e+02
   2.536763e+02  -3.649130e+02
   4.114423e+02  -1.480544e+02
   3.202488e+02   1.457295e+02
   9.572093e+01   3.443150e+02
  -4.337998e+01   2.115860e+02
   2.607610e+01  -9.894992e+01
   1.339758e+02  -1.430166e+02
   1.562896e+02   1.063835e+02
  -2.245664e+00   5.067155e+02
  -2.186090e+02   4.504076e+02
  -3.490208e+02  -1.236424e+01
  -1.535898e+02  -2.877153e+02
   1.996528e+02  -1.691648e+02
   1.810671e+02   2.617145e+02
  -1.146198e+02   3.559313e+02
  -4.540953e+02   6.158874e+01
  -4.875394e+02  -3.732780e+02
  -1.889256e+02  -4.910507e+02
   3.108385e+02  -2.910467e+02
   5.610389e+02   4.572113e+01
   3.304713e+02   2.509314e+02
  -6.868577e+01   2.190284e+02
  -2.769947e+02   7.444260e+01
  -1.630223e+02  -2.548124e+01
   1.077847e+01  -1.205064e+01
   8.190107e+01   3.950107e+01
  -7.692783e+01   6.065830e+01
  -1.932379e+02  -5.597768e+01
  -9.888353e+01  -1.758678e+02
   1.344468e+02  -2.090975e+02
   3.731083e+02  -9.571687e+01
   2.096218e+02   7.465664e+01
  -1.060538e+00   3.062490e+02
  -2.939919e+02   4.075548e+02
  -3.579470e+02   1.964911e+02
  -2.435781e+02  -1.834045e+02
  -2.337655e+01  -3.424078e+02
   3.390108e+01  -3.319465e+02
   4.546950e+01  -2.015281e+02
   4.178275e+01  -1.026732e+02
   8.384989e+01  -1.340117e+02
   2.469747e+02  -4.661487e+01
   2.201803e+02   8.644193e+01
   1.262337e+02   2.260510e+02
  -1.080595e+02   1.679639e+02
  -2.155778e+02  -5.791299e+00
  -1.841580e+02  -2.488508e+02
   4.465756e+01  -2.800834e+02
   2.268292e+02  -3.436253e+01
   2.722291e+02   1.623272e+02
   1.659739e+02   2.859367e+02
  -2.315123e+01   2.519750e+02
  -1.937733e+02   1.621093e+02
  -1.468478e+02   6.312035e+01
  -1.086372e+02   5.716715e+01
  -2.967616e+02   4.447012e+01
  -4.009286e+02  -1.511719e+02
  -3.111770e+02  -2.658716e+02
   3.588473e+01  -4.367891e+02
   3.592600e+02  -3.872362e+02
   4.932421e+02  -1.799259e+02
   2.924223e+02   7.606491e+01
   7.701377e+00   2.163063e+02
  -1.060428e+02   1.721310e+02
  -2.024184e+01   4.899633e+01
   1.546675e+02  -5.659836e+01
   1.636151e+02   6.345989e+00
  -1.454224e+00   1.614120e+02
  -1.468907e+02   1.146097e+02
  -1.164434e+02  -2.272563e+01
   3.357281e+01  -1.354582e+02
   1.713706e+02  -1.367977e+01
   1.991806e+02   2.045936e+02
   9.623239e+00   3.014115e+02
  -2.408021e+02   2.311681e+02
  -3.531030e+02  -5.626063e+01
  -2.811393e+02  -2.653586e+02
  -9.663560e+01  -2.543003e+02
   8.918648e+01  -1.594809e+02
   1.379909e+02  -1.446918e+01
   4.203757e+01  -7.714778e+00
  -5.289035e+01  -4.839559e+01
   1.265061e+01  -1.325092e+02
   1.169410e+02  -1.202873e+02
   1.278976e+02   3.386003e+00
   3.084627e+01   4.485241e+01
  -7.248973e+01   8.362901e+00
  -7.381909e+01  -9.841479e+01
   1.317466e+02  -4.945124e+01
   2.795596e+02  -1.346953e+01
   2.252476e+02   1.521314e+02
   6.603097e+01   2.013485e+02
  -1.770735e+02   2.631719e+02
  -3.105870e+02   1.015529e+02
  -1.555845e+02  -6.090865e+01
   1.889772e+01  -4.094971e+01
   9.127916e+01   2.200351e+01
  -4.981503e+01   9.337904e+01
  -1.798275e+02   3.792322e+00
  -1.521857e+02  -1.260893e+02
  -4.631290e+01  -1.800933e+02
   6.805998e+01  -1.392655e+02
   1.139734e+02  -1.584466e+01
   5.368318e+01   6.749012e+01
  -3.203444e+01   6.481181e+00
  -3.767060e+01  -7.621436e+01
   1.292575e+02  -1.367969e+02
   1.796740e+02  -8.955425e+00
   2.044198e+02   1.271291e+02
   5.580958e+01   2.095727e+02
  -1.266536e+02   1.199045e+02
  -1.698618e+02   2.925180e+01
  -6.499344e+01  -1.001059e+02
   4.262822e+01  -1.249996e+02
   6.963853e+01   7.820425e-01
   1.192087e-01  -5.293956e+00
  -2.880101e+01   2.417025e+01
   3.410513e+01  -1.422914e+01
   8.108776e+01   1.531759e+01
   5.889895e+01   9.574519e+01
   2.201716e+01   1.889549e+02
  -1.256424e+02   1.595887e+02
  -2.361461e+02   2.268529e+01
  -2.147903e+02  -1.453944e+02
  -4.696123e+01  -2.172633e+02
   1.114729e+02  -1.541768e+02
   8.262209e+01  -5.466499e+01
   9.866166e+01   3.875987e+01
   3.288924e+01   1.435170e+01
   5.351834e+01  -1.434695e+01
   8.584225e+01   2.752210e+01
   5.238712e+01   5.216718e+00
  -4.837867e+01   8.518952e+01
  -1.011573e+02   5.042299e+01
  -1.158080e+02   2.063995e+00
   3.403150e+00  -1.091974e+02
   1.299758e+02  -1.046551e+02
   2.140508e+02   6.525857e+01
   5.334195e+01   2.192354e+02
  -1.379549e+02   2.062030e+02
  -1.954996e+02   7.034894e+01
  -2.232575e+02  -9.255726e+01
  -1.080012e+02  -2.006642e+02
   6.025850e+01  -9.102301e+01
   9.104219e+01  -7.932140e+01
   4.634193e+01  -2.341939e+01
   4.384944e+01  -5.979029e+01
   8.491709e+01  -6.228051e+01
   1.263614e+02   3.044678e+01
   1.222875e+02   1.049952e+02
   1.789775e+01   2.354354e+02
  -1.233296e+02   1.773806e+02
  -1.534615e+02   1.872824e+01
  -9.072944e+01  -1.312726e+02
   6.856553e+00  -1.606911e+02
   1.076069e+02  -8.660462e+01
   7.155202e+01   3.545861e+01
  -1.880357e+01   4.851478e+01
  -6.573872e+01   5.459742e+01
   4.275345e+01   1.027600e+01
   9.023713e+01   2.209042e+01
   9.900314e+01   5.283084e+01
  -9.508281e+01   3.736563e+01
  -1.346272e+02   1.644046e+00
  -1.296182e+02  -5.357073e+01
  -4.746546e+01  -1.066065e+02
   1.728110e+02  -8.185316e+01
   1.184193e+02   2.213256e+00
   4.131716e+01   4.572134e+01
  -6.219202e+01   4.489901e+01
  -6.674142e+01  -2.087140e+00
  -1.305251e+01  -6.553344e+01
   7.118184e+01  -3.685950e+01
   7.343150e+01  -1.922949e+01
   4.921759e+01   2.832330e+01
   2.966503e+01   6.888531e+01
   5.415613e+01   1.986944e+01
   1.085079e+02   2.493516e+01
   5.285096e+01   9.326566e+01
  -1.130289e+01   1.552864e+02
  -1.240417e+02   1.582518e+02
  -1.724671e+02  -1.829144e+00
  -1.517596e+02  -1.405918e+02
   8.359161e+00  -1.424190e+02
   9.103275e+01  -1.170249e+02
   8.178399e+01   3.555380e+01
  -1.886493e+01   4.121182e+01
  -1.097036e+02  -6.879033e+01
  -4.002971e+01  -1.160478e+02
   9.170132e+01  -1.502698e+02
   1.773817e+02  -7.705795e+01
   1.503612e+02   1.508250e+01
   5.089528e+01   1.239840e+02
  -7.762867e+01   5.016636e+01
  -8.714362e+01  -1.942330e+00
   3.167588e+01  -2.621440e+01
   8.492579e+01  -9.231513e+00
   4.795027e+01   1.084734e+02
  -6.004918e+01   1.851720e+02
  -1.759443e+02   3.884772e+01
  -1.310991e+02  -1.173749e+02
   5.658003e+01  -1.594448e+02
   4.662274e+01  -1.524514e+02
   9.091919e+01   1.846027e+01
   3.564206e+01   1.653581e+02
  -2.607590e+01   1.031706e+02
  -8.927966e+01  -1.515096e+01
  -2.664115e+01  -3.292511e+01
  -4.250104e+01   4.021521e+01
  -1.924711e+01  -2.593564e+01
  -2.795199e+01  -1.142700e+01
  -7.145435e+01  -9.221205e+01
  -2.232760e+01  -8.731476e+01
   3.579298e+01  -6.265216e+01
   1.396248e+02   2.067680e+01
   9.457356e+01   5.833408e+01
   2.412575e+00   3.914620e+01
  -6.588262e+01   4.419781e+01
  -1.252997e+02   1.430220e+01
   8.663363e+00  -4.293476e+01
   1.897444e+01  -2.779142e+01
   4.951340e+01  -3.180322e+01
   6.242260e+00   7.762638e+00
  -1.695869e+00  -7.275780e+00
   6.533257e+01   9.458998e+00
   1.209556e+02   1.468431e+01
  -1.224489e+01   6.984238e+01
  -1.405865e+02   9.844733e+01
  -1.874652e+02   2.944141e+01
  -1.695490e+02  -1.133093e+02
  -1.721928e+01  -1.192218e+02
   9.779165e+01  -1.676335e+02
   1.305691e+02  -7.720408e+01
   3.705888e+01  -5.440843e-01
   1.045584e+01   8.349221e+01
  -1.323056e+01   3.568019e+01
   4.043849e+01   1.649734e+01
   1.136253e+01   5.138961e+01
   4.271904e+01   1.022978e+02
  -2.234908e+01   5.494195e+01
  -4.863915e+01   2.938458e+00
  -7.132096e+01  -9.563934e+01
  -1.213699e+01  -9.646964e+01
   8.187697e+01  -2.019668e+01
   1.028135e+02   3.501719e+01
   2.922388e+01   8.793724e+01
  -3.493921e+01   1.548590e+01
  -7.102837e+01   2.756819e+01
  -4.618185e+01  -3.883664e+01
   2.587084e+01  -5.223615e+01
   3.788864e+01  -2.535705e+01
   1.486849e+01  -1.260468e+00
  -8.850639e+01  -2.573550e+01
  -4.173291e+00   3.524495e+01
   7.509715e+01  -1.223247e+02
   1.499717e+02  -7.923515e+01
   6.684429e+01   1.223434e+01
  -2.340808e+01   8.736496e+01
  -7.329718e+01   8.914450e+01
  -4.112910e+01  -7.376557e+00
   2.562830e+01  -3.545206e+01
  -3.141475e+00  -3.499641e+01
   5.924167e+01   4.120507e+01
   1.555385e+01   5.127466e+01
  -3.404461e+01   6.400416e+01
  -1.380395e+01   9.562912e+00
  -1.916590e+01  -8.422038e+01
  -3.197290e+01   6.944015e+00
  -2.385666e+01  -1.640199e+01
   2.881116e+01  -1.462938e+01
   3.513370e-01  -3.434209e+01
  -1.050369e+01  -6.915861e+01
   6.880859e+01   1.015553e+01
   6.711767e+01   5.474266e+01
  -1.028420e+01   4.827891e+01
  -5.841453e+01   4.191555e+01
  -5.508864e+01  -1.755044e+01
  -3.775041e+01  -4.485377e+01
   6.506015e+01  -5.232702e+01
   9.744717e+01   7.658188e+01
   6.394582e+01   3.211387e+01
  -4.765374e+01   6.531849e+01
  -3.483924e+01  -7.805807e+00
  -1.578548e+01   2.171497e+01
   5.753230e+01   7.497628e+00
   3.235661e+01   4.415303e+00
  -6.706877e-01   2.261575e+01
  -1.008291e+02   3.328876e+01
