
 $NMID
 id='ANONYMOUS ', fmtdat='(2E16.6)'
 volume=1.0
 tramp=1.0
 $END
  -3.511408e+03  -5.791679e+01
  -2.325102e+03  -1.749455e+03
   2.709544e+02  -2.257686e+03
   1.548834e+03  -9.617590e+02
   9.603584e+02  -2.788664e+01
  -1.821989e+02   1.887748e+02
  -4.888022e+02  -3.331361e+02
  -7.508436e+01  -7.513897e+02
   6.479813e+02  -5.671249e+02
   7.149636e+02   2.879202e+01
   3.658803e+02   6.244623e+02
  -8.690241e+01   6.730637e+02
  -4.672467e+02   1.084930e+02
  -2.747153e+02  -6.138825e+02
   1.209090e+02  -5.527406e+02
   4.569888e+02   7.401174e+00
   2.079939e+02   5.636716e+02
  -2.616733e+02   5.889604e+02
  -4.587578e+02   1.738164e+02
  -3.460265e+02  -2.609425e+02
  -4.786973e+01  -4.002360e+02
   1.854823e+02  -2.121985e+02
   1.615447e+02  -7.184546e+00
  -1.928599e+02  -1.375356e+01
  -3.444524e+02  -2.545688e+02
  -3.489866e+01  -3.936956e+02
   4.699336e+02  -2.263722e+02
   6.356629e+02   1.531202e+02
   2.880378e+02   4.158920e+02
  -3.685282e+02   2.379616e+02
  -5.870831e+02  -6.082433e+01
  -1.807408e+02  -4.078310e+02
   3.055298e+02  -3.955948e+02
   4.572957e+02  -1.170795e+02
   3.313138e+02   1.604258e+02
   4.256138e+01   3.663181e+02
  -1.291926e+02   1.959915e+02
  -1.833309e+01  -1.752803e+02
   2.076213e+02  -2.622748e+02
   2.160326e+02   1.263701e+02
   7.131579e+01   5.423486e+02
  -3.262930e+02   5.148578e+02
  -3.863095e+02  -4.208146e+01
  -1.063923e+02  -3.944983e+02
   2.046215e+02  -1.957395e+02
   2.506223e+02   2.706139e+02
  -1.511551e+02   4.078196e+02
  -5.055209e+02   6.687668e+01
  -5.383879e+02  -4.049061e+02
  -1.897670e+02  -5.111104e+02
   3.218892e+02  -2.906691e+02
   4.891144e+02   1.055828e+02
   3.250257e+02   2.894114e+02
  -6.551442e+01   2.514343e+02
  -3.277271e+02   3.856001e+01
  -2.153372e+02  -1.102309e+02
   2.638765e+01  -8.778971e+01
   1.214814e+02   6.585252e+01
  -9.241755e+01   1.082164e+02
  -2.278059e+02  -9.301202e+01
  -8.265446e+01  -2.209354e+02
   1.586730e+02  -2.544933e+02
   3.184257e+02  -6.623918e+01
   1.986345e+02   1.465340e+02
  -1.722408e+01   2.542504e+02
  -2.518956e+02   3.147035e+02
  -3.016184e+02   1.786617e+02
  -2.171356e+02  -1.649937e+02
  -1.847149e+01  -3.861308e+02
   5.512415e+01  -2.994044e+02
   5.271470e+01  -1.484302e+02
   4.339368e+01  -7.145397e+01
   1.076825e+02  -1.220699e+02
   2.450840e+02  -1.379157e+02
   2.475525e+02   8.177585e+01
   1.122441e+02   2.492303e+02
  -1.400622e+02   2.218177e+02
  -2.234239e+02  -7.477148e+01
  -1.910850e+02  -2.205320e+02
   4.865468e+01  -3.064140e+02
   2.158496e+02  -8.787900e+01
   3.076963e+02   1.451389e+02
   1.400307e+02   2.998153e+02
  -7.334292e+01   2.337380e+02
  -2.053264e+02   1.484199e+02
  -1.385872e+02   5.774623e+01
  -1.263786e+02   5.432956e+01
  -2.272749e+02   5.914833e+01
  -3.529658e+02  -6.705022e+01
  -3.053401e+02  -3.027313e+02
   1.155855e+01  -4.448278e+02
   3.583696e+02  -4.070385e+02
   5.133725e+02  -1.844764e+02
   2.767048e+02   1.483644e+02
   1.533560e+00   2.679481e+02
  -1.264874e+02   1.753000e+02
  -3.780005e+01   5.439169e+01
   1.014288e+02  -3.903480e+01
   1.636572e+02   6.724864e+01
   8.142003e+00   1.782246e+02
  -1.701298e+02   1.056125e+02
  -1.340178e+02  -6.657174e+01
   2.392480e+01  -1.606066e+02
   1.853104e+02  -5.392204e+01
   1.798611e+02   2.049333e+02
  -3.317875e+01   3.105928e+02
  -2.293555e+02   1.982281e+02
  -3.085844e+02  -5.947417e+01
  -2.585131e+02  -2.434827e+02
  -8.490541e+01  -2.833514e+02
   9.072609e+01  -9.596754e+01
   1.162531e+02  -1.940525e+00
   5.345187e+01   1.831561e+01
  -3.276412e+01  -5.740212e+01
   5.013928e+01  -9.823717e+01
   1.326818e+02  -7.011319e+01
   1.252470e+02   1.493011e+01
   5.969572e+01   4.660994e+01
  -5.818729e+01  -3.659809e+01
  -4.924974e+01  -1.083220e+02
   1.618574e+02  -5.044975e+01
   3.170885e+02  -1.067675e+01
   2.509535e+02   1.502774e+02
  -1.748161e+01   2.191459e+02
  -2.671102e+02   1.964451e+02
  -2.453508e+02   9.070779e+01
  -1.448911e+02  -1.410281e+01
   2.613387e+01  -1.271672e+02
   7.057847e+01  -1.800581e+00
  -6.826152e+01   1.109629e+02
  -2.017700e+02   5.339464e+01
  -1.688281e+02  -1.103024e+02
  -5.379108e+01  -1.874658e+02
   6.194142e+01  -1.163525e+02
   1.063916e+02   3.933157e+01
   4.425887e+01   4.863988e+01
  -1.308729e+01  -4.519830e+01
  -3.002173e+01  -1.124305e+02
   1.273126e+02  -1.047043e+02
   2.154319e+02   1.462128e+01
   1.732056e+02   1.510913e+02
  -3.981289e+00   2.047896e+02
  -1.730166e+02   1.434526e+02
  -1.772227e+02  -3.602494e+01
  -1.938877e+01  -1.082109e+02
   6.619801e+01  -1.028393e+02
   6.905699e+01  -4.373997e+01
   6.753412e+00  -4.819472e+00
  -8.349663e+00  -1.481059e+01
   1.398315e+01  -4.207447e+00
   7.663514e+01   1.221254e+01
   1.131527e+02   5.449134e+01
   1.530789e+01   1.599504e+02
  -1.228230e+02   1.419244e+02
  -2.091642e+02   8.791092e+00
  -1.781877e+02  -1.591341e+02
  -3.026254e+01  -2.192061e+02
   1.204922e+02  -1.391498e+02
   8.212482e+01  -1.847515e+01
   1.873578e+01   8.533756e+01
   3.255096e+01   5.167513e+01
   2.204689e+01  -4.000646e+01
   8.475124e+01  -4.063369e+01
   9.153300e+01   8.569825e+01
  -2.134920e+01   1.078041e+02
  -9.662676e+01   2.801063e+01
  -1.153133e+02  -4.048013e+01
  -3.978812e-01  -1.221585e+02
   1.678487e+02  -5.563883e+01
   1.706976e+02   4.165265e+01
   1.163743e+02   1.940405e+02
  -1.215979e+02   1.863495e+02
  -2.656745e+02   2.117790e+01
  -2.310362e+02  -9.664965e+01
  -7.412328e+01  -1.622978e+02
   5.914330e+01  -8.196845e+01
   1.005327e+02  -1.195243e+02
   6.153711e+01  -5.789987e+01
   7.341449e+01  -5.617581e+01
   8.090435e+01  -2.372823e+01
   1.233704e+02  -1.449605e+01
   1.147527e+02   1.527302e+02
   1.294729e+01   1.877025e+02
  -1.197685e+02   1.647234e+02
  -1.793609e+02   1.502887e+00
  -1.326776e+02  -1.299246e+02
   9.941800e+00  -1.166443e+02
   5.467919e+01  -9.939018e+01
   2.137540e+01   1.378801e+01
   1.094412e+01   4.071684e+01
  -3.770332e+01   2.723612e+01
   5.913138e+01  -2.998773e+00
   7.611785e+01   1.470775e+01
   3.871677e+01  -1.082438e+01
  -9.133053e+01   3.491232e+01
  -1.966220e+02  -4.240676e+00
  -1.263791e+02  -7.964601e+01
  -3.930628e+00  -1.069311e+02
   1.548457e+02  -2.440257e+01
   1.713534e+02   2.153553e+00
   5.787601e+01   7.944892e+01
  -2.666429e+01   4.390827e+01
  -8.563730e+01  -7.759137e+01
   2.180104e+01  -7.406492e+01
   3.265681e+01  -4.411730e+01
   1.049437e+02  -6.532917e+00
   3.517392e+01   5.156645e+01
   5.747121e+01   5.040908e+01
   9.867590e+01   7.518720e+01
   4.614485e+01  -1.555878e+00
   3.528910e+01   8.066052e+01
  -1.390190e+01   1.279817e+02
  -1.088252e+02   1.167610e+02
  -1.553356e+02   3.219040e+01
  -1.069597e+02  -1.215697e+02
  -2.360786e+01  -1.444395e+02
   7.028719e+01  -1.162228e+02
   6.666700e+01   1.031144e+01
  -3.941687e+01   2.438596e+01
  -1.264911e+02  -1.607051e+01
  -8.661149e+01  -9.831693e+01
   9.872133e+01  -1.222359e+02
   1.665789e+02  -2.646250e+01
   1.098476e+02   4.523826e+01
   3.325026e+01   4.972388e+01
  -8.492053e+01   3.478714e+01
  -5.044374e+01   2.267928e+01
   3.044504e+01  -1.388785e+01
   8.953884e+01   3.710054e+01
   7.377598e+01   8.447217e+01
  -5.242662e+01   1.426839e+02
  -1.668515e+02   8.272244e+01
  -1.457917e+02  -9.469315e+01
  -2.942325e+01  -1.867852e+02
   8.001696e+01  -1.178707e+02
   6.931645e+01   2.700432e+00
   9.472577e+01   1.545409e+02
  -1.360944e+00   1.035769e+02
  -7.577209e+01   2.102398e+01
  -5.442680e+01  -7.305946e+00
  -2.398393e+01   8.276735e+00
  -4.882283e+00   4.007050e+01
  -3.245534e+01  -1.305492e+01
  -2.138845e+01  -1.089121e+02
  -1.286755e+01  -1.093052e+02
   4.116893e+01  -2.950842e+01
   1.159630e+02   6.371065e+01
   1.047490e+02   1.032036e+02
  -1.527905e+01   2.621793e+01
  -6.795168e+01   4.022334e+01
  -6.981665e+01  -4.691678e+00
  -4.952519e+01   7.475854e+00
   5.184286e+01  -2.047212e+01
   3.925928e+01   1.225875e+00
  -4.623080e+00   3.877344e+01
   1.782649e+01   4.448567e+01
   9.552692e+01  -3.791725e+01
   1.041692e+02   2.264303e+01
   2.612636e+01   9.461716e+01
  -1.289841e+02   1.418925e+02
  -1.796841e+02   7.691972e+01
  -1.610389e+02  -4.072602e+01
   9.307343e+00  -1.415057e+02
   7.502001e+01  -1.380439e+02
   9.200211e+01  -1.841936e+01
   6.076516e+01   4.367137e+01
   2.367714e+01   4.961063e+01
  -8.306382e+00   2.536854e+01
   4.332034e+01  -1.218298e+01
  -5.892865e-01   2.278314e+01
  -2.841246e+01   1.059917e+02
  -6.779646e+01   7.104576e+01
  -9.940299e+01  -4.870787e+00
  -8.920254e+01  -8.393479e+01
   4.631688e+00  -8.116252e+01
   5.344859e+01  -1.943594e+01
   4.661143e+01   3.727674e+01
  -1.584941e+01   1.118148e+02
  -3.523892e+01   1.100626e+01
  -1.113205e+02  -3.540451e+01
  -1.808574e+01  -8.089787e+01
  -4.067230e+00  -4.405847e+01
   2.822692e+01  -4.204563e+01
  -5.287398e+01  -1.711350e+01
  -7.068763e+01   2.194741e+01
   1.573702e+01  -1.062904e+01
   5.077736e+01  -6.478065e+01
   1.183548e+02  -1.514259e+01
   7.393396e+01   2.552623e+01
   2.892486e+01   7.494893e+01
  -4.420159e+01   7.965082e+01
  -2.475823e+01   3.223230e+00
   1.586809e+01  -5.648801e+01
  -1.654315e+01  -1.975660e+01
   5.747195e+01   2.001613e+01
  -1.081807e+01  -4.034645e-02
  -5.456495e+01   5.075185e+01
  -1.184279e+01   1.024098e+01
  -7.098367e+01  -3.119435e+01
  -2.521319e+01   1.436592e+01
  -1.140113e+01   1.237381e+01
   3.223593e+01   4.375101e+00
  -1.907765e+01  -1.913735e+01
   1.483917e+01  -5.346919e+01
   3.091528e+01  -6.276943e+00
   1.427162e+01   4.667202e+01
   1.069794e+01   4.876733e+01
  -8.709507e+01   1.437394e+01
  -5.893511e+01  -4.767543e+01
  -2.098752e+01  -6.679484e+01
   5.295455e+01  -3.083392e+01
   8.325037e+01  -1.851197e+01
   6.274161e+01   4.171781e+01
  -1.808203e+01   1.693345e+01
  -6.850618e+01   4.672395e+01
  -1.429501e+01   3.901087e+01
   2.099848e+01  -9.157706e+00
   1.730792e+01   5.218603e+01
  -2.920443e+01   6.929235e+01
  -6.267276e+01  -1.849702e+01
