
 $NMID
 id='ANONYMOUS ', fmtdat='(2E16.6)'
 volume=1.0
 tramp=1.0
 $END
  -1.212908e+03  -2.318652e+02
  -7.959370e+02  -9.579299e+02
  -4.242712e+01  -8.611777e+02
   5.006904e+02  -2.866790e+02
   3.195462e+02   2.891026e+01
  -9.405146e+01   2.624041e+01
  -7.351280e+01  -1.364590e+02
   1.125609e+02  -1.978491e+02
   1.167587e+02  -8.527825e+01
   1.464535e+02   8.770181e+01
   2.669810e+01   1.445879e+02
  -4.015736e+01   2.299468e+02
  -8.883459e+01   2.232729e+01
  -1.972759e+01  -1.470148e+02
   7.689305e+01  -1.762184e+02
   8.664470e+01   3.710701e+00
  -4.610997e+01   9.491467e+01
  -6.276363e+01   1.125996e+02
  -1.092566e+02  -6.473698e+01
   6.964138e-01  -4.903925e+01
   7.682111e+01  -6.341138e+01
   5.723478e+01  -6.753075e+01
   7.388773e+00  -8.646988e+01
  -1.987482e+01  -8.598141e+01
  -1.819936e+01  -9.713892e+01
   6.817692e+01  -3.295293e+01
   1.531589e+02  -2.819540e+00
   1.801155e+02   1.239060e+02
  -1.638332e+01   1.208606e+02
  -1.094488e+02  -1.892675e+01
  -1.678015e+02  -9.747180e+01
   1.181473e+01  -8.373642e+01
   9.346989e+01  -7.798673e+01
   6.050819e+01  -1.445738e+01
   6.259109e+01   5.819909e+01
   4.354621e+01   3.671088e+01
   1.916243e+01   6.187466e+01
   2.649677e+01   3.682169e+01
   2.289696e+01  -2.328460e+01
   8.497752e+01   3.764706e+00
   2.948326e+01   1.180973e+02
  -5.930106e+01   1.557705e+02
  -1.829537e+02  -2.260492e+01
  -4.233930e+01  -9.277534e+01
   4.617113e+01   4.937945e+01
  -2.191937e+01   8.851894e+01
  -1.000931e+02   7.952980e+01
  -8.529532e+01  -6.421892e+01
  -1.004027e+02  -2.043475e+02
   6.642944e+00  -1.185756e+02
   1.280911e+02  -7.183472e+01
   8.453680e+01   5.138684e+01
   8.602709e+01   9.094956e+01
  -9.104862e+00   1.060987e+02
  -7.570980e+01  -3.054545e+01
  -8.195950e+01  -6.013539e+01
  -1.187798e+01   7.593999e+00
  -7.539019e+00   2.157185e+01
  -3.654764e+01  -9.231726e+00
  -5.710653e+01  -5.802620e+01
   4.771953e+00  -1.068628e+02
   1.376803e+02  -2.087688e+01
   4.171711e+01   2.880235e+01
  -3.490736e+00   8.519563e+01
  -3.100306e+01   3.910617e+01
  -5.460295e+01   5.405957e+01
  -3.528303e+01   6.971642e+01
   1.819172e+00  -1.982983e+01
   2.374888e+01  -4.918329e+01
   3.366612e+01  -9.866587e+01
   3.441960e+01  -1.425381e+02
   3.293838e+01  -3.500185e+01
   3.879739e+01  -3.468283e+01
   2.525655e+01  -1.831734e+01
   2.583518e+01   4.865801e+01
   3.770902e+01   5.845238e+01
  -4.031515e+01   4.492251e+01
  -6.721265e+01  -6.144025e+01
  -3.061082e+01  -9.039892e+01
   2.188665e+01  -1.038180e+02
   1.005659e+02   3.713484e+01
   3.644685e+01   8.338887e+01
   3.843549e+01   1.178775e+02
  -2.080828e+01   7.429207e+01
  -5.610271e+01   9.603068e+00
  -2.238252e+01  -1.757888e+01
  -7.248798e+01  -1.826868e+01
  -1.182841e+02   1.536523e+01
  -8.234071e+01  -2.948095e+01
  -2.177293e+01  -1.161875e+02
   2.766640e+01  -8.653183e+01
   1.644121e+02  -9.109612e+01
   1.471283e+02  -3.659399e+01
   1.932410e+01   7.677773e+01
  -5.753264e+00   2.709986e+01
  -3.741525e+01   1.036410e+02
   2.970381e+01   2.564434e+01
   5.664591e+01  -2.815239e+01
   6.118942e+01   2.357632e+01
  -2.285419e+00   2.097099e+01
  -4.662945e+01   3.878491e+01
  -5.122048e+01  -1.093607e+01
   2.957243e+01  -4.877586e+01
   6.079947e+01   4.372566e+00
   4.263795e+01   1.266134e+02
  -2.558223e+01   1.053929e+02
  -7.785316e+01   6.641108e+01
  -6.111824e+01  -6.570343e+01
   1.264083e+01  -6.863884e+01
   2.032516e+01  -3.143714e+01
   1.425468e+00  -2.827539e+00
   4.488163e+00  -2.396391e+01
   1.037556e+01   1.916128e+01
   1.653360e+01  -3.856819e+00
   7.143881e+00  -8.606214e+00
   2.046687e-01   1.298794e+01
   2.564435e+00   2.484522e+01
   6.573503e+00   1.356175e+00
  -2.584763e+01   1.455380e+00
   1.093496e+01  -5.087881e+01
   4.817531e+01   4.716959e+01
   6.067575e+01   5.738543e+01
   5.709159e+01   5.895553e+01
  -8.008980e+00   2.744017e+01
  -4.889851e+01   4.872665e+01
  -5.069158e+01   1.433611e+01
  -4.479566e+00   2.505506e+00
   9.835154e+00   3.523334e+00
  -1.623914e+01   2.014261e+00
  -7.543290e+00   3.698785e+01
  -4.136270e+01   3.991537e+01
  -9.315322e+01  -6.762057e+01
  -7.857858e+00  -3.624687e+01
   3.198257e+01  -2.738631e+01
   9.022868e-01   1.507720e+01
  -3.466957e+00   9.428884e+00
   3.795296e-01   6.580248e+00
   7.980275e+00  -2.700409e+01
   2.176370e+01   5.733099e+00
   7.632228e+01   5.239837e+01
   1.122404e+01   6.497653e+00
  -8.272374e+00   5.447836e+01
  -4.160684e+01   2.005743e+01
  -5.913818e+01   2.932661e+01
   4.193822e+01   1.072607e+01
  -3.428869e+00  -8.258189e-01
   7.645211e+00  -3.646273e+01
  -2.270481e+01   2.155521e+01
  -3.399338e+01   4.828330e+01
  -1.025657e+01  -3.538263e+01
   5.339527e+01  -7.150715e+00
   1.279443e+01  -1.557971e+00
  -1.555857e+01   2.163849e+01
  -6.313922e+01  -6.504834e+00
  -4.322656e+01  -4.800412e+01
  -1.055596e+01  -7.771246e+01
  -6.736831e-01  -7.548535e+01
   2.568708e+01  -8.676493e+00
   6.072975e+01   7.617215e+00
   1.264618e+01   5.764072e+01
   8.585532e+00  -3.025672e+01
   5.307207e-01  -1.222438e+01
   3.496654e+01   2.203652e+01
  -2.297883e+01   6.678626e+00
  -2.288746e+01   1.624331e+01
  -4.682771e+01   2.820173e+01
  -3.153838e+01   1.658701e+01
   4.343913e+01  -4.851044e+01
   4.238184e+01   5.438192e+00
   1.662144e+01   2.247036e+01
  -2.041907e+01   1.025937e+02
  -3.956450e+01   4.142697e+00
  -6.353314e+01   7.760718e+00
  -5.432136e+01  -5.672297e+01
  -6.864363e+00  -3.297277e+01
   2.574034e+01  -6.067697e+01
   5.730041e+01  -3.878210e+01
   7.463695e+01  -2.354980e+01
  -6.826007e+00  -5.810458e+00
   3.368294e+01  -3.242386e+00
   4.197231e+01  -6.182137e+00
  -7.809216e+00   3.283639e+01
   2.507334e+01   3.785990e+01
  -2.056462e+00   5.540295e+01
  -4.101935e+01  -3.502505e+01
  -3.171412e+01  -1.343349e+01
  -5.804129e+00  -5.049157e+01
   1.612167e+01  -3.314169e+01
  -7.004869e+00   7.416407e+01
  -1.855255e+01   5.556522e+00
   2.370845e+01  -1.642953e+00
   6.183433e+01  -2.315137e+01
   2.997317e+01  -1.683593e+01
  -1.044043e+01  -2.446058e+01
  -2.761087e+01   4.555077e+00
  -1.731132e+01  -1.975609e+01
  -2.141612e+01   1.936137e+01
   3.315634e+01  -2.723891e+01
   2.136462e+01   2.209040e+01
   6.034553e+01   2.875557e+00
  -6.884920e+00  -3.329418e+00
   9.426888e+00  -9.945098e+00
  -2.660588e+01  -1.510391e+01
   8.698613e+00  -1.096545e+00
   1.757110e+01   1.743959e+01
   4.145187e+00   1.053192e+01
  -2.469198e+01   1.592274e+01
   1.883498e+01   2.488996e-02
   4.517026e+00  -1.506276e+01
   4.228965e+01   5.111651e-01
   9.463159e+00   7.730138e+00
  -3.234100e+01   7.425276e+01
  -6.235375e+01   5.121730e+01
  -4.215761e+01  -8.831594e+00
  -1.711941e+01  -7.197223e+00
   2.490627e+00  -5.199640e+01
   1.925062e+01  -2.043064e+01
   3.505900e+00   7.190932e+00
  -6.196495e+01   1.093464e+01
  -5.241725e+01  -2.967732e+00
  -2.436286e+01  -8.080452e+01
   1.369102e+01  -8.211902e+00
   4.262451e+01  -3.199476e+00
   9.363751e+00   7.405388e+01
   3.095828e+01  -7.101749e+00
  -3.624911e+00   4.262091e+01
  -4.459386e+01  -3.196590e+01
   4.314886e+01  -5.089835e-01
   8.156809e+00   3.070249e+01
   2.992898e+00   1.331182e+01
  -4.861999e+01   2.024533e+01
  -6.558026e+01   2.139694e+01
  -5.920821e+00  -3.837800e+01
   3.169919e+00  -5.905042e+01
   2.264406e+01  -3.074567e+01
   1.520556e+01   1.266434e+01
  -3.597428e+01   6.066038e+01
   2.512050e+00   1.492594e+01
  -4.749581e+01  -3.558402e+01
  -1.935720e+01  -2.289415e+00
   2.439158e+01  -2.398497e+01
   2.556225e+00  -1.759440e+01
  -2.133742e+01  -5.436739e+01
  -2.723619e+01  -5.002436e+01
   6.442186e+00  -2.879663e+01
   4.092827e+01   1.867903e+01
   5.488390e+01   1.864218e+01
   1.135616e+01   4.772326e+00
  -5.675483e+00   1.052680e+00
  -6.397201e+01  -5.129461e+00
  -1.484633e+01  -1.642759e+01
  -2.062556e+01   9.466236e+00
   2.186281e+01  -8.888815e+00
   2.716518e+01   2.139395e+00
  -7.094620e+00  -1.946965e+01
  -7.801959e+00   1.194515e+01
   1.739425e+01   1.944663e+01
   1.236499e+01   6.155133e+00
  -2.341000e+01   3.149022e+01
   4.196078e+00   2.903042e+01
  -7.989097e+01   3.625284e+01
  -5.497570e+01  -2.468914e+01
   6.643982e+00  -3.298552e+01
   1.016216e+01  -1.966251e+01
   7.887424e+00  -6.255422e+01
   3.161699e+01  -8.374904e+00
  -6.316321e+00   9.763946e+00
  -2.749695e+00   4.700562e+01
   2.323909e+00  -2.650959e+01
  -3.317210e+01   1.304689e+01
  -1.750083e+01   5.160411e+00
   8.087562e+00   1.348337e+01
   1.464004e+00  -5.530614e+00
  -1.199981e+00  -3.625905e+01
  -4.351525e+01   4.953397e+00
   4.589310e+00   3.729642e+01
   3.399016e+01   5.403868e+01
  -2.417295e+01   1.770166e+01
  -1.727268e+01  -2.297415e+01
  -1.615408e-01  -6.230885e+00
  -4.978546e+00  -1.701285e+01
   3.625866e+01   8.573992e+00
  -1.205927e+01   1.123546e+01
   1.535602e+01   3.334747e+01
   1.644274e+01   1.669872e+01
  -3.965571e+01   6.529186e+00
  -2.396263e+01  -4.287727e+00
   9.683219e+00  -1.413790e+01
   4.651512e+01   2.507897e+01
  -2.679921e+01   3.904015e+01
  -3.099708e+01   1.220685e+01
   4.141146e+00   1.268589e+01
  -1.407590e+01  -3.012787e+01
  -1.234983e+01   8.114223e+00
   6.073612e+00   1.131196e+01
   1.985430e+01   1.956602e+01
   2.843743e+01   5.528900e+00
  -3.541135e+01   3.223586e+01
  -4.097003e+01   4.439204e+01
  -3.251701e+01  -1.505623e+01
   2.958817e+01  -2.871832e+01
   2.101801e+01  -1.968937e+01
   4.383520e+01  -2.336127e+01
   9.448825e+00  -4.877547e+00
  -7.182139e+00   2.725097e+01
  -3.692180e+00   1.975746e+01
   2.756848e+01  -5.606462e+01
   1.585136e+01  -2.564784e+01
   2.146346e+01  -7.431254e+01
  -6.652795e+00  -3.875347e+01
   3.073783e+01  -1.605706e+01
   4.728727e+01  -2.101630e+01
  -9.665592e+00  -1.540961e+01
  -7.935714e+00   1.626525e+01
  -2.633412e+01   1.216574e+01
   1.651156e+01  -1.233593e+01
  -2.268936e+01  -1.094922e+01
  -3.564195e+01   5.608642e+00
  -3.953043e+01  -3.803934e+00
  -3.442333e+00   2.130387e+01
