
 $NMID
 id='ANONYMOUS ', fmtdat='(2E16.6)'
 volume=1.0
 tramp=1.0
 $END
  -5.190111e+03   5.789333e+02
  -2.965382e+03  -2.938833e+03
   7.739511e+02  -3.198466e+03
   2.710242e+03  -1.051308e+03
   1.041450e+03   9.679516e+02
  -7.959054e+02   7.436436e+02
  -1.036460e+03  -4.374480e+02
  -6.187640e+01  -1.234485e+03
   9.899665e+02  -9.571928e+02
   1.121402e+03   8.362216e+01
   5.516032e+02   1.073337e+03
  -2.484532e+02   1.046844e+03
  -7.459845e+02   1.510938e+02
  -5.165594e+02  -8.579822e+02
   3.202597e+02  -9.053095e+02
   7.280541e+02   7.682163e+00
   2.910460e+02   7.759738e+02
  -3.400138e+02   7.415407e+02
  -7.184633e+02   6.568604e+01
  -3.861100e+02  -4.234785e+02
  -1.450728e+01  -5.253914e+02
   3.252603e+02  -3.048891e+02
   2.801556e+02  -4.807652e+01
  -1.404856e+02   1.570554e+02
  -4.686791e+02  -6.322530e+01
  -2.730421e+02  -4.730556e+02
   4.771425e+02  -4.790594e+02
   9.328838e+02   6.855590e+01
   4.840023e+02   5.796172e+02
  -4.570186e+02   5.649312e+02
  -8.793463e+02  -4.440514e+00
  -4.653647e+02  -5.317821e+02
   2.866898e+02  -6.094899e+02
   6.942529e+02  -2.880212e+02
   5.348590e+02   2.697575e+02
   8.740227e+01   6.004954e+02
  -2.361067e+02   3.822982e+02
  -2.482377e+02  -2.559555e+02
   1.781933e+02  -5.118528e+02
   4.871335e+02  -7.358662e+01
   3.337152e+02   6.777320e+02
  -3.055397e+02   7.823911e+02
  -7.261696e+02   3.040237e+01
  -3.202990e+02  -6.248979e+02
   3.347834e+02  -4.343350e+02
   4.706937e+02   3.528111e+02
  -2.520547e+01   6.192514e+02
  -6.520676e+02   1.335910e+02
  -6.950901e+02  -4.909334e+02
  -1.829598e+02  -6.473058e+02
   4.516229e+02  -3.847836e+02
   7.614999e+02   5.907250e+01
   3.856671e+02   4.584650e+02
  -1.948744e+02   4.603245e+02
  -5.567408e+02   1.124125e+02
  -3.139150e+02  -2.351494e+02
   1.029038e+02  -1.427833e+02
   1.885549e+02   2.020851e+02
  -1.674956e+02   2.020991e+02
  -4.300571e+02  -8.123183e+01
  -2.142106e+02  -3.423765e+02
   2.381484e+02  -3.073053e+02
   4.123195e+02  -6.707744e+01
   2.131013e+02   1.058367e+02
  -2.562275e+01   2.630208e+02
  -2.264604e+02   3.425596e+02
  -3.519623e+02   2.436475e+02
  -3.226947e+02  -1.766121e+02
  -4.335440e+01  -5.485175e+02
   1.212789e+02  -4.183462e+02
   1.232069e+02  -7.166826e+01
   1.136649e+02   6.230556e+01
   2.213990e+01  -7.649517e+01
   2.070397e+02  -1.723690e+02
   2.951235e+02   6.712133e+01
   1.695593e+02   2.532177e+02
  -5.035534e+01   2.629388e+02
  -2.518679e+02   3.368480e+01
  -2.800234e+02  -2.184891e+02
  -9.562339e-01  -3.550571e+02
   2.773588e+02  -1.069522e+02
   3.781390e+02   1.962780e+02
   1.885637e+02   4.080560e+02
  -1.254075e+02   3.295502e+02
  -2.839822e+02   1.674365e+02
  -2.106206e+02  -1.352173e+01
  -8.727400e+01   2.317897e+00
  -2.318125e+02   1.380096e+02
  -4.570211e+02  -7.682057e+01
  -3.475612e+02  -3.173418e+02
   4.823821e+00  -5.048992e+02
   3.543280e+02  -4.485474e+02
   5.290687e+02  -2.612757e+02
   3.948545e+02   8.279266e+01
   3.960413e+01   2.711567e+02
  -1.037409e+02   2.810109e+02
  -8.488146e+01   5.651610e+01
   1.099553e+02  -1.769069e+02
   2.213935e+02  -4.001284e+01
   1.040075e+02   2.034078e+02
  -1.723541e+02   2.303241e+02
  -2.112520e+02  -6.154525e+01
  -1.529008e+01  -2.014265e+02
   1.997372e+02  -1.571139e+01
   1.890109e+02   2.749747e+02
  -4.087304e+01   3.756589e+02
  -2.564981e+02   1.837104e+02
  -3.252233e+02  -5.833207e+01
  -3.259745e+02  -2.580276e+02
  -1.003353e+02  -3.009665e+02
   9.844800e+01  -1.474906e+02
   2.341646e+02  -5.311076e+01
   5.552541e+01   4.505493e+01
  -6.051137e+01  -2.689062e+01
  -6.349725e+01  -1.690994e+02
   1.189276e+02  -1.203133e+02
   2.077221e+02  -2.530865e+01
   1.017006e+02   1.194685e+01
  -8.038515e+01   1.033827e+01
  -6.592089e+01  -6.256028e+01
   1.524683e+02  -1.011694e+02
   3.303487e+02   4.342045e+00
   3.186029e+02   1.635977e+02
   6.170644e+01   3.064727e+02
  -1.907812e+02   2.948060e+02
  -3.603759e+02   1.644806e+02
  -1.739218e+02  -2.555308e+01
   5.638081e+01  -1.289996e+02
   9.058342e+01   6.448633e-01
  -6.444426e+01   1.199460e+02
  -2.303793e+02   7.366617e+01
  -2.300495e+02  -8.548326e+01
  -7.094870e+01  -1.990901e+02
   1.185699e+02  -1.347287e+02
   1.515718e+02  -5.264002e+01
   6.501185e+01   4.733069e+01
  -1.757333e+01   1.622878e+01
  -1.493851e+01  -9.040346e+01
   5.515913e+01  -1.380325e+02
   2.215132e+02  -4.261934e+01
   1.911220e+02   1.502309e+02
  -2.903244e+01   2.572626e+02
  -1.839276e+02   1.544507e+02
  -2.021764e+02   2.957551e+01
  -8.671689e+01  -9.497522e+01
   7.789652e+01  -1.036173e+02
   4.286137e+01  -3.931172e+01
   2.479843e+01   3.245410e+01
   3.013701e+01   1.848488e+01
   3.845433e+00  -2.000789e+01
   1.169348e+02   2.845612e+01
   8.854050e+01   6.736316e+01
   3.182709e+01   1.408448e+02
  -1.183846e+02   1.517704e+02
  -2.684616e+02   3.277650e+01
  -2.237798e+02  -1.854497e+02
  -7.428998e+01  -2.038833e+02
   1.597076e+02  -1.707771e+02
   1.643375e+02  -2.477062e+01
   7.578481e+01   7.330312e+01
   1.463270e+01   6.867212e+01
   9.345526e+01  -7.298043e+00
   7.218656e+01  -8.305727e+00
   3.618740e+01   3.375078e+01
  -6.157694e+01   7.901628e+01
  -7.720353e+01   2.238723e+01
  -8.125251e+01  -6.461176e+01
   6.313313e-01  -8.590101e+01
   1.207545e+02  -9.777135e+01
   1.994833e+02   8.277439e+01
   9.980662e+01   1.386851e+02
  -6.112040e+01   2.436607e+02
  -2.786713e+02   1.037591e+02
  -2.888306e+02  -2.958104e+01
  -1.124282e+02  -1.815512e+02
   1.237397e+00  -1.740507e+02
   4.595637e+01  -1.119166e+02
   7.062313e+01  -6.793914e+01
   7.758971e+01  -1.283524e+02
   9.889913e+01  -6.126133e+01
   1.247597e+02   3.472064e+01
   1.097868e+02   1.723924e+02
   2.950146e+01   2.141819e+02
  -8.975849e+01   1.754475e+02
  -1.510193e+02   9.336787e+00
  -1.917895e+02  -9.137550e+01
  -2.107277e+01  -1.399762e+02
   5.330541e+01  -9.111467e+01
   6.884600e+01  -2.319315e+01
   4.743784e+00   5.073915e+01
   2.672454e+01   4.878159e+00
   4.913816e+01  -8.711156e+00
   6.803323e+01   5.357527e+01
   2.134993e+01   4.190613e+01
  -4.286197e+01   4.477445e+01
  -1.883002e+02  -2.860595e+01
  -1.413733e+02  -5.066453e+01
  -1.584371e+01  -1.130975e+02
   1.252222e+02  -8.462296e+01
   1.233214e+02  -1.879272e+01
   8.894119e+01   6.085557e+01
  -5.606482e+01   5.454154e+01
  -9.429534e+01   1.322586e+01
  -2.229449e+01  -4.946801e+01
   8.505561e+01  -2.888278e+01
   3.511806e+01  -5.975774e+00
   7.569651e+01   4.725038e+01
   5.216940e+01   2.882990e+01
   9.585842e+01  -8.475803e+00
   7.303387e+01  -9.512623e+00
   6.896640e+00   8.767257e+01
  -2.358197e+01   1.509401e+02
  -1.161882e+02   1.899856e+02
  -1.435876e+02   1.614828e+01
  -1.150305e+02  -8.515232e+01
   2.815515e+01  -1.336761e+02
   1.461132e+02  -5.916152e+01
   7.106482e+01   1.138136e+01
  -5.382493e+01   2.363664e+01
  -1.196224e+02  -9.468355e+01
  -9.998888e+01  -8.721429e+01
   1.109048e+02  -1.487842e+02
   1.997367e+02  -2.500771e+01
   2.152315e+02   4.199264e+01
   6.881646e+01   9.649147e+01
  -3.522220e+01   6.696484e+01
  -1.336735e+01   4.476662e+00
   1.048515e+01  -1.305234e+01
   9.406567e+01   9.604908e+00
   3.953109e+01   1.307751e+02
  -9.997798e+01   1.919389e+02
  -1.816339e+02   9.701241e+01
  -1.064813e+02  -8.781454e+01
  -1.273133e+01  -2.466212e+02
   8.679078e+01  -1.751646e+02
   1.633900e+02  -4.677060e-01
   4.967481e+01   1.141480e+02
   3.064415e+01   1.163455e+02
  -1.819959e+01  -8.021577e+00
  -7.116163e+01  -4.725505e+01
  -5.176372e+01  -1.708243e+01
   9.547930e+00   3.456284e+01
  -2.587040e+01  -3.904202e+01
  -3.015954e+01  -9.176326e+01
  -4.105582e+01  -1.604140e+02
   5.398356e+01  -6.008181e+01
   1.721766e+02   5.464830e+01
   1.371490e+02   3.419093e+01
   8.789089e+00   8.241235e+01
  -8.446201e+01   1.453932e+00
  -9.164091e+01  -1.765005e+01
  -1.911921e+01   7.992323e+00
   7.994085e+00  -3.208218e+01
   7.434634e+00  -1.802102e+01
  -2.833574e+01   3.653491e+01
  -2.938991e+01   2.077001e+01
   7.224113e+01  -2.423762e+00
   7.031247e+01   4.494707e+01
  -3.658177e+01   7.748582e+01
  -1.466663e+02   1.254637e+02
  -1.651074e+02   3.306733e+01
  -1.154977e+02  -6.745556e+01
  -2.402643e+01  -1.632157e+02
   8.100255e+01  -1.559410e+02
   1.287385e+02  -9.695630e+01
   1.006206e+02   1.280189e+00
   9.604569e+00  -1.309856e+01
   1.530710e+01   4.799219e+01
   1.971557e+01   2.587181e+00
   4.235208e+01   7.445289e+01
   2.716940e+01   8.154911e+01
  -1.690188e+01   9.704804e+01
  -9.490768e+01  -4.475054e+01
  -9.334137e+01  -9.980739e+01
   9.839105e+00  -1.799108e+02
   7.027736e+01  -2.635426e+01
   9.425449e+01   7.267553e+01
   6.222186e+01   1.157811e+02
  -7.787855e+01   7.942291e+01
  -1.414934e+02  -1.925387e+00
  -6.219170e+01  -7.441786e+01
   3.044743e+01  -5.876908e+01
   3.905777e+01  -4.658888e+01
  -7.231817e+01  -2.242138e+01
  -5.262569e+01  -2.772944e+00
   1.567359e+01  -4.654385e+01
   6.678706e+01  -3.331696e+01
   1.181941e+02  -3.654101e+01
   6.133498e+01  -2.746144e+01
  -3.152626e+01   1.117124e+02
  -6.527131e+01   6.439470e+01
  -5.011851e+01  -3.902276e+01
  -2.594664e+01  -7.542876e+01
   1.417000e+01  -4.351986e+01
   3.370210e+01   5.370082e+01
   4.323006e+01   8.205526e+01
   1.802854e+01   5.717159e+01
  -3.934538e+01  -5.247308e-01
  -5.457187e+01  -2.813526e+01
  -3.300808e+01  -6.445034e+00
   4.300078e+00   1.581141e+01
   1.201057e+01  -2.127420e+01
   2.282405e+01  -3.058354e+01
   1.391963e+01  -4.274604e+01
   3.966138e+01  -1.254147e+01
   4.591716e+01   3.347274e+01
   1.523248e+01   9.369535e+01
  -6.393942e+01   2.564997e+01
  -6.945251e+01  -5.214916e+01
  -3.175090e+01  -3.778579e+01
   7.973433e+01  -1.421302e+01
   9.131352e+01  -4.826819e+00
   3.215650e+01   6.737335e+01
   1.228565e+01   5.917219e+01
  -5.283041e+01   7.737917e+01
  -1.227457e+01  -1.062828e+01
   2.497612e+01   1.349045e+01
   6.351415e+01   2.741329e-01
  -7.059732e+01   1.242154e+01
  -8.871378e+01   1.018374e+01
