
 $NMID
 id='ANONYMOUS ', fmtdat='(2E16.6)'
 volume=1.0
 tramp=1.0
 $END
  -4.647825e+03   3.355403e+02
  -2.761963e+03  -2.251123e+03
   4.577680e+02  -2.854634e+03
   2.184024e+03  -9.597553e+02
   1.021929e+03   5.365435e+02
  -5.825969e+02   5.793960e+02
  -8.390784e+02  -2.998953e+02
  -1.155553e+02  -9.865599e+02
   7.034465e+02  -8.015082e+02
   8.816374e+02   4.330877e+01
   5.047396e+02   8.379350e+02
  -1.968802e+02   8.960846e+02
  -6.130331e+02   1.319541e+02
  -4.115591e+02  -7.075290e+02
   2.222713e+02  -8.056404e+02
   5.891104e+02  -5.011111e+01
   2.847185e+02   6.704744e+02
  -2.879198e+02   7.165869e+02
  -5.770898e+02   2.177687e+02
  -3.756864e+02  -3.532449e+02
  -4.597192e+01  -4.407174e+02
   2.609886e+02  -2.641954e+02
   2.104540e+02  -5.086217e+01
  -1.856582e+02   2.942038e+01
  -4.525779e+02  -1.459102e+02
  -2.023749e+02  -4.351249e+02
   5.088057e+02  -4.686689e+02
   9.088909e+02   8.661419e+01
   4.545557e+02   5.711998e+02
  -3.060161e+02   4.655718e+02
  -7.467454e+02  -3.070690e+01
  -3.632455e+02  -4.870769e+02
   2.820918e+02  -5.101109e+02
   5.546299e+02  -1.971458e+02
   4.314870e+02   2.244665e+02
   1.018343e+02   4.604320e+02
  -1.879917e+02   2.447529e+02
  -1.753063e+02  -2.153474e+02
   1.735047e+02  -3.932582e+02
   4.268790e+02   1.628593e+00
   1.965258e+02   6.253127e+02
  -3.383173e+02   6.987441e+02
  -5.806102e+02   4.500438e+01
  -3.352403e+02  -5.841579e+02
   2.540439e+02  -3.406816e+02
   4.121714e+02   2.595399e+02
  -7.444947e+01   4.766153e+02
  -5.548887e+02   1.712652e+02
  -6.359629e+02  -3.610837e+02
  -1.711402e+02  -4.828136e+02
   3.813124e+02  -3.737249e+02
   6.154343e+02   1.952285e+01
   4.067250e+02   3.391013e+02
  -1.400885e+02   3.596132e+02
  -4.527450e+02   1.068806e+02
  -2.893804e+02  -1.611221e+02
   8.175179e+01  -1.146588e+02
   1.542257e+02   1.504958e+02
  -1.628905e+02   1.747377e+02
  -3.599404e+02  -6.655525e+01
  -1.632129e+02  -3.290688e+02
   2.188154e+02  -2.781469e+02
   3.331510e+02  -6.348099e+01
   2.067562e+02   1.024064e+02
  -2.648612e+01   2.108911e+02
  -2.158599e+02   3.204988e+02
  -3.798497e+02   2.178759e+02
  -3.223547e+02  -1.466592e+02
  -8.266561e+01  -4.751212e+02
   1.077495e+02  -3.905460e+02
   1.164123e+02  -1.433614e+02
   2.181347e+00  -6.377412e+00
   7.635587e+01  -1.185157e+02
   1.840283e+02  -1.303881e+02
   2.350589e+02   5.583268e+01
   1.909274e+02   2.712252e+02
  -5.108351e+01   2.795612e+02
  -1.987862e+02   1.660594e+01
  -1.847893e+02  -1.998514e+02
  -1.446211e+01  -2.744498e+02
   2.115118e+02  -1.281640e+02
   3.929702e+02   1.389659e+02
   1.892541e+02   3.670650e+02
  -4.739083e+01   3.226124e+02
  -2.191083e+02   1.531525e+02
  -1.282990e+02   3.951543e+01
  -1.416515e+02   8.207458e+01
  -2.026155e+02   9.279860e+01
  -4.302766e+02  -8.613530e+01
  -3.481187e+02  -2.498742e+02
   2.492009e+01  -4.442285e+02
   3.306638e+02  -3.950230e+02
   4.954978e+02  -1.657775e+02
   3.448104e+02   1.045454e+02
   5.831149e+01   2.453848e+02
  -5.039426e+01   2.606149e+02
  -7.603136e+01   2.997395e+01
   9.924544e+01  -1.241568e+02
   2.022863e+02  -3.525754e+01
   2.993762e+01   1.960013e+02
  -1.596399e+02   2.121169e+02
  -1.587011e+02  -4.105075e+01
   2.942644e+01  -1.850864e+02
   1.916702e+02  -1.749498e+01
   1.678222e+02   2.313152e+02
   9.519040e+00   4.119228e+02
  -2.279910e+02   2.265602e+02
  -3.794739e+02  -7.204008e+01
  -2.916758e+02  -2.772538e+02
  -1.125660e+02  -2.773665e+02
   9.410162e+01  -1.667297e+02
   1.903933e+02  -9.641773e+00
   5.662287e+01   1.586222e+01
  -5.891619e+01  -4.139187e+01
  -2.370215e+01  -1.661239e+02
   1.518736e+02  -1.318852e+02
   2.055981e+02   5.020619e+01
   7.182879e+01   4.842515e+01
  -5.031375e+01   2.706955e+01
  -7.810103e+01  -3.729708e+01
   1.222539e+02  -3.775518e+01
   3.139574e+02  -1.153415e+01
   2.897783e+02   1.419281e+02
   6.843358e+01   3.176567e+02
  -2.142154e+02   2.931717e+02
  -3.132689e+02   1.076952e+02
  -2.031770e+02  -1.930629e+01
   3.365961e+01  -1.117809e+02
   1.261633e+02   2.121482e+01
  -7.620438e+01   1.030588e+02
  -2.023520e+02   9.101529e+01
  -2.324650e+02  -1.058346e+02
  -9.687144e+01  -2.506056e+02
   4.589316e+01  -1.405335e+02
   1.415895e+02  -6.095877e+01
   6.552382e+01   2.298989e+01
  -5.031961e+01   2.004582e+01
  -3.114951e+01  -8.928594e+01
   7.796055e+01  -1.219129e+02
   2.494895e+02  -1.902602e+01
   1.878510e+02   1.099267e+02
   4.288495e+01   2.588631e+02
  -1.839741e+02   1.524732e+02
  -1.681776e+02  -3.573700e+00
  -3.659426e+01  -1.395417e+02
   5.742003e+01  -1.194086e+02
   5.454268e+01  -2.870820e+01
   4.675261e+01   3.528953e+01
  -4.806777e+01   1.119342e+01
   8.385757e-01  -3.127570e+01
   1.072248e+02   1.350261e+01
   9.003643e+01   5.735086e+01
   2.984989e+01   1.757851e+02
  -1.271990e+02   1.526562e+02
  -2.644509e+02   2.569780e+01
  -1.978879e+02  -1.921866e+02
  -7.238636e+01  -2.577659e+02
   1.163592e+02  -1.640003e+02
   1.271302e+02  -5.184341e+01
   7.984878e+01   6.832416e+01
   6.635491e+01   2.157493e+01
   5.804024e+01   1.873341e+01
   4.926950e+01  -1.689061e+01
   7.431132e+01   4.275189e+01
  -7.178347e+01   8.201394e+01
  -1.137652e+02   3.782176e+01
  -7.379788e+01  -7.054112e+01
  -1.220153e+01  -9.816484e+01
   1.459693e+02  -1.051218e+02
   1.900480e+02   2.643223e+01
   8.513187e+01   1.610429e+02
  -1.402699e+02   1.758790e+02
  -2.774686e+02   1.189336e+02
  -2.341937e+02  -7.698206e+01
  -1.512411e+02  -1.440685e+02
   3.388682e+01  -1.610680e+02
   1.144253e+02  -1.126098e+02
   6.905198e+01  -6.709896e+01
   6.579696e+01  -1.308789e+02
   6.200849e+01  -1.024673e+02
   9.717253e+01  -2.440558e+01
   1.544001e+02   1.343488e+02
   6.930292e+01   2.077645e+02
  -9.228023e+01   1.544155e+02
  -2.010545e+02   3.076759e+01
  -1.455000e+02  -1.611635e+02
  -6.917482e+01  -1.729445e+02
   4.631551e+01  -6.588017e+01
   5.507000e+01  -2.439435e+01
  -5.392288e+00   4.670791e+01
   9.180114e+00   5.675838e+01
  -1.792028e+00   2.822702e+01
   9.792777e+01   1.444982e+01
   7.017700e+01   5.054080e+01
  -3.179490e+01   6.309330e+01
  -1.632574e+02  -1.195767e+01
  -1.914105e+02  -2.730910e+01
   8.151985e-01  -7.395493e+01
   1.342326e+02  -7.484695e+01
   1.689941e+02  -3.206377e+01
   6.328056e+01   4.888430e+01
  -7.775685e+01   1.981068e+01
  -1.078409e+02  -3.283654e+01
   1.605566e+01  -8.258274e+01
   8.658245e+01  -5.649203e+01
   5.520513e+01   1.209695e+01
   9.128775e+01   4.552985e+01
   5.221016e+01   4.658116e+01
   4.932532e+01   6.213401e+00
   4.989017e+01  -5.334880e+00
   6.122539e+01   1.078224e+02
  -2.258236e+01   1.339944e+02
  -9.159338e+01   1.400417e+02
  -2.005379e+02   3.105431e+00
  -1.616023e+02  -9.517190e+01
   3.170163e+00  -9.585767e+01
   9.688163e+01  -6.845131e+01
   8.441902e+01  -7.212571e+00
  -5.168291e+01   5.649889e+01
  -1.366829e+02  -2.496782e+01
  -1.956896e+01  -1.031293e+02
   1.138821e+02  -1.629981e+02
   1.740156e+02  -6.248912e+01
   1.650708e+02   6.741692e+00
   6.799294e+01   5.170092e+01
  -7.028525e+01   1.020411e+02
  -8.381640e+01   5.065705e+01
   4.782733e+01  -5.023990e+01
   7.331267e+01   2.778206e+01
   5.949306e+01   1.634795e+02
  -1.156520e+02   1.513292e+02
  -1.865195e+02   8.271165e+01
  -1.768961e+02  -1.142522e+02
   1.507375e+01  -2.172176e+02
   1.051393e+02  -1.231850e+02
   1.399105e+02   3.099391e+01
   9.129836e+01   1.054840e+02
   3.708156e+01   8.798816e+01
  -6.089875e+01   2.280080e+01
  -2.914301e+01  -1.860905e+01
  -3.453712e+01   1.021132e+01
  -4.606202e+00   3.319227e+01
  -1.040874e+01  -2.871574e+00
  -4.887564e+01  -1.295860e+02
  -6.637375e+00  -1.046538e+02
   4.567329e+01  -7.226817e+01
   1.771260e+02   7.173217e+01
   1.229004e+02   6.008628e+01
  -1.154527e+01   2.798993e+01
  -9.414806e+01   7.051146e+01
  -1.146136e+02   2.112102e+01
  -5.267981e+00  -5.897173e+01
   4.110999e+01  -6.302812e+01
   5.517442e+01  -6.812091e+00
   2.037989e+01  -3.289227e+01
  -4.554076e+01   2.002496e+01
   7.910714e+01   2.752785e+01
   6.240788e+01  -1.961343e+01
   2.926968e+01   8.888355e+01
  -7.084589e+01   1.319911e+02
  -1.518680e+02   7.866604e+01
  -1.594813e+02  -5.694078e+01
  -2.746235e+01  -1.874786e+02
   8.253861e+01  -1.592319e+02
   9.384809e+01  -8.514448e+01
   7.221347e+01   1.474921e+01
   6.033562e+01   5.003058e+01
   4.484169e+00   5.470106e+01
  -1.180227e+01   3.854923e+01
  -1.457683e+01   5.747947e+01
   1.875589e+01   5.708012e+01
  -1.791120e+01   7.863305e+01
  -8.666725e+01  -4.414566e+01
  -7.880728e+01  -6.346190e+01
  -4.645102e+01  -9.496864e+01
   7.614394e+01  -3.560175e+01
   1.007592e+02   1.382902e+02
   6.924426e+01   1.265105e+02
  -1.088978e+02   5.847929e+01
  -9.304774e+01  -1.289378e+01
  -3.155642e+01  -5.242230e+01
   3.316721e+01  -5.986261e+01
  -5.104727e+00  -4.561399e+01
  -3.171597e+00   2.663212e+01
  -8.183049e+01   1.407147e+01
   7.190819e+00  -5.181354e+01
   8.932484e+01  -5.263530e+01
   9.366874e+01  -6.469645e+01
   6.533664e+01   2.602581e+01
  -3.441340e+01   6.446057e+01
  -1.084048e+02   8.547490e+01
  -5.318994e+01  -1.910039e+01
  -1.934011e+01  -6.858606e+01
   3.775677e+01  -4.980064e+01
   4.460056e+01   2.252158e+00
   5.202875e+01   5.436132e+01
  -7.984779e+00   6.133467e+01
  -2.427975e+01  -3.274727e+01
  -7.442248e+01   3.176873e+01
  -4.732652e+00  -2.180252e+01
   2.687806e+00   2.048550e+01
  -2.702878e+01   3.265997e+01
  -1.045686e+01  -1.539698e+01
   2.456682e+01  -4.216503e+01
   4.228681e+01  -1.478951e+01
   1.774275e+01   7.250144e+01
   1.259435e+01   8.347326e+01
  -1.096853e+01   4.315822e+01
  -7.010178e+01  -1.748101e+01
   2.271815e+01  -2.761572e+01
   2.252828e+01  -2.703072e+01
   1.407220e+02  -5.391427e+00
   3.750822e+01   1.822560e+01
  -2.629919e+01   7.069348e+01
  -9.588685e+01  -2.672567e+00
  -4.533094e+01  -9.932000e+00
   4.712967e+01   2.108555e+01
  -6.596032e+00   4.687895e+01
  -4.965519e+01   3.696243e+01
  -1.305438e+02   7.200755e+00
