
 $NMID
 id='ANONYMOUS ', fmtdat='(2E16.6)'
 volume=1.0
 tramp=1.0
 $END
   3.647849e+03  -2.869915e+02
   2.483588e+03   1.832927e+03
  -1.816439e+02   2.520091e+03
  -1.706989e+03   1.175930e+03
  -1.135664e+03  -1.956493e+02
   2.817203e+02  -4.691896e+02
   6.676886e+02   2.060373e+02
   1.211536e+02   6.683079e+02
  -5.264329e+02   6.995586e+02
  -7.151901e+02  -7.662478e+01
  -4.556155e+02  -6.823804e+02
   3.641158e+01  -7.323358e+02
   4.971231e+02  -2.061122e+02
   3.130542e+02   5.101219e+02
  -1.910712e+02   6.503222e+02
  -4.747348e+02   4.917405e+00
  -2.808145e+02  -5.423244e+02
   2.291252e+02  -6.080486e+02
   5.358501e+02  -2.505645e+02
   3.558691e+02   2.150047e+02
   2.065822e+01   3.371126e+02
  -8.309486e+01   2.177139e+02
  -1.689981e+02   9.432322e+01
   1.446814e+02   1.043099e+01
   3.324202e+02   1.275883e+02
   9.259583e+01   3.387403e+02
  -4.319753e+02   2.747946e+02
  -6.930051e+02  -9.050600e+01
  -3.210579e+02  -3.985204e+02
   2.481671e+02  -3.522269e+02
   6.465845e+02   1.205939e+02
   2.643005e+02   3.413846e+02
  -2.320199e+02   4.549630e+02
  -4.748818e+02   1.954198e+02
  -3.618162e+02  -1.857776e+02
  -8.112184e+01  -3.653034e+02
   6.639158e+01  -1.711565e+02
   7.452732e+01   1.316363e+02
  -1.436960e+02   2.813321e+02
  -2.985916e+02  -4.880773e+01
  -1.898740e+02  -4.796965e+02
   1.833067e+02  -5.889576e+02
   3.921412e+02  -4.662096e+01
   2.904747e+02   4.508038e+02
  -2.125189e+02   2.181980e+02
  -2.695397e+02  -2.683144e+02
   4.872587e+01  -4.677160e+02
   4.766147e+02  -1.588052e+02
   4.667987e+02   2.718119e+02
   1.330317e+02   4.573342e+02
  -3.140714e+02   2.722454e+02
  -5.012974e+02  -1.747439e+01
  -3.969775e+02  -2.440149e+02
   1.428845e+01  -3.003952e+02
   3.504447e+02  -9.272252e+01
   2.584909e+02   8.176005e+01
  -6.166699e+01   6.044838e+01
  -1.045521e+02  -8.066363e+01
   1.300995e+02  -1.701566e+02
   2.718829e+02  -9.606822e-02
   1.567827e+02   2.288756e+02
  -1.156446e+02   3.107047e+02
  -3.086206e+02   9.104304e+01
  -2.319941e+02  -6.665562e+01
   4.088749e+01  -2.338250e+02
   2.176210e+02  -3.114962e+02
   3.746646e+02  -2.215989e+02
   2.709356e+02   1.545517e+02
   4.283720e+01   3.850199e+02
  -7.003895e+01   3.264571e+02
  -1.024337e+02   1.846381e+02
  -3.840076e+01   3.399509e+01
  -8.979970e+01   1.011479e+02
  -1.610020e+02   1.447060e+02
  -2.268998e+02  -9.388018e+01
  -1.625198e+02  -2.321558e+02
   1.065958e+02  -1.962883e+02
   2.094277e+02   4.106965e+00
   1.534763e+02   1.903302e+02
  -3.195330e+00   2.340038e+02
  -2.505009e+02   8.364445e+01
  -3.392699e+02  -1.724347e+02
  -1.809958e+02  -3.052303e+02
   8.402202e+01  -2.556268e+02
   1.501013e+02  -1.407736e+02
   1.711536e+02  -2.306805e+01
   1.080214e+02  -5.731336e+01
   1.754495e+02  -8.648070e+01
   3.584421e+02   9.711213e+01
   3.353436e+02   2.194506e+02
   2.264195e+01   4.326795e+02
  -3.748978e+02   3.631638e+02
  -4.496595e+02   1.671690e+02
  -2.892361e+02  -7.066377e+01
   2.389871e+00  -1.710677e+02
   1.178337e+02  -2.441148e+02
   6.033666e+01  -3.845584e+00
  -9.732353e+01   8.931957e+01
  -1.935323e+02   8.945447e+00
  -6.397210e+01  -1.637337e+02
   1.540023e+02  -1.432507e+02
   1.411181e+02   2.398726e+01
  -6.344584e+01   1.559924e+02
  -1.705162e+02   3.808647e+01
  -1.557937e+02  -2.359145e+02
   2.146995e+01  -3.383319e+02
   1.880407e+02  -2.355738e+02
   3.542595e+02   6.057276e+01
   2.189539e+02   2.563978e+02
   8.734072e+01   2.758655e+02
  -8.657072e+01   1.333560e+02
  -1.681023e+02  -1.290049e+01
  -4.355057e+01   1.180640e+00
   8.467162e+01   7.504076e+01
   2.715376e+01   1.301896e+02
  -1.099038e+02   1.035704e+02
  -1.245845e+02  -4.996936e+00
  -3.183299e+01  -1.011005e+01
   7.484184e+01  -4.609842e+01
   3.640155e+01   6.526234e+01
  -1.072489e+02   1.180120e+02
  -1.968314e+02   6.525350e-02
  -2.465201e+02  -1.371433e+02
  -3.352665e+01  -2.277666e+02
   1.649426e+02  -2.327294e+02
   2.598612e+02  -9.754381e+01
   1.079031e+02   5.570423e+01
   7.481941e+00   1.040941e+02
  -5.438075e+01  -1.063700e+01
   4.543769e+01  -7.509959e+01
   2.256751e+02  -6.605039e+01
   2.324588e+02   6.952291e+01
   2.149288e+01   1.750538e+02
  -7.298588e+01   1.518733e+02
  -1.463607e+02   3.507531e+01
  -5.066558e+01  -4.095380e+01
   4.889199e+01   2.372413e+01
   1.609331e+01   1.116643e+02
  -9.399611e+01   1.075455e+02
  -1.611086e+02   2.227053e+01
  -1.942983e+02  -7.908953e+01
  -1.712202e+01  -1.740864e+02
   1.762952e+02  -1.227780e+02
   1.485710e+02  -2.450025e+01
   9.140750e+01   1.052214e+02
  -3.609121e+01   1.005698e+02
  -7.937971e+01   2.210488e+00
  -1.073088e+01  -2.212812e+01
   1.942184e+01  -2.653563e+01
  -1.613575e+01   2.458815e+00
  -9.971448e+01  -4.161411e-02
  -5.754779e+01  -9.272044e+01
  -1.184288e+01  -1.598002e+02
   1.108355e+02  -9.578816e+01
   2.290079e+02  -6.280204e+01
   1.721998e+02   1.248382e+02
   2.690386e+00   2.431541e+02
  -8.795929e+01   1.729246e+02
  -1.293006e+02   2.383936e+01
  -7.369821e+01  -7.087161e+01
  -5.273910e+01  -6.622901e+01
  -6.525459e+01  -2.395169e+01
  -5.599319e+00   6.918213e+00
  -8.320995e+01  -4.055345e+01
   3.854491e+01  -8.364088e+01
   1.335758e+02  -4.944002e+01
   1.009795e+02   2.027713e+01
  -6.791295e+00   1.032950e+02
  -1.477321e+02   7.806787e+01
  -1.849201e+02  -4.832024e+01
  -8.954980e+01  -1.737149e+02
   5.757902e+01  -1.641361e+02
   2.343472e+02  -7.904522e+01
   2.629077e+02   6.068071e+01
   1.022220e+02   1.884885e+02
  -5.793147e+01   1.806140e+02
  -6.049964e+01   7.933287e+01
  -5.941302e+01   5.376484e+01
  -4.046014e+01   9.130583e+01
  -8.116594e+01   8.094339e+01
  -1.044192e+02   1.117928e+01
  -1.122848e+02  -1.264013e+02
  -7.463097e+01  -2.222405e+02
   5.646927e+01  -1.788025e+02
   1.486615e+02  -6.097785e+00
   1.028086e+02   7.957132e+01
   6.659367e+01   1.542178e+02
  -5.665135e+01   1.218306e+02
  -1.234772e+01   4.479552e+00
   3.960612e-01  -5.585252e+01
  -2.139035e+01  -4.196491e+01
  -2.468499e+01  -1.168048e+01
  -6.906496e+01  -7.583982e+00
  -7.093594e+01  -2.522368e+01
   5.706177e+01  -3.290912e+01
   1.269604e+02  -3.906982e+01
   1.270513e+02   1.932247e+01
   2.113059e+01   9.123228e+01
  -1.305745e+02   9.051123e+01
  -1.532110e+02   2.746539e+01
  -6.612862e+01  -7.673452e+01
   4.851305e+01  -1.270559e+01
   4.898038e+01  -7.162305e+00
   4.025562e+01   3.386341e+01
  -3.393657e+01  -3.781724e+00
  -5.180353e+01  -8.294241e+00
   2.642396e+00  -4.529313e+01
  -4.771359e+01  -2.226190e+01
  -4.920849e+01   1.322639e+01
  -8.672666e+01   2.266629e+01
  -2.275812e+01  -4.595288e+01
   4.406415e+01  -1.557637e+02
   8.269523e+01  -1.334243e+02
   1.515977e+02  -1.781001e+01
   9.277420e+01   1.179937e+02
   2.114943e+01   8.514435e+01
  -8.384039e+01   3.756268e+01
  -6.647390e+01   1.335572e+01
   4.001890e+01  -1.917197e+01
   9.583635e+01   6.084009e+01
   2.978825e+01   7.565515e+01
  -6.687095e+01   1.313108e+02
  -1.771389e+02   5.921364e+01
  -1.666133e+02  -3.018683e+01
   6.334630e-01  -1.058569e+02
   6.490598e+01  -6.054294e+01
   4.619487e+01  -2.750342e+00
  -8.413664e+00   4.049906e+00
  -1.473370e+02  -3.001394e+01
   5.338490e+00  -8.792950e+01
   9.977156e+01  -1.227786e+02
   1.544982e+02  -5.458848e+01
   1.002904e+02   7.271022e+01
   1.596282e+01   2.015499e+02
  -2.579548e+01   1.263837e+02
  -1.089283e+02  -1.053836e+01
  -6.777225e+01  -1.042011e+02
   1.522329e+01  -7.179498e+01
   1.544340e+01   8.248733e-01
   4.858790e+01   2.868916e+01
   4.361543e+01   2.987562e+00
   2.141410e+01  -3.272996e+01
   7.187329e+00   2.877888e+01
   7.105183e+01   8.161269e+01
   2.518531e+01   5.109146e+01
  -3.373169e+01   3.460688e+01
  -1.425919e+02  -1.818366e+01
  -1.344071e+02  -4.220200e+01
  -3.087825e+01  -4.226455e+01
   7.915151e+01  -6.303336e+01
   9.623798e+01  -2.260702e+01
   1.278459e+01  -5.705664e+00
  -5.586849e+01   4.266576e+01
  -3.543254e+01   3.840664e+01
   3.170849e+01   1.692895e+01
   8.295584e+00  -1.171599e+01
  -4.689894e+01  -1.687574e+00
  -4.894500e+01  -2.542135e+01
  -1.292537e+01  -1.185144e+02
   9.806605e+01  -1.012279e+02
   1.869229e+02  -1.072867e+02
   1.689781e+02   4.191891e+01
   3.760362e+01   1.491443e+02
  -8.255518e+01   1.207886e+02
  -1.089501e+02   8.590436e+01
  -1.089387e+02   4.261705e+01
  -4.961913e+01  -1.997185e+01
   1.900872e+01  -5.871478e+01
   8.177313e+00  -2.850954e+01
  -5.333319e+01  -1.647673e+01
   3.184141e+01  -7.908075e+01
   2.837116e+01  -6.518350e+01
   7.422025e+01   3.010892e+01
   5.746906e+01   1.079597e+02
   2.871372e+01   1.096219e+02
  -5.904791e+01   3.922540e+01
  -6.269353e+01  -8.978964e+01
  -1.706072e+01  -1.228774e+02
   6.381286e+01  -7.978811e+01
   1.076739e+02   6.334048e+00
   2.311366e+01   4.725704e+01
  -2.828968e+01   7.725158e+01
   7.012753e+00   2.828587e+01
  -8.507953e+00  -6.284151e+00
   1.023448e+02  -2.591441e+01
   3.488562e+01  -8.404625e+00
  -1.094113e+02   4.348378e+01
  -1.198935e+02   7.314274e+01
  -7.783080e+01   1.217055e+01
   3.312288e+01  -7.357493e+01
   5.390182e+01  -9.133250e+01
   4.652137e+01  -8.768591e+00
  -1.759303e+00   5.276334e+01
  -1.942315e+01   4.594673e+01
  -3.352119e+01  -2.464470e+01
  -3.025578e+01  -4.485397e+01
  -6.986682e+00  -4.766026e+01
   5.068188e+01   2.496525e+01
   5.158076e+01   5.416154e+01
   4.350190e+01   1.374200e+01
   1.744829e+01  -1.918596e+01
   4.245843e+01  -1.105800e+01
   1.463921e+01   7.156625e+01
  -2.986574e+01   3.236040e+01
  -3.621824e+01  -2.599275e+01
  -3.914585e+01  -8.700084e+01
   2.868025e+01  -6.663308e+01
   5.799018e+01  -2.356234e+01
   3.707956e+01   2.901520e+01
   1.442696e+01   6.992080e+01
  -2.452138e+01   6.594572e+01
  -7.515115e+01   2.520103e+01
  -3.662965e+01  -2.861807e+01
   9.219000e+00  -5.922811e+01
   1.943413e+01  -9.342370e-03
   2.242495e+01  -8.618850e+00
  -3.152006e+01   3.004221e+01
  -5.498551e+00  -4.850227e+01
   4.038021e+01  -5.942905e+01
   8.949502e+01   7.810081e+00
