
 $NMID
 id='ANONYMOUS ', fmtdat='(2E16.6)'
 volume=1.0
 tramp=1.0
 $END
   3.724153e+03  -3.847468e+02
   2.220342e+03   2.680646e+03
  -3.665598e+02   2.595736e+03
  -1.776766e+03   9.972575e+02
  -1.092810e+03  -2.881720e+02
   3.727512e+02  -3.629325e+02
   6.464654e+02   2.168173e+02
   1.354650e+02   8.589572e+02
  -5.172286e+02   7.655705e+02
  -8.142016e+02   3.983788e+01
  -4.916463e+02  -6.716978e+02
   1.507820e+02  -7.619024e+02
   5.483355e+02  -1.096350e+02
   3.438429e+02   7.015885e+02
  -2.240168e+02   7.525966e+02
  -5.454132e+02   3.495102e+01
  -3.509154e+02  -5.795379e+02
   1.989814e+02  -6.906209e+02
   5.838084e+02  -2.562194e+02
   3.400301e+02   2.491151e+02
   5.124174e+01   4.082083e+02
  -1.797620e+02   2.953081e+02
  -1.053481e+02   4.843242e+01
   1.643171e+02  -1.177947e+01
   3.875756e+02   1.765531e+02
   8.261210e+01   4.117573e+02
  -4.197318e+02   3.997459e+02
  -7.346241e+02  -9.427146e+01
  -3.508132e+02  -4.645502e+02
   3.244239e+02  -3.426003e+02
   6.432718e+02   1.047670e+02
   3.135118e+02   4.113417e+02
  -2.845162e+02   4.477717e+02
  -5.822798e+02   1.733654e+02
  -4.354253e+02  -2.321308e+02
  -1.316010e+01  -4.421254e+02
   1.674726e+02  -2.499658e+02
   1.359426e+02   1.882291e+02
  -1.976143e+02   3.302061e+02
  -3.735802e+02  -6.097504e+01
  -1.601839e+02  -6.621632e+02
   2.659550e+02  -6.474379e+02
   4.541509e+02  -1.355572e+01
   1.953221e+02   4.500334e+02
  -2.578518e+02   2.161693e+02
  -3.649822e+02  -3.188050e+02
   5.272459e+01  -4.767703e+02
   5.069193e+02  -9.645313e+01
   5.641898e+02   4.007836e+02
   2.190214e+02   5.507817e+02
  -3.103616e+02   3.453133e+02
  -5.427151e+02  -2.921498e+01
  -3.195375e+02  -2.852385e+02
   7.568756e+01  -2.806251e+02
   3.633942e+02  -8.901543e+01
   2.201612e+02   1.199831e+02
  -3.903460e+01   3.553128e+01
  -9.474967e+01  -1.072618e+02
   1.289237e+02  -8.544238e+01
   3.302862e+02   4.446398e+01
   1.194021e+02   2.088798e+02
  -1.648292e+02   2.763337e+02
  -3.168586e+02   9.623660e+01
  -2.020818e+02  -6.077581e+01
  -4.764033e+01  -3.021484e+02
   2.418769e+02  -3.488772e+02
   3.876199e+02  -2.182889e+02
   2.873257e+02   2.116638e+02
   6.123813e+01   4.115793e+02
  -9.111355e+01   3.624785e+02
  -2.312868e+01   1.580462e+02
  -2.118710e+01   6.312942e+01
  -1.016046e+02   8.055694e+01
  -2.412379e+02   1.324152e+02
  -2.714634e+02  -1.222270e+02
  -8.625181e+01  -2.325274e+02
   7.184764e+01  -2.233120e+02
   2.030848e+02   1.763282e+01
   1.577910e+02   2.432989e+02
  -7.462318e+00   2.624902e+02
  -2.368373e+02   1.363677e+02
  -3.084229e+02  -1.352015e+02
  -2.140524e+02  -3.030115e+02
   6.503322e+01  -3.128249e+02
   1.664146e+02  -1.487477e+02
   1.072891e+02  -6.193443e+00
   1.251405e+02  -6.618159e+01
   2.394045e+02  -6.286095e+01
   4.109709e+02   9.395172e+00
   3.882026e+02   2.719908e+02
   2.854862e+01   4.197870e+02
  -3.054729e+02   4.232980e+02
  -4.808489e+02   2.081103e+02
  -2.901738e+02  -9.412789e+01
  -4.294141e+01  -3.008052e+02
   1.285868e+02  -2.381450e+02
   4.955505e+01  -3.927521e+01
  -1.607648e+02   7.453753e+01
  -2.018829e+02  -4.445772e+01
  -3.736099e+01  -1.570801e+02
   1.532784e+02  -1.221194e+02
   1.381938e+02   3.247912e+01
  -1.541981e+01   1.738221e+02
  -1.563932e+02   6.134824e+01
  -2.160257e+02  -2.277650e+02
  -2.286665e+01  -3.924803e+02
   2.182354e+02  -2.027615e+02
   3.362351e+02   7.830719e+01
   2.790104e+02   2.319568e+02
   6.410675e+01   2.777336e+02
  -1.079245e+02   1.472288e+02
  -1.410849e+02   2.382438e+01
  -4.065914e+01  -3.583941e+01
   6.830457e+01   3.138510e+01
   5.270204e+01   8.226735e+01
  -1.135040e+02   1.031479e+02
  -1.646052e+02   2.188129e+01
  -5.256393e+01  -5.370333e+01
   8.637101e+01  -1.436623e+01
   6.886317e+01   8.788185e+01
  -1.345312e+02   1.025506e+02
  -2.619191e+02   1.822804e+01
  -2.511184e+02  -1.020152e+02
  -2.320496e+01  -2.774973e+02
   1.640011e+02  -2.603690e+02
   2.517713e+02  -1.573445e+02
   1.441036e+02   5.642954e+01
   1.832368e+01   7.935251e+01
  -8.390919e+01  -1.817501e+01
   3.474007e+01  -7.388346e+01
   1.873850e+02  -7.156002e+01
   2.260245e+02   8.384788e+01
   1.031564e+02   1.757732e+02
  -1.176515e+02   1.421361e+02
  -1.323053e+02   3.402863e+01
  -8.801721e+01  -2.041995e+01
   4.303931e+01  -5.325401e+00
   7.166602e+01   9.280062e+01
  -6.232261e+01   1.331394e+02
  -1.917483e+02   8.204321e+01
  -2.386208e+02  -8.020680e+01
  -3.140107e+00  -1.717945e+02
   1.520618e+02  -1.779206e+02
   1.692187e+02  -1.213297e+01
   6.427711e+01   6.709666e+01
  -2.351653e+01   1.040828e+02
  -8.761871e+01   6.278661e-01
  -1.334928e+00  -6.194172e+00
   3.604772e+01  -4.825428e+01
  -1.559989e+01   6.734560e-01
  -1.040153e+02  -5.966324e+00
  -1.087054e+02  -5.541477e+01
  -3.386376e+01  -1.866480e+02
   1.278758e+02  -1.685012e+02
   2.358367e+02  -5.995384e+01
   2.038999e+02   1.337440e+02
   6.938817e+01   2.936713e+02
  -1.081797e+02   1.690667e+02
  -1.278890e+02   4.340517e+01
  -6.145626e+01  -6.480765e+01
   4.196923e+00  -4.520909e+01
  -3.356868e+01   3.771932e+01
  -5.086225e+01   7.745978e+00
  -8.868907e+01  -6.623654e+01
   5.931723e+01  -1.143992e+02
   1.376408e+02  -7.886547e+01
   1.381765e+02   2.792215e+01
   3.362421e+00   1.195948e+02
  -1.265963e+02   9.412582e+01
  -2.138115e+02  -4.575565e+01
  -1.331056e+02  -2.372069e+02
   1.125086e+02  -2.815034e+02
   2.563624e+02  -1.517324e+02
   2.515038e+02   7.370460e+01
   6.393582e+01   1.541521e+02
  -5.781243e+01   1.604027e+02
  -1.191494e+02   1.099026e+02
  -8.500114e+01   7.761749e+01
  -2.275884e+01   8.690020e+01
  -7.287769e+01   8.237455e+01
  -1.373740e+02   2.016864e+01
  -1.336667e+02  -1.675237e+02
  -6.093795e+00  -2.212663e+02
   8.846470e+01  -1.537072e+02
   1.820156e+02  -6.380543e+01
   1.301514e+02   1.265153e+02
   1.007560e+01   2.079944e+02
  -7.908198e+01   1.371337e+02
  -9.195504e+01  -3.955767e+01
   1.210750e+01  -6.193789e+01
   3.183180e+01  -1.269479e+01
  -2.807127e+01   2.625988e+00
  -1.077663e+02  -9.465975e+00
  -5.523893e+01  -2.218968e+01
   1.455825e+01  -5.781591e+01
   1.684092e+02  -2.983603e+01
   1.675414e+02   5.878632e+01
   1.295019e+01   7.118308e+01
  -1.447228e+02   7.416723e+01
  -1.197544e+02   5.019116e+01
  -8.441535e+01  -4.255607e+01
   8.526250e+01  -5.572045e+01
   1.276738e+02   1.342477e+01
   2.304008e+01   7.034685e+01
  -1.169968e+01   4.797874e+01
  -9.574954e+01  -1.347951e+01
  -8.908743e+01  -4.123576e+01
  -4.863601e+01  -6.501014e+01
  -5.681505e+01   4.746237e+01
  -8.905040e+01  -9.857423e+00
  -3.551270e+01  -1.053428e+02
   7.342850e+01  -1.786217e+02
   1.173813e+02  -1.774039e+02
   1.871645e+02  -5.966061e+01
   1.485857e+02   1.069490e+02
   2.937061e+01   1.760450e+02
  -9.733552e+01   4.134193e+01
  -7.530997e+01  -6.044110e+00
   6.006693e+01  -4.462067e+01
   1.416124e+02   9.743680e+00
   7.940715e+01   8.944430e+01
  -1.016553e+02   1.386340e+02
  -1.964915e+02   4.683640e+01
  -2.109025e+02  -6.007785e+01
  -2.053558e+01  -1.294164e+02
   5.132697e+01  -4.390248e+01
   8.229728e+01  -7.079388e+00
  -4.678041e+01   3.174606e+01
  -1.147485e+02  -6.006391e+00
  -5.844256e+01  -9.492191e+01
   8.269136e+01  -2.087598e+02
   1.964880e+02  -7.727826e+01
   1.407951e+02   8.378676e+01
   3.581823e+01   2.149487e+02
  -6.480764e+01   1.747284e+02
  -1.136157e+02   2.120409e+01
  -7.017287e+01  -1.027712e+02
  -9.527829e+00  -1.654583e+02
   6.975303e+01  -1.217309e+01
   4.026389e+01   3.672729e+01
   3.305132e+01  -2.426745e+00
  -1.119976e+01  -2.494834e+01
   4.427822e+01   5.149667e-01
   7.483040e+01   7.988037e+01
   3.197288e+01   1.380411e+02
  -7.948311e+01   7.391291e+01
  -1.638983e+02  -3.109605e+01
  -1.899869e+02  -5.828394e+01
  -3.975160e+01  -4.131546e+01
   1.074248e+02  -2.329779e+01
   7.522312e+01  -1.986246e+01
   4.548473e+00  -1.126068e+01
  -3.677305e+01   4.196340e+01
  -1.874362e+01   2.602153e+01
   1.338313e+00   2.436308e+01
   2.775647e+01  -4.089940e+01
  -4.323864e+01  -8.866111e+00
  -9.003461e+01  -1.550285e+01
  -3.001244e+01  -5.548638e+01
   1.318483e+02  -1.068075e+02
   1.817925e+02  -1.219089e+02
   1.575639e+02   6.440216e-01
   4.897969e+01   1.571730e+02
  -8.002672e+01   1.672749e+02
  -8.072256e+01   6.280684e+01
  -9.738864e+01  -3.563247e+00
  -3.050143e+01  -1.164008e+01
   1.196069e+01  -4.706872e+00
  -1.782544e+01  -3.557511e+01
  -6.561790e+01  -4.159205e+01
  -7.365282e+01  -6.237926e+01
   1.903379e+01  -9.425029e+01
   7.207674e+01  -2.144974e+01
   8.677123e+01   1.433192e+02
  -2.893144e+01   1.004938e+02
  -4.779038e+01   4.106631e+01
  -8.637620e+01  -6.422142e+01
  -4.360719e+01  -1.096157e+02
   2.174904e+01  -3.995869e+01
   1.097896e+02  -9.883604e+00
   4.231641e+01   8.581085e+01
  -1.703331e+01   6.981792e+01
  -5.412285e+01  -9.736628e-01
   3.294924e+01  -4.746781e+00
   5.674590e+01  -2.968387e+01
   3.837697e+01  -1.100603e+01
  -6.141215e+01   1.247669e+02
  -1.190343e+02   2.058454e+01
  -7.844333e+01  -4.842260e+01
   2.466250e+00  -8.470345e+01
   4.684236e+01  -7.736150e+01
   1.810621e+01  -8.860144e+00
  -2.025123e+01   6.713738e+01
   8.549227e+00   4.647095e+01
  -1.016065e+01  -5.281815e+01
  -2.688154e+01  -3.242419e+01
  -2.724097e+01  -2.506081e+01
   3.116307e+01   7.926021e+00
   3.423791e+01  -1.618945e+00
   1.902750e+01   1.781120e+00
   6.254395e+00  -5.135459e+01
   6.534022e+00  -5.929203e+00
   2.321722e+01   4.084735e+00
  -2.591045e+01   6.402304e+01
  -4.187350e+01   2.140178e+01
  -4.696047e+01  -1.506012e+01
   6.069153e+00  -5.578766e+01
   4.038661e+01  -1.643236e+01
   6.215363e+01   5.485411e+01
   2.864825e+01   3.927898e+01
  -6.012661e+01   7.848619e+01
  -8.113167e+01  -2.497244e+01
  -5.944107e+01  -5.150602e+01
   2.910840e+01  -5.174473e+01
   4.030330e+01  -1.325205e+01
   6.702602e+00   1.639076e+01
  -4.386939e+01   1.272269e+01
  -5.398068e+01   2.227522e+01
  -3.366756e+01  -3.738471e+01
   6.375180e+01  -3.819263e+01
