
 $NMID
 id='ANONYMOUS ', fmtdat='(2E16.6)'
 volume=1.0
 tramp=1.0
 $END
  -3.172952e+03   4.414564e+02
  -1.882381e+03  -1.657621e+03
  -1.106720e+02  -1.694695e+03
   1.186523e+03  -1.150299e+03
   7.531318e+02  -3.462030e+02
   1.215044e+02   6.723332e+01
  -3.016083e+02   9.444752e+00
  -6.153039e+01  -4.092281e+02
   3.015126e+02  -4.390636e+02
   5.488275e+02  -1.343487e+02
   3.759324e+02   4.360362e+02
   4.783583e+01   5.605352e+02
  -2.588207e+02   1.762163e+02
  -1.894046e+02  -4.022447e+02
   1.498113e+02  -4.835969e+02
   3.428915e+02  -5.339549e+01
   3.100538e+02   4.909856e+02
  -7.471815e+01   5.920708e+02
  -3.938596e+02   2.892603e+02
  -3.526179e+02  -1.134194e+02
  -1.471327e+02  -3.325078e+02
   6.273057e+01  -2.343399e+02
   2.844524e+01  -7.575011e+01
  -1.769884e+02  -1.115269e+02
  -2.390733e+02  -2.268899e+02
   5.074330e+01  -3.243743e+02
   4.575749e+02  -1.108548e+02
   5.222884e+02   1.212881e+02
   1.499293e+02   3.317923e+02
  -3.021446e+02   1.571110e+02
  -4.687196e+02  -2.208170e+02
  -1.353594e+02  -3.212122e+02
   2.155860e+02  -3.413236e+02
   3.879573e+02  -1.317585e+02
   2.744942e+02   1.932275e+02
   4.150275e+01   2.854535e+02
   2.118363e+01   1.391270e+02
   2.576468e+01  -7.963064e+01
   1.753393e+02  -1.213342e+02
   1.637408e+02   1.562997e+02
  -1.756474e+01   4.999596e+02
  -2.677936e+02   4.117686e+02
  -2.907734e+02   6.458288e+00
  -8.129199e+01  -2.313345e+02
   1.334188e+02  -8.875480e+01
   1.201666e+02   2.196584e+02
  -9.285227e+01   3.572412e+02
  -4.336093e+02   8.931585e+00
  -3.732352e+02  -3.709047e+02
  -1.208592e+02  -4.123777e+02
   2.654011e+02  -2.233907e+02
   4.194877e+02  -1.819747e-01
   3.106500e+02   1.933875e+02
  -6.364146e+01   1.638843e+02
  -2.760367e+02   8.542001e+01
  -1.392687e+02   2.066190e+01
   2.891906e+01  -7.276668e+00
  -8.196983e+00   9.254299e+01
  -7.035879e+01   5.835063e+01
  -1.788848e+02  -3.969785e+01
  -8.287225e+01  -1.778386e+02
   1.992079e+02  -2.118690e+02
   2.992029e+02  -1.184518e+02
   2.766573e+02   8.517605e+01
   3.104473e+01   2.994914e+02
  -2.572096e+02   3.626910e+02
  -3.882206e+02   1.955030e+02
  -2.485298e+02  -1.443844e+02
  -4.500221e+01  -3.391468e+02
   2.892225e+01  -3.082734e+02
  -1.017670e+01  -1.772923e+02
   3.520796e+01  -1.067154e+02
   1.516307e+02  -1.042044e+02
   2.630523e+02  -2.625551e+01
   2.729258e+02   1.813443e+02
   8.075907e+01   2.164249e+02
  -8.220756e+01   2.008966e+02
  -1.899801e+02  -7.132906e+01
  -9.743386e+01  -2.801336e+02
   6.294620e+01  -2.329667e+02
   2.182596e+02  -4.133444e+01
   2.902518e+02   1.637337e+02
   1.638204e+02   2.548475e+02
  -4.726512e+01   2.336911e+02
  -1.011846e+02   1.796081e+02
  -1.342777e+02   9.396359e+01
  -1.281776e+02   5.307288e+01
  -2.743986e+02   1.698661e+01
  -3.859727e+02  -7.423291e+01
  -3.618859e+02  -3.075107e+02
   1.821340e+01  -3.820792e+02
   3.592893e+02  -3.758709e+02
   4.053476e+02  -1.618640e+02
   2.098442e+02   1.014030e+02
   3.816601e+00   2.476967e+02
  -7.995351e+01   1.944256e+02
   3.324821e+01   5.166247e+01
   1.570865e+02   1.505789e+01
   1.428746e+02   5.010162e+01
  -1.869155e+01   1.632184e+02
  -1.131276e+02   1.174939e+02
  -1.257265e+02  -3.403253e+01
   4.236507e+01  -9.227096e+01
   1.621116e+02  -1.606509e+01
   1.684768e+02   1.911684e+02
  -1.194040e+01   2.986080e+02
  -2.194512e+02   2.754242e+02
  -3.441843e+02  -1.850610e+00
  -2.452767e+02  -2.205972e+02
  -1.602703e+01  -2.713403e+02
   1.145174e+02  -1.160980e+02
   8.427552e+01  -4.270874e+00
   9.281351e-01  -6.590536e+00
  -4.731635e+01  -3.485845e+01
  -5.618991e+00  -1.444429e+02
   9.088331e+01  -5.686968e+01
   1.038941e+02   1.146736e+01
  -4.057733e+00   6.845468e+01
  -9.546743e+01  -1.706801e+01
  -2.059778e+01  -7.612190e+01
   1.372720e+02  -1.320345e+02
   2.862989e+02   5.511731e+01
   2.279195e+02   1.733896e+02
  -3.441896e+01   2.381914e+02
  -2.011268e+02   2.334402e+02
  -2.531601e+02   5.271234e+01
  -1.078336e+02  -3.402631e+01
   3.928693e+01  -3.648501e+01
   4.413886e+01  -4.643403e+00
  -1.539582e+01   9.163463e+01
  -2.068304e+02   3.264268e+01
  -1.661811e+02  -8.073438e+01
  -3.734232e+01  -1.882605e+02
   6.786300e+01  -1.075664e+02
   8.870203e+01  -8.771524e+00
   1.683383e+01   5.917777e+01
  -3.045016e+01   3.022133e-01
  -3.215788e+01  -1.108617e+02
   5.291741e+01  -1.592351e+02
   2.408795e+02  -2.770838e+01
   2.514669e+02   1.149196e+02
   3.493125e+01   1.787116e+02
  -1.402637e+02   1.440325e+02
  -1.299451e+02   1.096918e+01
  -1.006478e+02  -8.985176e+01
   2.738961e+01  -7.033329e+01
   6.793202e+01   1.278912e+00
   2.150759e+01   5.261473e+01
   1.016205e+01   3.987812e+01
   2.516883e+01  -2.573473e+01
   1.241166e+02   3.046254e+00
   1.169946e+02   7.866768e+01
   2.676561e+01   1.797160e+02
  -1.519889e+02   1.328392e+02
  -2.008328e+02   2.481727e+01
  -2.027183e+02  -1.782221e+02
  -3.115465e+01  -2.220403e+02
   6.505598e+01  -1.174183e+02
   1.239911e+02   4.994797e+00
   8.518558e+01   6.213267e+01
   1.660669e+01   1.875071e+01
   6.980787e+01  -9.347027e+00
   1.224116e+02  -2.727107e+01
   5.507407e+01   3.195270e+01
  -7.459501e+01   1.035007e+02
  -1.176109e+02   4.584570e+01
  -1.342429e+02  -7.033315e+01
  -1.349939e+01  -1.310890e+02
   1.317472e+02  -1.253149e+02
   2.025899e+02   5.064229e+01
   8.331939e+01   2.231854e+02
  -8.883301e+01   2.444997e+02
  -2.189706e+02   5.371673e+01
  -2.244505e+02  -8.560623e+01
  -7.841097e+01  -1.496199e+02
   3.639289e+01  -1.590073e+02
   1.033069e+02  -8.987905e+01
   8.540330e+01  -7.872151e+01
   6.416816e+01  -9.412741e+01
   8.586400e+01  -7.168459e+01
   9.170117e+01   2.539744e+01
   1.002811e+02   1.659258e+02
   1.390757e+00   1.731689e+02
  -1.394245e+02   1.845340e+02
  -1.469737e+02   2.716283e+01
  -8.022842e+01  -1.304636e+02
  -2.553221e+00  -1.964987e+02
   1.029986e+02  -1.097710e+02
   3.423850e+01  -2.195234e+01
  -5.268092e+00   5.669821e+01
  -1.123032e+00   3.295763e+01
   4.496481e+01  -2.042934e+00
   8.478508e+01   2.042373e+01
   4.175301e+01   8.189652e+00
  -4.021990e+01   3.473889e+01
  -1.097534e+02   2.261630e+01
  -9.868027e+01  -3.354197e+01
   2.122705e+00  -1.001785e+02
   1.567211e+02  -6.532103e+01
   1.587192e+02   2.203000e+01
   3.495272e+01   6.883360e+01
  -6.947618e+01   6.618662e+01
  -4.681819e+01   6.197064e+00
  -1.018753e+01  -9.273362e+01
   6.554843e+01  -3.281044e+01
   7.901419e+01   3.486975e+01
   2.778016e+01   6.487997e+01
   2.274248e+01   6.345295e+01
   7.820794e+01   7.435295e-01
   3.230755e+01  -5.448569e+01
   3.963363e+01   2.456813e+01
  -3.271817e+01   1.519152e+02
  -1.201567e+02   1.731752e+02
  -1.521528e+02   2.446389e+01
  -1.447766e+02  -1.053009e+02
  -1.758579e+01  -9.195161e+01
   1.346993e+02  -9.710874e+01
   5.964330e+01   4.860160e+01
  -6.085854e+01   3.077217e+01
  -1.382589e+02  -2.187881e+01
  -4.930972e+01  -1.388262e+02
   6.517969e+01  -1.133017e+02
   2.318786e+02  -7.726176e+01
   1.472342e+02   3.728941e+01
   3.386995e+01   6.486894e+01
  -7.439304e+01   1.894281e+01
  -3.288680e+01   7.440732e+00
   3.665936e+01  -2.742672e+01
   8.992770e+01   2.059021e+01
   5.969916e+01   1.134999e+02
  -5.508609e+01   1.595936e+02
  -1.495553e+02   8.526757e+01
  -1.197548e+02  -7.825153e+01
  -4.052779e+01  -1.692784e+02
   8.528479e+01  -1.206758e+02
   1.295109e+02  -1.769550e+01
   4.825754e+01   1.254779e+02
  -9.503850e+00   8.049563e+01
  -2.988067e+01   1.385945e+01
  -4.467142e+01  -4.332668e+01
  -1.415381e+01  -4.408669e+00
   2.501199e+01   1.429831e+01
  -4.102719e+01  -2.659013e+01
  -1.062724e+02  -8.421163e+01
  -2.376505e+01  -9.566120e+01
   9.420282e+01  -3.918251e+00
   1.200454e+02   4.362523e+01
   1.241761e+02   6.729066e+01
  -2.825381e+01   4.714906e+01
  -6.518762e+01   1.480854e+01
  -5.286811e+01  -1.410197e+01
  -2.242223e+01   2.047062e+01
   4.102518e+01  -6.890722e+01
  -4.297523e+00  -1.082496e+01
   1.895412e+00   1.344301e+01
  -9.411906e+00   1.590168e+01
   5.503204e+01  -2.094487e+01
   1.140301e+02   1.932593e+01
   2.846820e+01   6.913411e+01
  -1.335399e+02   1.369106e+02
  -1.604102e+02   7.843543e+01
  -1.330349e+02  -2.110888e+01
  -3.590489e+01  -1.141488e+02
   1.523491e+01  -1.341343e+02
   1.044340e+02  -7.023613e+01
   1.003067e+02   7.412322e+00
   3.813150e+01   3.270188e+01
   2.084428e+01  -8.628098e+00
   6.200790e+00   7.175283e+00
   1.092736e+01   6.357001e+01
  -8.907988e+00   6.297855e+01
  -2.308588e+01   3.656517e+01
  -1.091365e+02   2.458855e+01
  -5.468846e+01  -8.524201e+01
   1.620879e+01  -1.155828e+02
   6.008167e+01  -7.058838e+01
   9.190679e+01   4.986512e+01
   9.415394e+01   8.625253e+01
  -4.933019e+01   5.473249e+01
  -1.163020e+02  -2.676807e+01
   8.305563e-01  -6.917813e+01
   7.158985e+01  -2.570680e+01
   4.707495e+01  -7.955548e+00
  -1.344582e+01   3.222687e+00
  -1.044167e+01   3.334098e+01
  -7.288670e+01  -4.518385e+01
   1.173935e+02  -7.221666e+01
   1.056206e+02  -6.223779e+01
   1.065578e+02   1.923073e+01
   5.184705e-01   8.325494e+01
  -7.075532e+01   7.532992e+01
  -4.281914e+01  -1.988666e+01
   2.163819e+01  -4.845376e+01
   4.326258e+01   4.925839e+00
   1.689048e+01   1.657750e+01
   3.095871e+01   5.662217e+01
   2.494786e+01   3.294222e+01
  -3.623324e+01   3.266772e+01
  -1.260145e+01  -1.009743e+01
  -5.507299e+01  -4.314810e+00
  -1.870978e+01   3.182779e+01
   2.779153e+01   6.396436e+00
   3.473226e+01  -2.073209e+01
   3.235032e+01  -6.011396e+01
   5.468395e+01  -3.501176e+01
   2.481933e+01   5.061761e+01
  -2.348808e+01   3.930881e+01
  -6.003713e+01   3.957783e+01
  -3.420108e+01  -7.839404e+00
   2.737479e+00  -4.513472e+01
   1.936416e+01  -3.094813e+01
   9.321636e+01   7.406701e+00
   3.295797e+01   5.400652e+01
  -5.054497e+01   3.918553e+01
  -8.590729e+01  -2.166543e+01
  -1.887285e+01   3.432228e+01
   2.995839e+01  -2.860373e+01
   3.814001e+01   1.787513e+01
  -1.024691e+01   1.545426e+01
  -8.585284e+01   7.980357e+00
