
 $NMID
 id='ANONYMOUS ', fmtdat='(2E16.6)'
 volume=1.0
 tramp=1.0
 $END
   4.648203e+03  -3.778687e+01
   2.531420e+03   2.585657e+03
  -8.906271e+02   2.955982e+03
  -1.905998e+03   7.852903e+02
  -9.432659e+02  -7.893433e+02
   7.939084e+02  -6.413078e+02
   9.790176e+02   4.578194e+02
  -9.848523e+00   1.262361e+03
  -8.925741e+02   8.607233e+02
  -1.002240e+03  -1.166758e+02
  -4.770721e+02  -8.801887e+02
   2.855082e+02  -9.452054e+02
   7.093928e+02  -2.384897e+02
   4.153134e+02   7.583756e+02
  -2.891045e+02   7.774719e+02
  -6.775948e+02  -6.895942e+00
  -2.922969e+02  -7.708211e+02
   3.297399e+02  -7.120160e+02
   6.441360e+02  -1.093450e+02
   4.439618e+02   3.958872e+02
   1.985084e+01   4.366493e+02
  -2.322108e+02   2.566910e+02
  -2.308646e+02   6.476868e+01
   1.358860e+02  -1.054155e+02
   4.573779e+02   9.633105e+01
   2.402371e+02   4.801680e+02
  -4.838765e+02   4.973165e+02
  -9.468156e+02   5.323172e+00
  -5.717242e+02  -5.746748e+02
   3.159810e+02  -5.706593e+02
   8.395143e+02  -5.863611e+00
   4.151786e+02   4.688409e+02
  -2.451011e+02   5.449061e+02
  -6.160403e+02   1.897483e+02
  -4.004867e+02  -2.427631e+02
  -5.477219e+01  -5.422089e+02
   2.279741e+02  -3.266366e+02
   2.388874e+02   2.292155e+02
  -1.110344e+02   4.595191e+02
  -5.090659e+02   3.458270e+00
  -3.281474e+02  -6.527537e+02
   2.954615e+02  -7.408017e+02
   6.124338e+02  -9.119389e+00
   3.746747e+02   5.863133e+02
  -3.312695e+02   3.912407e+02
  -4.525166e+02  -3.147236e+02
   1.187479e+01  -5.904724e+02
   5.770479e+02  -1.964500e+02
   6.034338e+02   4.417260e+02
   2.268553e+02   6.129444e+02
  -3.650349e+02   4.334701e+02
  -6.396088e+02  -4.202825e+01
  -3.722551e+02  -4.208317e+02
   1.518450e+02  -3.973154e+02
   4.755521e+02  -1.096564e+02
   2.129862e+02   1.921354e+02
  -1.177791e+02   1.329767e+02
  -2.173418e+02  -1.636493e+02
   2.176978e+02  -1.667411e+02
   3.573123e+02   5.512906e+01
   1.523995e+02   3.098250e+02
  -1.926928e+02   2.732360e+02
  -3.661390e+02   7.693946e+01
  -1.912563e+02  -4.328567e+01
   4.689071e+01  -1.545558e+02
   1.945262e+02  -3.758722e+02
   2.899748e+02  -2.862805e+02
   2.946895e+02   1.456445e+02
   1.130585e+02   4.384736e+02
  -8.085603e+01   4.380910e+02
  -1.210160e+02   1.144536e+02
  -2.345821e+01  -3.866224e+01
  -3.487846e+01   6.067178e+01
  -1.474715e+02   1.788135e+02
  -2.217894e+02  -1.478575e+01
  -1.983118e+02  -2.509489e+02
   3.044382e+01  -2.724052e+02
   2.460325e+02   3.368634e+01
   2.275387e+02   1.633475e+02
  -3.885365e+01   2.490155e+02
  -2.346471e+02   1.100163e+02
  -3.380259e+02  -1.577439e+02
  -1.922144e+02  -3.522455e+02
   4.450668e+01  -3.352851e+02
   2.287990e+02  -1.563255e+02
   1.577942e+02  -5.275093e+01
   6.921132e+01  -4.610520e+01
   2.451524e+02  -6.499433e+01
   4.528959e+02   2.820769e+01
   3.336035e+02   3.017291e+02
   6.260488e+00   4.639045e+02
  -3.689037e+02   4.392711e+02
  -4.618007e+02   2.106248e+02
  -3.345642e+02  -8.407084e+01
  -9.983228e+01  -2.806318e+02
   1.255204e+02  -2.873631e+02
   7.266432e+01  -3.372557e+01
  -1.134937e+02   1.081075e+02
  -1.990619e+02   3.613225e+01
  -1.010011e+02  -2.438445e+02
   1.703824e+02  -2.513952e+02
   2.147360e+02   3.138957e+01
   1.353360e+01   2.278211e+02
  -1.815156e+02   2.232252e+01
  -1.687212e+02  -2.985899e+02
   3.107745e+00  -3.704194e+02
   2.034246e+02  -2.034280e+02
   3.263478e+02   1.376409e+01
   2.298625e+02   2.234830e+02
   1.515049e+02   2.480774e+02
  -7.158545e+01   1.555002e+02
  -1.786197e+02   8.003998e+01
  -8.521994e+01  -2.147810e+01
   5.649483e+01   5.367945e+01
   3.649168e+01   1.362484e+02
  -1.139958e+02   1.543406e+02
  -1.948376e+02   2.631625e+01
  -4.558025e+01  -8.006502e+01
   6.673322e+01   6.319445e+00
   3.286140e+01   2.720787e+01
  -1.803143e+02   1.376891e+02
  -2.800624e+02   2.845105e+01
  -2.457249e+02  -1.088273e+02
  -1.017689e+02  -2.736693e+02
   1.571900e+02  -2.459970e+02
   3.150068e+02  -1.931654e+02
   1.112992e+02   3.172425e+01
  -1.390528e+01   1.045625e+02
  -1.308779e+02  -1.039054e+01
   1.972608e+01  -1.216423e+02
   2.172978e+02  -6.079966e+01
   2.238668e+02   1.012502e+02
   9.781527e+01   2.414974e+02
  -2.904342e+01   1.928227e+02
  -1.276600e+02   1.617465e+01
  -1.038425e+02  -1.479028e+01
   1.626853e+01   1.719858e+01
  -6.002209e+00   1.177969e+02
  -4.249395e+01   1.374640e+02
  -1.957894e+02  -1.705271e+01
  -1.763662e+02  -1.303044e+02
  -2.691155e+01  -2.329776e+02
   1.434850e+02  -1.409407e+02
   1.540029e+02  -3.984438e+01
   4.854809e+01   9.554915e+01
  -8.185110e+01   8.722628e+01
  -6.236336e+01   4.310477e+01
  -9.877216e+00  -2.948578e-03
   4.029968e+01  -1.605896e+01
  -4.687376e+01   3.188209e+00
  -4.163941e+01  -1.049818e+01
  -3.336787e+01  -6.117105e+01
  -4.326378e+01  -1.641800e+02
   1.102037e+02  -1.557210e+02
   1.884180e+02   2.453262e-01
   1.408924e+02   1.379471e+02
   6.059126e+01   2.561676e+02
  -1.378363e+02   1.931543e+02
  -1.286390e+02   2.339278e+00
  -6.103808e+01  -3.639292e+01
  -4.052120e+01   1.472681e+01
  -8.759863e+01   2.838182e+00
  -1.064516e+02   3.108163e+01
  -7.577715e+01  -8.565803e+01
   4.415542e+01  -1.129624e+02
   6.510515e+01  -8.298158e+01
   1.166434e+02   1.497455e+00
  -6.287553e+00   1.008443e+02
  -1.678087e+02   1.208667e+02
  -1.955965e+02  -1.417789e+01
  -1.432594e+02  -1.866294e+02
   6.462382e+01  -2.406927e+02
   2.572665e+02  -1.252431e+02
   2.664829e+02   5.180686e+01
   9.795026e+01   1.368484e+02
  -5.722579e+01   1.247979e+02
  -6.665013e+01   8.609085e+01
  -2.188922e+01   2.967625e+01
  -7.010676e+01   1.076617e+02
  -1.016652e+02   9.239867e+01
  -1.399621e+02  -1.631751e+01
  -1.145485e+02  -1.911739e+02
  -5.377472e+01  -1.928624e+02
   9.441562e+01  -1.647136e+02
   1.815180e+02  -4.373449e+01
   1.148340e+02   9.714526e+01
   1.485653e+01   1.570066e+02
  -9.200012e+01   1.194016e+02
  -8.547735e+00   1.425505e+01
   4.927819e+00  -4.486231e+01
   9.681767e+00  -6.221095e+01
  -2.254737e+01  -2.396078e+01
  -1.001310e+02   1.286361e+00
  -6.577805e+01  -8.137899e+00
   7.328791e+01  -2.008332e+01
   1.660322e+02   1.569940e+01
   9.076312e+01   3.792941e+01
  -6.397740e+00   8.755608e+01
  -9.144753e+01   8.335966e+01
  -1.743233e+02   2.274695e+01
  -3.562638e+01  -5.755355e+01
   7.774400e+01  -7.270307e+01
   1.036344e+02   1.973830e+01
   2.850500e+01   6.402080e+01
  -1.108403e+01   4.113622e+01
  -5.314576e+01  -8.453158e+00
  -7.711908e+01  -6.711338e+01
  -4.631051e+01  -6.618744e+00
  -4.859076e+01  -8.500790e+00
  -6.402671e+01   1.096953e+01
  -1.674772e+01  -4.324292e+01
  -1.954703e+01  -1.944752e+02
   1.072037e+02  -1.656770e+02
   2.008468e+02  -5.017193e+01
   1.032328e+02   1.391525e+02
   1.105835e+01   1.463706e+02
  -1.049086e+02   8.928083e+01
  -8.111962e+01  -4.411462e+01
   5.514606e+01  -4.180768e+01
   1.689742e+02   7.777648e+01
   1.169885e+02   1.396230e+02
  -1.069566e+02   1.413663e+02
  -1.981406e+02   7.820668e+01
  -2.069366e+02  -1.703103e+01
  -6.740240e+01  -4.614659e+01
   5.445281e+01  -9.173097e+01
   1.835789e+01  -1.196082e+01
  -5.649275e+01   7.451437e+00
  -7.856547e+01  -4.476899e+01
  -2.387694e+01  -1.578794e+02
   7.001101e+01  -1.614600e+02
   1.967979e+02  -4.755629e+01
   1.272865e+02   1.213333e+02
   2.108085e+01   2.222601e+02
  -7.002884e+01   1.220542e+02
  -1.325472e+02   4.781834e+01
  -8.560848e+01  -1.141750e+02
  -3.692914e+01  -1.160913e+02
   4.531473e+01  -1.430788e+01
   4.105765e+01   3.979949e+01
   6.068185e+00  -2.131592e+01
  -2.552370e+01  -2.810544e+01
   5.552516e+01   1.570504e+01
   3.858119e+01   3.413704e+01
   3.203013e+01   9.076398e+01
  -2.846232e+01   5.178953e+01
  -1.410295e+02  -1.687700e+00
  -1.034805e+02  -6.406553e+01
  -3.792414e+01  -8.523696e+01
   8.042640e+01   6.145902e+00
   7.349634e+01  -3.811905e+01
  -1.546915e+01  -6.648011e+00
  -2.869846e+01   1.691818e+01
  -2.230737e+01   2.450857e+01
   3.220942e+01   4.051742e+00
   1.334943e+01  -7.830434e+00
  -9.927048e+01   2.919305e+01
  -7.076983e+01  -1.213481e+01
  -6.383041e+00  -6.981854e+01
   1.279746e+02  -8.104199e+01
   1.866702e+02  -9.132326e+01
   1.399021e+02   4.097634e+01
   3.856307e+01   1.228228e+02
  -4.558537e+01   1.475032e+02
  -1.629439e+02   9.165848e+01
  -8.533950e+01  -4.438221e+01
  -8.890067e+01  -3.332919e+01
   3.174266e+01  -3.868226e+01
   3.239854e+00  -2.221713e+01
  -4.362209e+01  -3.215914e+01
   1.188568e+01  -5.364039e+01
   2.475243e+01  -9.393818e+01
   8.521849e+01  -1.518297e+01
   7.982496e+01   5.933855e+01
   2.510738e+01   1.148065e+02
  -4.413847e+01   2.280285e+01
  -8.210681e+01  -4.373213e+01
  -5.419805e+01  -7.628999e+01
   7.232862e+01  -5.555143e+01
   9.558232e+01   2.629031e+00
   2.568709e+01   3.918822e+01
  -4.479840e+01   4.741312e+01
   9.048321e+00   4.569017e+01
   7.332260e+01  -5.249357e+00
   7.483333e+01  -5.640201e+00
  -1.177138e+01  -2.242233e+01
  -1.224308e+02   3.847599e+01
  -8.706967e+01   4.842520e+01
  -6.541348e+01  -1.555749e+01
   4.178177e+01  -5.021526e+01
   5.363258e+01  -8.298141e+01
  -9.775090e+00  -6.097292e-01
   3.007863e+01   5.964491e+01
   1.489146e+01   4.517807e+00
  -4.208987e+01  -2.624959e+01
  -3.151933e+01  -3.362788e+01
   1.108817e+01  -4.732326e+00
  -4.450554e+00  -1.793855e+01
   3.785099e+01   2.841075e+01
  -1.870361e+00  -2.022164e+01
   7.331247e+00   1.478059e+01
   9.088159e+00   1.316777e+01
   3.739877e+00   1.547955e+01
  -7.536055e+00   4.282634e+01
  -2.621560e+01   2.837376e+01
  -2.568689e+01  -7.560146e+01
   6.396454e+01  -4.402085e+01
   5.996778e+01  -2.175600e+01
   2.580023e+01   2.773036e+01
   1.790792e+01   9.443616e+01
  -5.269806e+01   2.028319e+01
  -1.235458e+02   2.256600e+01
  -2.905451e+01  -5.783581e+01
   1.571825e+01  -2.049959e+01
   7.819616e+01   3.074788e+01
   5.374065e+01   3.359443e+01
  -2.592790e+01   2.392368e+01
  -1.805049e+01  -5.890660e+01
   1.981083e+01  -5.847539e+01
   8.084314e+01  -1.516515e+01
