
 $NMID
 id='ANONYMOUS ', fmtdat='(2E16.6)'
 volume=1.0
 tramp=1.0
 $END
   3.658367e+03   4.829126e+01
   2.108011e+03   1.581404e+03
   1.052046e+02   1.925696e+03
  -1.378976e+03   1.058058e+03
  -7.600623e+02   1.239041e+02
   1.585715e+02  -2.419508e+02
   4.226526e+02   1.256995e+02
   1.833675e+01   6.434350e+02
  -5.792352e+02   5.593780e+02
  -6.715677e+02   2.063701e+01
  -4.163061e+02  -5.173986e+02
   4.751778e+01  -6.323779e+02
   3.209655e+02  -1.877150e+02
   2.917659e+02   4.890612e+02
  -1.804704e+02   5.095427e+02
  -4.400227e+02   4.808581e+01
  -2.602210e+02  -4.419527e+02
   1.272824e+02  -5.964483e+02
   4.587996e+02  -2.972098e+02
   4.640485e+02   2.172798e+02
   1.000933e+02   3.315301e+02
  -1.059014e+02   2.602183e+02
  -9.194786e+01   5.050935e+01
   1.726507e+02   5.854011e+01
   2.601946e+02   2.057378e+02
  -1.204633e+01   3.166730e+02
  -4.435204e+02   1.768298e+02
  -6.769751e+02  -1.721225e+02
  -2.512804e+02  -3.947099e+02
   3.291289e+02  -1.688900e+02
   5.016192e+02   1.466296e+02
   2.054907e+02   3.857304e+02
  -2.207514e+02   3.246580e+02
  -4.156857e+02   1.366880e+02
  -2.581170e+02  -1.718901e+02
  -1.067705e+02  -3.160809e+02
  -1.150997e+01  -2.481197e+02
  -3.820492e+01   9.952127e+01
  -1.217806e+02   2.039814e+02
  -2.262941e+02  -1.248685e+02
  -1.291799e+01  -5.039856e+02
   2.589342e+02  -4.535175e+02
   3.934215e+02  -4.502101e+00
   1.764084e+02   3.825937e+02
  -1.623331e+02   2.103625e+02
  -1.987130e+02  -2.457693e+02
   1.319994e+02  -4.365753e+02
   4.041167e+02  -6.494855e+01
   4.538169e+02   3.416885e+02
   1.330528e+02   4.509161e+02
  -2.528123e+02   2.741549e+02
  -4.875812e+02  -8.960088e+01
  -3.026369e+02  -2.519757e+02
   6.198082e+01  -2.386400e+02
   3.073831e+02  -8.534933e+01
   1.585164e+02   6.979485e+01
  -2.499032e+01   4.051469e+01
  -9.735461e+01  -6.284066e+01
   8.124123e+01  -1.010852e+02
   2.626184e+02   5.362230e+01
   7.929489e+01   1.831058e+02
  -1.425417e+02   1.908664e+02
  -3.005803e+02   1.189025e+02
  -2.095879e+02  -9.717534e+01
   3.195872e+01  -3.008991e+02
   3.038511e+02  -2.997424e+02
   3.466317e+02  -1.185263e+02
   2.135751e+02   1.725319e+02
   8.702962e+01   3.057751e+02
  -1.072836e+01   2.017644e+02
  -1.121010e+01   1.884212e+02
  -2.472724e+01   1.068681e+02
  -1.333719e+02   1.146838e+02
  -2.093429e+02   8.074842e+01
  -2.493318e+02  -1.050633e+02
  -6.787578e+01  -2.262111e+02
   1.316178e+02  -1.813418e+02
   1.723224e+02   4.108890e+01
   8.955263e+01   2.130185e+02
  -4.184468e+01   2.022939e+02
  -2.536136e+02   4.958665e+01
  -2.887397e+02  -1.826219e+02
  -1.203628e+02  -2.621314e+02
   7.394640e+01  -2.985142e+02
   1.683269e+02  -1.496180e+02
   1.365131e+02  -2.538332e+01
   1.719020e+02  -4.822133e+01
   3.189596e+02   2.590310e+01
   3.599133e+02   9.936834e+01
   2.940080e+02   2.620011e+02
  -5.749173e+01   4.125777e+02
  -3.257017e+02   3.812031e+02
  -5.361219e+02   2.046761e+02
  -2.261661e+02  -1.151921e+02
  -2.679059e+01  -3.085430e+02
   1.129104e+02  -1.488905e+02
   5.819954e+01  -4.384130e+01
  -1.140749e+02   3.340647e+01
  -1.185780e+02  -4.485238e+01
  -1.010298e+01  -2.004612e+02
   1.107589e+02  -9.524974e+01
   1.331455e+02   4.337967e+01
  -3.145952e+01   1.565146e+02
  -1.211077e+02  -1.227471e+01
  -1.022669e+02  -2.038779e+02
   1.116947e+01  -3.597133e+02
   2.347159e+02  -1.846603e+02
   3.229123e+02   6.404134e+01
   2.502496e+02   2.042929e+02
   3.202690e+01   3.036063e+02
  -1.332394e+02   1.651199e+02
  -1.462754e+02   1.214809e+01
  -5.774574e+01  -4.721822e+01
   1.850134e+01   8.242679e+01
  -6.292634e+00   1.060927e+02
  -1.336671e+02   4.334623e+01
  -1.537630e+02  -3.699488e+01
  -2.474280e+01  -3.886275e+01
   4.749000e+01  -1.842415e+01
   5.213065e+01   1.144509e+02
  -9.846233e+01   1.053063e+02
  -2.314740e+02  -5.632214e+01
  -2.366956e+02  -1.845215e+02
   1.491967e+00  -2.077377e+02
   2.353280e+02  -2.442378e+02
   2.358211e+02  -1.403534e+02
   1.393068e+02   6.024914e+01
   2.269136e+01   9.386172e+01
  -3.516403e+01   9.464236e+00
   7.112398e+01  -5.537469e+01
   1.655919e+02   4.244854e-02
   1.566295e+02   1.335936e+02
   5.237097e+01   1.791247e+02
  -8.550216e+01   1.288083e+02
  -1.397101e+02   7.076711e-01
  -2.381905e+01  -2.723477e+01
   4.423541e+01   2.935633e+01
   1.761869e+01   1.012915e+02
  -1.044987e+02   1.013026e+02
  -1.956076e+02   3.459950e+00
  -1.701191e+02  -1.663192e+02
  -1.788518e+01  -2.003119e+02
   1.477068e+02  -1.239192e+02
   1.680633e+02   2.121002e+01
   2.507001e+01   1.060133e+02
  -5.714071e+01   1.257950e+02
  -1.163744e+01   3.218089e+01
  -1.206217e+01  -1.372784e+01
   3.572410e+01  -3.554478e+01
  -2.091491e+01   9.749313e+00
  -7.478334e+01  -6.839383e-01
  -1.006260e+02  -1.096795e+02
  -1.038940e+01  -1.290212e+02
   8.219547e+01  -1.135057e+02
   2.352715e+02   5.908812e+00
   1.198006e+02   1.133659e+02
   9.048140e+00   2.439208e+02
  -1.016472e+02   1.413202e+02
  -1.260819e+02   3.678299e+01
  -7.779987e+01  -3.164661e+01
  -3.454671e+01  -4.177309e+01
  -5.886958e+01   3.624370e+01
  -8.615116e+01   1.814703e+01
  -4.996810e+01   3.606303e+00
   8.714395e+01  -8.195290e+01
   1.117015e+02  -4.323529e+01
   2.565044e+01   4.121183e+01
  -5.145472e+00   1.206633e+02
  -1.439043e+02   7.509025e+01
  -1.691967e+02  -7.683040e+01
  -7.613756e+01  -1.971243e+02
   1.186582e+02  -2.344406e+02
   2.779480e+02  -4.662951e+01
   2.522756e+02   9.529707e+01
   9.096374e+01   1.876850e+02
  -2.851252e+01   9.280353e+01
  -1.060061e+02   8.273555e+01
  -1.074531e+02   4.232402e+01
  -5.776769e+01   9.155360e+01
  -7.588822e+01   5.247114e+01
  -1.217268e+02  -1.071358e+01
  -1.234210e+02  -1.734778e+02
   4.705396e+01  -2.339898e+02
   1.004537e+02  -1.778177e+02
   1.953816e+02  -2.474141e+01
   9.574027e+01   1.617684e+02
   7.642480e+00   1.504497e+02
  -8.500565e+01   7.660629e+01
  -1.866153e+01  -2.662288e+01
  -7.595517e+00  -7.778684e+01
   3.261192e+01  -1.409763e+00
  -1.125498e+01  -2.568892e+01
  -8.725276e+01  -1.402012e+01
  -8.943433e+00  -4.865818e+01
   1.143448e+02  -1.350531e+01
   1.949600e+02   8.497044e+00
   8.602041e+01   6.006578e+01
   4.754446e+01   1.022639e+02
  -1.678349e+02   1.351695e+01
  -1.299311e+02  -2.461663e+01
  -3.521029e+01  -3.015172e+01
   5.807922e+01  -5.169128e+01
   1.152324e+02   1.669925e+01
   2.905379e+01   8.017704e+01
  -5.258377e+01   8.567962e+01
  -7.845153e+01   1.020375e+01
  -3.659472e+01  -6.456145e+01
  -6.880619e+01  -7.424089e+01
  -8.407596e+01   4.386030e+01
  -4.609617e+01  -4.221883e+01
  -1.421042e+01  -1.038754e+02
   3.723720e+01  -1.533617e+02
   1.099139e+02  -1.085921e+02
   1.581615e+02  -1.458258e+01
   9.723304e+01   8.348672e+01
   3.138942e+01   9.584152e+01
  -8.618733e+01   1.066595e+02
  -3.559168e+01   1.117193e+01
   3.847635e+01  -5.073133e+00
   1.076103e+02   5.044604e+01
   3.520709e+01   7.566571e+01
  -8.958006e+01   1.084750e+02
  -1.344145e+02   2.174336e+01
  -1.231004e+02  -3.226952e+01
  -4.855209e+01  -6.068363e+01
   6.802145e+01  -7.395511e+01
   7.590129e+01  -2.503742e+01
  -1.629750e+01   4.696598e+01
  -8.872421e+01  -6.191428e+01
  -2.563258e+01  -1.171580e+02
   4.118703e+01  -1.145204e+02
   1.562706e+02  -5.712877e+01
   1.048829e+02   4.618866e+01
   3.695810e+01   1.403492e+02
  -7.593473e+01   1.125030e+02
  -6.336462e+01  -3.565063e+01
  -6.473685e+01  -9.559249e+01
  -9.988616e+00  -1.218419e+02
   5.200871e+01  -2.714942e+01
   4.756580e+01   5.609395e+00
   7.780724e-01   3.142711e+01
   1.001682e+01  -3.536472e+01
   5.437493e+01   3.428626e+01
   4.708423e+01   8.271001e+01
   4.726185e+01   1.083421e+02
  -5.527480e+01   3.668069e+01
  -1.243605e+02  -4.072030e+01
  -9.571717e+01  -5.824558e+01
  -6.349521e+01  -4.561633e+01
   6.783980e+01  -7.093818e+01
   1.138483e+02  -3.582438e+00
   9.743625e+00   2.702113e+01
   4.369950e+00   2.654606e+01
  -2.185346e+01  -1.400920e+01
   1.663042e+01   1.822317e+00
   3.203296e+01   1.683939e+01
  -4.882256e+01  -9.605345e+00
  -1.218177e+02  -3.534889e+00
  -1.132181e+01  -4.886765e+01
   9.402913e+01  -1.203846e+02
   1.762625e+02  -8.217753e+01
   1.641207e+02   5.869488e+01
   7.681027e+01   8.909513e+01
  -6.884833e+01   1.518145e+02
  -1.269277e+02   7.925704e+01
  -9.339401e+01  -1.303836e+01
  -2.074979e+01  -5.449502e+01
   1.823676e+01  -5.951824e+01
  -7.960219e+00  -3.907830e+01
  -2.999242e+01  -4.878188e+01
   1.060866e+01  -9.192277e+01
   2.631657e+01  -7.335487e+01
   8.731386e+01   1.171668e+01
   7.929266e+01   8.216068e+01
   2.160920e+01   1.149413e+02
  -6.781474e+01   1.984874e+01
  -9.109794e+01  -5.026878e+01
  -5.758115e+01  -1.083768e+02
   6.824819e+01  -4.209607e+01
   9.410581e+01   5.830396e+00
   3.836028e+01   3.268454e+01
  -3.202072e+01   8.092831e+01
  -1.565631e+01   6.253761e+01
   2.047863e+00  -4.321346e+01
   7.354175e+01  -2.701902e+01
   1.776929e+01   2.021296e+01
  -7.414899e+01   3.994841e+01
  -1.283947e+02   7.363125e+01
  -8.996491e+01  -6.123575e-01
  -1.952357e+00  -7.826327e+01
   7.306604e+01  -5.284226e+01
   7.227127e+01  -2.847456e+01
  -3.075897e+01   3.921863e+01
  -2.614233e+01   4.108235e+01
  -4.197174e+01  -2.545985e+00
  -4.250415e+01  -7.723968e+01
   1.492522e+01  -3.065151e+01
   2.811760e+01  -6.665797e+00
   4.128879e+01   1.802860e+01
   4.968817e+01   2.648988e+01
   2.147290e+01  -3.050626e+00
  -4.439386e+00  -4.151791e+01
  -1.668974e+01   3.041671e+01
   1.753221e+01   6.668361e+01
   1.204347e+01   3.446570e+01
  -9.223880e+00   8.082810e+00
  -1.873535e+01  -6.980634e+01
   4.146167e+01  -2.450151e+01
   8.228450e+01   6.184759e+00
   2.960863e+01   7.670037e+01
  -1.046676e+02   4.189499e+01
  -8.844965e+01  -2.321675e+01
  -9.424774e+01  -5.472214e+01
   4.382990e+00  -6.199506e+01
   3.934588e+01  -3.901439e+01
   3.586644e+01  -2.538487e+01
  -2.606315e+01  -3.692783e-01
  -2.536573e+01  -6.886747e+00
  -1.383690e+01  -3.303112e+01
   8.789479e+01  -6.109884e+01
