
 $NMID
 id='ANONYMOUS ', fmtdat='(2E16.6)'
 volume=1.0
 tramp=1.0
 $END
  -4.549113e+03  -6.196313e+02
  -1.851780e+03  -2.881050e+03
   1.324392e+03  -2.465709e+03
   2.270076e+03  -4.292880e+02
   8.298520e+02   7.133582e+02
  -7.646111e+02   5.553509e+02
  -8.897051e+02  -6.627784e+02
   1.631454e+02  -1.149995e+03
   9.901327e+02  -6.467148e+02
   8.976811e+02   2.069954e+02
   3.236117e+02   8.893894e+02
  -3.580855e+02   7.832483e+02
  -6.286004e+02   5.529685e+01
  -2.797469e+02  -7.253218e+02
   3.241231e+02  -7.586857e+02
   6.011073e+02   1.006471e+02
   1.780391e+02   7.078938e+02
  -4.847065e+02   5.918388e+02
  -6.295177e+02  -6.376735e+00
  -3.987406e+02  -4.743535e+02
   7.776027e+01  -4.118596e+02
   2.729705e+02  -2.098061e+02
   2.116045e+02   2.023585e+01
  -1.187469e+02   1.425447e+02
  -3.522261e+02  -1.011397e+02
  -1.833846e+02  -4.442434e+02
   5.316918e+02  -3.737373e+02
   8.297061e+02   1.323809e+02
   4.054783e+02   5.511395e+02
  -3.514629e+02   4.717839e+02
  -7.378312e+02  -9.253965e+01
  -2.848734e+02  -5.513849e+02
   3.623692e+02  -4.894753e+02
   5.933717e+02  -1.499641e+02
   3.549151e+02   3.026335e+02
   2.921737e+01   4.554532e+02
  -1.954468e+02   2.906862e+02
  -1.588584e+02  -1.917858e+02
   2.009407e+02  -4.111454e+02
   5.051322e+02   6.244969e+01
   1.996986e+02   7.089936e+02
  -4.129720e+02   6.572039e+02
  -6.107600e+02  -7.276260e+01
  -2.045093e+02  -5.559649e+02
   3.358811e+02  -2.828106e+02
   3.508739e+02   3.593548e+02
  -1.642923e+02   5.363871e+02
  -5.552867e+02   8.724883e+01
  -5.590426e+02  -4.542672e+02
  -8.509569e+01  -5.777365e+02
   4.668474e+02  -3.717812e+02
   5.859181e+02   8.836795e+01
   3.294329e+02   4.580372e+02
  -1.692736e+02   4.246297e+02
  -4.699780e+02   6.880108e+00
  -2.347327e+02  -2.399894e+02
   1.197176e+02  -1.030381e+02
   1.617000e+02   1.607982e+02
  -1.558895e+02   2.104932e+02
  -3.714529e+02  -9.857918e+01
  -1.401620e+02  -3.225119e+02
   2.351119e+02  -2.043948e+02
   3.919958e+02  -4.397170e+01
   1.825307e+02   1.207624e+02
  -5.337926e+01   1.874114e+02
  -2.422758e+02   2.698454e+02
  -3.667489e+02   1.691313e+02
  -2.636368e+02  -1.277005e+02
  -2.977849e+01  -4.250174e+02
   2.020494e+02  -3.706884e+02
   1.358647e+02  -1.009074e+02
   5.578868e+01   2.355510e+01
   4.346116e+01  -7.381637e+01
   1.664467e+02  -8.538287e+01
   2.856248e+02   1.129663e+02
   1.145526e+02   3.070514e+02
  -1.193941e+02   2.622005e+02
  -2.558206e+02  -3.426486e+01
  -2.094441e+02  -2.535218e+02
   4.532266e+01  -2.965703e+02
   2.848981e+02  -1.013965e+02
   3.331174e+02   2.643850e+02
   1.710360e+02   4.035632e+02
  -1.075934e+02   3.036527e+02
  -2.632796e+02   1.333101e+02
  -1.520617e+02  -4.771859e+01
  -7.964153e+01   1.152020e+01
  -2.378765e+02   1.348092e+01
  -3.852901e+02  -1.261500e+02
  -2.373069e+02  -3.014491e+02
   1.890477e+01  -3.488063e+02
   3.348677e+02  -3.630619e+02
   4.628039e+02  -1.273431e+02
   2.826639e+02   1.283763e+02
   3.686250e+01   3.243963e+02
  -1.592557e+02   2.553649e+02
  -7.258823e+01   4.819537e+01
   1.144743e+02  -1.363407e+02
   1.814453e+02  -3.198795e+00
   7.702808e+01   1.874318e+02
  -1.469916e+02   1.556181e+02
  -1.826626e+02  -3.093834e+01
   3.246022e+01  -1.854184e+02
   1.819106e+02  -2.250351e+00
   1.563210e+02   2.727817e+02
  -7.538155e+01   2.958620e+02
  -2.601670e+02   1.298109e+02
  -3.024730e+02  -9.374201e+01
  -2.393638e+02  -2.145420e+02
  -9.736948e+01  -2.699826e+02
   8.962805e+01  -1.347816e+02
   1.675508e+02  -5.551686e+01
   9.291477e+01   2.763898e+01
  -7.994986e+01  -2.395347e+01
  -2.403729e+01  -1.059580e+02
   1.375802e+02  -1.192124e+02
   1.638816e+02   4.191124e+01
   6.085680e+01   7.255883e+01
  -5.085742e+01   2.448117e+01
  -7.607634e+01  -5.054216e+01
   8.121082e+01  -5.058569e+01
   2.499063e+02   1.483632e+01
   2.667070e+02   1.592094e+02
   5.881058e+01   2.773781e+02
  -1.842219e+02   2.463596e+02
  -3.141762e+02   9.875645e+01
  -1.229771e+02  -6.491090e+01
   1.922130e+01  -1.213303e+02
   8.217875e+01   6.383339e+00
  -3.794667e+01   9.385686e+01
  -2.279876e+02   2.748185e+01
  -1.725308e+02  -1.136388e+02
  -1.109503e+01  -1.954872e+02
   1.030499e+02  -1.530307e+02
   1.592206e+02   9.523648e+00
   7.006664e+01   3.767808e+01
  -2.118768e+01   2.959106e+00
  -3.167791e+01  -9.767439e+01
   8.853876e+01  -7.187496e+01
   2.061149e+02  -1.170927e+01
   1.741902e+02   1.377120e+02
  -1.197115e+01   2.104697e+02
  -1.470962e+02   1.551053e+02
  -2.069633e+02  -1.969936e+01
  -1.050177e+02  -9.956549e+01
   7.785300e+01  -1.175272e+02
   8.617296e+01  -3.379021e+00
   5.244442e+01   3.168030e+01
  -2.492600e+01   3.494037e+01
   4.732423e+01  -7.529379e+01
   7.603770e+01   1.012711e+01
   7.387803e+01   6.283620e+01
  -2.093629e+01   1.168718e+02
  -1.280133e+02   1.075210e+02
  -2.332229e+02  -7.015589e+00
  -1.459334e+02  -1.776254e+02
  -1.166186e+01  -2.900604e+02
   1.218378e+02  -1.510615e+02
   1.564401e+02  -2.848267e+01
   5.427242e+01   1.058883e+02
   3.729597e+01   3.875840e+01
  -2.487402e+00   1.537826e+01
   5.260640e+01  -1.667182e+01
  -5.894948e+01   3.630868e+01
  -4.182512e+01   5.767772e+01
  -8.810008e+01  -9.875661e+00
  -7.117897e+01  -4.555375e+01
   1.845826e+01  -8.180303e+01
   1.640827e+02  -7.503888e+01
   1.804136e+02   5.826975e+01
   8.316790e+01   1.982711e+02
  -1.198007e+02   2.297336e+02
  -2.793448e+02   7.690576e+01
  -2.456623e+02  -1.089637e+02
  -1.025210e+02  -2.154448e+02
   1.073603e+02  -1.832747e+02
   6.492620e+01  -9.159445e+01
   8.048164e+01  -3.687658e+01
   1.007010e+02  -8.589008e+01
   8.867965e+01  -5.817237e+01
   1.293727e+02   3.511635e+01
   4.394295e+01   1.643176e+02
   3.369708e+01   2.020615e+02
  -6.206670e+01   1.225879e+02
  -1.166850e+02  -1.233182e+01
  -1.210330e+02  -1.188467e+02
   8.139300e+00  -1.407269e+02
   8.259687e+01  -5.971824e+01
   9.157829e+01  -4.158792e+00
   1.745969e+01   3.948383e+01
   3.876445e-01   6.639685e+00
   3.352011e+01   4.613105e+01
   6.602576e+01   3.102847e+01
   5.709419e+01   4.528760e+01
  -7.697025e+01   6.157472e+01
  -1.402814e+02  -5.208199e+01
  -5.821381e+01  -9.152599e+01
  -3.254846e+01  -1.046520e+02
   1.406455e+02  -4.860239e+01
   1.178227e+02  -2.250879e+01
   2.711243e+01   7.072686e+01
  -6.749679e+01   4.242153e+01
  -9.132660e+01  -3.980837e+01
  -1.664108e+01  -5.586060e+01
   8.614209e+01  -8.417700e+01
   6.099827e+01  -1.669898e+01
   7.811432e+01   6.105614e+01
   3.641135e+01   4.285759e+01
   5.853337e+01   2.658748e+01
   6.053024e+01   3.918317e+01
   2.543847e+01   6.173470e+01
  -5.268760e+01   1.318976e+02
  -9.577062e+01   1.486188e+02
  -1.503345e+02  -1.473010e+00
  -1.223231e+02  -1.482979e+02
   1.766209e+00  -1.179335e+02
   5.816154e+01   1.726564e+00
   6.875864e+01   1.429574e+01
  -4.054869e+01   9.073959e+00
  -1.475808e+02  -6.367713e+01
  -7.049189e+01  -1.359034e+02
   1.087630e+02  -6.205325e+01
   1.715769e+02  -6.867400e+01
   1.327460e+02   6.158222e+01
   4.485088e+01   8.723705e+01
  -8.903288e+01   3.719861e+01
  -3.554841e-01   1.377829e+01
   4.853187e+01  -8.232059e+01
   6.490306e+01   1.395661e+01
   6.427924e+01   1.353567e+02
  -9.813035e+01   1.399789e+02
  -1.748993e+02   3.245140e+01
  -9.237506e+01  -1.115132e+02
   1.966077e+01  -1.921990e+02
   1.264362e+02  -9.115309e+01
   1.524634e+02   6.139274e+01
   2.992971e+01   1.117475e+02
  -6.742970e+00   1.039904e+02
  -7.473923e+01  -1.703603e+01
  -7.803210e+01  -4.170528e+01
  -3.906483e+01  -3.545227e+01
  -7.537215e+00   6.882692e+01
  -1.500490e+01   1.073974e+01
  -5.655668e+01  -5.893525e+01
  -7.371197e+01  -1.095488e+02
   3.199390e+01  -3.071006e+01
   1.347939e+02   1.456283e+01
   1.011183e+02   9.374517e+01
   1.109152e+01   5.386524e+01
  -1.020955e+02  -5.940460e+00
  -7.756012e+01  -3.181636e+01
   1.689854e+01  -7.967241e-01
   3.243947e+01  -2.468479e+01
   2.756609e+01  -8.099267e+00
  -2.017019e+01   1.761659e+01
   1.512173e+01  -1.052254e+01
   7.021706e+01  -1.254944e+01
   6.897770e+01   3.651629e+01
  -1.398415e+01   8.578115e+01
  -9.298963e+01   1.064567e+02
  -1.752675e+02   2.523671e+01
  -1.265631e+02  -1.147787e+02
  -1.898468e+01  -1.565455e+02
   1.068668e+02  -1.471174e+02
   7.274904e+01  -2.638301e+01
   4.913442e+01   5.609621e+01
  -1.757839e+01   4.416679e+01
  -1.261576e+01  -1.438295e+01
  -6.166860e+00   1.405831e+01
  -8.634660e+00   6.395047e+01
   2.972670e+01   2.133644e+01
   5.311600e+00   3.012139e+01
  -7.301205e+01  -3.882340e+01
  -5.128223e+01  -1.430858e+02
   6.719101e+00  -7.378236e+01
   1.012635e+02  -5.576081e+01
   1.097831e+02   1.133764e+02
   1.979879e+01   9.242233e+01
  -6.326203e+01   2.648980e+01
  -1.394965e+02  -5.735029e+01
  -2.400131e+01  -6.018814e+01
   4.972929e+01  -1.956433e+01
   4.958353e+01  -2.449376e+01
  -3.034547e+01   1.936817e+01
  -7.110148e+01   2.431427e+01
  -1.313101e+01  -2.919441e+01
   1.162958e+02  -6.416236e+01
   8.213809e+01  -3.791504e+01
   4.742786e+01  -5.936708e+00
  -2.148032e+01   2.702660e+01
  -9.235004e+01   4.663317e+01
  -5.783163e+01  -3.064257e+00
  -1.492663e+00  -9.016568e+01
   2.639449e+01  -3.536835e+01
   6.645883e+01   2.727975e+01
   3.188008e+01   6.548264e+01
   5.854344e+00   6.176872e+01
  -4.508970e+01  -1.410169e+01
  -4.014061e+01  -2.219875e+01
  -5.929645e+00  -7.333164e-02
   1.578378e+01  -3.374361e+01
   2.125810e+01  -1.452334e+01
   4.408723e+01  -3.229268e+01
   2.189136e+01   8.623258e+00
   2.581958e+01  -2.258734e+01
   3.872854e+01   7.202596e+01
   1.519826e+00   5.926573e+01
  -6.086467e+01   4.099384e+00
  -7.579925e+01   6.979222e+00
  -3.055229e+00  -8.099630e+01
   1.080660e+02  -7.774237e+01
   5.020689e+01   2.201119e+01
   2.177069e+01   5.281877e+01
  -4.356625e+01   6.688587e+01
  -4.735495e+01   1.040172e+01
   9.158153e-01  -4.547728e+01
   4.328840e+01  -4.386708e+01
   3.198958e+01   2.800358e+01
   2.316371e+00   3.701078e+01
  -1.034750e+02   1.444927e+01
