
 $NMID
 id='ANONYMOUS ', fmtdat='(2E16.6)'
 volume=1.0
 tramp=1.0
 $END
  -3.954660e+03  -2.173896e+02
  -2.018573e+03  -1.828844e+03
   1.917779e+02  -2.032711e+03
   1.294100e+03  -1.178093e+03
   8.055204e+02  -5.270506e-01
  -2.468862e+02   2.883814e+02
  -4.741208e+02  -3.302175e+02
   4.488805e+01  -7.083242e+02
   6.377442e+02  -6.138968e+02
   7.558341e+02   8.186165e+00
   4.093422e+02   5.893226e+02
  -1.091740e+02   6.128962e+02
  -4.162596e+02   1.796414e+02
  -2.123433e+02  -4.801409e+02
   2.199825e+02  -6.193722e+02
   4.504575e+02  -2.536984e+01
   2.709166e+02   4.750156e+02
  -1.626509e+02   5.441098e+02
  -4.849798e+02   2.262661e+02
  -4.332364e+02  -2.344848e+02
  -6.457061e+01  -3.271617e+02
   1.574585e+02  -1.749071e+02
   1.006868e+02  -8.196233e+01
  -1.592548e+02  -6.824449e+01
  -3.022160e+02  -2.092141e+02
  -4.357268e+01  -4.010316e+02
   4.367857e+02  -2.294952e+02
   7.044166e+02   1.951069e+02
   2.997878e+02   3.916088e+02
  -3.234302e+02   2.448769e+02
  -5.087550e+02  -1.580307e+02
  -2.481361e+02  -3.739653e+02
   2.838039e+02  -4.146328e+02
   4.803798e+02  -1.668815e+02
   3.673477e+02   2.220451e+02
   7.867169e+01   3.879668e+02
  -7.529095e+01   2.515369e+02
   3.445651e+01  -9.897317e+01
   1.678685e+02  -2.555982e+02
   2.455207e+02   8.290441e+01
   8.663605e+01   4.806559e+02
  -2.726710e+02   4.423116e+02
  -4.144591e+02  -1.031175e+01
  -1.603513e+02  -4.116790e+02
   1.583449e+02  -2.268743e+02
   2.006781e+02   3.451280e+02
  -9.759033e+01   4.123157e+02
  -4.562996e+02   5.035047e+01
  -4.429292e+02  -3.592885e+02
  -1.416587e+02  -5.157784e+02
   3.077016e+02  -2.702139e+02
   5.332333e+02   1.010642e+02
   3.368230e+02   3.261212e+02
  -1.082944e+02   2.145169e+02
  -3.425525e+02   6.333730e+01
  -2.076682e+02  -5.011138e+01
   9.681441e+00  -7.248483e+01
   7.672275e+01   6.658615e+01
  -1.206619e+02   1.083601e+02
  -2.507214e+02  -4.506267e+01
  -9.311040e+01  -1.964749e+02
   1.443649e+02  -1.731841e+02
   3.249883e+02  -8.518935e+01
   1.619492e+02   9.512092e+01
  -3.528474e+01   3.281964e+02
  -2.665862e+02   3.265697e+02
  -3.110094e+02   1.348403e+02
  -1.862038e+02  -1.629158e+02
  -4.074781e+01  -3.461384e+02
   4.842712e+01  -2.531176e+02
   7.975481e+00  -1.717388e+02
   2.813753e+01  -9.572310e+01
   1.346851e+02  -1.406977e+02
   2.672248e+02  -1.069137e+02
   2.612833e+02   8.873345e+01
   5.299651e+01   2.780736e+02
  -6.731703e+01   2.123437e+02
  -1.801153e+02  -5.247851e+01
  -1.264021e+02  -2.138209e+02
   5.619648e+01  -2.426212e+02
   2.625170e+02  -3.428716e+01
   2.854344e+02   1.768361e+02
   2.033326e+02   2.951977e+02
  -5.687742e+01   2.286487e+02
  -1.929062e+02   1.765893e+02
  -1.355427e+02   3.789353e+01
  -1.601050e+02   6.261321e+01
  -2.529853e+02   5.250052e-01
  -3.776236e+02  -5.512393e+01
  -2.823164e+02  -1.971768e+02
   9.309513e+00  -4.697928e+02
   3.673530e+02  -3.618506e+02
   4.592144e+02  -1.894991e+02
   3.016681e+02   9.317098e+01
   6.487731e+01   3.096760e+02
  -8.685946e+01   2.021733e+02
  -5.243954e+01   4.209755e+01
   1.264252e+02  -7.181013e+01
   1.180266e+02  -8.980303e+00
   7.542449e+00   1.502768e+02
  -8.312430e+01   1.187644e+02
  -1.176547e+02  -3.673493e+01
   7.972906e+00  -1.663572e+02
   1.694928e+02   1.252954e+00
   1.192869e+02   2.415313e+02
  -5.822562e+01   3.416686e+02
  -2.216529e+02   2.121250e+02
  -3.536197e+02  -4.370942e+01
  -2.775082e+02  -1.949514e+02
  -6.887547e+01  -2.809678e+02
   1.063728e+02  -1.996171e+02
   1.728959e+02   3.172799e+00
   6.599061e+01   3.928967e+01
  -5.524292e+01  -3.979971e+01
  -1.027820e+01  -1.053645e+02
   9.869089e+01  -4.834744e+01
   1.440330e+02   2.753512e+01
   3.856333e+00   4.874804e+01
  -5.628420e+01   5.472005e+00
  -2.333472e+01  -4.961040e+01
   1.280585e+02  -5.731276e+01
   2.602027e+02  -5.537713e+00
   2.699799e+02   1.242732e+02
   3.902330e+01   2.440559e+02
  -2.071707e+02   2.248437e+02
  -2.575263e+02   1.561356e+02
  -1.385660e+02  -4.211417e+01
   5.431937e+01  -9.450837e+01
   4.281150e+01  -4.940995e+01
  -3.973566e+01   8.808216e+01
  -1.446533e+02   2.176382e+01
  -1.695954e+02  -8.781844e+01
  -9.358054e+01  -2.113000e+02
   1.010070e+02  -1.417187e+02
   1.044758e+02  -3.929356e+01
   2.916324e+01   8.614018e+00
  -2.900797e+01  -1.067251e+01
  -1.667950e+01  -1.068294e+02
   1.121857e+02  -1.099923e+02
   1.762197e+02  -8.408958e+00
   1.688619e+02   1.232912e+02
   3.063567e+01   2.243498e+02
  -2.064603e+02   1.368951e+02
  -1.605635e+02   4.162899e+01
  -1.004337e+02  -1.081212e+02
   5.803964e+01  -1.229693e+02
   6.274683e+01  -3.517986e+00
   8.660654e+00   4.268349e+01
  -2.496875e+01   2.494329e+01
   4.894975e+00  -1.512496e+01
   5.136308e+01   1.706270e+01
   6.390103e+01   1.079352e+02
  -2.351351e+01   1.399306e+02
  -1.590376e+02   1.228115e+02
  -1.997188e+02   3.565251e+01
  -2.285050e+02  -1.151474e+02
  -5.755610e+00  -1.716987e+02
   8.206194e+01  -1.550029e+02
   1.426076e+02  -3.224184e+01
   5.041196e+01   4.458059e+01
   4.770345e+01   2.397682e+01
   3.749443e+01   6.079835e+01
   7.897948e+01   3.892853e+01
   6.152423e+01   1.132582e+02
  -6.229957e+01   9.410662e+01
  -6.552536e+01   4.269266e+01
  -1.004113e+02  -3.855633e+01
   4.947663e+01  -1.048477e+02
   1.651711e+02  -5.179090e+01
   1.913285e+02   7.874988e+01
   8.383319e+01   2.156139e+02
  -1.378218e+02   2.707597e+02
  -2.923910e+02   5.999942e+01
  -2.834931e+02  -1.474567e+02
  -1.271079e+02  -1.518023e+02
   2.568050e+01  -1.534795e+02
   1.042505e+02  -8.362217e+01
   4.822665e+01  -4.584014e+01
   8.734092e+01  -9.737391e+01
   9.798064e+01  -5.411869e+01
   1.293139e+02   4.176204e+01
   2.609246e+01   1.377427e+02
  -2.922579e+00   2.336471e+02
  -1.021873e+02   1.375310e+02
  -1.799788e+02   1.737760e+01
  -1.381053e+02  -1.251207e+02
   3.421894e+00  -1.251895e+02
   6.641228e+01  -7.906209e+01
   2.893111e+01  -4.359173e+01
  -1.185829e+01   2.274187e+01
  -1.235512e+01   6.224371e+01
  -1.444102e+01   5.046232e+01
   7.540859e+01   3.444650e+01
   5.122116e+01   3.541731e+01
  -7.715005e+01   3.134268e+01
  -1.299374e+02  -1.140745e+01
  -1.116383e+02  -2.109703e+01
  -2.005755e+01  -8.817727e+01
   1.259682e+02  -4.825680e+01
   1.468626e+02  -8.932384e-02
   3.674656e+01   5.032375e+01
  -5.456308e+01   5.562780e+01
  -5.928023e+01  -3.643715e+01
  -3.987306e+01  -7.073129e+01
   4.776466e+01  -4.756499e+01
   7.491914e+01   2.724800e+01
   5.073840e+01   5.831157e+01
   5.776668e+01   2.224399e+01
   9.444732e+01  -1.178195e+01
   7.197523e+01   9.525473e+00
   3.690468e+01   1.074503e+02
  -5.817044e+01   1.690173e+02
  -1.485350e+02   1.266724e+02
  -1.784018e+02  -1.267088e+01
  -1.244149e+02  -5.898793e+01
   2.223486e+01  -8.546031e+01
   9.192747e+01  -7.045292e+01
   4.932617e+01   1.454655e+01
  -9.204412e+00   1.795676e+01
  -8.641139e+01  -1.804904e+01
  -2.811069e+01  -5.286204e+01
   7.909824e+01  -1.036848e+02
   1.628280e+02  -1.901677e+01
   1.568102e+02   4.791602e+01
   8.341714e+01   8.704668e+01
  -4.345428e+01   7.630287e+01
  -5.162169e+01   2.501362e+01
   5.050976e+01  -9.628904e+01
   7.453590e+01   3.560325e+01
   5.737624e+01   1.028690e+02
  -8.270030e+01   1.884372e+02
  -1.722477e+02   1.118998e+02
  -1.087414e+02  -1.096399e+02
  -8.244015e+00  -2.006662e+02
   5.085990e+01  -1.131152e+02
   1.412412e+02   3.880646e+01
   5.024024e+01   1.453294e+02
   3.743491e+01   7.301017e+01
  -3.768931e+01  -2.387299e+00
  -4.830461e+01  -2.440763e+01
   1.257824e+01  -2.324002e+01
  -3.705326e+01   3.685400e+01
  -3.575706e+01  -1.780209e+01
  -5.744152e+01  -7.261688e+01
  -5.116442e+01  -1.189522e+02
   2.043861e+01  -2.877275e+01
   1.474083e+02  -3.893187e+00
   1.303999e+02   9.317816e+01
   3.055431e+01   2.705330e+01
  -4.650950e+01   5.590337e+01
  -7.200474e+01   3.714371e+01
  -2.825649e+01  -1.461381e+01
   2.868692e+01   1.141472e+01
   1.555685e+01  -2.701894e+01
   3.551328e+01   2.006920e+01
   8.782839e+00   1.240005e+01
   1.011674e+02  -2.252778e+00
   4.842451e+01   3.353889e+01
   1.511018e+01   4.005049e+01
  -8.434233e+01   8.079716e+01
  -1.536973e+02   3.751953e+01
  -1.334898e+02  -1.840274e+01
  -2.085238e+01  -1.097141e+02
   2.572049e+01  -1.736017e+02
   1.171540e+02  -3.258682e+01
   8.109948e+01   4.369759e+01
   3.745968e+01   3.282359e+01
   2.335818e+01  -1.216446e+00
   5.206601e+00   7.405975e+01
   3.987900e+01   1.434272e+01
   1.036894e+01   6.949132e+01
  -5.191447e+01   5.666504e+01
  -4.671433e+01   9.680399e+00
  -7.860283e+01  -5.961750e+01
  -2.114884e+01  -8.486459e+01
   5.083731e+01  -1.271558e+01
   1.072235e+02   7.611391e+00
   5.717761e+01   9.733812e+01
  -3.387559e+01   7.589601e+01
  -7.676302e+01   6.010049e-01
  -4.829986e+01  -5.144831e+01
   1.461286e+01  -7.373740e+01
   2.794476e+01  -8.253943e+01
   2.178431e+01   9.666858e+00
  -4.537521e+01  -9.331287e+00
  -4.732229e+01   2.475472e+01
   8.027840e+01  -6.993720e+01
   1.364966e+02  -5.085780e+01
   6.062289e+01  -1.524803e+01
   1.245310e+01   8.071840e+01
  -3.297142e+01   1.162797e+02
  -6.632106e+01   5.039091e+01
  -9.564620e+00  -5.359390e+01
   7.743258e+01  -4.367183e+01
   5.838105e+01  -3.846994e+00
   4.230885e+01   7.699703e+01
   1.645465e+01   2.354444e+01
  -2.349520e+01   6.334408e+00
  -5.667916e+01  -6.490765e+01
  -5.156314e+01  -3.575355e+01
  -8.525129e+00   4.588438e+01
  -1.996823e+01   1.828636e+01
   2.242486e+01  -3.621452e+01
  -2.805771e+01  -1.920928e+01
   1.513956e+01  -2.244317e+01
   3.255826e+01   3.165579e+00
   2.583431e+01   5.911209e+01
  -1.577657e+01   6.533659e+00
  -6.744065e+01   2.734924e+01
  -3.519455e+01  -7.053044e+01
   5.222966e+01  -1.784729e+01
   7.399547e+01   6.557804e+00
   6.031589e+01   4.761970e+01
  -4.331695e+01   8.313218e+01
  -5.036037e+01   3.239975e+01
  -1.720027e+01   1.883097e+01
   5.001691e+01   1.940269e+01
   3.192104e+01   2.763535e+01
  -1.068022e+01   6.693624e+01
  -1.126214e+02  -1.031834e+01
