
 $NMID
 id='ANONYMOUS ', fmtdat='(2E16.6)'
 volume=1.0
 tramp=1.0
 $END
   3.526592e+03   1.837448e+02
   2.233340e+03   1.936094e+03
  -7.219244e+01   2.242493e+03
  -1.561009e+03   8.210135e+02
  -8.868379e+02  -3.819879e+02
   4.711747e+02  -3.221585e+02
   6.082084e+02   2.771634e+02
   3.823134e+00   7.854763e+02
  -7.143670e+02   6.224546e+02
  -7.792355e+02  -7.048336e+01
  -3.935369e+02  -6.760920e+02
   1.143404e+02  -7.367137e+02
   4.694351e+02  -1.179073e+02
   2.722140e+02   5.756235e+02
  -2.488312e+02   5.877822e+02
  -4.682745e+02   7.380145e+00
  -2.579287e+02  -5.573543e+02
   2.226850e+02  -5.408207e+02
   4.536044e+02  -1.093656e+02
   4.053751e+02   2.437030e+02
   6.887393e+01   3.993159e+02
  -2.184092e+02   2.356452e+02
  -1.400211e+02   3.550901e+00
   1.296511e+02   2.573394e+01
   3.609590e+02   1.813923e+02
   7.607401e+01   4.004433e+02
  -4.042774e+02   2.676338e+02
  -6.019810e+02  -1.170702e+02
  -3.089325e+02  -4.173165e+02
   3.744218e+02  -3.017587e+02
   5.803378e+02   4.195468e+01
   2.680413e+02   4.172042e+02
  -2.915638e+02   4.050618e+02
  -5.133355e+02   1.379848e+02
  -2.796216e+02  -2.091584e+02
  -5.568094e+01  -3.204011e+02
   1.813768e+02  -2.252191e+02
   5.166987e+01   1.700571e+02
  -2.027936e+02   2.981371e+02
  -2.649141e+02  -1.435899e+02
  -7.311387e+01  -5.663787e+02
   3.367414e+02  -5.779763e+02
   5.002436e+02   5.959758e+01
   1.924383e+02   4.223403e+02
  -2.707418e+02   2.165198e+02
  -2.848408e+02  -2.994048e+02
   1.242790e+02  -4.223761e+02
   4.870792e+02  -9.099660e+01
   5.290517e+02   4.078989e+02
   1.342164e+02   5.434373e+02
  -3.408359e+02   2.554028e+02
  -5.618858e+02  -1.407771e+02
  -2.883301e+02  -2.817192e+02
   1.624816e+02  -2.500057e+02
   3.145589e+02  -3.732588e+01
   1.597488e+02   1.014419e+02
  -8.754029e+01   7.663697e+01
  -5.566048e+01  -1.359421e+02
   1.337356e+02  -1.163948e+02
   2.506661e+02   8.238359e+01
   1.421553e+02   2.356496e+02
  -1.794249e+02   2.106904e+02
  -2.939235e+02   2.978855e+00
  -1.401352e+02  -9.178019e+01
   2.621314e+01  -2.473335e+02
   2.241512e+02  -2.938691e+02
   3.106233e+02  -1.528578e+02
   2.431078e+02   1.738235e+02
   8.073847e+01   3.350066e+02
  -1.291570e+01   3.472953e+02
  -8.594763e+01   1.724816e+02
   5.744707e-01   2.044888e+01
  -5.399631e+01   8.873813e+01
  -1.892298e+02   1.098111e+02
  -2.415632e+02  -9.022718e+01
  -1.419576e+02  -2.052829e+02
   1.114557e+02  -2.140218e+02
   1.927441e+02   2.490979e+01
   1.616929e+02   2.343368e+02
  -5.898336e+01   2.559881e+02
  -2.590396e+02   5.352468e+01
  -3.106205e+02  -1.548587e+02
  -1.195084e+02  -3.354118e+02
   1.240037e+02  -2.653356e+02
   1.599327e+02  -1.452063e+02
   1.371013e+02  -2.253584e+01
   9.233068e+01  -2.035822e+01
   2.432275e+02  -4.286617e+01
   3.513797e+02   3.782040e+01
   2.961894e+02   2.366291e+02
   1.125443e+01   3.823726e+02
  -3.827197e+02   3.688740e+02
  -4.091807e+02   2.030476e+02
  -2.879401e+02  -8.405116e+01
  -4.055851e+01  -2.098115e+02
   1.284784e+02  -2.049486e+02
   1.567141e+01   4.635647e+00
  -8.110516e+01   1.013979e+02
  -1.558102e+02  -4.289380e+01
  -3.776386e+01  -2.115093e+02
   1.166766e+02  -1.226412e+02
   1.297198e+02   6.996498e+01
  -4.405366e+01   1.670203e+02
  -2.128006e+02   4.384387e+01
  -1.750390e+02  -2.379319e+02
   2.332447e+01  -2.777823e+02
   2.131595e+02  -2.190646e+02
   3.061866e+02   2.889122e+01
   2.288410e+02   2.437105e+02
   1.002732e+02   2.530858e+02
  -1.770292e+02   1.148819e+02
  -1.571628e+02   2.418159e+00
  -6.652766e+01  -3.923963e+01
   4.092584e+01   6.111371e+00
   1.252269e+01   1.085022e+02
  -1.144804e+02   7.134873e+01
  -1.602976e+02  -9.267217e+00
  -3.564575e+01  -9.586161e+01
   1.189114e+02  -4.121661e+00
   1.078905e+01   5.451317e+01
  -1.761521e+02   6.707275e+01
  -2.871006e+02  -4.861266e+01
  -2.465095e+02  -8.733391e+01
  -4.109227e+00  -2.085041e+02
   2.466806e+02  -2.048999e+02
   2.657584e+02  -3.262727e+01
   1.737464e+02   2.737433e+01
  -1.131351e+00   1.024388e+02
  -7.933812e+01   2.759100e+01
   5.702577e+01  -9.372860e+01
   1.728752e+02  -6.481344e+01
   2.021484e+02   1.192091e+02
   6.194474e+01   2.060666e+02
  -9.715468e+01   8.771429e+01
  -1.096251e+02  -6.441702e+00
  -3.810294e+01  -3.765757e+01
  -2.026324e+00  -2.833671e+01
   3.076849e+01   7.905200e+01
  -7.624201e+01   9.550509e+01
  -1.766688e+02   7.647334e+01
  -2.153362e+02  -1.281034e+02
  -3.286272e+01  -1.721936e+02
   1.622621e+02  -1.229500e+02
   1.747375e+02   1.637207e+01
   8.254460e+00   9.741202e+01
  -3.590534e+01   4.287487e+01
  -6.894595e+01  -2.405697e+00
   7.037102e+00  -2.774432e+01
   3.773358e+01  -3.233790e+01
   4.328162e+01  -1.473958e+01
  -5.808483e+01   1.984554e+01
  -8.556305e+01  -7.963855e+01
  -1.989990e+01  -1.566502e+02
   1.349003e+02  -1.140002e+02
   2.111372e+02  -3.329942e+00
   1.920618e+02   1.474297e+02
  -1.494242e+01   2.090220e+02
  -8.081320e+01   1.255743e+02
  -1.060959e+02   1.192799e+01
  -4.847411e+01  -4.621670e+01
   2.401099e+00   8.549164e+00
  -5.368677e+01   2.405507e+01
  -7.736470e+01   1.348465e+01
  -7.501145e+01  -3.187193e+01
   4.887462e+01  -9.797455e+01
   5.014305e+01  -3.342732e+01
   4.571698e+01   2.458038e+01
  -2.266146e+01   1.260527e+02
  -1.540411e+02   1.232434e+02
  -1.696891e+02  -6.380287e+01
  -8.161735e+01  -1.772468e+02
   1.159285e+02  -2.219443e+02
   2.161682e+02  -3.081249e+01
   2.222971e+02   1.031604e+02
   6.834122e+01   1.189040e+02
  -4.194205e+01   1.290148e+02
  -8.607748e+01   7.342289e+01
  -6.311386e+01   8.866317e+01
  -1.075968e+02   8.924630e+01
  -9.096335e+01   3.528675e+01
  -1.190399e+02  -3.238366e+01
  -1.049914e+02  -1.768645e+02
  -1.176173e+00  -2.388898e+02
   1.009044e+02  -1.181392e+02
   1.292384e+02  -1.818864e+01
   9.275186e+01   1.298535e+02
   2.725653e+01   1.481354e+02
  -3.441510e+01   6.868052e+01
  -4.632842e+01  -1.923313e+01
   1.372661e+01  -3.896952e+01
   1.603254e+01  -9.716127e+00
  -3.938743e+01  -2.088724e+01
  -5.556105e+01   6.719200e+00
  -4.385312e+01  -8.393789e+01
   2.319488e+01  -5.419439e+00
   1.815177e+02   1.688253e+00
   1.537510e+02   2.369522e+01
   3.901633e+01   6.548510e+01
  -1.399415e+02   2.023545e+01
  -1.175191e+02   1.951977e+01
  -3.365341e+01  -4.845800e+01
   3.867529e+01  -3.816502e+01
   6.821750e+01   4.169584e+01
   3.968770e+00   6.136894e+01
  -5.274521e+01   6.156669e+01
  -4.138180e+01  -4.337461e+01
  -4.950147e+01  -6.257146e+01
  -1.669004e+01  -5.791652e+01
  -5.496858e+01  -4.162223e+00
  -5.339006e+01   2.140622e+00
  -3.479284e+00  -4.546102e+01
   2.846563e+01  -1.066269e+02
   1.018974e+02  -1.187715e+02
   1.739025e+02   1.040984e+01
   8.681661e+01   6.460651e+01
   3.876924e+01   9.528228e+01
  -1.161316e+02   6.182291e+01
  -7.436641e+01  -6.543935e+00
   6.253311e+01  -6.511210e+01
   1.431968e+02   1.319856e+01
   8.575244e+01   1.134317e+02
  -5.740304e+01   9.394053e+01
  -1.984530e+02  -1.115248e+01
  -1.321158e+02  -4.163361e+01
  -1.252362e+01  -3.985457e+01
   6.110592e+01  -6.523442e+01
   2.458163e+01  -1.047774e+01
  -1.182019e+01   5.466192e+01
  -6.506676e+01  -3.565164e+01
   9.657419e+00  -9.789376e+01
   8.791513e+01  -1.270182e+02
   1.219571e+02  -2.508822e+00
   7.395283e+01   1.106316e+02
   2.079489e+01   1.579774e+02
  -4.785513e+01   1.163271e+02
  -5.882241e+01  -6.747091e+00
  -8.632108e+01  -5.183900e+01
  -4.812438e+00  -4.587322e+01
   3.277389e+01  -2.918563e+01
   9.478698e+01  -9.001387e-01
   5.335901e+01   2.165271e+00
   4.874609e+00   1.194258e+01
   7.488065e+01   5.727775e+01
   1.655912e+01   8.300286e+01
   2.495489e+01   1.195645e+02
  -5.176310e+01   4.573431e+01
  -1.002394e+02   2.651227e-01
  -9.970057e+01  -3.759703e+01
  -1.659505e+01  -1.563999e+01
   6.643742e+01  -2.861317e+01
   5.957962e+01   3.163168e+01
   2.392099e+01   1.400913e+01
  -2.945692e+01   2.077968e+01
   1.500081e+00  -6.972713e+00
  -3.189881e+00   6.473163e+01
  -9.986628e-02   2.120881e+01
  -9.389623e+01   8.174748e+00
  -6.550892e+01  -8.347658e+00
   5.581766e+00  -9.092909e+01
   1.553172e+02  -1.255699e+02
   1.030176e+02  -9.983516e+01
   8.257931e+01   5.916398e+01
   3.203525e+01   1.633853e+02
  -9.850473e+01   1.184307e+02
  -9.210685e+01   7.238632e+01
  -7.257089e+01  -1.513338e+01
  -6.060389e+01  -8.287399e+00
  -1.032426e+01  -3.302385e+01
  -7.098973e+01   8.434626e-01
  -2.897007e+01  -1.129846e+00
  -5.056604e+01  -9.828403e+01
   5.672154e+01  -6.109491e+01
   5.315498e+01   3.537028e+01
   8.672958e+01   1.049962e+02
  -3.041129e+01   8.309043e+01
  -5.859151e+01   1.422958e+01
  -6.507258e+01  -5.019255e+01
  -7.838639e+01  -8.199239e+01
   6.119179e+01  -5.694018e+01
   9.255045e+01  -3.988522e+00
   6.334432e+01   5.678672e+01
  -2.279991e+01   2.567572e+01
  -3.728535e+00   3.478797e+01
   2.616388e+01  -1.854911e+01
   4.540612e+01  -3.482514e+01
  -3.667013e+01   2.196204e+01
  -9.011572e+01   4.902950e+01
  -1.025497e+02   5.865680e+01
  -6.059908e+01   1.163309e+01
  -4.194627e+01  -3.822062e+01
   9.229612e+01  -6.802978e+01
   3.239593e+00   5.122234e+00
   6.776643e+00   4.022266e+01
  -3.674100e+01   8.213577e+01
  -4.135910e+01  -2.567849e+00
  -3.741337e+01  -4.416739e+01
   1.125944e+01  -9.257165e+00
   3.047137e+01   4.200435e+01
   3.796802e+01   4.069946e+00
   4.905726e+00   7.061595e+00
  -5.487761e+00  -4.031513e+01
  -2.333762e+01   9.354678e-01
   3.244554e+01   2.560855e+01
   5.417155e+00   5.460146e+01
  -6.645004e+01   4.505100e+01
  -1.727449e+01  -2.788472e+01
   4.300652e+00  -4.648141e+01
   3.436221e+01  -3.374028e+01
   2.060551e+01   3.260155e+01
  -2.056319e+01   8.659233e+01
  -8.545005e+01   1.396873e+01
  -7.687691e+01  -4.641320e+01
  -5.715224e+01  -2.319667e+01
   4.468738e+01  -3.548217e+01
   4.206546e+01  -5.515114e+01
   1.272351e+01  -1.138406e+01
  -2.312677e+01   1.715752e+01
  -4.353433e+01   1.668134e+01
  -1.349254e+00  -1.030331e+00
   6.087879e+01  -7.357838e+01
