
 $NMID
 id='ANONYMOUS ', fmtdat='(2E16.6)'
 volume=1.0
 tramp=1.0
 $END
  -2.615130e+03  -3.191571e+02
  -1.269677e+03  -1.365196e+03
   1.263887e+02  -1.542979e+03
   9.356325e+02  -5.674639e+02
   6.215879e+02   2.294133e+02
  -3.582540e+02   1.825635e+02
  -3.284526e+02  -2.639759e+02
   1.651705e+02  -5.832446e+02
   5.111389e+02  -2.717715e+02
   4.643538e+02   1.524295e+02
   1.682833e+02   4.401741e+02
  -9.811660e+01   3.831283e+02
  -3.242983e+02   4.545259e+00
  -1.669079e+02  -3.592142e+02
   1.485470e+02  -3.669530e+02
   2.480762e+02   3.466451e+01
   5.839429e+01   4.060535e+02
  -1.791452e+02   2.431784e+02
  -2.346778e+02  -2.304974e+01
  -1.830728e+02  -1.224304e+02
  -3.066901e+01  -1.782753e+02
   9.992819e+01  -1.186995e+02
   8.050403e+01  -5.738003e+01
  -7.321864e+01  -2.274846e+00
  -1.804036e+02  -6.895742e+01
  -8.527341e+01  -1.600493e+02
   1.748155e+02  -1.188269e+02
   3.797516e+02   7.171708e+01
   2.336509e+02   2.876756e+02
  -1.736198e+02   1.515186e+02
  -3.402259e+02  -1.044449e+02
  -9.926078e+01  -2.088575e+02
   1.458510e+02  -2.498268e+02
   3.166004e+02  -1.339970e+02
   2.102742e+02   1.050368e+02
   4.746819e+01   2.332243e+02
  -1.345259e+02   1.584304e+02
  -6.084622e+01  -1.168131e+02
   1.067326e+02  -1.746037e+02
   1.515148e+02  -5.307841e-01
   9.026668e+01   3.534612e+02
  -2.125452e+02   3.901376e+02
  -3.853287e+02  -8.263587e+01
  -1.526988e+02  -2.868930e+02
   9.988121e+01  -1.129303e+02
   1.942425e+02   2.417627e+02
  -1.026170e+02   2.467501e+02
  -2.780972e+02   9.604406e+00
  -2.238164e+02  -2.538869e+02
  -3.537487e+01  -3.052923e+02
   2.091469e+02  -1.221680e+02
   3.360165e+02   6.738946e+01
   2.103397e+02   1.697352e+02
  -7.409107e+01   1.686254e+02
  -1.916945e+02   5.053532e+00
  -1.149767e+02  -1.081913e+02
   6.852644e+01  -3.586637e+01
   8.932461e+01   6.021436e+01
  -1.190070e+02   7.705778e+01
  -1.799425e+02  -1.439397e+02
  -7.045559e+01  -1.787951e+02
   1.258759e+02  -9.769671e+01
   1.607051e+02   2.799606e+01
   6.837801e+01   9.137160e+01
  -9.407252e+00   5.497835e+01
  -1.561211e+02   1.478379e+02
  -1.470738e+02   1.144844e+02
  -1.249453e+02  -5.003212e+01
  -4.719034e+01  -2.112345e+02
   4.752474e+00  -2.308187e+02
   5.768934e+01  -7.030106e+01
  -7.713322e+00   5.972993e+00
  -1.566596e+00  -5.470477e+01
   8.459529e+01  -6.099784e+01
   1.049479e+02   1.286832e+01
   6.956671e+01   9.185365e+01
  -4.569989e+01   1.209860e+02
  -8.547911e+01  -1.078251e+01
  -6.419501e+01  -1.294285e+02
   2.991371e+01  -1.293029e+02
   1.352388e+02  -5.395205e+01
   2.286484e+02   1.165925e+02
   7.838472e+01   1.816028e+02
  -3.783747e+01   1.783901e+02
  -8.204102e+01   3.760175e+00
  -9.075169e+01  -6.146383e-01
  -6.740160e+01   2.152110e+01
  -1.352621e+02   1.523837e+01
  -2.094173e+02  -6.723213e+01
  -1.458941e+02  -1.572874e+02
   5.999297e+01  -2.432020e+02
   1.646306e+02  -1.672590e+02
   1.811334e+02  -7.523355e+01
   1.373744e+02   8.541171e+00
   3.027658e+01   1.125637e+02
  -4.389245e+01   9.789231e+01
  -2.629334e+01   1.078333e+01
   6.495148e+01  -5.557471e+01
   9.281128e+01  -1.338032e+01
   2.052130e+01   1.050096e+02
  -7.895882e+01   9.172515e+01
  -8.892861e+01  -4.712758e+01
   2.790296e+01  -7.751729e+01
   1.265944e+02  -1.602324e+00
   5.901363e+01   1.011910e+02
  -4.115206e+01   1.598482e+02
  -1.146193e+02   8.198655e+01
  -1.175342e+02  -2.044863e+01
  -1.639216e+02  -1.401131e+02
  -5.555951e+01  -1.466271e+02
   6.970424e+01  -8.522215e+01
   1.141266e+02  -2.114285e+00
   4.054444e+01   2.744647e+01
  -2.294581e+01  -1.259657e+01
  -2.399107e+01  -7.564827e+01
   5.139531e+01  -2.693703e+01
   6.516881e+01   2.679139e+01
  -8.413014e+00   2.467900e+01
  -4.524454e+01  -2.784455e+01
   3.615018e+01  -7.257718e+01
   1.091201e+02  -1.389563e+01
   1.537733e+02   6.038651e+01
   1.060442e+02   9.639156e+01
  -8.793257e+00   1.405131e+02
  -1.229362e+02   6.293554e+01
  -1.180096e+02   6.240232e+01
  -1.073851e+02  -4.112819e+01
  -2.740019e+00  -3.644264e+01
   6.215528e+00  -2.209147e+01
  -3.236995e+01   5.277759e+01
  -1.032110e+02   2.721140e+01
  -1.264374e+02  -7.295647e+01
  -3.167100e+01  -1.298644e+02
   8.944324e+01  -8.133542e+01
   5.189490e+01   2.312281e+01
   1.702642e+01  -2.027019e+00
  -1.262840e+01   3.606854e+01
  -1.552450e+01  -2.939053e+01
   2.576410e+01  -3.940050e+01
   9.311292e+01  -3.829929e+01
   8.589267e+01   6.579285e+01
   1.613401e+01   1.204008e+02
  -6.923982e+01   9.558850e+01
  -9.447645e+01  -3.237138e+01
  -5.308207e+01  -1.689549e+01
   4.544323e+01  -2.965434e+01
   5.997237e+01   3.818803e+00
   2.026309e+01   3.157385e+01
  -5.580563e+00   2.853167e+01
  -2.568062e+01   1.162492e+01
   5.110610e+01   4.526620e+01
   4.493588e+01  -4.649232e+00
   7.435701e-01   8.829592e+01
  -2.667184e+01   1.119677e+02
  -1.503714e+02  -5.543220e+00
  -5.434613e+01  -9.940982e+01
  -1.032908e+00  -9.155159e+01
   1.535982e+01  -6.437044e+01
   4.745500e+01  -2.245007e+01
   3.643135e+01   1.787050e+01
   2.114497e+01   1.578892e+01
   4.590471e+01  -3.653763e+01
   2.139428e+01   8.851172e+00
   3.440805e+01   6.718602e+01
  -1.072589e+01   2.763280e+01
  -2.404683e+01   1.747042e+01
  -2.806468e+01  -4.095276e+01
   6.594422e+00  -6.381162e+01
   8.307089e+01  -2.053585e+01
   8.340070e+01   6.073307e+01
   3.019376e+01   1.646468e+02
  -2.099637e+01   4.779544e+01
  -1.674180e+02   9.897713e+00
  -1.553577e+02  -1.589331e+01
  -2.639949e+01  -7.237461e+01
   6.168439e+01  -6.477120e+01
   3.998339e+01  -3.620671e+01
   7.853879e+01  -3.226130e+01
   5.562700e+01  -4.184979e+01
   6.319485e+01  -5.103948e+01
   5.722726e+01   4.391839e+01
   5.464805e+01   5.484043e+01
  -8.539863e+00   1.198288e+02
  -5.006072e+01   8.223524e+01
  -7.858739e+01   1.267661e+01
  -6.915857e+01  -7.447430e+01
  -1.063952e+00  -1.019810e+02
   6.943308e+00  -7.029795e+01
   9.591843e+00  -1.328277e+01
   5.259685e+00   6.440327e+01
   9.478872e+00   4.138288e+01
  -8.866707e+00   4.270983e+01
   4.299401e+01   7.783612e+00
   2.354059e+01   5.597455e+01
  -3.211485e+01   8.572246e+00
  -1.044728e+02   1.325041e+01
  -6.302197e+01  -2.433428e+01
   1.798339e+01  -3.686975e+01
   6.977379e+01  -4.221944e+01
   4.652187e+01  -6.313052e+01
   1.196733e+01   1.649358e+01
  -2.171629e+01   2.670977e+01
  -4.354266e+01   1.527468e+00
  -5.631432e+00  -3.237532e+01
   3.218075e+01  -6.467774e+01
   3.162010e+01   2.425886e+01
   1.386168e+01   1.767395e+00
   8.388788e-01  -1.244953e+01
   3.092800e+01   2.473957e+01
   3.405075e+01   2.451092e+01
  -9.663823e-01   6.046145e+01
  -4.116029e+01   6.845844e+01
  -9.055040e+01   6.424746e+01
  -5.056557e+01  -3.711278e+00
  -7.459607e+01  -5.945306e+01
  -2.439491e+01  -4.004389e+01
   6.316946e+01  -2.883317e+00
   1.323891e+01   5.761117e+00
  -5.319509e+01  -1.892531e+01
  -1.122139e+02  -3.925713e+01
  -6.673537e+01  -5.563749e+01
   9.083266e+01  -7.218377e+01
   1.137821e+02  -5.643325e+01
   7.547409e+01  -3.990468e-01
   6.672194e-01   4.993838e+01
  -6.521796e+01   2.935395e+01
  -7.879891e+01   2.610587e+01
   3.416759e+01  -3.740502e+01
   2.346246e+01   4.623372e+00
   3.228122e+01   3.683485e+01
  -3.094037e+01   9.109538e+01
  -9.181597e+01   2.797575e+01
  -4.771642e+01  -5.540306e+01
  -2.412176e+00  -7.412225e+01
  -1.154825e+01  -6.246213e+01
   5.700008e+01  -5.365876e+00
   2.827555e+01   8.684679e+01
   2.628767e+01   5.510182e+01
  -3.495456e+01   4.516276e+01
  -4.731199e+01  -1.881250e+01
  -1.545749e+01   2.170743e+00
  -1.995593e+01   2.167385e+01
  -1.635630e+00  -2.400360e+01
  -1.414709e+01  -6.289109e+01
  -3.218359e+01  -6.511489e+01
   4.573296e+01   1.248436e+01
   6.846332e+01   3.507973e+01
   5.207193e+01   1.695485e+01
  -4.910731e+01   7.915548e+00
  -3.308654e+01   1.193271e+01
  -6.570936e+01   5.910591e+00
   1.543353e+01   3.610757e+00
   5.653829e+01  -1.629701e+01
  -6.286153e+00   1.491994e+01
   4.340338e+01  -2.177233e+00
   2.267241e+01  -5.544482e+00
   7.483602e+01   1.381889e+01
   4.566428e+01   6.169785e+01
   5.530507e+00   3.809928e+01
  -7.021914e+01   9.061386e+01
  -7.267813e+01   3.973688e+01
  -4.147266e+01  -4.379239e+01
  -1.822237e+01  -6.672554e+01
   6.551806e+01  -4.066342e+01
   8.259078e+01  -5.513227e+00
   3.754691e+01  -1.378902e+01
   3.086499e+01   1.083526e+01
  -1.885623e+00  -1.560880e+01
  -5.211403e+00  -1.778462e+01
  -1.084363e+01   2.608122e+01
   8.155454e+00   6.720186e+01
   1.333563e+01   3.297904e+01
  -6.767757e+01  -4.329125e+01
  -3.617549e+01  -4.689769e+01
  -3.068709e+01  -3.662157e+01
   3.893601e+01  -2.924090e+00
   5.847508e+01   3.294089e+01
  -6.557671e-01   5.893355e+01
  -5.889593e+01   2.322302e+01
  -4.921399e+01   4.013126e+00
  -2.554680e+01  -2.684840e+01
   2.375800e+01  -5.191923e+01
   2.791591e+01  -2.411329e+01
  -1.623623e+01  -1.762310e+01
  -2.878810e+01   8.906920e+00
   1.489664e+01  -1.714691e+01
   3.718271e+01  -4.043303e+00
   4.713791e+01  -3.370046e+00
   1.755982e+01   9.755296e+00
   2.897176e+01   3.772750e+01
  -5.757861e+01   6.249887e+01
   1.325107e+01  -6.746082e+00
  -1.558978e+01  -2.695756e+01
   2.503246e+01  -5.330483e+00
   3.901610e+01  -1.327764e+01
   1.956600e+01   2.917605e+01
   1.693437e+01   6.364796e+00
  -6.712517e+00  -3.613748e+01
   5.539792e+00  -2.138833e+01
  -4.550771e+00  -2.814211e+01
  -1.645866e+01  -2.561786e+01
   1.610964e+01  -1.413290e+01
   3.131912e+01   5.126876e+00
   1.336298e+01  -4.209510e+01
   3.312609e+01  -1.583178e+01
  -1.688633e-01   3.060591e+01
   1.821761e+01   1.595400e+01
  -3.272563e+01  -3.846833e+00
  -7.537940e+00  -1.819983e+01
   3.575087e+01  -4.748447e+01
  -9.640825e-01  -5.043025e+01
   2.426860e+01  -2.633074e+01
  -2.112273e+01   4.794013e+00
  -2.357881e+01   3.484546e+01
  -6.641468e+01   2.938739e+00
  -1.816687e+01   4.068338e+00
   5.426062e+01   2.028935e+01
  -1.872965e-01   3.963785e+01
  -6.289403e+00   7.598921e+00
  -6.365315e+00   1.787702e+01
