
 $NMID
 id='ANONYMOUS ', fmtdat='(2E16.6)'
 volume=1.0
 tramp=1.0
 $END
  -3.913051e+03  -5.156335e+02
  -1.807749e+03  -2.469759e+03
   1.076437e+03  -2.274317e+03
   1.909833e+03  -6.429078e+02
   7.524619e+02   9.089578e+02
  -7.725147e+02   4.943340e+02
  -8.039829e+02  -4.071617e+02
   9.700272e+01  -8.351793e+02
   8.821856e+02  -5.679620e+02
   8.083702e+02   2.624080e+02
   2.934852e+02   8.449566e+02
  -3.158970e+02   7.252449e+02
  -6.238358e+02  -2.352543e+01
  -3.345406e+02  -6.908658e+02
   3.534470e+02  -6.032213e+02
   5.119386e+02   1.398681e+02
   1.612913e+02   6.679243e+02
  -3.856720e+02   5.155943e+02
  -5.270040e+02  -1.358525e+01
  -3.248277e+02  -3.567545e+02
   6.073771e+01  -4.086516e+02
   2.690304e+02  -2.005659e+02
   1.960001e+02   1.813736e+01
  -1.114270e+02   9.548921e+01
  -3.106946e+02  -8.676692e+01
  -1.212309e+02  -3.396938e+02
   4.184074e+02  -3.053018e+02
   7.181273e+02   1.683718e+02
   3.289464e+02   5.512950e+02
  -4.033745e+02   4.507804e+02
  -6.089048e+02  -1.318167e+02
  -1.781128e+02  -4.914380e+02
   2.988641e+02  -3.911171e+02
   5.015541e+02  -1.139451e+02
   3.122395e+02   2.406051e+02
  -1.643121e+01   3.977489e+02
  -2.242482e+02   2.181862e+02
  -1.662646e+02  -2.000421e+02
   1.530641e+02  -3.635172e+02
   4.141089e+02  -8.365507e-01
   1.769531e+02   5.265347e+02
  -2.942863e+02   5.595234e+02
  -5.318906e+02  -8.232341e+01
  -1.823740e+02  -5.088306e+02
   2.897778e+02  -2.705875e+02
   3.382951e+02   2.804318e+02
  -5.281032e+01   4.198078e+02
  -5.012173e+02   9.836937e+01
  -4.973261e+02  -3.369607e+02
  -2.041523e+01  -5.196684e+02
   3.348870e+02  -2.537138e+02
   5.132611e+02   1.123906e+02
   2.722848e+02   3.693107e+02
  -1.867101e+02   3.715122e+02
  -4.154141e+02  -3.615272e+00
  -1.970771e+02  -1.947863e+02
   1.383842e+02  -7.598969e+01
   1.293507e+02   1.542528e+02
  -1.644166e+02   1.957382e+02
  -2.842854e+02  -9.185892e+01
  -9.201771e+01  -2.832486e+02
   2.143582e+02  -1.996047e+02
   3.036034e+02   2.444592e+01
   1.334231e+02   1.577978e+02
  -8.298911e+01   1.977553e+02
  -2.118822e+02   1.569846e+02
  -2.635000e+02   1.088393e+02
  -2.004394e+02  -1.065275e+02
  -5.754299e+01  -3.102013e+02
   1.070131e+02  -3.138654e+02
   1.343674e+02  -3.715396e+01
   3.557833e+01   3.085694e+01
   1.063752e+01  -4.608868e+01
   1.381464e+02  -8.753414e+01
   1.776744e+02   3.996522e+01
   1.159545e+02   2.343420e+02
  -8.732369e+01   1.885054e+02
  -1.796876e+02  -1.682344e+01
  -1.792959e+02  -2.275332e+02
   5.225194e+01  -2.558805e+02
   2.823671e+02  -4.903262e+01
   2.617328e+02   1.982386e+02
   1.054199e+02   2.866546e+02
  -1.384450e+02   2.460967e+02
  -2.129045e+02   7.460725e+01
  -1.344260e+02  -4.491081e+01
  -7.463730e+01  -2.673101e+00
  -2.188549e+02   7.499346e+00
  -3.177177e+02  -1.166686e+02
  -2.301353e+02  -2.546365e+02
   1.182279e+01  -3.758845e+02
   2.612299e+02  -2.710259e+02
   4.146385e+02  -1.249631e+02
   2.483927e+02   8.646784e+01
   6.626140e+01   2.354584e+02
  -1.240372e+02   1.638819e+02
  -7.718699e+01   3.686717e+01
   1.041647e+02  -1.190521e+02
   1.364597e+02  -2.679464e+01
   6.341071e+01   1.481895e+02
  -1.397810e+02   1.422987e+02
  -1.487227e+02  -8.681980e+01
   3.465850e+01  -1.725256e+02
   1.640835e+02  -9.702076e+00
   1.446700e+02   2.594761e+02
  -9.421537e+01   3.130897e+02
  -2.451719e+02   1.341223e+02
  -2.393828e+02  -5.454159e+01
  -1.576253e+02  -2.316464e+02
   6.395973e+00  -1.493334e+02
   8.213078e+01  -7.361990e+01
   1.442182e+02  -1.360529e+01
   4.555527e+01   1.214213e+01
  -7.602362e+01  -5.576156e+01
  -2.485492e+01  -6.630554e+01
   1.193085e+02  -8.101001e+01
   1.330543e+02   1.396488e+00
   5.911977e+01   6.738722e+01
  -6.812952e+01   1.940507e+01
  -3.138055e+01  -9.435663e+01
   1.222889e+02  -5.647350e+01
   2.392185e+02   6.117857e+01
   1.710472e+02   1.502891e+02
   7.097346e+01   2.003213e+02
  -1.743204e+02   1.843331e+02
  -2.379101e+02   2.654554e+01
  -1.504886e+02  -4.051893e+01
  -3.793748e+00  -6.910202e+01
   5.412699e+01   2.283270e+01
  -3.927580e+01   7.426453e+01
  -1.531061e+02  -9.589844e+00
  -1.337319e+02  -1.177560e+02
  -4.415866e+01  -1.952856e+02
   7.167355e+01  -1.245616e+02
   1.068986e+02   1.504737e+01
   5.393902e+01   4.150993e+01
  -2.100553e+01  -3.045553e+00
  -1.204865e+01  -7.407224e+01
   7.983761e+01  -1.451226e+02
   1.922660e+02  -5.507085e+01
   1.580528e+02   1.119451e+02
   1.320198e+01   1.931516e+02
  -1.983075e+02   1.159626e+02
  -1.735982e+02  -1.991114e+01
  -4.978477e+01  -1.098297e+02
   8.798037e+01  -1.017953e+02
   7.182741e+01  -2.395328e+01
  -1.069256e+01   2.924922e+01
  -7.994280e+01   2.189061e+00
  -9.226087e+00   3.180563e-01
   3.201734e+01   1.796131e+01
   4.350849e+01   6.132622e+01
  -3.291265e+01   9.034382e+01
  -1.219486e+02   1.670980e+02
  -1.793028e+02   1.004330e+01
  -1.576176e+02  -1.388528e+02
  -2.270341e+01  -1.995717e+02
   1.187066e+02  -1.140426e+02
   1.245304e+02   4.752071e+00
   5.861535e+01   6.494593e+01
   2.304315e+01   3.677908e+01
   3.702216e+01  -3.183313e+00
   8.346556e+01   7.966289e+00
   1.500304e+01   5.105018e+00
  -1.053181e+01   7.318235e+01
  -5.240047e+01   3.042631e+01
  -3.457307e+01  -3.794076e+01
   3.112717e+01  -1.234159e+02
   9.701738e+01  -5.558227e+01
   1.172788e+02   4.893500e+01
   5.682696e+01   1.700053e+02
  -8.420188e+01   1.334705e+02
  -2.490001e+02   1.193961e+01
  -1.627359e+02  -8.819748e+01
  -9.226195e+01  -1.758138e+02
   5.629260e+00  -9.634858e+01
   8.365646e+01  -4.002109e+01
   7.322994e+01  -5.384547e+01
   6.257334e+01  -5.860572e+01
   5.774727e+01  -4.948980e+01
   1.236047e+02   3.333464e+01
   4.531842e+01   1.381307e+02
   2.404026e-01   1.492439e+02
  -4.705312e+01   7.855624e+01
  -1.106544e+02  -3.289609e+00
  -9.733169e+01  -1.004384e+02
  -2.155824e+01  -1.183015e+02
   5.163921e+01  -5.808353e+01
  -3.050997e+00  -1.733092e+01
  -1.310026e+00   1.426184e+01
   1.838876e+01   2.206125e+01
   2.193619e+01   1.795301e+01
   3.777153e+01   5.316236e+01
   4.045423e+01   5.226884e+01
  -5.284910e+01   5.105548e+01
  -1.159222e+02  -1.091158e+01
  -9.926475e+01  -3.780471e+01
  -3.275054e+01  -5.847440e+01
   7.923165e+01  -5.851526e+01
   1.257859e+02   2.352564e+01
  -3.563853e+00   6.475191e+01
  -7.171541e+01   2.497729e+01
  -8.232017e+01  -5.682751e+01
  -2.686005e+00  -5.371563e+01
   9.697836e+01  -1.867277e+01
   6.109292e+01   5.042553e+00
   8.248830e+01   4.227015e+01
  -2.804743e+01   7.022103e+01
   5.127780e+01   1.367075e+01
   5.759305e+01   4.885902e+01
   3.173683e+01   2.764827e+01
   7.718677e+00   1.163169e+02
  -7.717119e+01   7.481620e+01
  -1.140230e+02  -2.142036e+01
  -6.784938e+01  -9.352855e+01
  -2.482604e+01  -1.266238e+02
   8.535963e+01  -1.273690e+01
   1.932651e+01   3.265057e+01
  -7.348118e+01  -3.508521e+01
  -1.056637e+02  -5.511069e+01
  -3.070567e+01  -1.006666e+02
   9.144628e+01  -8.471110e+01
   1.838268e+02  -3.991335e+01
   1.263738e+02   2.114606e+01
  -2.890818e+01   7.522544e+01
  -6.892190e+01   4.537578e+01
  -3.347257e+01   1.229991e+01
   8.207230e+00   3.743402e+00
   7.305317e+01  -4.216915e+00
  -1.560587e+01   7.959844e+01
  -5.333683e+01   9.968664e+01
  -1.301529e+02   3.424347e+01
  -8.728513e+01  -9.396680e+01
  -1.445814e+01  -1.429707e+02
   6.600870e+01  -1.198733e+02
   6.432222e+01   5.716730e+01
   4.544507e+01   7.882266e+01
  -5.099390e+01   9.804958e+01
  -1.684738e+01   1.597833e+01
  -6.748360e+01  -5.260462e+01
  -8.221110e+00  -3.324195e+01
  -1.439175e+01   9.753269e+00
  -9.216014e+00   2.906504e+01
  -7.159294e+01  -7.686597e+01
  -7.251049e+00  -1.381358e+02
   5.940791e+01   1.271140e+01
   1.304136e+02   6.414857e+01
   9.070254e+01   8.874514e+01
  -9.054438e+00   3.482823e+01
  -6.538610e+01  -7.118775e+00
  -6.219537e+01  -1.133525e+01
   2.580097e+01   9.691867e+00
   2.295874e+01  -2.101653e+01
   4.009541e+01   1.599132e+01
   3.165370e+00  -4.273518e+01
   2.926402e+01  -1.510036e+01
   9.186780e+01   8.081083e+01
   2.568092e+01   7.112582e+01
  -2.468657e+01   8.846181e+01
  -1.036381e+02   6.429735e+01
  -2.110964e+02   4.153431e+01
  -1.098796e+02  -1.028745e+02
   8.586495e+00  -1.233814e+02
   9.847507e+01  -1.315803e+02
   1.236155e+02  -3.409784e+00
   7.464598e+01   4.797404e+01
   2.614026e+01   1.154213e+02
  -5.428037e+00   3.766264e+01
  -2.859393e+01  -2.753116e+00
   5.473629e+01   4.943791e+01
  -2.633964e+00   4.798729e+01
   2.781020e+01   4.210307e+01
  -2.769382e+01  -2.359432e-01
  -8.642982e+01  -9.757803e+01
   1.551311e+01  -9.220173e+01
   5.992602e+01  -1.925535e+00
   1.020978e+02   4.670387e+01
   2.350491e+01   4.738583e+01
  -8.800492e+01   6.316319e+00
  -1.330809e+02  -2.259403e+01
   1.082852e+01  -6.677387e+01
   3.492858e+01  -8.374614e+01
  -2.637653e+00  -5.848746e+01
  -3.020851e+01  -2.280899e+01
  -4.657609e+01   1.654426e+01
  -2.788548e+01  -1.570711e+01
   6.905445e+01  -2.817069e+01
   1.060336e+02  -3.592119e+01
   1.511042e+01  -1.309746e+00
  -1.180794e+01   7.675864e+01
  -3.086808e+01   8.813666e+01
  -5.053324e+01  -3.801551e-01
  -1.673130e+01  -6.625120e+01
   3.965129e+01  -1.242290e+01
  -1.286851e+01   5.635643e+00
   4.754367e+01   4.685501e+01
   3.273200e+00   4.916154e+01
  -4.680997e+01  -2.944730e+01
   5.238001e+00  -5.792356e+01
  -1.392255e+01  -3.131955e+01
   1.732697e+01   2.245005e+01
   5.910566e+00  -2.362757e+01
  -1.872977e+01  -1.783785e+01
   3.635187e+01  -2.074473e+01
   3.458574e+01   7.200374e+00
   1.331090e+01   7.733776e+01
  -9.429701e+00   8.414528e+01
  -3.973894e+01   9.760579e+00
  -1.825434e+01  -2.280449e+01
   3.447374e+00  -6.483540e+01
   3.273456e+01  -3.409327e+01
   7.784281e+01   4.072140e+01
   2.655657e+01   1.092035e+02
  -5.259454e+01   3.333884e+01
  -4.674732e+01   4.824781e+00
  -4.166404e+01  -1.476145e+01
   3.559683e+01  -2.932602e+01
   4.786011e+01   3.596279e+01
  -3.197493e+01   2.997973e+01
  -1.041880e+02   2.131220e+01
