
 $NMID
 id='ANONYMOUS ', fmtdat='(2E16.6)'
 volume=1.0
 tramp=1.0
 $END
   4.277984e+03   9.701578e+02
   1.887225e+03   3.002462e+03
  -1.530189e+03   2.578848e+03
  -2.492012e+03   5.565113e+02
  -8.565299e+02  -8.728103e+02
   8.632302e+02  -5.327892e+02
   8.998724e+02   5.946842e+02
  -1.454728e+02   1.082205e+03
  -1.030572e+03   6.314662e+02
  -8.747834e+02  -3.560729e+02
  -3.113279e+02  -1.048598e+03
   4.626881e+02  -8.354894e+02
   7.561910e+02   3.286402e+01
   3.091325e+02   7.649588e+02
  -4.482152e+02   7.636190e+02
  -6.730383e+02  -2.006081e+02
  -1.732081e+02  -7.212215e+02
   4.718333e+02  -5.588749e+02
   6.068922e+02   4.272217e+01
   3.611345e+02   4.557775e+02
  -1.369091e+02   4.789271e+02
  -3.634710e+02   2.084297e+02
  -2.091868e+02  -5.911883e+01
   1.177299e+02  -1.540806e+02
   4.452184e+02   1.807020e+02
   1.205313e+02   4.496120e+02
  -6.027829e+02   4.074824e+02
  -8.344289e+02  -2.203277e+02
  -3.275493e+02  -7.450160e+02
   4.760195e+02  -4.253893e+02
   7.704963e+02   1.242965e+02
   2.379372e+02   5.591334e+02
  -3.410836e+02   4.720334e+02
  -5.662510e+02   5.327257e+01
  -2.926683e+02  -3.037293e+02
   6.048689e+01  -4.687357e+02
   2.983816e+02  -2.230518e+02
   1.817223e+02   2.811291e+02
  -2.370911e+02   4.300430e+02
  -5.066354e+02  -9.575814e+01
  -2.531311e+02  -7.052565e+02
   4.012598e+02  -6.629612e+02
   6.049860e+02   1.101041e+02
   1.724455e+02   6.143437e+02
  -3.780340e+02   3.334897e+02
  -3.621923e+02  -4.231852e+02
   9.569371e+01  -5.473112e+02
   5.900601e+02  -9.414652e+01
   5.195063e+02   4.729966e+02
   4.221183e+01   5.987777e+02
  -4.662458e+02   2.697177e+02
  -5.925231e+02  -2.104372e+02
  -2.762821e+02  -3.978968e+02
   2.363957e+02  -3.942288e+02
   4.431140e+02   3.284328e+01
   2.193508e+02   3.084356e+02
  -1.354871e+02   9.355852e+01
  -1.541228e+02  -1.974176e+02
   2.478156e+02  -1.888561e+02
   3.473142e+02   1.420736e+02
   8.273081e+01   3.367941e+02
  -2.903245e+02   2.204635e+02
  -3.432538e+02  -2.042126e+01
  -1.253751e+02  -1.523916e+02
   9.729829e+01  -2.204859e+02
   2.661217e+02  -2.541602e+02
   3.194966e+02  -1.265009e+02
   2.766285e+02   1.725541e+02
  -3.036878e+01   4.386049e+02
  -1.154035e+02   3.619597e+02
  -1.425130e+02   7.452884e+01
   1.003042e+01  -7.238846e+01
  -3.502914e+01   9.393814e+01
  -1.906310e+02   9.517463e+01
  -2.757369e+02  -6.979075e+01
  -1.145091e+02  -2.866951e+02
   1.359804e+02  -2.712018e+02
   2.522849e+02   6.669742e+01
   1.986791e+02   2.684554e+02
  -4.739720e+01   2.916544e+02
  -2.900264e+02   4.711380e+01
  -3.372552e+02  -2.212796e+02
  -1.049482e+02  -4.395049e+02
   1.836790e+02  -2.986620e+02
   2.417674e+02  -4.975130e+01
   1.284197e+02   2.560304e+01
   7.328354e+01   3.224348e+00
   2.033220e+02  -1.954645e+01
   3.694109e+02   1.240238e+02
   2.462894e+02   3.263371e+02
  -2.815230e+01   4.207212e+02
  -4.503404e+02   3.785743e+02
  -4.937854e+02   1.176190e+02
  -3.488527e+02  -1.315239e+02
  -2.712853e+01  -2.621751e+02
   1.966594e+02  -2.368219e+02
   9.573752e+01   1.843844e+01
  -1.380928e+02   1.244362e+02
  -2.030411e+02  -3.360001e+01
  -1.743312e+00  -1.837138e+02
   1.976102e+02  -1.562542e+02
   1.937246e+02   1.010399e+02
   7.046810e+00   2.373680e+02
  -2.419661e+02   1.275154e+01
  -1.197975e+02  -2.354958e+02
   9.341133e+01  -3.332095e+02
   2.430680e+02  -1.343822e+02
   2.912871e+02   9.326876e+01
   2.058184e+02   2.612580e+02
   3.305836e+01   2.809448e+02
  -1.498170e+02   9.247731e+01
  -1.693860e+02  -1.843873e+01
  -2.890457e+01  -2.920862e+01
   7.652367e+01   6.684764e+01
   2.299772e+01   1.764718e+02
  -1.247435e+02   1.022472e+02
  -1.699675e+02   2.077149e+00
  -4.837469e+01  -6.578403e+01
   1.062142e+02  -6.048422e+01
   5.768064e+01   4.307860e+01
  -1.014932e+02   7.677646e+01
  -2.792745e+02  -8.095895e+01
  -1.887638e+02  -1.940853e+02
  -2.032622e+01  -2.729719e+02
   2.429180e+02  -2.435108e+02
   3.196987e+02  -5.846636e+01
   1.686631e+02   8.096639e+01
  -2.721144e+01   9.844630e+01
  -7.790393e+01  -3.193286e+01
   4.719713e+01  -7.566201e+01
   2.045145e+02  -1.098138e+01
   1.980609e+02   1.757242e+02
   3.380841e+01   2.057481e+02
  -9.724161e+01   7.958140e+01
  -1.177256e+02  -7.034821e+00
  -1.503500e+01  -7.315555e+01
   3.075072e+01  -1.793056e+01
   3.237285e+01   4.625235e+01
  -6.663759e+01   1.036905e+02
  -1.434565e+02  -2.823624e+01
  -1.406481e+02  -1.146484e+02
   2.024820e+01  -2.156619e+02
   1.954148e+02  -1.643083e+02
   1.935948e+02   1.467365e+01
   4.255808e+01   1.720633e+02
  -7.211047e+01   1.200287e+02
  -7.938892e+01  -3.858702e+00
  -4.690658e+01  -9.547426e+01
   2.356159e+01   1.235189e+01
  -1.880241e+01  -1.429669e+00
  -2.600624e+01  -2.120432e+01
  -6.347824e+01  -5.509116e+01
   3.294602e+01  -1.276154e+02
   1.324206e+02  -1.460418e+02
   1.691842e+02  -3.841034e+01
   1.230276e+02   1.608724e+02
   1.852164e+01   2.296304e+02
  -1.568777e+02   1.452697e+02
  -1.547165e+02   1.939013e+01
  -4.101173e+01  -7.923418e+01
  -4.755320e+00  -6.840420e+01
  -5.141566e+01   2.407409e+01
  -3.873655e+01   9.176251e+00
   7.495671e+00  -3.917274e+01
  -2.714040e+01  -9.226951e+01
   7.664081e+01  -2.654337e+01
   6.563245e+01   6.687979e+00
  -1.961128e+00   8.305387e+01
  -1.340177e+02   2.854805e+01
  -1.784019e+02  -8.756869e+01
  -3.697300e+01  -2.325150e+02
   6.863272e+01  -2.081961e+02
   2.697011e+02  -6.034469e+01
   2.098434e+02   9.117094e+01
   9.833702e+01   1.742789e+02
  -4.407597e+01   1.242251e+02
  -1.061285e+02   7.085884e+01
  -8.255797e+01   6.385720e+01
  -5.972103e+01   1.184546e+02
  -1.065002e+02   5.553660e+01
  -8.342831e+01  -6.157019e+01
  -3.892064e+01  -1.369368e+02
   9.049411e+00  -2.088302e+02
   1.391349e+02  -1.350318e+02
   1.780568e+02   4.469803e+01
   1.183225e+02   1.125116e+02
   5.641956e+00   1.650160e+02
  -6.648031e+01   7.398095e+01
  -6.129457e+01   1.951675e+01
   1.497733e+01  -4.668338e+01
   2.406787e+01  -3.657507e+01
  -1.322869e+00  -4.601091e+01
  -1.028524e+02   1.059259e+01
  -7.445619e+00  -5.591057e+01
   7.193125e+01  -8.882063e+01
   1.707379e+02   5.251394e+01
   1.156079e+02   7.807444e+00
   4.819470e+00   5.759756e+01
  -8.388999e+01   7.101184e+01
  -1.023141e+02  -1.374347e+01
  -2.805632e+01  -6.804319e+01
   1.181812e+02  -1.452372e+01
   9.435829e+01   3.131421e+01
  -1.651741e+01   8.187755e+01
  -9.683778e+01   7.722091e+01
  -6.980342e+01  -1.636944e+01
  -8.024546e+00  -4.634243e+01
  -4.287974e+01  -4.876972e+01
  -4.951720e+01   4.621101e+00
  -3.014353e+01  -1.385010e+01
  -1.842451e+01  -7.123953e+01
   2.584609e+01  -1.254255e+02
   9.275112e+01  -1.262590e+02
   1.363239e+02  -2.763604e+01
   1.007859e+02   1.359457e+02
  -2.498698e+01   1.028751e+02
  -9.684467e+01   5.296621e+01
  -5.472573e+01  -5.721970e+01
   6.930234e+01  -9.757622e+00
   1.113316e+02   5.220021e+01
   6.527064e+01   1.369716e+02
  -1.117110e+02   9.758271e+01
  -2.142253e+02   1.291004e+01
  -1.572838e+02  -2.443016e+01
  -4.019126e+01  -6.445928e+01
   2.279343e+01  -6.877658e+01
   3.327526e+01   2.624799e+01
  -2.760544e+01   8.548758e+00
  -8.184182e+01  -4.143258e+01
  -3.380189e+01  -9.308941e+01
   1.245157e+02  -1.031391e+02
   1.728237e+02  -4.144232e+01
   9.294585e+01   1.326857e+02
  -1.321497e+01   1.740706e+02
  -1.031201e+02   1.254456e+02
  -6.235659e+01   7.819669e+00
  -3.553962e+01  -1.039521e+02
   3.482842e+01  -9.780272e+01
   8.588351e+01  -3.811794e+01
   6.906087e+01   4.541872e+01
   1.220730e+01   5.008699e+01
   1.176323e+01  -2.530213e+01
   5.349701e+01   1.104871e+01
   4.451761e+01   9.955642e+01
   4.390219e+01   8.264488e+01
  -5.194597e+01   6.605021e+01
  -1.386454e+02  -4.748994e+01
  -7.721043e+01  -1.178539e+02
  -2.815486e+01  -4.845088e+01
   8.825795e+01   1.265319e+01
   9.499181e+01   2.545807e+00
   3.906140e+01   8.563696e+00
  -6.064985e+00   4.595599e+01
   2.818616e+00   1.899232e+01
   7.833237e+00   2.356601e+01
  -3.881610e+01   1.207386e+01
  -8.660298e+01  -2.582783e+01
  -8.919908e+01  -2.571613e+01
   7.197177e+00  -9.988429e+01
   1.145653e+02  -9.752613e+01
   1.802218e+02  -1.558979e+01
   1.414663e+02   8.537513e+01
   9.685149e+00   1.954959e+02
  -7.364227e+01   1.014801e+02
  -1.448201e+02   3.447897e+01
  -1.118999e+02  -5.215939e+01
  -3.953587e+00  -2.646059e+01
  -1.888433e+01  -2.482283e+01
   2.203339e+01  -6.664402e+00
  -3.453444e+01  -5.842453e+01
  -3.858866e+01  -1.065361e+02
   6.900389e+01  -7.952399e+01
   7.408695e+01   3.903241e+01
   4.018567e+01   1.030656e+02
  -6.268089e+00   1.101488e+02
  -6.893548e+01  -2.272772e-01
  -1.047575e+02  -1.025049e+02
  -8.936484e+00  -8.430206e+01
   7.158948e+01  -4.487836e+01
   1.079939e+02   5.206909e+01
   2.371728e+01   6.706181e+01
  -4.743684e+01   5.574267e+01
  -3.917688e+01   4.418157e+01
   3.538634e+01   1.703929e+00
   7.438177e+01  -2.666234e+00
   1.392974e+01   2.200499e+01
  -7.406300e+01   4.464829e+01
  -1.137559e+02   3.181349e+01
  -7.647824e+01  -5.074063e+00
   2.485368e+01  -9.410396e+01
   4.747454e+01  -2.392223e+01
   6.927229e+01   3.329195e+01
  -2.219094e+01   6.351161e+01
  -8.895974e+01   3.601275e+01
  -1.402421e+00   1.472421e+01
   4.574208e+00  -3.234448e+01
   9.290070e+00   2.691353e+01
   1.668952e+01   1.224188e+01
  -6.984589e+00   1.902538e+01
  -3.184271e+01   1.638217e+01
  -7.771776e+00   3.923575e+01
   2.995767e+01   1.888348e+00
  -2.933076e+01   6.693155e+01
  -1.485297e+01   4.645440e+01
  -4.891596e+01   2.982895e+01
  -1.699140e+01  -3.258749e+01
  -5.630304e+00  -8.086404e+01
   7.122491e+01  -5.390860e+01
   6.581375e+01   5.248608e+01
  -1.257760e+00   1.013229e+02
  -6.002114e+01   7.726954e+01
  -5.207565e+01   1.613264e+01
  -6.028710e+01  -6.184779e+01
   2.146912e+01  -4.760528e+01
   5.740775e+01  -1.986403e+01
   6.399369e+01  -1.358207e+01
  -5.338140e+01   9.780300e+00
  -3.342811e+01  -8.617192e+00
   5.148211e+01   4.985569e+00
   1.119943e+02   6.780701e+00
