
 $NMID
 id='ANONYMOUS ', fmtdat='(2E16.6)'
 volume=1.0
 tramp=1.0
 $END
  -4.732266e+03  -3.847027e+02
  -2.816237e+03  -2.624133e+03
   8.372577e+02  -3.059777e+03
   2.272633e+03  -1.059070e+03
   1.041818e+03   6.821790e+02
  -5.828066e+02   4.735669e+02
  -8.381553e+02  -4.663239e+02
   1.128630e+02  -1.026467e+03
   8.825483e+02  -7.281785e+02
   9.554090e+02   1.887912e+02
   4.211401e+02   8.728487e+02
  -3.209553e+02   9.668496e+02
  -6.163553e+02   8.917604e+01
  -2.833164e+02  -7.724370e+02
   3.518141e+02  -7.576034e+02
   6.379769e+02   5.287894e+01
   2.559496e+02   7.232440e+02
  -4.199713e+02   6.960788e+02
  -6.134609e+02   9.530094e+01
  -4.019213e+02  -3.187698e+02
  -5.982293e+01  -4.510083e+02
   3.014980e+02  -2.699727e+02
   1.547742e+02  -4.161113e+01
  -1.463390e+02   7.528962e+01
  -3.915637e+02  -2.268688e+02
  -2.047097e+02  -5.568517e+02
   4.796409e+02  -4.140420e+02
   9.740478e+02   1.750102e+02
   3.442580e+02   6.110691e+02
  -4.174994e+02   4.298476e+02
  -8.096320e+02  -1.191076e+02
  -3.285813e+02  -4.983607e+02
   3.407000e+02  -5.496139e+02
   5.959142e+02  -2.266215e+02
   4.494876e+02   2.737147e+02
   2.308828e+01   4.540680e+02
  -2.448970e+02   2.532526e+02
  -1.529473e+02  -2.029947e+02
   2.159111e+02  -3.905814e+02
   4.382432e+02   1.100660e+02
   2.659289e+02   7.638907e+02
  -3.687560e+02   6.653096e+02
  -6.212510e+02  -8.562642e+01
  -2.579683e+02  -5.723515e+02
   2.826930e+02  -3.104878e+02
   3.126157e+02   3.612559e+02
  -1.041071e+02   5.784855e+02
  -5.101487e+02   1.010908e+02
  -6.214065e+02  -3.760122e+02
  -8.190638e+01  -6.039430e+02
   4.616674e+02  -3.019444e+02
   6.382960e+02   1.355576e+02
   3.621256e+02   4.207895e+02
  -2.283943e+02   3.749519e+02
  -4.809135e+02   8.716085e+01
  -2.164519e+02  -2.033833e+02
   1.240798e+02  -8.795435e+01
   1.201212e+02   1.702386e+02
  -1.741055e+02   1.089489e+02
  -3.016799e+02  -1.095811e+02
  -1.527088e+02  -2.979707e+02
   1.968730e+02  -2.339662e+02
   3.450930e+02  -6.148111e+01
   2.323325e+02   8.569442e+01
  -5.423817e+01   2.510883e+02
  -2.672854e+02   3.425920e+02
  -3.557661e+02   1.745556e+02
  -2.930049e+02  -1.143996e+02
  -4.703984e+01  -4.771689e+02
   1.308200e+02  -3.357506e+02
   1.084265e+02  -7.454769e+01
   6.595272e+01  -6.456555e+00
   7.118344e+01  -8.096648e+01
   1.747425e+02  -9.739126e+01
   3.070784e+02   8.189310e+01
   1.159433e+02   2.471813e+02
  -7.609399e+01   2.698421e+02
  -2.626525e+02  -1.221354e+01
  -1.736349e+02  -2.929014e+02
   3.210123e+01  -2.742938e+02
   3.008777e+02  -3.011064e+01
   3.762665e+02   2.054655e+02
   1.672688e+02   3.737271e+02
  -1.148212e+02   2.879086e+02
  -2.059779e+02   1.482980e+02
  -1.547025e+02   2.482650e+01
  -1.213238e+02   8.038651e+01
  -2.343487e+02   3.365205e+01
  -4.528445e+02  -4.501694e+01
  -4.028616e+02  -2.916717e+02
   1.979139e+01  -4.988815e+02
   3.915178e+02  -3.826097e+02
   5.527078e+02  -1.995854e+02
   3.181498e+02   8.357471e+01
   6.754671e+01   2.706969e+02
  -1.405389e+02   2.490551e+02
  -9.938162e+01  -5.161238e-01
   1.265596e+02  -1.302934e+02
   1.926033e+02  -5.670505e+00
   3.045276e+01   2.105933e+02
  -1.875000e+02   1.698217e+02
  -1.807445e+02  -7.380731e+01
   3.604657e+01  -1.811678e+02
   1.557358e+02  -2.498133e+01
   1.470179e+02   2.562727e+02
  -1.700328e+01   3.995756e+02
  -2.878306e+02   1.939324e+02
  -3.592992e+02  -6.734453e+01
  -2.665535e+02  -2.258841e+02
  -5.383701e+01  -3.174159e+02
   1.212608e+02  -1.942086e+02
   1.647832e+02   3.139451e+01
   8.376790e+01   1.917240e+01
  -6.031353e+01  -4.001574e+01
  -3.943637e+01  -1.260090e+02
   1.475524e+02  -9.457701e+01
   1.908655e+02   6.848652e+00
   7.760800e+01   7.414040e+01
  -7.968883e+01   1.408951e+00
  -5.939545e+01  -1.175639e+02
   1.437876e+02  -8.049123e+01
   2.807470e+02  -1.264000e+01
   2.508002e+02   1.593041e+02
   4.967106e+01   2.759008e+02
  -2.112851e+02   2.797265e+02
  -2.733522e+02   1.272362e+02
  -1.302871e+02  -7.734721e+01
   5.589590e+01  -9.665883e+01
   1.033034e+02   4.195849e+00
  -6.085673e+01   1.204666e+02
  -2.155516e+02   5.515951e+01
  -1.802841e+02  -1.135498e+02
  -2.363851e+01  -2.249789e+02
   1.085621e+02  -1.555686e+02
   1.600677e+02  -1.706873e+01
   1.060967e+02   1.690958e+01
  -3.304849e+01  -1.983522e+01
  -5.006082e+01  -1.203627e+02
   1.162826e+02  -1.031890e+02
   1.756250e+02  -2.553612e+01
   2.161144e+02   1.685255e+02
   6.323048e+00   2.245114e+02
  -1.633977e+02   1.673957e+02
  -1.591708e+02  -4.103417e+01
  -4.594262e+01  -1.156797e+02
   7.047842e+01  -1.129784e+02
   7.994093e+01   7.315970e+00
   1.339935e+01  -9.960438e+00
   2.798117e+00   2.201458e+01
  -1.729962e+01  -6.754032e+01
   5.785526e+01   2.708934e+01
   7.048738e+01   8.769396e+01
   2.371800e+01   1.330966e+02
  -1.647536e+02   1.254624e+02
  -2.512120e+02   3.308022e+01
  -2.306010e+02  -1.370469e+02
  -5.572488e+01  -2.263438e+02
   8.536505e+01  -2.034282e+02
   1.550778e+02  -4.926033e+01
   7.058127e+01   1.144582e+02
   6.178538e+01   9.046424e+01
   1.088802e+02   3.456791e+01
   6.203805e+01   3.427199e+00
   3.063635e+01   5.253359e+01
  -5.000093e+01   6.532840e+01
  -1.315199e+02   4.713022e+01
  -7.414345e+01  -4.132454e+01
   1.253083e+01  -9.339226e+01
   1.632176e+02  -9.410964e+01
   1.985171e+02   1.004180e+02
   8.170905e+01   2.242067e+02
  -1.377933e+02   2.593797e+02
  -2.616774e+02   7.120871e+01
  -2.924467e+02  -1.326931e+02
  -1.233105e+02  -2.047724e+02
   1.743325e+01  -1.474477e+02
   1.257162e+02  -8.169784e+01
   8.290223e+01  -5.638658e+01
   5.537851e+01  -8.927375e+01
   8.049918e+01  -8.929955e+01
   1.217678e+02   7.758479e+00
   1.563807e+02   1.304131e+02
  -8.326487e+00   2.226834e+02
  -9.922799e+01   1.989602e+02
  -2.176917e+02  -1.532305e+01
  -1.490572e+02  -1.628331e+02
   2.752422e+01  -1.855586e+02
   1.057242e+02  -8.324881e+01
   7.391007e+01   1.495065e+01
  -5.920068e+00   1.450894e+01
  -4.204996e+01   5.160207e+01
   1.576421e+01   9.788570e+00
   7.934194e+01  -1.313731e+00
   6.242468e+01   1.284293e+01
  -2.996522e+01   1.562084e+01
  -2.017382e+02  -3.080320e+00
  -1.230229e+02  -3.502865e+01
   2.250576e+01  -8.761689e+01
   1.380218e+02  -6.597130e+01
   1.338053e+02   2.923860e+01
   6.468584e+01   4.270196e+01
  -8.267927e+01  -2.201527e+01
  -1.196946e+02  -3.307739e+01
  -2.411586e+01  -7.359936e+01
   4.026107e+01  -9.931265e+01
   7.833069e+01  -4.852719e+01
   4.267618e+01   3.550218e+01
   4.162420e+01   3.429904e+01
   5.782520e+01   1.005698e+01
   6.410013e+01   1.010958e+01
   7.988848e+01   5.735298e+01
  -2.309541e+01   1.766093e+02
  -1.389812e+02   9.167636e+01
  -1.886431e+02   5.955198e+01
  -1.139543e+02  -7.972148e+01
   1.835244e+01  -1.592762e+02
   8.718390e+01  -5.240863e+01
   5.736956e+01  -1.262343e+01
  -8.821354e+01   4.707404e+01
  -1.683141e+02  -9.995649e+00
  -9.627872e+01  -1.304197e+02
   1.243137e+02  -1.238573e+02
   1.797079e+02  -6.742836e+00
   1.759244e+02   2.896317e+01
   3.436846e+01   7.964861e+01
  -5.548582e+01   6.713888e+01
  -1.359025e+01   1.228516e+01
   7.308891e+01   4.611554e+00
   9.055096e+01  -4.622852e+00
   3.950342e+01   1.165588e+02
  -1.135629e+02   1.479976e+02
  -1.818320e+02   5.349345e+01
  -1.370200e+02  -1.001324e+02
   2.612046e+01  -1.962511e+02
   1.019788e+02  -1.138904e+02
   1.326332e+02  -9.453067e+00
   4.809894e+01   1.211914e+02
   4.923520e+01   1.346678e+02
  -8.225744e+01   1.817920e+01
  -4.638104e+01  -5.209926e+01
  -3.603103e+01  -2.721197e+01
  -1.898271e+01   2.221605e+01
  -2.131002e+01  -6.155260e+01
  -9.436758e+01  -1.281448e+02
  -3.623800e+01  -6.186900e+01
   2.322291e+01  -5.731525e+01
   1.697864e+02   8.078478e+01
   1.102991e+02   1.016156e+02
   1.613482e+00   8.017638e+01
  -1.037973e+02   3.172372e+00
  -1.068709e+02   3.639102e+01
   4.712676e+01  -2.875537e+01
   9.810979e+01  -3.843018e+01
  -1.810490e+01  -1.416685e+01
  -6.771484e+01  -2.235762e+00
   7.558502e+00   2.660232e+01
   7.308619e+01   8.538119e+00
   1.071104e+02  -6.259047e+00
   3.417741e+01   4.791453e+01
  -1.415341e+02   1.392821e+02
  -1.848779e+02   5.911743e+01
  -1.870775e+02  -1.087229e+02
   2.880219e+01  -1.848486e+02
   5.592147e+01  -1.855477e+02
   1.017343e+02  -1.830146e+01
   9.082756e+01   2.759935e+01
   5.671860e+01   5.248648e+01
   3.545489e+01   8.670572e+00
   3.452040e+01   1.289509e+01
   4.469195e+01   4.007689e+01
   4.698509e+01   1.120523e+02
  -3.989931e+01   7.923516e+01
  -9.485150e+01   2.229207e+01
  -3.648193e+01  -6.726905e+01
   3.235667e+01  -1.512535e+02
   8.880514e+01  -8.207943e+00
   1.058759e+02   1.038767e+02
   2.671073e+01   5.890003e+01
  -8.001839e+01   6.196418e+01
  -1.069834e+02  -8.751936e+00
  -3.380922e+01  -4.117924e+01
   5.134740e+01  -4.518373e+01
   4.345724e+01  -9.163627e+00
  -1.567820e+01   4.227895e+01
  -9.131285e+01  -1.243648e+01
   7.311415e+00  -2.404144e+01
   5.792488e+01  -5.596169e+01
   1.239126e+02  -5.696990e+01
   1.120725e+02   2.289928e+01
   3.713056e+01   7.946188e+01
  -7.827713e+01   1.208705e+02
  -3.079703e+01  -2.752504e+01
  -1.443868e+01  -1.851507e+01
   2.568557e+01  -1.895401e+01
   2.308382e+01   1.368982e+01
   5.673702e+00   5.867373e+01
   6.755471e+00   7.454493e+01
   1.817707e+01  -6.412175e+01
  -4.354122e+01  -6.788141e+01
  -3.236746e+01  -2.978405e+01
   1.625883e+00   7.255554e+00
   4.388283e+01  -3.656934e+01
  -1.431554e+01  -2.045772e+01
  -1.593768e+01  -3.709246e+01
   4.673795e+01  -4.958394e+01
   4.609948e+01   4.698225e+01
  -5.537784e+01   8.021707e+01
  -5.136501e+01   1.354894e+01
  -3.255162e+01  -8.061567e+00
  -3.388344e+00  -2.066794e+01
   6.497138e+01  -3.263138e+01
   5.902153e+01   3.166383e+01
   5.048518e+01   6.110448e+01
   3.600981e+01   5.478500e+01
  -3.661796e+01   2.700992e+01
  -1.804654e+01   2.242063e+01
   5.806951e-01  -2.017116e+01
   1.826186e+01   1.706555e+01
  -1.417625e+01   3.389969e+01
  -7.531897e+01   3.094463e+01
