
 $NMID
 id='ANONYMOUS ', fmtdat='(2E16.6)'
 volume=1.0
 tramp=1.0
 $END
  -2.861185e+03  -3.527279e+02
  -2.287755e+03  -1.484206e+03
   4.367626e+01  -2.087099e+03
   1.115177e+03  -1.074694e+03
   9.058443e+02  -1.701592e+02
   4.014374e+01   1.166815e+02
  -2.756549e+02  -1.662751e+02
   2.668036e+01  -5.091721e+02
   5.114596e+02  -4.934073e+02
   6.451401e+02  -1.987203e+01
   4.413020e+02   4.816773e+02
  -1.767802e+01   6.301115e+02
  -3.246098e+02   1.643425e+02
  -2.491286e+02  -4.074799e+02
   1.243275e+02  -4.840030e+02
   4.653750e+02  -1.658906e+01
   2.717197e+02   5.077612e+02
  -2.052303e+02   5.620061e+02
  -5.240471e+02   2.159171e+02
  -4.657455e+02  -1.749982e+02
  -1.047763e+02  -3.728670e+02
   1.601501e+02  -2.158096e+02
   9.313510e+01  -7.331655e+01
  -2.395460e+02  -3.419148e+01
  -2.624872e+02  -3.268820e+02
   4.704494e+01  -3.622872e+02
   4.517503e+02  -1.702205e+02
   5.570265e+02   1.965687e+02
   1.654606e+02   3.513255e+02
  -3.281954e+02   1.340082e+02
  -5.285519e+02  -9.622348e+01
  -1.606618e+02  -3.815205e+02
   2.820748e+02  -2.901092e+02
   4.516337e+02  -1.068021e+02
   2.847909e+02   1.899735e+02
   3.903925e+01   3.054635e+02
  -1.078410e+02   1.960957e+02
   7.103062e+01  -1.020121e+02
   2.201903e+02  -1.150285e+02
   1.603813e+02   1.390627e+02
  -6.003092e+01   4.817854e+02
  -2.715266e+02   4.312145e+02
  -3.365355e+02  -1.691159e+01
  -1.150745e+02  -3.427866e+02
   1.505089e+02  -9.941401e+01
   1.301123e+02   2.505981e+02
  -1.281149e+02   3.788404e+02
  -4.526213e+02   2.304737e+01
  -4.357156e+02  -3.892241e+02
  -7.675101e+01  -4.937049e+02
   2.498281e+02  -2.502053e+02
   4.665151e+02   6.361089e+01
   3.272856e+02   2.202417e+02
  -4.658394e+01   2.072158e+02
  -3.076804e+02   3.755776e+01
  -2.054934e+02   2.347267e+00
  -3.460107e+01  -1.123967e+00
   2.407872e+01   8.114721e+01
  -5.352473e+01   3.361455e+01
  -2.421136e+02  -2.217538e+00
  -1.251523e+02  -2.006268e+02
   1.506309e+02  -2.507376e+02
   3.018539e+02  -4.411595e+01
   2.214307e+02   1.175402e+02
  -2.844505e+01   3.006016e+02
  -2.476384e+02   3.284519e+02
  -3.386027e+02   1.396994e+02
  -2.012885e+02  -1.579826e+02
  -6.368437e+01  -2.968712e+02
   7.201494e+01  -3.125445e+02
  -9.062261e-01  -9.696821e+01
   3.527108e+01  -1.272010e+02
   1.475246e+02  -1.148036e+02
   2.572736e+02  -2.214164e+00
   2.006810e+02   1.005363e+02
   6.275037e+01   2.395950e+02
  -8.713265e+01   1.598325e+02
  -2.176312e+02  -1.228850e+02
  -1.018412e+02  -2.339967e+02
   7.326378e+01  -2.145222e+02
   2.429704e+02  -1.022593e+01
   2.923893e+02   2.086588e+02
   1.359981e+02   3.320507e+02
  -6.431835e+01   2.294242e+02
  -1.439632e+02   1.140701e+02
  -1.480273e+02   5.373595e+01
  -1.468765e+02   2.676322e+01
  -2.652184e+02   3.207703e+01
  -3.804645e+02  -1.406633e+02
  -2.920638e+02  -3.288544e+02
   1.857309e+01  -4.324669e+02
   3.938135e+02  -3.690615e+02
   4.768579e+02  -1.512470e+02
   2.955053e+02   9.870328e+01
   3.961692e+00   2.083600e+02
  -1.204511e+02   1.928645e+02
  -9.381962e+00   4.568084e+00
   1.499018e+02  -3.551560e+01
   1.266287e+02   4.509290e+01
   2.771915e+01   1.743167e+02
  -1.094560e+02   8.544443e+01
  -8.290007e+01  -2.575760e+01
   2.480838e+01  -1.571597e+02
   1.852149e+02   3.063775e+00
   1.185735e+02   2.046695e+02
  -5.282769e+00   3.297797e+02
  -2.280945e+02   1.554330e+02
  -3.010308e+02  -7.514672e+01
  -1.781215e+02  -2.929498e+02
  -2.170962e+01  -2.364247e+02
   1.236963e+02  -1.145080e+02
   1.310039e+02   1.732851e+01
  -2.401458e+01   9.229907e+00
  -4.951970e+01  -6.199966e+01
   1.308064e+01  -1.138420e+02
   1.017954e+02  -1.165430e+02
   1.584271e+02   3.423646e+01
   3.749521e+01   1.092972e+02
  -7.355370e+01   9.448627e+00
  -6.277968e+01  -6.651006e+01
   1.835473e+02  -8.844760e+01
   2.857777e+02   5.198796e+01
   2.532013e+02   2.088798e+02
   3.715398e+01   2.571482e+02
  -2.132229e+02   2.401262e+02
  -2.618434e+02   3.951301e+01
  -1.154312e+02  -7.355915e+01
   5.427801e+01  -7.457778e+01
   2.324967e+01   7.517365e+00
  -4.303292e+01   9.362077e+01
  -1.908942e+02   4.543869e+01
  -1.674246e+02  -9.125695e+01
  -5.181972e+01  -2.113527e+02
   1.488766e+02  -1.050208e+02
   8.485365e+01  -2.359514e+01
   5.696242e+01   6.796848e+01
  -4.627085e+01  -2.385254e+01
  -7.742076e+00  -1.205871e+02
   1.092827e+02  -1.259151e+02
   1.906204e+02   2.484599e+01
   1.279282e+02   1.095279e+02
  -1.249982e+01   2.154684e+02
  -1.492881e+02   1.075474e+02
  -1.595312e+02   2.814042e+01
  -1.662897e+01  -7.271566e+01
   3.585889e+01  -5.204666e+01
   8.045838e+01  -1.452041e+01
  -1.248195e+01   1.996063e+01
  -3.542904e+01  -4.636571e+01
   1.634701e+01  -4.973097e+01
   1.167326e+02   2.393743e+00
   9.889056e+01   1.181219e+02
  -1.666690e+01   1.899185e+02
  -1.751100e+02   1.368499e+02
  -2.517827e+02  -1.322767e+01
  -1.567055e+02  -1.352115e+02
   1.561151e+01  -2.136949e+02
   6.516090e+01  -1.702174e+02
   1.324770e+02  -8.456495e+00
   8.329045e+01   2.176797e+01
   3.056554e+01   1.998415e+01
   4.042550e+01  -4.038792e+01
   1.069913e+02   7.467574e+00
   6.140987e+01   8.248141e+01
  -3.827875e+01   1.362322e+02
  -1.321108e+02   9.675202e+01
  -1.183173e+02  -4.434146e+01
   3.112753e+01  -1.355636e+02
   1.193546e+02  -8.414248e+01
   1.772388e+02   3.128262e+01
   5.557767e+01   2.208020e+02
  -1.302861e+02   1.943875e+02
  -2.846735e+02   3.087973e+01
  -2.404865e+02  -1.298520e+02
  -6.811000e+01  -1.758643e+02
   5.403612e+01  -1.333087e+02
   6.792292e+01  -6.923235e+01
   4.048046e+01  -1.162335e+02
   9.134948e+01  -1.201165e+02
   6.993634e+01  -8.693978e+01
   1.190582e+02   3.612620e+01
   1.239598e+02   1.709820e+02
   2.131844e+01   2.318705e+02
  -1.148311e+02   1.431304e+02
  -1.389019e+02  -2.166444e+00
  -1.212158e+02  -1.864854e+02
  -1.280206e+01  -1.281447e+02
   9.082423e+01  -6.873895e+01
   6.380244e+01   3.056273e+01
  -9.120580e+01   8.671344e+01
  -5.016345e+01   2.182781e+01
   6.997168e+01   9.375124e+00
   7.046888e+01  -1.015791e+01
   1.817576e+01   4.926058e+01
  -9.223374e+01   8.781395e-01
  -1.862074e+02   6.448495e+00
  -1.575760e+02  -8.939189e+01
   9.673193e+00  -1.172731e+02
   1.654585e+02  -5.858422e+01
   1.442625e+02   2.242087e+01
   3.492177e+01   4.400009e+01
  -8.619759e+01   1.159398e+01
  -2.982456e+01   5.639973e+00
  -4.756845e+01  -5.296742e+01
   2.643789e+01  -5.999671e+01
   1.024185e+02  -7.922280e+00
   1.607712e+01   6.877363e+01
   3.195376e+01   4.910650e+01
   7.975412e+01   3.885852e+00
   5.377184e+01   1.336034e+01
   1.154033e+01   8.902050e+01
  -1.781857e+01   1.598869e+02
  -1.090399e+02   1.073919e+02
  -1.431662e+02  -1.578065e+00
  -1.343798e+02  -9.370639e+01
   3.283326e+01  -8.854659e+01
   7.480238e+01  -7.229065e+01
   7.656529e+01   4.428043e+01
  -5.774129e+01   3.868629e+01
  -1.337870e+02  -1.216788e+01
  -2.829009e+01  -1.108540e+02
   8.742055e+01  -1.100801e+02
   1.233266e+02  -2.864333e+01
   1.125945e+02   8.688552e+00
   1.782992e+01   7.815294e+01
  -4.685984e+01   8.828531e+00
  -3.513770e+01   2.825040e+01
   7.399581e+01  -2.975168e+01
   8.937154e+01   3.005292e+01
   2.549942e+01   9.631590e+01
  -9.013964e+01   1.451358e+02
  -1.029629e+02   9.752248e+01
  -1.214830e+02  -1.140169e+02
   1.204128e+01  -1.415826e+02
   5.505827e+01  -9.960289e+01
   7.377683e+01  -7.675213e+00
   7.101491e+01   9.598676e+01
  -3.017178e+01   1.011065e+02
  -2.864781e+01  -5.560319e+00
  -6.064137e+01  -2.950949e+01
   1.800718e+01  -2.893182e+01
   3.408043e+01   1.209226e+01
  -4.010834e+01  -4.307327e+01
  -5.452687e+01  -8.751553e+01
  -2.255956e+01  -7.427675e+01
   1.183693e+02  -3.149969e+01
   1.527603e+02   1.166912e+01
   1.247503e+02   3.119287e+01
  -3.539223e+00   6.793196e+01
  -6.262820e+01   3.050119e+01
  -6.365752e+01  -3.459043e+00
  -6.479952e+00   9.747555e-01
  -1.206078e+01  -1.186003e+01
  -2.314717e+01   2.778601e+01
   1.094594e+00  -1.895536e+01
   1.417883e+01   9.382608e+00
   6.322212e+01  -1.480355e+01
   1.027022e+02   8.954186e+00
   2.948354e+01   9.510149e+01
  -1.125041e+02   1.278031e+02
  -2.125586e+02   9.084629e+01
  -1.705379e+02  -5.514031e+01
  -4.297253e+01  -1.572423e+02
   4.381214e+01  -1.278875e+02
   1.334638e+02  -7.510814e+01
   1.311609e+02   5.848391e+01
   4.788358e+01   2.078210e+01
   1.060595e+01   2.932030e+01
  -2.554535e+01   7.684646e+00
   2.529136e+01   4.281825e+01
  -2.231983e+00   7.311389e+01
  -2.289669e+01   7.989389e+01
  -1.027212e+02   6.327972e+00
  -9.699899e+01  -1.173204e+02
  -2.657107e+01  -6.967865e+01
   8.138810e+01  -2.522204e+01
   9.946414e+01   8.914750e+01
   6.673430e+01   9.292780e+01
  -1.055349e+02   5.002768e+01
  -1.211388e+02  -1.350964e+01
  -4.779093e+01  -7.345908e+01
  -1.835328e+01  -5.772049e+01
   4.794046e+01  -5.029208e+01
  -1.318813e+01  -2.026957e+01
  -5.323982e+01  -2.721583e+01
   1.028112e+01  -2.505094e+01
   1.088548e+02  -1.103725e+02
   1.116246e+02  -2.752997e+01
   3.507137e+01   3.286125e+01
  -3.687689e+01   3.516929e+01
  -1.127608e+02   7.257271e+01
  -1.538779e+01   1.501847e+01
   5.518166e+00  -6.384103e+01
   8.693203e+01  -4.846594e+01
   5.540054e+01  -1.716511e+00
   1.230975e+01   7.970872e+01
  -1.122581e+01   2.408968e+01
  -8.398813e+00  -1.479393e+01
  -2.584319e+01  -7.095881e+01
  -1.784826e+01  -8.000733e+00
   1.844177e+01   5.966563e+01
  -8.909875e-02   2.440333e+01
  -4.374311e+01  -4.345103e+01
  -3.469153e+00  -4.018357e+01
   4.388158e+01  -5.464389e+01
   6.259053e+01   3.577149e+01
   5.573006e+00   8.717926e+01
  -6.312422e+01   3.208723e+01
  -5.376914e+01  -7.094706e+00
  -1.948572e+01  -6.745627e+01
   3.067134e+01  -2.862607e+01
   8.902360e+01  -1.286756e+01
   6.854145e+01   1.281201e+01
  -2.062061e+01   3.620653e+01
  -6.700960e+01   4.036337e+01
  -2.960147e+01  -2.948112e+00
   3.078080e+01  -1.637945e+01
   6.414276e+01  -1.708774e+01
  -1.961690e+01   9.469931e+00
  -9.010427e+01   1.768499e+01
