
 $NMID
 id='ANONYMOUS ', fmtdat='(2E16.6)'
 volume=1.0
 tramp=1.0
 $END
   2.366635e+03   4.289540e+02
   1.559762e+03   1.683131e+03
  -3.260699e+02   1.719896e+03
  -9.702944e+02   6.860973e+02
  -6.627033e+02  -1.785792e+02
   1.486831e+02  -2.213134e+02
   3.923610e+02   1.331047e+02
  -3.976401e+01   5.842942e+02
  -4.290041e+02   4.064200e+02
  -4.966652e+02  -1.186769e+02
  -2.471420e+02  -4.570610e+02
   1.161751e+02  -4.995606e+02
   2.686906e+02  -5.630857e+01
   1.717953e+02   3.225779e+02
  -1.171916e+02   4.060592e+02
  -3.125064e+02  -5.979587e+01
  -9.540999e+01  -4.296113e+02
   2.453001e+02  -3.676229e+02
   3.687613e+02  -5.184577e+01
   2.852025e+02   2.007248e+02
   6.864614e+00   2.888111e+02
  -1.217889e+02   1.107083e+02
  -1.281925e+02   6.969111e+01
   1.201002e+02   1.604118e+01
   1.790053e+02   1.538549e+02
  -3.342780e+00   2.279302e+02
  -3.687742e+02   1.251563e+02
  -4.059333e+02  -1.293603e+02
  -1.254242e+02  -2.803484e+02
   2.344319e+02  -1.809395e+02
   3.909837e+02   6.910771e+01
   9.608716e+01   3.187310e+02
  -1.654436e+02   2.383289e+02
  -3.320510e+02   5.807257e+01
  -2.496574e+02  -1.668539e+02
  -7.110298e+01  -2.137878e+02
   1.140337e+02  -1.892103e+02
   5.793225e+00   7.880409e+01
  -5.367832e+01   1.505827e+02
  -1.829492e+02  -8.073815e+01
  -5.123640e+01  -3.165047e+02
   2.657068e+02  -3.273526e+02
   3.162187e+02   8.603046e+00
   9.070950e+01   1.978273e+02
  -1.408348e+02   8.583278e+01
  -1.368210e+02  -2.772929e+02
   7.688357e+01  -2.902354e+02
   3.294657e+02  -5.250640e+01
   3.040466e+02   3.250076e+02
   1.749626e+01   3.620604e+02
  -2.419850e+02   1.915081e+02
  -2.896648e+02  -5.612298e+01
  -2.634968e+02  -1.999257e+02
   1.490299e+02  -2.207664e+02
   2.492425e+02  -3.431290e+01
   1.423779e+02   4.727969e+01
  -5.762992e+01   3.650838e+01
  -3.478053e+01  -3.637851e+01
   6.565962e+01  -6.492052e+01
   1.588193e+02   7.824667e+01
   6.169480e+01   1.448354e+02
  -8.890173e+01   1.332533e+02
  -1.556310e+02   1.020310e+01
  -1.164444e+02  -1.328525e+02
   8.186276e+01  -1.739955e+02
   1.864114e+02  -1.889207e+02
   1.810500e+02  -1.447904e+02
   1.497125e+02   6.814845e+01
   1.821030e+01   2.653649e+02
  -1.182861e+02   2.477383e+02
  -6.000826e+01   7.676457e+01
  -5.395785e+01   4.094684e+00
  -6.807557e+01   3.988075e+01
  -1.438689e+02   4.155465e+01
  -1.442332e+02  -5.964468e+01
  -6.463239e+01  -1.395563e+02
   4.160798e+01  -1.077866e+02
   1.091298e+02   1.589538e+01
   5.970680e+01   1.916807e+02
  -5.650257e+01   1.587707e+02
  -1.471739e+02   3.035833e+01
  -2.091018e+02  -1.422976e+02
  -6.953247e+01  -2.159088e+02
   7.189189e+01  -1.569096e+02
   1.234875e+02  -7.788945e+01
   7.796416e+01  -2.453792e+01
   1.130052e+02  -4.910841e+01
   1.691064e+02  -1.414826e+01
   2.283912e+02   1.371216e+02
   2.250011e+02   2.211462e+02
  -5.244211e+01   3.006513e+02
  -2.899554e+02   1.814805e+02
  -2.670593e+02   8.835887e+01
  -1.733385e+02  -5.454354e+01
  -2.852740e+01  -1.352846e+02
   6.341725e+01  -1.196532e+02
   1.129374e+01  -2.119205e+01
  -3.773325e+01  -8.294293e-01
  -9.133278e+01  -2.008014e+01
  -4.301045e+01  -9.896814e+01
   8.124767e+01  -2.874473e+01
   4.675183e+01   3.887852e+01
  -7.122291e-01   1.046138e+02
  -8.274202e+01   5.676145e+00
  -9.269858e+01  -1.659434e+02
   6.504651e+01  -2.063619e+02
   1.670089e+02  -7.097122e+01
   2.236437e+02   5.423198e+01
   1.090957e+02   1.667303e+02
   3.265361e+01   2.048906e+02
  -1.318134e+02   6.480105e+01
  -1.059357e+02  -2.763030e+00
  -1.741209e+01  -4.091030e+01
   3.600030e+01   6.638768e+01
  -7.424920e+00   7.133853e+01
  -1.093731e+02   4.918201e+00
  -9.383459e+01  -6.234197e+01
  -2.084105e+01  -5.521432e+01
   3.728762e+01   1.828929e+01
   8.813546e+00   8.998474e+01
  -1.195401e+02   1.020610e+02
  -2.412384e+02  -7.124389e+01
  -1.422627e+02  -1.225944e+02
  -9.727342e+00  -1.736849e+02
   1.179877e+02  -1.037438e+02
   1.847005e+02  -6.457710e+01
   7.536890e+01   3.323701e+01
  -2.157835e+00   4.358573e+01
  -5.103255e+01   9.970386e+00
   1.711114e+01  -5.715841e+01
   1.258968e+02  -2.714409e+01
   1.056969e+02   7.837386e+01
   2.278037e+01   1.352775e+02
  -7.655950e+01   9.904917e+01
  -9.155543e+01   8.536164e+00
  -2.543789e+01  -2.183472e+01
   2.023554e+01   3.973391e+01
  -8.147431e+00   1.106795e+02
  -5.990620e+01   8.726608e+01
  -1.671264e+02   5.744418e+01
  -1.026661e+02  -1.171269e+02
   4.220456e+01  -1.130258e+02
   1.077548e+02  -8.436831e+01
   1.090039e+02   9.191092e+00
   4.072307e+01   7.124164e+01
  -3.964492e+01   2.995892e+01
  -8.144779e+01   2.127650e+01
   8.146279e+00  -1.458040e+01
   4.002489e+01   2.684722e+01
  -3.540547e+01  -1.240846e+01
  -3.844403e+01  -2.483016e+01
  -5.596283e+01  -6.501974e+01
   4.597177e+01  -1.338268e+02
   8.283413e+01  -5.359330e+01
   1.069020e+02   8.265996e+01
   1.358606e+02   1.215174e+02
   1.305008e+01   1.197079e+02
  -5.823997e+01   8.921302e+01
  -9.213157e+01   3.492743e+01
  -1.876197e+01  -1.334223e+01
  -1.263810e+01  -2.796527e+01
  -5.857986e+01  -2.330908e+01
  -6.577322e+01   4.809735e+00
  -1.277341e+01  -5.329975e+01
   7.548615e+01  -7.995923e+01
   1.248754e+02  -2.934259e+01
   7.839364e+01   2.151828e+01
  -2.589218e+01   7.516918e+01
  -1.249007e+02   6.480192e+01
  -1.026434e+02  -5.270388e+01
  -3.484273e+01  -1.573563e+02
   8.324159e+01  -1.510640e+02
   1.677862e+02  -4.665580e+01
   1.656736e+02   8.052391e+01
   7.196982e+01   9.684682e+01
  -7.516371e+01   1.034645e+02
  -7.008258e+01   8.656319e+01
  -6.923191e+01   6.284076e+01
  -4.727185e+01   4.230307e+01
  -6.424402e+01   2.498688e+01
  -4.571446e+01  -1.758816e+01
  -1.650662e+01  -1.082436e+02
   1.398970e+00  -1.608407e+02
   1.229862e+02  -1.089999e+02
   5.962683e+01   6.250747e+00
   4.221241e+01   1.243167e+02
   9.629322e+00   1.128699e+02
  -7.417578e+01   4.898103e+01
  -5.351694e+01   5.213415e+00
   2.812015e+01  -1.576140e+01
  -2.467703e+01  -2.133505e+01
  -5.370736e+01  -2.319120e+01
  -7.313382e+01   3.026846e+00
  -4.021730e+01  -2.061554e+01
   9.316518e+00   1.126462e+01
   1.313093e+02   2.171209e+01
   7.535143e+01   3.824519e+01
   4.504285e+00   4.949086e+01
  -9.921142e+01   4.055811e+01
  -9.266803e+01  -2.172457e+01
  -2.967058e+01  -4.606254e+01
   6.782187e+00   1.010634e+01
   5.514178e+01   2.509486e+01
   1.632178e+01   6.978518e+01
  -2.220172e+01   5.799423e+01
  -6.279686e+01  -2.306548e+01
  -5.426724e+01  -1.449293e+01
  -2.051334e+01  -2.041837e+01
  -4.844302e+01  -4.409997e+01
  -5.670085e+01   2.162166e+01
  -1.526444e+01  -1.882117e+01
   3.319959e+01  -1.271591e+02
   5.878861e+01  -5.108961e+01
   9.901735e+01  -1.985894e+01
   6.653069e+01   3.234376e+01
  -1.842170e+01   9.978385e+01
  -4.618419e+01   1.294860e+01
  -4.274875e+01  -1.832361e+01
   3.402096e+01   2.530276e+00
   8.443544e+01   1.556035e+00
   2.462912e+01   8.201697e+01
  -1.057908e+02   4.620665e+01
  -1.497023e+02   8.096167e+00
  -1.276179e+02  -2.444983e+01
  -3.826229e+01  -5.798624e+01
   1.516582e+01  -7.313908e+01
   3.601373e+01   1.223975e+00
  -3.921701e+01  -5.422166e+00
  -5.670857e+01  -1.937526e+01
   3.215884e-01  -9.885525e+01
   9.656008e+01  -6.414308e+01
   1.144577e+02  -8.295508e+01
   7.918733e+01   5.770518e+01
  -3.216984e+01   1.182680e+02
  -7.682184e+01   4.557508e+01
  -6.821130e+01  -7.814083e+00
  -5.376837e+00  -1.057726e+02
   2.359550e+01  -1.218481e+02
  -1.798647e+01  -3.807808e+01
   7.027334e+01   8.538522e+00
   4.926671e+01   9.609897e+00
  -1.461765e+01   1.122072e+01
   4.120462e+01   3.426869e+01
   2.060352e+01   8.467908e+01
   4.962248e+01   8.865813e+01
  -4.808543e+01   2.950075e+01
  -6.989219e+01  -4.752397e+01
  -1.012180e+02  -1.228078e+01
  -5.848848e+01  -1.857476e+01
   3.149344e+01  -3.892585e+00
   6.139956e+01  -2.580642e+01
   2.567077e+01   1.595418e-01
  -3.169267e+01   1.925689e+01
   1.572450e+01   1.925251e+01
  -4.353465e+00   1.116894e+01
  -6.875227e+01  -1.507320e+01
  -5.636760e+01  -1.758386e+01
  -4.095976e+01  -3.001816e+01
   7.963596e+00  -3.919743e+01
   9.230877e+01  -3.957930e+01
   1.362040e+02  -7.498015e+01
   8.251962e+01   7.824434e+01
  -4.608035e+00   8.119076e+01
  -5.770204e+01   9.686332e+01
  -1.024850e+02   2.916193e+01
  -4.971773e+01  -5.967963e+01
   5.286264e+00  -3.406116e+01
  -4.690025e+01  -5.995791e+01
  -2.762000e+01  -7.805555e+00
  -5.207727e+01  -2.351092e+01
  -2.188516e+01  -2.807374e+01
   2.993350e+01  -4.250965e+01
   6.501693e+01   2.033267e+01
   3.215527e+01   8.654895e+01
   8.845641e+00   9.714270e+01
  -1.045852e+01   2.152046e+01
  -6.033740e+01  -6.295783e+01
  -2.749302e+01  -2.846858e+01
   4.518048e+00  -3.589711e+01
   4.003417e+01   1.162678e+01
   6.463524e+01   2.468114e+01
  -2.744233e+01  -2.531479e+00
  -4.098035e+01  -1.756105e+01
   1.513499e+01  -4.349143e-01
   1.479402e+01   3.935522e+01
  -3.192281e+01   3.960048e+01
  -5.557629e+01   2.628649e+01
  -9.256958e+01   2.093371e+01
  -6.705997e+01  -9.877796e+00
  -5.437117e+00  -7.676318e+01
   4.967171e+01  -3.512800e+01
   3.946629e+01  -2.665976e+01
  -1.184658e+01  -1.201691e+01
  -5.434252e+01   1.304875e+01
  -4.366889e+01   1.807930e+01
  -2.256562e+00   1.442572e-01
   3.905093e+01  -6.498801e+00
   3.038123e+01  -3.434459e+01
   4.319321e+01   3.009504e+01
   2.134875e+01  -2.279754e+01
   8.970531e+00  -6.435294e+00
   2.620242e+01  -1.349204e+01
   1.527423e+01   4.547887e+01
  -2.082334e+01   1.465439e+01
  -5.835115e+01   1.939485e+01
  -5.038254e+01  -2.642502e+01
  -9.704271e+00  -3.274398e+01
   3.491260e+01  -3.309593e+01
   2.290180e+01   4.092967e+01
   2.176221e+01   5.585345e+01
  -3.935555e+01   6.728647e+00
  -3.635043e+01   3.124530e+01
  -2.859463e+01  -3.297734e+01
   7.039753e+00  -4.441818e+01
   4.801856e+01  -2.506334e+00
  -3.902859e+00  -3.337650e+00
  -3.722805e+01  -3.932067e+00
  -1.516338e+01  -3.308732e+01
  -2.184725e+01  -3.523122e+01
   1.058789e+02   2.054310e+00
