
 $NMID
 id='ANONYMOUS ', fmtdat='(2E16.6)'
 volume=1.0
 tramp=1.0
 $END
  -9.268467e+02  -6.938818e+02
  -3.585723e+02  -8.947687e+02
   3.318259e+02  -7.081028e+02
   4.809424e+02  -2.107444e+02
   1.148306e+02  -2.411365e+01
  -1.281853e+02  -9.894919e+01
   5.059998e+01  -1.935826e+02
   2.567581e+02  -9.800136e+01
   1.678361e+02   8.428222e+01
   9.845839e+01   1.306613e+02
  -5.649326e+01   1.004086e+02
  -7.813261e+01   9.258261e+01
  -2.437869e+01   5.048876e+01
   1.200940e+01  -8.428994e+01
   1.616038e+01  -1.097704e+02
  -1.010196e+01   5.578622e+01
  -5.848628e+01   1.281645e+02
  -1.650841e+02   5.401368e+01
  -3.497387e+01  -3.183672e+01
  -1.055050e+01  -2.204419e+01
   1.055223e+01  -3.257123e+01
  -2.302195e+01  -6.186105e+01
  -6.959686e+00  -1.071108e+02
   8.883935e+00  -6.405029e+01
   2.145840e+01  -1.068041e+02
   1.021351e+02  -7.035653e+00
   1.178784e+02   3.206338e+01
   1.022612e+02   1.539399e+02
   2.188885e+01   1.105577e+02
  -1.030105e+02  -3.692606e+01
  -1.270481e+02  -6.596400e+01
   2.978678e+01  -4.715991e+01
   1.018714e+02   1.714185e+01
   5.105175e+01   5.055053e+01
   3.441815e+01   3.823601e+01
   4.734965e+01   2.627706e+01
  -1.281741e+01   5.532105e+01
   6.710079e+01   3.143432e+01
   3.880739e+01   1.803902e+01
  -3.190436e+01   1.291092e+02
  -4.939807e+01   1.111382e+02
  -8.045254e+01   9.547529e+01
  -8.853651e+01  -6.633093e+01
   1.044530e+01  -3.922193e+01
   5.891721e+01   9.096119e+00
  -3.520718e+01   1.453268e+02
  -1.080899e+02   9.245908e+01
  -1.040964e+02  -6.816864e+01
  -2.911836e+01  -1.804668e+02
   6.047791e+01  -7.643844e+01
   1.109187e+02   5.677412e+00
   4.192432e+01   1.025760e+02
   7.530297e+01   4.111153e+01
  -3.621975e+01  -1.018637e+01
  -1.118823e+02  -7.557428e+01
  -3.834020e+01  -2.563278e+01
  -5.980288e+01  -1.805988e+00
  -6.472881e+00  -1.169232e+01
  -5.479122e+01   3.095167e+01
  -5.715344e+00  -8.424519e+01
   4.218007e+01  -5.274532e+01
   1.184174e+02   1.179872e+01
   4.757626e+01   3.196105e+01
   3.164026e+01   3.616992e+01
  -4.627096e+01   2.269598e+01
  -2.936508e+01   1.732709e+01
  -9.446784e+01   8.836263e+01
  -2.937914e+01  -2.574797e+01
  -5.210867e+01  -8.846272e+01
  -6.585289e+00  -5.054009e+01
   3.924888e+01  -6.527554e+01
  -2.018106e+00   1.823008e+01
   6.706448e+01  -1.600717e+01
   6.557806e+01   1.033535e+01
   2.020097e+01   5.505282e+01
  -4.718913e+01   3.217170e+01
  -8.966590e+01  -3.953407e+00
  -1.814934e+01  -9.767614e+01
   3.825332e+01  -1.362359e+02
   3.134162e+01  -2.166673e+01
   1.940777e+01   3.781081e+01
   1.194906e+01   8.364748e+01
   1.170547e+01   5.680091e+01
  -6.774023e+01   4.804216e+01
  -4.840175e+01  -6.177489e+00
  -5.990946e+01  -7.545838e-01
  -4.487824e+01   9.440324e+00
  -7.829615e+01  -9.224727e+01
  -4.923250e+01  -1.410817e+02
  -7.447007e+00  -1.220551e+02
   1.069471e+02  -1.097795e+02
   1.411035e+02  -9.066748e+00
   8.305376e+01  -4.787652e+01
   4.721389e+01   7.732558e+01
   4.010814e+01   3.342146e+00
  -9.566357e+00   2.584241e+01
   1.882729e+01   5.069231e+01
   2.719161e+01   7.788515e+00
  -6.717388e+00   8.174137e+00
  -2.884265e+01   5.106091e+01
  -5.494716e+01  -5.640902e+01
  -7.693234e+00  -2.869610e+01
   3.895443e+01   1.001385e+01
   3.034516e+01   6.787240e+01
  -1.668921e+01   9.142910e+01
  -7.056327e+01   4.180894e+01
  -7.433810e+01  -6.894199e-01
  -4.209082e+01  -1.198763e+02
  -1.915343e+01  -6.161491e+01
  -2.865855e+01  -8.734497e+01
   5.963168e+01  -4.728558e+00
   2.829909e+01   5.760358e+00
   6.736399e+00  -9.559343e+00
  -2.123070e+01  -1.589642e+01
   7.649058e+00   2.947166e+00
   1.307630e+01  -1.583542e+01
   1.624626e+01   3.288874e+01
  -1.321846e+01  -2.421660e+01
  -2.068160e+00  -3.234436e+01
   3.814634e+01  -2.253246e+01
   3.455182e+01   5.414555e+01
   8.145485e+01   8.399309e+01
   1.605382e+01   9.650868e+01
  -1.098076e+01   6.870247e+01
  -6.731885e+01   6.871674e+01
  -7.721833e+01  -1.099518e+01
  -5.999167e+01  -5.818077e-01
   2.746924e+01   1.401746e+01
  -3.189088e+01  -9.687072e+00
  -2.492736e+01  -4.126859e+00
  -5.277137e+01  -3.963778e+00
   1.377401e+00  -8.391627e+01
  -1.660464e+00  -7.889654e+01
   6.756035e+01  -3.428742e+01
   9.398608e+00   2.079896e+01
  -3.174106e+01  -2.660941e+01
   1.592621e+01  -1.450282e+01
   2.779320e+00  -1.165894e+01
   1.947987e+01   2.782965e+01
   3.948010e+01   3.368816e+01
   3.003802e+01   4.499912e+01
  -5.618685e+01   2.770791e+01
  -7.339771e+01   3.951208e+00
  -6.630847e+01   7.876584e+00
   4.145306e+01  -2.730520e+01
   2.653037e+01  -3.930137e+01
   6.389106e+00   5.838833e+00
   1.273421e+01  -3.617886e+01
   1.463285e+01   2.501250e+00
   1.559706e+01   2.779077e+00
   2.095980e+01   1.000657e+01
  -7.013537e+00   5.184195e+01
  -4.650843e+01   5.314454e+01
  -9.903483e+01   2.030495e+01
  -8.865002e+01  -3.806935e+01
  -3.438836e+00  -5.091749e+01
   3.472740e+01  -3.003122e+01
   3.414669e+01  -2.412181e+01
   2.246907e+01  -4.624115e+01
   1.000958e+01  -1.211364e+01
   8.497636e+00  -1.254624e+01
   7.793856e+01   1.772407e+01
   8.480362e+01   1.139691e+01
  -4.967982e+01   1.819992e+01
  -4.818546e+01   2.499964e+01
  -3.776776e+01  -5.215452e+00
  -6.965265e+01   1.029092e+01
  -6.559305e-01  -3.725628e+01
   1.440777e+01   1.196229e+01
   3.700749e+01   5.026705e+01
   7.272994e-02   6.338819e+01
  -5.586170e+01   6.881286e+01
  -7.977372e+01  -2.064640e+01
  -2.572122e+01  -7.046880e+01
   1.677682e+01  -4.942655e+01
   3.250967e+01  -3.683069e+01
   2.034883e+01  -5.490318e+01
   3.877136e+01   1.019110e+01
   2.637919e+01  -2.810953e+01
   2.335805e+01   9.687827e+00
   1.495476e+01   4.585683e+01
  -4.117353e+01   2.259466e+01
  -5.046984e+01   3.940174e+01
  -3.526903e+01   2.593732e+01
  -3.780664e+01  -3.207257e+01
   2.495595e+00  -1.028042e+00
   1.280244e+01  -5.379995e+01
   1.210358e+00  -2.638053e+01
   4.504832e+01  -4.659854e+01
  -1.684778e+01  -4.211704e+01
  -2.409812e+01   8.284396e+00
  -1.006238e+01  -1.715749e+01
   2.360087e+01   4.435115e+01
   2.573730e+01   1.031978e+01
  -2.692118e+01  -2.694805e+01
  -1.904654e+01  -4.142723e+01
  -1.592260e+01  -3.093846e+01
  -5.842617e+00  -4.806911e+00
   5.544781e+01   2.745802e+00
   2.042935e+01  -5.121546e+00
  -4.579945e+01  -6.768028e+00
  -2.820275e+00   2.393830e+01
   5.519616e+00  -1.150763e+01
   1.900828e+01  -1.612689e+01
  -2.557136e+01  -1.617014e+01
   1.355936e+01  -1.689093e+01
   2.944598e+01  -4.853943e+01
   7.549760e+00   1.786109e+01
   4.313326e+01  -1.359425e+00
   2.937771e+00   4.785922e+01
  -5.289928e+01   3.360290e+01
  -4.093139e+01   4.403433e+01
  -3.624651e+01   1.586237e+01
  -1.756260e+01  -2.185108e+01
  -3.488350e+01   8.895087e+00
   2.847868e+01  -2.249064e+01
  -2.050347e+00   4.395088e+01
   2.199002e+01  -2.125594e+01
  -6.128236e+00  -3.345855e+01
   9.316881e-01  -1.829060e+01
   2.753942e+01  -2.809965e+01
   2.951008e+01   3.055157e+01
   4.888513e+01  -1.385120e+00
   2.093900e+01  -1.671307e+01
   1.964200e+01   1.414574e+01
  -2.207261e+01  -1.323172e+01
   7.913668e+00   4.133910e+00
   8.523783e+00  -2.265915e+01
  -6.514531e-02   4.980937e+00
  -6.105388e+00   8.783259e+01
  -9.415115e+01   2.229495e+01
  -9.136246e+01  -2.462457e+00
   1.787679e+01  -2.490347e+01
   5.347957e+01   1.565031e+01
   1.495007e+01  -2.350007e+01
   4.488283e+01   1.528683e+01
   1.163118e+01   1.047040e+01
  -1.209222e+01   3.627392e+01
  -1.985096e+01   4.534989e+01
   1.799425e+01   4.359002e+01
  -2.375346e+01  -1.766829e+01
  -1.095597e+01  -4.116142e+01
   1.389154e+01  -2.409711e+01
   8.095293e+01  -7.093258e+01
   2.854951e+01   2.395268e+01
   1.957898e+00   4.097335e+01
  -5.613340e+00   2.166048e+01
   1.350844e+01  -1.859595e+01
   3.092982e+01   4.169031e+00
   2.523232e+01  -4.121766e+01
   2.767849e+00   2.163175e+01
   2.325437e+01   4.618384e+01
  -3.442631e+00  -1.828446e+01
  -1.000661e+01  -1.856027e+01
  -6.019414e+00  -3.946316e+01
   7.070079e+01   4.575628e+01
   4.708844e+01   1.606442e+01
   9.749503e+00   1.725973e+01
   2.606942e+01   4.924805e+01
  -3.218425e+01  -1.977288e+01
  -4.242710e+01   8.283945e+00
  -2.365819e+01  -4.758831e+01
   6.626974e+01  -7.398984e+01
   5.262288e+01  -6.501822e+01
  -3.668129e+00  -2.175896e+01
  -3.652983e+00  -3.218154e+01
   3.109098e+01  -4.510913e+01
   8.279238e+00   5.897983e+01
   1.742602e+01  -2.780374e+00
  -1.123438e+01   3.078899e+01
   8.331059e+00  -1.954686e+01
  -3.424742e+00   5.051780e+01
   4.029218e+00  -3.511638e+01
  -3.108498e+01   1.272451e+01
  -1.350091e+01  -1.607451e+01
   3.476676e+01  -9.011313e+00
   4.232752e+00   3.769698e+00
   3.601436e+01   1.289258e+01
  -1.299129e+01   1.258474e+01
   3.209042e+00  -9.474309e+00
   3.477311e+01   4.574031e+00
   2.626322e+01   1.873030e+01
   1.907950e+01   1.997032e+01
   6.822606e-01  -6.290567e+01
   7.494297e+00  -1.103030e+01
  -2.492585e-01  -1.726932e+01
   6.509259e+00  -3.885522e+01
   2.740941e+01  -3.760724e+01
  -1.754661e+01  -7.233088e+00
  -3.574457e+01  -2.402506e+01
   5.562562e+00   6.019138e+01
   2.583441e+01   3.386247e+01
  -4.639855e+01  -2.381454e+01
   4.623660e+00  -4.501436e+01
   1.205264e+01  -2.101258e+01
   2.839584e+01   1.137511e+01
  -5.124690e+01  -2.218244e+01
   5.016964e+00  -2.064238e+00
  -3.001180e+01   9.837476e+00
  -1.322306e+01  -5.431871e+01
  -3.220218e+01   2.546569e+01
   4.741066e+00  -1.337517e+00
   7.345859e+00  -6.809641e+00
   2.819214e+01   9.195527e-01
   2.978948e+01   9.904828e+00
  -3.003891e+01   3.151536e+01
  -2.835774e+00   4.885357e+01
   3.610450e+01  -2.902061e+01
   5.113036e+00  -3.539091e+01
  -5.227866e+00  -5.565854e+01
   7.565555e+01   2.872363e+01
   4.236529e+01  -2.143479e+01
   1.287464e+01  -2.222984e+00
  -6.223771e+01  -2.481045e+01
   1.462300e+01  -6.160755e+00
  -1.730053e+01  -6.216939e+00
   7.607842e+00  -5.951693e+00
   3.123597e+01   2.172477e+01
  -6.318028e-01  -1.803395e+00
  -3.556191e+01  -1.374433e+01
