
 $NMID
 id='ANONYMOUS ', fmtdat='(2E16.6)'
 volume=1.0
 tramp=1.0
 $END
   4.011110e+03   5.432028e+02
   2.522113e+03   2.662338e+03
  -1.052996e+03   2.611542e+03
  -1.930038e+03   6.701828e+02
  -6.182776e+02  -6.239319e+02
   7.285336e+02  -4.654030e+02
   7.730140e+02   4.777723e+02
  -1.342439e+02   9.592392e+02
  -7.548201e+02   7.398714e+02
  -8.084022e+02  -1.327748e+02
  -2.986793e+02  -8.390919e+02
   2.537411e+02  -8.207053e+02
   6.218150e+02  -5.091949e+00
   3.341009e+02   7.331782e+02
  -2.923447e+02   6.546803e+02
  -5.669333e+02  -8.714009e+01
  -2.300879e+02  -6.287661e+02
   3.370331e+02  -5.649725e+02
   5.421234e+02  -8.101597e+01
   3.061038e+02   2.891648e+02
  -1.983193e+01   3.942295e+02
  -2.806147e+02   2.248341e+02
  -1.830883e+02   3.110787e+01
   9.861353e+01  -8.413388e+01
   3.621790e+02   1.208900e+02
   1.608871e+02   4.748922e+02
  -4.518663e+02   3.566945e+02
  -8.018142e+02  -1.707767e+02
  -3.339458e+02  -5.913552e+02
   4.040230e+02  -4.592803e+02
   7.141523e+02   4.955726e+01
   2.941467e+02   4.451284e+02
  -2.262069e+02   4.699939e+02
  -5.573069e+02   1.860487e+02
  -3.815332e+02  -2.122709e+02
  -2.656267e+01  -4.314059e+02
   2.028549e+02  -2.268944e+02
   1.251270e+02   2.717978e+02
  -1.873916e+02   3.825100e+02
  -4.510380e+02  -2.003200e+01
  -2.225190e+02  -6.387903e+02
   2.729923e+02  -6.270468e+02
   5.426461e+02   7.897601e+01
   2.440551e+02   5.082574e+02
  -3.212274e+02   3.272316e+02
  -4.145889e+02  -3.179035e+02
   8.453954e+01  -4.828822e+02
   5.647239e+02  -8.237484e+01
   5.501887e+02   4.070288e+02
   1.345987e+02   5.519412e+02
  -4.094574e+02   3.020962e+02
  -5.746418e+02  -6.984771e+01
  -3.356556e+02  -3.510409e+02
   1.947137e+02  -3.243694e+02
   4.395849e+02   1.231829e+01
   1.823569e+02   2.376988e+02
  -1.087986e+02   1.442422e+02
  -1.088620e+02  -1.640076e+02
   1.453288e+02  -2.000963e+02
   3.141261e+02   1.285313e+02
   1.099455e+02   3.085328e+02
  -2.319901e+02   2.680192e+02
  -2.592961e+02   5.554316e+01
  -2.351874e+02  -5.936724e+01
   2.378743e+01  -2.476611e+02
   1.097257e+02  -2.884590e+02
   2.733944e+02  -1.952314e+02
   2.813366e+02   1.072144e+02
   8.191971e+01   4.155582e+02
  -1.122643e+02   3.088769e+02
  -1.215961e+02   2.225603e+01
  -4.536568e+01  -1.039534e+01
  -4.939530e+00   6.982821e+01
  -1.607287e+02   1.581539e+02
  -2.704206e+02  -4.344502e+01
  -1.466303e+02  -2.592857e+02
   7.704584e+01  -2.419605e+02
   2.473178e+02  -6.894681e+00
   1.616753e+02   2.436649e+02
  -1.718947e+01   2.757503e+02
  -2.303261e+02   1.267068e+02
  -3.190604e+02  -1.416747e+02
  -1.454765e+02  -2.960054e+02
   8.937450e+01  -2.676600e+02
   2.387882e+02  -2.956731e+01
   1.491637e+02   3.233457e+00
   5.020784e+01  -4.336858e+01
   1.946387e+02  -1.068000e+01
   3.423954e+02   7.409962e+01
   2.830359e+02   3.134933e+02
  -4.615288e+01   4.037893e+02
  -3.578210e+02   3.551109e+02
  -5.092319e+02   1.376954e+02
  -3.014760e+02  -1.019839e+02
  -6.444323e+01  -2.281447e+02
   1.370954e+02  -2.479489e+02
   7.369480e+01  -1.172788e+01
  -1.344403e+02   1.463678e+02
  -1.924399e+02   4.427639e+00
  -9.051095e+01  -1.890224e+02
   1.479131e+02  -1.561162e+02
   1.978652e+02   4.636264e+01
   2.285182e+00   1.507946e+02
  -2.084115e+02   2.050921e+01
  -1.277594e+02  -2.305779e+02
   3.603046e+01  -3.064408e+02
   2.073286e+02  -1.708101e+02
   2.989698e+02   1.044258e+02
   2.403491e+02   2.489325e+02
   1.046408e+02   2.755875e+02
  -1.223925e+02   1.436022e+02
  -1.720454e+02   5.606036e-02
  -3.002659e+01  -3.620794e+01
   5.007442e+01   5.697530e+01
   2.155956e+01   1.534455e+02
  -1.189352e+02   1.356690e+02
  -1.892278e+02  -4.678267e+01
  -7.319755e+01  -6.159253e+01
   8.275395e+01  -1.798117e+01
   4.018227e+01   8.165638e+01
  -1.161449e+02   4.176206e+01
  -2.883755e+02  -1.797861e+01
  -2.250600e+02  -1.501300e+02
  -4.349294e+01  -2.406127e+02
   2.144916e+02  -2.462382e+02
   2.712814e+02  -1.154792e+02
   1.909831e+02   6.033727e+01
  -1.439373e+01   1.575597e+02
  -1.059180e+02   5.120952e+01
   3.198778e+01  -6.113634e+01
   1.660682e+02  -7.792734e+01
   1.576865e+02   8.485050e+01
   4.155805e+01   2.103111e+02
  -1.166177e+02   1.670793e+02
  -8.944390e+01   5.258220e+00
  -8.040765e+01  -6.240823e+01
   2.167143e+01   1.501218e+01
   6.628945e+01   9.186712e+01
  -4.770683e+01   9.790123e+01
  -1.224234e+02   4.127694e+01
  -1.600454e+02  -1.218351e+02
  -2.865080e+01  -2.265370e+02
   1.678322e+02  -1.400697e+02
   1.754241e+02  -5.452364e+00
   5.523854e+01   1.112252e+02
  -6.744420e+01   9.086330e+01
  -8.003864e+01   3.559137e+01
  -1.767838e+01  -1.504018e+01
   3.266827e+00  -2.666786e+01
  -2.130194e+01   1.605131e+01
  -5.897049e+01  -5.081283e-01
  -7.076036e+01  -8.773279e+01
  -8.900073e+00  -1.344542e+02
   8.987692e+01  -1.376569e+02
   1.656503e+02  -6.929271e-01
   1.676111e+02   1.245755e+02
   5.302343e+01   1.847994e+02
  -1.151059e+02   1.587736e+02
  -1.169988e+02   2.396812e+01
  -6.868286e+01  -6.557804e+01
  -2.462025e+01  -4.111402e+01
  -5.731708e+01   7.207841e+00
  -7.059482e+01   1.493142e+01
  -5.282835e+01  -2.027859e+01
  -2.471319e+01  -9.067669e+01
   9.937252e+01  -5.956966e+01
   9.819098e+01   3.015449e+00
   2.484547e+01   1.058895e+02
  -8.713009e+01   5.721217e+01
  -2.138708e+02  -7.227845e+01
  -1.159348e+02  -1.637071e+02
   1.158568e+02  -2.138111e+02
   2.013698e+02  -6.767157e+01
   2.381662e+02   7.237627e+01
   9.539172e+01   1.352845e+02
  -6.075286e+01   9.261397e+01
  -7.684444e+01   5.014171e+01
  -5.323149e+01   6.327342e+01
  -7.215501e+01   5.677285e+01
  -8.805657e+01   8.325501e+01
  -1.406313e+02  -2.741741e+01
  -1.378269e+02  -1.719093e+02
  -4.437737e+01  -2.929256e+02
   4.235096e+01  -1.803758e+02
   1.356076e+02   1.963818e+00
   8.291518e+01   1.433159e+02
   5.767928e-01   1.135716e+02
  -5.010887e+01   7.223503e+01
  -4.760928e+01   4.293913e+01
   3.652517e+00  -7.126647e+00
  -3.005261e+01  -9.113124e+00
  -1.265042e+01  -3.256679e+01
  -9.176579e+01  -5.951334e+01
  -5.827805e+01  -1.473314e+01
   8.403744e+01  -4.703515e+01
   1.486313e+02  -1.538758e+00
   1.546640e+02   4.396876e+01
   3.978812e+01   8.023133e+01
  -1.176835e+02   2.886978e+01
  -1.470607e+02   1.018982e+01
  -5.916642e+01  -5.129222e+01
   1.091064e+02  -3.400942e+01
   3.437286e+01   4.613062e+01
   3.319276e+01   7.936304e+01
  -7.838923e+01   6.489295e+01
   9.902936e+00  -4.423424e+01
  -6.574197e-01  -3.748923e+01
  -1.700858e+01  -5.936331e+01
  -7.285352e+01  -3.396269e+01
  -5.097011e+01  -2.585966e-01
  -6.967954e+01  -3.352217e+01
   4.267637e+01  -1.210772e+02
   1.246955e+02  -7.335506e+01
   1.034949e+02  -6.138827e+01
   1.000678e+02   4.890092e+01
   7.935305e+00   9.152535e+01
  -8.385073e+01   6.127569e+01
  -4.476187e+01  -4.550644e+01
   4.805478e+01  -2.554318e+01
   1.263103e+02   8.309588e+01
   6.947316e+01   7.745967e+01
  -6.534004e+01   1.390494e+02
  -1.134242e+02   2.071010e+01
  -1.509853e+02  -2.135061e+01
  -5.204832e+01  -8.344761e+01
   6.979088e+01  -3.132363e+01
   7.969392e+01  -1.354125e+00
  -4.296574e+01   4.647789e+01
  -9.962710e+01  -1.091299e+01
  -2.685480e+01  -1.479579e+02
   1.132843e+02  -1.394712e+02
   1.530425e+02  -4.604369e+01
   1.415373e+02   1.142287e+02
   1.300142e+01   1.495588e+02
  -8.683584e+01   1.484929e+02
  -9.181756e+01  -2.522369e+01
  -1.038438e+02  -1.197681e+02
   2.169242e-01  -9.994222e+01
   3.448634e+01  -1.966479e+00
   2.092105e+01   1.195669e+01
   2.496913e+01   3.653794e+01
  -1.633964e+00  -5.175466e+00
   2.673810e+01   1.400305e+01
   4.717818e+01   9.072407e+01
   4.614820e+01   8.684974e+01
  -4.128965e+01   5.303202e+01
  -1.128457e+02  -2.091094e+00
  -1.234992e+02  -8.116945e+01
  -1.859929e+01  -2.615056e+01
   8.814625e+01  -1.003657e+01
   6.528488e+01  -2.581318e+01
   1.450360e+01  -3.031488e+01
  -2.182734e+01  -1.124331e+01
  -1.833258e+01   1.607308e+01
   1.724645e+01  -2.015402e+01
   4.794464e+00  -6.309374e-01
  -6.072990e+01  -1.930153e+01
  -1.153289e+02  -5.025774e+01
  -6.755550e+01  -9.957592e+01
   1.085203e+02  -6.900254e+01
   1.336199e+02  -5.840262e+01
   1.029591e+02   8.150861e+01
   3.501910e+01   1.191002e+02
  -6.498352e+01   1.394364e+02
  -9.920275e+01   7.868847e+01
  -6.728608e+01  -2.183050e+01
  -1.690915e+01  -2.068944e+01
   1.677148e+01  -3.197266e+00
   4.371441e+00  -6.060676e+00
  -2.437210e+01  -3.821600e+01
  -6.383288e+01  -7.432414e+01
   2.344394e+01  -9.025803e+01
   6.684910e+01  -8.245459e+00
   7.640483e+01   9.420062e+01
   3.688293e+01   9.337430e+01
  -7.585457e+01  -3.072859e+01
  -7.295939e+01  -3.348476e+01
  -1.639914e+00  -1.201730e+02
   8.218396e+01  -2.237971e+01
   1.039771e+02  -2.553260e+01
  -4.830624e+00   3.586057e+01
  -3.854648e+01   5.451160e+01
  -3.230375e+01   1.520306e+01
   3.480808e+01   1.276821e+01
   8.925432e+01  -1.170580e+01
   1.922418e+01   2.393369e+01
  -4.813771e+01   6.001802e+01
  -1.331018e+02   5.079665e+01
  -1.710759e+01  -1.516362e+01
   2.518093e+01  -1.341774e+02
   5.952972e+01  -9.889462e+01
   3.816420e+01   3.450148e+01
   1.511689e+01   7.184158e+01
  -7.134293e+01   1.940212e+01
  -3.391747e+01  -1.464355e+01
  -3.184787e+01  -8.023985e+00
  -5.471794e+00  -3.386773e+01
  -1.421993e+01   3.278592e+01
   2.982531e+01   3.175391e+00
  -7.924399e+00   3.531500e+01
   2.408042e+01  -3.893750e+01
   2.836497e+01   8.705157e-01
   2.111365e+00   3.402225e+01
  -2.128887e+01   6.861302e+01
  -2.754877e+00   2.803413e-01
  -2.199441e+01  -4.989770e+01
   2.560595e+01  -3.088486e+01
   3.802875e+01   5.131550e+00
   2.242856e+01   4.536837e+01
   1.202155e+01   4.301277e+01
  -5.497741e+01   1.620485e+01
  -6.030723e+01  -2.228501e+01
  -4.298619e+01  -1.965842e+01
   1.415234e+01  -6.249324e+01
   9.165082e+00  -9.652349e+00
   4.307092e+01   1.009286e+01
  -4.735460e+01   4.189455e+01
  -4.611962e+01  -2.821538e+01
   1.445902e+01  -2.747618e+01
   8.783131e+01  -2.020185e+01
