
 $NMID
 id='ANONYMOUS ', fmtdat='(2E16.6)'
 volume=1.0
 tramp=1.0
 $END
   3.187283e+03  -4.383286e+02
   2.431711e+03   1.991602e+03
  -3.845478e+02   2.182208e+03
  -1.600838e+03   6.408099e+02
  -8.729653e+02  -5.662133e+02
   5.341021e+02  -5.043589e+02
   7.000241e+02   3.038436e+02
   9.540208e+01   8.616052e+02
  -5.815480e+02   5.687908e+02
  -5.911867e+02  -3.109200e+01
  -3.565246e+02  -6.551917e+02
   1.349139e+02  -6.551189e+02
   4.855022e+02  -1.221106e+02
   3.568027e+02   5.761259e+02
  -1.800068e+02   6.505026e+02
  -4.239925e+02   1.944990e+01
  -2.284672e+02  -4.963623e+02
   1.802576e+02  -4.592484e+02
   3.758545e+02  -1.083117e+02
   2.620918e+02   1.951061e+02
   3.199214e+01   2.840929e+02
  -1.593146e+02   2.007660e+02
  -1.777397e+02   9.677468e+01
   1.863587e+01  -5.789356e+01
   2.982512e+02   8.029413e+00
   2.193435e+02   3.030533e+02
  -2.909385e+02   2.850143e+02
  -5.889698e+02   1.036706e+01
  -3.685040e+02  -4.534021e+02
   2.528941e+02  -3.896783e+02
   5.350777e+02  -3.454452e+01
   2.817858e+02   3.735432e+02
  -1.828228e+02   4.196174e+02
  -3.943047e+02   1.727433e+02
  -3.294020e+02  -1.173650e+02
  -1.229913e+02  -3.528431e+02
   1.160856e+02  -2.542835e+02
   1.247226e+02   1.472976e+02
  -9.880346e+01   3.160750e+02
  -3.055035e+02   6.794789e+00
  -2.120633e+02  -5.007931e+02
   2.317659e+02  -5.962857e+02
   4.761063e+02   1.540496e+00
   2.345489e+02   4.233201e+02
  -2.042125e+02   2.859733e+02
  -3.183468e+02  -2.261868e+02
  -2.962278e+01  -4.045996e+02
   3.981950e+02  -1.399576e+02
   4.904284e+02   2.969310e+02
   1.302492e+02   4.434846e+02
  -3.004294e+02   2.697068e+02
  -4.615231e+02   3.563316e+01
  -2.952874e+02  -2.795963e+02
   2.619250e+01  -2.731490e+02
   3.125225e+02  -6.906843e+01
   1.480028e+02   1.266147e+02
  -6.986529e+01   6.196591e+01
  -1.030682e+02  -1.626718e+02
   1.514021e+02  -1.521528e+02
   2.419044e+02   5.449523e+01
   9.851630e+01   2.822802e+02
  -9.694808e+01   1.864341e+02
  -2.040545e+02   6.002614e+01
  -1.165639e+02  -3.941960e+01
  -1.377110e+01  -1.609997e+02
   4.087599e+01  -2.453722e+02
   1.979452e+02  -2.028931e+02
   2.400887e+02   3.843894e+01
   1.736660e+02   3.387610e+02
  -3.291051e+01   3.048464e+02
  -8.243204e+01   9.648844e+01
  -1.522365e+00  -1.530369e+01
  -1.184677e+01   7.618376e+01
  -1.245176e+02   9.835166e+01
  -1.938849e+02   2.307107e+01
  -1.505593e+02  -1.821829e+02
   5.323992e+00  -2.205742e+02
   1.560902e+02  -5.125702e+01
   1.289095e+02   1.538716e+02
   3.410344e+01   2.194520e+02
  -1.501949e+02   1.138255e+02
  -2.634880e+02  -7.488752e+01
  -1.901265e+02  -2.688656e+02
   6.520168e+01  -2.305147e+02
   1.454360e+02  -1.093778e+02
   4.686627e+01   5.030884e+01
   4.016443e+01  -5.175324e+01
   1.485763e+02  -3.332836e+01
   2.420377e+02  -3.106582e+01
   2.724922e+02   1.716225e+02
   3.525440e+01   3.038711e+02
  -2.008740e+02   3.437649e+02
  -3.277232e+02   1.735152e+02
  -2.744772e+02  -5.728910e+00
  -7.123400e+01  -2.340789e+02
   7.639199e+01  -2.403558e+02
   9.472311e+01   2.676864e+01
  -6.868421e+01   7.760159e+01
  -1.829168e+02  -1.925100e+01
  -2.923132e+01  -1.771627e+02
   1.685301e+02  -1.500826e+02
   1.286222e+02   3.219429e+01
   1.998090e+01   1.472774e+02
  -1.203160e+02   4.872645e+01
  -9.908927e+01  -1.795386e+02
  -4.895340e+00  -2.451165e+02
   1.340499e+02  -1.702792e+02
   2.035840e+02  -1.885488e+01
   2.249700e+02   1.317675e+02
   8.420729e+01   1.554419e+02
  -3.849781e+01   1.560897e+02
  -1.597645e+02   5.733336e+01
  -6.952371e+01   2.606384e+01
   6.627894e+01  -9.405835e+00
   4.080676e+01   8.121983e+01
  -5.741349e+01   8.966623e+01
  -1.163888e+02   3.772631e+01
  -7.812817e+01  -2.413166e+01
   3.075338e+01  -4.018016e+01
   7.074786e+01   2.212819e+01
  -8.270612e+01   3.956045e+00
  -2.085605e+02   3.558696e+01
  -1.988277e+02  -8.609986e+01
  -8.930678e+01  -1.671633e+02
   5.219568e+01  -2.099441e+02
   1.816860e+02  -1.480886e+02
   1.669155e+02   3.860289e+01
  -3.430903e+01   8.770120e+01
  -5.351770e+01   4.815440e+01
  -5.513353e+00  -9.871442e+01
   1.199494e+02  -7.687166e+01
   1.608104e+02   4.840126e+01
   7.846343e+01   1.262480e+02
  -7.192449e+01   1.390914e+02
  -1.247751e+02   4.289981e+01
  -5.667676e+01  -2.820545e+01
   1.626831e+01  -3.366020e+01
   4.134527e+01   5.130169e+01
  -1.389092e+01   6.398199e+01
  -1.348795e+02   4.446789e+01
  -1.357747e+02  -5.151146e+01
  -3.237874e+01  -1.814505e+02
   1.315667e+02  -1.306011e+02
   1.210781e+02  -4.823911e+01
   4.126524e+01   2.229063e+01
  -5.328392e+01   7.342921e+01
  -1.683828e+01  -1.044255e+01
   7.244194e+00  -1.538408e+01
   3.474144e+01  -9.799214e+00
   1.552385e+01  -1.870136e+01
  -5.760823e+01   6.407828e+00
  -6.587013e+01  -3.784854e+01
  -1.593029e+01  -7.913230e+01
   2.883383e+01  -9.051865e+01
   1.731211e+02  -5.041762e-01
   1.723340e+02   1.185668e+02
   2.642394e+00   1.748217e+02
  -4.834719e+01   1.186965e+02
  -9.931337e+01   2.126551e+01
  -4.243332e+01  -1.158857e+01
  -2.757624e+01  -5.982045e+01
  -5.230454e+01   3.620114e+01
  -4.382320e+01   1.966874e+01
  -4.138462e+01  -4.161408e+01
   1.471135e+01  -8.017930e+01
   4.814225e+01  -5.381357e+01
   6.260678e+01  -1.664044e+01
  -1.983780e+01   1.013803e+02
  -8.998617e+01   2.366162e+01
  -1.166586e+02  -1.279212e+00
  -1.151389e+02  -1.830409e+02
   5.668860e+01  -1.705642e+02
   1.894738e+02  -8.432365e+01
   2.029428e+02   7.112750e+01
   1.306593e+02   9.375243e+01
  -2.693446e+01   1.045825e+02
  -3.878548e+01   7.423277e+01
  -5.330456e+01   8.361326e+01
  -2.833583e+01   1.006512e+02
  -5.346176e+01   6.086062e+01
  -7.428047e+01  -4.237977e+00
  -1.055681e+02  -1.543717e+02
  -5.295716e+01  -1.719975e+02
   9.186921e+00  -1.772556e+02
   1.264352e+02  -9.197257e+01
   1.239096e+02   8.206309e+01
   2.306861e+01   1.089648e+02
  -4.053568e+01   8.308842e+01
  -3.176390e+01   5.107489e+01
   7.218113e+00   3.416864e+01
   2.378192e+01   9.753485e+00
  -2.636558e+01   1.617732e+01
  -6.524909e+01   3.966827e+00
  -4.634806e+01   2.747031e+01
   4.475874e+01  -6.655314e+01
   9.990172e+01  -1.467194e+01
   8.744361e+01   3.377772e+00
   2.034940e+01   6.486317e+01
  -7.997349e+01   6.370484e+01
  -8.246458e+01   5.433884e+01
  -3.710512e+01   1.023951e+01
   2.897665e+01  -4.002440e+01
   6.307131e+01   3.949566e+01
   5.125321e+01   1.993305e+01
  -2.994042e+01   3.751890e+01
  -2.020020e+01   4.298110e+00
  -3.293847e+01   1.943300e+01
  -1.996520e+01  -4.182707e+01
  -2.641444e+01  -1.307655e+00
  -5.442288e+01  -4.358006e+00
  -7.696483e+00  -9.290739e+01
   2.014811e+01  -7.978383e+01
   9.733441e+01  -8.682889e+01
   7.617093e+01  -3.406933e+01
   1.284265e+02   2.907656e+01
   7.939197e+00   9.878468e+01
  -2.822565e+01   3.133674e+01
  -5.032353e+01   1.629398e+00
   6.863084e+01   1.344198e+01
   4.988885e+01   2.921449e+01
   2.458525e+01   6.166461e+01
  -2.967243e+01   4.824416e+01
  -8.497584e+01   6.674959e+01
  -9.515288e+01  -2.992743e-02
   8.770536e-01  -5.322308e+01
  -1.559650e+01  -5.889607e+01
   3.136158e+01  -1.186125e+01
  -3.279966e+01   4.027379e+01
  -3.467684e+01  -3.668531e+01
  -1.701477e+01  -7.407377e+01
   1.794681e+01  -1.126244e+02
   1.204178e+02  -1.118147e+02
   8.017689e+01   1.473765e+01
   5.610084e+01   1.403216e+02
  -6.890144e+01   1.188005e+02
  -4.055629e+01   1.030001e+00
  -6.924320e+01  -7.506136e+01
  -2.072765e+01  -6.183588e+01
   3.672937e+01  -2.108428e+01
   2.105012e+01   4.669120e+01
   4.532852e+01  -3.767416e+01
  -4.620035e+00  -7.095072e+01
   3.640992e+01  -4.236335e+00
   4.043235e+01   7.491700e+01
   5.713767e+01   7.077253e+01
  -9.027547e+00   4.678304e+01
  -1.257767e+02   1.036150e+01
  -1.248339e+02  -4.527640e+01
  -4.420387e+01  -2.190374e+01
   4.129552e+01  -4.472716e+00
   2.485985e+01  -2.449287e+01
  -1.645701e+01   3.659961e+01
  -2.174069e+01   3.267503e+00
  -4.172396e+01   4.746817e+01
   1.781064e+01  -4.275188e+00
  -3.184887e+00  -4.593252e+00
  -7.492233e+01   1.232019e+01
  -5.102329e+01  -2.098146e+00
  -2.886336e+01  -6.114408e+01
   7.410428e+01  -4.113969e+01
   9.510696e+01  -5.482454e+01
   7.403251e+01   2.791041e+01
   5.837861e+01   1.189752e+02
   1.095105e+01   1.006227e+02
  -5.438944e+01   7.309524e+01
  -6.715230e+01  -1.730970e+01
  -5.284238e+01   4.679583e+00
  -2.175990e+01   3.889780e+00
  -2.904921e+01  -6.356923e+00
  -1.590338e+01  -2.124309e+00
  -9.649154e+00  -5.577283e+01
   8.199494e+00  -7.603219e+01
   3.940757e+01  -3.802596e+01
   4.308942e+01   7.220047e+01
  -3.150551e+01   5.077490e+01
  -7.171582e+01   3.324665e+01
  -7.840349e+01  -6.562357e+01
  -5.744037e+00  -1.853510e+01
   5.564825e+01  -3.056566e+01
   5.631189e+01  -2.320024e+01
   2.678725e+01   3.372846e+01
  -4.488004e+01   5.442187e+01
  -1.874231e+01   2.906499e+01
   4.711844e+01   9.993827e+00
   3.633788e+01   8.053089e-01
   4.459345e+00   2.035401e+01
  -6.272265e+01   9.962439e+00
  -6.705296e+01   4.534179e+01
  -3.600904e+01   2.598325e+01
  -5.308309e+00  -5.813887e+01
   2.928704e+01  -6.146725e+01
   5.485750e+01  -1.307671e+01
  -4.420475e+01   6.105265e+00
   3.302195e+01   4.930998e+01
  -1.245375e+01  -3.151177e+01
  -1.475748e+01  -5.325248e+01
  -3.507291e+00   7.810346e+00
   1.230125e+01  -1.742773e+01
   2.428484e+01   1.442019e+01
   2.433766e+01  -1.007083e+01
   1.222981e+01  -1.715095e+01
  -6.571836e+00   2.934505e+00
  -1.918791e+01  -9.235219e-01
   8.513071e-01   1.583475e+01
  -3.602881e+00   1.000963e+00
  -8.079640e+00  -1.100722e+01
   4.439767e+00  -4.901491e+01
   1.604552e+01  -1.699766e+00
   4.518933e+01  -1.818550e+00
   1.374353e+01   3.838863e+01
  -7.880206e+00   3.007659e+01
  -5.034783e+01   8.800035e+00
  -3.269434e+01  -3.649976e+01
   4.979282e+01  -6.779059e+01
   7.492355e+01   3.802888e+01
   1.536024e+01  -2.363695e+01
   1.325492e+01   2.328235e+01
  -1.650633e+01   1.903546e+01
  -7.020531e+00  -9.979229e+00
   5.459739e+01  -2.733751e+01
