
 $NMID
 id='ANONYMOUS ', fmtdat='(2E16.6)'
 volume=1.0
 tramp=1.0
 $END
   2.916143e+03  -1.232504e+02
   2.091044e+03   1.706352e+03
   4.242280e+01   1.999255e+03
  -1.209656e+03   1.373454e+03
  -1.027017e+03   3.947225e+02
  -2.505537e+02  -2.409882e+02
   2.964547e+02   2.613343e+01
   1.450999e+02   4.904890e+02
  -3.473323e+02   5.180018e+02
  -5.895217e+02   1.231170e+02
  -3.818054e+02  -4.253837e+02
  -6.457544e+01  -6.225769e+02
   2.471089e+02  -1.877114e+02
   1.867193e+02   3.828336e+02
  -1.138952e+02   4.697132e+02
  -4.057506e+02   7.484490e+01
  -3.569201e+02  -3.813939e+02
   8.001354e+01  -5.911092e+02
   4.829728e+02  -2.834007e+02
   4.107208e+02   1.628983e+02
   1.070357e+02   3.410179e+02
  -8.238466e+01   2.917828e+02
  -1.031530e+02   1.358859e+02
   1.396189e+02   6.250618e+01
   2.155310e+02   2.527559e+02
  -1.411944e+01   3.152581e+02
  -4.572579e+02   1.000912e+02
  -5.652327e+02  -1.539679e+02
  -2.410980e+02  -3.289532e+02
   2.369115e+02  -1.809691e+02
   4.345737e+02   1.441262e+02
   1.472480e+02   3.484123e+02
  -2.114067e+02   2.815974e+02
  -4.308686e+02   1.165830e+02
  -2.636798e+02  -1.378546e+02
  -7.049153e+01  -2.914062e+02
   1.577388e+00  -1.286696e+02
  -7.396909e+01   4.873763e+01
  -1.457561e+02   1.506797e+02
  -1.877396e+02  -1.178468e+02
   1.066315e+00  -3.994316e+02
   2.073990e+02  -4.584532e+02
   2.392455e+02   9.652881e+00
   9.013827e+01   2.903825e+02
  -1.561062e+02   1.468815e+02
  -1.481995e+02  -2.620026e+02
   9.255694e+01  -3.368144e+02
   3.933200e+02  -1.003775e+02
   4.533111e+02   3.559778e+02
   1.730014e+02   4.915740e+02
  -2.556072e+02   3.006605e+02
  -5.033297e+02  -6.944846e+01
  -3.400858e+02  -2.192361e+02
   2.279548e+01  -2.036899e+02
   2.677480e+02  -8.168112e+01
   2.499376e+02   2.706452e+01
   5.283326e+01   5.507797e+01
  -3.658315e+01  -1.829329e+01
   1.211456e+02  -8.078181e+01
   1.992835e+02   2.385063e+00
   1.561072e+02   2.103929e+02
  -8.124969e+01   2.419370e+02
  -3.191383e+02   1.392496e+02
  -2.551458e+02  -9.907688e+01
  -2.376548e+00  -3.269712e+02
   2.941465e+02  -3.443737e+02
   3.566425e+02  -1.601145e+02
   2.074428e+02   1.909218e+02
   2.656782e+01   3.813421e+02
  -9.093305e+01   3.450852e+02
  -5.444241e+01   1.579516e+02
  -3.601952e+01   1.146492e+02
  -1.113194e+02   9.163127e+01
  -2.687668e+02   7.468580e+01
  -2.153166e+02  -1.254972e+02
  -8.739833e+01  -1.941262e+02
   9.491936e+01  -1.504709e+02
   1.615466e+02   6.970034e+01
   1.476431e+02   2.816171e+02
  -7.512130e+01   2.000437e+02
  -2.328494e+02   5.407189e+01
  -2.675118e+02  -1.705336e+02
  -1.537750e+02  -2.711510e+02
   6.288127e+01  -2.435190e+02
   1.641083e+02  -1.797003e+02
   1.411602e+02  -5.281929e+01
   1.645668e+02  -8.011320e+01
   2.468362e+02  -2.166610e+01
   4.128913e+02   7.856672e+01
   2.527277e+02   3.323679e+02
  -2.717614e+01   4.163596e+02
  -3.428757e+02   3.775002e+02
  -3.778943e+02   2.184008e+02
  -2.754534e+02  -1.276310e+02
   1.506367e+01  -1.836416e+02
   1.144404e+02  -1.589885e+02
  -3.436279e+01  -2.171576e+01
  -1.254956e+02   1.392890e+01
  -1.127920e+02  -7.636338e+01
  -1.286173e+01  -1.103333e+02
   1.066110e+02  -7.942584e+01
   8.049293e+01   5.378020e+01
   2.537071e+00   1.598808e+02
  -1.280700e+02  -1.551016e+01
  -1.077049e+02  -1.760107e+02
   5.910245e+01  -2.690882e+02
   2.179342e+02  -1.520122e+02
   2.992757e+02   3.176587e+01
   2.545490e+02   1.996934e+02
   3.430908e+01   2.516024e+02
  -9.983976e+01   1.040038e+02
  -1.147890e+02  -1.878464e+01
  -2.059637e+01  -4.182721e+01
   4.176639e+01   7.127458e+01
  -1.715764e+01   1.005961e+02
  -1.034444e+02   5.334101e+01
  -9.801472e+01   1.756279e+01
  -5.434236e+01  -3.383068e+01
   1.118579e+02  -6.366922e+00
   2.905411e+01   8.819613e+01
  -1.634323e+02   8.840124e+01
  -2.771086e+02  -2.971676e+01
  -2.215247e+02  -1.550983e+02
  -5.784735e+01  -2.212242e+02
   2.011125e+02  -1.947348e+02
   2.293687e+02  -7.441899e+01
   1.366419e+02   8.241731e+01
  -4.903844e+01   8.593217e+01
  -6.691007e+01  -1.601773e+01
   6.605582e+01  -5.650373e+01
   1.770340e+02  -2.260800e+01
   1.817662e+02   6.114329e+01
   7.524000e+01   1.708808e+02
  -8.418574e+01   1.058163e+02
  -1.143499e+02   3.558941e+01
  -8.320063e+00  -6.687169e+01
   7.549900e+01   1.957565e+01
   8.286032e+01   1.423504e+02
  -7.234591e+01   1.032414e+02
  -2.067788e+02   4.641102e+01
  -1.594642e+02  -1.438105e+02
  -4.388161e+01  -2.344141e+02
   1.224122e+02  -1.066873e+02
   1.891326e+02  -1.114006e+01
   3.752081e+01   7.334324e+01
  -6.629446e+01   7.578332e+01
  -8.160581e+01   4.571171e+01
  -1.713208e+01  -3.880462e+01
   4.308510e+01  -3.616840e+01
   6.823887e+00   2.364904e+00
  -1.241812e+02   3.816801e+01
  -1.315256e+02  -8.529266e+01
  -2.360940e+01  -1.416086e+02
   1.620522e+02  -1.608878e+02
   2.097077e+02   9.644796e+00
   1.872924e+02   1.480193e+02
   3.744554e+01   2.028113e+02
  -1.063520e+02   1.264339e+02
  -7.991583e+01   4.498966e+00
  -5.338242e+01  -2.193217e+01
  -6.890130e+01  -4.519462e+01
  -5.933713e+01   2.657640e+01
  -7.042732e+01   1.946524e+01
  -7.117589e+01  -8.860849e+01
   4.518865e+01  -5.370682e+01
   1.149856e+02  -8.648026e+01
   7.737266e+01   4.662412e+01
  -1.343381e+01   1.281019e+02
  -9.129801e+01   1.139530e+02
  -1.973234e+02  -9.916108e+00
  -9.844030e+01  -1.844444e+02
   1.209056e+02  -2.344559e+02
   2.094343e+02  -3.276025e+01
   1.886455e+02   7.395153e+01
   8.646818e+01   1.447061e+02
  -1.890037e+01   1.224923e+02
  -8.865233e+01   1.017087e+02
  -6.519171e+01   6.366223e+01
  -3.601860e+01   1.471885e+02
  -8.054577e+01   7.927262e+01
  -1.292677e+02  -1.030168e+01
  -1.431811e+02  -1.532550e+02
  -7.617119e+00  -1.722459e+02
   1.132266e+02  -1.567574e+02
   1.389082e+02   1.322324e+01
   1.252464e+02   1.802466e+02
  -4.039295e+01   1.438487e+02
  -4.573619e+01   8.269488e+01
  -5.826646e+01  -1.934018e+01
   2.491191e+01  -2.596699e+01
   3.406061e+01  -3.778676e+01
   5.702167e+00   3.011647e+01
  -1.027528e+02  -1.897228e+01
  -8.005845e+00  -6.146281e+01
   9.702140e+01  -1.762922e+01
   1.312691e+02   1.231107e+00
   9.331871e+01   2.903116e+01
   2.973760e+01   1.100499e+02
  -1.351459e+02   8.540887e+01
  -1.468043e+02   3.773519e+01
  -6.012536e+01  -7.639808e+01
   7.192463e+01  -5.326962e+01
   7.077049e+01  -8.903374e+00
   5.719012e+01   4.355856e+01
  -5.204168e+01   7.358507e+01
  -6.496508e+01   1.345107e+01
  -4.399106e+01  -3.924972e+01
  -1.571162e+01  -8.692799e+01
  -2.290586e+01   4.145015e+01
  -5.150122e+01   3.862575e+01
  -2.995145e+01  -7.660222e+01
   1.693651e+01  -1.398426e+02
   1.477527e+02  -1.426704e+02
   1.986733e+02  -5.614871e+01
   1.644964e+02   1.111777e+02
   3.906360e+01   1.252850e+02
  -1.027863e+02   7.951041e+01
  -3.797462e+01  -1.864683e+01
   1.350045e+01  -4.565900e+01
   1.182751e+02   3.321258e+01
   7.746600e+01   9.090355e+01
  -7.016638e+01   1.094491e+02
  -1.469713e+02   1.779195e+01
  -1.291565e+02  -2.568350e+01
  -5.483257e+00  -6.458663e+01
   4.261798e+01  -7.984782e+01
   7.344655e+01  -2.767875e+01
  -6.945845e+01   2.947991e+01
  -1.032401e+02  -1.529638e+01
  -3.248998e+01  -1.004934e+02
   8.263541e+01  -1.342076e+02
   1.880173e+02  -7.352066e+01
   1.417412e+02   8.120327e+01
   3.592586e+01   2.174555e+02
  -8.881714e+01   1.370516e+02
  -9.896801e+01   3.584676e+00
  -6.204921e+01  -1.074892e+02
  -2.114080e+01  -1.293690e+02
   2.825091e+01  -4.125354e+01
   5.224598e+01   5.946971e+01
  -7.842054e+00  -2.108708e+01
  -5.372672e+00  -3.743878e+01
   4.839568e+01   6.120159e+00
   9.024215e+01   6.958390e+01
   6.420190e+01   1.034549e+02
  -1.077432e+02   2.813272e+01
  -1.527428e+02  -9.281525e+00
  -8.975023e+01  -7.000414e+01
   1.750301e+01  -6.910691e+01
   1.023215e+02  -1.095657e+01
   6.527998e+01   1.332928e-01
   2.474203e+00   2.905625e+01
  -1.204996e+01   1.628839e+01
  -1.558523e+01  -6.614625e+00
   2.982767e+00   1.804224e+01
  -4.021660e+01   3.608353e+00
  -5.663448e+01   1.164323e+00
  -8.090182e+01  -4.536423e+00
  -3.034098e+01  -1.119066e+02
   1.236735e+02  -7.209674e+01
   1.931939e+02  -5.184426e+01
   1.790839e+02   7.876599e+01
   3.788701e+01   1.768943e+02
  -8.233800e+01   1.581421e+02
  -1.050896e+02   5.598287e+01
  -9.229126e+01  -4.352420e+01
  -5.284959e+00  -4.620361e+01
  -6.184631e+00  -2.812905e+01
   2.609128e+01  -2.622547e+01
  -3.657850e+01  -5.212435e+01
  -6.506391e+01  -9.776118e+01
   3.810170e+01  -9.787509e+01
   8.796489e+01  -1.489990e+00
   6.748455e+01   7.141104e+01
  -8.725113e+00   1.288599e+02
  -6.525823e+01   1.247871e+01
  -1.010990e+02  -8.099001e+01
  -7.989246e+01  -1.148932e+02
   6.120004e+01  -8.863193e+01
   7.430785e+01   3.083691e+01
   4.391951e+01   5.282607e+01
  -3.879426e+01   1.094810e+02
  -7.095988e+01   3.708527e+00
   3.010831e+01  -4.534823e+01
   7.726585e+01  -3.149019e+01
   1.000481e+02   3.657337e+01
  -8.152395e+01   8.943419e+01
  -1.517177e+02   5.694116e+01
  -7.889257e+01  -1.052946e+01
   1.182911e+01  -1.030327e+02
   6.457136e+01  -7.383366e+01
   5.352508e+01   3.842533e+00
   2.232429e+01   4.440660e+01
  -9.854855e+00   5.224108e+01
  -3.559591e+01   7.350740e+00
  -1.726387e+01  -4.616201e+01
   4.365587e+00  -2.180390e+01
   4.447823e+01   3.446663e+01
   4.412677e+01   3.640159e+01
  -8.672310e+00  -7.347300e+00
  -4.072264e+01  -5.642096e+01
  -7.935585e+00  -1.551531e+01
   4.871053e+01   2.876672e+01
   1.008583e+01   8.592095e+01
  -1.611724e+01   4.232791e+01
  -7.321064e+01  -2.506028e+01
  -1.994051e+01  -6.541261e+01
   2.356020e+01  -2.762003e+01
   7.769201e+01   7.473112e-01
   5.360744e+01   8.781556e+01
  -2.785063e+01   3.996208e+01
  -9.216276e+01   6.569836e-01
  -8.520046e+01  -2.450532e+01
   3.008063e+01  -5.556672e+01
   6.523811e+01  -3.945988e+01
   1.231361e+01  -5.743899e+00
  -2.931030e+01  -1.997024e+01
  -2.990386e+01  -2.444490e+00
   4.950122e+01  -1.610012e+01
   6.732535e+01  -1.086897e+01
