
 $NMID
 id='ANONYMOUS ', fmtdat='(2E16.6)'
 volume=1.0
 tramp=1.0
 $END
   2.972607e+03  -1.992714e+02
   2.028042e+03   1.884945e+03
  -1.757167e+02   2.236928e+03
  -1.264067e+03   1.251246e+03
  -1.003158e+03   1.976310e+02
  -7.361298e+01  -2.929802e+02
   3.640385e+02  -4.066259e+01
   1.006344e+02   4.673247e+02
  -3.724245e+02   5.242447e+02
  -6.249123e+02   9.362581e+01
  -3.993104e+02  -5.041818e+02
  -1.981648e+01  -6.610098e+02
   2.889231e+02  -2.537756e+02
   3.010218e+02   3.261476e+02
  -1.665426e+02   5.415734e+02
  -3.516531e+02   1.550473e+02
  -3.057935e+02  -4.517557e+02
   1.628714e+02  -6.536552e+02
   4.703145e+02  -2.700573e+02
   3.803084e+02   2.096572e+02
   1.016367e+02   3.492371e+02
  -1.491023e+02   2.148122e+02
  -9.557310e+01   4.304566e+01
   1.514135e+02   2.227172e+01
   2.867231e+02   2.612712e+02
  -3.543190e+01   3.045220e+02
  -3.898099e+02   1.616835e+02
  -5.242326e+02  -1.617777e+02
  -1.545593e+02  -2.917028e+02
   2.841845e+02  -1.774824e+02
   4.505590e+02   1.677476e+02
   1.894504e+02   3.687652e+02
  -2.517058e+02   2.882633e+02
  -5.066376e+02   1.165246e+02
  -2.469521e+02  -1.653707e+02
  -2.695314e+01  -3.009126e+02
  -1.213218e+01  -1.599934e+02
  -7.923766e+01   1.165218e+02
  -9.566282e+01   1.067343e+02
  -1.624361e+02  -1.471243e+02
   6.007580e+01  -4.654425e+02
   2.820597e+02  -3.790183e+02
   2.623522e+02   1.356327e+01
   8.294113e+01   2.912489e+02
  -1.201007e+02   1.311015e+02
  -1.397048e+02  -2.621947e+02
   7.388572e+01  -2.822189e+02
   4.624838e+02  -9.726603e+01
   3.768445e+02   3.323125e+02
   1.039209e+02   4.352816e+02
  -2.577881e+02   3.051199e+02
  -5.109021e+02  -6.222138e+01
  -3.250723e+02  -2.051664e+02
   5.271062e+01  -2.394838e+02
   2.752594e+02  -2.475749e+01
   2.418859e+02  -9.025510e-01
   3.177462e+00   7.751707e+01
  -6.316186e+01  -5.810432e+01
   8.897769e+01  -8.267805e+01
   1.708018e+02   1.977386e+01
   1.067404e+02   2.060716e+02
  -1.582881e+02   1.922020e+02
  -3.706335e+02   1.463227e+02
  -2.516116e+02  -1.033641e+02
   4.398559e+01  -2.805308e+02
   2.736692e+02  -3.568563e+02
   3.278852e+02  -1.236405e+02
   2.215083e+02   1.532863e+02
   2.321321e+01   3.382927e+02
  -1.361181e+02   2.307861e+02
  -1.880959e+01   1.253255e+02
  -5.945905e+01   9.484579e+01
  -9.903674e+01   1.082951e+02
  -2.358617e+02   3.808589e+01
  -1.964076e+02  -1.112619e+02
  -6.612143e+01  -2.630284e+02
   1.142819e+02  -2.124937e+02
   1.632917e+02   1.263479e+01
   9.847322e+01   2.394193e+02
  -7.770525e+01   1.849683e+02
  -2.499163e+02   2.789083e+01
  -3.029335e+02  -1.838512e+02
  -1.024739e+02  -3.202184e+02
   8.300222e+01  -2.388959e+02
   1.704653e+02  -1.273449e+02
   1.693389e+02  -1.218385e+02
   1.188406e+02  -1.841411e+01
   2.967846e+02  -2.915305e+01
   4.081045e+02   5.309403e+01
   3.090050e+02   3.115194e+02
   3.015642e+01   4.242742e+02
  -3.885039e+02   3.681605e+02
  -4.533552e+02   1.268285e+02
  -3.065816e+02  -1.313191e+02
   1.958729e+01  -2.029346e+02
   1.223432e+02  -1.480508e+02
  -1.522798e+01   1.243773e+01
  -9.108350e+01   1.045140e+01
  -9.824539e+01  -1.043277e+02
   3.615049e+00  -1.249328e+02
   8.671762e+01  -9.188280e+01
   6.363138e+01   4.842813e+01
  -5.450229e+00   1.491732e+02
  -1.585040e+02   2.843785e+01
  -8.456012e+01  -1.731208e+02
   6.670490e+01  -2.964396e+02
   2.658955e+02  -1.647958e+02
   3.619152e+02   2.655973e+01
   2.414784e+02   2.501653e+02
   3.762097e+01   2.760774e+02
  -1.331397e+02   1.624309e+02
  -1.284036e+02   2.263186e+01
  -2.930566e+01  -1.429499e+01
   4.973720e+01   5.478800e+01
   5.869360e+00   1.064690e+02
  -1.052790e+02   3.956106e+01
  -1.132273e+02  -5.101981e+01
  -6.850545e+01  -5.413827e+01
   9.688701e+01  -2.356551e+01
  -1.480858e+01   7.291889e+01
  -1.673800e+02   8.267035e+01
  -2.875740e+02  -1.456156e+01
  -2.030537e+02  -1.898992e+02
  -1.877110e+01  -2.382843e+02
   1.902570e+02  -2.025504e+02
   2.228060e+02  -4.688159e+01
   8.221879e+01   7.321430e+01
  -6.952769e+01   1.099456e+02
  -9.205778e+01  -3.101472e+01
   6.045139e+01  -7.101196e+01
   1.652736e+02  -9.558257e+00
   1.817361e+02   8.370668e+01
   6.343818e+01   1.875502e+02
  -6.487758e+01   1.040737e+02
  -1.126122e+02   2.181057e+01
  -2.331405e+01  -4.985809e+01
   7.396723e+01   1.995767e+01
   2.696361e+01   1.379239e+02
  -1.166897e+02   1.217187e+02
  -2.468022e+02   4.336162e+01
  -1.786043e+02  -1.544609e+02
  -1.115377e+00  -2.077893e+02
   1.636275e+02  -1.493095e+02
   2.146350e+02  -2.340536e+00
   3.665788e+01   7.760994e+01
  -8.012444e+01   8.490041e+01
  -6.381148e+01   2.434376e+01
   1.134402e+01  -9.906793e+00
   4.384688e+01  -3.665096e+01
  -1.253692e+01   1.484651e+01
  -1.185917e+02  -1.162583e+01
  -8.285545e+01  -1.295504e+02
   7.803849e+00  -1.374167e+02
   1.911489e+02  -1.345685e+02
   2.617656e+02   2.201579e+01
   1.528374e+02   1.744592e+02
   9.090225e+00   1.937337e+02
  -8.805998e+01   1.052896e+02
  -1.260585e+02   1.888938e+01
  -7.266612e+01  -2.791942e+01
  -3.420911e+00  -1.543803e+01
  -6.088445e+01   2.552689e+01
  -2.115419e+01   9.372663e-01
  -4.558944e+01  -3.417843e+01
   2.998668e+01  -9.612334e+01
   1.008811e+02  -1.131873e+02
   1.361328e+02   3.752754e+01
   2.098160e+01   1.375325e+02
  -1.248801e+02   1.023728e+02
  -2.108730e+02  -4.119107e+01
  -1.083715e+02  -1.922886e+02
   1.216113e+02  -2.079438e+02
   2.326493e+02  -9.717337e+01
   2.389301e+02   1.193897e+02
   6.331692e+01   1.588573e+02
  -1.790690e+01   1.410916e+02
  -8.940940e+01   8.478957e+01
  -6.992031e+01   8.241471e+01
  -5.075660e+01   1.239048e+02
  -1.061576e+02   1.348817e+02
  -1.080917e+02  -1.083664e+01
  -1.156054e+02  -1.555577e+02
  -2.753081e+01  -1.984438e+02
   5.976600e+01  -1.605132e+02
   2.008634e+02  -2.124773e+01
   1.431407e+02   9.373810e+01
   4.382097e+01   1.276772e+02
  -6.495757e+01   6.505539e+01
  -6.654277e+01   1.400401e+00
   2.016459e+01  -7.840421e+01
   1.060442e+01  -6.021749e+01
  -1.291155e+01  -1.539100e+00
  -4.721763e+01  -3.266506e+01
  -7.495825e+01  -5.584808e+01
   7.425852e+01  -1.320054e+01
   1.393537e+02  -1.179972e+01
   1.283611e+02   3.930019e+01
  -1.594444e+01   5.405928e+01
  -1.056960e+02   3.463705e+01
  -1.214612e+02   9.071116e+00
  -7.794240e+01  -7.022180e+01
   1.105824e+02  -5.104151e+01
   6.751170e+01   1.662849e+01
   1.308702e+01   3.615388e+01
  -2.193502e+01   3.887231e+01
  -4.455168e+01   4.970382e+00
  -1.100555e+01  -1.044899e+01
  -2.695868e+01  -2.523950e+01
  -2.316055e+01  -1.045619e+01
  -1.796910e+01   1.385289e+01
  -4.676558e+01  -2.259527e+01
   5.430683e+01  -1.333360e+02
   1.463949e+02  -1.414002e+02
   1.797810e+02  -3.120635e+01
   1.394768e+02   1.386654e+02
   3.664344e+01   1.287270e+02
  -5.755107e+01   5.555244e+01
  -2.668425e+01   8.016172e+00
   9.567019e+01   1.883636e+01
   1.447786e+02   8.016093e+00
   8.281754e+01   8.216479e+01
  -6.330008e+01   1.450342e+02
  -1.576156e+02   7.361101e+01
  -1.241854e+02   5.127813e+00
  -5.243767e+01  -7.532220e+01
   3.278286e+01  -1.878707e+01
   1.845410e+01   3.379583e+01
  -5.032872e+01   4.172258e+01
  -1.038830e+02  -2.415079e+01
  -6.528542e+01  -1.393352e+02
   7.494691e+01  -1.650855e+02
   1.324971e+02  -5.612573e+01
   1.233482e+02   1.028855e+02
  -1.953183e+01   2.219578e+02
  -1.064438e+02   9.497795e+01
  -1.386950e+02  -2.387395e+01
  -7.607963e+01  -1.316156e+02
   1.693370e+01  -5.332860e+01
   4.672548e+01  -1.642746e+00
   2.723338e+01   2.228139e+01
  -1.117820e+01  -3.826824e+01
   6.846613e+00  -3.601313e+01
   2.580448e+01   5.597514e+01
   6.643508e+01   7.656030e+01
   1.863941e+01   8.975785e+01
  -6.960155e+01   4.037369e+01
  -1.355800e+02  -5.522578e+01
  -1.558667e+02  -6.635679e+01
  -5.346527e+01  -3.223650e+01
   8.874038e+01  -2.440695e+01
   6.826480e+01   3.593571e+00
   3.846672e+01  -2.660428e+01
  -7.065929e+01   1.646414e+01
  -4.458097e+01   1.323937e+01
   1.473622e+01   1.190253e+01
  -2.557470e+00  -5.963901e+00
  -8.530160e+01  -2.502314e+00
  -9.217263e+01  -4.899734e+01
  -2.309005e+00  -1.015125e+02
   1.314953e+02  -1.280465e+02
   1.902521e+02  -4.601774e+01
   1.596542e+02   8.525898e+01
   9.958904e+00   1.451696e+02
  -1.175085e+02   1.438107e+02
  -8.060386e+01   1.442165e+01
  -7.554884e+01  -2.564003e+01
  -3.092032e+01  -3.855192e+01
  -2.116050e+01  -1.966294e+01
   3.495061e+00  -9.006840e+00
  -3.677984e+01  -2.702032e+01
  -2.989140e+01  -5.573942e+01
   5.235407e+01  -8.788082e+01
   9.512793e+01   4.348508e+01
   6.486251e+01   8.391839e+01
   5.804423e+01   1.215435e+02
  -6.931747e+01   4.938056e+01
  -1.201310e+02  -6.312466e+01
  -3.873009e+01  -8.688114e+01
   8.833277e+01  -4.622645e+01
   8.136776e+01   3.127205e+01
   4.873764e+01   4.878468e+01
   1.757341e+01   1.002937e+02
  -2.446768e+01   1.272880e+00
   4.072722e+01   2.604646e+01
   7.129681e+01   2.995573e+01
   4.242014e+01   6.289243e+01
  -6.958845e+01   5.735203e+01
  -1.021857e+02   5.636353e+01
  -1.012491e+02  -3.175601e+01
   3.373536e+01  -6.939966e+01
   4.301248e+01  -5.806728e+01
   3.506991e+01  -9.344911e+00
  -5.656938e+00   7.168034e+01
  -5.636453e+01   3.179043e+01
  -5.523120e+01  -2.402745e+01
  -5.489973e+01  -4.448353e+01
   1.407960e+00  -5.137773e+01
   4.871438e+01  -2.192800e+00
   8.507044e+00   1.547505e+01
   5.306489e+01   1.547964e+01
  -9.678245e+00  -1.526780e+01
   3.861815e+01   2.614365e+01
  -2.422054e+01   5.663535e+01
  -1.243607e+01   6.294538e+01
  -2.987939e+01   1.023953e+01
  -1.662084e+01  -3.299316e+00
  -3.649760e+01  -2.964306e+01
   2.709022e+01   7.314057e-01
   6.012622e+01   1.237104e+01
   3.617943e+01   7.976759e+01
  -3.871013e+01   7.603077e+01
  -8.388931e+01   1.013335e+01
  -5.993168e+01  -4.964281e+01
   7.892487e+01  -5.312820e+01
   2.415743e+01  -3.243483e+01
   1.653492e+01  -1.320728e+01
  -1.469270e+01   1.248657e+00
  -4.341676e+01   6.455472e+00
   4.766504e+01  -1.523355e+01
   9.504113e+01  -1.074592e+01
