
 $NMID
 id='ANONYMOUS ', fmtdat='(2E16.6)'
 volume=1.0
 tramp=1.0
 $END
  -4.663006e+03   3.427664e+02
  -2.493935e+03  -3.307613e+03
   1.321322e+03  -2.850365e+03
   2.168728e+03  -6.286806e+02
   9.486169e+02   8.179379e+02
  -8.153255e+02   6.210618e+02
  -1.010338e+03  -5.984806e+02
   1.155391e+01  -1.169358e+03
   8.491975e+02  -8.338702e+02
   9.957840e+02   1.531624e+02
   5.219390e+02   9.353122e+02
  -2.964277e+02   9.197180e+02
  -7.657126e+02   8.696734e+01
  -3.799477e+02  -7.802027e+02
   3.252361e+02  -8.186549e+02
   6.423224e+02   2.923213e+01
   2.643318e+02   7.388066e+02
  -3.207322e+02   6.561844e+02
  -5.747790e+02   2.302989e+01
  -3.483699e+02  -3.706123e+02
  -3.665621e+01  -4.660968e+02
   2.583905e+02  -2.899619e+02
   2.952527e+02  -1.186950e+01
  -1.396248e+02   1.264936e+02
  -4.452523e+02  -4.322278e+01
  -2.626730e+02  -4.656052e+02
   4.451148e+02  -4.993958e+02
   9.269389e+02   2.084475e+01
   4.979190e+02   5.773819e+02
  -3.912022e+02   5.412074e+02
  -7.938234e+02   1.865150e+01
  -4.278600e+02  -5.138872e+02
   2.516552e+02  -6.248059e+02
   6.228194e+02  -1.692004e+02
   4.273276e+02   2.592509e+02
   9.308709e+01   5.759345e+02
  -1.844871e+02   2.851204e+02
  -2.320035e+02  -2.514976e+02
   2.320413e+02  -5.051024e+02
   4.642717e+02   2.506314e+01
   2.618124e+02   7.405120e+02
  -4.855982e+02   7.415683e+02
  -6.364477e+02  -5.328249e+01
  -2.452502e+02  -5.958125e+02
   3.149967e+02  -3.606568e+02
   4.596910e+02   3.102086e+02
  -9.218660e+01   5.549985e+02
  -6.188852e+02   1.374508e+02
  -5.795896e+02  -3.957350e+02
  -1.835256e+02  -6.160965e+02
   3.761254e+02  -3.679517e+02
   6.372709e+02   3.108040e+01
   3.895183e+02   3.955769e+02
  -1.849640e+02   4.378377e+02
  -4.467384e+02   4.646328e+01
  -2.210709e+02  -1.901245e+02
   1.669071e+02  -1.052356e+02
   1.611217e+02   1.705191e+02
  -1.473507e+02   2.171320e+02
  -3.466196e+02  -8.505882e+01
  -1.547190e+02  -3.191669e+02
   1.993427e+02  -2.706504e+02
   2.499442e+02  -1.204519e+02
   1.602563e+02   8.218083e+01
   2.325324e-01   1.561839e+02
  -2.097123e+02   3.087766e+02
  -3.809119e+02   2.784530e+02
  -3.284532e+02  -1.102638e+02
  -5.004616e+01  -4.494828e+02
   1.129288e+02  -4.110265e+02
   9.590988e+01  -2.067680e+01
   1.781991e+01   3.124478e+00
   7.554789e+00  -5.986800e+01
   1.822726e+02  -1.456037e+02
   2.388176e+02   3.904225e+01
   1.919642e+02   3.110975e+02
  -6.715749e+01   3.194464e+02
  -2.135033e+02   2.179876e+01
  -2.034033e+02  -2.682249e+02
  -5.344313e+00  -2.892870e+02
   2.864923e+02  -1.314479e+02
   3.905334e+02   1.636323e+02
   2.079539e+02   3.715896e+02
  -9.260093e+01   3.204043e+02
  -2.388336e+02   1.231424e+02
  -1.663501e+02  -1.425823e+01
  -1.020546e+02   6.115687e+01
  -2.567549e+02   9.025653e+01
  -4.060474e+02  -8.255565e+00
  -3.002548e+02  -2.975017e+02
  -3.422107e+01  -3.715096e+02
   4.208561e+02  -4.416286e+02
   4.383581e+02  -2.000108e+02
   3.788952e+02   7.970092e+01
   3.998645e+01   3.031295e+02
  -9.416189e+01   2.451829e+02
  -9.315842e+01   1.808330e+01
   1.109498e+02  -8.353397e+01
   2.458467e+02  -7.442197e+00
   6.436357e+01   2.225390e+02
  -1.564550e+02   1.651626e+02
  -1.633392e+02  -7.308381e+01
   2.472613e+01  -2.118821e+02
   1.876957e+02  -2.283254e+01
   2.305593e+02   2.526951e+02
  -3.207739e+01   3.298498e+02
  -2.291374e+02   2.177670e+02
  -2.876238e+02  -4.300670e+01
  -2.107946e+02  -2.492234e+02
  -7.376968e+01  -2.679148e+02
   1.229389e+02  -1.955162e+02
   1.521742e+02  -5.666018e+01
   3.742230e+01  -1.224334e+01
  -7.680126e+01  -1.748076e+01
  -3.106272e+01  -1.455532e+02
   1.289130e+02  -1.246188e+02
   1.585386e+02   1.787209e+01
   8.344079e+01   8.160853e+01
  -1.013846e+02   3.738242e+01
  -7.479724e+01  -8.716050e+01
   9.527156e+01  -8.515755e+01
   2.807945e+02   6.976975e+00
   2.680218e+02   1.477438e+02
   5.193259e+01   2.068317e+02
  -1.162664e+02   2.386879e+02
  -2.991186e+02   1.923496e+02
  -1.634101e+02  -6.244585e+01
   1.430583e+01  -1.212170e+02
   1.040166e+02  -1.524172e+01
  -2.828056e+01   1.178576e+02
  -1.827015e+02   8.923706e+01
  -2.265057e+02  -1.152138e+02
  -4.627639e+01  -2.290252e+02
   5.241288e+01  -1.257954e+02
   1.387250e+02  -4.801818e+01
   9.360310e+01   3.577660e+01
  -5.469570e+01  -1.173360e+01
  -6.544955e+01  -5.501744e+01
   6.430997e+01  -1.415658e+02
   2.032370e+02  -3.535174e+01
   1.813929e+02   1.484286e+02
  -2.126155e+01   2.136068e+02
  -1.887480e+02   1.220215e+02
  -1.946993e+02   2.402860e+01
  -7.524247e+01  -1.096088e+02
   4.175079e+01  -1.019529e+02
   1.872211e+01  -1.474764e+01
   2.000038e+01  -3.815494e+01
  -1.812955e+01  -4.770434e+00
   3.362611e+01   1.466918e+01
   7.297051e+01   1.690499e+01
   9.850001e+01   6.742151e+01
   3.109276e+01   1.420119e+02
  -9.245482e+01   1.121924e+02
  -1.787676e+02   3.876757e+01
  -1.696331e+02  -1.307158e+02
  -1.456030e+01  -2.641605e+02
   8.111368e+01  -1.503993e+02
   1.544037e+02  -5.660362e+01
   4.119545e+01   5.814679e+01
   7.458220e+01   5.751669e+01
   5.611210e+01  -2.187401e+01
   6.792338e+01  -8.625094e+00
   3.960792e+01   2.608927e+01
  -3.400748e+01   7.708432e+01
  -1.132358e+02   2.927936e+01
  -4.807161e+01  -2.350093e+01
   5.077421e+01  -1.114090e+02
   1.165746e+02  -7.862449e+01
   1.783508e+02   1.345718e+01
   7.796433e+01   1.730206e+02
  -1.096750e+02   2.239374e+02
  -2.667683e+02   1.282495e+02
  -2.527876e+02  -8.220448e+01
  -9.157207e+01  -1.443128e+02
   9.599111e+00  -1.334033e+02
   9.979665e+01  -9.448892e+01
   5.905355e+01  -5.706719e+01
   6.604136e+01  -9.812320e+01
   1.023401e+02  -1.096974e+02
   1.413263e+02   4.213145e+00
   9.161803e+01   1.424380e+02
   3.712303e+01   2.341917e+02
  -4.339697e+01   1.609693e+02
  -1.365418e+02   2.702369e+01
  -1.564509e+02  -9.963936e+01
   1.585523e+01  -1.987444e+02
   7.252185e+01  -5.327448e+01
   9.888928e+01   1.244823e+00
  -2.778162e+01   6.048092e+01
  -7.100735e+00   3.839155e+01
   2.399841e+01   2.000443e+01
   9.284807e+01   2.554187e+01
   7.313384e+01   1.130277e+00
  -6.913054e+01   3.778917e+01
  -1.680494e+02   4.675153e+01
  -1.507779e+02  -6.900260e+01
   1.626703e+01  -9.892140e+01
   1.042203e+02  -8.479399e+01
   1.290402e+02  -1.658143e+01
   5.317669e+01   4.059848e+01
  -6.401612e+01   1.430803e+01
  -7.804988e+01  -3.449694e+01
   1.597070e+01  -8.587711e+01
   6.853029e+01  -4.203802e+01
   5.985800e+01   3.790651e+01
  -1.349776e+01   6.181999e+01
   1.947720e+00   2.173935e+01
   9.474855e+01  -5.162379e+01
   9.201703e+01  -1.528385e+01
   3.573168e+01   6.001508e+01
  -2.767401e+01   1.699417e+02
  -1.316647e+02   1.594562e+02
  -1.619162e+02   1.607980e+01
  -6.468496e+01  -7.180429e+01
   1.395536e+00  -1.307197e+02
   7.662251e+01  -7.151920e+01
   8.710839e+01   2.222112e+01
  -2.284522e+01   2.605274e+01
  -1.072033e+02  -3.094312e+01
  -9.656450e+01  -1.029512e+02
   8.075051e+01  -8.513960e+01
   1.954351e+02  -4.638848e+01
   1.690163e+02   3.991793e+01
   4.101497e+01   9.315199e+01
  -4.217359e+01   8.709916e+01
  -1.902593e+01  -1.415852e+01
   3.242582e+01  -2.879962e+01
   1.323339e+02   2.213867e+01
   3.452065e+01   5.931087e+01
  -7.759143e+01   1.541498e+02
  -1.674697e+02   7.354008e+01
  -1.527231e+02  -1.147129e+02
   1.346317e+00  -1.965052e+02
   1.244004e+02  -1.408128e+02
   1.440970e+02   4.463486e+00
   5.471657e+01   9.509349e+01
   2.899083e+01   9.319765e+01
  -3.490054e+01  -1.559757e+01
  -7.498023e+01  -1.253977e+01
  -2.521716e+01  -1.327288e+01
   9.204376e+00   3.496891e+01
  -1.078483e+01  -8.870679e+00
  -7.632957e+01  -6.275042e+01
  -2.375026e+01  -1.154165e+02
   1.236761e+00  -3.724396e+01
   1.372215e+02   1.224645e+01
   1.106381e+02   8.312675e+01
  -1.373060e+01   1.388776e+01
  -6.824872e+01   6.337503e+00
  -1.048519e+02   4.578965e+01
  -5.658472e+01  -1.760792e+01
   6.518074e+01  -4.554287e+01
  -1.473672e+01  -1.111952e+01
  -3.515726e+01   1.929096e+01
   1.221413e+01  -1.638094e+01
   6.695773e+01  -6.890549e+00
   7.517081e+01   3.949309e+01
  -2.196956e+01   5.314516e+01
  -1.032528e+02   8.560912e+01
  -2.161971e+02   8.014076e+01
  -1.449025e+02  -8.605564e+01
  -3.414705e+01  -1.813486e+02
   3.931450e+01  -1.605068e+02
   9.426174e+01  -6.123490e+01
   6.338818e+01   5.032929e+01
   2.156725e+01   3.651126e+01
  -2.179246e+00  -1.788030e+01
   1.768992e+01   8.290768e+00
   5.143032e+01   3.678904e+01
   3.746530e+01   7.168806e+01
  -2.480922e+01   1.619972e+01
  -9.883873e+01   3.465572e+01
  -7.505904e+01  -1.156305e+02
  -1.441180e+01  -8.577119e+01
   9.222923e+01  -2.191847e+01
   1.260222e+02   1.101400e+02
   6.219875e+01   1.211752e+02
  -2.422512e+01   5.906511e+01
  -1.154839e+02   1.467423e+01
  -5.815892e+01  -7.218669e+01
   4.427256e+01  -5.788852e+01
   2.257808e+01  -2.083459e+01
   3.817495e+00   1.946358e+01
  -2.790170e+01   2.049256e+01
  -1.760376e+01  -1.917456e+01
   5.201473e+01  -3.174039e+01
   7.631740e+01  -7.213156e+01
   6.713992e+01   1.174347e+01
  -3.563944e+01   1.452596e+01
  -5.547694e+01   2.573749e+01
  -2.645806e+01   2.946043e+01
   1.479732e+01  -5.961678e+01
   1.148516e+00  -5.514251e+01
   5.612215e+01   6.050530e+00
   2.686875e+01   7.753145e+01
   8.072537e+00   6.391075e+01
  -1.708529e+01  -2.929493e+00
  -1.987221e+01   2.469841e+01
  -5.223320e+01   2.293045e+00
  -1.790810e+01   8.622331e+00
   9.825929e+00  -7.685504e+01
   1.363533e+01  -6.879264e+01
   1.171563e+01  -4.628326e+01
   3.549890e+01   3.225525e+01
   2.654645e+01   5.931000e+01
   2.178653e+01   4.832838e+01
  -7.196197e+01  -7.043236e+00
  -4.225410e+01  -3.828229e+00
   1.455081e+01  -5.917383e+01
   5.236687e+01  -5.936095e+01
   9.164743e+01   1.098351e+01
   3.399613e+01   4.932981e+01
   9.046676e+00   9.423999e-01
  -6.751282e+01  -2.279124e+01
  -5.394379e+01  -5.927386e+00
   7.374590e+01  -3.159468e+01
   4.173524e+01   2.349585e+01
  -3.268030e+01   3.551657e+01
  -1.020439e+02   1.362330e+01
