
 $NMID
 id='ANONYMOUS ', fmtdat='(2E16.6)'
 volume=1.0
 tramp=1.0
 $END
  -4.399778e+03   2.957611e+02
  -2.754662e+03  -2.989287e+03
   8.957546e+02  -3.041006e+03
   2.283235e+03  -9.761563e+02
   1.111098e+03   7.700996e+02
  -7.918661e+02   6.646204e+02
  -9.408193e+02  -4.612782e+02
  -9.915926e+01  -1.129898e+03
   8.794820e+02  -9.306528e+02
   1.059194e+03   2.825482e+01
   5.580489e+02   9.514439e+02
  -2.397006e+02   1.005165e+03
  -7.246163e+02   1.646788e+02
  -4.457325e+02  -8.219935e+02
   3.214307e+02  -7.499405e+02
   6.540016e+02   9.888169e+00
   3.169132e+02   8.065363e+02
  -3.767022e+02   7.206110e+02
  -6.393284e+02   1.422617e+02
  -4.151500e+02  -4.171513e+02
  -1.266536e+01  -4.616269e+02
   2.767845e+02  -3.251243e+02
   2.657043e+02   2.945001e+01
  -1.235268e+02   1.595986e+02
  -5.020274e+02  -8.398815e+01
  -2.624121e+02  -4.915961e+02
   4.719324e+02  -5.017316e+02
   8.534902e+02   9.257405e+00
   4.984442e+02   5.288199e+02
  -3.509594e+02   5.827244e+02
  -8.056076e+02  -7.014577e+01
  -3.908126e+02  -4.556186e+02
   3.031500e+02  -5.961356e+02
   5.954817e+02  -2.160287e+02
   4.684284e+02   2.507088e+02
   9.398621e+01   5.414150e+02
  -2.623645e+02   3.550525e+02
  -2.604878e+02  -2.523530e+02
   1.324619e+02  -4.636843e+02
   4.834236e+02  -3.743454e+01
   3.160993e+02   7.012533e+02
  -3.067705e+02   8.638418e+02
  -6.412737e+02   2.206422e+01
  -2.929163e+02  -5.765621e+02
   2.750262e+02  -4.201485e+02
   4.295373e+02   3.517750e+02
   2.615424e+01   6.177496e+02
  -6.143092e+02   1.994183e+02
  -6.499766e+02  -4.864430e+02
  -1.967870e+02  -6.003896e+02
   3.665634e+02  -3.800826e+02
   6.633775e+02   6.655739e+01
   3.982285e+02   4.352815e+02
  -1.524496e+02   4.294052e+02
  -4.295466e+02   6.918240e+01
  -2.417048e+02  -1.704591e+02
   9.248886e+01  -9.269540e+01
   1.715370e+02   1.720330e+02
  -1.415047e+02   1.912867e+02
  -4.397272e+02  -6.157426e+01
  -1.713874e+02  -3.497164e+02
   2.315763e+02  -2.753737e+02
   3.359261e+02  -5.376639e+01
   2.503766e+02   6.487198e+01
  -3.160202e+01   2.514915e+02
  -1.788936e+02   3.345137e+02
  -3.577130e+02   2.901565e+02
  -3.269871e+02  -1.191065e+02
  -1.225938e+02  -4.163230e+02
   7.214389e+01  -3.611400e+02
   8.929907e+01  -1.038306e+02
   1.020483e+01   3.559710e+01
   4.352183e+00  -8.836940e+01
   2.240337e+02  -1.784829e+02
   3.243236e+02   4.453815e+01
   1.914662e+02   2.869872e+02
  -8.097082e+01   2.642131e+02
  -2.426343e+02   1.363105e+01
  -2.214155e+02  -2.515655e+02
  -2.371317e+01  -3.343583e+02
   2.759446e+02  -1.818002e+02
   3.956528e+02   1.888268e+02
   2.596375e+02   4.000996e+02
  -9.274187e+01   3.419114e+02
  -2.764166e+02   1.389081e+02
  -2.265988e+02  -1.161062e+01
  -1.536438e+02  -3.202868e+00
  -2.318813e+02   1.007100e+02
  -4.319004e+02  -7.055596e+01
  -3.586430e+02  -2.684776e+02
   4.972460e+01  -4.709410e+02
   3.945998e+02  -4.208004e+02
   5.278464e+02  -2.338919e+02
   3.701482e+02   1.081697e+02
   6.360550e+01   3.346283e+02
  -1.576909e+02   2.975396e+02
  -9.219173e+01   8.458046e+00
   1.201002e+02  -1.427058e+02
   2.443369e+02  -1.571530e+00
   4.943503e+01   2.063519e+02
  -1.694274e+02   2.269647e+02
  -2.165992e+02  -2.639247e+01
   4.735866e+01  -1.841856e+02
   2.437959e+02  -5.993769e+01
   1.904220e+02   2.365866e+02
  -8.834811e+00   3.330257e+02
  -2.555831e+02   2.319205e+02
  -3.473076e+02  -4.194279e+01
  -2.551836e+02  -2.170338e+02
  -1.236550e+02  -2.963396e+02
   8.776566e+01  -1.935541e+02
   2.188389e+02  -4.002811e+01
   9.164051e+01   3.472607e+01
  -8.811209e+01  -3.619385e+01
  -1.258892e+01  -1.507398e+02
   1.153466e+02  -1.543311e+02
   1.911341e+02   1.328149e+01
   7.573689e+01   5.143343e+01
  -7.156151e+01   5.405330e+01
  -7.246562e+01  -5.703885e+01
   1.262306e+02  -1.055371e+02
   2.753287e+02  -2.267791e+01
   3.225843e+02   1.428282e+02
   1.063642e+02   2.194146e+02
  -1.855694e+02   3.153557e+02
  -3.144307e+02   1.286523e+02
  -1.568090e+02  -4.339515e+01
  -7.298725e+00  -1.578091e+02
   9.456898e+01  -2.575690e+01
   1.759453e+01   1.170787e+02
  -1.658605e+02   3.597242e+01
  -2.284773e+02  -1.225856e+02
  -6.443244e+01  -2.854443e+02
   1.197375e+02  -1.804704e+02
   1.778227e+02  -4.580171e+01
   6.489300e+01   8.225303e+00
  -3.315847e+01  -2.500398e+01
  -3.819327e+01  -8.289924e+01
   7.859838e+01  -1.276502e+02
   1.659560e+02  -3.328886e+01
   2.107014e+02   1.012375e+02
   1.887815e+01   2.042120e+02
  -1.422997e+02   1.676182e+02
  -1.912396e+02  -3.236741e+00
  -8.443885e+01  -1.351792e+02
   3.938582e+01  -1.374189e+02
   5.946776e+01  -6.307192e+01
  -5.636673e+01  -2.607389e+00
   1.964201e+01   3.414288e+01
  -2.865376e+00   4.582854e+01
   7.831557e+01   8.481971e+00
   8.508152e+01   1.076152e+02
   2.599797e+01   1.311525e+02
  -7.481880e+01   1.844010e+02
  -2.152574e+02   4.867423e+01
  -1.959160e+02  -1.541420e+02
  -6.903799e+01  -2.158689e+02
   7.903915e+01  -2.119511e+02
   1.388010e+02  -2.705535e+01
   1.035733e+02   7.922396e+01
   3.962112e+01   2.249067e+01
   8.902247e+01  -1.634923e-01
   5.330139e+01   2.759660e+01
   1.006366e+01   2.329042e+01
  -4.445912e+01   1.015537e+02
  -1.035454e+02   2.234773e+01
  -1.098280e+02  -3.381808e+01
   8.542382e+00  -1.143636e+02
   1.155049e+02  -7.635619e+01
   1.730403e+02   1.809964e+01
   1.109584e+02   2.057919e+02
  -8.046640e+01   2.189578e+02
  -3.203711e+02   1.343509e+02
  -2.899289e+02  -5.554556e+01
  -9.840703e+01  -2.088688e+02
   8.010718e+01  -1.534502e+02
   1.208368e+02  -1.154592e+02
   8.620617e+01  -8.699564e+01
   9.712612e+01  -8.171462e+01
   7.656533e+01  -7.840002e+01
   8.567857e+01   4.095643e-01
   1.162928e+02   1.039777e+02
   6.085680e+01   2.260523e+02
  -9.528078e+01   1.935710e+02
  -1.442839e+02   2.497272e+01
  -1.675642e+02  -1.239273e+02
  -4.339890e+01  -1.996743e+02
   5.035562e+01  -1.132286e+02
   5.874639e+01  -1.581219e+01
  -2.036209e+01   3.846851e+01
  -1.968362e+01   3.391352e+01
   8.059678e+01   1.999690e+01
   9.951107e+01   1.299043e+01
   7.313805e+01   2.484560e+01
  -5.147215e+01   3.479715e+01
  -1.127259e+02   1.916976e+01
  -1.680332e+02  -4.177574e+01
  -1.908196e+01  -9.522061e+01
   1.681293e+02  -8.344439e+01
   1.435604e+02  -1.853314e+01
   2.066465e+01   3.746813e+01
  -5.881191e+01   2.717296e+01
  -9.766544e+01   2.701056e+01
  -1.108823e+01  -6.945047e+01
   7.069900e+01  -2.301880e+01
   6.593073e+01   5.212568e+01
   4.904862e+01   5.325528e+01
   3.777031e+01   2.679389e+01
   9.253077e+01  -2.655221e+01
   1.006111e+02   3.733266e+00
   6.065991e+01   1.709142e+01
  -1.006984e+01   1.177169e+02
  -1.443618e+02   1.530979e+02
  -1.004708e+02   8.320812e+01
  -1.259011e+02  -9.774774e+01
  -1.333724e+01  -1.154714e+02
   6.260616e+01  -4.768426e+01
   4.367471e+01   2.847393e+01
  -6.816730e+01   9.576550e+01
  -1.223212e+02  -7.481286e+01
  -1.102167e+02  -8.427983e+01
   8.836568e+01  -1.287829e+02
   2.080540e+02  -9.231375e+01
   1.909738e+02   7.206523e+00
   6.414901e+01   6.962074e+01
  -5.674368e+01   9.778357e+01
  -3.374874e+01  -3.669218e+00
   2.799184e+01  -3.806674e+01
   8.960739e+01  -3.811059e+00
   6.917768e+01   9.739139e+01
  -1.046634e+02   1.760420e+02
  -1.425975e+02   7.816077e+01
  -1.289890e+02  -7.467548e+01
  -5.484095e+01  -1.905024e+02
   9.843225e+01  -1.527421e+02
   9.383734e+01   8.526517e+00
   8.383271e+01   1.224204e+02
  -4.116733e+00   1.084087e+02
  -8.214668e+01   1.167775e-02
  -4.441684e+01  -1.316256e+01
   1.961489e+01  -8.351734e+00
  -1.756483e+01  -3.201158e+01
  -7.755032e+00  -1.251763e+01
  -3.602818e+01  -7.975397e+01
  -5.649370e+01  -1.076985e+02
   5.054794e+01  -3.789518e+01
   1.514728e+02   1.236644e+01
   1.527715e+02   1.049460e+02
   1.567168e+01   6.575520e+01
  -9.473382e+01   1.098915e+01
  -1.025236e+02   2.529483e+01
  -5.343185e+01  -2.703521e+01
   7.555278e+01  -3.653683e+01
   3.612345e+01  -5.570241e+01
  -3.273092e+01  -3.810254e+01
   4.118705e+00   1.552622e+01
   7.047532e+01   4.827258e+00
   1.303922e+02   2.010336e+01
  -4.805348e+01   6.558116e+01
  -1.087343e+02   8.502390e+01
  -1.970266e+02   6.801262e+01
  -1.911799e+02  -8.297535e+01
  -2.962419e+01  -1.949093e+02
   8.285502e+01  -1.485917e+02
   1.004667e+02  -4.059482e+01
   8.433427e+01  -7.924776e+00
   5.231534e+01   1.813946e+01
  -1.475662e+01  -5.743783e+00
  -2.014590e+01   2.916310e+01
   3.594814e+01   6.630034e+01
   3.529669e+01   1.197341e+02
  -1.486624e+01   1.150701e+02
  -7.101081e+01  -2.486676e+01
  -8.440162e+01  -1.439296e+02
  -8.627168e+00  -9.491879e+01
   1.040290e+02  -4.816464e+01
   1.273972e+02   9.696045e+01
  -5.146799e+00   1.009161e+02
  -7.554573e+01   7.997659e+01
  -1.026123e+02   4.208439e+00
  -3.486252e+01  -5.101212e+01
   5.189515e+01  -1.277453e+01
   4.477863e+01  -2.842144e+01
  -2.082276e+01   3.516792e+01
  -2.103792e+01  -1.482697e+01
   1.606517e+00  -1.616422e+01
   6.620045e+01  -5.428439e+01
   1.453611e+02  -6.822001e+01
   1.083283e+02  -2.767975e+01
   1.794594e+01   8.063995e+01
   1.133640e+01   7.454441e+01
  -3.593880e+01   4.257917e+01
   6.447797e+00  -6.583266e+01
   4.206679e+01  -5.510272e+01
   6.784778e+00   2.569987e+01
   1.245224e+01   3.555353e+01
  -4.286235e+01   1.310900e+01
  -1.071613e+01  -1.956883e-01
  -3.139457e+01  -6.977602e+00
   1.812413e+00  -1.080598e+01
   1.233076e+01  -1.105585e+01
  -2.766604e+00  -2.448706e+01
   4.606647e+01  -3.647068e+01
  -2.190640e+01  -3.117883e+01
   2.828369e+01  -7.452729e+00
   2.229098e+01   5.201800e+01
  -8.877310e+00   9.519164e+01
  -3.425962e+01   6.701455e+00
  -4.771000e+01  -4.624873e+01
   2.502270e+01  -1.068744e+02
   7.593698e+01  -6.651138e+01
   1.031765e+02   6.586558e+01
   2.745595e+01   7.208660e+01
  -5.071062e+01   6.471085e+01
  -7.529780e+01   3.159038e+00
  -4.292781e+01   2.205587e+00
   2.082700e+01   1.338963e+01
   4.865122e+01  -2.389556e+01
  -4.911150e+01   5.264033e+01
  -1.022331e+02   3.308916e+01
