
 $NMID
 id='ANONYMOUS ', fmtdat='(2E16.6)'
 volume=1.0
 tramp=1.0
 $END
  -4.583444e+03  -2.805492e+02
  -2.495718e+03  -2.534081e+03
   7.596815e+02  -2.587832e+03
   2.064586e+03  -8.616254e+02
   1.048223e+03   6.006389e+02
  -5.280082e+02   6.456351e+02
  -8.721985e+02  -3.868944e+02
  -7.851275e+01  -1.064606e+03
   7.913859e+02  -8.253885e+02
   1.025649e+03   3.793969e+01
   4.939324e+02   9.230872e+02
  -2.576195e+02   9.369584e+02
  -7.092973e+02   1.472613e+02
  -4.073985e+02  -7.939646e+02
   2.410411e+02  -8.014961e+02
   6.748398e+02  -5.984607e+00
   3.257409e+02   6.793164e+02
  -2.917641e+02   6.966382e+02
  -6.212712e+02   1.496700e+02
  -4.536671e+02  -4.159913e+02
  -4.374389e+01  -5.482805e+02
   2.789386e+02  -2.740385e+02
   2.665592e+02   9.487506e+00
  -1.385720e+02   1.163922e+02
  -4.115564e+02  -1.069939e+02
  -2.066743e+02  -4.666596e+02
   4.812100e+02  -4.155144e+02
   8.644967e+02   1.257168e+02
   4.613293e+02   6.002126e+02
  -3.970316e+02   4.766497e+02
  -8.013983e+02  -5.357753e+01
  -3.929168e+02  -5.460016e+02
   2.952509e+02  -5.494943e+02
   5.979109e+02  -1.897969e+02
   4.235160e+02   2.145781e+02
   5.180440e+01   4.683348e+02
  -2.369533e+02   2.963134e+02
  -1.911221e+02  -2.223795e+02
   1.513971e+02  -4.905259e+02
   4.265407e+02   2.482636e+01
   2.342985e+02   6.686207e+02
  -2.876483e+02   6.870038e+02
  -5.390440e+02   1.098456e+01
  -3.046070e+02  -5.502355e+02
   2.984204e+02  -3.869582e+02
   4.017857e+02   2.735303e+02
   1.351957e+01   5.839664e+02
  -5.682522e+02   1.860055e+02
  -6.364710e+02  -3.978135e+02
  -2.124706e+02  -5.917603e+02
   4.151932e+02  -4.293928e+02
   6.816831e+02   9.307268e+01
   4.516951e+02   4.067517e+02
  -1.656884e+02   3.848663e+02
  -4.454606e+02   6.710164e+01
  -2.614599e+02  -1.813118e+02
   6.603888e+01  -7.352057e+01
   9.443472e+01   1.309743e+02
  -1.539820e+02   2.292176e+02
  -3.507797e+02   3.746781e+01
  -1.440264e+02  -2.933165e+02
   1.768627e+02  -3.135366e+02
   3.469935e+02  -1.022301e+02
   2.143987e+02   1.007544e+02
   3.500658e+01   3.039731e+02
  -2.583672e+02   4.127179e+02
  -3.558283e+02   2.222559e+02
  -3.775956e+02  -1.646811e+02
  -9.196920e+01  -5.119018e+02
   1.161400e+02  -3.916316e+02
   1.047826e+02  -1.369995e+02
   4.528062e+01  -1.900746e+01
   2.904145e+01  -1.398682e+02
   1.860249e+02  -1.568883e+02
   2.843922e+02   1.056644e+01
   1.996915e+02   2.523854e+02
   1.811845e+01   2.681665e+02
  -2.473826e+02   6.597714e+01
  -2.156611e+02  -2.183626e+02
   2.210084e+00  -2.948010e+02
   2.709618e+02  -1.446182e+02
   3.274742e+02   1.697231e+02
   2.418930e+02   3.437427e+02
  -9.035532e+01   3.051545e+02
  -2.345885e+02   1.326403e+02
  -1.854043e+02   4.448495e+01
  -9.930005e+01  -2.829558e+00
  -2.245407e+02   6.373977e+01
  -3.661648e+02  -5.583520e+01
  -3.544857e+02  -2.482657e+02
   1.514856e+01  -5.059203e+02
   3.681888e+02  -4.021808e+02
   4.269330e+02  -2.238539e+02
   3.554632e+02   4.930973e+01
   4.605766e+01   2.793958e+02
  -1.520071e+02   2.445308e+02
  -1.133046e+02   7.099719e+01
   7.260041e+01  -9.466447e+01
   2.133526e+02   2.670194e+00
   5.445169e+01   1.400938e+02
  -1.499114e+02   1.968318e+02
  -1.965998e+02  -4.296221e+01
  -2.366758e+01  -1.905062e+02
   1.784519e+02  -3.895321e+01
   1.735007e+02   2.406810e+02
   4.424415e+00   3.923293e+02
  -2.327040e+02   2.809926e+02
  -3.157482e+02  -6.860496e+01
  -3.311760e+02  -2.345308e+02
  -9.021166e+01  -2.500258e+02
   1.326475e+02  -1.676080e+02
   1.555236e+02   5.467069e+00
   4.342659e+01   1.830272e+01
  -2.098903e+01  -4.601492e+01
  -2.780859e+01  -1.382235e+02
   1.392065e+02  -1.335579e+02
   1.648877e+02   3.191903e+00
   7.508007e+01   1.015917e+02
  -1.027897e+02   4.610105e+01
  -8.239431e+01  -8.124202e+01
   1.246743e+02  -1.353767e+02
   2.808592e+02  -7.357435e+00
   2.821435e+02   9.130294e+01
   9.632717e+01   2.150812e+02
  -1.672951e+02   2.174350e+02
  -3.218575e+02   1.254768e+02
  -1.991273e+02  -7.480734e+01
   4.982123e+01  -1.588443e+02
   1.528358e+02  -4.851487e+01
  -2.667723e+01   8.495534e+01
  -1.827460e+02   6.422481e+01
  -2.399468e+02  -1.076886e+02
  -8.146700e+01  -2.479382e+02
   9.878742e+01  -1.540206e+02
   1.950148e+02  -4.597009e+01
   7.634081e+01   8.272841e+01
  -5.105563e+01   3.960016e+01
  -4.271210e+01  -4.805985e+01
   5.552710e+01  -1.305193e+02
   2.051352e+02   4.740950e+00
   2.020699e+02   1.509493e+02
   2.911012e+01   2.192217e+02
  -1.906539e+02   1.907178e+02
  -1.940973e+02   3.532523e+01
  -8.794387e+01  -1.289640e+02
   8.439054e+01  -1.473762e+02
   1.073263e+02  -3.917316e+01
   1.332423e+01   2.890651e+01
  -1.942768e+01   3.760962e+01
   4.091672e+01  -1.237254e+01
   7.480587e+01   4.648474e+00
   8.419175e+01   7.482802e+01
   5.243280e+01   1.361626e+02
  -1.170941e+02   1.624187e+02
  -2.422594e+02   7.588851e+01
  -2.154298e+02  -1.707922e+02
  -8.082023e+01  -2.376438e+02
   4.778102e+01  -1.568168e+02
   9.637540e+01   1.027937e+00
   7.249267e+01   3.888700e+01
   2.301801e+00   4.093666e+01
   2.947385e+01  -7.264860e+01
   1.116468e+02  -7.319159e+00
   3.308603e+01   5.611892e+00
  -3.541035e+01   1.236047e+02
  -1.161507e+02   4.681382e+01
  -1.189808e+02  -3.733912e+01
   3.307368e+01  -1.336868e+02
   1.501255e+02  -7.024523e+01
   2.025382e+02   2.261904e+01
   8.743969e+01   2.450275e+02
  -1.245373e+02   2.414715e+02
  -2.192191e+02   1.033767e+02
  -2.501084e+02  -5.842741e+01
  -1.258328e+02  -1.337390e+02
   2.604962e+01  -1.235802e+02
   1.239234e+02  -1.310529e+02
   1.096919e+02  -7.345126e+01
   7.352427e+01  -7.910814e+01
   1.000992e+02  -3.940945e+01
   1.196397e+02   2.417310e+01
   1.180697e+02   1.460492e+02
  -1.368544e+01   2.398163e+02
  -7.790905e+01   1.893144e+02
  -1.902766e+02  -1.978236e+01
  -1.616832e+02  -9.799216e+01
  -3.512126e+01  -1.759507e+02
   5.761978e+01  -9.517000e+01
   9.177503e+01   4.556792e+01
   1.609232e+01   5.007522e+01
   9.884339e+00   9.008500e+00
   1.876941e+01   1.635094e+01
   9.450839e+01   7.377217e+01
   4.556233e+01   4.392940e+01
  -8.643449e+01   5.879476e+01
  -1.388840e+02   3.634449e+01
  -1.698835e+02  -1.473481e+01
  -3.030261e+01  -8.584304e+01
   1.149672e+02  -7.323354e+01
   1.618058e+02  -4.506183e+01
   7.100317e+01   5.478827e+01
  -6.278577e+01   5.694950e+01
  -8.365476e+01  -1.501247e+01
  -4.334249e+01  -8.059047e+01
   9.889829e+00  -1.111163e+02
   6.100405e+01  -1.269107e+01
   4.961370e+01   2.919946e+01
   5.667758e+01   4.649015e+01
   7.462833e+01   1.714919e+01
   5.879811e+01  -1.097642e+00
   3.372036e+01   2.982385e+01
  -2.137275e+01   1.649958e+02
  -8.278020e+01   1.657870e+02
  -1.668667e+02   9.899020e+01
  -1.697786e+02  -8.569063e+01
  -1.908882e+01  -1.263149e+02
   8.143370e+01  -1.143279e+02
   7.904469e+01  -3.609107e+01
  -3.806998e+01   2.739547e+01
  -1.526781e+02  -9.388832e+00
  -1.574507e+02  -9.036014e+01
   1.400017e+01  -1.346917e+02
   1.593478e+02  -6.422858e+01
   1.952641e+02   3.564483e+01
   6.449342e+01   7.318849e+01
  -5.718881e+01   9.526749e+01
  -4.766422e+01   2.567687e+01
   1.690317e+01  -6.389617e+00
   1.019530e+02   5.517308e+01
   3.212845e+01   1.113702e+02
  -6.500025e+01   1.534711e+02
  -1.582475e+02   1.054072e+02
  -1.581849e+02  -7.260099e+01
   4.409410e+00  -1.882030e+02
   6.355749e+01  -1.229667e+02
   1.165749e+02  -3.212197e+00
   7.688779e+01   1.515341e+02
  -3.298222e+01   1.062710e+02
  -3.629767e+01   2.976042e+01
  -8.301311e+01   2.211091e+00
  -6.379098e+00  -8.406280e+01
   1.774154e+01   1.275520e+01
  -1.597352e+01  -4.794957e+01
  -3.679128e+01  -7.527011e+01
  -6.007347e+01  -1.174931e+02
   6.846771e+01  -6.794834e+01
   1.684123e+02   5.500728e+01
   1.686855e+02   1.418974e+02
   4.684261e+01   5.018323e+01
  -1.126353e+02   8.590755e+01
  -9.273853e+01   1.586014e+01
  -8.469072e+00   1.396015e+01
   4.942006e+01  -5.653490e+01
   2.317110e+01  -2.329074e+00
  -2.156283e+01  -8.805769e+00
   2.891865e+01   3.394000e+00
   2.475049e+01   4.814411e+00
   6.921972e+01   1.022238e+01
   2.119379e+01   4.935208e+01
  -9.057109e+01   7.982333e+01
  -1.887496e+02   8.827656e+01
  -1.194948e+02  -4.124244e+01
  -5.303481e+01  -1.319099e+02
   1.038933e+02  -1.250323e+02
   1.435376e+02  -5.747969e+01
   6.779048e+01   1.398513e+01
   8.302331e+00   3.913382e+01
   2.345055e+01   1.681512e+01
   1.832437e+01   6.630563e+00
   3.936663e+01   4.035684e+01
   3.440537e+01   1.014586e+02
  -1.787570e+01   6.423725e+01
  -9.247068e+01  -2.168854e+01
  -6.786449e+01  -8.071042e+01
   4.418806e+00  -8.542187e+01
   7.641277e+01  -2.699759e+01
   8.981105e+01   5.675038e+01
   5.375727e+01   1.038509e+02
  -7.442079e+01   9.532733e+01
  -1.069628e+02   2.079471e+01
  -5.214794e+01  -5.236112e+01
   5.258626e+01  -4.510184e+01
   1.981792e+01  -7.029979e+01
  -8.361164e+01   2.389697e+01
  -7.035354e+01   9.979265e-01
  -3.568919e+01  -5.562826e+01
   4.218777e+01  -4.493924e+01
   1.227295e+02  -3.083723e+01
   5.964842e+01  -2.663826e+01
  -4.337503e+01   9.255902e+01
  -3.040462e+01   9.406693e+01
  -3.141605e+01  -3.941484e+01
   2.811484e+00  -6.104011e+01
   6.384552e+01  -4.273959e+01
   5.231167e+01   3.660231e+01
   4.448324e+01   6.195851e+01
  -2.240012e+00   6.382021e+01
  -1.577683e+01   1.644267e+01
  -5.172770e+01   7.560914e-01
  -9.388062e+00  -1.127183e+01
  -1.271201e+01   3.523042e+01
   1.023951e+01  -1.951094e+01
   2.926597e+01  -2.115916e+01
   1.724104e+01  -6.664323e+01
   4.081022e+01   2.025086e+01
   4.332503e+01   6.265347e+01
   5.398309e+00   2.363841e+01
  -4.637292e+01   2.648310e+01
  -5.909293e+01  -4.489300e+01
   8.390810e+00  -1.269925e+02
   2.704949e+01  -6.574337e+01
   8.238582e+01   1.559500e+01
   3.659077e+01   3.813717e+01
  -2.187345e+01   3.501242e+01
  -5.568162e+01   4.491244e+01
  -2.357062e+01  -2.431517e+01
   2.473273e+01  -3.019414e+01
   6.272120e+01  -2.173311e+01
  -2.822887e+01   3.814324e+01
  -8.448099e+01   2.608531e+01
