
 $NMID
 id='ANONYMOUS ', fmtdat='(2E16.6)'
 volume=1.0
 tramp=1.0
 $END
  -2.204256e+03  -1.455300e+02
  -1.675752e+03  -9.267081e+02
  -2.763435e+01  -1.460523e+03
   8.187843e+02  -1.166755e+03
   8.781468e+02  -4.700994e+02
   3.241148e+02   1.011283e+02
  -1.291429e+02  -8.848725e+00
  -1.088759e+02  -3.379643e+02
   1.567075e+02  -3.901545e+02
   3.792358e+02  -1.358191e+02
   3.026885e+02   3.238903e+02
   4.113827e+01   4.886897e+02
  -1.599517e+02   2.427467e+02
  -2.010427e+02  -2.017467e+02
   2.790354e+01  -3.490692e+02
   2.763947e+02  -1.664860e+02
   2.677726e+02   3.422101e+02
  -3.959459e+01   5.246619e+02
  -3.552944e+02   3.108414e+02
  -3.913287e+02  -1.219634e+02
  -1.502609e+02  -2.145326e+02
   5.870796e+01  -2.064871e+02
   4.954498e+01  -1.075352e+02
  -1.717798e+02  -1.811203e+02
  -1.860658e+02  -3.058527e+02
   1.271422e+01  -2.464328e+02
   3.657890e+02  -6.500464e+01
   3.517101e+02   1.412405e+02
   1.550650e+02   2.541757e+02
  -2.741500e+02   6.853592e+01
  -3.163104e+02  -1.028130e+02
  -1.417357e+02  -2.251290e+02
   1.487081e+02  -2.771410e+02
   3.310982e+02  -1.074963e+02
   2.555993e+02   1.064624e+02
   7.747866e+01   2.338240e+02
   5.825833e+01   1.216189e+02
   7.717692e+01  -4.024395e+01
   1.083197e+02  -6.784307e+01
   5.552162e+01   1.542196e+02
  -6.001063e+01   3.526763e+02
  -1.842412e+02   2.661314e+02
  -1.970922e+02   2.067705e+01
  -6.718081e+01  -1.733232e+02
   7.934415e+01  -6.503700e+01
   3.192307e+01   1.190347e+02
  -9.541843e+01   2.642451e+02
  -2.956129e+02   4.846077e+01
  -3.854892e+02  -2.148430e+02
  -1.226221e+02  -3.650584e+02
   1.749941e+02  -1.413498e+02
   3.482511e+02   5.849617e+01
   2.753328e+02   2.226860e+02
   1.644708e+01   2.057978e+02
  -1.935413e+02   1.087902e+02
  -1.983852e+02   1.374108e+01
  -3.103710e+01  -6.568434e+00
   5.498769e+00   2.238175e+01
  -8.795328e+01   5.250462e+01
  -1.609046e+02  -4.385696e+00
  -9.967168e+01  -1.231620e+02
   1.050475e+02  -2.219483e+02
   2.711953e+02  -8.336212e+01
   2.839365e+02   9.697540e+01
  -3.881242e+01   2.513601e+02
  -2.677740e+02   2.571157e+02
  -3.093070e+02   7.817496e+01
  -2.126103e+02  -1.261148e+02
  -9.203538e+00  -2.787160e+02
   4.335191e+01  -2.360462e+02
  -1.299997e+01  -1.448951e+02
   1.071554e+01  -1.257413e+02
   1.109838e+02  -1.408376e+02
   2.139601e+02  -3.735211e+01
   1.782006e+02   1.457898e+02
   8.742901e+01   1.912302e+02
  -7.241158e+01   1.033858e+02
  -1.424814e+02  -4.831115e+01
  -8.750956e+01  -1.860779e+02
   6.073272e+01  -1.974679e+02
   1.929468e+02  -5.011532e+00
   2.720052e+02   1.092921e+02
   9.611960e+01   2.147656e+02
  -5.155155e+01   1.684741e+02
  -1.192583e+02   1.854949e+02
  -1.150999e+02   1.094502e+02
  -1.294979e+02   6.673065e+01
  -2.102696e+02   6.988399e+01
  -3.089917e+02  -7.464678e+01
  -2.719174e+02  -2.594398e+02
   1.048087e+01  -3.291733e+02
   3.066547e+02  -2.772382e+02
   4.027730e+02  -1.126699e+02
   2.315790e+02   8.082385e+01
   6.299991e+00   2.042201e+02
  -7.176771e+01   1.337687e+02
   5.137729e+01   2.589898e+01
   8.387825e+01  -1.570937e+01
   1.039450e+02   3.698758e+01
   6.370840e+00   1.168178e+02
  -6.500871e+01   7.069738e+01
  -5.915185e+01   3.114998e+01
  -5.559197e+00  -7.551715e+01
   1.231551e+02   1.356240e+01
   8.162733e+01   1.889490e+02
  -4.109539e+01   2.838741e+02
  -1.864084e+02   1.469425e+02
  -3.185015e+02  -4.902493e+01
  -2.560406e+02  -2.367469e+02
  -3.047887e+01  -2.656410e+02
   9.210113e+01  -1.129790e+02
   1.183061e+02   7.538258e+00
   2.256364e+00  -1.776391e+01
   6.998995e+00  -7.713601e+01
  -2.406102e+00  -8.342821e+01
   1.046029e+02  -2.581103e+01
   9.503422e+01   1.060341e+01
   2.331166e+01   7.069487e+01
  -9.813263e+01   8.031812e+00
  -4.006038e+01  -9.755055e+01
   1.059538e+02  -8.714511e+01
   2.619236e+02  -1.262178e+00
   2.162799e+02   1.793277e+02
   1.863773e+01   2.268565e+02
  -1.692224e+02   1.862242e+02
  -2.391859e+02   5.482888e+01
  -8.916260e+01  -4.044844e+01
   2.102753e+01  -4.350963e+01
   1.297681e+01   4.197972e+00
  -9.730181e+01   7.891034e+01
  -1.572093e+02   5.896365e+00
  -1.562209e+02  -9.653445e+01
  -8.641230e+01  -1.515626e+02
   1.075605e+02  -9.974259e+01
   1.189244e+02  -2.011828e+01
   9.777974e+00   4.320038e+01
  -7.842568e+01  -5.051341e+01
  -4.178783e+01  -1.255811e+02
   7.330623e+01  -1.172054e+02
   2.019678e+02  -4.646256e+01
   1.812579e+02   9.434849e+01
   4.079640e+01   2.232637e+02
  -1.594051e+02   1.273669e+02
  -1.532419e+02  -1.759941e+00
  -1.387741e+01  -1.171176e+02
   5.249384e+01  -8.952339e+01
   9.369491e+01  -2.500686e+01
  -1.124951e+01   6.710344e+01
  -2.436816e+01  -1.258956e+01
   2.721395e+01  -4.728797e+01
   1.245454e+02   3.056158e+01
   8.601231e+01   8.131893e+01
  -1.210658e+01   1.944685e+02
  -1.441276e+02   1.138743e+02
  -2.127467e+02  -8.467225e+00
  -1.750325e+02  -1.535819e+02
   2.939176e+01  -1.878848e+02
   9.880551e+01  -1.013109e+02
   7.052787e+01  -1.794091e+01
   5.326340e+01   6.750115e+01
   4.801029e+01  -7.625582e-01
   7.132526e+01  -1.788285e+01
   7.899279e+01  -2.799470e+01
   4.510971e+01   3.139526e+01
  -6.797251e+01   1.026848e+02
  -1.269336e+02   8.396880e+01
  -9.813700e+01   3.629577e+00
   3.433093e+01  -9.902035e+01
   9.923918e+01  -1.042837e+02
   1.488766e+02   4.165436e+01
   7.724832e+01   2.073081e+02
  -1.209295e+02   1.957544e+02
  -3.053881e+02   6.110461e+01
  -1.777788e+02  -1.057184e+02
  -9.167317e+01  -1.302748e+02
   5.176784e+01  -9.430509e+01
   7.989863e+01  -3.568649e+01
   4.418259e+01  -8.521911e+01
   8.049947e+01  -6.411356e+01
   4.709878e+01  -5.306891e+01
   1.043876e+02   2.678610e+01
   1.056115e+02   1.550238e+02
   3.108283e+01   1.531660e+02
  -7.425881e+01   1.232615e+02
  -1.371642e+02  -4.213213e+00
  -1.592627e+02  -1.325903e+02
  -1.640090e+01  -1.312688e+02
   6.531744e+01  -6.725251e+01
   4.633104e+01   3.777689e+01
   2.920304e+00   3.880145e+01
  -6.052729e+01   1.032215e+01
   4.267057e+01   4.157837e+01
   6.601059e+01   5.054502e-01
   2.940753e+01   4.992704e+01
  -7.274265e+01   6.085496e+01
  -1.575024e+02   5.384813e+00
  -1.610891e+02  -6.700265e+01
   9.788334e+00  -8.263561e+01
   1.289763e+02  -5.871202e+01
   1.608308e+02  -5.049095e+00
   2.475160e+01   2.582849e+01
  -6.851085e+01   6.496139e+01
  -9.835419e+01  -1.310368e+01
  -5.316692e+01  -5.426783e+01
   3.097970e+01  -6.293228e+01
   5.295003e+01  -7.426453e+00
   7.291623e+01   6.630407e+00
   9.144837e+00   1.700175e+01
   6.051161e+01   1.561638e+01
   4.498407e+01  -4.078982e+00
   4.303759e+01   3.249622e+01
  -4.699418e+01   1.602094e+02
  -9.580305e+01   1.274919e+02
  -1.618237e+02   5.331034e+01
  -9.205704e+01  -5.206796e+01
   1.408683e+01  -1.062588e+02
   8.193904e+01  -3.819652e+01
   9.311164e+01   4.763057e+01
  -4.275066e+01   1.612674e+01
  -1.135911e+02  -2.098850e+01
  -9.321890e+01  -8.220323e+01
   3.788481e+01  -1.001110e+02
   1.735884e+02  -5.312791e+01
   1.051075e+02   4.168089e+01
  -3.797384e+01   6.286129e+01
  -5.791121e+01   4.016271e+01
  -5.565578e+01  -2.068222e+01
   6.047790e+01  -4.898035e+01
   8.800896e+01   5.468027e+01
   5.390144e-01   7.619446e+01
  -4.690392e+01   1.011815e+02
  -1.700058e+02   1.802692e+01
  -1.134058e+02  -5.176484e+01
  -1.683625e+00  -1.356795e+02
   7.528946e+01  -1.026056e+02
   1.011234e+02   2.034659e+01
   5.349641e+01   1.295225e+02
  -1.673808e+01   8.142557e+01
  -5.236434e+01   5.127056e+00
  -2.991024e+01  -3.138033e+01
  -3.710304e+01  -3.735798e+01
  -6.106236e+00   2.534465e+01
  -4.744427e+01  -2.989748e+01
  -3.231491e+01  -6.403422e+01
  -3.820476e+01  -8.511094e+01
   4.890567e+01  -1.259148e+01
   1.216123e+02   2.627187e+01
   7.178534e+01   4.418321e+01
   3.735006e+01   2.878453e+01
  -5.823668e+01   2.501438e+01
  -7.399354e+01  -7.103994e+00
   1.378176e+00  -4.101502e+01
   4.405622e+01  -3.387756e+01
  -9.460408e+00  -2.035243e+01
  -3.263929e+01   1.903362e+01
  -2.945378e+01   1.274361e+01
   4.888316e+01   2.222413e+01
   7.451821e+01   2.323481e+01
   3.064132e+01   3.782519e+01
  -8.845208e+01   1.197670e+02
  -1.837424e+02   7.755252e+01
  -1.040631e+02  -6.097846e+01
  -4.842973e+01  -1.328152e+02
   8.274713e+01  -1.305832e+02
   1.015666e+02  -3.540344e+01
   4.372870e+01   1.497826e+01
   3.330324e+01  -2.751966e+01
   3.077334e+00  -8.318886e+00
   1.248459e+01   2.321449e+01
   3.688594e+00   1.469228e+01
   1.717557e+01   6.555904e+01
  -5.186304e+01   7.574243e+01
  -1.127600e+02  -4.240304e+01
  -7.997810e+01  -8.909292e+01
  -4.962251e+00  -1.051285e+02
   7.905475e+01  -5.133619e+00
   9.275329e+01   5.428948e+01
   2.649760e+01   9.420517e+01
  -7.596349e+01   7.202181e+01
  -6.601416e+01   3.005403e+01
  -4.265451e+00  -4.642580e+01
   7.887468e+01  -5.019167e+01
   1.708246e+01  -2.547781e+01
   2.706149e+00   1.786441e+01
  -1.004381e+02  -4.809537e+00
   6.827459e+00  -2.624118e+01
   8.890921e+01  -4.831274e+01
   1.061798e+02  -2.564018e+01
   6.067896e+01   4.814419e+01
  -4.540167e+01   1.489514e+02
  -8.622649e+01   2.126015e+01
  -6.195209e+01  -2.913371e+01
   2.019820e+01  -5.883353e+01
   4.797894e+01  -3.574266e+01
   2.699927e+01  -1.694230e+00
   1.102878e+01   2.439033e+01
  -1.107210e+01   3.276528e+01
  -2.626535e+01  -2.772736e+01
  -3.101150e+01  -5.978183e+01
  -3.914671e+01  -3.590751e+01
   3.518964e+01   9.013242e+00
  -2.000125e+01   3.782963e+01
  -1.739388e+01  -3.557281e+01
   1.501144e+01  -6.029371e+01
   3.907629e+01  -3.346704e+01
   1.544526e+01   4.264072e+01
   1.291213e+01   4.880303e+01
  -6.114948e+01  -8.027031e+00
  -4.045453e+01  -2.595921e+01
  -7.977791e+00  -7.608632e+01
   5.024622e+01  -2.033644e+01
   7.295255e+01   1.447158e+00
   2.425321e+01   1.408761e+01
  -2.578571e+01   8.179547e+01
  -3.132109e+01   3.155600e+01
  -3.315477e+01  -9.149623e+00
   7.170291e+01  -2.027463e+01
  -6.002248e+00  -1.667108e+01
  -3.717126e+01   7.961175e+00
  -5.615329e+01   3.688616e+01
