
 $NMID
 id='ANONYMOUS ', fmtdat='(2E16.6)'
 volume=1.0
 tramp=1.0
 $END
  -2.680383e+03   3.569438e+02
  -1.772330e+03  -1.392402e+03
   7.413818e+01  -1.684546e+03
   1.227256e+03  -1.258451e+03
   8.727687e+02  -2.518423e+02
   1.238802e+02   2.017490e+02
  -4.755134e+02  -4.065295e+00
  -1.342478e+02  -3.650912e+02
   3.515356e+02  -6.181018e+02
   5.213074e+02  -2.402953e+02
   4.564168e+02   3.452988e+02
   5.454291e+01   6.367755e+02
  -2.729527e+02   1.746565e+02
  -2.614558e+02  -3.450181e+02
  -2.084072e+00  -4.796424e+02
   3.576454e+02  -1.607377e+02
   3.530031e+02   3.941604e+02
  -4.464040e+01   5.800480e+02
  -3.615661e+02   3.294269e+02
  -3.619170e+02  -2.055216e+02
  -1.259204e+02  -3.292180e+02
   1.311744e+02  -2.221418e+02
   8.336761e+01  -9.836821e+01
  -2.148099e+02  -9.230213e+01
  -2.752878e+02  -2.311527e+02
   2.258812e+00  -2.866655e+02
   3.879598e+02  -1.600395e+02
   5.172404e+02   9.619879e+01
   2.192618e+02   2.504368e+02
  -2.319030e+02   1.926900e+02
  -4.542569e+02  -5.570199e+01
  -1.986724e+02  -3.035770e+02
   2.447017e+02  -2.946109e+02
   4.283905e+02  -1.251969e+02
   3.064346e+02   1.398159e+02
   1.451330e+02   2.601398e+02
  -3.329158e+01   1.773976e+02
   4.376756e+01  -1.028101e+02
   1.369332e+02  -1.527047e+02
   2.280183e+02   1.073962e+02
   1.469817e+01   4.849450e+02
  -2.537426e+02   3.519671e+02
  -2.670985e+02   3.274187e+01
  -1.099472e+02  -2.458654e+02
   1.669527e+02  -4.608192e+01
   1.626100e+02   1.797486e+02
  -7.966612e+01   3.740159e+02
  -3.592474e+02   5.741675e+01
  -4.661368e+02  -2.839341e+02
  -1.814657e+02  -4.323139e+02
   2.621694e+02  -2.750860e+02
   5.185753e+02  -1.058875e+01
   3.408472e+02   2.687427e+02
   4.474926e+00   2.625209e+02
  -2.603560e+02   1.155008e+02
  -2.106295e+02  -9.712870e+00
  -2.735049e+00  -2.951334e+01
   3.661590e+01   2.326556e+01
  -6.166688e+01   4.826538e+01
  -1.668461e+02   1.919437e+01
  -1.613450e+02  -1.666383e+02
   1.028116e+02  -2.501653e+02
   3.186039e+02  -1.062595e+02
   2.516946e+02   5.917903e+01
   4.646095e+01   3.292762e+02
  -2.386918e+02   3.143884e+02
  -3.288723e+02   1.440078e+02
  -1.713058e+02  -1.515760e+02
  -4.871115e+01  -3.511327e+02
   3.243778e+01  -3.328338e+02
   1.550051e+01  -1.598619e+02
   1.041520e+01  -1.104137e+02
   1.333599e+02  -1.105930e+02
   2.708596e+02  -3.880824e+01
   2.402173e+02   9.881107e+01
   1.678747e+02   2.211950e+02
  -1.094626e+02   1.873068e+02
  -1.946105e+02  -2.625979e+01
  -1.756650e+02  -2.022798e+02
   1.855891e+01  -2.442114e+02
   2.067137e+02  -3.267285e+01
   3.236888e+02   1.004799e+02
   2.010948e+02   2.495000e+02
   5.317792e+00   2.596829e+02
  -1.560232e+02   1.732445e+02
  -7.553455e+01   1.277604e+02
  -1.092030e+02   8.118908e+01
  -2.508414e+02   5.156692e+01
  -3.719275e+02  -3.663268e+01
  -2.920811e+02  -2.870744e+02
   1.280455e+01  -3.987488e+02
   3.672207e+02  -3.454450e+02
   4.242993e+02  -1.468984e+02
   2.517850e+02   1.293769e+02
   6.528483e+00   2.037571e+02
  -9.746241e+01   1.851154e+02
  -3.911972e+01   1.868951e+01
   7.806149e+01  -3.026227e+01
   1.067249e+02   7.553896e+00
   1.095246e+01   1.200784e+02
  -6.001603e+01   9.994975e+01
  -4.096023e+01  -2.680962e+01
   8.628367e+00  -1.740136e+02
   1.511329e+02  -1.657607e+01
   1.834264e+02   1.856602e+02
  -1.693307e+00   3.257899e+02
  -2.187521e+02   2.439183e+02
  -3.409178e+02  -3.478730e+01
  -2.707357e+02  -2.226668e+02
  -6.995207e+01  -2.465615e+02
   1.485954e+02  -1.762704e+02
   1.351067e+02  -4.768949e+01
   1.825049e+01   4.971288e+00
  -4.625353e+01  -8.387008e+01
  -1.428870e+01  -9.525844e+01
   5.500506e+01  -1.458773e+01
   1.173596e+02   2.002939e+01
  -4.281864e+00  -2.481747e+01
  -1.010726e+02  -1.961784e+01
  -2.449350e+01  -8.261808e+01
   1.536082e+02  -1.259000e+02
   3.136185e+02  -3.097114e+01
   2.865548e+02   1.800621e+02
   3.597081e+01   2.809900e+02
  -1.787106e+02   2.900342e+02
  -2.399469e+02   8.038484e+01
  -1.695790e+02  -3.606630e+01
   1.188857e+01  -4.480578e+01
   8.793560e+01   1.881369e+01
  -5.440910e+01   7.696994e+01
  -1.585616e+02   2.993968e+00
  -1.707227e+02  -1.228996e+02
  -1.135558e+02  -1.446636e+02
   7.276593e+01  -1.347573e+02
   1.294096e+02  -1.496855e+01
   2.325598e+01   5.461282e+01
  -3.602509e+01  -4.585664e+01
  -5.008140e+01  -1.703243e+02
   1.295067e+02  -1.145207e+02
   2.442031e+02  -5.100334e+00
   1.825264e+02   1.194916e+02
  -6.656492e+00   1.974551e+02
  -1.292266e+02   1.090843e+02
  -1.397956e+02   1.223957e+01
   3.106118e+00  -9.750736e+01
   3.474668e+01  -8.264659e+01
   6.215599e+01  -1.843083e+01
   3.650109e+01   1.478675e+01
  -1.929224e+01   1.725182e+01
   1.214933e+01  -7.939791e+01
   1.030652e+02   7.934450e+00
   1.220448e+02   6.494035e+01
   1.501703e+01   2.067988e+02
  -1.528054e+02   1.777553e+02
  -2.272222e+02   4.796116e+01
  -1.728434e+02  -1.426667e+02
  -7.191036e+01  -2.357794e+02
   1.115300e+02  -1.234749e+02
   1.045364e+02  -9.066441e+00
   7.826682e+01   5.315173e+00
   1.923086e+01  -6.689173e+00
   9.726385e+01  -1.678613e+01
   4.898189e+01  -1.860748e+01
   4.990111e+01   4.576131e+01
  -5.025943e+01   7.492112e+01
  -1.261955e+02   9.992431e+01
  -7.675905e+01  -1.353211e+01
   3.466553e+01  -1.463742e+02
   1.748665e+02  -1.195451e+02
   2.231631e+02   9.133012e+01
   1.266796e+02   1.932555e+02
  -1.150774e+02   1.942725e+02
  -2.349945e+02   1.136061e+02
  -2.460799e+02  -8.468024e+01
  -7.820766e+01  -1.524652e+02
   2.796358e+01  -1.027284e+02
   6.736323e+01  -1.532993e+01
   5.881635e+01  -5.467042e+01
   5.381715e+01  -1.478099e+02
   7.100433e+01  -8.990641e+01
   2.116615e+02   3.695590e+01
   9.563964e+01   1.847322e+02
   5.573528e+01   2.024010e+02
  -1.106890e+02   1.420720e+02
  -1.975757e+02   2.365245e+01
  -1.293496e+02  -1.557917e+02
   7.424988e+00  -1.735953e+02
   7.127789e+01  -8.015031e+01
   6.865350e+01   4.999685e+01
  -1.148613e+01   5.129017e+01
  -3.726109e+01   1.735534e+01
   1.458499e+01   3.426190e+01
   7.292934e+01   2.414753e+01
   7.113427e+01   6.187469e+01
  -5.552645e+01   7.769548e+01
  -1.551279e+02   1.260494e+01
  -1.066822e+02  -9.291332e+01
   4.972757e+01  -8.777926e+01
   1.112629e+02  -9.504602e+01
   1.151638e+02   3.630950e+01
   4.017796e+01   6.001794e+01
  -6.520405e+01   8.993475e+01
  -6.364089e+01   9.261047e+00
  -3.594614e+01  -6.827341e+01
   7.052177e+00  -3.558026e+01
   5.923314e+01  -6.297074e+01
   3.680492e+01   1.447599e+01
   3.579322e+01   3.714519e+01
   6.584379e+01  -3.697512e+01
   4.555979e+01  -4.446328e+00
   6.250371e+01   9.064335e+01
   3.234163e+01   1.879733e+02
  -1.132359e+02   1.533486e+02
  -1.796358e+02   7.664433e+01
  -1.276716e+02  -8.212060e+01
  -2.158572e+00  -1.377839e+02
   1.118948e+02  -3.749399e+01
   1.989889e+01  -1.035384e+01
  -9.130229e+01   1.500188e+01
  -8.481955e+01  -1.373786e+01
  -1.032104e+02  -1.399771e+02
   1.167991e+02  -1.098637e+02
   1.513770e+02  -2.415299e+01
   1.384423e+02   8.027800e+01
   2.684782e+01   8.148440e+01
  -4.948258e+01   4.917116e+01
  -3.874789e+01   1.935484e+01
   3.859078e+01   1.727842e+01
   8.375733e+01   5.017001e+01
   4.857667e+01   1.168773e+02
  -7.480581e+01   1.241574e+02
  -1.311343e+02   9.392773e+01
  -1.158083e+02  -6.913270e+01
  -7.246952e+01  -1.257031e+02
   7.812696e+01  -1.180814e+02
   1.341803e+02  -1.703655e+01
   6.700509e+01   1.002073e+02
   2.423374e+01   9.210715e+01
  -5.461571e+01  -4.872921e+00
  -2.709441e+01  -9.241325e+00
   7.026324e+00   6.205977e+00
  -2.839839e+01   2.762681e+01
  -2.549770e+01  -2.395900e+01
  -7.509927e+01  -1.160133e+02
  -2.434648e+01  -8.358818e+01
   7.054379e+01  -2.362404e+01
   9.989541e+01   1.962773e+01
   5.421699e+01   6.417621e+01
   4.470332e+00   8.448323e+00
  -1.127552e+02   7.244756e+00
  -4.615250e+01   3.611105e+01
  -3.415974e+01   1.582560e+01
   3.574195e+01  -4.985933e+00
   2.735664e+01   1.381354e+01
  -3.556633e+01   1.579312e+01
  -1.673290e+01  -2.845016e+01
   7.976815e+01  -5.996669e+01
   1.020475e+02   4.136911e+01
   1.708406e+01   6.860949e+01
  -8.754359e+01   1.052214e+02
  -2.083728e+02   6.336008e+01
  -1.531029e+02  -1.241482e+02
  -5.620034e+01  -1.625562e+02
   9.257524e+01  -1.604197e+02
   1.268497e+02  -7.582244e+01
   9.025702e+01   1.732413e+01
   2.524724e+01   4.035975e+01
  -6.206561e+00  -2.830352e+01
   2.877203e+01  -4.297064e+01
   2.296460e+01   4.783487e+01
   2.409255e+01   9.588593e+01
  -2.968339e+01   1.025556e+02
  -8.239051e+01   2.205418e+01
  -6.738344e+01  -1.285866e+02
  -5.189849e+00  -1.261555e+02
   7.676553e+01  -2.257258e+01
   8.810067e+01   3.589958e+01
   6.415109e+01   8.848613e+01
  -4.200056e+01   9.738123e+01
  -5.832678e+01  -1.402116e+01
  -3.552069e+01  -6.154609e+01
   2.239506e+01  -5.630255e+01
   3.083452e+01  -4.494639e+00
  -6.629043e+00   1.830994e+01
  -1.230884e+02   3.209489e+01
  -2.595313e+01  -8.741998e+00
   8.154050e+01  -6.392757e+01
   1.101102e+02  -5.696617e+01
   4.728677e+01   1.932926e+01
  -1.542576e+01   8.200668e+01
  -6.681997e+01   6.945103e+01
  -8.666669e+01   2.447462e+01
  -3.093769e+01  -3.596635e+01
   2.544389e+01  -9.108126e+01
   5.467419e+01   2.377974e+01
   4.070683e+01   4.518950e+01
   4.570809e+00   7.949725e+01
  -9.533520e+00  -1.966034e+01
  -1.293678e+01  -3.644402e+01
  -3.863616e+01  -1.434187e+01
   5.847896e+01   6.662473e-01
   1.195485e+01  -1.565337e+01
  -3.610954e+01  -4.111027e+01
   1.778805e+01  -5.713303e+01
  -5.013890e+00  -1.618528e+00
   8.990397e+01  -1.682097e+00
   2.126519e+01   4.044142e+01
  -7.247971e+01   8.243026e+00
  -3.841609e+01  -5.964336e+01
  -4.858179e+01  -5.249412e+01
   6.484231e+01  -7.800094e+01
   1.139471e+02  -7.498166e+00
   9.811859e+01   6.879950e+01
  -4.147568e+01   6.545832e+01
  -4.842117e+01   3.221416e+01
  -2.888502e+01   1.085956e+00
   2.300392e+01   9.097393e+00
   1.460301e+01   2.363305e-01
  -4.425543e+01   1.566151e+01
  -1.103872e+02   9.224049e+00
