
 $NMID
 id='ANONYMOUS ', fmtdat='(2E16.6)'
 volume=1.0
 tramp=1.0
 $END
  -3.332194e+03  -8.948264e+01
  -1.967953e+03  -2.010600e+03
   1.164841e+02  -1.949752e+03
   1.179424e+03  -8.248786e+02
   8.500529e+02  -1.117159e+02
  -1.772875e+02   2.257461e+02
  -5.198477e+02  -1.338810e+02
  -9.997804e+01  -6.558762e+02
   4.887424e+02  -6.294193e+02
   7.262980e+02  -2.834531e+01
   3.640793e+02   5.007339e+02
  -2.617893e+01   7.176323e+02
  -4.104365e+02   1.418276e+02
  -2.544271e+02  -4.938025e+02
   1.655220e+02  -5.114231e+02
   5.019885e+02  -1.334787e+02
   2.972188e+02   5.552148e+02
  -1.835862e+02   5.942186e+02
  -4.709285e+02   2.527947e+02
  -4.294418e+02  -2.654624e+02
  -1.041253e+02  -4.101968e+02
   1.537400e+02  -3.116535e+02
   1.144120e+02  -3.823806e+01
  -1.652527e+02  -7.851601e+01
  -3.072494e+02  -2.497929e+02
  -2.414956e+01  -3.711115e+02
   4.446635e+02  -2.149972e+02
   6.404883e+02   1.461950e+02
   2.764493e+02   3.529304e+02
  -3.283835e+02   2.792726e+02
  -5.460039e+02  -1.321633e+02
  -2.277845e+02  -3.849028e+02
   2.273844e+02  -3.396307e+02
   4.530251e+02  -1.193386e+02
   3.362899e+02   2.020311e+02
   5.978028e+01   2.942255e+02
  -9.205124e+00   1.818851e+02
   1.659010e+01  -1.226363e+02
   1.798586e+02  -2.658577e+02
   2.513281e+02   9.459461e+01
   1.554987e+01   5.091787e+02
  -2.589189e+02   4.165022e+02
  -3.557800e+02   3.587610e-01
  -1.399665e+02  -3.579271e+02
   1.296908e+02  -1.431987e+02
   1.869166e+02   2.571942e+02
  -1.355891e+02   4.091701e+02
  -4.192168e+02   9.330605e+01
  -4.890212e+02  -3.537123e+02
  -1.709878e+02  -4.815183e+02
   3.121655e+02  -2.760590e+02
   5.295503e+02   1.123040e+02
   3.551202e+02   3.052365e+02
  -1.114622e+02   2.743128e+02
  -3.114554e+02   7.348887e+01
  -2.147213e+02  -8.420002e+01
   4.884490e+01  -6.222247e+01
   7.809906e+01   1.745736e+01
  -1.249382e+02   6.297717e+01
  -2.552268e+02  -2.552354e+01
  -9.708490e+01  -1.901253e+02
   1.433904e+02  -2.348171e+02
   3.727495e+02  -9.836894e+01
   2.780511e+02   1.040059e+02
  -4.790015e+01   2.942205e+02
  -2.480027e+02   3.247595e+02
  -3.874825e+02   1.071585e+02
  -2.629932e+02  -1.990329e+02
  -1.391353e+00  -4.009348e+02
   6.930057e+01  -2.744243e+02
   3.499030e+01  -1.497864e+02
   5.676231e+01  -5.793826e+01
   1.332844e+02  -1.258811e+02
   2.681937e+02  -7.172707e+01
   1.982143e+02   1.153772e+02
   9.978460e+01   2.309395e+02
  -1.109889e+02   2.123221e+02
  -1.816847e+02   1.282657e+01
  -1.369362e+02  -2.122856e+02
   4.336735e+01  -2.599723e+02
   2.598316e+02  -1.116273e+02
   3.191654e+02   1.844377e+02
   1.650468e+02   2.930471e+02
  -5.840031e+01   2.310408e+02
  -1.417205e+02   1.475749e+02
  -1.486858e+02   6.378642e+01
  -1.339566e+02   1.028424e+02
  -2.702904e+02   1.805965e+01
  -3.753068e+02  -6.080507e+01
  -2.981208e+02  -3.089593e+02
   3.680129e+01  -4.337563e+02
   3.832809e+02  -3.628185e+02
   5.365230e+02  -1.755424e+02
   2.876254e+02   1.590194e+02
   4.169129e+01   2.473940e+02
  -1.155647e+02   2.197049e+02
   1.447533e+01   5.907721e+01
   1.091868e+02  -3.707058e+01
   1.675524e+02   2.480306e+01
   5.882309e+00   1.915177e+02
  -9.657661e+01   1.107934e+02
  -1.129782e+02  -6.722463e+01
  -3.563121e+00  -1.483555e+02
   1.615402e+02   2.103544e+01
   1.630432e+02   2.783537e+02
  -3.970351e+01   3.219986e+02
  -2.034952e+02   1.632999e+02
  -3.664186e+02  -6.070091e+01
  -2.794227e+02  -2.342971e+02
  -8.812670e+01  -2.530592e+02
   1.460971e+02  -1.588078e+02
   1.285983e+02   3.304078e+00
  -3.891525e-01   5.855906e+01
  -7.525081e+01  -4.586680e+01
  -5.799456e+00  -9.453412e+01
   9.400545e+01  -5.335460e+01
   1.568794e+02   3.344492e+00
   5.504059e+01   4.793748e+01
  -1.102928e+02   1.760240e+01
  -6.979339e+01  -7.068840e+01
   1.372528e+02  -3.501716e+01
   2.542722e+02   8.782680e-01
   2.346741e+02   1.449829e+02
   1.142483e+01   2.083815e+02
  -2.275032e+02   2.365642e+02
  -2.350976e+02   6.963848e+01
  -1.282213e+02  -6.529792e+01
   4.145855e+01  -8.829177e+01
   8.850503e+01   6.884329e-01
  -4.728746e+01   9.912869e+01
  -2.104087e+02   2.065702e+01
  -1.754957e+02  -1.473057e+02
  -4.250461e+01  -1.937140e+02
   9.885481e+01  -1.036424e+02
   1.610868e+02  -4.336413e+01
   1.058333e+01   1.109491e+01
  -5.247823e+01  -3.152739e+01
  -4.381055e+01  -7.249804e+01
   7.014620e+01  -1.073954e+02
   2.183004e+02   1.781004e+01
   1.458157e+02   1.437700e+02
   1.106914e+01   2.262833e+02
  -1.327042e+02   1.020988e+02
  -2.105674e+02  -5.492904e+00
  -6.277787e+01  -1.266540e+02
   1.506356e+01  -9.057671e+01
   6.722316e+01  -2.635503e+01
  -1.240955e+01   2.908123e+01
  -6.082759e+01   2.274893e+01
  -7.596895e+00  -3.975818e+01
   3.231048e+01  -6.643976e+00
   7.465399e+01   1.336182e+02
  -4.501312e+00   1.132928e+02
  -1.342118e+02   1.096763e+02
  -2.169492e+02   2.175130e+01
  -1.627448e+02  -1.401546e+02
  -3.101080e+01  -2.259284e+02
   1.207895e+02  -1.517695e+02
   1.451358e+02  -1.999587e+01
   5.761615e+01   2.171727e+01
  -1.701615e+01   4.100129e+01
   3.641977e+01  -6.568725e+00
   6.823159e+01   5.533740e+00
   5.976036e+01   6.418014e+01
  -6.074891e+01   1.105739e+02
  -1.298272e+02   5.515560e+01
  -1.192641e+02  -3.956041e+01
   1.605430e+00  -1.160145e+02
   1.150379e+02  -7.969245e+01
   2.068011e+02   9.586358e+01
   1.053151e+02   2.224462e+02
  -1.715195e+02   1.913424e+02
  -2.901526e+02   4.689976e+01
  -2.466749e+02  -9.170474e+01
  -9.194093e+01  -1.128773e+02
   8.638180e+01  -1.713269e+02
   1.221239e+02  -5.320511e+01
   1.013580e+02  -4.665287e+01
   4.058169e+01  -6.001521e+01
   6.421237e+01  -1.052097e+02
   1.233747e+02   3.580980e-01
   3.287315e+01   1.589173e+02
   1.274630e+01   2.187227e+02
  -6.676369e+01   1.618335e+02
  -2.028081e+02   6.415650e+01
  -1.146754e+02  -1.186998e+02
  -3.200084e+01  -1.379297e+02
   9.325542e+01  -9.611973e+01
   5.355715e+01   2.395161e+01
  -3.161437e+01   5.203800e+01
  -2.366966e+01   4.350859e+00
  -1.287454e+00   1.718361e+01
   1.023962e+02  -1.841221e+01
   5.258498e+01   5.724610e+01
  -7.304009e+01   4.557798e+01
  -1.215708e+02  -1.585323e+01
  -1.584330e+02  -2.650187e+01
  -3.522569e+00  -9.244338e+01
   1.174141e+02  -5.761257e+01
   1.408738e+02  -3.280790e+01
   2.046852e+01   6.949996e+01
  -7.910912e+01  -8.083270e+00
  -1.019066e+02  -7.410061e+01
   1.446497e+00  -7.478201e+01
   4.172152e+01  -5.111668e+01
   8.127441e+01  -2.674087e+01
   4.412705e+01   3.845366e+01
   5.704875e+01   5.575471e+01
   5.902007e+01  -1.809548e+01
   3.566087e+01   1.645161e+01
   5.239783e+01   4.469274e+01
   1.581689e+01   1.605260e+02
  -1.420473e+02   1.295635e+02
  -1.871880e+02   3.957677e+01
  -1.152719e+02  -1.421041e+02
  -4.458267e+00  -1.104457e+02
   1.149711e+02  -4.852890e+01
   4.277596e+01   3.595989e+00
  -7.297665e+01   3.762052e+01
  -1.021687e+02  -2.517195e+01
  -8.010852e+01  -8.781039e+01
   9.961249e+01  -1.281749e+02
   2.082876e+02  -3.331245e+01
   1.338054e+02   5.907349e+01
  -1.708999e+00   9.984361e+01
  -6.212918e+01   1.567547e+01
  -7.926392e+01  -3.347273e+01
   4.786963e+01  -3.775722e+01
   5.155909e+01  -8.428463e+00
   2.548710e+01   1.032792e+02
  -9.307931e+01   1.374911e+02
  -1.498943e+02   4.586028e+01
  -7.208747e+01  -8.713076e+01
   6.505484e+00  -1.903160e+02
   8.000167e+01  -7.516081e+01
   8.698802e+01  -7.738010e+00
   2.921715e+00   1.115229e+02
  -5.209864e+01   8.715746e+01
  -6.176966e+01   1.838665e+00
  -2.488968e+01  -5.134242e+01
  -2.127950e+01   6.555982e+00
  -3.507921e+01  -7.209826e+00
  -9.825278e+00   6.185467e+00
  -6.498546e+01  -3.001434e+01
  -3.197178e+01  -8.577389e+01
   4.162867e+01  -2.815965e+01
   1.714025e+02   5.355216e+01
   1.245793e+02   5.382787e+01
   3.017001e+01   3.226547e+01
  -6.786335e+01  -2.432411e+01
  -1.020045e+02   2.185882e+01
  -2.648702e+01  -1.417447e+01
   7.408742e+00  -4.370794e+01
   3.705544e+01  -4.638848e+01
  -1.240886e+01   2.280255e+01
  -4.291701e+01   4.062553e+01
   7.205628e+01   8.158854e+00
   1.312802e+02  -2.712703e+00
   2.705276e+01   6.651549e+01
  -3.982038e+01   1.305559e+02
  -1.669205e+02   1.342182e+01
  -1.462002e+02  -2.945021e+01
  -3.001347e+01  -1.614317e+02
   6.970695e+01  -1.664799e+02
   1.057999e+02  -9.106022e+01
   8.792559e+01   4.185734e+01
   2.459225e+00   6.182479e+01
   4.390986e+00   2.189798e+01
   1.029089e+01   1.247666e+01
   3.800342e+00   4.678514e+01
   2.531369e+01   8.131855e+01
  -2.879112e+01   7.826712e+01
  -9.323120e+01  -3.820775e+01
  -5.641335e+01  -1.013658e+02
  -3.469891e+01  -9.746322e+01
   8.282303e+01  -1.033976e+01
   7.466224e+01   3.180890e+01
   2.020295e+01   1.078004e+02
  -4.012955e+01   5.588412e+01
  -8.687628e+01   1.451688e+00
  -1.616092e+01  -4.145674e+01
   3.950034e+01  -4.576236e+01
   7.186059e+01  -4.679469e+00
  -4.179548e+01  -2.976879e+01
  -6.453495e+01   5.226996e+01
  -3.791997e+00  -4.337884e+01
   5.344088e+01  -9.415819e+01
   1.140721e+02  -6.782697e+01
   7.179292e+01   3.568735e+01
  -7.599017e+01   9.103480e+01
  -6.053138e+01   9.188144e+01
  -2.476968e+01   9.116070e+00
  -1.306673e+01  -1.694958e+01
  -5.394861e+00  -7.226788e+01
   4.703558e+01   5.449257e+01
   4.105667e+01   4.499987e+01
   4.772430e+00   1.321099e+01
  -1.309325e+01  -1.298410e+01
  -5.241429e+01  -1.807375e+01
   1.714598e+01  -4.739540e+01
  -2.396366e+01   1.470284e+01
   3.285921e+01   1.659716e+01
  -6.441002e+00  -3.285354e+00
  -2.283463e+01  -3.943664e+01
   2.238922e+01  -6.193090e+01
   6.865918e+01  -1.215186e+01
  -3.320866e-01   3.831030e+01
  -5.254844e+01   2.757496e+01
  -5.797531e+01  -1.458518e+01
  -5.143876e+01  -6.974547e+01
   7.220395e+01  -4.704779e+01
   7.994053e+01  -2.484988e+01
   6.787788e+01   6.426998e+01
  -8.111695e+00   2.737829e+01
  -7.094656e+01   1.882018e+01
  -4.141105e+01   4.901072e+01
   1.908272e+01  -4.517035e+01
   1.259140e+01   1.038413e+01
  -2.277592e+01   3.740285e+01
  -6.399971e+01   2.906218e+01
