
 $NMID
 id='ANONYMOUS ', fmtdat='(2E16.6)'
 volume=1.0
 tramp=1.0
 $END
   2.907807e+03  -6.294531e+02
   2.022011e+03   7.868331e+02
   5.057503e+02   1.638992e+03
  -8.100708e+02   1.161441e+03
  -7.875666e+02   3.024724e+02
  -2.075999e+02  -1.147869e+02
   2.090230e+02  -7.270824e+00
   1.794428e+02   3.935738e+02
  -2.390654e+02   4.929248e+02
  -4.902669e+02   1.895599e+02
  -4.058049e+02  -2.860791e+02
  -8.584115e+01  -5.315367e+02
   1.892151e+02  -2.557588e+02
   1.899439e+02   3.119484e+02
   4.517386e+00   4.675828e+02
  -3.819186e+02   1.059451e+02
  -3.544544e+02  -3.360455e+02
  -3.406518e+01  -5.827632e+02
   3.382624e+02  -2.956258e+02
   4.378005e+02   1.391093e+02
   1.624802e+02   2.668873e+02
  -8.772237e+01   2.482573e+02
  -5.002031e+00   3.562754e+01
   1.652821e+02   6.734353e+01
   2.909021e+02   1.955212e+02
  -3.439086e+01   2.356421e+02
  -3.274475e+02   1.972714e+02
  -5.140031e+02  -7.076777e+01
  -2.049606e+02  -2.615053e+02
   1.852482e+02  -2.172382e+02
   4.018529e+02   8.219339e+01
   1.495683e+02   2.909019e+02
  -1.772919e+02   3.687864e+02
  -3.253595e+02   1.137248e+02
  -2.695167e+02  -1.166501e+02
  -8.830741e+01  -2.619575e+02
  -1.857927e+01  -1.650362e+02
  -3.497990e+01   8.009253e+01
  -1.127887e+02   1.495810e+02
  -1.734875e+02  -7.983380e+01
  -1.169627e+02  -3.333687e+02
   1.627437e+02  -2.662719e+02
   2.685144e+02  -6.664242e+01
   1.418662e+02   1.730879e+02
  -8.241164e+01   1.062663e+02
  -1.403440e+02  -1.892686e+02
   2.962260e+01  -3.041794e+02
   3.227705e+02  -1.265898e+02
   4.368646e+02   2.970040e+02
   1.839534e+02   3.802406e+02
  -2.583417e+02   2.664770e+02
  -4.533956e+02   2.253041e+01
  -3.216316e+02  -1.338158e+02
   2.546378e+01  -2.473037e+02
   2.246074e+02  -1.044657e+02
   1.683975e+02  -1.184869e+01
   6.382700e+01  -3.025935e+01
  -2.352740e+01  -4.655342e+00
   1.048323e+02  -6.425896e+01
   1.857850e+02   2.056683e+01
   1.443267e+02   1.527307e+02
  -6.291270e+01   2.216637e+02
  -2.474307e+02   1.207418e+02
  -2.119169e+02  -5.977385e+01
   2.828881e+00  -2.768144e+02
   2.794141e+02  -3.365375e+02
   2.679170e+02  -1.659900e+02
   2.169364e+02   1.558062e+02
   5.003504e+01   3.335306e+02
  -9.651518e+00   2.535812e+02
   5.319408e-01   1.490332e+02
  -2.761160e+01   8.967073e+01
  -1.336083e+02   8.263587e+01
  -1.463472e+02   5.816513e+01
  -2.380646e+02  -1.112860e+02
  -1.057419e+02  -2.363416e+02
   8.410308e+01  -1.788922e+02
   1.444727e+02  -4.468673e+01
   1.119710e+02   1.902566e+02
  -2.139492e+00   1.787538e+02
  -2.368448e+02   5.655159e+01
  -2.667373e+02  -1.042567e+02
  -1.505592e+02  -2.834481e+02
   4.864455e+01  -2.167634e+02
   1.284548e+02  -1.214759e+02
   1.066399e+02  -6.396064e+01
   1.370862e+02  -1.060547e+02
   2.283193e+02  -6.496126e+01
   4.070307e+02   3.066764e+01
   3.618027e+02   2.176262e+02
   3.975807e+01   3.424905e+02
  -2.704683e+02   2.936590e+02
  -4.461943e+02   2.081385e+02
  -2.183289e+02  -5.973165e+01
  -4.834668e+01  -2.203572e+02
   2.330390e+01  -1.747903e+02
  -3.045551e+00  -4.612314e+01
  -3.782602e+01   6.113105e+01
  -4.376703e+01  -2.628835e+01
  -4.253191e+01  -9.320672e+01
   6.105331e+01  -1.106618e+02
   7.202651e+01   3.516111e+01
   1.242910e+01   1.467910e+02
  -1.526672e+02   2.859091e+01
  -1.232978e+02  -1.617846e+02
  -8.683125e+00  -2.781479e+02
   1.568541e+02  -2.010407e+02
   2.962580e+02   2.702782e+01
   2.267117e+02   1.863477e+02
   7.553747e+01   2.333868e+02
  -6.613038e+01   1.446447e+02
  -9.306399e+01   1.064208e+01
  -2.061731e+01  -6.072357e+00
   3.544710e+01   3.569675e+01
   4.405708e+01   6.941494e+01
  -5.594325e+01   4.851758e+01
  -1.302559e+02   1.098813e+01
   5.186059e+00  -3.643821e+01
   5.406097e+01   2.687271e+01
   6.271663e+01   8.221144e+01
  -1.078950e+02   9.395836e+01
  -2.496935e+02   6.595062e+01
  -2.395570e+02  -1.053642e+02
  -2.615276e+01  -2.136287e+02
   1.470785e+02  -2.134993e+02
   2.211020e+02  -1.027353e+02
   8.476810e+01  -3.607250e+00
  -3.473672e+00   4.819530e+01
  -5.934165e+01   4.951548e+01
   1.565736e+01  -5.576364e+01
   1.449249e+02  -6.447310e+01
   1.819812e+02   5.210515e+01
   8.876688e+01   1.245442e+02
  -5.842825e+01   1.141062e+02
  -8.616479e+01   2.314411e+01
  -1.016711e+01  -2.857130e+01
   5.875555e+01  -1.701202e+01
   2.312787e+01   1.218644e+02
  -2.287387e+01   1.511020e+02
  -1.721568e+02   4.050664e+01
  -1.828431e+02  -8.005896e+01
  -5.997885e+01  -1.740245e+02
   1.191183e+02  -1.645727e+02
   1.673924e+02  -2.671168e+01
   1.626358e+01   9.253251e+01
  -7.820985e+01   7.880878e+01
  -3.070970e+01   3.221163e+01
   2.025796e+01  -5.290554e+01
   6.034234e+01   2.717585e+01
   5.534199e+01   2.511670e+01
  -1.216112e+01   8.648101e+01
  -1.240629e+02  -6.602137e+01
  -6.577270e+01  -1.627803e+02
   1.102302e+02  -1.543113e+02
   2.264386e+02  -7.184239e+00
   1.547719e+02   1.054595e+02
   8.059660e+01   2.152052e+02
  -9.101169e+01   9.550104e+01
  -9.795780e+01   1.407642e+01
  -6.596826e+01  -5.871202e+01
  -3.633977e+01  -2.970414e+01
  -5.703914e+01   4.340750e+01
  -9.774361e+01  -1.704100e+01
  -4.482028e+01  -5.260247e+01
  -3.417749e+01  -1.265351e+02
   8.845537e+01  -1.096607e+02
   1.094962e+02   5.330445e+01
   9.099219e+00   1.323220e+02
  -1.352753e+02   1.017564e+02
  -2.089553e+02  -5.777697e+01
  -1.038335e+02  -1.694643e+02
   7.950229e+01  -2.108780e+02
   2.114807e+02  -1.059621e+02
   1.674913e+02  -4.799120e+01
   1.124635e+02   1.518854e+02
  -3.998452e+01   1.144580e+02
  -5.277876e+00   5.132857e+01
  -3.966944e+01   4.283460e+01
   2.434069e+00   5.843088e+01
  -1.421003e+01   8.372609e+01
  -1.415438e+02  -1.093905e+01
  -7.837259e+01  -1.601172e+02
  -6.534334e+01  -1.544365e+02
   5.979287e+01  -1.395469e+02
   1.911166e+02  -3.150816e+01
   1.228206e+02   1.313316e+02
   1.227932e+01   1.528603e+02
  -7.039216e+01   7.146990e+01
  -4.220773e+01  -1.306568e+01
   3.307479e+01  -3.813903e+01
   1.024104e+01  -1.893898e+01
   3.658826e+00  -1.856531e+01
  -6.962651e+01   3.591713e+01
  -4.093297e+01   3.399652e+01
   4.343386e+01  -2.220148e+01
   1.326598e+02  -4.852150e+01
   1.110287e+02   5.600901e+01
  -6.476428e+00   1.042387e+02
  -1.122100e+02   6.137932e+01
  -1.072698e+02  -1.014560e+01
  -3.512626e+01  -6.492530e+01
   6.285853e+01  -7.031753e+01
   6.946560e+01  -2.427301e+01
   2.854718e+01   6.889736e+01
  -4.350705e+01   7.190450e+01
  -5.977146e+01  -2.502815e+01
  -6.919798e+01  -2.243023e+01
  -4.534344e+01  -4.998311e+01
  -6.429575e+01  -2.767722e+01
  -6.557252e+01   3.744549e+00
  -3.737860e+01  -7.451586e+01
   2.875220e+01  -1.117606e+02
   1.057766e+02  -1.115893e+02
   1.606372e+02  -6.576994e+01
   1.047468e+02   5.196054e+01
   3.363231e+01   1.150038e+02
  -7.870964e+01   4.849215e+01
  -7.743510e+01  -7.145459e-01
   2.208809e+01  -5.892721e+01
   9.235748e+01  -2.528828e+01
   8.805043e+01   5.790353e+01
  -2.606769e+01   1.205654e+02
  -1.723697e+02   2.178447e+01
  -1.012956e+02  -2.494747e+01
  -4.984778e+01  -1.823847e+01
   5.211014e+01  -8.001519e+01
   5.356838e+01   2.459996e+00
  -2.708034e+01   1.002877e+01
  -3.249032e+01  -1.255713e+01
  -4.589681e+01  -8.223932e+01
   4.762660e+01  -7.542267e+01
   1.223483e+02  -8.893164e+01
   1.218498e+02   4.916483e+01
   3.194661e+01   1.545087e+02
  -8.816990e+01   9.586791e+01
  -1.093229e+02  -3.233046e+01
  -6.965163e+01  -1.198652e+02
   2.297549e+01  -7.295207e+01
   4.045840e+01   1.553236e+01
   7.035868e-01   3.317196e+01
   7.092055e+00   7.223213e+00
   9.229301e+00   3.222468e+01
   8.483945e+00   2.140428e+01
   8.297911e+01   3.492041e+01
   8.749444e+01   5.698835e+01
  -3.823703e+01   2.220754e+01
  -8.076676e+01  -2.041821e+01
  -1.233210e+02  -5.393139e+01
  -1.917965e+01  -3.850114e+01
   4.182566e+01  -2.088404e+01
   4.264641e+01  -2.745397e+01
   2.858238e+01   1.338432e+01
  -4.080957e+01   4.830954e+01
  -5.659133e-01  -2.589895e+01
   3.420542e+01  -7.344566e-01
   5.440298e+00   2.582046e+01
  -5.478488e+01   1.738299e+01
  -8.831227e+01   1.551211e+01
  -1.933961e+01  -5.885510e+01
   5.435733e+01  -1.522363e+02
   1.767890e+02  -9.447784e+01
   1.333834e+02   6.157790e+01
   9.676842e+01   1.194160e+02
   1.865637e+00   2.000414e+02
  -8.765047e+01   6.073723e+01
  -7.976992e+01   3.361340e+01
  -2.861156e+01   3.418845e+00
  -8.940655e+01   1.134599e+01
  -4.240528e+01  -4.228224e+01
  -1.648808e+01  -2.539096e+01
  -5.312980e+01  -8.821107e+01
   3.337208e+01  -5.452124e+01
   8.441290e+01   9.397760e+00
   1.077825e+02   6.426266e+01
   1.434036e+01   7.869824e+01
  -4.091798e+01   1.426027e+01
  -9.310632e+01  -4.825850e+01
  -8.238627e+01  -9.807635e+01
   7.078767e+01  -2.219894e+01
   1.101338e+02   1.116995e+01
   4.357970e+01   2.576969e+01
  -1.035761e+01   7.431970e+01
  -2.343409e+01   5.862637e+01
   2.857907e+01  -1.664875e+01
   6.795729e+01  -1.512486e+01
   3.761848e+01   2.534490e+01
  -2.905415e+01   6.806475e+01
  -8.969898e+01   6.848525e+01
  -3.690382e+01  -2.171203e+01
   2.084247e+01  -4.978244e+01
   2.791201e+01  -8.485143e+01
   2.840636e+01   2.290324e+00
   1.358077e+01   4.623728e+01
  -2.358510e+01   5.752550e+01
  -2.277077e+01   1.107126e-01
  -3.969321e+01  -3.627999e+01
  -2.854058e+01  -2.740073e+01
  -1.375230e+00   3.639632e+01
   3.999421e+01  -2.340987e+01
  -1.986322e+01  -1.744929e+01
  -1.654828e+01  -1.895069e+01
  -1.183800e+01   3.794966e+00
   1.059927e+01   1.107113e+01
   7.332831e+00   2.988951e+01
  -1.448690e+01   9.522311e+00
  -7.533053e+01   8.602330e+00
  -3.855040e+01  -2.021768e+01
   1.739153e+01  -5.638941e+01
   7.623514e+01   1.176961e+01
   5.721467e+01   6.601003e+01
  -6.282133e+01   1.581873e+01
  -8.938331e+01  -2.967752e+01
  -2.120829e+00  -1.481381e+01
   3.196931e+00  -4.018586e+01
   8.620922e+01  -3.138131e+01
   2.611100e+01  -2.304162e+00
   1.519354e+01   4.340613e+00
  -2.177256e+01   3.294092e+01
   3.439007e+01   2.195767e+01
   6.715799e+01  -3.334191e+01
