
 $NMID
 id='ANONYMOUS ', fmtdat='(2E16.6)'
 volume=1.0
 tramp=1.0
 $END
   2.518345e+03   4.167849e+02
   1.832681e+03   1.320186e+03
   2.666853e+02   1.519724e+03
  -7.338531e+02   1.096977e+03
  -6.836119e+02   4.853539e+02
  -4.839687e+01  -1.124896e+02
   2.532283e+02   3.123041e+01
   8.105596e+01   3.946218e+02
  -3.324708e+02   4.681249e+02
  -5.227691e+02   9.071009e+01
  -4.241245e+02  -4.044423e+02
   4.275840e+01  -5.180758e+02
   1.934670e+02  -1.245977e+02
   1.918011e+02   3.754508e+02
  -6.273208e+01   4.091072e+02
  -3.210289e+02   6.722096e+01
  -1.873699e+02  -4.141020e+02
   5.559677e+01  -4.894718e+02
   3.655058e+02  -2.019004e+02
   3.861778e+02   1.113332e+02
   8.575283e+01   2.759158e+02
  -6.297633e+01   2.134253e+02
   1.045600e+01   4.602824e+01
   2.292486e+02   1.627978e+02
   1.676858e+02   3.142337e+02
  -8.455731e+01   3.743657e+02
  -4.387837e+02   1.159089e+02
  -4.863224e+02  -2.393918e+02
  -1.754216e+02  -2.435416e+02
   2.389310e+02  -1.403785e+02
   4.390560e+02   1.704480e+02
   8.883879e+01   3.061210e+02
  -2.653135e+02   2.212291e+02
  -3.195519e+02   5.787458e+01
  -2.804063e+02  -1.470843e+02
  -2.491533e+01  -2.431540e+02
  -7.358073e+00  -1.022010e+02
  -1.034253e+02   6.885294e+01
  -1.784874e+02   2.770255e+01
  -1.455819e+02  -1.990144e+02
  -7.977992e-01  -3.520627e+02
   2.326583e+02  -3.367072e+02
   2.852801e+02   3.544342e+01
   8.824991e+00   2.514265e+02
  -1.412601e+02   7.583098e+01
  -9.431559e+01  -2.357176e+02
   2.157729e+02  -3.410615e+02
   4.144919e+02   1.117655e+01
   4.319615e+02   3.238249e+02
   9.846307e+01   4.196807e+02
  -2.852690e+02   2.019223e+02
  -4.173639e+02  -1.183063e+02
  -2.464977e+02  -1.907597e+02
   4.800938e+01  -1.574154e+02
   1.537710e+02  -8.253582e+01
   1.725668e+02   6.721974e+00
   3.596218e+01   2.599314e+01
  -2.592260e+01  -3.144130e+01
   7.969263e+01  -4.504777e+01
   1.379481e+02   5.985070e+01
   1.048231e+02   1.151290e+02
  -8.889975e+01   2.098736e+02
  -2.507910e+02   9.702643e+01
  -2.766522e+02  -5.447496e+01
   5.680183e+01  -2.973373e+02
   2.913162e+02  -3.015537e+02
   3.404605e+02  -7.475887e+01
   1.436088e+02   1.773390e+02
  -3.462018e+01   2.858858e+02
  -2.970433e+00   3.104649e+02
   3.387382e+01   1.479162e+02
  -2.159082e+01   7.688474e+01
  -1.287671e+02   1.447725e+02
  -2.789886e+02   2.223364e+01
  -2.066980e+02  -1.490412e+02
  -8.089186e+01  -2.269962e+02
   8.696913e+01  -1.407829e+02
   2.040781e+02   4.909201e+01
   1.205927e+02   2.059829e+02
  -5.167528e+01   2.057750e+02
  -1.923655e+02   2.056193e+01
  -2.588033e+02  -1.670063e+02
  -1.613517e+02  -2.573447e+02
   3.332564e+01  -2.656011e+02
   9.478834e+01  -1.466241e+02
   1.530393e+02  -7.787110e+01
   1.314221e+02  -7.937480e+01
   2.390951e+02  -2.140509e+01
   3.889210e+02   8.260157e+01
   2.850580e+02   2.816750e+02
  -4.068505e+01   3.694119e+02
  -3.345317e+02   2.755853e+02
  -3.565834e+02   1.226210e+02
  -2.571252e+02  -8.796596e+01
  -1.436116e+01  -2.184875e+02
   1.170776e+02  -1.029245e+02
  -3.325555e+00  -2.874196e+01
  -1.377426e+02  -4.097435e+01
  -1.352798e+02  -5.984605e+01
   1.342718e+00  -1.374027e+02
   6.530859e+01  -7.096047e+01
   5.877257e+01   5.096346e+01
  -6.764056e+01   1.534131e+02
  -1.899816e+02   3.047484e+01
  -8.965923e+01  -2.101974e+02
   3.729161e+01  -2.725965e+02
   2.707240e+02  -1.487613e+02
   3.054053e+02   3.829013e+01
   2.188508e+02   2.625023e+02
   2.398154e+01   2.390203e+02
  -1.303492e+02   1.032173e+02
  -1.664858e+02   8.425342e+00
  -9.487383e+00   1.978004e+01
   3.575723e+01   5.162050e+01
   1.454320e+01   1.041696e+02
  -1.004916e+02   2.669462e+01
  -5.226810e+01  -2.720363e+01
  -3.537817e+01  -1.719260e+01
   8.846029e+01  -1.579811e+00
   5.150624e+01   1.040954e+02
  -1.485434e+02   7.574079e+01
  -3.042418e+02  -5.654969e+01
  -2.392699e+02  -1.434773e+02
   1.257711e+00  -1.984741e+02
   2.279862e+02  -2.136229e+02
   2.154978e+02  -4.818060e+01
   1.330722e+02   3.592158e+01
  -4.430903e+01   4.095878e+01
  -7.120103e+01  -1.983075e+01
   4.556361e+01  -7.830340e+01
   1.176904e+02  -4.841058e+01
   1.499674e+02   8.824837e+01
   6.242061e+01   1.254676e+02
  -3.758328e+01   9.079095e+01
  -1.241083e+02  -3.023297e+00
  -4.599635e+01  -4.165151e+01
   4.833961e+01   4.227300e+01
   2.469662e+01   9.368632e+01
  -7.052921e+01   8.068301e+01
  -1.960858e+02  -4.855872e+01
  -1.674438e+02  -1.621010e+02
   4.861595e+01  -1.354441e+02
   1.107564e+02  -9.202925e+01
   1.552901e+02   8.430253e+00
   5.762242e+01   8.439417e+01
  -2.889449e+01   7.434295e+01
  -6.189102e+01   9.413768e+00
  -5.388767e+00  -4.550675e+01
   2.547500e+01   2.564292e+01
  -5.988536e+01   2.382237e+01
  -1.338975e+02  -1.589163e+01
  -9.452778e+01  -6.110338e+01
   1.009935e+01  -2.017150e+02
   1.292116e+02  -1.213444e+02
   2.313518e+02   1.489778e+01
   1.512933e+02   1.488662e+02
  -5.373438e+00   1.444378e+02
  -5.928403e+01   8.774756e+01
  -9.530380e+01   4.877435e+01
  -7.587241e+01   1.381188e+01
  -1.875863e+01  -2.051467e+01
  -5.519960e+01   2.541997e+01
  -1.158395e+02   9.087938e-01
  -7.452511e+01  -8.421051e+01
   4.309121e+01  -1.287098e+02
   9.954877e+01  -6.129027e+01
   9.401273e+01   4.492896e+01
  -9.800242e+00   8.524280e+01
  -1.637405e+02   6.443336e+01
  -1.625862e+02  -7.375488e+01
  -9.063071e+01  -2.369616e+02
   1.328242e+02  -1.960514e+02
   2.226752e+02  -2.716855e+01
   1.971680e+02   7.984103e+01
   7.710931e+01   1.290807e+02
   2.707987e+01   1.228811e+02
  -8.207059e+01   5.154273e+01
  -6.521649e+01   6.149288e+01
  -3.122005e+01   1.138843e+02
  -7.910036e+01   7.897589e+01
  -9.511308e+01  -5.514379e+01
  -4.538818e+01  -9.838791e+01
  -3.831961e+01  -1.420866e+02
   9.747601e+01  -1.417715e+02
   1.462786e+02   3.156878e+01
   1.307753e+02   3.215985e+01
  -1.768662e+01   1.226604e+02
  -5.353372e+01   6.379347e+01
  -5.117765e+01  -2.764611e-01
   2.598786e+01  -5.945962e+01
   4.902049e+01  -2.252335e+01
  -2.709715e+01   1.157049e+01
  -1.108717e+02  -9.402612e+00
  -7.857908e+01  -2.371279e+01
   8.720382e+01  -4.015985e+01
   1.419104e+02   1.970163e+01
   1.466793e+02   5.733412e+01
   3.413478e+01   5.012206e+01
  -1.019753e+02   9.340756e+01
  -1.394191e+02   2.126829e+01
  -2.739940e+01  -4.862145e+01
   6.550898e+01  -2.121993e+01
   7.414245e+01   3.714672e+01
  -4.719282e+00   3.342364e+01
  -4.707917e+01   5.441548e+01
  -4.500586e+01  -7.202019e+00
  -2.388649e+01  -4.838496e+01
  -6.960819e+00  -1.621513e+01
  -1.179490e+01  -9.184993e+00
  -4.284224e+01  -1.954820e+01
  -7.000669e+01  -5.321635e+01
   3.007922e+01  -1.257714e+02
   1.364132e+02  -1.231487e+02
   1.454182e+02   5.898998e+00
   1.441186e+02   8.101772e+01
   8.742558e+00   1.204001e+02
  -8.507015e+01   2.704691e+01
  -4.853454e+01  -7.113122e+00
   7.856445e+01  -2.961963e+01
   6.891661e+01   7.946921e+00
   1.539788e+01   1.185510e+02
  -5.236220e+01   1.159230e+02
  -1.905239e+02   2.528115e+00
  -1.350293e+02  -5.538976e+01
   2.933326e+01  -7.626334e+01
   5.480019e+01  -3.935492e+01
   4.154168e+01   1.761117e+01
  -3.254994e+01   1.542019e+01
  -8.685401e+01  -4.135657e+01
  -2.984105e+01  -8.052299e+01
   7.917783e+01  -1.397570e+02
   1.538756e+02  -5.189346e+01
   1.240534e+02   6.490656e+01
   8.288691e+00   1.295809e+02
  -5.039941e+01   1.282357e+02
  -8.840167e+01   3.435772e+01
  -5.641546e+01  -1.067275e+02
   2.135073e+01  -7.038699e+01
   5.185480e+01   2.029802e+01
   2.331938e+01   2.889695e+01
   2.610862e+01  -3.960886e+00
   2.964579e+01   1.802275e+01
   4.919155e+01   3.254357e+01
   6.068132e+01   6.367681e+01
   1.222792e+01   1.362625e+02
  -4.744180e+01   3.297925e+01
  -1.127351e+02  -3.510959e+01
  -1.059725e+02  -2.552742e+01
  -2.010771e+01  -5.245526e+01
   6.396554e+01  -6.492787e+01
   6.271206e+01  -1.057022e+01
  -1.116068e+00   2.447309e+01
  -2.944272e+01   3.209471e+01
  -3.849145e+01  -1.069186e+01
   2.398078e+01  -2.769657e+01
   1.568640e+01  -1.828079e+01
  -8.765927e+01  -1.074977e+01
  -7.579800e+01  -5.090630e+01
  -3.452531e+01  -5.923478e+01
   7.262016e+01  -1.073529e+02
   1.487122e+02  -5.051900e+01
   1.672541e+02   6.895949e+01
   1.431802e+01   1.119701e+02
  -6.617268e+01   1.106168e+02
  -8.177184e+01   7.739426e+01
  -3.540468e+01  -3.077900e+01
   1.818995e+01  -1.396190e+01
  -3.916267e+01   2.031347e+01
  -2.096354e+01   6.297017e+00
  -1.509592e+01  -6.891671e+01
  -1.473753e+01  -2.279433e+01
   5.253403e+01  -5.836657e+01
   8.345819e+01   4.475605e+01
   1.517210e+01   9.221405e+01
   2.597015e+01   7.621152e+01
  -7.950330e+01   2.727388e+01
  -1.053387e+02  -6.350658e+01
  -7.695485e+01  -1.028719e+02
   3.659701e+01  -7.078177e+01
   9.133005e+01  -1.132706e+01
   2.726125e+01   3.927982e+01
  -1.956197e+01   6.214087e+01
  -4.423456e+01   7.050850e+01
   4.201240e+01   1.679610e+00
   7.628448e+01  -1.966141e+01
  -2.553357e+01  -7.034555e-01
  -9.604159e+01   7.885479e+01
  -9.010002e+01   5.072320e+01
  -6.379074e+01  -6.727193e+00
  -2.200174e+00  -8.716473e+01
   4.915504e+01  -8.671722e+01
   4.732781e+01  -4.423904e+01
   2.329802e+01   7.379823e+00
  -2.672160e+00   6.741840e+01
  -1.489686e+01  -6.884749e+01
  -4.114134e+01  -4.356508e+01
   2.194945e+01  -3.403998e+01
   4.048794e+01   3.430778e+01
   6.271159e+01   4.587006e+01
   6.944448e+01   2.417256e+01
  -4.233857e+01  -1.072010e+01
   5.392419e+00  -3.416020e+01
   5.489523e+00   2.350963e+01
   8.577035e-01   5.842472e+01
  -6.229905e+01   1.446137e+01
  -7.864601e+01  -5.137945e+01
  -6.598457e+00  -3.342899e+01
   4.773063e+01  -2.526441e+00
   8.709287e+01   1.814333e+01
   1.726609e+01   5.397185e+01
  -7.899132e+01   7.111277e+01
  -1.493425e+02   2.076656e+00
  -1.959197e+01  -2.830546e+01
   1.734223e+01  -4.238173e+01
   4.067978e+01  -6.922839e+01
   2.712597e+01   1.219436e+01
  -4.264728e+01   4.002726e+00
  -6.074033e+01  -2.361810e+01
   5.624342e+01  -2.773772e+01
   7.086965e+01  -2.410767e+01
