
 $NMID
 id='ANONYMOUS ', fmtdat='(2E16.6)'
 volume=1.0
 tramp=1.0
 $END
   3.182639e+03  -3.667362e+02
   1.818434e+03   1.095073e+03
   2.699227e+02   2.121539e+03
  -1.132434e+03   1.308909e+03
  -8.433099e+02   2.570320e+02
  -8.800641e+01  -2.145882e+02
   3.641287e+02   1.969995e+02
   5.489378e+01   5.079469e+02
  -4.860581e+02   5.655506e+02
  -6.391385e+02   6.594037e+01
  -4.658515e+02  -4.186608e+02
  -1.321467e+02  -5.965634e+02
   2.390954e+02  -2.169263e+02
   2.595809e+02   3.588138e+02
  -6.104224e+01   4.931026e+02
  -3.699017e+02   9.969197e+01
  -3.132172e+02  -4.848411e+02
   6.124462e+01  -6.268834e+02
   4.248973e+02  -2.822051e+02
   4.548912e+02   1.907248e+02
   1.490978e+02   3.289341e+02
  -8.154160e+01   2.511350e+02
  -1.867925e+01   9.476410e+01
   1.174692e+02   1.222863e+02
   2.538859e+02   2.808897e+02
  -3.805611e+01   3.350459e+02
  -4.490266e+02   1.421466e+02
  -5.536376e+02  -1.989899e+02
  -1.717399e+02  -3.249315e+02
   3.362496e+02  -1.872694e+02
   4.237790e+02   1.401026e+02
   1.424761e+02   2.993647e+02
  -2.775554e+02   3.114860e+02
  -3.886949e+02   7.628350e+01
  -2.988870e+02  -1.447917e+02
  -7.463712e+01  -2.341837e+02
   3.054748e+01  -1.920848e+02
  -4.910314e+01   1.063557e+02
  -1.633225e+02   1.056823e+02
  -1.200342e+02  -1.811284e+02
  -6.408979e+00  -4.738891e+02
   2.457460e+02  -3.105209e+02
   2.999014e+02  -1.701611e+01
   9.161365e+01   2.727414e+02
  -1.724890e+02   1.689414e+02
  -1.703014e+02  -2.673334e+02
   1.883093e+02  -3.778211e+02
   4.632074e+02  -8.323424e+01
   4.128497e+02   3.662846e+02
   9.660021e+01   5.136982e+02
  -3.135694e+02   3.169609e+02
  -4.948716e+02  -5.662387e+01
  -3.538268e+02  -1.900239e+02
   6.940452e+01  -2.054903e+02
   3.040434e+02  -3.736126e+01
   1.567002e+02   2.120520e+01
   1.204360e+01   2.531932e+00
  -3.581129e+01  -1.204040e+01
   1.463052e+02  -5.904201e+01
   2.394236e+02   6.642288e+01
   9.009893e+01   2.280709e+02
  -1.644706e+02   2.195602e+02
  -3.167170e+02   7.908390e+01
  -2.385857e+02  -1.408100e+02
   4.399909e+01  -3.548416e+02
   2.872836e+02  -3.209616e+02
   3.192082e+02  -1.488029e+02
   2.066793e+02   8.859569e+01
   8.262007e+01   3.176382e+02
  -6.952419e+01   2.849450e+02
  -3.398620e+01   2.017170e+02
  -4.029271e+01   1.321497e+02
  -1.069713e+02   1.011993e+02
  -2.505247e+02   5.994445e+01
  -1.897703e+02  -1.334740e+02
  -7.759825e+01  -2.399725e+02
   5.306795e+01  -1.837073e+02
   1.694135e+02   8.065938e+01
   1.194446e+02   2.431435e+02
  -6.647782e+01   2.294076e+02
  -1.812363e+02   5.846392e+01
  -3.025621e+02  -1.680159e+02
  -1.760153e+02  -3.511818e+02
   7.242742e+01  -2.459447e+02
   1.991612e+02  -1.422596e+02
   1.475399e+02  -8.104126e+01
   1.613739e+02  -8.733873e+01
   3.163503e+02  -1.863474e+01
   3.407309e+02   1.138922e+02
   3.406382e+02   3.094020e+02
  -3.551786e+00   4.145121e+02
  -3.678352e+02   3.769976e+02
  -4.604813e+02   2.059174e+02
  -2.372112e+02  -9.077138e+01
  -5.516331e+01  -2.635739e+02
   6.990749e+01  -2.033799e+02
  -5.121115e+00  -4.095970e+01
  -9.971644e+01   4.899204e+01
  -9.440005e+01  -4.440941e+01
   3.140213e+01  -1.249435e+02
   1.079314e+02  -1.290335e+02
   1.046404e+02   3.374637e+01
  -7.619631e+00   1.316672e+02
  -1.381109e+02  -8.013154e+00
  -1.404971e+02  -2.706315e+02
  -3.263136e-02  -3.405475e+02
   2.585458e+02  -2.240956e+02
   3.590899e+02   9.634866e+01
   2.297248e+02   2.130507e+02
   4.583726e+01   2.575942e+02
  -1.463189e+02   1.336758e+02
  -1.560968e+02   1.605173e+01
  -7.698421e+01  -7.596027e+00
   5.866210e+01   7.715449e+01
  -3.199501e+01   1.083200e+02
  -1.073511e+02   1.135823e+02
  -1.314808e+02  -2.162459e+01
  -3.343803e+01  -6.775227e+01
   7.158071e+01   1.610410e+01
   5.807366e+01   7.063059e+01
  -1.683763e+02   1.137197e+02
  -3.264086e+02  -3.809421e+01
  -2.327274e+02  -1.913281e+02
  -4.107272e+00  -2.857590e+02
   2.530081e+02  -2.142440e+02
   1.897076e+02  -1.047265e+02
   1.606046e+02   1.189793e+01
  -3.872934e+01   5.933407e+01
  -7.977853e+01  -2.385091e+01
   2.618256e+01  -6.342592e+01
   2.103862e+02  -4.462693e+01
   1.991590e+02   1.420984e+02
   5.471241e+01   1.962317e+02
  -1.032492e+02   1.532657e+02
  -1.583583e+02   1.567197e+01
  -4.839697e+01  -1.648513e+01
   2.920079e+01   2.955652e+01
  -4.211296e+01   1.015005e+02
  -1.173011e+02   1.270563e+02
  -1.449119e+02   6.901022e+01
  -1.675970e+02  -1.236326e+02
   3.137139e+01  -2.183858e+02
   1.335344e+02  -1.959080e+02
   1.709245e+02  -2.472074e+01
   2.410262e+01   8.339639e+01
  -5.846114e+01   9.824130e+01
  -7.854433e+01   3.081044e+01
  -1.168601e+01  -3.257436e+01
   4.591356e+01  -3.215252e+01
   2.130081e+01   2.567072e+01
  -1.019306e+02  -1.506284e+01
  -7.701510e+01  -1.073052e+02
  -1.468227e+01  -2.040567e+02
   1.694614e+02  -1.624650e+02
   2.366414e+02   2.202143e+01
   1.914724e+02   1.980518e+02
   3.081918e+01   2.521209e+02
  -1.041745e+02   1.755439e+02
  -1.173663e+02   2.414764e+01
  -6.593392e+01  -6.205975e+01
  -1.408070e+01  -2.519446e+01
  -6.343589e+01   4.264289e+01
  -8.321078e+01   3.074566e+01
  -3.399213e+01  -6.678086e+01
  -2.899540e+01  -1.048651e+02
   1.882569e+02  -5.027155e+01
   1.256748e+02   4.268486e+01
   8.355118e+00   1.164495e+02
  -1.626564e+02   8.940642e+01
  -2.381244e+02  -3.236117e+01
  -4.598169e+01  -2.294067e+02
   1.926548e+02  -1.875195e+02
   2.528226e+02  -7.853385e+01
   2.708543e+02   9.144713e+01
   9.441663e+01   1.609865e+02
  -1.035200e+01   1.290559e+02
  -7.154543e+01   9.077186e+01
  -7.291833e+01   7.229696e+01
  -9.424248e+01   6.111414e+01
  -1.113308e+02   1.198693e+02
  -1.217591e+02  -2.393992e+01
  -1.058853e+02  -1.356372e+02
  -4.343467e+01  -2.269162e+02
   5.365274e+01  -1.762619e+02
   1.326310e+02  -1.008093e+01
   1.034380e+02   1.379351e+02
   9.683554e+00   1.300015e+02
  -1.067888e+02   5.948995e+01
  -4.242261e+01  -5.790310e+00
   2.209391e+01  -2.446988e+01
   2.721355e+01  -1.139697e+00
  -1.175777e+01  -4.098329e+01
  -4.423803e+01  -8.452303e+00
  -9.974546e+01   1.351856e+01
   8.021033e+01  -2.091316e+01
   1.810344e+02   1.677960e+01
   9.498778e+01   9.635647e+01
   1.325024e+01   9.232201e+01
  -1.436334e+02   6.255004e+01
  -1.974162e+02  -6.607473e-01
  -8.709519e+01  -7.993184e+01
   5.752925e+01  -5.705233e+01
   5.695990e+01   4.520337e+00
   7.606073e+00   8.354319e+01
  -2.338270e+01   9.721268e+01
  -8.851809e+01   2.303559e+00
  -3.716198e+01  -5.122610e+01
  -3.271992e+01  -7.835414e+01
  -6.388267e+01  -1.932591e+01
  -5.928996e+01   1.070950e+01
  -6.170178e+01  -5.069088e+01
   3.039915e+01  -1.664445e+02
   1.025939e+02  -1.004592e+02
   1.355568e+02  -5.230696e+01
   1.554034e+02   9.717450e+01
   3.152750e+01   1.251979e+02
  -6.949806e+01   1.063131e+02
  -8.929903e+01  -1.059364e+01
   3.482966e+00  -4.406074e+01
   8.940975e+01   2.621242e+01
   7.893245e+01   1.061888e+02
  -8.495202e+01   7.560491e+01
  -1.605230e+02   5.864382e+01
  -1.633150e+02  -4.264178e+01
  -2.461677e+01  -9.829982e+01
   4.593109e+01  -9.513546e+01
   3.323150e+01  -4.123466e+01
  -5.381608e+01   4.273602e+01
  -1.072333e+02   5.016015e+00
  -2.092278e+01  -1.464917e+02
   4.702074e+01  -1.593938e+02
   1.554145e+02  -6.772589e+01
   1.204695e+02   9.534348e+01
  -1.391148e+01   1.709049e+02
  -1.245737e+02   1.237889e+02
  -1.103996e+02  -4.961287e+01
  -4.702994e+01  -1.143924e+02
  -6.173913e+00  -1.093001e+02
   6.932674e+01  -6.323692e+01
   8.002337e+01   2.869718e+01
   4.330885e+01   8.136106e+00
   5.204698e+01   6.564017e+00
   5.986502e+01   1.734933e+01
   1.153053e+02   8.304279e+01
   1.875701e+01   1.102431e+02
  -4.123547e+01   8.856564e+01
  -1.681394e+02  -1.646075e+01
  -1.121746e+02  -4.337009e+01
  -3.334650e+01  -5.730238e+01
   9.202728e+01  -5.478487e+01
   7.315566e+01  -2.067699e+01
   1.269961e+01   8.064042e+00
  -1.756205e+01   2.642678e+01
  -4.952536e+01   1.680879e+01
   4.569708e+01   1.623210e+01
  -3.005910e+01  -2.370750e+01
  -6.958350e+01   1.150573e+01
  -5.389084e+01  -2.166344e+01
  -1.964207e+01  -7.199277e+01
   8.985126e+01  -1.186579e+02
   2.021743e+02  -9.219074e+01
   1.826863e+02   9.086424e+01
   3.510192e+01   1.665037e+02
  -1.155611e+02   1.616581e+02
  -1.424069e+02   8.760750e+01
  -4.461535e+01   5.788619e+00
  -5.044921e+00  -1.340655e+01
  -6.482846e+01  -3.551889e+01
  -2.111582e+01  -3.920258e+01
  -2.351577e+01  -3.022772e+01
  -3.578848e+01  -6.404763e+01
   1.468328e+01  -9.458086e+01
   7.773545e+01  -1.756891e+01
   4.063510e+01   7.692407e+01
   3.495559e+00   9.678850e+01
  -9.283375e+01   5.084064e+01
  -7.667495e+01  -6.074516e+01
  -3.395222e+01  -1.372206e+02
   1.955771e+01  -4.865185e+01
   7.727340e+01   9.270568e+00
   7.552636e+01   3.389258e+01
  -3.044438e+01   6.707958e+01
  -6.623952e+01   1.921202e+01
  -9.892524e+00   2.726563e+01
   7.095021e+01  -1.121026e+01
  -4.560522e+00   3.206554e+01
  -1.053513e+02   7.289291e+01
  -5.514697e+01   1.687289e+01
  -5.751997e+01  -1.766984e+01
   2.357232e+01  -7.135681e+01
  -9.727963e+00  -1.007163e+02
   5.129121e+01  -3.262144e+01
   2.441617e+01   5.880155e+01
   1.820501e+00   4.736197e+01
  -3.744088e+01  -1.674915e+01
  -2.193257e+01  -8.088737e+00
  -2.269168e+01  -6.444918e+01
   2.409473e+01   2.584825e+00
   6.313765e+01   1.939901e+01
   2.331718e+01   4.219680e+00
  -2.623059e+01  -2.149604e+01
  -3.542511e+01   1.098786e+01
   1.715025e+01   1.235608e+01
   3.049718e+01   4.841599e+01
  -1.604203e+01   4.664887e+01
  -4.738157e+01  -3.147316e+01
  -1.542941e+01  -4.467598e+01
   6.143661e+01  -1.455795e+01
   4.532888e+01   3.207784e+01
   2.805782e+01   4.411348e+01
  -8.537351e+01   1.231778e+01
  -7.758241e+01   8.002368e+00
  -4.554081e+01  -5.016874e+01
   4.660021e+01  -3.361764e+01
   8.568986e+01  -5.930031e+01
   3.072175e+01  -9.216931e+00
  -1.930207e+01   1.161255e+01
  -5.409069e+00   2.914855e+01
   3.447219e+01  -1.595290e+01
   3.900219e+01  -5.574263e+01
