
 $NMID
 id='ANONYMOUS ', fmtdat='(2E16.6)'
 volume=1.0
 tramp=1.0
 $END
   3.749744e+03  -2.175544e+02
   2.336156e+03   1.811982e+03
   7.939009e+01   2.410808e+03
  -1.446390e+03   1.091085e+03
  -7.807244e+02  -9.647297e+01
   2.517017e+02  -3.591122e+02
   6.403535e+02   1.405352e+02
   4.958562e+01   7.374252e+02
  -6.229853e+02   6.714914e+02
  -7.755717e+02   3.586764e+00
  -4.712174e+02  -6.424788e+02
   1.450703e+02  -7.841626e+02
   4.575375e+02  -1.448428e+02
   2.742170e+02   4.809333e+02
  -1.711004e+02   6.586919e+02
  -4.934191e+02   6.952720e+01
  -3.084128e+02  -5.443273e+02
   2.209308e+02  -6.427556e+02
   5.288155e+02  -1.852203e+02
   4.847331e+02   2.521021e+02
   5.913742e+01   4.443678e+02
  -1.506113e+02   2.749428e+02
  -1.016815e+02   6.735894e+01
   1.753313e+02   6.900982e+00
   3.163909e+02   2.211159e+02
   5.405367e+01   3.822816e+02
  -4.984331e+02   3.119790e+02
  -7.284923e+02  -1.269777e+02
  -3.671149e+02  -4.091061e+02
   3.552665e+02  -3.050445e+02
   5.001823e+02   7.598035e+01
   2.279472e+02   4.091107e+02
  -2.090039e+02   4.477525e+02
  -5.085205e+02   1.552223e+02
  -3.488833e+02  -2.253591e+02
  -9.448194e+01  -3.454147e+02
   7.687227e+01  -1.928272e+02
   1.224035e+01   7.738281e+01
  -1.728137e+02   2.516056e+02
  -2.644897e+02  -1.198136e+02
  -1.171006e+02  -5.168166e+02
   3.365237e+02  -5.512374e+02
   4.730550e+02  -3.178159e+01
   1.879690e+02   4.145054e+02
  -1.914513e+02   2.189428e+02
  -2.762990e+02  -2.573271e+02
   1.057634e+02  -4.303378e+02
   5.152094e+02  -9.594774e+01
   5.016350e+02   3.780130e+02
   1.037503e+02   5.457410e+02
  -3.860959e+02   3.400991e+02
  -5.473401e+02  -7.316067e+01
  -2.839934e+02  -3.356371e+02
   1.151955e+02  -3.061966e+02
   3.395611e+02  -5.800338e+01
   1.797327e+02   1.173964e+02
  -4.465210e+01   7.855190e+01
  -1.393029e+02  -8.682852e+01
   1.190502e+02  -1.540729e+02
   2.444639e+02   6.373788e+01
   1.715420e+02   2.348950e+02
  -1.802388e+02   2.340392e+02
  -2.689035e+02   8.009524e+01
  -2.100637e+02  -1.323103e+02
   3.116902e+01  -3.336790e+02
   2.455330e+02  -3.375677e+02
   3.122631e+02  -7.763278e+01
   2.091060e+02   1.551473e+02
   5.668111e+01   4.176411e+02
  -5.751767e+01   2.751439e+02
  -7.964447e+00   1.202014e+02
   1.887735e+00   3.930306e+01
  -1.410815e+02   1.007281e+02
  -2.888336e+02   1.100956e+02
  -2.469593e+02  -1.167986e+02
  -1.035531e+02  -2.936980e+02
   1.248138e+02  -1.732186e+02
   2.011176e+02   3.815446e+01
   1.083797e+02   2.682899e+02
  -1.074963e+02   2.641782e+02
  -2.681978e+02   1.575722e+01
  -3.224271e+02  -1.838419e+02
  -1.667784e+02  -3.275951e+02
   4.331697e+01  -2.960603e+02
   2.041214e+02  -1.288608e+02
   1.478618e+02  -1.098608e+01
   1.407283e+02  -5.086480e+01
   2.804941e+02  -7.339221e+01
   3.586323e+02   8.182608e+01
   2.773998e+02   2.724875e+02
  -5.863657e+01   4.168252e+02
  -4.004193e+02   4.431896e+02
  -4.396636e+02   1.227749e+02
  -2.695801e+02  -1.127969e+02
  -5.341896e+01  -2.682798e+02
   1.221353e+02  -1.691939e+02
   4.953763e+01  -2.384584e+01
  -7.398150e+01   7.170080e+01
  -1.542063e+02  -3.673631e+00
   3.232276e+01  -1.556185e+02
   1.266333e+02  -1.396612e+02
   1.199799e+02   5.738989e+01
  -7.102857e+01   1.368332e+02
  -2.342243e+02   8.730086e+00
  -1.786357e+02  -2.810439e+02
  -6.978086e-01  -4.131900e+02
   2.891066e+02  -2.108300e+02
   3.506139e+02   5.158149e+01
   2.113396e+02   2.539592e+02
   5.090811e+01   2.281051e+02
  -1.188487e+02   1.187785e+02
  -9.989955e+01  -3.635289e+00
  -3.527818e+01  -2.323804e+01
   5.749391e+01   9.583243e+01
   9.915133e+00   1.380263e+02
  -1.312257e+02   9.464661e+01
  -1.330974e+02   7.324446e+00
  -3.276716e+01  -6.847840e+01
   8.721824e+01  -5.883180e+00
   3.271250e+01   1.009646e+02
  -1.074626e+02   1.303885e+02
  -2.858969e+02  -1.092901e+01
  -2.444435e+02  -1.535120e+02
  -2.433553e+01  -2.838900e+02
   1.652735e+02  -2.565541e+02
   2.463014e+02  -8.964034e+01
   1.738069e+02   3.020452e+01
   4.460769e+00   5.096980e+01
  -3.832833e+01   2.383278e+01
   5.905949e+01  -1.422948e+02
   1.850776e+02  -7.460919e+01
   1.990509e+02   1.133486e+02
   6.418039e+01   2.011808e+02
  -1.049511e+02   1.766249e+02
  -1.277606e+02   1.038365e+01
   1.979020e+01  -7.176656e+01
   7.574198e+01   1.677780e+01
   3.872802e+01   7.509613e+01
  -1.131722e+02   7.584397e+01
  -1.949655e+02   1.144895e+01
  -1.758740e+02  -1.838864e+02
   1.010618e+01  -2.069978e+02
   1.600225e+02  -1.468296e+02
   1.734534e+02   2.643418e+01
   2.197093e+01   1.147881e+02
  -7.697845e+01   7.488508e+01
  -4.531066e+01  -2.348439e+00
   2.654837e+01  -5.992398e+01
   4.878014e+01   1.212600e+01
   8.026823e+00   1.670361e+01
  -1.164640e+02  -5.144104e+01
  -8.035201e+01  -1.310777e+02
   1.953853e+01  -1.291334e+02
   1.373009e+02  -1.363552e+02
   2.136944e+02   1.091370e+01
   1.717320e+02   1.532467e+02
   1.028307e+01   2.462719e+02
  -1.123593e+02   1.736334e+02
  -1.377745e+02   2.381166e+01
  -7.837392e+01  -4.879974e+01
  -3.139991e+01  -4.253669e+01
  -4.761852e+01   2.488047e+01
  -1.141756e+02   2.210677e+01
  -2.573000e+01  -5.954471e+01
   4.294492e+01  -4.801651e+01
   1.265171e+02  -2.748972e+01
   1.072876e+02   1.100062e+01
  -1.568353e+01   9.574249e+01
  -1.182871e+02   3.684982e+01
  -1.915659e+02  -8.099915e+01
  -8.557182e+01  -2.054438e+02
   1.217696e+02  -1.993781e+02
   2.343521e+02  -7.327811e+01
   2.523363e+02   1.204854e+02
   7.599215e+01   1.535656e+02
  -6.561740e+00   1.755697e+02
  -6.502846e+01   5.128249e+01
  -7.770424e+01   1.048826e+01
  -6.779850e+01   1.128811e+02
  -9.625934e+01   8.902565e+01
  -1.371806e+02  -2.377230e+01
  -1.202542e+02  -1.502950e+02
  -2.816332e+01  -2.097229e+02
   1.341201e+02  -1.507874e+02
   1.496626e+02  -2.761280e+01
   1.120005e+02   1.238601e+02
   1.958220e+00   1.563364e+02
  -7.320341e+01   9.236882e+01
  -9.433143e+01  -4.166275e+01
  -3.059039e+00   7.433912e+00
   9.193954e+00  -2.286328e+01
  -3.621752e+01  -3.928097e+01
  -8.112258e+01  -1.288457e+00
  -2.835376e+01  -4.192241e+01
   4.447325e+01  -5.608528e+00
   1.572739e+02   1.231897e+01
   1.148568e+02   1.144091e+02
   4.029674e+01   1.534720e+02
  -1.180644e+02   5.832501e+01
  -1.556436e+02  -1.824979e+01
  -2.206389e+01  -7.115139e+01
   2.854477e+01  -5.683167e+01
   9.933469e+01   5.098725e+01
   4.526925e+00   1.186958e+02
  -4.918441e+01   8.334666e+01
  -9.724354e+01   8.224941e+00
  -9.998431e+00  -4.485890e+01
  -4.593476e+01  -6.193590e+01
  -5.760477e+01   5.192537e+01
  -5.979455e+01  -9.939793e+00
  -8.097769e+01  -4.110200e+01
   1.552462e+01  -1.699130e+02
   1.033024e+02  -1.549098e+02
   1.554962e+02  -1.797959e+01
   1.572549e+02   1.659318e+02
  -1.288673e+01   1.259649e+02
  -7.085009e+01   7.556602e+01
  -6.843643e+01   5.529643e+00
   7.660175e+01  -5.634182e+01
   1.600188e+02   5.061583e+01
   3.712500e+01   1.569713e+02
  -7.890652e+01   1.266421e+02
  -2.106296e+02   5.402661e+01
  -1.600516e+02  -4.880480e+00
   7.439912e+00  -7.047195e+01
   8.211375e+01  -1.072059e+02
   6.807974e+01   3.343016e+01
  -5.271635e+00   2.085067e+01
  -9.944202e+01  -5.543670e+01
  -4.505425e+01  -9.419564e+01
   4.939837e+01  -1.826082e+02
   1.325818e+02  -6.341948e+01
   1.150033e+02   1.063502e+02
   4.230771e+01   1.615056e+02
  -8.064276e+01   1.471535e+02
  -1.051976e+02   1.642060e+01
  -1.318599e+01  -1.138786e+02
   1.522768e+00  -9.381469e+01
   3.482604e+01  -3.445003e+01
   3.194770e+01   4.910507e+01
   2.082384e+01  -1.540111e+01
   3.980120e+01   4.180293e-01
   5.624509e+01   8.969039e-01
   3.236450e+01   5.661549e+01
   4.226071e+01   1.296541e+02
  -4.914068e+01   8.114800e+01
  -1.381684e+02  -1.808913e+01
  -1.326608e+02  -1.038512e+02
   1.507970e+01  -7.020122e+01
   7.428350e+01   3.122127e+01
   4.036944e+01  -2.278608e-01
  -3.524657e+01   1.253819e+01
  -6.410026e+01  -1.635111e+01
  -1.240258e+01   8.195719e+00
   2.265216e+01   1.331869e+01
  -1.870492e+01  -6.301315e+00
  -8.197009e+01  -2.493294e+01
  -8.626856e+01  -1.573321e+01
  -2.259113e+01  -1.020419e+02
   7.495171e+01  -9.415547e+01
   2.089644e+02  -1.065917e+02
   1.972587e+02   8.511522e+01
   2.121085e+01   1.814867e+02
  -1.147651e+02   1.451487e+02
  -8.346892e+01   2.699164e+01
  -9.631897e+01  -4.266083e+00
  -5.220046e+01  -2.648543e+01
   6.874630e+00   1.101698e+01
  -1.056320e+01   3.667768e+00
  -2.981925e+01  -7.900687e+01
   6.469760e+00  -1.352068e+02
   5.097340e+01  -4.879235e+01
   9.843779e+01   1.751227e-03
   5.521239e+01   1.391693e+02
   6.651142e+00   9.336643e+01
  -9.321506e+01   4.387277e+01
  -1.278164e+02  -9.873011e+01
  -6.206261e+01  -7.792682e+01
   9.621512e+01  -2.912521e+01
   8.209766e+01  -1.252885e+01
   3.162837e+01   3.341315e+01
  -2.608860e+01   3.444075e+01
  -2.648905e+01   3.965522e+01
   2.770453e+01   1.387687e+01
   8.867702e+01   3.186298e+01
   2.219590e+01  -1.872122e+01
  -9.035248e+01   3.867818e+01
  -9.126814e+01   4.928938e+01
  -4.409634e+01   1.037421e+01
   4.445531e+01  -5.793766e+01
   8.068801e+01  -9.142432e+01
   1.669560e+01  -7.536040e+00
   3.321421e+01   6.108423e+00
  -6.301909e+01   4.661672e+01
   6.795735e+00   4.044318e+01
  -1.066739e+01  -9.264475e+00
   1.745029e+01   5.038755e-01
   3.874383e+01   3.301444e+00
   2.731746e+01  -5.750470e+00
   5.001284e+00  -1.442115e+01
   3.763518e+00  -1.763477e+01
   4.517998e+00   6.925660e+00
  -1.402077e+01   5.660836e+01
  -2.738651e+01   3.503249e+01
  -5.931121e+01   1.944842e+01
  -1.624132e+01  -5.723654e+01
  -2.089002e+01  -7.000218e+01
   5.877630e+01  -2.062191e+01
   6.786759e+01   3.710311e+01
   1.923189e+01   5.607546e+01
  -8.371439e+01   4.310989e+01
  -1.029337e+02  -2.709792e+01
  -6.065384e+01  -6.027100e+01
   2.807171e+01  -2.178311e+01
   6.695479e+01  -3.309314e+01
   4.639976e+01   5.805223e+00
  -3.586154e+01   2.811980e+01
  -2.429112e+01  -1.547575e+00
   2.995153e+01  -5.949461e+00
   7.563936e+01  -1.431149e+01
