
 $NMID
 id='ANONYMOUS ', fmtdat='(2E16.6)'
 volume=1.0
 tramp=1.0
 $END
   3.414619e+03  -1.107028e+02
   2.480521e+03   1.463348e+03
   1.540966e+02   2.375185e+03
  -1.217019e+03   1.254582e+03
  -9.258616e+02   2.460368e+02
   3.286132e+01  -2.222980e+02
   5.209187e+02   1.472995e+02
  -7.142599e+01   5.961122e+02
  -5.055435e+02   5.178051e+02
  -7.011860e+02   1.822237e+01
  -4.299465e+02  -6.151765e+02
   4.976517e+00  -6.717160e+02
   3.848528e+02  -1.363273e+02
   3.250979e+02   4.927454e+02
  -6.127341e+01   5.520422e+02
  -4.380559e+02   7.561652e+01
  -2.878113e+02  -5.207766e+02
   1.875461e+02  -5.945045e+02
   5.051387e+02  -2.648885e+02
   4.443981e+02   1.702913e+02
   9.735703e+01   3.597826e+02
  -1.847059e+02   2.459230e+02
  -1.253700e+02   7.931203e+01
   1.849199e+02   4.393133e+01
   3.587283e+02   2.185152e+02
   7.750104e+01   3.774109e+02
  -4.836016e+02   2.283699e+02
  -6.138616e+02  -1.393042e+02
  -2.237376e+02  -3.207221e+02
   2.782953e+02  -2.414164e+02
   5.555424e+02   9.774036e+01
   2.010639e+02   4.180120e+02
  -2.632452e+02   4.003690e+02
  -4.806226e+02   1.421359e+02
  -3.298467e+02  -2.114623e+02
  -4.814319e+01  -3.729111e+02
   1.236192e+02  -2.205266e+02
  -1.128908e+00   1.048712e+02
  -2.061490e+02   1.955904e+02
  -2.776080e+02  -1.329762e+02
  -6.796868e+01  -5.099008e+02
   2.263389e+02  -3.748871e+02
   3.646280e+02   1.013370e+01
   2.216207e+02   3.322357e+02
  -1.984201e+02   1.944557e+02
  -2.377826e+02  -2.958315e+02
   4.005904e+01  -3.698733e+02
   4.593114e+02  -1.032832e+02
   5.014766e+02   2.924864e+02
   1.682220e+02   5.258605e+02
  -3.240710e+02   2.577762e+02
  -5.150610e+02  -5.784509e+01
  -3.075760e+02  -3.010579e+02
   1.115410e+02  -3.016132e+02
   3.313927e+02  -7.242825e+01
   1.577401e+02   7.419988e+01
  -3.424587e+01   8.317689e+01
  -1.009300e+02  -7.900254e+01
   7.452926e+01  -7.538370e+01
   2.493923e+02   1.138399e+01
   1.188276e+02   1.896471e+02
  -1.304098e+02   2.669842e+02
  -3.583643e+02   1.580619e+02
  -2.634978e+02  -1.269978e+02
   6.129879e+00  -2.620226e+02
   3.051122e+02  -3.601570e+02
   3.039629e+02  -1.597169e+02
   2.317471e+02   1.967861e+02
   1.031680e+02   3.417459e+02
  -4.698272e+00   2.916485e+02
  -3.252623e+01   1.092332e+02
   1.174816e+01   9.933314e+01
  -6.679542e+01   1.001657e+02
  -2.168680e+02   8.667340e+01
  -2.667875e+02  -8.380270e+01
  -8.505835e+01  -2.269600e+02
   1.251955e+02  -1.807060e+02
   2.305422e+02   3.876157e+01
   1.602977e+02   2.497615e+02
  -8.671280e+01   2.867411e+02
  -2.542068e+02   6.671573e+01
  -3.694658e+02  -2.328659e+02
  -1.109493e+02  -3.302191e+02
   4.902689e+01  -2.279785e+02
   1.819115e+02  -1.394347e+02
   8.484643e+01  -3.384060e+01
   1.473052e+02  -2.669004e+01
   2.550195e+02  -1.202793e+02
   4.181566e+02   1.053404e+02
   3.093151e+02   2.541802e+02
   6.883835e+01   3.993261e+02
  -3.871350e+02   4.063675e+02
  -4.349416e+02   1.809660e+02
  -3.209494e+02  -5.742187e+01
  -1.797167e+01  -2.567550e+02
   7.043420e+01  -2.325859e+02
   3.832676e+01  -1.485160e+01
  -6.861498e+01   5.752628e+01
  -1.757884e+02  -8.109896e+00
  -3.344634e+01  -1.533612e+02
   4.966061e+01  -1.449968e+02
   9.223879e+01   4.988663e+01
  -4.206145e+01   1.298056e+02
  -1.746298e+02   5.414125e+01
  -2.009623e+02  -1.911125e+02
  -3.246972e+01  -3.773439e+02
   2.261914e+02  -2.030588e+02
   3.015901e+02   3.756051e+01
   2.833213e+02   2.451779e+02
   9.468233e+01   2.450181e+02
  -1.212717e+02   1.669957e+02
  -1.749960e+02   1.465655e+01
  -1.670088e+01  -3.373243e+01
   1.121595e+02   1.267188e+01
   2.281713e+01   1.044469e+02
  -1.395724e+02   6.250988e+01
  -1.067812e+02  -4.425981e+01
  -3.292648e+01  -6.596794e+01
   5.508944e+01  -1.356557e+01
   2.449288e+01   6.360488e+01
  -1.174349e+02   1.122705e+02
  -3.013687e+02  -5.178431e+01
  -2.552941e+02  -1.710658e+02
  -3.514998e+01  -2.204555e+02
   2.012984e+02  -2.058440e+02
   2.385378e+02  -8.776767e+01
   1.397225e+02   2.162933e+01
  -2.665664e+01   9.848675e+01
  -7.967790e+01  -1.661912e+01
   1.100929e+01  -1.020587e+02
   1.691430e+02  -4.116362e+01
   1.462921e+02   7.915156e+01
   3.946060e+01   1.667363e+02
  -4.307790e+01   1.226147e+02
  -1.276181e+02  -3.458872e-01
  -4.302227e+01  -5.265439e+01
   3.001224e+01  -1.644617e+00
   1.442749e+01   7.459318e+01
  -1.258854e+02   1.301638e+02
  -1.798409e+02   1.722083e+01
  -2.185376e+02  -1.410509e+02
  -1.290751e+01  -2.268862e+02
   1.544704e+02  -1.967419e+02
   1.230811e+02   9.677012e+00
   1.908821e+01   1.061243e+02
  -2.780991e+01   8.285953e+01
  -6.411214e+01  -1.080715e+01
   3.137188e+00  -1.824976e+01
   3.871642e+01  -4.743793e+01
  -5.385115e+00   3.346106e+01
  -5.907128e+01  -4.137999e+00
  -9.951974e+01  -8.541188e+01
  -1.224167e+01  -1.443330e+02
   1.233488e+02  -1.587471e+02
   2.161907e+02  -5.390233e+01
   2.004963e+02   1.335763e+02
   7.385678e+01   2.413556e+02
  -1.152893e+02   1.239232e+02
  -1.638807e+02   3.804496e+01
  -1.261684e+02  -4.069073e+01
  -2.219049e+01  -6.426653e+01
  -1.972673e+01   2.821606e+01
  -1.106325e+02   6.624024e+01
  -3.124094e+01  -6.938016e+01
   2.312294e+01  -9.744854e+01
   1.867858e+02  -5.620554e+01
   1.239248e+02   7.089550e+01
  -2.446052e+01   1.376729e+02
  -1.706809e+02   8.104429e+01
  -2.159690e+02  -5.283241e+01
  -5.414748e+01  -2.078631e+02
   1.364257e+02  -2.423280e+02
   2.209780e+02  -6.221978e+01
   2.472539e+02   7.993741e+01
   1.308518e+02   1.634899e+02
  -1.212942e+01   9.276936e+01
  -7.879288e+01   7.949074e+01
  -2.531616e+00   8.028466e+01
  -6.276989e+01   8.838363e+01
  -1.529319e+02   1.057970e+02
  -1.277565e+02  -1.416952e+01
  -1.604216e+02  -1.914802e+02
  -7.853308e+01  -2.238591e+02
   1.242551e+02  -1.573446e+02
   1.534246e+02  -1.418488e+01
   1.250422e+02   1.592948e+02
   2.353109e+01   1.671534e+02
  -7.825274e+01   8.434518e+01
  -6.149814e+01   6.200196e+00
   1.312711e+01  -6.475351e+01
   1.092571e+01  -5.311900e+01
  -2.293917e+00   9.045193e+00
  -9.710580e+01  -2.510908e+01
  -6.256465e+01  -4.229600e+01
   6.256112e+01  -4.160941e+01
   1.918286e+02   2.373012e+01
   1.554236e+02   9.007546e+01
  -5.587198e+01   6.470199e+01
  -1.170131e+02   8.234018e+01
  -1.432701e+02  -2.587878e+01
  -3.488280e+01  -9.266042e+01
   5.588101e+01  -5.667333e+01
   6.749528e+01   3.496752e+01
  -1.268798e+01   1.078702e+02
  -4.189967e+01   8.717604e+01
  -4.372875e+01   2.184314e+01
  -3.030370e+01  -7.981370e+01
  -6.840298e+01  -7.620190e+01
  -1.063475e+01   3.244615e+00
  -7.180287e+01  -4.119017e+01
  -1.994251e+01  -5.115398e+01
  -5.522054e+00  -1.728395e+02
   9.764215e+01  -1.416622e+02
   2.017545e+02  -4.965484e+01
   1.444988e+02   1.142290e+02
   5.082591e+01   1.066847e+02
  -8.012578e+01   7.937070e+01
  -5.625948e+01   8.862993e-01
   2.624232e+01  -2.908980e+01
   1.170940e+02   5.675245e+01
   7.383111e+01   7.422741e+01
  -1.393977e+02   1.287154e+02
  -1.695385e+02   1.436097e+01
  -1.407217e+02  -3.067025e+01
  -2.030858e+01  -9.447437e+01
   9.462546e+01  -2.211772e+01
   3.382123e+01   2.108294e-01
   4.644359e+00   7.261908e+01
  -9.736579e+01  -2.146586e+01
  -9.666501e+01  -1.125049e+02
   8.229245e+01  -1.406104e+02
   1.129961e+02  -7.783211e+01
   1.349027e+02   3.835916e+01
   4.835517e+01   2.219446e+02
  -1.010972e+02   1.715889e+02
  -1.521332e+02   9.988550e+00
  -5.005326e+01  -1.231276e+02
   4.602204e-01  -5.893583e+01
   7.635169e+01  -2.520122e+01
   6.516944e+01   2.805140e+01
   3.654936e-01   1.401112e+01
  -1.756802e+00   6.984279e+00
   5.458105e+01   8.684892e+01
   4.874782e+01   8.342133e+01
   4.614752e+01   7.659576e+01
  -6.435696e+01   7.534621e+01
  -1.408715e+02  -4.968882e+01
  -1.030948e+02  -9.696385e+01
  -3.780547e+01  -9.272801e+01
   9.927895e+01  -2.412551e+01
   8.985951e+01   3.434055e+00
   3.031454e+01   2.078010e+01
  -4.214197e+01   1.635404e+01
  -3.499625e+01  -1.420960e+01
  -8.362487e+00  -1.823531e+01
  -2.889887e+01  -6.254376e+01
  -5.198041e+01  -3.039051e+01
  -6.554982e+01  -1.500651e+01
   8.669188e+00  -7.868283e+01
   8.671124e+01  -1.223973e+02
   2.622116e+02  -4.429149e+01
   1.741445e+02   8.474827e+01
   2.173676e+01   1.745040e+02
  -1.260000e+02   1.820775e+02
  -1.346332e+02   7.747177e+01
  -9.276422e+01  -2.216674e+01
  -1.829243e+01  -4.178213e+01
  -1.830534e+01   1.106788e+01
  -3.671876e+01  -9.088680e+00
  -3.646537e+01  -6.667510e+01
  -6.679025e+01  -7.303367e+01
  -8.970093e+00  -8.077026e+01
   1.171880e+02   1.624661e+01
   5.407386e+01   1.020349e+02
   1.066769e+01   9.982446e+01
  -5.734627e+01   1.066027e+01
  -1.105255e+02  -5.515492e+01
  -2.645631e+01  -1.103375e+02
   4.841394e+01  -4.965204e+01
   6.789456e+01  -9.180741e+00
  -1.059546e+01   4.344996e+01
  -3.551274e+01   4.247751e+01
  -4.194581e+01   1.554624e+01
   4.058587e+01  -1.879793e+01
   6.848852e+01   1.984298e+01
   7.743361e+01   4.438600e+01
  -6.360238e+01   1.140186e+02
  -7.591882e+01   6.511813e+01
  -4.355132e+01  -2.613244e+01
   2.735688e+01  -6.146243e+01
   4.126958e+01  -9.772271e+01
   2.392984e+01  -3.894087e+01
  -2.781618e+01   6.368290e+01
  -4.331216e+01   4.037294e+01
  -1.888094e+01  -3.214373e+01
  -6.568385e+00  -3.201555e+00
  -2.842669e+01  -5.946304e+01
   1.692460e+01   2.131575e+01
   2.298927e+01   4.226352e+01
   5.994754e+01  -1.182995e+01
   4.737591e+00  -3.083839e+01
  -2.916851e+01  -3.869456e+00
   3.527882e+01   4.965653e+01
  -2.405885e+01   3.286365e+01
  -2.658334e+01   2.142702e+01
  -1.532293e+01  -3.521359e+01
  -3.283303e+01  -6.360066e+01
   6.218765e+01  -4.582537e+01
   8.855122e+01   3.407431e+01
   3.823386e+01   5.220962e+01
  -2.160034e+01   3.112145e+01
  -8.115181e+01  -5.383961e+01
  -4.384520e+01  -8.680630e+00
   3.679586e+01  -4.779083e+01
   8.191577e+01  -1.928291e+01
   2.674934e+01  -6.997208e+00
  -3.261435e+01  -3.470160e+01
  -3.003883e+01   1.002716e+01
   3.537012e+01  -7.958952e+00
   9.236798e+01  -2.880463e+01
