
 $NMID
 id='ANONYMOUS ', fmtdat='(2E16.6)'
 volume=1.0
 tramp=1.0
 $END
   2.661459e+03  -1.925755e+02
   1.884391e+03   1.085895e+03
   4.445461e+02   1.728876e+03
  -7.522393e+02   1.585789e+03
  -9.232778e+02   4.650273e+02
  -2.210765e+02  -6.955218e+01
   2.594368e+02   4.156350e+01
   1.645010e+02   4.231625e+02
  -2.763572e+02   5.482616e+02
  -5.420603e+02   1.805645e+02
  -3.715162e+02  -3.698054e+02
  -1.238333e+02  -5.206743e+02
   2.323174e+02  -2.078540e+02
   2.051192e+02   2.959681e+02
  -1.832071e+01   4.015547e+02
  -3.062929e+02   1.245715e+02
  -3.553706e+02  -3.759366e+02
  -3.655235e+01  -5.944664e+02
   4.157043e+02  -2.875279e+02
   4.342826e+02   6.784679e+01
   1.572619e+02   3.154978e+02
  -1.036132e+02   2.391174e+02
   1.040746e+01   6.773555e+01
   1.780426e+02   1.268027e+02
   2.487096e+02   2.706010e+02
  -5.258047e+01   3.367411e+02
  -4.807560e+02   1.047234e+02
  -5.427964e+02  -1.705159e+02
  -5.264315e+01  -3.211779e+02
   2.990982e+02  -1.726834e+02
   4.368543e+02   1.027951e+02
   1.709413e+02   3.244336e+02
  -2.342030e+02   2.660943e+02
  -4.669785e+02   1.156106e+02
  -2.875479e+02  -1.044555e+02
  -4.112128e+01  -2.594552e+02
   2.571145e+01  -1.060010e+02
  -6.817228e+01   1.077517e+01
  -1.420984e+02   7.460552e+01
  -1.558836e+02  -1.778766e+02
   3.164575e+01  -3.731658e+02
   1.277986e+02  -4.162567e+02
   2.445984e+02  -4.808392e+00
   1.510012e+02   2.067256e+02
  -8.012631e+01   8.602633e+01
  -9.677579e+01  -1.692199e+02
   4.394799e+01  -3.373025e+02
   3.570366e+02   2.142034e+00
   3.777588e+02   2.730619e+02
   1.406447e+02   4.539111e+02
  -2.204412e+02   2.577627e+02
  -4.491780e+02   8.531723e+01
  -3.022427e+02  -1.997034e+02
  -5.405146e+00  -1.722163e+02
   2.297194e+02  -6.673465e+01
   1.289681e+02  -2.081216e+01
   1.720364e+01   7.492968e+01
  -5.540702e+01  -8.065574e+00
   8.419713e+01   1.246127e+01
   1.711404e+02   2.713060e+01
   1.217651e+02   9.621083e+01
  -1.197905e+02   2.179935e+02
  -3.131709e+02   1.365819e+02
  -2.443561e+02  -1.014596e+02
  -7.690231e+00  -3.024694e+02
   2.791115e+02  -3.950634e+02
   3.420708e+02  -1.745137e+02
   2.150264e+02   1.716100e+02
   7.211603e+01   2.588591e+02
  -7.442155e+00   2.308977e+02
  -9.507248e+00   1.336483e+02
   3.821004e+00   1.574404e+02
  -1.536891e+02   1.573527e+02
  -2.707365e+02   2.479805e+01
  -1.735234e+02  -1.440072e+02
  -5.370915e+01  -2.413232e+02
   8.540388e+01  -1.591908e+02
   1.716823e+02   1.021551e+02
   9.771307e+01   1.586034e+02
  -5.904144e+01   2.379769e+02
  -2.187884e+02   3.643250e+01
  -3.207004e+02  -1.370281e+02
  -1.521067e+02  -2.239016e+02
   8.466072e+01  -2.088713e+02
   1.564296e+02  -1.757253e+02
   1.719780e+02  -9.948784e+01
   1.643974e+02  -8.479772e+01
   2.600104e+02  -2.289595e+01
   3.381097e+02   3.668224e+01
   2.515795e+02   2.415695e+02
  -2.085357e+01   4.000105e+02
  -3.656228e+02   3.860531e+02
  -4.791990e+02   1.477302e+02
  -2.782431e+02  -1.414425e+02
  -6.251490e+01  -2.085748e+02
   6.583883e+01  -1.183570e+02
   2.190933e+01   2.577891e+01
  -1.095104e+02   5.090394e+01
  -1.036141e+02  -2.980520e+01
  -3.413866e+01  -1.180799e+02
   5.198804e+01  -3.471337e+01
   1.131044e+02   4.851385e+01
  -5.933688e+01   1.239011e+02
  -1.522674e+02  -4.398723e+00
  -1.329774e+02  -1.348708e+02
   6.174523e+00  -3.028557e+02
   1.961878e+02  -1.463210e+02
   3.386412e+02   1.066747e+02
   2.324528e+02   2.147759e+02
   4.697804e+01   2.909472e+02
  -1.865440e+02   1.562304e+02
  -1.166214e+02  -6.143149e+00
   1.752354e+00  -4.228822e+01
   2.800828e+01   6.440739e+01
   1.181465e+01   1.355677e+02
  -1.247394e+02   1.125983e+01
  -1.323925e+02  -2.772228e+01
  -1.196765e+01  -4.634279e+01
   9.266015e+01   2.100133e+01
   3.282321e+01   1.178747e+02
  -1.099921e+02   9.118189e+01
  -2.817910e+02  -1.292064e+01
  -2.280456e+02  -1.487824e+02
  -3.737991e+01  -2.147999e+02
   2.084367e+02  -2.316055e+02
   2.610492e+02  -9.271282e+01
   1.205237e+02   5.035202e+01
  -8.080376e-01   8.139502e+01
  -7.039652e+01  -1.936472e+01
   7.917975e+01  -6.031869e+01
   1.514245e+02  -1.047985e+01
   1.995594e+02   9.168433e+01
   4.391308e+01   1.345305e+02
  -5.961933e+01   1.216191e+02
  -1.180603e+02   1.909370e+01
  -2.166369e+01  -1.566837e+01
   5.959547e+01   5.450430e+01
   1.406287e+01   1.314268e+02
  -9.237719e+01   1.090153e+02
  -1.658639e+02   2.126605e+01
  -1.301599e+02  -1.268101e+02
  -3.448856e+01  -1.886698e+02
   1.867570e+02  -1.308355e+02
   1.557277e+02  -8.947382e-01
   5.826574e+01   1.268564e+02
  -9.185166e+01   1.031675e+02
  -4.628420e+01  -1.111239e+01
   7.870456e+00   3.546642e+00
   4.339640e+01  -3.109237e+00
  -4.031184e+00   1.443284e+01
  -8.922738e+01   4.320752e+01
  -1.162078e+02  -3.399664e+01
   1.700112e+01  -1.383621e+02
   9.422420e+01  -1.536792e+02
   2.188376e+02   2.386872e+01
   1.639272e+02   1.697796e+02
  -4.124324e+01   1.934580e+02
  -1.112854e+02   1.389539e+02
  -1.054416e+02  -6.688317e+00
  -4.712177e+01  -6.640882e+01
   2.241452e-01  -2.901972e+01
   4.152761e+00   2.909890e+00
  -7.160276e+01   2.870089e+01
  -3.126668e+01  -9.982810e+00
   2.829870e+01  -9.325989e+01
   1.520251e+02  -1.029459e+02
   1.238739e+02   1.836843e+01
  -1.990586e+01   1.040908e+02
  -1.517924e+02   6.807309e+01
  -1.696925e+02  -7.555319e+01
  -9.060359e+01  -2.027418e+02
   1.483736e+02  -2.351503e+02
   2.626539e+02  -8.386884e+01
   2.325732e+02   9.767734e+01
   1.093028e+02   1.530782e+02
   1.258504e+00   1.391811e+02
  -8.513422e+01   7.522876e+01
  -4.608733e+01   7.661448e+00
  -3.194179e+01   1.440611e+02
  -8.510539e+01   7.635728e+01
  -1.311555e+02  -2.579382e+01
  -1.143298e+02  -1.752735e+02
  -3.911242e+01  -1.932977e+02
   1.165900e+02  -1.093558e+02
   1.108151e+02   1.771794e+01
   1.163009e+02   1.295794e+02
   3.239480e+01   1.577853e+02
  -1.034139e+02   4.269804e+01
  -8.238527e+01  -8.592329e+00
   1.381760e+01  -6.783998e+01
   2.211458e+01  -4.092193e+01
   2.200318e+01  -1.774961e+00
  -9.647142e+01   1.613764e+01
  -4.906495e+01  -2.962768e-01
   6.855765e+01  -9.419795e+00
   1.205404e+02  -1.633579e+01
   1.091178e+02   6.669135e+01
  -6.240910e+00   7.733905e+01
  -1.335235e+02   4.988735e+01
  -1.272325e+02  -3.056247e+00
  -4.794620e+01  -3.904528e+01
   6.147609e+01  -8.756950e+01
   1.147013e+02   3.273365e+01
   1.113098e+01   8.797536e+01
  -5.672841e+01   2.874695e+01
  -5.729928e+01   4.335766e+01
  -8.964848e+01  -5.902708e+01
  -1.381059e+01  -3.331930e+01
  -8.781523e+01  -5.109221e+01
  -6.672196e+01   3.682934e+01
  -1.566001e+01  -1.079480e+02
   1.598696e+01  -9.893330e+01
   1.142836e+02  -1.126834e+02
   1.935949e+02   1.152823e+01
   1.216005e+02   9.638989e+01
   1.261615e+01   1.181485e+02
  -6.763953e+01   7.544723e+01
  -4.858752e+01  -6.616138e+00
   6.162853e+01   2.101834e+01
   8.533574e+01   1.709022e+01
   6.170448e+01   7.927725e+01
  -7.272664e+01   7.907623e+01
  -2.299654e+02   4.141096e+01
  -1.197757e+02  -2.541624e+01
  -5.667195e+01  -7.819230e+01
   4.212679e+01  -4.063033e+01
   7.550406e+01  -1.870760e+01
  -5.874713e+01   2.257286e+01
  -5.700512e+01   1.109019e+01
  -3.813460e+01  -9.430065e+01
   4.333061e+01  -1.551489e+02
   1.037666e+02  -9.839487e+01
   8.997007e+01   8.600061e+01
  -1.530456e+00   1.578746e+02
  -7.527009e+01   9.022859e+01
  -4.711800e+01  -2.998950e+01
  -2.063955e+01  -8.260589e+01
  -2.382668e+01  -8.531516e+01
   1.511097e+01   4.019514e+00
   3.201348e+01   4.613595e+01
   2.234121e+00   1.268478e+01
  -8.319553e+00   1.556952e+01
   1.649891e+01   2.523109e+01
   4.681428e+01   7.518992e+01
   5.508368e+01   1.072083e+02
  -4.216686e+01   8.370184e+01
  -1.836001e+02  -4.669422e+01
  -9.862988e+01  -7.627397e+01
  -6.638617e+01  -5.451208e+01
   7.040262e+01  -4.509799e+01
   1.131883e+02  -2.326037e+01
   1.627980e+01   4.600197e+01
  -3.011401e+01   1.476055e+01
  -8.085020e+00   3.415528e+01
   4.198879e+00  -9.617586e-01
  -2.779422e+01   7.093576e+00
  -6.203183e+01  -2.414331e+01
  -1.300511e+02   3.295621e+01
  -4.123417e+01  -5.027721e+01
   8.461810e+01  -8.488347e+01
   1.679128e+02  -7.170072e+01
   1.472157e+02  -1.004818e+01
   1.811579e+01   1.401925e+02
  -7.834292e+01   1.423729e+02
  -8.102610e+01   7.185608e+01
  -9.551184e+01   2.577291e+01
  -5.590451e+01  -3.084352e+01
   6.812263e+00   4.393389e+01
  -3.592814e+00  -2.996563e+01
  -1.615847e+01  -5.809212e+01
  -2.379110e+01  -8.686506e+01
   4.234264e+01  -6.276123e+01
   7.010458e+01   3.915551e+01
   7.900593e+01   5.697972e+01
   2.402744e+00   1.163024e+02
  -6.929190e+01   2.274956e+01
  -1.247116e+02  -5.634645e+01
  -5.635872e+01  -6.177944e+01
   3.103463e+01  -6.669134e+01
   1.306080e+02  -2.324892e+01
   5.282462e+01   5.789246e+01
  -9.600271e+00   6.774037e+01
  -3.342416e+01   6.921059e+01
  -4.238771e+00  -9.828955e+00
   7.433895e+01  -1.445487e+01
   4.897910e+01   7.357618e+00
  -4.678276e+01   4.453443e+01
  -1.369261e+02   7.237156e+01
  -5.779901e+01  -4.039765e+01
   1.792715e+01  -1.033052e+02
  -1.437737e+00  -4.875771e+01
   5.078567e+01   2.916244e+00
  -5.943385e+00   5.392153e+01
  -1.967498e+01   3.974168e+01
  -3.154900e+01   2.345378e+01
  -3.194533e+01  -6.320586e+01
  -1.781429e+01  -3.325460e+01
   7.333120e+01   1.798810e+01
   4.047916e+01   3.248572e+01
  -2.863640e+00   7.664447e+00
  -3.978893e+01  -2.549173e+01
   1.634325e+01   1.715082e+01
   4.585537e+01  -7.439357e+00
  -2.760574e+00   4.615520e+01
  -3.290562e+01   3.792627e+01
  -7.110590e+01   5.724534e-01
   6.512553e+00  -3.729272e+01
   5.428531e+01  -1.562383e+01
   1.014935e+02   1.848131e+01
   3.418527e+01   1.458402e+00
  -2.504996e+01   4.647997e+01
  -6.858909e+01  -4.121596e+01
  -4.162574e+01  -9.969272e+00
  -3.613112e+00  -3.606754e+01
   4.475471e+01  -5.511524e+01
   8.761875e+00   1.127913e+01
  -1.403364e+01  -1.333327e+01
   6.760356e+00   2.954538e+00
  -2.068861e+01  -2.867131e+00
   2.943371e+01  -1.975936e+01
