
 $NMID
 id='ANONYMOUS ', fmtdat='(2E16.6)'
 volume=1.0
 tramp=1.0
 $END
  -2.337824e+03  -2.930853e+02
  -1.454965e+03  -1.016199e+03
  -3.566878e+02  -1.555182e+03
   7.659053e+02  -1.164177e+03
   8.087069e+02  -4.248875e+02
   1.576322e+02  -5.501127e+00
  -1.683658e+02   1.469355e+01
  -9.564415e+01  -3.447355e+02
   2.987865e+02  -5.171192e+02
   4.799776e+02  -9.684378e+01
   3.282120e+02   2.888105e+02
   6.922313e+01   3.787767e+02
  -1.410918e+02   1.281678e+02
  -1.655540e+02  -2.874088e+02
   5.953711e+01  -3.653960e+02
   2.527801e+02  -7.921241e+01
   2.202773e+02   3.785412e+02
  -5.524551e+01   4.890361e+02
  -3.403850e+02   2.401886e+02
  -3.069585e+02  -5.602692e+00
  -1.813523e+02  -1.718539e+02
   4.400847e+01  -1.914483e+02
   2.302313e+01  -7.387987e+01
  -1.633688e+02  -9.823905e+01
  -1.982104e+02  -3.151928e+02
   5.506900e+01  -2.794656e+02
   3.670761e+02  -5.183067e+01
   4.313981e+02   1.711260e+02
   1.031485e+02   2.596918e+02
  -2.472517e+02   8.815112e+01
  -3.255262e+02  -1.286634e+02
  -1.547267e+02  -2.491162e+02
   2.090266e+02  -2.234268e+02
   3.450019e+02  -6.766500e+01
   2.356062e+02   1.182661e+02
   6.108801e+01   1.610156e+02
   2.456115e+01   1.156585e+02
   9.190543e+01  -6.261505e+01
   1.013390e+02  -2.022628e+01
   1.156120e+02   1.531063e+02
  -8.423019e+01   3.119725e+02
  -1.409812e+02   2.831427e+02
  -1.920744e+02   4.799634e+00
  -5.040141e+01  -2.085047e+02
   1.371543e+02  -4.725126e+01
   1.169814e+02   1.410460e+02
  -1.200430e+02   2.508121e+02
  -3.840914e+02  -1.643388e+01
  -3.383099e+02  -2.638147e+02
  -1.107981e+02  -3.850659e+02
   2.219664e+02  -1.873488e+02
   3.959210e+02   3.604177e+01
   2.375775e+02   1.457951e+02
  -3.438313e+01   1.431617e+02
  -2.040584e+02   7.362104e+01
  -1.304151e+02   1.544480e+01
  -4.583191e+01   2.047238e+01
  -5.966347e+00  -7.278891e+00
  -7.669192e+01   3.465763e+01
  -1.132603e+02  -3.318430e+01
  -5.243064e+01  -9.136271e+01
   1.171058e+02  -2.115157e+02
   2.690742e+02  -1.193894e+02
   2.508745e+02   1.290524e+02
  -4.971341e+01   2.656643e+02
  -2.396815e+02   2.512304e+02
  -3.717721e+02   8.742860e+01
  -2.002152e+02  -1.693259e+02
  -4.809859e+01  -2.369501e+02
  -5.295839e+00  -1.977648e+02
   2.405965e+00  -1.041953e+02
   6.870632e+01  -1.239016e+02
   1.518404e+02  -9.884768e+01
   2.136924e+02  -4.436264e+01
   1.819689e+02   1.219269e+02
   2.521187e+01   2.360899e+02
  -1.249986e+02   8.401783e+01
  -1.527090e+02  -4.675061e+01
  -1.009874e+02  -2.272042e+02
   5.090957e+01  -1.521034e+02
   2.130365e+02  -2.398263e+01
   2.003393e+02   1.392323e+02
   1.585914e+02   1.817307e+02
  -2.698415e+01   1.667533e+02
  -1.040338e+02   1.482917e+02
  -1.644598e+02   6.685783e+01
  -1.481469e+02   7.244332e+01
  -2.422743e+02   2.322709e+01
  -3.250068e+02  -1.025098e+02
  -2.171512e+02  -2.742198e+02
   5.067776e+01  -3.904855e+02
   3.600767e+02  -2.935370e+02
   3.811345e+02  -1.053668e+02
   1.979625e+02   1.158436e+02
  -1.447940e+01   1.998464e+02
  -6.325437e+01   1.498390e+02
  -3.506590e+01   1.963810e+01
   1.134844e+02  -2.899580e+01
   8.038118e+01   6.697440e+01
  -4.157406e+01   8.518087e+01
  -7.596465e+01   1.438449e+01
  -4.246784e+01  -6.223541e+01
   5.614087e+01  -4.523483e+01
   1.238481e+02  -1.194050e+01
   8.943695e+01   1.598782e+02
  -2.263121e+01   2.781837e+02
  -2.025433e+02   1.639178e+02
  -2.767654e+02  -5.665844e+01
  -2.055417e+02  -1.707722e+02
  -4.255433e+00  -2.459284e+02
   1.100449e+02  -1.041406e+02
   9.327454e+01   1.647663e-01
   1.869958e+01  -6.827786e+00
  -5.429720e+01  -7.677016e+01
  -9.704691e+00  -1.322274e+02
   1.002525e+02  -2.032107e+01
   9.661633e+01   3.392731e+01
  -2.412633e+01   2.670715e+01
  -5.144517e+01  -1.829750e+01
  -3.273280e+01  -5.565092e+01
   8.766389e+01  -4.856211e+01
   2.245934e+02   3.575060e+01
   2.043142e+02   1.367779e+02
  -4.013855e+01   2.020261e+02
  -1.426719e+02   1.554823e+02
  -2.053711e+02   8.609018e+01
  -7.712882e+01  -6.338926e+01
   3.074036e+01  -5.307115e+01
   9.452855e+01   8.278932e+00
  -4.193006e+01   4.318920e+01
  -1.626882e+02   3.527671e+01
  -1.193064e+02  -8.466078e+01
  -6.566431e+01  -1.499600e+02
   5.347413e+01  -1.047556e+02
   6.427026e+01  -3.191366e+01
   9.436371e+00   6.758565e+01
  -9.509503e+00  -3.140186e+01
  -1.293609e+00  -1.165132e+02
   1.039711e+02  -8.776398e+01
   1.655587e+02  -1.537933e+01
   1.294232e+02   1.171826e+02
  -1.416405e+01   1.421576e+02
  -1.170190e+02   9.223982e+01
  -1.229299e+02   6.942879e-01
  -7.153465e+01  -6.477195e+01
   5.022203e+01  -5.727380e+01
   2.083850e+01  -1.548881e+01
   1.412080e+01  -4.592796e+00
  -7.193080e+01   4.245160e+01
   9.097117e+00  -5.672020e+01
   6.789601e+01  -3.831179e+01
   7.861949e+01   8.326107e+01
   3.486427e+01   1.499346e+02
  -1.259518e+02   9.892994e+01
  -1.453742e+02  -8.632600e+00
  -8.532232e+01  -1.169586e+02
   1.662685e+00  -1.702842e+02
   7.971410e+01  -1.079685e+02
   8.841718e+01   1.778478e+01
   7.669512e+01   5.546847e+01
  -1.780815e+01   5.568110e+01
   1.224897e+01  -5.414104e+01
   7.413193e+01  -1.138217e+01
   3.482228e+01   4.554195e+01
  -3.499400e+01   5.199080e+01
  -1.191859e+02   3.177328e+01
  -1.035282e+02  -6.300313e+01
   4.113811e+01  -1.459111e+02
   1.136411e+02  -4.942617e+01
   1.822923e+02   5.586711e+01
   6.402396e+01   1.492843e+02
  -1.370024e+02   2.086024e+02
  -2.284222e+02   5.898764e+01
  -2.107768e+02  -6.907415e+01
  -6.681410e+01  -1.639077e+02
   4.481135e+00  -7.403235e+01
   9.952522e+01  -5.356777e+01
   4.581656e+01  -5.889430e+01
   5.516276e+01  -5.179417e+01
   1.018956e+02  -5.535489e+01
   1.197723e+02   2.464213e+01
   1.046675e+02   1.498968e+02
   4.930263e+01   1.318373e+02
  -7.641482e+01   8.954986e+01
  -1.747009e+02  -2.676285e+01
  -9.531409e+01  -1.237184e+02
   4.292159e+01  -1.353314e+02
   7.095642e+01  -7.125642e+01
   7.023854e+01   4.795162e+01
  -3.234860e+00   4.318411e+01
  -2.564142e+01   6.829764e+01
   2.436463e+01   6.083248e+00
   7.044788e+01   9.411715e+00
   5.213240e+01   2.732863e+01
  -7.677327e+01   3.917553e+01
  -1.305378e+02  -2.542333e+01
  -1.860233e+02  -1.181538e+02
   2.371976e+01  -6.052115e+01
   9.934637e+01  -3.797676e+01
   1.125690e+02   1.399248e+01
   2.377631e+01   5.910752e+01
  -3.987447e+01   4.745813e+01
  -5.364617e+01   3.798886e+00
   4.156072e+01  -6.267732e+01
   6.123078e+01  -5.115214e+01
   3.749635e+01  -7.943466e+01
   6.618480e+01   5.310479e+01
   2.142360e+01   6.850193e+01
   1.164487e+01  -8.541465e+00
   4.157967e+01   7.390093e-01
   6.151603e+01   1.148620e+02
  -1.903686e+01   1.245588e+02
  -1.172784e+02   1.415626e+02
  -1.448422e+02   2.844093e+01
  -1.081556e+02  -8.060362e+01
  -1.013149e+01  -1.118711e+02
   8.470226e+01  -7.778302e+01
   6.935978e+01   2.483975e+01
  -4.260388e+01   3.272939e+00
  -7.753327e+01  -1.064187e+01
  -4.720792e+01  -6.794090e+01
   1.100784e+02  -9.738897e+01
   1.425280e+02  -1.802189e+01
   1.305775e+02   6.593342e+01
   4.352364e+01   1.135514e+02
  -4.156577e+01   5.173203e+01
  -4.455691e+01   2.990422e+01
   4.730603e+01  -1.255634e+01
   6.281508e+01  -4.788982e+00
   4.366653e+01   1.220423e+02
  -5.752867e+01   1.123652e+02
  -1.637036e+02   5.166879e+01
  -9.214644e+01  -6.793200e+01
   4.794587e+00  -1.356845e+02
   3.059877e+01  -8.290616e+01
   1.231499e+02   4.652794e+00
   8.321647e+01   7.393641e+01
   9.425845e+00   1.079099e+02
  -5.592124e+01   2.150764e+01
  -4.235699e+01  -2.084341e+00
  -2.490390e+01   2.506166e+01
  -2.484846e+01  -1.422345e+01
  -8.431752e+00  -6.986158e+00
  -4.052269e+01  -7.587309e+01
  -3.523994e+01  -5.915272e+01
   1.908780e+01  -5.123022e+01
   1.013999e+02   2.947735e+01
   5.626618e+01   4.374443e+01
   2.460948e+01   4.240502e+01
  -2.566762e+01   5.041738e+01
  -6.944846e+01  -2.019834e+01
  -1.172813e+01   6.407494e+00
   1.856021e+01  -5.625682e+01
   5.123318e+00   3.340267e+01
   1.217453e+00  -2.368170e+00
   2.374005e+01  -4.818663e+00
   5.943359e+01  -2.122367e+00
   5.088343e+01  -5.711111e+00
  -8.744841e-01   7.835986e+01
  -9.896387e+01   1.137417e+02
  -1.667972e+02   6.690756e+01
  -1.240881e+02  -1.695790e+01
  -4.431405e+01  -8.978783e+01
   8.036309e+01  -1.327646e+02
   8.593322e+01  -7.895469e+01
   8.773023e+01  -1.811424e+01
   5.995718e+01   3.907018e+01
   4.079177e+01  -1.965283e+01
   1.602906e+01  -1.585136e+00
   5.290063e+01   2.723486e+01
  -1.118566e+01   6.786364e+01
  -3.229558e+01   5.599629e+01
  -5.423206e+01  -4.487789e+01
  -5.965913e+01  -6.386292e+01
  -7.082985e+00  -7.438167e+01
   2.156064e+01  -1.762485e+01
   8.880455e+01   6.712370e+01
   5.283733e+01   1.243922e+02
  -4.274122e+01   1.237200e+01
  -7.801947e+01  -3.597457e+01
  -4.582995e+00  -4.470283e+01
   7.618626e+00  -3.507018e+01
   7.711146e+01  -2.581295e+01
  -6.861523e+00   2.332263e+01
  -2.579794e+01   1.551653e+01
  -1.576184e+01  -6.269491e+01
   4.311256e+01  -6.197460e+01
   1.121723e+02  -2.914896e+01
   2.434250e+01   5.194636e-01
  -2.836408e+01   1.117004e+02
  -3.849786e+01   3.901100e+01
  -5.740788e+01   3.648873e+01
  -3.695167e+01  -3.982699e+01
   8.390764e+01  -4.234144e+01
   7.216449e+01   2.894904e+01
   3.533881e+01   2.702015e+01
   4.852236e+01   1.760652e+01
  -3.229364e+01  -1.996436e+01
  -2.417353e+01  -5.276361e+00
  -1.949660e+01   3.007335e+00
  -5.066821e+00   2.327343e+01
   1.223485e+01  -5.695279e+00
  -2.372296e+01  -4.669928e+01
   8.129134e+00  -7.813101e+01
   7.680516e+01  -4.049360e+01
   4.459220e+01   3.347070e+01
   5.031228e+00   4.706853e+01
  -6.048871e+01   3.202880e+01
  -1.908193e+01  -1.042977e+01
  -4.521356e+01  -6.283828e+01
   1.409698e+01  -3.253756e+01
   7.957430e+01   1.058267e+01
   4.712761e+01   6.084579e+01
   3.366846e-01   1.652884e+01
  -3.184487e+01   6.200855e+01
   1.585912e+01   6.678384e+00
   3.535448e+01  -2.619039e+01
  -1.608348e+00  -5.450374e-01
  -1.479044e+00   9.076792e-01
  -8.448060e+01  -8.435171e+00
