
 $NMID
 id='ANONYMOUS ', fmtdat='(2E16.6)'
 volume=1.0
 tramp=1.0
 $END
  -1.143972e+03  -7.417485e+02
  -8.778735e+02  -8.585245e+02
   2.488065e+01  -8.298437e+02
   4.070839e+02  -3.401185e+02
   4.548735e+02  -9.264654e+01
  -1.586651e+01  -1.317122e+02
   3.256457e+00  -1.916377e+02
   1.319200e+02  -2.472143e+02
   2.320750e+02  -1.270495e+02
   1.924910e+02   3.678262e+01
   9.199898e+01   2.009580e+02
  -9.088330e+01   1.396957e+02
  -8.101770e+01   3.511900e+01
   7.059335e+01  -2.764729e+02
   1.047694e+02  -1.722505e+02
   1.451034e+02   6.360246e+01
   1.140442e+01   2.132979e+02
  -8.898972e+01   1.964050e+02
  -1.365259e+02   7.633877e+01
  -1.162742e+02  -3.114139e+01
  -6.781903e+01  -1.058453e+02
   5.287111e+01  -6.973864e+01
   2.213864e+01  -2.323853e+01
  -9.228268e+01  -1.204276e+02
  -8.333147e+01  -1.804530e+02
   5.081555e+01  -1.106417e+02
   2.201395e+02   1.434667e+01
   2.116054e+02   2.438238e+02
   2.339004e+01   1.570580e+02
  -1.740833e+02   1.434008e+00
  -1.788923e+02  -1.296895e+02
  -3.570668e+01  -1.288792e+02
   1.616618e+02  -5.248514e+01
   1.510293e+02  -2.358190e+01
   7.564329e+01   8.516061e+01
  -8.956286e+00   1.039235e+02
   1.122563e+01   1.897868e+01
   4.914324e+01  -4.624209e+01
   1.540969e+02  -2.004476e+01
   2.645230e+01   1.068902e+02
  -8.233902e+01   1.839380e+02
  -1.502638e+02   1.669142e+02
  -9.259788e+01  -3.610359e+01
  -7.752237e+01  -9.925386e+01
   1.321631e+02  -1.819258e+01
  -1.300245e+01   1.907419e+02
  -1.217857e+02   1.383495e+02
  -1.811500e+02  -8.726984e+01
  -1.151151e+02  -2.541644e+02
   2.739795e+01  -2.389700e+02
   1.838181e+02  -1.596342e+01
   2.429572e+02   1.341245e+02
   1.446256e+02   1.320545e+02
  -7.817468e+01   5.817641e+01
  -7.348307e+01  -2.531548e+01
  -6.518621e+01   7.804525e+00
  -2.405003e+01   3.986017e+01
  -6.160786e+01  -7.441712e+00
  -1.074435e+00  -1.343719e+01
  -1.011286e+02  -7.810752e+01
   1.234867e+01  -3.945777e+01
   1.354578e+02  -1.064292e+01
   1.174750e+02   1.090348e+01
   1.268515e+02   9.819904e+01
  -4.798181e+01   1.787199e+02
  -1.784006e+02   1.193190e+02
  -1.694254e+02  -9.172175e+00
  -8.379146e+01  -1.131180e+02
  -3.157537e+01  -1.483847e+02
  -2.316851e+01  -1.022044e+02
   1.749344e+01  -4.839092e+01
  -3.604336e+01  -9.321611e+01
   1.026510e+02  -4.660533e+01
   1.502451e+02   3.103079e+01
   9.647131e+01   1.087434e+02
  -1.640046e+01   1.503311e+02
  -6.709993e+01   3.782590e+01
  -8.756168e+01  -4.698676e+01
   1.463662e+01  -1.742275e+02
   3.993897e+01  -1.061319e+02
   1.047888e+02   6.019535e+01
   1.093937e+02   9.510338e+01
  -1.463948e+00   1.712582e+02
  -1.785840e+01   7.150547e+01
  -7.410236e+01   6.571243e+01
  -4.369999e+01   2.014698e+01
  -9.279324e+01   1.258321e+01
  -1.409056e+02  -1.505636e+01
  -1.460654e+02  -9.584251e+01
  -1.353059e+02  -2.504999e+02
   3.252070e+01  -2.029258e+02
   2.187753e+02  -5.865147e+01
   1.794119e+02   4.120338e+01
   1.144996e+02   6.855376e+01
  -4.504231e+01   1.004412e+02
  -8.142957e+00   6.760913e+01
   4.914316e+01  -2.323579e+00
   6.704273e+01   1.942739e+01
   6.660613e+01   7.793554e+01
  -3.811734e+01   5.790728e+01
  -5.650321e+01  -1.804616e+01
  -5.711523e+01  -4.841904e+01
   5.148528e+01  -1.248480e+00
   7.046895e+01   2.194528e+01
   1.588688e+01   1.285326e+02
  -7.664847e+01   1.239641e+02
  -1.210492e+02   6.599413e+01
  -1.847336e+02  -8.885530e+01
  -8.193555e+01  -1.494723e+02
   1.379918e+01  -1.472400e+02
   6.281990e+01  -2.953162e+01
   5.648086e+01   3.415142e+01
  -8.094255e+00  -1.355453e+01
  -2.045404e+01  -4.451194e+01
  -2.546145e+00  -7.786677e+01
   5.268607e+01  -2.525017e+01
   7.342752e+01   1.028065e+02
  -2.850370e+01   3.689005e+01
   1.112433e+01  -4.087217e+01
   1.199675e+01  -2.322491e+01
   1.067560e+02  -3.418924e+01
   1.402605e+02   8.706107e+01
   6.141351e+01   6.491124e+01
  -4.903105e+01   1.539894e+02
  -1.343641e+02   4.748023e+01
  -1.296560e+02   1.482288e+01
  -6.901547e+01  -4.420101e+01
   4.657246e+01  -3.620189e+01
   3.920328e+01   1.084609e+01
  -4.201742e+01  -7.024637e+00
  -9.207497e+01  -4.204146e+01
  -9.172576e+01  -5.707191e+01
   6.111625e+01  -8.622992e+01
   7.811672e+01  -2.853579e+01
   1.852544e+01  -3.553956e+01
  -1.663297e+01  -1.328813e+01
  -1.982959e+01  -2.279918e+00
   9.029265e+00  -5.524092e+01
   7.964961e+01  -5.213355e+01
   9.832757e+01  -1.244440e+01
   6.482620e+01   1.048778e+02
  -4.524137e+01   5.201514e+01
  -8.790594e+01   3.328929e+01
  -4.928567e+01  -1.024945e+01
  -3.602624e+01  -3.912663e+01
   7.409664e+01   1.668959e-01
   2.914272e+01  -3.978429e+01
   2.581246e+01   4.747840e+01
  -2.477160e+01   5.093164e+00
   9.481692e+00   9.873127e+00
   5.216411e+01  -4.604408e+00
   8.686879e+00   6.288361e+01
  -4.127287e+01   7.454048e+01
  -1.688402e+02   4.688131e+01
  -1.052383e+02  -4.548045e+01
  -4.469357e+01  -1.009154e+02
   3.899058e+01  -7.051881e+01
   7.097427e+01  -4.447156e+01
   6.675261e+01  -5.335879e+00
   4.643617e+01  -5.143787e+00
   3.534170e+01   1.204110e+01
   2.526018e+01   5.391456e+00
   6.488288e+01   5.527794e+01
   1.248433e+01   6.564878e+01
  -5.631183e+01   3.393690e+01
  -7.481855e+01  -1.056365e+01
  -5.805119e+01  -2.042642e+01
   1.492064e+01  -7.777949e+01
   1.496216e+02   1.720772e+01
   9.016920e+01   5.482927e+01
   1.671326e+01   9.925023e+01
  -9.645322e+01   9.421272e+01
  -1.791254e+02  -2.957048e+01
  -7.334560e+01  -7.537684e+01
  -3.947193e+01  -1.110325e+02
   2.584086e+01  -3.655576e+01
   8.597577e+00   2.023769e+00
   4.768065e+01  -3.009405e+01
  -1.932236e+01  -5.759873e+00
   3.772377e+01  -3.306695e+01
   5.033744e+01   1.675998e+01
  -6.021134e+00   5.047800e+01
   1.087269e+01   7.430735e+01
  -4.612666e+01   3.210294e+01
  -4.250540e+01  -6.104131e+01
  -3.312795e+01  -6.938343e+01
   3.592214e+01  -5.386818e+01
   5.165768e+01  -3.780605e+01
   4.626622e+01   5.132846e+01
   4.672325e+00   2.696411e+01
  -3.124824e+00  -9.212451e+00
   4.809609e+01  -1.457749e+01
   4.599625e+01   1.036672e+01
   1.836410e+01   3.095442e+01
  -4.648441e+01   4.235216e+01
  -1.170848e+02  -3.982461e+01
  -8.655076e+01  -5.544839e+01
   1.056037e+01  -5.395436e+01
   5.349839e+01  -8.408101e+00
   7.575904e+01   1.814270e+00
   4.201037e+01   1.613198e+01
  -6.156713e+01   3.475806e+01
  -2.428355e+01  -3.886533e+01
  -4.374585e+00  -2.836268e+01
   5.381037e+01  -2.498858e+01
  -5.099464e+00   1.666041e+01
   4.758738e+01   5.064318e+01
   2.209994e+01   4.364256e+01
   7.785561e+00  -4.065386e+01
   4.251562e+01   2.588610e+01
   3.604445e+01   7.362190e+01
  -3.685916e+01   7.796768e+01
  -5.060121e+01   6.719879e+01
  -8.254441e+01  -2.688017e+00
  -6.094840e+01  -2.636608e+01
   2.651149e+01  -4.855563e+01
   1.249549e+01  -5.643617e+00
   5.281029e+01   1.211302e+01
  -1.369754e+01   1.893113e+01
  -7.190911e+01   1.350906e+01
  -1.092674e+01  -3.094500e+01
   5.729123e+01  -1.982859e+01
   9.069037e+01   6.517602e+00
   2.933582e+01   5.558435e+01
   6.510698e-01   2.562429e+01
  -5.251018e+01   2.828780e+01
  -2.989881e+01  -2.239706e+01
   2.067107e+01  -2.784691e+01
   2.555758e+01  -2.223839e+01
  -1.819146e+01   4.576070e+01
  -1.028078e+02   6.746520e+01
  -1.216898e+02   4.288714e+01
  -3.643838e+01  -6.340452e+00
  -2.247081e+01  -7.475677e+01
   2.659327e+01  -4.224108e+01
   5.940483e+01  -3.118452e+00
   1.499381e+01   6.017094e+01
  -1.770071e+01   7.559284e+01
  -1.289110e+01   4.898725e+01
  -1.983364e+01  -3.519613e+01
  -2.593954e+01  -4.602730e+01
   2.288726e+00   2.490594e+00
  -2.714329e+01  -4.870852e+01
  -2.712076e+01  -2.171168e+01
   9.487254e+00  -7.500682e+01
   3.264709e+01   7.738127e+00
   3.864604e+01   2.957329e+01
   5.192264e+01   3.073456e+01
   3.336360e+01   4.120705e+00
  -2.245495e+01   5.607317e+01
  -6.714909e+01   8.031141e+00
  -1.519419e+01  -4.537212e+00
   5.830353e+01  -8.449068e+00
  -4.231886e+00  -9.134567e+00
  -1.127411e+01   2.940282e+00
   2.419111e+01   1.908530e+01
   1.428067e+01   1.182918e+01
   8.577030e+00   5.333150e+01
   9.634714e+00   2.950270e+01
  -5.591569e+01   4.639152e+01
  -1.253939e+02  -2.687817e+01
  -4.654736e+01  -6.205661e+01
  -7.321788e+00  -7.383563e+01
   2.782853e+01  -1.024590e+02
   6.225671e+01   1.870406e+00
   5.927003e+00   2.423826e+00
   1.758382e+01  -1.183698e+01
   3.758678e+01   1.819092e+00
   2.082738e+01   4.236286e+00
  -1.357102e+01   5.483057e+01
  -1.198760e+01   4.230811e+01
  -4.996867e+01   1.786181e+01
  -7.972002e+00   2.708984e-01
  -5.771390e+00  -4.956303e+01
  -1.074696e+01  -4.149151e+01
   2.641999e+01  -3.502445e+00
   1.601041e+00   3.102547e+01
  -8.045890e+00   6.856730e+01
  -4.586610e+01   1.662613e+01
  -9.220779e+01  -3.283627e+00
  -1.803121e+01  -9.861324e+00
   9.282175e+00  -4.543818e+01
   1.598665e+01  -3.266897e-01
  -1.111681e+01  -5.204724e+01
  -1.834662e+01  -7.082549e+00
  -2.770469e-01   3.673907e+01
   7.813160e+00   5.058500e+00
   6.838169e+01  -1.536601e+01
   3.597386e+01  -2.372707e+01
  -1.550034e+01   6.973947e+01
  -9.164616e+00   4.110130e+01
  -2.884348e+00   8.576313e+00
  -2.327842e+01  -4.176345e+01
  -2.361583e+01  -2.462505e+01
  -1.302189e+01   1.752464e+01
   9.262577e+00   4.283414e+01
   1.862688e+01   1.289999e+01
  -1.537828e+01  -1.461543e+01
  -4.708697e+01   1.128312e+01
  -2.844327e+01  -3.816203e+00
  -1.406711e+01  -2.977731e+01
   6.529167e-01   2.312757e+00
   5.584549e+01  -5.947772e+01
   1.149138e-01   1.670567e+01
   2.020011e+01   1.116463e+01
   2.169531e+01  -8.364802e+00
  -1.468018e+01  -9.501107e+00
   2.325775e+01  -1.869499e+01
  -5.826443e+01  -1.546040e+01
   1.008651e+01  -5.099968e+00
   2.940463e+01  -5.880134e+00
   4.604551e+01  -1.329551e+01
   1.634141e+00   2.412724e+01
  -4.550704e+01   1.238893e+01
  -3.069946e+01   1.584463e+01
  -8.703285e+00  -2.111295e+01
   2.735058e+01   9.315482e+00
   2.009644e+01  -1.090476e+01
  -2.869704e+01  -4.285753e-01
  -4.807248e+01  -8.944834e+00
