
 $NMID
 id='ANONYMOUS ', fmtdat='(2E16.6)'
 volume=1.0
 tramp=1.0
 $END
   2.641522e+03   1.440908e+02
   1.405740e+03   1.766254e+03
  -3.076057e+02   1.805671e+03
  -1.031665e+03   8.631245e+02
  -7.364475e+02   1.635589e+02
   9.433317e+01  -6.446703e+01
   1.816868e+02   2.541964e+02
  -1.100413e+02   5.602188e+02
  -5.545007e+02   3.274992e+02
  -5.661216e+02  -1.754185e+01
  -2.415531e+02  -5.376822e+02
   1.529722e+02  -5.098806e+02
   2.196010e+02  -3.744956e+01
   1.064649e+02   3.506326e+02
  -2.028551e+02   4.432422e+02
  -3.202124e+02  -1.695155e+01
  -1.654601e+02  -5.271501e+02
   1.621110e+02  -5.187063e+02
   3.659719e+02  -1.412628e+02
   3.095112e+02   1.479699e+02
   5.677781e+01   2.531746e+02
  -1.371037e+02   1.639457e+02
  -2.586850e+01   6.933989e+00
   1.530750e+02   8.736463e+01
   1.993284e+02   3.385496e+02
  -9.292663e+01   3.202506e+02
  -4.484739e+02   6.662090e+01
  -4.332041e+02  -2.725044e+02
  -5.349867e+01  -3.994080e+02
   3.115991e+02  -7.744761e+01
   3.989601e+02   2.238360e+02
   4.333956e+01   3.526108e+02
  -3.455055e+02   2.495339e+02
  -3.949438e+02  -4.865014e+00
  -2.208721e+02  -1.965370e+02
  -2.753018e+01  -2.924427e+02
   5.262379e+01  -1.578394e+02
  -3.093820e+01   1.168484e+02
  -1.831810e+02   1.255858e+02
  -1.687983e+02  -1.958088e+02
   4.140219e+01  -4.336755e+02
   2.751397e+02  -3.717935e+02
   3.488287e+02   1.224424e+02
   2.511020e+01   3.135363e+02
  -1.509341e+02   1.206477e+02
  -1.137133e+02  -2.454857e+02
   1.539933e+02  -3.257707e+02
   4.272954e+02  -4.119719e+01
   3.559065e+02   3.169922e+02
   3.988407e+01   4.023377e+02
  -2.485045e+02   1.608155e+02
  -4.134520e+02  -1.568459e+02
  -2.637027e+02  -2.722335e+02
   7.905757e+01  -1.454847e+02
   2.583913e+02  -4.839517e+00
   1.163068e+02   7.868365e+01
  -6.455094e+00   2.123757e+01
   1.466129e+01  -1.059388e+02
   1.116724e+02  -1.322183e+01
   1.949421e+02   9.029755e+01
   8.809447e+01   1.953486e+02
  -1.092038e+02   1.432971e+02
  -3.292907e+02   1.029009e+02
  -1.823154e+02  -1.445567e+02
   8.294045e+01  -2.356870e+02
   2.586800e+02  -2.975019e+02
   2.584903e+02  -8.699747e+01
   1.502587e+02   1.660234e+02
   1.431398e+01   2.826584e+02
  -5.618970e+01   1.814811e+02
   2.233083e+01   1.078285e+02
  -3.341886e+01   1.330404e+02
  -1.345934e+02   1.135297e+02
  -2.482207e+02   4.026381e+01
  -1.633434e+02  -1.318547e+02
  -3.203740e+01  -2.365214e+02
   1.224361e+02  -1.742355e+02
   1.362409e+02   3.111536e+01
   8.103246e+01   2.180093e+02
  -9.734626e+01   2.325426e+02
  -1.972901e+02  -8.884617e-01
  -1.792924e+02  -2.036614e+02
  -8.190559e+01  -1.916052e+02
   1.107653e+02  -1.755264e+02
   1.627760e+02  -8.741017e+01
   1.309572e+02  -3.752315e+01
   1.473926e+02  -2.453225e+01
   2.297843e+02   6.208907e-02
   2.998726e+02   1.222607e+02
   2.055684e+02   2.656261e+02
  -8.878813e+01   3.268131e+02
  -3.984897e+02   2.657275e+02
  -4.565185e+02   9.941523e+01
  -2.064943e+02  -1.467565e+02
  -1.456125e+01  -1.932100e+02
   5.314232e+01  -2.009378e+02
   1.868904e+01   1.012782e+00
  -8.451162e+01   1.767819e+01
  -1.301085e+02  -6.745919e+01
   6.344002e+00  -1.070566e+02
   1.524527e+02  -8.841415e+01
   1.088822e+02   8.063408e+01
  -6.938997e+01   9.932588e+01
  -1.300086e+02  -4.110289e+01
  -1.175169e+02  -2.241909e+02
   1.093218e+02  -2.535112e+02
   2.515930e+02  -1.017709e+02
   2.884631e+02   8.928751e+01
   1.791832e+02   2.057011e+02
   2.529230e+01   2.545461e+02
  -1.722774e+02   1.091971e+02
  -1.425268e+02  -2.544620e+01
  -2.513261e+01  -4.930656e+01
  -8.073050e+00   9.205430e+01
  -6.568026e+00   1.212047e+02
  -8.502507e+01   1.728446e+01
  -1.648863e+02  -6.668522e+01
  -4.796438e+01  -1.029677e+02
   9.797575e+01   1.606691e+00
   4.333035e+01   1.038906e+02
  -1.257589e+02   8.292899e+01
  -2.324510e+02  -4.143127e+01
  -2.569699e+02  -1.769375e+02
   1.375821e+01  -2.513499e+02
   2.147421e+02  -1.662445e+02
   2.219409e+02  -3.417817e+01
   1.210202e+02   1.128612e+02
  -1.614358e+01   3.690837e+01
  -5.989963e+01  -4.800358e+00
   5.275440e+01  -8.484502e+01
   1.418026e+02  -2.204094e+01
   1.661606e+02   6.109616e+01
   4.516454e+01   1.692505e+02
  -8.179401e+01   1.281727e+02
  -1.193246e+02  -1.157521e-01
  -5.261067e+01  -2.487703e+01
   3.985193e+01  -2.777670e+01
   3.358600e+01   1.108705e+02
  -9.537903e+01   1.035081e+02
  -1.579581e+02   2.440311e+01
  -1.408810e+02  -1.452997e+02
  -1.439832e+01  -1.442786e+02
   1.393935e+02  -8.550326e+01
   1.539966e+02  -3.632374e+00
   2.589127e+01   1.162426e+02
  -4.391916e+01   7.163345e+01
  -7.358383e+01  -4.162113e+01
   8.160301e+00  -5.164139e+01
   9.128506e+01  -4.970209e+01
   4.568112e+01   6.243360e+01
  -8.031762e+01   1.155316e+00
  -9.534742e+01  -6.568900e+01
  -1.768747e+01  -1.251462e+02
   1.191936e+02  -1.056434e+02
   1.992177e+02   3.376410e+01
   1.693343e+02   1.735109e+02
   7.817237e+00   1.832988e+02
  -1.099320e+02   1.035226e+02
  -1.212695e+02   3.195470e+01
  -6.725502e+01  -2.620927e+01
  -1.494551e+01  -2.787413e+01
  -2.630261e+01  -4.798776e+00
  -9.049111e+01  -1.813948e+01
  -5.726035e+01  -5.352717e+01
   4.200097e+01  -7.097911e+01
   1.359458e+02  -1.735127e+01
   5.975869e+01   5.788106e+01
  -1.003756e+01   8.175870e+01
  -1.299424e+02   7.215434e+01
  -2.054912e+02  -5.646746e+01
  -1.707999e+01  -1.837893e+02
   1.486370e+02  -1.542861e+02
   2.289161e+02  -3.830898e+01
   1.831316e+02   4.691936e+01
   7.692947e+01   1.095197e+02
  -4.192129e+00   1.156151e+02
  -5.899479e+01   1.008684e+02
  -9.107249e+01   1.380867e+01
  -4.977436e+01   6.231742e+01
  -1.141229e+02  -3.659787e+00
  -9.969098e+01  -3.519395e+01
  -5.467217e+01  -1.768172e+02
   9.824473e+00  -2.080608e+02
   7.844775e+01  -1.576054e+02
   1.314766e+02  -4.319458e+01
   7.327708e+01   1.548670e+02
  -2.983016e+01   1.592392e+02
  -6.931345e+01   2.206372e+01
  -8.252041e+01  -2.735058e+01
  -1.906090e+01  -6.756477e+01
   5.547832e+01  -2.868715e+01
  -5.635407e+01  -3.919032e+01
  -8.633799e+01  -3.807426e+00
  -3.046827e+01  -5.771497e+01
   8.590018e+01  -4.907873e+01
   1.022450e+02   3.869739e+01
   1.285980e+02   8.957723e+01
  -1.011432e+01   1.099866e+02
  -1.246213e+02   2.569232e+01
  -1.417009e+02  -4.501217e+01
   5.348662e-02  -3.943245e+01
   7.457287e+01  -1.792050e+01
   3.666849e+01   5.899648e+01
   1.000125e+01   4.235324e+01
  -5.458728e+01   8.344730e+01
  -9.938119e+01  -3.009770e+01
  -6.533776e+01  -3.424489e+01
  -1.574379e+01  -3.683874e+01
  -6.340667e+01  -9.609597e-01
  -2.405100e+01   8.702065e+00
  -3.500549e+01  -4.788876e+01
   1.884749e+01  -1.381061e+02
   1.373949e+02  -1.101925e+02
   1.512450e+02   1.820699e+00
   9.427601e+01   1.207325e+02
  -4.176941e+01   9.927940e+01
  -1.189277e+02   2.209746e+01
  -2.827646e+01   4.621885e+00
   8.298987e+01  -4.724966e+01
   1.338525e+02   3.015201e+01
   7.794285e+01   9.724708e+01
  -1.197709e+02   9.712435e+01
  -1.750701e+02  -5.803661e+00
  -1.331259e+02  -5.847861e+01
   1.185139e+01  -8.783388e+01
   9.173349e+01  -2.408305e+01
   5.792552e+00   1.113198e+01
  -7.061077e+01   3.030120e+01
  -1.056134e+02  -2.152376e+01
  -1.634415e+01  -7.922796e+01
   7.685853e+01  -1.175405e+02
   1.543531e+02  -6.288510e+01
   9.270743e+01   9.851301e+01
   1.682690e+01   1.335396e+02
  -9.669782e+01   8.037116e+01
  -1.175111e+02  -2.681460e+01
  -3.396540e+01  -1.257527e+02
   6.181531e+01  -1.116183e+02
   4.415178e+01  -2.708435e+01
  -2.344949e+00   4.191407e+01
  -4.125162e+01   3.412161e+01
   9.270692e+00  -3.747907e+01
   3.529722e+01   3.321765e+00
   5.460885e+01   8.150155e+01
  -2.950643e+00   1.023576e+02
  -2.246922e+01   3.340220e+01
  -1.061897e+02  -1.756581e+01
  -7.145800e+01  -1.013193e+02
   9.048929e+00  -4.238389e+01
   8.450457e+01   3.027714e+00
   1.276258e+02   4.855615e+01
   4.114507e+00  -2.169595e+01
  -6.604015e+01  -1.066206e+01
   1.460124e+01  -8.715934e-01
   2.703936e+01   4.921633e+01
  -1.540280e+01   1.150611e+00
  -3.617852e+01  -8.758039e+00
  -8.164392e+01  -1.265049e+01
  -4.030959e+01  -4.147032e+01
   8.562827e+01  -9.570617e+01
   1.320203e+02  -2.073265e+01
   1.242351e+02   8.231730e+01
   2.192577e+01   1.410354e+02
  -9.478124e+01   1.201379e+02
  -8.021083e+01   5.034934e+01
  -8.913605e+01  -1.811946e+01
   5.146664e+00  -4.426587e+01
  -1.688364e+01  -7.545473e+00
  -2.083409e+01  -4.223525e+00
  -2.400346e+01  -7.625239e+01
  -2.525269e+01  -1.432389e+02
   3.032068e+01  -8.653289e+01
   1.146931e+02   7.076534e+01
   4.778157e+01   1.062556e+02
  -1.207363e+00   1.494912e+02
  -3.810489e+01   5.139160e+01
  -8.437314e+01  -5.414238e+01
  -1.201187e+01  -9.154306e+01
   6.913904e+01  -3.450129e+01
   7.057425e+01   5.375784e+01
   3.496773e+01   5.928025e+01
  -5.358394e+01   4.727309e+01
  -6.544375e+01   2.036955e+01
   2.893439e+01   1.688433e+01
   7.513939e+01   3.773413e+01
   2.463346e+00  -3.705768e+00
  -6.431742e+01   2.298482e+01
  -1.133838e+02   4.545967e+00
  -2.097710e+01  -1.161906e+01
   3.868948e+01  -6.074639e+01
   6.678192e+01  -4.634206e+01
   6.840371e+01   1.202446e+01
  -4.221880e+01   7.224038e+01
   1.699374e+01   5.077950e+01
  -2.805069e+01  -6.901336e+00
  -4.730872e+01  -3.803138e+01
   6.765271e-01  -4.911902e+01
   5.118370e+01   3.594272e+01
   1.204224e+01   3.518453e+01
  -2.361202e+01   1.174275e+01
  -1.521063e+01  -4.025126e+01
   1.754527e+01  -1.248271e+00
   4.323869e+01   3.931021e+01
   2.306058e+01   5.803407e+01
  -1.806742e+01   2.064984e+01
  -4.326652e+01  -7.634743e+01
  -1.077895e+01  -6.352445e+01
   3.044451e+01  -1.978969e+01
   7.191830e+01   3.565823e+01
  -1.460192e+01   3.438425e+01
  -5.667854e+01   4.273643e+01
  -4.869926e+01  -6.231433e+01
  -4.151372e+01  -8.583271e+01
   3.749273e+01  -2.813017e+01
   4.870821e+01  -9.200281e+00
   1.316293e+01   3.110541e+01
  -3.249529e+01  -2.102373e-01
  -5.664729e+01   6.447310e+00
  -3.894013e+00  -2.008938e+01
   6.262648e+01   1.028759e+01
