
 $NMID
 id='ANONYMOUS ', fmtdat='(2E16.6)'
 volume=1.0
 tramp=1.0
 $END
  -1.426399e+03   3.850453e+02
  -1.109500e+03  -5.758806e+02
  -1.330724e+02  -1.063655e+03
   4.953840e+02  -6.526252e+02
   4.386543e+02  -1.700200e+02
   1.106398e+02   3.390858e+00
  -1.452577e+02   1.993149e+01
  -1.921997e+01  -2.038556e+02
   1.824933e+02  -3.094681e+02
   2.813525e+02  -8.868854e+01
   2.212441e+02   2.128692e+02
   7.095809e+01   2.741280e+02
  -9.846740e+01   1.683607e+02
  -1.304206e+02  -1.224144e+02
   1.026227e+01  -2.615498e+02
   7.980236e+01  -7.258929e+01
   1.605336e+02   1.715614e+02
   5.104100e+01   2.928731e+02
  -1.656602e+02   1.752191e+02
  -2.112221e+02   4.474787e+01
  -6.901013e+01  -1.129048e+02
   1.221377e+01  -1.094334e+02
  -1.379167e+01  -9.286383e+01
  -3.886638e+01  -8.368835e+01
  -9.619150e+01  -1.200799e+02
  -1.521349e+01  -1.138347e+02
   1.466237e+02  -5.558702e+01
   2.551081e+02  -3.313180e+01
   1.686598e+02   1.190853e+02
  -4.403262e+01   2.959585e+01
  -2.041590e+02  -4.780978e+01
  -1.296789e+02  -1.083657e+02
   9.083633e+01  -1.294412e+02
   1.812681e+02  -3.449555e+01
   1.409369e+02   2.048302e+00
   9.815284e+01   1.228990e+02
   9.192964e+01   1.318415e+02
   6.878763e+01   1.306105e+01
   8.703265e+01  -8.894017e+01
   4.872533e+01   2.860925e+01
  -1.569103e+01   2.052881e+02
  -4.925215e+01   2.875084e+02
  -1.396405e+02   1.964993e+01
  -1.476069e+02  -1.642499e+02
   6.395798e+01  -1.098808e+02
   6.167048e+01   9.572084e+01
  -3.836134e+01   1.525939e+02
  -2.064221e+02   4.774337e+01
  -2.934079e+02  -1.513372e+02
  -8.631281e+01  -1.646674e+02
   1.052415e+02  -1.576377e+02
   2.536719e+02  -1.049420e+02
   2.246033e+02   5.710805e+01
   1.873341e+01   1.104598e+02
  -8.463635e+01   8.398853e+01
  -9.786468e+01   6.318712e+01
   1.221130e+00  -4.007307e+00
   2.874450e+01   1.121405e+01
   8.665390e-01   1.547632e+01
  -1.112080e+02   1.969871e+01
  -1.029523e+02  -3.066651e+01
   4.316621e+01  -7.513785e+01
   8.914191e+01  -1.189958e+02
   1.127835e+02  -1.350588e-01
  -8.495470e+00   1.028773e+02
  -8.452450e+01   1.619122e+02
  -1.850481e+02   1.700402e+02
  -1.220169e+02  -6.014440e+01
  -9.046952e+01  -1.588417e+02
  -2.568164e+01  -1.533449e+02
  -3.389144e+00  -5.207480e+01
   2.449862e+01  -5.910708e+00
   4.805856e+01  -9.054465e+01
   1.227197e+02  -5.255067e+01
   1.365697e+02   4.338396e+01
   2.911039e+01   1.148120e+02
  -2.498254e+01   7.331884e+01
  -7.152334e+01  -2.220300e+01
  -1.086351e+02  -8.892206e+01
  -3.813158e+01  -1.373703e+02
   1.010761e+02  -5.584564e+01
   1.414173e+02   3.649418e+01
   1.088585e+02   8.889082e+01
   2.990021e+01   1.021316e+02
  -6.433056e+01   1.003243e+02
  -8.599382e+01   7.803686e+00
  -5.923730e+01   2.516639e+01
  -1.308414e+02   2.655485e+01
  -2.049768e+02  -7.001874e+01
  -1.703985e+02  -8.792871e+01
   2.704917e+01  -1.837139e+02
   1.170002e+02  -1.842778e+02
   1.951908e+02  -9.917503e+01
   1.586947e+02   3.492522e+00
   5.376875e+01   4.375973e+01
  -1.990729e+00   5.601668e+01
  -1.177193e+01   3.012246e+01
   3.192174e+00  -3.398928e+01
   4.863865e+01   2.116503e+01
   9.844344e+00   7.335274e+01
  -2.238984e+01   7.022905e+01
  -2.193994e+01   2.806552e+01
   3.653008e+01  -5.693504e+01
   6.064602e+01   1.941767e+01
   6.417391e+01   1.378216e+02
  -7.673535e-01   1.501315e+02
  -8.519760e+01   8.447194e+01
  -1.167145e+02  -1.044577e+01
  -9.891541e+01  -7.138241e+01
  -4.061819e+01  -9.388401e+01
   3.761921e+01  -9.746672e+01
   9.576501e+01  -5.433490e+01
   3.656127e+01  -2.704643e+01
  -2.996468e+01  -1.687251e+00
   3.544373e+01  -2.232269e+01
   6.050244e+01  -1.167809e+01
   5.820796e+01   1.115114e+01
  -1.056939e+01   4.303310e+01
   1.014201e+00  -4.102690e+01
  -2.015703e+01  -2.883206e+01
   8.657895e+01  -1.821805e+01
   1.307853e+02  -7.810258e+00
   1.356214e+02   8.964924e+01
   5.869465e+01   1.186195e+02
  -7.117754e+01   1.596952e+02
  -9.862331e+01   6.535250e+01
  -7.594903e+01  -2.831594e+01
  -3.046932e+01  -4.575882e+01
   3.981167e+01  -2.944995e+01
  -3.403425e+01   1.817815e+01
  -8.169817e+01   8.671422e+00
  -7.324070e+01  -4.037477e+01
  -5.050379e+01  -4.673723e+01
   4.123908e+01  -4.858348e+01
   1.756132e+01  -2.057396e+01
  -5.237992e+00  -2.497157e+01
  -2.132206e+01  -1.689099e+01
   6.116051e+00  -4.054946e+01
   2.193813e+01  -6.495307e+01
   8.254865e+01   2.562468e+01
   9.458085e+01   2.033071e+01
   2.438705e+01   8.765497e+01
  -3.210787e+01   9.385479e+01
  -8.902693e+01   3.302276e+01
  -2.895669e+01  -5.245086e+01
  -7.510556e+00  -2.572897e+01
   2.367145e+01  -7.971891e+00
   2.194219e+01   4.866674e+00
   7.474212e+00   2.032564e+01
  -9.799222e+00  -3.225993e+00
   3.506785e+01  -4.026190e+01
   2.460666e+01   4.119184e+01
   3.151759e+01   2.811813e+01
  -2.120867e+01   4.602567e+01
  -9.007638e+01   3.439234e+01
  -1.014388e+02  -5.973834e+01
  -3.395847e+00  -9.542793e+01
  -3.299919e+00  -7.194464e+01
   4.338060e+01  -4.915678e+01
   5.197533e+01  -2.649007e+00
   5.071027e+01   2.724841e+01
   6.179236e+01  -3.912965e+00
   9.314337e+00  -3.826503e+01
   7.174013e+00   8.323655e+00
  -2.044375e+01   4.258021e+01
  -5.959660e+01   4.290148e+01
  -2.986966e+01  -2.107240e+01
   3.090893e+01  -3.914456e+01
   4.444330e+01  -3.991273e+01
   9.503950e+01   5.976868e+01
   3.453825e+01   9.129814e+01
  -3.963145e+01   4.433966e+01
  -8.614904e+01   7.051411e+01
  -1.458519e+02  -5.537985e+01
  -7.423004e+01  -5.746660e+01
  -1.597605e+00  -7.259506e+01
   4.721153e+01  -8.493199e+01
   2.573220e+01  -2.378573e+01
  -6.069106e+00  -1.086378e+02
  -2.752625e+00  -3.654070e+01
   8.270610e+01  -7.968742e+00
   9.483213e+01   3.677142e+01
   3.813669e+01   7.875297e+01
  -4.420405e+01   1.077402e+02
  -5.415764e+01   1.914128e+01
  -1.914640e+01  -3.248630e+01
   1.826544e+01  -5.674764e+01
   5.338217e+01  -2.337181e+01
   2.403957e+00  -2.204162e+01
  -1.468552e+01  -3.632145e-02
   5.640513e+00   1.552593e+00
   1.367435e+01  -2.050048e+01
   3.147879e+01   1.567071e+01
  -5.256672e+00   2.188343e+01
  -7.609865e+01  -1.336419e-01
  -9.275089e+01  -1.211492e+01
  -2.689060e+01   7.634068e+00
   1.254163e+01  -5.391294e+01
   6.328356e+01  -1.544929e+01
   6.820665e+01   4.464996e+00
   3.658434e+01  -6.679416e+00
  -6.316146e+01  -1.924858e+01
  -2.102904e+01   1.172709e+01
  -2.198745e+01  -2.676119e+01
  -5.006907e+00  -3.190840e+01
   3.956159e+01  -1.790996e+01
   1.119694e+01   1.394132e+01
  -6.173386e+00   1.860507e+01
   9.367571e-01  -4.686283e+00
  -3.174123e+01  -3.155362e+00
   1.241224e+01   2.381483e+01
  -1.565350e+01   7.363019e+01
  -1.156085e+01   9.096294e+01
  -5.257111e+01  -3.117388e+00
  -4.855343e+01  -8.195387e+01
  -1.887350e+01  -3.646432e+00
   4.481084e+00  -1.510226e+01
   5.254799e+01  -3.409638e+01
  -2.019979e+01  -1.628239e+01
  -1.178061e+01  -1.044955e+01
  -6.372938e+01  -3.621755e+01
   3.755219e+01  -5.661795e+01
   1.063865e+02  -3.444291e+01
   1.153535e+02   7.736569e+01
   2.520333e+01   3.830936e+01
   3.820418e-01   2.189410e+01
  -2.075920e+01   2.317541e+01
   1.718798e+01   3.871041e+00
   4.426954e+01  -2.962409e+00
   4.524568e+01   2.915338e+01
  -1.571145e+01   3.730849e+01
  -7.081825e+01   5.361738e+01
  -5.769844e+01  -3.123468e+01
  -6.145667e+01  -1.102463e+02
  -3.233205e+00  -9.011216e+01
   2.665835e+01  -1.241141e+01
   5.244755e+01   5.370243e+01
  -4.645309e-01   5.672965e+01
  -8.365121e+00  -1.737502e-01
   1.105807e+01  -1.443009e+01
  -2.036457e+01  -1.412972e+01
   3.124929e+01   3.464897e+01
   1.675203e+00  -2.005037e+01
  -7.565865e+01   3.111695e-01
  -4.668509e+01  -3.937778e+01
   2.671415e+01   3.118877e+00
   6.185160e+01   2.223146e+01
   3.893190e+01   3.545492e+00
   3.808892e+01   4.318748e+00
  -6.102007e+01   8.046793e+00
  -6.313647e+01  -2.308228e+01
  -1.497502e+01  -1.355211e+01
   9.160133e+00  -3.920001e+00
   5.075945e+00   7.553735e+00
   2.803202e+01  -1.085390e+01
   6.897470e+01   4.166082e+00
   3.025676e+01  -4.430655e+00
   6.412764e+01   5.506142e+01
  -1.995828e+00   8.394108e+01
  -5.962791e+01   7.002882e+01
  -1.057771e+02   5.005446e+01
  -5.294243e+01  -4.228924e+01
   2.257993e+01  -6.953045e+01
   4.559117e+01  -8.299754e+01
   2.346445e+01  -5.469232e+01
   3.309985e+01  -2.005880e+01
  -2.160130e+01  -5.048210e-01
   1.317680e+01  -1.605449e+01
   3.774241e+01  -1.977944e+01
   3.601603e+01   4.661702e+01
   2.586888e+01   5.177407e+01
   7.737190e+00   8.164250e+01
  -5.875363e+01   2.083721e+01
  -2.880195e+01  -5.282953e+01
   3.220867e+00  -5.044301e+01
   3.129483e+01   9.466450e+00
   3.011303e+01   6.034457e+01
   2.914555e+01   5.702448e+01
  -2.443728e+01   5.615933e+01
  -4.633219e+01   2.470174e+01
  -2.904392e+01  -1.120314e+01
   2.904083e+01  -1.197571e+01
   1.059115e+01  -3.301089e+00
  -1.903224e+01   1.792704e+01
  -5.483506e+01  -5.090297e+00
  -3.387456e+01   4.456877e+01
   5.217195e+01  -6.837015e+01
   1.748284e+01  -3.576339e+01
   3.522264e+01  -1.172230e+01
   2.152112e+01   5.731158e+01
  -2.609961e+01   2.078488e+01
  -2.158583e+01   2.292508e+00
   2.663648e+00  -4.189232e+01
   1.011543e+01  -6.600292e+01
   9.720293e+00   8.912845e+00
   2.699761e+01   4.226190e+01
  -8.443001e+00   3.148674e+01
   8.952065e+00  -1.327932e+01
  -2.311398e+01  -1.783666e+01
  -2.745472e+01   1.188191e+01
  -2.866858e+00   3.538636e+01
  -2.167496e+01   6.303438e+00
  -3.048296e+00  -5.515842e+01
   5.084957e+00  -4.231249e+01
  -2.998965e+00  -1.849765e+01
  -1.272231e+01   4.683189e+00
   4.779696e+00   6.081033e+01
   1.085089e+00  -2.914272e+01
  -3.115664e+01  -3.788378e+00
   3.579833e+00  -2.540651e+01
   3.244556e+00  -3.050233e+01
   4.014564e+01   2.573649e+00
  -2.574268e+01   3.571313e+01
   2.355479e+01  -1.385269e+01
  -2.272470e+01   2.925998e-01
  -1.665233e+01  -2.048150e+01
   2.670811e+01   1.426138e+01
   2.010891e+00   8.943233e+00
  -1.000324e+01  -2.782778e+01
  -2.671310e+01   1.080926e+01
