
 $NMID
 id='ANONYMOUS ', fmtdat='(2E16.6)'
 volume=1.0
 tramp=1.0
 $END
   1.894565e+03   6.589633e+01
   1.451537e+03   1.038138e+03
   2.618683e+02   1.204938e+03
  -4.915367e+02   9.820403e+02
  -6.522802e+02   3.193643e+02
  -1.400590e+02  -7.381788e+01
   1.868645e+02  -1.092123e+02
   8.442006e+01   2.822412e+02
  -1.411192e+02   3.473718e+02
  -2.808071e+02   1.535368e+02
  -3.128654e+02  -2.461616e+02
  -1.353280e+02  -3.454510e+02
   1.398732e+02  -1.732445e+02
   1.510480e+02   1.512618e+02
  -3.211000e+01   3.374000e+02
  -1.500658e+02   5.923675e+01
  -2.525760e+02  -2.893503e+02
   3.869863e+01  -4.242386e+02
   2.562203e+02  -2.222246e+02
   2.642196e+02  -1.621455e+01
   1.339301e+02   1.580674e+02
  -6.362983e+00   1.737232e+02
   8.918781e+00   1.684381e+02
   5.694661e+01   1.128183e+02
   1.632629e+02   2.048832e+02
  -4.911759e+01   2.050577e+02
  -2.505484e+02   7.105912e+00
  -3.146554e+02  -1.659373e+02
  -1.145288e+02  -1.879423e+02
   1.203960e+02  -5.232588e+01
   2.456492e+02   1.436200e+02
   7.469048e+01   1.620432e+02
  -1.167046e+02   2.037633e+02
  -2.359054e+02   1.200707e+02
  -2.431985e+02  -3.215359e+01
  -1.096674e+02  -1.702923e+02
  -8.957435e+01  -1.069662e+02
  -3.325411e+01   3.304111e+00
  -7.583005e+01   1.947554e+01
  -1.014970e+02  -6.886418e+01
  -8.314455e+00  -3.332761e+02
   1.331765e+02  -3.295089e+02
   1.685961e+02  -1.180909e+01
   9.838577e+01   2.024958e+02
  -4.631764e+01   9.403185e+01
  -1.053124e+02  -1.723016e+02
   8.165522e+01  -2.117994e+02
   3.060219e+02   1.243148e+01
   3.484858e+02   1.897451e+02
   7.979104e+01   2.722230e+02
  -1.889719e+02   1.874471e+02
  -3.185014e+02   9.629087e+00
  -2.469201e+02  -1.732415e+02
  -1.921735e+01  -1.256259e+02
   1.873533e+02  -7.906067e+01
   1.563393e+02   1.329939e+01
   3.246625e+01  -6.076779e+00
  -3.838824e+01  -4.074494e+01
   3.557284e+01  -3.696170e+01
   1.418029e+02  -2.369316e+01
   4.196699e+01   1.082310e+02
  -8.724988e+01   1.914035e+02
  -1.525170e+02   1.228046e+02
  -1.808794e+02  -5.754976e+01
   3.528042e+00  -2.103558e+02
   1.907610e+02  -2.106485e+02
   3.272678e+02  -1.447004e+02
   1.836977e+02   1.050317e+02
   6.659440e+01   2.478891e+02
   6.755095e+00   1.894248e+02
   1.217755e+01   1.343443e+02
  -1.958338e+01   1.245705e+02
  -1.254317e+02   7.778052e+01
  -2.118229e+02   1.804372e+01
  -1.270250e+02  -7.821966e+01
   1.127623e+01  -1.806154e+02
   3.230912e+01  -8.095937e+01
   6.353111e+01   2.406708e+01
   6.707378e+01   1.396893e+02
  -1.634482e+01   1.763085e+02
  -2.242095e+02   3.413995e+01
  -1.727429e+02  -7.651015e+01
  -1.240941e+02  -1.808475e+02
  -6.628361e-01  -1.403375e+02
   8.378520e+01  -1.182684e+02
   1.117002e+02  -7.995889e+01
   7.145767e+01  -6.127240e+01
   1.971656e+02  -2.557941e+01
   3.014460e+02   5.512324e+01
   2.059974e+02   1.719808e+02
   1.591771e+01   2.678371e+02
  -2.716583e+02   2.523876e+02
  -2.745198e+02   1.522758e+02
  -1.936141e+02  -2.964104e+01
  -1.777172e+01  -1.088464e+02
   4.763280e+01  -1.307006e+02
  -1.483093e+01  -4.393497e+01
  -7.299096e+01   3.076154e+01
  -4.696684e+01  -2.964212e+01
  -2.506264e+01  -6.432563e+01
   3.392384e+01  -9.083191e+01
   5.390803e+01   3.780860e+00
   4.108001e+01   7.655350e+01
  -9.266159e+01  -4.116929e+00
  -4.602615e+01  -1.425743e+02
  -7.144877e-01  -2.453603e+02
   1.413064e+02  -1.617364e+02
   2.457764e+02   3.521986e+01
   1.802102e+02   1.630651e+02
   9.720926e+01   2.018710e+02
  -6.344269e+01   1.231099e+02
  -9.756817e+01   6.694054e+00
  -7.163238e+01  -2.685301e+01
   7.638958e+01  -3.664199e-02
  -1.758557e+01   6.895599e+01
  -7.124620e+01   3.654723e+01
  -9.468966e+01   6.057030e+00
  -3.293962e+01  -4.085182e+01
   5.382456e+01  -2.805359e+01
   4.192809e+00   4.987630e+01
  -1.136578e+02   4.253631e+01
  -1.345599e+02   1.681012e+01
  -1.856250e+02  -8.906342e+01
  -1.215547e+01  -1.541827e+02
   1.149954e+02  -1.081951e+02
   1.797981e+02  -6.629187e+01
   6.219906e+01   1.149435e+01
  -2.051591e+01   4.056804e+01
  -2.112271e+01  -1.910866e+01
   2.306598e+01  -5.783626e+01
   9.958215e+01  -3.990116e+01
   1.702204e+02   2.972661e+01
   7.503005e+01   9.457559e+01
  -3.465030e+01   1.217530e+02
  -6.780177e+01  -3.079924e+01
  -6.338605e+00  -3.102570e+01
  -6.321124e+00   5.246744e+01
  -2.467073e+00   6.479674e+01
  -2.771881e+01   8.555190e+01
  -1.457836e+02  -8.953678e+00
  -1.283773e+02  -9.380495e+01
  -4.193412e+01  -1.137764e+02
   8.564920e+01  -1.055383e+02
   1.097854e+02  -8.677000e+00
   3.921098e+01   5.362343e+01
  -8.369208e+00   5.236415e+01
  -3.345686e+01   2.668816e+01
  -1.407220e+01  -5.892673e+00
  -1.217249e+01   2.743132e+01
  -3.788212e+01  -8.287412e+00
  -2.924769e+01  -3.306619e+00
  -6.235684e+01  -4.150605e+01
  -2.749073e+01  -1.255685e+02
   7.937773e+01  -1.181668e+02
   1.433485e+02  -4.701909e+01
   1.218350e+02   6.830606e+01
   2.427246e+01   1.506105e+02
  -4.653355e+01   1.444600e+02
  -8.809824e+01   2.321802e+01
  -4.883118e+01  -2.063089e+01
  -4.278457e+01  -2.952259e+01
  -5.863528e+01  -1.565041e+01
  -2.322234e+01  -2.993683e+00
  -1.926601e+00  -1.887155e+01
   3.262394e+01  -1.188179e+02
   7.776777e+01  -1.646327e+01
   7.181310e+01   4.485073e+01
  -2.331329e+01   6.131336e+01
  -1.162803e+02   3.321586e+01
  -1.142607e+02  -3.397916e+01
  -5.647412e+01  -1.018599e+02
   6.493198e+01  -1.539827e+02
   1.689743e+02  -2.952769e+01
   1.812244e+02   1.156827e+01
   7.698932e+01   1.234787e+02
  -1.014671e+01   7.725091e+01
  -6.945888e+01   7.778558e+01
  -3.181153e+01   6.601214e+01
  -4.942267e+01   5.979331e+01
  -7.036380e+01   2.141231e+00
  -1.092463e+02  -1.324824e+01
  -5.844693e+01  -9.003361e+01
  -1.315614e+01  -9.777721e+01
   2.304696e+01  -9.984597e+01
   4.418895e+01  -5.157693e+01
   8.611756e+01   8.223609e+01
   6.151609e+01   9.004535e+01
  -2.378101e+01   2.635074e+01
  -7.917262e+01  -1.986293e+00
  -1.387881e+01  -3.889572e+01
   1.311759e+01  -2.251217e+00
   1.084872e+01  -8.489979e+00
  -5.578837e+01   3.146199e+00
  -9.003421e+01  -2.779620e+01
   5.840442e+01  -3.251896e+00
   1.141014e+02   2.382884e+01
   8.542492e+01   2.993704e+01
  -3.467527e+01   6.679491e+01
  -7.696403e+01   4.097443e+01
  -7.018041e+01  -8.178803e-01
  -3.803843e+01  -1.498453e+01
  -1.101591e+01  -1.407570e+01
   5.464040e+01   2.274699e+01
   1.560522e+01   6.143651e+01
  -3.412268e+01   1.684001e+01
  -5.072347e+01  -2.304754e+00
  -1.805025e+01  -8.275868e-01
  -7.091529e+01  -7.932594e+01
  -4.578681e+01   2.603579e+00
  -4.682622e+01  -1.867767e+01
  -3.518851e+01  -6.785166e+01
   4.599437e+01  -8.677920e+01
   6.363329e+01  -9.757196e+01
   1.480461e+02   1.094951e+01
   8.513602e+01   8.249326e+01
  -4.517305e+01   6.688975e+01
  -1.262863e+01   2.348400e+01
  -3.759866e+01   1.285628e+01
   3.932166e+01  -1.148761e+01
   6.572169e+01   1.523360e+01
   4.192180e+01   4.897973e+01
  -5.724809e+01   8.604819e+01
  -1.350593e+02   4.860684e+01
  -8.998641e+01  -4.684248e+01
   1.287069e+01  -8.102701e+01
   5.444074e+01   6.185948e+00
   3.750498e+00   9.617205e+00
  -4.937910e+00   4.229900e+01
  -5.982722e+01  -1.088000e-01
  -3.174993e+01  -4.667021e+01
   6.287413e+01  -6.577554e+01
   1.080277e+02  -6.474193e+01
   8.202200e+01   2.037299e+01
   1.183737e+01   8.889928e+01
  -6.483856e+01   1.150149e+02
  -6.535589e+01   3.809715e+01
  -3.935637e+01  -1.170763e+02
   1.906685e+01  -6.767531e+01
   1.226148e+01  -1.990600e+01
   4.051598e+01  -5.078669e+00
   1.746444e+01   5.679781e+00
  -1.124126e+01  -2.578501e+01
   5.653912e+01   3.848564e+00
   5.289616e+01   5.440371e+01
  -2.878321e+01   7.374371e+01
  -2.427862e+01   4.306408e+01
  -1.101551e+02   8.862036e+00
  -4.967499e+01  -4.112447e+01
  -3.188787e+01  -5.097419e+01
   2.693041e+01  -8.072434e+00
   3.505197e+01   3.475754e+01
  -5.733926e+00  -3.270408e+00
  -1.800976e+01   9.314620e+00
  -3.293425e+01  -9.920456e+00
  -4.966876e+00   1.089554e+01
  -3.088053e+01  -1.463257e+01
  -3.858792e+01   1.335384e+01
  -6.125238e+01  -2.985465e+01
   1.614176e+01  -7.826086e+01
   1.110401e+02  -7.153467e+01
   1.027269e+02  -2.128470e+01
   1.090463e+02   2.178611e+01
   2.543407e+01   5.663133e+01
  -5.188014e+01   1.072727e+02
  -4.907614e+01   9.253541e+01
  -3.822119e+01   2.563147e+01
  -4.680273e+01  -8.084747e+00
  -3.441863e+01  -1.407839e+01
   7.052787e+00   4.787135e+00
  -4.623378e+00  -3.873157e+01
   6.039398e+01  -8.699692e+01
   2.133666e+01  -2.020677e+01
   1.947164e+01   3.856836e+01
   5.314120e+01   8.618281e+01
   2.116287e+01   5.887342e+01
  -4.985712e+01   1.482572e+01
  -6.838778e+01   2.396617e+00
  -4.192157e+01  -9.146295e+01
   6.596890e+00  -1.475470e+01
   8.990065e+01  -3.035625e+01
   1.333027e+01   1.674157e+01
   1.625238e+01   3.956171e+01
   8.288476e+00  -2.499399e+01
   1.147962e+01  -2.330322e+01
   5.028981e+01   9.352135e+00
   4.163513e+00   2.429368e+01
  -5.024452e+01   4.804802e-02
  -8.536353e+01   4.399334e+01
  -3.182113e+01  -6.177569e+00
  -2.121178e+00  -5.569023e+01
   6.307060e+01  -3.669173e+01
   4.222401e+01  -4.624215e+01
   4.305822e+01   6.294550e+01
  -2.803527e+01   2.770932e+01
  -1.137695e+01  -2.605979e+01
  -2.414841e+01   2.898974e+01
  -2.715609e+01   2.579394e+00
   9.995329e+00  -3.662567e+01
   7.391551e+01   2.662294e+00
   4.676745e+00  -1.399690e+01
   1.707263e+01  -2.222561e+00
  -4.874479e+01  -9.279270e+00
  -4.150957e-01   3.990693e+01
   1.194299e+01   4.538640e+01
   2.112309e+01  -1.330611e+01
  -4.277371e+01  -5.275642e+01
  -8.608799e+00  -5.543899e+01
   3.171434e+01   6.589650e+00
   3.767266e+01   7.058214e+01
   9.524612e+00   5.196941e+01
  -3.717714e+01   6.305813e+01
  -3.387480e+01   2.437146e+01
  -3.031705e+01  -2.704152e+01
   6.995198e+01   1.413287e+01
   5.218710e+01  -2.184038e+00
   2.363145e+01  -1.673794e+00
  -2.817043e+01   1.379506e+01
  -3.764235e+01  -7.811989e+00
   1.216566e+01  -2.565742e+01
   3.767686e+01  -1.412079e+01
