
 $NMID
 id='ANONYMOUS ', fmtdat='(2E16.6)'
 volume=1.0
 tramp=1.0
 $END
  -2.791594e+03  -3.052486e+02
  -1.446090e+03  -1.370398e+03
  -1.608160e+02  -1.821329e+03
   1.081472e+03  -1.230934e+03
   1.030695e+03  -4.181053e+02
   1.650864e+02   1.829014e+02
  -2.723172e+02   1.679871e+02
  -1.087941e+02  -3.589763e+02
   2.869794e+02  -6.205945e+02
   5.381368e+02  -1.868608e+02
   4.593116e+02   3.774259e+02
   9.073902e+01   5.707188e+02
  -2.585258e+02   1.471744e+02
  -2.399274e+02  -3.220301e+02
  -2.363016e+01  -5.274572e+02
   2.911408e+02  -1.308474e+02
   3.253863e+02   4.053406e+02
  -1.608708e-01   5.232517e+02
  -3.644771e+02   3.533442e+02
  -4.091592e+02  -1.995340e+01
  -1.656825e+02  -3.106177e+02
   1.243472e+02  -2.388384e+02
   4.995859e+01  -1.001324e+02
  -1.978581e+02  -1.015597e+02
  -2.213140e+02  -2.723473e+02
   3.268973e+01  -3.259119e+02
   3.602630e+02  -1.638954e+02
   5.643336e+02   1.227070e+02
   1.951032e+02   3.201065e+02
  -2.423918e+02   1.426037e+02
  -3.751409e+02  -1.311647e+02
  -7.919902e+01  -3.084247e+02
   1.915681e+02  -2.918218e+02
   4.112815e+02  -8.315885e+01
   2.948576e+02   1.670989e+02
   1.042246e+02   2.293535e+02
   5.043454e+01   1.401530e+02
   1.014575e+02  -5.123270e+01
   1.667620e+02  -1.068815e+02
   1.317923e+02   1.711265e+02
   4.407149e+00   4.310738e+02
  -1.881045e+02   3.991419e+02
  -2.547527e+02  -1.483517e+01
  -4.393973e+01  -2.456496e+02
   1.320308e+02  -7.937227e+01
   1.582011e+02   2.388360e+02
  -1.141337e+02   3.144609e+02
  -3.948786e+02   7.564191e+01
  -4.748075e+02  -2.387910e+02
  -2.259120e+02  -4.282860e+02
   2.633170e+02  -2.488293e+02
   4.141677e+02   3.718497e+01
   2.987658e+02   1.611686e+02
  -1.424512e+01   1.657293e+02
  -2.947615e+02   9.931038e+01
  -1.773524e+02  -1.794312e+00
  -2.178835e+01  -3.824341e+01
   7.531649e+01   5.866697e+01
  -9.423918e+01   3.251469e+01
  -1.615554e+02  -4.670663e+00
  -1.234499e+02  -1.479036e+02
   1.151863e+02  -2.577374e+02
   3.020404e+02  -1.886325e+02
   2.472849e+02   8.139830e+01
  -4.895451e+00   3.303985e+02
  -2.740969e+02   3.397347e+02
  -3.480047e+02   1.610685e+02
  -2.057307e+02  -1.544989e+02
  -7.293720e+01  -3.076575e+02
   1.003195e+01  -2.301934e+02
   5.039100e+00  -1.629617e+02
  -2.800059e+01  -1.009342e+02
   1.436528e+02  -1.481661e+02
   2.278533e+02  -8.141354e+01
   2.492579e+02   8.562282e+01
   8.408443e+01   2.398141e+02
  -7.485198e+01   2.109688e+02
  -1.695113e+02  -7.461482e+01
  -1.128294e+02  -2.416565e+02
   2.816304e+01  -2.423639e+02
   1.883830e+02  -4.836647e+01
   2.582531e+02   1.058750e+02
   1.666542e+02   2.704468e+02
  -4.183901e+01   2.233584e+02
  -1.002948e+02   1.372938e+02
  -1.066340e+02   6.663784e+01
  -7.825496e+01   7.446798e+01
  -2.051823e+02   4.850537e+01
  -3.651291e+02  -4.797174e+01
  -2.753474e+02  -2.755194e+02
   9.736567e+00  -3.962448e+02
   3.627238e+02  -3.471885e+02
   4.105673e+02  -2.212147e+02
   2.499808e+02   1.013712e+02
   4.529725e+01   2.218605e+02
  -8.320474e+01   1.145748e+02
  -8.627053e-01  -8.568993e+00
   1.510589e+02  -3.502093e+01
   8.494960e+01   3.428623e+01
  -5.491809e-01   1.630785e+02
  -1.309669e+02   7.820264e+01
  -9.372383e+01  -2.407416e+01
   3.903839e+01  -9.678538e+01
   1.498296e+02   3.472409e+01
   1.211207e+02   1.982121e+02
  -6.840885e+01   3.068321e+02
  -2.197214e+02   2.067800e+02
  -3.241970e+02  -1.911718e+01
  -2.722126e+02  -2.794668e+02
  -7.063326e+01  -2.781138e+02
   1.689742e+02  -1.351114e+02
   1.429616e+02   1.938614e+00
  -2.950003e+01   3.615642e+01
  -6.993958e+01  -1.105167e+02
   7.872493e+00  -8.490001e+01
   1.074522e+02  -6.487577e+01
   1.373377e+02   3.262936e+01
   1.432889e+01   1.013453e+01
  -8.730672e+01  -1.036362e+01
  -4.665251e+01  -1.444980e+02
   1.351518e+02  -7.092526e+01
   3.083719e+02  -7.065300e+00
   2.452229e+02   1.652628e+02
   4.391138e+01   2.510312e+02
  -1.685333e+02   2.430496e+02
  -2.220211e+02   7.466522e+01
  -9.799085e+01  -3.815216e+01
   1.913894e+01  -4.438018e+01
   2.892941e+01  -4.224488e-01
  -1.058897e+02   6.161099e+01
  -1.487824e+02   5.312220e+01
  -1.885436e+02  -1.086098e+02
  -4.539044e+01  -1.366914e+02
   7.501907e+01  -1.301104e+02
   1.457612e+02  -2.892093e+01
   2.575706e+01   5.623683e+01
  -7.718168e+01  -4.272370e+01
  -3.567181e+01  -1.075298e+02
   9.163453e+01  -1.152655e+02
   2.062395e+02  -1.522395e+00
   1.668646e+02   1.410125e+02
   3.945022e+01   1.709215e+02
  -1.200507e+02   1.663160e+02
  -1.354742e+02   4.705143e+00
  -3.919167e+01  -8.438995e+01
   4.868854e+01  -9.566256e+01
   1.062714e+02  -7.420393e+00
  -6.388749e-01   3.937955e+01
  -2.785674e+01   2.075218e+01
  -3.747819e+01  -5.500921e+01
   1.364169e+02  -3.269738e+01
   8.768577e+01   5.745340e+01
   2.844806e+01   1.813621e+02
  -1.510059e+02   1.549719e+02
  -2.119540e+02   6.503192e+00
  -2.021659e+02  -1.233832e+02
  -6.840022e+00  -2.371076e+02
   9.522978e+01  -1.428390e+02
   1.267991e+02  -8.754830e+00
   8.619975e+01   8.098501e+01
   3.990510e+01   3.598185e+01
   4.194384e+01  -2.482810e+01
   3.643448e+01  -1.504257e+01
   3.641178e+01   8.336357e+00
  -5.290462e+01   1.005206e+02
  -8.384631e+01   7.360108e+01
  -1.160298e+02  -3.566936e+01
   3.255488e+01  -1.200099e+02
   1.478618e+02  -8.734078e+01
   1.960740e+02   3.198623e+01
   5.015554e+01   1.629290e+02
  -1.120021e+02   2.085307e+02
  -2.706348e+02   7.639568e+01
  -2.565623e+02  -6.948000e+01
  -1.142765e+02  -1.631628e+02
   5.134374e+01  -1.341774e+02
   3.960147e+01  -8.332370e+01
   6.603120e+01  -7.467819e+01
   5.810207e+01  -5.696239e+01
   1.005060e+02  -7.831540e+01
   9.924144e+01   3.837193e+00
   8.692653e+01   1.501672e+02
   3.031199e+01   1.810902e+02
  -1.183731e+02   1.274403e+02
  -1.827711e+02  -5.646681e+00
  -1.393691e+02  -1.132610e+02
  -3.552270e+00  -1.336673e+02
   7.020765e+01  -9.763686e+01
   7.105971e+01   1.371392e+01
   4.651347e+00   2.650556e+01
  -2.795130e+01   3.752642e+01
   6.624851e+00   1.916043e+01
   9.477902e+01   3.134386e+00
   4.418976e+01   3.588785e+01
  -2.322908e+01   7.182276e+01
  -1.382712e+02  -1.422087e+01
  -8.438467e+01  -6.929322e+01
  -1.162251e+01  -6.324451e+01
   1.155686e+02  -8.790941e+01
   1.313288e+02   1.552895e+01
   5.144810e+01   3.545844e+01
  -2.091458e+01   9.941616e+01
  -4.931784e+01  -3.748117e+01
  -2.728787e+01  -3.517831e+01
   4.115763e+01  -6.182566e+01
   5.413158e+01  -2.508284e+01
   9.337480e+01   4.095244e+01
   3.672186e+01   5.308849e+01
   6.143201e+01   2.021907e+01
   3.270072e+01   2.341409e+01
   6.655929e+01   6.982496e+01
   4.771953e+00   1.477127e+02
  -1.024036e+02   1.201360e+02
  -1.479899e+02   5.737020e+01
  -1.117413e+02  -5.896798e+01
   1.465810e+00  -1.473410e+02
   6.089355e+01  -3.868248e+01
   3.365957e+01   2.140613e+01
  -5.427449e+01   7.198996e+00
  -1.213198e+02  -6.674119e+01
  -5.767966e+01  -9.374062e+01
   6.662244e+01  -1.012864e+02
   1.703286e+02  -6.902808e+00
   1.543052e+02   5.158330e+01
   4.427299e+01   9.107740e+01
  -5.361402e+01   1.043906e+01
  -6.361850e+01  -3.681804e-01
   6.912625e+01  -7.050435e+00
   8.839265e+01   2.790523e+00
   3.337814e+01   1.131074e+02
  -5.534661e+01   1.602119e+02
  -1.544132e+02   9.005597e+01
  -7.344241e+01  -8.203544e+01
  -3.594482e+01  -1.699136e+02
   8.722316e+01  -1.309834e+02
   8.970386e+01   1.788100e+01
   5.734166e+01   1.264744e+02
  -7.975370e+00   8.635131e+01
   8.292239e+00   3.225863e+01
  -2.012572e+01   1.386709e+01
  -3.584251e+01  -9.855882e+00
  -2.644253e+01   3.781027e+01
  -6.544316e+01  -6.650651e+00
  -5.826432e+01  -9.318105e+01
  -3.773212e+01  -1.162532e+02
   5.216907e+01  -5.855261e+01
   1.235099e+02   3.419986e+01
   1.435838e+02   7.237877e+01
   2.616808e+01   3.099362e+01
  -4.644884e+01   2.853214e+01
  -5.532588e+01   2.149787e+01
  -2.718256e+01  -4.940057e+01
  -1.138972e+00  -1.970817e+01
   1.494783e+01  -1.629133e+00
   1.866092e+01   3.734541e+01
  -1.339189e+01  -9.386486e-01
   3.260185e+01   2.297551e+01
   9.787148e+01   1.631108e+01
   2.542645e+01   4.750307e+01
  -1.310347e+02   9.692683e+01
  -1.299057e+02   4.698288e+01
  -1.401186e+02  -3.146797e+01
  -5.265154e+01  -1.353189e+02
   7.841392e+01  -1.324277e+02
   1.223901e+02  -9.399072e+01
   5.533338e+01  -6.009111e+00
   4.639690e+01   5.141047e+01
   3.830213e+01   1.221364e+01
   3.401118e+01  -3.809367e+00
   3.712656e+01   4.192087e+01
   3.686309e+01   1.293883e+02
  -5.987104e+01   5.144847e+01
  -1.165691e+02  -2.574613e+01
  -8.295786e+01  -9.787113e+01
  -3.272558e+01  -1.625914e+02
   9.618978e+01  -5.218024e+01
   8.102216e+01   6.789664e+01
   2.751561e+01   8.151116e+01
  -6.328368e+01   7.909179e+01
  -1.299396e+02   1.779872e+01
  -6.832452e+01  -7.734367e+01
   1.150157e+01  -8.852869e+01
   3.589729e+01  -1.214269e+01
   1.555423e+01   1.808872e+01
  -8.870702e+01   3.561138e+01
   1.900326e+00  -3.059969e+01
   5.822253e+01  -4.792826e+01
   1.334556e+02  -5.351815e+01
   6.864634e+01  -1.651066e+01
  -9.550128e+00   6.238996e+01
  -8.114398e+01   8.083756e+01
  -3.879014e+01   7.479786e-01
   1.502251e+01  -4.547574e+01
   1.845122e+01  -7.599538e+01
   6.753615e+01   4.160906e+00
   5.644557e+01   6.795496e+01
  -1.859563e+01   4.949965e+01
  -4.812451e+01  -3.642627e+00
  -7.016682e+01  -1.560720e+01
   1.818653e+01  -6.622445e-01
  -1.870175e+01   1.190830e+01
  -2.852279e+01   7.080954e+00
  -2.717166e+01  -5.648319e+01
  -1.726525e+01  -7.744177e+01
   3.354665e+01  -4.096351e+01
   5.473488e+01   6.449359e+01
   3.745159e+01   4.580030e+01
  -3.953255e+01   3.796421e+01
  -3.716983e+01  -4.533055e+01
  -5.134007e+01  -4.229848e+01
   7.786572e+01  -5.159839e+01
   9.554330e+01  -1.511751e+01
   3.117908e+01   4.788195e+00
  -3.386806e+01   5.956518e+01
  -9.456307e+01   4.826418e+01
  -4.348360e+01  -9.447945e+00
  -6.026458e+00  -1.326798e+01
   4.644432e+01  -5.525378e+00
  -4.115389e+01   5.123425e+01
  -6.731739e+01   2.748299e+01
