
 $NMID
 id='ANONYMOUS ', fmtdat='(2E16.6)'
 volume=1.0
 tramp=1.0
 $END
   2.291530e+03   9.971358e+01
   1.384766e+03   1.135074e+03
   1.444654e+02   1.581528e+03
  -8.805114e+02   1.201670e+03
  -8.024214e+02   3.824714e+02
  -1.854496e+02  -1.247711e+02
   3.026165e+02  -9.027454e+01
   1.664626e+02   3.035056e+02
  -2.490431e+02   4.305121e+02
  -4.207057e+02   1.144223e+02
  -3.766914e+02  -3.391085e+02
  -1.113871e+02  -4.996365e+02
   1.752361e+02  -1.482227e+02
   2.621186e+02   2.763956e+02
  -1.214589e+01   4.220515e+02
  -2.985358e+02   7.352701e+01
  -2.294917e+02  -3.328461e+02
   8.885429e+01  -4.876968e+02
   3.956514e+02  -2.370034e+02
   3.505375e+02   6.377920e+01
   1.429709e+02   2.739844e+02
  -5.431158e+01   1.875789e+02
  -2.470811e+01   8.675788e+01
   1.462963e+02   1.509266e+02
   2.071569e+02   2.681737e+02
  -5.381743e+01   3.178888e+02
  -3.249162e+02   1.279381e+02
  -4.497700e+02  -1.835900e+02
  -9.648115e+01  -2.465705e+02
   2.640416e+02  -1.347621e+02
   3.428037e+02   8.327995e+01
   1.376388e+02   2.320480e+02
  -1.741561e+02   2.379352e+02
  -2.857194e+02   4.577125e+01
  -1.895845e+02  -1.002380e+02
  -6.182848e+01  -1.617187e+02
   6.708673e+00  -9.507240e+01
  -7.474004e+01   5.855713e+01
  -1.423106e+02   5.732500e+01
  -1.024898e+02  -1.884800e+02
   5.986213e+01  -4.310054e+02
   2.030530e+02  -3.683309e+02
   1.955497e+02   3.432780e+01
   6.390961e+01   2.060249e+02
  -1.233916e+02   1.000003e+02
  -7.769674e+01  -2.139989e+02
   1.507665e+02  -2.908072e+02
   3.354435e+02  -6.798325e+00
   3.669215e+02   2.759748e+02
   1.464142e+02   3.406075e+02
  -2.099098e+02   2.125513e+02
  -3.620693e+02  -3.804210e+01
  -2.724926e+02  -1.470225e+02
   2.402261e+01  -1.348429e+02
   2.697201e+02  -3.829139e+01
   1.356414e+02  -5.219560e+01
   1.087960e+01   1.665911e+01
  -4.791244e+01  -1.404158e+01
   7.280120e+01  -3.026468e+01
   1.721080e+02  -6.916851e+00
   1.572485e+02   1.056523e+02
  -1.298132e+02   1.955801e+02
  -3.276814e+02   7.720527e+01
  -2.023252e+02  -7.412476e+01
   4.329098e+01  -3.164071e+02
   2.397360e+02  -2.983082e+02
   3.146213e+02  -9.379998e+01
   1.526362e+02   1.116889e+02
   4.053650e+01   2.991230e+02
   3.177729e+01   1.719454e+02
  -1.606420e+01   1.390394e+02
   3.246526e+00   9.135539e+01
  -1.152986e+02   9.980320e+01
  -2.270430e+02  -1.001679e+01
  -2.077692e+02  -1.102623e+02
  -7.297747e+01  -2.135491e+02
   1.009715e+02  -1.358504e+02
   1.266070e+02   1.470559e+01
   7.654058e+01   1.984374e+02
  -2.947712e+01   1.615982e+02
  -1.787496e+02   7.872944e+01
  -2.510269e+02  -9.800551e+01
  -1.153401e+02  -2.619549e+02
  -2.365385e+01  -1.356529e+02
   5.406905e+01  -1.398788e+02
   1.178776e+02  -7.155597e+01
   1.011370e+02  -6.596632e+01
   2.028727e+02  -8.924991e+01
   2.726690e+02   9.603133e+01
   2.612517e+02   2.763268e+02
   3.988916e+01   3.711477e+02
  -3.322999e+02   3.160511e+02
  -3.487659e+02   2.120120e+02
  -2.637496e+02  -1.109074e+02
   1.848865e+00  -1.262410e+02
   5.546187e+01  -1.094774e+02
  -1.650436e+01  -1.164019e+01
  -1.100220e+02  -2.461425e+01
  -1.128759e+02  -6.474011e+01
  -6.561743e+00  -1.277211e+02
   6.625841e+01  -5.489416e+01
   5.425328e+01   8.583094e+01
  -3.483184e+01   1.025169e+02
  -1.371461e+02  -2.680812e+01
  -1.078592e+02  -1.517065e+02
   5.963225e+01  -2.247340e+02
   1.894163e+02  -1.652451e+02
   2.590988e+02   5.435000e+01
   1.845183e+02   2.181442e+02
  -7.111750e+00   1.752549e+02
  -1.116644e+02   8.992310e+01
  -1.035821e+02  -2.275799e+01
  -1.628820e+01   1.903544e-01
   5.559913e+01   7.113929e+01
   1.149861e+01   7.086019e+01
  -1.379151e+02   4.527590e+01
  -1.284446e+02  -5.510863e+01
  -4.122510e+00  -6.084240e+01
   7.656896e+01   2.320484e+01
   3.389812e+01   9.039254e+01
  -1.191197e+02   1.070816e+02
  -2.330757e+02  -4.949548e+01
  -2.286134e+02  -1.584119e+02
  -3.875331e+00  -2.000959e+02
   1.746622e+02  -1.928157e+02
   2.009641e+02  -1.013291e+02
   1.150461e+02   3.144510e+01
  -3.338523e+01   6.255263e+01
   2.070394e+01  -3.953043e+01
   8.530533e+01  -5.111520e+01
   1.628168e+02  -2.461000e+01
   1.404459e+02   8.821762e+01
   4.399055e+01   1.099385e+02
  -7.585445e+01   8.405867e+01
  -6.843746e+01   5.273888e+01
  -4.494907e+01  -5.577880e+01
   2.916809e+01   3.615491e+01
   3.023029e+01   1.111634e+02
  -6.211176e+01   1.159654e+02
  -2.283714e+02   4.424204e+01
  -1.474376e+02  -1.073954e+02
   2.466203e+00  -1.907449e+02
   1.614042e+02  -9.838991e+01
   1.394147e+02   8.075897e+00
   2.800882e+01   1.044870e+02
  -1.673115e+01   4.818637e+01
  -3.773269e+01   4.855877e+01
  -2.635944e+01  -1.995704e+01
  -3.035091e+00  -8.205311e+01
   2.972748e+01   2.282401e+01
  -6.901831e+01   2.772474e+00
  -6.719885e+01  -6.237078e+01
  -2.051848e+01  -1.456563e+02
   1.384426e+02  -1.310001e+02
   1.944992e+02  -4.915811e+00
   1.736440e+02   1.359543e+02
   4.300228e+01   2.004222e+02
  -9.366458e+01   1.046066e+02
  -9.531263e+01   4.701517e+01
  -3.561970e+01  -5.113297e+01
   1.781416e+01  -6.660442e+01
  -4.203523e+01   1.523521e+01
  -7.602864e+01   2.702434e+01
  -1.507728e+01  -6.110227e+01
   1.235076e+01  -1.415420e+02
   7.859772e+01  -1.220529e+02
   9.699696e+01   2.412090e+01
  -2.198496e+00   1.412157e+02
  -1.406428e+02   7.752907e+01
  -1.500908e+02  -4.807532e+01
  -5.274087e+01  -1.550128e+02
   7.121915e+01  -1.781996e+02
   2.020654e+02  -5.335494e+01
   2.085563e+02   1.248052e+02
   7.571514e+01   1.132704e+02
  -7.615878e+00   1.200116e+02
  -4.885844e+01   5.792129e+01
  -6.820427e+01   1.905229e+01
  -1.949258e+00   1.227148e+01
  -8.361688e+01   7.236536e+01
  -9.774695e+01   8.312563e-01
  -6.392147e+01  -1.284003e+02
  -2.591560e+01  -1.625622e+02
   3.865705e+01  -1.445165e+02
   1.504206e+02  -2.136794e+01
   1.122550e+02   1.025975e+02
   4.448638e+01   9.441674e+01
  -6.432838e+01   6.446718e+01
  -3.824076e+01   1.512422e+01
  -3.119900e+01  -7.394221e+01
   1.901192e+01  -3.954267e+01
  -1.248864e+01  -1.708035e+00
  -4.927923e+01  -1.701744e+01
  -4.744849e+01  -4.779029e+01
   9.401024e+01  -5.913890e+01
   1.393510e+02  -8.113338e+00
   8.723039e+01   6.656346e+01
   2.569451e+00   7.268745e+01
  -8.721548e+01   2.295617e+01
  -7.711112e+01   1.759164e+01
  -5.543112e+01  -4.452934e+01
   3.963409e+01  -2.168639e+01
   6.232406e+01   1.023047e+01
  -1.435738e+01   5.427692e+01
  -7.322832e+01   3.375365e+01
  -5.503840e+01  -3.794080e+01
  -2.926987e+01  -6.790862e+01
  -2.978598e+01  -2.636616e+01
  -1.807725e+01   1.552060e+01
  -5.091729e+01  -1.844463e+01
  -1.447878e+01  -5.985997e+01
   1.944792e+01  -1.134662e+02
   7.859160e+01  -1.311726e+02
   1.237854e+02  -2.882568e+00
   9.491329e+01   5.048077e+01
   6.416754e+00   1.123562e+02
  -1.060238e+02   3.616983e+01
  -3.288450e+01   6.337428e-01
   3.872856e+01   5.768894e+00
   7.627236e+01   2.760141e+01
   5.805609e+01   1.005241e+02
  -5.182106e+01   7.634591e+01
  -1.201460e+02   6.641677e+00
  -1.125018e+02  -3.587016e+01
  -4.492903e+01  -7.187112e+01
   3.231716e+01  -2.099001e+01
   7.893258e+01  -1.066985e+01
  -2.181023e+01  -8.074755e+00
  -6.280257e+01  -3.608418e+01
   3.627241e+00  -1.139880e+02
   8.762035e+01  -1.046884e+02
   1.433621e+02  -5.953246e+01
   1.236826e+02   9.808411e+01
  -1.321783e+01   1.515906e+02
  -8.996654e+01   1.028579e+02
  -1.208017e+02  -1.992401e+01
  -1.726583e+00  -8.643210e+01
  -1.493215e+01  -8.881653e+01
   8.067812e+01  -6.313456e+00
   5.024209e+01   5.703142e+01
   4.529129e+00  -2.732786e+01
   8.896197e+00  -5.042451e+01
   3.479200e+01  -1.987803e+01
   5.835541e+01   9.567051e+01
   3.401902e+01   1.025615e+02
  -3.838246e+01   7.357582e+01
  -1.254918e+02  -3.182012e+01
  -5.233181e+01  -8.284039e+01
  -6.178078e+00  -3.385030e+01
   5.891435e+01  -1.644806e+01
   8.794447e+01   3.466944e+01
   2.568544e+01   3.103606e+01
   4.356122e+00  -3.279767e+00
   3.496388e+00  -7.508481e-01
   4.600767e+01   6.647706e+00
   1.419304e+01  -2.449269e+01
  -2.851985e+01   6.788353e-01
  -1.002419e+02  -2.784398e+01
  -3.418443e+01  -7.070027e+01
   7.299575e+01  -1.027154e+02
   1.735033e+02  -5.283799e+01
   1.614821e+02   6.418170e+01
   2.593861e+01   9.835056e+01
  -1.064148e+02   1.042265e+02
  -6.721231e+01   5.853038e+01
  -4.289622e+01  -5.939077e+01
   1.205276e+00  -9.009680e+01
   2.048654e+01  -8.700529e+00
  -1.623252e+01  -4.410723e+01
  -1.557612e+01  -4.260787e+01
  -3.033080e+01  -5.891961e+01
   5.377641e+01  -6.841789e+01
   6.062017e+01   5.508259e+01
   2.332004e+01   1.196721e+02
   4.707639e+01   9.042946e+01
  -8.451022e+01   7.273662e+00
  -1.395129e+02  -6.117262e+01
  -7.332716e+01  -1.313166e+02
  -8.248642e+00  -6.876683e+01
   8.646656e+01   3.452816e+01
   2.836896e+01   3.918059e+01
  -7.316840e+01   7.086608e+01
   1.494256e+01   3.158977e+01
  -1.171805e+01  -5.571255e+01
   4.941615e+01  -1.923893e+01
   1.367439e+01   1.461491e+01
  -8.288610e+01   6.642573e+01
  -6.596417e+01   5.035244e+01
  -3.465221e+01  -4.958256e+01
  -1.187682e+00  -7.396062e+01
   1.650670e+01  -6.841641e+01
   5.049164e+01   3.487091e+01
  -1.311946e+01   1.634669e+01
  -1.680322e+01   1.570842e+01
   1.271754e+00  -3.012364e+01
  -4.572768e+01  -5.512637e+01
  -4.192972e+00  -4.583346e+01
   9.441273e+00  -9.468237e+00
   1.504534e+01  -6.525272e+00
   4.821126e+00  -2.196320e+01
   4.280426e+01  -1.628400e+01
   1.258288e+01  -2.106329e+01
   4.393651e+01   3.118816e+01
   3.137724e+01   5.319045e+01
  -3.693783e-01  -1.833881e-01
  -4.679923e+00  -2.407554e+01
  -1.367624e+01  -4.422583e+01
   6.505087e+01  -8.327627e+00
   6.486513e+01   1.605189e+01
   1.054374e+01  -1.694659e+00
  -2.069254e+01   1.527646e+00
  -1.033601e+02   3.287752e+01
  -6.746483e+01  -3.225230e+01
  -1.454813e+01  -1.522675e+01
   4.485173e+01  -3.223939e+01
   3.086806e+01  -8.945722e+00
  -6.923482e+01  -6.523840e+00
  -2.664335e+01  -4.827470e+01
  -8.781511e+00  -2.724286e+01
   2.426167e+01   1.257403e+01
