
 $NMID
 id='ANONYMOUS ', fmtdat='(2E16.6)'
 volume=1.0
 tramp=1.0
 $END
   1.035882e+03  -1.840198e+01
   7.196790e+02   6.052327e+02
  -2.800055e+02   6.500689e+02
  -2.547594e+02   1.338878e+02
  -1.709785e+02  -4.872867e+01
   9.895815e+01  -2.726365e+01
   1.343762e+02  -9.893248e+00
  -5.504062e+01   3.192975e+02
  -1.109213e+02   1.510437e+02
  -2.020237e+02  -1.153262e+01
  -9.496963e+01  -1.033929e+02
  -2.491996e+00  -2.006574e+02
   1.242835e+02   2.057777e+01
   4.553818e+01   1.887531e+02
  -2.703994e+01   1.501892e+02
  -1.193525e+02  -7.368375e+00
  -1.176490e+01  -1.473474e+02
   6.250865e+01  -1.328918e+02
   1.296567e+02  -1.047460e+01
   5.632574e+01   6.059509e+01
   1.096866e+01   1.065813e+02
  -3.010962e+01   6.923666e+01
  -2.972426e+01   5.073537e+01
   4.604735e+01   4.950289e+01
   8.513277e+01   6.311333e+01
   9.939321e+00   1.112356e+02
  -9.932732e+01   7.146271e+01
  -1.776150e+02  -4.120397e+01
  -1.269441e+02  -4.943115e+01
   4.276083e+01  -5.922486e+01
   1.666186e+02  -5.431222e+01
   9.426814e+01   1.097004e+02
  -7.118783e+01   6.678317e+01
  -1.271661e+02   5.401689e+01
  -8.368729e+01  -2.068910e+01
  -6.912001e+01  -8.314273e+01
   8.481529e-01  -3.302482e+01
   1.042062e+01   2.009935e+01
  -2.332946e+01   1.825418e+01
  -1.018102e+02   3.790693e-02
  -5.650864e+01  -1.959767e+02
   1.063767e+02  -1.010386e+02
   7.987497e+01  -4.323535e+01
   1.528623e+01   1.165024e+02
  -1.101437e+01   2.330109e+01
   7.347418e+00  -7.096889e+01
   6.040624e+01  -1.436826e+02
   1.194156e+02   3.759993e+00
   1.384411e+02   1.072667e+02
  -1.901734e+01   1.349904e+02
  -9.922305e+01   5.572420e+01
  -9.777346e+01  -7.936444e+01
  -8.921391e+01  -6.995896e+01
   4.721156e+01  -3.033003e+01
   3.990498e+01  -1.289592e+00
   5.689650e+01   2.185921e+00
  -1.436632e+01   6.259134e+00
  -1.058967e+01  -7.132271e+01
   1.601289e+01  -3.066964e+00
   2.700055e+01   3.747389e+01
   3.212826e+01   5.308839e+01
  -4.599407e+01   2.518272e+01
  -5.902312e+01   4.586142e+00
  -6.575137e+01  -3.059142e+01
   3.801797e+01   2.566319e+01
   8.713769e+01  -7.028729e+01
   5.059881e+01  -6.983806e+01
   2.354634e+01   1.917250e+01
   1.484117e+01   6.248113e+01
  -7.457015e+01   9.925279e+01
  -8.251211e+00   3.606466e+01
  -4.119165e+01   3.462763e+01
  -8.114453e+00   3.161270e+01
  -4.016659e+01   2.434319e+01
  -6.346017e+01   2.648044e+01
  -2.595266e+00  -5.196213e+01
  -1.510850e+01  -7.777502e+00
   1.641881e+01  -2.273028e+01
   1.012675e+01   1.078618e+02
  -1.938788e+01   4.748240e+01
  -5.289214e+01   7.178386e+00
  -5.381544e+01  -9.069442e+01
   1.057506e+01  -4.303419e+01
   3.267184e+01  -8.243475e+01
   3.420815e+01  -3.151156e+01
  -1.752401e+00   1.354638e+01
   4.349198e+01  -1.277664e+01
   7.616858e+01  -2.234715e+01
   1.518933e+02   2.627478e+01
   6.380501e+01   4.521099e+01
   2.003729e+01   1.187900e+02
  -8.304974e+01   8.220392e+01
  -1.265933e+02   5.532656e+01
  -4.862795e+01   1.420535e+01
   2.094660e+01  -9.883285e+00
   5.829822e+01  -4.349818e+01
   1.393769e+00  -8.568032e+00
  -6.712818e+01   8.383859e+00
  -6.571001e+01   1.804617e+01
   2.276743e+00  -8.299811e+00
   2.530033e+01  -4.382257e+01
   1.880482e+01   3.436831e+01
  -1.814501e+01   3.448478e+00
  -6.416083e+01  -1.140950e+01
  -3.563289e+01  -6.430719e+01
   1.089509e+01  -5.637361e+01
   5.456788e+01  -4.282716e+01
   7.260319e+01  -2.451973e+01
   5.594892e+01   9.425895e+01
   5.275981e+01   7.671753e+01
  -1.114698e+01   7.311345e+01
  -1.584551e+01  -1.084042e+01
  -2.599831e+01  -1.223035e+01
   2.613178e+01   5.152371e+00
   8.155575e+00   2.264278e+01
   1.953809e+01   4.069916e+01
  -5.403064e+01  -5.002352e+00
   1.642988e+01   3.205851e+01
   5.157117e+00   5.965207e+01
  -5.439351e-01   2.370299e+01
  -4.331739e+01  -2.218301e+01
  -6.758712e+01  -3.492705e+01
  -8.631167e+01  -4.452208e+01
  -4.495661e+01  -6.581680e+01
   5.329405e+01  -7.105347e+01
   5.978678e+00  -3.677489e+01
   5.434445e+01  -2.202895e+01
  -2.143809e+01   4.580804e+00
  -1.688526e+01  -7.305605e-01
   5.031238e+01  -4.099391e+01
   6.325259e+01  -7.127475e+00
   1.240206e+01  -2.653743e+01
   3.949477e+01   5.078468e+01
  -4.090198e+00   3.036616e+00
  -1.998662e+01   5.145463e+01
  -3.541296e+01   1.052179e+01
  -2.683839e+01   4.961896e+01
  -6.615688e+00   2.473348e+01
  -2.832899e+01   9.698708e+00
  -3.907354e+01  -8.803928e+00
   5.853582e+00  -4.244873e+01
   7.675876e+00  -7.143726e+01
   5.090352e+01  -5.523276e+01
   4.172254e+01   2.147291e+01
   3.993166e+01   3.734797e+01
  -3.206154e+01   2.582069e+01
  -7.579655e+01   4.716319e+01
  -9.119876e-01  -1.923633e+01
  -1.357336e+01   1.244609e+01
  -3.099579e+01   1.759249e+01
  -8.092599e+00   1.629358e+01
  -7.508906e+00  -4.469839e+00
  -2.292170e+01  -2.926717e+01
   4.406039e+01  -2.852964e+01
   1.019945e+01  -2.901129e+01
   2.316802e+01   3.740967e+01
  -2.741274e+01   6.209573e+01
   1.849636e+01   2.889143e+01
  -6.953112e+01   7.857676e+00
  -1.161233e+01  -6.462501e+00
  -2.771355e+01  -1.350460e+01
  -4.715798e+01   3.181373e+01
  -4.093099e+01  -4.149244e+00
  -3.121709e+01  -3.679320e+01
   3.491213e+01  -1.139710e+00
  -1.983877e+00  -2.451681e+01
   2.459173e+01   2.394436e+01
   9.505626e+00   2.675865e+01
  -1.317237e+01  -5.979014e+00
  -5.988639e+01   5.732929e+00
   2.281980e+00  -3.859634e+01
   1.323282e+01  -7.198879e+01
   6.840015e+01   2.523422e+01
   5.368854e+01   3.872421e+01
   2.254829e+01   7.841138e-01
   3.267572e+01  -5.679974e-01
  -2.696431e+01   3.044114e+01
  -5.656368e+01   5.826324e+01
   1.075028e+01   3.389606e+01
  -9.542699e+00  -1.478559e+01
  -1.591653e+01   2.102034e+00
  -3.521874e+00   2.748410e+01
   2.145370e+01  -3.032178e+01
  -1.435268e+01  -1.400898e+01
   4.418816e+01  -1.582501e+01
   7.038419e+00   2.036423e+01
   4.159401e+00   3.378662e+01
   2.237738e+01  -3.311935e+00
   1.735465e+01   3.150111e+00
   1.091893e+00  -5.909118e+00
  -6.644964e+00  -7.944627e+00
  -3.107094e+01   1.114549e+01
  -2.399744e+01   3.273802e+01
  -1.381772e+01  -1.806268e+01
   8.870482e-01  -3.070900e+01
  -1.159017e+01  -1.030565e+01
   3.305836e+01   1.327148e+01
   8.401541e-01  -1.520946e+01
  -5.376804e+01   2.868795e+01
  -5.093833e+01   6.854582e-01
  -5.400359e+01  -3.607144e-01
   4.739212e+00  -1.883114e+01
  -2.693987e+01   3.128727e+01
  -1.275038e+01   1.200917e+01
  -3.121657e+01   2.042587e+01
  -3.684017e+01  -2.774195e+01
  -2.890236e+01  -8.309173e+00
  -1.130882e+01  -4.726954e+01
   3.437729e+01   2.027133e+00
  -3.845828e+01   2.453507e+01
   6.702105e+00  -2.883611e+01
   2.444410e+01  -2.474044e+01
   2.581435e+01  -6.676694e+01
   6.219948e+01  -9.523642e-02
   1.371036e+00   2.247189e+01
  -1.455047e+01   7.079644e+01
  -3.467605e+01  -4.876394e+00
  -4.318292e+01  -5.832300e+00
   3.831468e+01   1.550633e+01
   5.128533e+01   3.657237e+01
   9.195709e+00   5.539186e+01
  -4.256952e+01   7.622943e+00
  -3.140175e+01   2.111856e+01
  -6.525042e+01   2.412397e+01
  -6.519116e-01  -3.913625e+01
   3.703716e-01  -4.311663e+01
  -1.083675e+01  -4.220313e+01
  -2.177280e+01   2.161452e+01
  -1.793794e+00   6.941170e-01
   8.005954e+00  -2.267178e+01
   2.753037e+01  -1.938263e+01
   7.013575e+01   1.970250e+01
   6.796031e+00   4.981608e+01
  -5.341509e+01   7.233455e+01
   2.093223e+01   4.783348e+01
  -4.374315e+01   1.041773e+01
  -3.755953e+00  -4.238824e+01
  -5.246907e+00   1.754678e+01
   1.640053e+01  -2.451360e+01
   1.546376e+01   6.816799e+00
   3.036705e+01   2.236475e+01
  -1.046937e+01  -7.488142e+00
  -5.066968e+00  -1.220969e+01
   1.534549e+00   1.634032e+01
   1.101916e+01   2.494796e+01
   1.326247e+01  -3.383052e+01
  -1.950048e+01  -4.251346e+01
  -6.924642e+01   1.132187e+01
   4.716625e+00  -1.077699e+01
   6.035169e+00   1.473381e+01
  -1.502904e+01   2.569851e+01
  -3.847514e+00  -3.436886e+01
  -1.860412e+01  -3.698926e+01
  -1.587949e+01   5.534217e+00
   3.097067e+01  -1.403853e+01
  -1.581311e+01   2.081596e+01
   2.959200e+01  -1.296754e+01
   2.153444e+01  -3.416572e+00
   3.893530e+01  -7.549576e+00
   5.925780e+00  -3.262275e+00
   5.397810e+01  -4.442198e+01
   2.630853e+01   1.566377e+00
   2.512175e+01   3.636473e+01
  -2.641742e+01   4.236535e+01
  -4.804543e+00  -1.940633e+00
   2.719914e+01  -1.412231e+01
  -1.220880e+01  -4.305757e+00
  -2.533423e+01  -1.975175e+01
  -1.284444e+01  -7.216209e+00
   8.095938e+00  -4.792100e+01
   1.940321e+01  -3.894987e-01
  -1.891516e+01   1.621633e+01
  -7.356277e+00   3.914539e+01
   2.352546e+01   1.372091e+01
   1.360151e+01   4.109060e+00
  -4.368820e+01  -1.498319e+00
  -6.349869e+01   1.115133e+01
   6.770446e+00   6.305739e+00
  -5.003096e+00   2.811324e+01
   3.823946e+01   1.895757e+01
   2.779506e+00  -3.154606e+00
  -5.679111e+01  -2.161216e+01
  -8.783657e+00  -1.146793e+01
   5.159179e+01   5.803508e+01
   5.893164e+01  -4.601429e+00
  -1.128538e+01   2.527492e+01
   1.705815e+01   1.084289e+00
  -1.266527e+01   1.267376e+00
   5.255633e+00   2.610586e+01
  -2.008730e+01  -1.577492e+01
   5.028177e+00  -2.351722e+01
   2.392832e+01   2.929231e+01
   4.400210e+01   1.550244e+01
   3.022587e+01  -2.862828e+01
   9.131542e-01  -2.756637e+01
   1.190384e+01   8.193143e+00
  -1.950488e+01  -2.138136e+01
   1.127619e+01  -2.076893e+01
  -1.302886e+01  -2.893248e+00
   1.092211e+00  -1.297058e+01
  -1.986116e+01  -1.658785e+01
  -1.166689e+01  -2.614377e+01
   2.532899e+01   8.018212e+00
  -4.176274e+01   5.566291e+00
  -1.503564e+01  -1.701699e+01
  -6.040608e-01  -8.700704e+00
   1.475952e+01   2.252864e+00
   2.855334e+01   1.719708e+01
  -6.070051e+00  -2.828803e+00
   1.125695e+01   2.460263e+01
  -4.882032e+00   4.964038e+01
   1.602828e+00   1.954227e+01
  -1.180222e+01  -1.767202e+01
   9.647683e+00  -1.621300e+01
   1.090271e+01   2.301732e+01
  -1.658905e+01  -1.145383e+01
  -6.917606e+00  -3.091060e+01
  -5.995764e+00   3.243578e+01
   2.575662e+01   3.370748e+00
   1.254265e+01  -3.274296e+00
