
 $NMID
 id='ANONYMOUS ', fmtdat='(2E16.6)'
 volume=1.0
 tramp=1.0
 $END
  -1.277380e+03   2.408929e+02
  -1.042688e+03  -5.349276e+02
   1.357482e+02  -8.104967e+02
   3.082768e+02  -2.906539e+02
   1.765785e+02   4.876002e+00
  -1.301815e+02   8.202238e+01
  -2.078791e+02  -5.119945e+01
   7.737295e+01  -2.582751e+02
   1.144418e+02  -1.445527e+02
   1.908121e+02  -2.199093e+01
   1.489293e+02   1.788109e+02
   9.441016e+01   1.931093e+02
  -8.392325e+01   4.232433e+01
  -1.485168e+02  -1.180181e+02
   2.456576e+01  -1.771904e+02
   1.101785e+02   1.546379e+01
   1.020242e+02   1.159439e+02
  -1.009888e+01   1.786935e+02
  -6.482353e+01   6.578419e+01
  -8.755205e+01  -5.065919e+00
  -9.837260e+01  -9.072334e+01
  -3.008632e+01  -1.012707e+02
   6.812526e+00  -3.954709e+01
   4.050615e+01  -1.792619e+01
  -6.042859e+01  -2.405112e+01
   4.750280e+00  -7.413869e+01
   1.016735e+02  -8.025686e+01
   2.073986e+02  -1.960940e+01
   1.326091e+02   2.625860e+01
  -7.070752e+01   7.077351e+01
  -1.202716e+02   3.879849e+01
  -1.395219e+02  -3.476010e+01
  -2.318963e+01  -9.587423e+01
   4.193632e+01  -1.254709e+02
   9.377268e+01  -1.198124e+01
   6.954993e+01   8.128123e+01
   2.373276e+01   1.035263e+02
  -3.372915e+01  -4.848392e+01
   3.081338e+01  -1.304698e+02
   1.091222e+02   1.453350e+01
   3.212080e+01   1.694096e+02
  -4.021298e+01   2.377373e+02
  -1.633987e+02   1.889167e+01
  -9.709632e+01  -1.011364e+02
  -2.128369e+01  -1.086031e+02
   6.472669e+01  -5.756310e+00
  -2.587699e+01   1.240242e+02
  -8.242517e+01   1.433564e+01
  -1.397794e+02  -9.163565e+01
  -9.351001e+01  -1.390591e+02
   9.253123e+01  -1.168646e+02
   1.160802e+02  -6.642227e+01
   1.397228e+02   8.329457e+01
  -6.209927e+01   7.764385e+01
  -4.317092e+01   5.656742e+01
  -1.427447e+02  -1.518974e+01
   2.823037e+01  -1.257299e+01
   2.517861e+01  -1.205055e+01
  -2.757756e+01   1.278234e+01
  -1.032045e+02  -2.320236e+01
  -2.570880e+01  -6.702981e+01
   3.665955e+01   3.339519e+00
   6.893975e+01  -4.689802e+01
   1.012157e+02  -3.933828e+01
  -5.782778e+00   2.944500e+01
  -1.135460e+02   9.337392e+01
  -7.864098e+01   8.591323e+01
  -3.641099e+01   1.154025e+01
  -2.633216e+01  -4.520354e+01
   2.781051e+01  -9.148150e+01
   1.768136e+01  -7.603378e+01
   4.700205e+01  -3.034411e+01
   4.745507e+01  -1.891229e+01
   8.315328e+01  -5.415568e+01
   5.458459e+01   3.049672e+01
   2.499482e+01   7.434652e+01
  -1.243267e+01   3.813301e+01
  -5.283809e+01  -2.750011e+01
  -5.876228e+01  -7.159851e+01
  -1.186372e+01  -7.424274e+01
   4.073562e+01   1.375838e+01
   4.959587e+01   3.106656e+01
   5.565529e+01   5.785658e+01
  -1.033600e+01   7.275751e+01
  -4.826114e+01   2.096249e+01
  -7.101304e+01  -2.105307e+01
  -3.964358e+01   2.005661e+01
  -8.218345e+01   1.976805e+01
  -1.509715e+02   1.408483e+01
  -1.003335e+02  -6.990913e+01
   4.305837e+01  -1.269618e+02
   1.000958e+02  -1.443560e+02
   1.619296e+02  -6.926213e+01
   6.122706e+01   3.011882e+01
   4.050307e+01   2.608526e+01
  -6.875435e+01   8.176384e+01
  -3.524253e+01   4.601629e-01
   6.136151e+01  -1.795182e+00
   5.556466e+01  -5.561635e+01
  -9.405208e+00   7.049817e+01
  -6.090308e+01   8.879704e+01
  -5.033675e+01  -1.232657e+01
   2.026996e+00  -1.869721e+01
   9.886414e+00  -4.589660e+01
   6.860828e+01   6.854075e+01
  -2.920457e+01   1.220446e+02
  -2.979764e+01   8.522680e+01
  -8.278645e+01   3.488269e+00
  -6.473504e+01  -6.438281e+01
  -5.975144e+01  -1.283615e+02
   5.077563e+01  -4.461558e+01
   3.577921e+01  -4.344523e+01
  -1.833042e-01   1.444822e+01
  -1.588844e+01  -3.008523e+01
   1.037793e+01  -2.482785e+01
   3.835271e+01  -8.215661e+01
   7.632197e+01  -3.097745e+01
   8.244595e+00   3.487443e+01
  -9.951039e+00  -4.338574e+01
   1.180207e+00  -2.438694e+00
   8.565488e+01  -1.343221e+01
   4.710265e+01  -5.084265e+01
   7.474852e+01   3.857968e+01
   2.459953e+00   7.786412e+01
  -3.547086e+01   1.053440e+02
  -9.447780e+01   7.008664e+01
  -7.615617e+01  -8.304425e+00
  -2.456881e+01  -1.144467e+01
  -5.846736e+01   1.045368e+01
  -9.689121e+00  -3.672969e+01
  -7.655937e+01   4.374246e+01
  -7.796103e+01   3.190352e+01
  -2.305646e+01  -1.623561e+01
   5.024935e+00  -3.543023e+01
   4.916133e+01  -3.050993e+01
  -2.733268e+00  -1.874318e+01
  -5.244243e+00  -8.973508e+00
  -4.632839e+01  -1.705325e+01
   1.652547e+01   1.116585e+01
   5.804622e+01   9.011706e-01
   4.573507e+01  -2.758638e+01
  -2.212962e+01   4.179295e+01
  -3.128226e+01   2.104305e+01
  -4.407483e+01   2.483305e+01
  -2.341447e+01  -2.925290e+01
   1.299820e+01  -4.758516e+01
   3.904984e+01  -9.493597e+00
   2.041583e+01   2.191536e+01
  -2.391428e+01  -2.871370e+01
  -2.297658e+00   3.054642e+01
  -7.313666e+00  -3.053308e+01
   2.015034e+01   1.011546e+01
  -2.425445e+01   1.502439e+01
  -2.500007e+01   3.842770e+00
   5.627204e-01   3.556410e+01
  -4.229999e+01  -1.926396e+01
  -4.223109e+01  -8.755415e+01
   3.247105e+01  -3.670559e+01
   6.119991e+01  -5.404882e+01
   3.015673e+01  -2.363666e+01
  -1.793109e+01   2.083291e+00
   2.173625e+01  -8.928388e+00
   3.295384e+01  -3.459891e+01
   2.405244e+00  -4.322209e+00
  -6.796422e+01   1.992413e+01
  -2.931308e+00   3.510696e+01
  -3.743270e+01  -2.213464e+01
  -2.218412e+01  -3.195093e+01
   3.558135e+01  -1.103475e+01
   8.350231e+01  -2.618464e+01
   1.167663e+01   6.084387e+01
  -7.597703e+00   8.256481e+01
  -5.589391e+01   9.271712e+00
  -1.294742e+02  -3.344419e+01
  -4.133119e+01  -6.814924e+01
  -2.540500e+01  -5.648587e+01
   3.106062e+01  -8.717520e+01
   6.132172e+01   1.946562e+01
  -1.649919e+01  -3.256730e+01
  -1.667434e+01  -3.492050e+01
   8.735704e+00  -3.394676e+01
   2.328842e+01   1.144609e+01
   2.032685e+01   8.821633e+01
  -3.607216e+00   6.840989e+01
  -7.562437e+00  -1.621598e+01
  -5.646317e+01  -3.978587e+01
   3.737122e+01  -8.172440e+01
  -6.145699e-03  -8.042868e+00
   1.806959e+01   8.896171e+00
  -8.045592e-01  -2.671609e+01
  -8.809995e+00   3.616786e+01
  -1.075536e+01  -3.484047e+01
   4.149111e+01  -2.563981e+00
   6.167616e+01  -3.486920e+01
  -2.771045e+01   1.635869e+01
  -5.349930e+01  -1.218444e+01
  -3.110220e+01   3.891142e+01
  -1.542928e+01   3.348147e+00
   6.388064e+00  -3.594860e+01
   1.104509e+01  -2.938901e+01
   2.483670e+00   3.839960e+00
  -2.704470e+01   1.541395e+00
   1.464394e+01   1.863523e+00
   2.510980e+00   1.188142e+01
   1.510738e+01   9.601864e+00
   5.110832e+01   6.801208e-01
   2.472984e+01   1.169714e+01
   6.183596e+00   2.197772e+01
   1.144007e+01   1.227301e+00
   2.642208e+01  -4.643421e+01
   3.104661e+01   2.810306e+01
  -1.298384e+01   3.850126e+01
  -1.152941e-01   6.238673e+01
  -2.725181e+01   2.264976e+01
  -5.283123e+01  -7.977388e+01
  -4.929965e+01  -4.230035e+01
   1.236140e+01  -3.461645e+01
  -2.678089e+01  -2.702512e+01
  -2.962688e+01   1.431684e+01
  -4.909010e+01  -1.692674e+01
  -1.927281e+01  -4.714749e+01
  -3.464321e+00  -5.831290e+01
   7.057703e+01  -4.910773e+01
   5.920250e+01   2.756188e+01
  -3.595309e+01   3.609312e+01
   3.988482e+01  -1.100276e+01
   2.431795e+01   4.556225e+01
  -6.497149e+00   5.564418e+00
  -6.402959e+00   2.713523e+01
  -1.481072e+01   1.360255e+01
  -3.324021e+00   7.584548e+01
  -5.102200e+01   7.513709e+01
   3.227003e+01  -1.340679e+01
  -5.692304e-01  -1.549509e+01
  -1.999790e+01  -8.075484e+00
   1.510774e+01  -2.778539e+01
   3.794483e+01   2.352376e+01
  -2.491102e+01   3.035344e+01
  -2.851578e+01   2.401325e+01
  -1.755015e+01   3.670349e+01
   1.849077e+01  -1.474514e+01
   8.362044e+00   1.342998e+01
  -2.615442e+01   1.405591e+01
  -5.763434e+00  -5.368464e+01
   1.468655e+01  -1.673930e+01
   1.029599e+01   2.507006e+01
   3.419109e+01   2.414994e+01
   5.445156e+01  -6.816993e+01
   3.032469e+00   5.273136e+00
  -1.429004e+01   1.366353e+01
  -2.914607e+01   2.412876e+01
   1.311961e+01   4.788118e+01
   1.844368e+01  -8.880914e+00
   2.194068e+01  -7.493915e+00
   1.571793e+01   9.642932e+00
   1.777533e+01   1.187564e+01
   1.289512e+01   2.082402e+01
   7.454740e+00  -5.848379e+00
   9.689644e+00   2.200707e+01
  -9.924129e+00   3.131892e+01
  -5.503440e+01   2.120989e+01
  -1.824941e+01   1.530915e+01
  -3.914387e+01  -1.856880e+01
  -2.855437e+01  -7.265073e+01
   3.609065e+01  -5.535310e+01
   1.324538e+01   3.078701e+00
   2.426673e+01  -2.851197e+00
  -9.073375e+00  -1.005845e+01
   3.057721e+01   3.023487e+01
   2.138707e+01   3.886648e+00
   1.801490e+01   6.794068e+01
   2.042608e+01   3.950297e+01
  -3.264793e+01  -5.488991e+01
  -5.051299e+01  -2.903823e+01
  -4.689657e+00  -2.572542e+01
   2.301778e+01  -2.231845e+01
   8.728326e+00   5.153952e+00
   3.946474e+01   4.580282e+00
   8.262499e+00  -1.314039e+01
  -1.233259e+01  -7.392254e-01
   7.512705e+00   2.878449e+01
   2.813869e+01  -3.105697e+01
  -2.158591e+01   1.180583e+01
  -5.063096e+01  -1.615433e+01
  -1.448649e+00  -4.492288e+01
   1.402708e+01   9.017091e-01
  -1.107960e+00  -4.309833e+01
   1.165098e+01   4.597106e-01
   1.877276e+01  -4.669377e+00
   5.989195e+01  -1.536820e+00
   1.548049e+01   1.007230e+01
   2.590795e+00  -4.526967e+00
   2.535387e+01  -3.323867e+00
  -7.083560e+00  -2.611508e+01
  -1.327476e+01  -2.204523e+01
   1.377850e+01  -2.553921e+00
   3.185154e+01  -8.548316e+00
   5.336089e-01  -1.563027e+01
   2.753712e+01   1.443939e+01
   1.628542e+01   2.082919e+00
  -6.282616e+00  -1.947644e+01
  -6.449249e+00   2.125894e+00
   6.749022e+01  -3.091518e+01
  -2.014049e+01  -3.786994e+01
   2.421294e+01  -3.738107e+00
   7.490199e+00  -2.690887e+01
   1.434879e+01   3.737986e+01
   1.760169e+01  -2.209249e+00
   2.883651e+01   8.141610e+00
  -2.191515e+01  -4.446428e+01
   6.324101e+00  -3.787919e+01
   6.327608e+01  -4.232063e+00
  -4.261987e+01   5.082650e+00
  -1.270411e+01  -1.776922e+00
  -3.646073e+01   4.820202e+00
   1.716132e+01  -1.257232e+01
   4.125238e+01   3.589740e+01
   2.878226e+01   1.936474e+00
   1.288800e+01  -6.960340e+00
  -8.052604e+00  -2.139533e+00
