
 $NMID
 id='ANONYMOUS ', fmtdat='(2E16.6)'
 volume=1.0
 tramp=1.0
 $END
   1.411822e+03  -3.974652e+02
   8.146087e+02   5.911096e+02
  -1.930072e+02   9.608052e+02
  -3.753167e+02   5.026414e+02
  -2.551282e+02   1.430601e+02
   2.114751e+01  -1.887888e+01
   1.971673e+02   4.553509e+01
   1.668234e+01   1.578998e+02
  -2.064753e+02   2.739714e+02
  -2.259320e+02   8.332229e+01
  -1.187669e+02  -1.815525e+02
  -4.617789e+01  -2.101953e+02
   1.201750e+02  -7.344657e+01
   1.303344e+02   1.611075e+02
  -5.836731e+01   1.871228e+02
  -1.126094e+02   6.298811e+01
  -1.599266e+02  -1.735002e+02
  -1.172534e+01  -2.012905e+02
   6.924500e+01  -1.292810e+02
   1.113454e+02  -3.542068e+00
   9.614711e+01   6.365743e+00
   3.076836e+00   6.828940e+01
  -3.319421e+01   5.568458e+01
  -7.696422e+00   6.363498e+01
   3.827574e+01   2.963429e+01
  -2.489994e+01   6.897500e+01
  -5.621423e+01   8.061443e+01
  -2.004455e+02   7.596965e+01
  -1.049191e+02  -2.398063e-01
   8.885463e+01  -3.635313e+01
   1.474882e+02  -4.130259e+01
   4.031553e+01   3.374123e+01
  -2.636759e+01   8.799898e+01
  -8.573638e+01   7.855963e+01
  -1.355513e+02   4.526252e+00
  -9.615978e+01  -1.310274e+02
  -6.568915e+01  -1.023957e+02
   7.779635e+00  -4.118332e+01
  -3.321898e+01   5.459554e+01
  -3.569713e+01   3.404834e+01
   2.412325e+01  -1.263295e+02
   7.203359e+01  -1.960254e+02
   9.425375e+01  -4.703047e+01
   8.591475e+01   1.135640e+02
  -2.893071e+01   9.551103e+01
  -1.143645e+02  -1.925253e+01
  -4.319547e+01  -1.078032e+02
   1.242620e+02  -1.467176e+01
   1.123219e+02   4.264752e+01
   4.278242e+01   1.409230e+02
  -1.157731e+02   7.253799e+01
  -1.441767e+02   5.984729e+01
  -1.233660e+02  -3.882126e+01
   3.732071e+01  -1.151048e+02
   8.804745e+01  -4.795513e+01
   1.208072e+02  -1.815867e+01
  -2.208349e+01  -9.689719e-01
  -3.939894e+01   6.103226e+00
   3.170975e+01  -3.353469e+01
   1.755861e+01  -1.409193e+01
   6.007513e+01  -3.081103e+00
  -3.935017e+00   3.781658e+01
  -5.059710e+01   4.886835e+01
  -5.870304e+01  -7.478779e+00
  -2.282814e+01  -4.362497e+01
   7.971786e+01  -8.298567e+01
   9.562252e+01  -9.487402e+01
   8.845311e+01   3.990592e+01
   1.316853e+01   1.132437e+02
  -2.495819e+01   1.289139e+02
   7.350747e+00   3.389230e+01
  -3.778462e+01   4.382146e+01
  -6.311861e+01   3.330878e+01
  -1.098474e+02   4.312246e+01
  -9.035021e+01  -6.283797e+00
  -2.714157e+01  -8.835132e+01
   3.168476e+01  -4.277368e+01
   1.757179e+01   1.344116e+01
   5.796297e+01   4.493986e+01
   6.746433e+00   4.617887e+01
  -3.869059e+01   1.602394e+01
  -6.375087e+01  -6.804674e+01
  -3.992704e+01  -5.410841e+01
  -8.447447e+00  -7.364390e+01
   2.345420e+01  -6.089855e+01
   6.465472e+01  -8.739046e+00
   9.258037e+01  -3.300216e+01
   5.063152e+01  -4.346909e+01
   1.309090e+02   3.467869e+01
   1.133672e+02   1.027259e+02
  -1.941110e+01   1.160388e+02
  -7.615583e+01   1.066367e+02
  -1.180602e+02   2.964627e+01
  -5.233655e+01   1.878036e+01
  -3.043337e+01  -2.534357e+01
  -1.111482e+01  -7.424354e+01
  -4.231929e+00  -1.686149e+01
  -2.836371e+01  -7.140720e+00
  -1.786612e+01   5.197477e+01
   1.202353e+01  -4.959701e+01
   4.016694e+00  -4.257203e+01
   2.212381e+01   1.899396e+01
  -4.204647e+00   5.262545e+00
  -4.300228e+01   1.312842e+01
  -6.504579e+01  -1.063758e+02
   8.053122e+00  -3.584768e+01
   5.263540e+01  -4.825043e+01
   7.369940e+01   4.563206e+01
   1.046198e+02   4.832165e+01
   3.659942e+01   8.794969e+01
  -3.195968e+01   5.796614e+01
  -1.263899e+01   2.035239e+01
  -2.324012e+01   3.962341e+01
  -3.229708e+00  -6.947415e+00
   2.055939e+01   1.380928e+01
  -2.940069e+01  -1.227954e+01
  -4.477218e+01  -7.926471e+00
  -1.575754e+01   3.421963e+01
   7.077093e+00   5.069320e+01
   1.437172e+01   1.031032e+01
  -5.001926e+01   1.774724e+01
  -7.028108e+01  -1.258138e+01
  -2.504854e+01  -7.567535e+01
  -4.893583e+01  -4.220941e+01
   6.848140e+01  -3.930835e+01
   8.554635e+01  -6.814955e+01
   4.422924e+01  -4.855119e+00
   4.584070e+01   3.544632e+01
  -2.158713e+01   3.877449e+01
   4.251192e+01  -3.151533e+01
  -1.968612e+01  -4.899550e+00
   6.725133e+01   5.452263e+01
   1.668192e+01   4.819691e+01
  -1.494399e+01  -2.159417e+01
   3.665901e+00  -1.107291e+01
  -3.575561e+01  -1.493743e-01
   2.845640e+00  -3.921031e+00
   1.206719e+01   7.280957e+01
  -1.253570e+01   3.099925e+01
  -4.008498e+01   2.841385e+01
  -8.721868e+01  -2.050761e+01
  -2.304541e+01  -5.988020e+01
   3.866259e+01  -2.313979e+00
   2.118863e+01  -2.584087e+01
  -1.679975e+01   3.559578e+01
  -2.829336e+01   5.261548e+01
   1.015015e+01   4.710887e+00
   1.396758e+01  -1.953727e+01
  -7.731429e+00  -1.934961e+01
  -1.111060e+01   1.827785e+00
  -1.529145e+01   2.713780e+01
  -3.862309e+01  -1.344485e+01
   2.754195e+00  -5.219760e+01
   1.865102e+01  -8.757265e+01
   6.501101e+01  -7.808835e+00
   5.491700e+01   5.212962e+01
   3.248436e+01   3.139499e+01
  -4.930583e+01   1.317079e+01
  -4.045679e+01   3.306962e+01
  -3.878441e+01  -1.270875e+01
  -3.042453e+01  -1.063748e+01
  -4.210073e+01  -1.730767e+01
  -2.139466e+01   2.585078e+01
  -4.067338e+01  -2.305135e+01
   2.358181e+01   2.514604e+01
   2.988899e+01  -3.014322e+01
   1.599658e+01   2.435502e-01
   1.323538e+01   1.876220e+01
  -3.363344e+01   1.324634e+01
  -5.936936e+01  -2.112569e+01
  -4.567703e+01  -7.680485e+01
   6.125896e+01  -5.450337e+01
   4.833633e+01  -3.867585e+01
   6.745420e+01   3.529690e+01
   5.506625e+01   4.617475e+01
   1.392878e+01   2.340766e+01
  -9.214153e+01   3.761123e+01
  -4.282072e+01   1.335685e+01
  -2.640894e+01   5.310100e+01
  -6.856886e-01   4.346986e+00
  -3.178520e+01  -2.745791e+01
  -5.655810e+01  -3.083614e+01
   4.100718e+00  -5.522915e+01
   2.599116e+01  -3.084342e+01
   3.712705e+01  -3.259807e+01
   1.677387e+01   3.856771e+01
  -8.101366e+00   3.056489e+00
  -3.566677e+01  -2.277679e+00
   1.725924e+01  -4.056894e+01
   1.928973e+01   4.300517e+01
  -1.911266e+01  -1.324383e+01
  -1.899299e+01   3.305482e+01
  -8.378220e+00  -3.911908e+01
  -8.576074e+00  -5.447503e+01
   2.986593e+01  -2.661379e+01
   3.188068e+01   1.415847e+01
   1.570523e+01   2.112507e+01
   1.553256e+01   3.610488e-01
  -3.419307e+01   2.836301e+01
  -5.555145e+01   3.588352e+01
  -1.009648e+01   2.297487e+01
  -2.470826e+01  -2.627388e+01
   3.749828e+01   7.857814e+00
  -6.997740e+00   2.874939e+00
  -2.226112e+01   3.478441e+01
  -3.681950e+01   8.777641e+00
  -4.315209e+01   7.566445e+00
  -1.549621e+01  -2.638675e+01
  -3.154806e+01   1.929760e+01
   2.304664e+01   3.158589e+01
  -1.926500e+00  -4.295434e+01
   3.779388e+01  -2.897570e+01
   3.107337e+01  -2.898182e+01
   4.270322e+01   2.209922e+01
   6.144046e+00   1.003694e+01
  -3.998978e+01   5.061360e+01
  -7.128645e+00   3.930805e+01
  -2.448823e+01  -1.088229e+01
   2.363350e+01   3.803828e+01
   3.935310e+01   3.160689e+01
   4.349229e+00   1.977624e+01
  -2.308848e+01   2.817332e+01
  -7.298141e+01  -5.103847e+00
  -6.287272e+01  -1.788735e+01
  -4.126437e+01  -2.724124e+01
   3.038728e+01  -1.972604e+01
   1.490201e+01  -2.717750e+01
  -6.643153e+01   2.417298e+01
  -3.005992e+01  -2.048196e+01
  -1.215184e+01  -1.757544e+01
  -1.032344e+00  -6.879499e+01
   7.410732e+01  -3.491430e+01
   1.738120e+01  -2.314305e+01
   6.764999e+01   5.277443e+01
  -1.615670e+01   3.460816e+01
  -3.482461e+01   4.528953e+01
  -3.924653e+01  -3.636950e+01
   1.832661e+01  -2.142184e+01
   1.265455e+01  -5.415439e+01
  -1.911009e+01   1.816164e+01
   2.348427e+01   1.266737e+00
   3.977579e+01  -9.981577e+00
  -3.237285e+01   3.668956e+01
  -1.564644e+01   3.339475e+01
  -3.210108e+01   5.703286e+01
  -7.655940e+00   3.061994e+01
  -3.096366e+01  -2.048595e+01
  -5.592933e+01  -6.894776e+00
  -2.320431e+01  -1.470382e+01
   3.747943e+01  -2.414949e+01
   4.828412e+01  -9.012663e+00
  -2.891401e+01  -1.957233e+01
  -4.371943e+01   4.545923e+00
   3.798411e+00   7.103674e+01
   5.743676e-01   2.642921e+01
   3.275311e+01  -5.907707e+00
  -2.483927e+01   1.256135e+01
  -3.874909e+01  -1.934049e+01
   4.286931e+01  -1.251318e+01
   6.883197e+01  -1.004440e+01
   7.339358e+01  -9.366151e+00
   4.063728e+01   5.755477e+01
   5.232930e+01  -7.101657e+00
  -1.727960e+01   1.833852e+01
  -3.995806e+01   4.911748e+01
  -1.715086e+01   3.430064e+01
  -2.296900e+01   1.720562e+01
  -1.701894e+00  -3.091457e+01
   2.321323e+01  -1.922536e+01
   2.712935e+01  -2.220289e+01
  -8.465755e+00  -5.362584e+01
   3.893589e+01   4.337432e+00
   3.641102e+01   4.185891e+00
   6.662817e+01   6.054686e+01
   3.184716e+01   1.275126e+01
  -1.035994e+01   5.416350e+01
  -3.824499e+01  -1.770259e+01
  -7.859197e+01   9.293433e+00
  -5.369335e+01  -2.947023e+01
   3.558412e+01  -4.690315e+00
   2.476375e+01   2.119280e+01
  -5.220758e+00  -4.583143e+00
   6.407693e+00   3.875162e+01
   1.392067e+01   1.926341e+01
   1.177144e+01  -9.546723e+00
  -1.307191e+00  -2.869673e+01
  -5.755172e+01   4.543606e+01
  -1.475484e+01  -1.436835e+01
  -6.269816e+01   1.135789e+01
   3.780645e+01  -6.909219e+01
   2.950787e+01  -3.249801e+00
   3.065721e+01  -1.765863e+01
  -4.261988e+01   1.504052e+01
   1.592945e+01   1.338037e+00
  -1.307072e+01   1.660275e+01
  -1.340225e+01  -2.851524e+01
  -2.931170e+01  -2.175387e+01
   2.853692e+01   1.676207e+01
   4.702720e+00   3.315853e+01
   7.677719e+00  -6.016660e+01
   9.320454e+00   3.545607e+00
   9.961774e+00   4.947598e+00
  -2.180528e+01   9.838143e+00
  -1.915724e+01  -3.244169e+00
  -1.857565e+01   3.869424e+01
  -3.174408e+01  -2.755813e+01
   2.331858e+01  -4.948676e+01
  -2.789925e+01  -5.745295e+00
   3.284341e+01   1.697724e+01
   2.539284e+00   2.608932e+01
  -4.149455e+01   4.477165e+01
   2.754674e-01  -3.288771e+01
  -1.508085e+01  -9.968180e+00
   5.792829e+01   1.213270e+01
   1.373897e+01   4.027334e+01
   3.367715e+01   3.423000e+00
  -5.361218e+01   1.154451e+00
   3.860617e+00  -2.023497e+00
  -1.597314e+01   6.369309e+00
   4.077827e+01  -8.025693e+00
