
 $NMID
 id='ANONYMOUS ', fmtdat='(2E16.6)'
 volume=1.0
 tramp=1.0
 $END
  -9.696109e+06   1.114901e+06
  -7.443217e+06  -3.886667e+06
  -8.824896e+05  -6.482288e+06
   4.143308e+06  -4.850807e+06
   4.007247e+06  -7.180689e+05
   4.483057e+05   2.036147e+06
  -2.234603e+06   1.188488e+06
  -1.850025e+06  -1.667280e+06
   3.608679e+05  -3.063749e+06
   1.964117e+06  -1.476975e+06
   1.754952e+06   1.242829e+06
   2.878480e+05   2.165818e+06
  -9.685718e+05   4.941529e+05
  -8.426978e+05  -1.784539e+06
   5.424684e+05  -2.197358e+06
   1.757789e+06  -3.427256e+05
   1.424355e+06   1.922948e+06
  -2.877358e+05   2.560214e+06
  -1.813357e+06   1.302318e+06
  -1.907325e+06  -4.320184e+05
  -8.817463e+05  -1.229659e+06
  -3.317279e+04  -9.947872e+05
  -1.532537e+05  -6.590056e+05
  -7.942347e+05  -9.317213e+05
  -8.348088e+05  -1.554379e+06
   3.294418e+05  -1.702654e+06
   2.013578e+06  -9.292344e+05
   2.690378e+06   3.479185e+05
   1.522753e+06   1.212872e+06
  -5.133899e+05   1.061378e+06
  -1.454493e+06   1.188333e+05
  -4.907719e+05  -7.475818e+05
   1.120257e+06  -7.427373e+05
   1.587623e+06   1.837657e+05
   6.350197e+05   1.245211e+06
  -4.749456e+05   1.461463e+06
  -6.749948e+05   5.986677e+05
  -1.719204e+05  -4.829062e+05
   2.067691e+05  -6.278611e+05
   7.389627e+04   3.169084e+05
  -3.755030e+05   1.199264e+06
  -7.811313e+05   8.385124e+05
  -7.959318e+05  -5.010327e+05
  -2.032148e+05  -1.312697e+06
   6.931219e+05  -6.174037e+05
   1.010002e+06   8.472336e+05
   1.404335e+05   1.482808e+06
  -1.315681e+06   6.308334e+05
  -1.926579e+06  -8.289789e+05
  -9.417785e+05  -1.562328e+06
   8.109984e+05  -1.086736e+06
   1.746748e+06   1.311810e+04
   1.130236e+06   8.033154e+05
  -2.763270e+05   7.675785e+05
  -1.088777e+06   1.117479e+05
  -6.851497e+05  -4.633940e+05
   2.779882e+05  -3.912042e+05
   6.527565e+05   1.973623e+05
   5.560868e+04   5.967499e+05
  -7.287867e+05   3.104066e+05
  -6.657862e+05  -3.778867e+05
   2.914402e+05  -7.213255e+05
   1.091978e+06  -3.068987e+05
   7.673867e+05   5.724944e+05
  -4.848535e+05   1.229875e+06
  -1.558262e+06   1.125640e+06
  -1.634518e+06   2.259493e+05
  -8.975155e+05  -9.409706e+05
  -1.084454e+05  -1.618529e+06
   2.518079e+05  -1.451277e+06
   3.019871e+05  -8.262316e+05
   4.076542e+05  -4.091990e+05
   7.127618e+05  -3.370177e+05
   1.009173e+06  -1.293343e+05
   9.535723e+05   5.074723e+05
   4.013254e+05   1.097358e+06
  -3.927272e+05   9.105106e+05
  -8.886315e+05  -6.623626e+04
  -6.727986e+05  -9.961583e+05
   1.453028e+05  -1.071025e+06
   9.512243e+05  -3.090956e+05
   1.128049e+06   5.874759e+05
   6.109304e+05   9.879889e+05
  -7.511622e+04   8.311387e+05
  -3.833214e+05   4.976336e+05
  -3.319484e+05   3.506113e+05
  -4.235287e+05   3.991962e+05
  -9.395561e+05   3.323257e+05
  -1.449194e+06  -1.291176e+05
  -1.209621e+06  -8.804535e+05
  -7.292683e+04  -1.438325e+06
   1.181797e+06  -1.338719e+06
   1.562430e+06  -5.684095e+05
   8.633458e+05   3.701514e+05
  -1.557752e+05   8.322301e+05
  -5.722877e+05   5.567871e+05
  -1.786012e+05  -8.772781e+04
   4.468799e+05  -4.196681e+05
   6.225517e+05  -1.254436e+05
   2.275596e+05   3.786183e+05
  -2.641556e+05   4.103330e+05
  -3.082085e+05  -1.185454e+05
   1.722785e+05  -5.028403e+05
   7.092628e+05  -6.822346e+04
   7.109665e+05   9.338551e+05
   4.560979e+03   1.505022e+06
  -9.685472e+05   9.900835e+05
  -1.486984e+06  -2.130832e+05
  -1.150985e+06  -1.111069e+06
  -2.384723e+05  -1.125166e+06
   5.245999e+05  -5.306552e+05
   6.136072e+05  -1.446023e+04
   1.801823e+05   2.283774e+04
  -1.388406e+05  -2.629525e+05
   7.911427e+04  -4.310930e+05
   5.719517e+05  -2.211064e+05
   7.000346e+05   2.054369e+05
   2.166260e+05   4.412169e+05
  -3.886124e+05   2.572105e+05
  -4.122797e+05  -1.464606e+05
   2.452636e+05  -3.291126e+05
   9.120263e+05  -4.663845e+04
   8.405791e+05   5.060394e+05
   4.049492e+03   8.661096e+05
  -8.694131e+05   7.069730e+05
  -1.033586e+06   1.272457e+05
  -4.383187e+05  -4.097835e+05
   2.830668e+05  -4.691078e+05
   4.685522e+05  -6.265623e+04
   3.421889e+04   3.318924e+05
  -5.208121e+05   2.537265e+05
  -6.381525e+05  -2.325689e+05
  -2.176126e+05  -6.006711e+05
   3.304551e+05  -4.622187e+05
   5.029957e+05  -2.657249e+03
   1.898054e+05   2.562298e+05
  -2.230734e+05   5.528163e+04
  -2.407012e+05  -3.450389e+05
   2.213945e+05  -4.800986e+05
   7.156826e+05  -1.559317e+05
   7.055298e+05   3.924130e+05
   1.361694e+05   7.306766e+05
  -4.873771e+05   5.949740e+05
  -6.205146e+05   1.120360e+05
  -2.309210e+05  -3.044309e+05
   2.164971e+05  -3.267873e+05
   2.862002e+05  -2.526772e+04
   2.214069e+03   2.241265e+05
  -2.529951e+05   1.653474e+05
  -1.897816e+05  -5.882513e+04
   9.277896e+04  -1.043617e+05
   2.346633e+05   1.420783e+05
  -2.051905e+03   4.107959e+05
  -4.704702e+05   3.384303e+05
  -7.447583e+05  -1.387047e+05
  -5.156272e+05  -6.952472e+05
   9.162514e+04  -8.967719e+05
   6.140924e+05  -5.788815e+05
   6.945937e+05   6.910943e+03
   4.090783e+05   4.152246e+05
   1.246793e+05   4.120273e+05
   7.031513e+04   1.748346e+05
   1.214510e+05   6.481212e+04
   1.577994e+04   2.036794e+05
  -2.923392e+05   3.373941e+05
  -5.466475e+05   1.568473e+05
  -4.414577e+05  -2.956206e+05
   6.077720e+04  -6.145496e+05
   6.413394e+05  -4.379006e+05
   8.469642e+05   1.696012e+05
   4.594429e+05   7.505794e+05
  -2.881324e+05   8.575363e+05
  -8.704695e+05   4.342310e+05
  -9.055304e+05  -1.621871e+05
  -4.688281e+05  -5.004427e+05
   2.288083e+04  -4.557907e+05
   2.283298e+05  -2.712692e+05
   1.648464e+05  -2.455323e+05
   1.000431e+05  -3.846261e+05
   2.188494e+05  -4.065604e+05
   4.261480e+05  -9.542463e+04
   4.605986e+05   4.041685e+05
   1.836254e+05   6.951435e+05
  -2.435617e+05   5.200213e+05
  -4.784426e+05   1.323001e+04
  -3.198814e+05  -4.303355e+05
   8.014611e+04  -5.067426e+05
   3.558346e+05  -2.306091e+05
   2.951336e+05   1.343200e+05
   4.203258e+04   3.312022e+05
  -9.240459e+04   3.080753e+05
   6.133871e+03   2.001553e+05
   1.303224e+05   1.475141e+05
   2.246379e+03   1.471301e+05
  -3.818630e+05   8.539828e+04
  -6.941322e+05  -1.047824e+05
  -5.842440e+05  -3.458902e+05
  -5.318751e+04  -4.761136e+05
   5.005474e+05  -3.932715e+05
   6.451985e+05  -1.454901e+05
   3.362629e+05   9.693434e+04
  -5.862487e+04   1.673892e+05
  -1.659830e+05   4.712228e+04
   1.653371e+04  -9.792470e+04
   1.936135e+05  -7.012976e+04
   1.618312e+05   1.314116e+05
   1.707421e+04   2.780782e+05
  -3.081651e+04   1.737135e+05
   6.357297e+04  -7.553959e+04
   1.569120e+05  -1.528350e+05
   1.057699e+05   7.872869e+04
  -9.585402e+04   3.714306e+05
  -3.262862e+05   3.649342e+05
  -4.097236e+05   1.835939e+04
  -2.242026e+05  -3.312097e+05
   1.522893e+05  -3.484502e+05
   4.086212e+05  -5.354375e+04
   2.497255e+05   2.356332e+05
  -2.466645e+05   2.464716e+05
  -6.135158e+05  -1.423857e+04
  -4.497054e+05  -3.159696e+05
   1.275274e+05  -4.194116e+05
   5.802063e+05  -2.544322e+05
   5.145094e+05   3.634158e+04
   7.817319e+04   2.086807e+05
  -2.348705e+05   1.281438e+05
  -1.206838e+05  -8.549469e+04
   2.433610e+05  -1.513410e+05
   4.199563e+05   8.607702e+04
   1.739719e+05   4.565874e+05
  -2.993985e+05   5.868181e+05
  -5.836389e+05   2.626249e+05
  -4.492496e+05  -3.178292e+05
  -4.439076e+04  -6.791771e+05
   2.931884e+05  -5.057483e+05
   3.574206e+05   3.562743e+04
   1.913805e+05   4.445066e+05
  -3.884447e+04   3.934289e+05
  -1.938867e+05   5.111703e+04
  -2.073124e+05  -1.571724e+05
  -1.020385e+05  -7.065465e+04
  -4.053516e+03   5.138789e+04
  -4.186693e+04  -7.410613e+04
  -1.585008e+05  -3.478899e+05
  -1.131154e+05  -4.194151e+05
   2.099001e+05  -1.572475e+05
   5.526832e+05   1.906957e+05
   5.170017e+05   3.303310e+05
   6.796973e+04   2.512306e+05
  -3.647123e+05   1.356701e+05
  -3.855833e+05   7.151653e+04
  -9.962480e+04   6.305727e+03
   7.335286e+04  -7.644797e+04
  -3.116305e+04  -1.079109e+05
  -1.463866e+05  -7.296795e+04
   4.543887e+03  -4.894521e+04
   3.022034e+05  -5.028672e+04
   3.769275e+05   3.368528e+04
   7.219652e+04   2.428640e+05
  -3.747262e+05   3.844292e+05
  -5.975150e+05   2.190184e+05
  -4.441152e+05  -2.032313e+05
  -5.733923e+04  -5.294644e+05
   2.872393e+05  -4.783405e+05
   3.883009e+05  -1.456916e+05
   2.409090e+05   1.251596e+05
   2.131937e+04   1.290787e+05
  -6.801371e+04  -1.337410e+04
   1.736346e+04  -4.227328e+04
   1.311856e+05   1.265456e+05
   1.006907e+05   3.028738e+05
  -8.440421e+04   2.353002e+05
  -2.546403e+05  -8.997888e+04
  -2.232492e+05  -3.919561e+05
   2.885822e+04  -3.699491e+05
   3.062387e+05  -2.744752e+04
   3.478078e+05   3.257513e+05
   7.752074e+04   4.004876e+05
  -2.776148e+05   1.994221e+05
  -3.835901e+05  -5.775153e+04
  -1.607363e+05  -1.963834e+05
   1.074955e+05  -1.993838e+05
   1.028304e+05  -1.234356e+05
  -1.335691e+05  -3.099407e+04
  -2.500661e+05  -5.749301e+03
  -3.394137e+04  -1.054540e+05
   3.160396e+05  -2.423148e+05
   4.387379e+05  -2.158822e+05
   2.377880e+05   3.815020e+04
  -5.203715e+04   3.005606e+05
  -1.770556e+05   2.921361e+05
  -1.114329e+05   2.511703e+04
   1.447729e+04  -1.927690e+05
   1.012857e+05  -1.306459e+05
   1.246307e+05   1.002228e+05
   7.669530e+04   2.175966e+05
  -3.336302e+04   1.188049e+05
  -1.393966e+05  -4.036324e+04
  -1.596837e+05  -8.236536e+04
  -9.008347e+04  -1.523857e+04
  -6.131241e+03   2.221061e+04
   3.671545e+04  -4.687253e+04
   5.975128e+04  -1.491814e+05
   1.010456e+05  -1.488628e+05
   1.379012e+05   5.425142e+02
   1.035345e+05   1.888428e+05
  -2.534190e+04   2.389749e+05
  -1.737146e+05   8.586226e+04
  -2.091229e+05  -1.383218e+05
  -6.016736e+04  -2.287632e+05
   1.805599e+05  -1.201983e+05
   2.971322e+05   5.911143e+04
   1.572229e+05   1.472079e+05
  -1.118193e+05   1.122428e+05
  -2.245132e+05   3.705333e+04
  -6.113466e+04  -9.109232e+02
   1.682157e+05   1.770268e+04
   1.609923e+05   7.708321e+04
  -1.055988e+05   1.264694e+05
  -3.366078e+05   7.759775e+04
