
 $NMID
 id='ANONYMOUS ', fmtdat='(2E16.6)'
 volume=1.0
 tramp=1.0
 $END
   7.319991e+06   2.816908e+06
   3.986480e+06   3.682390e+06
  -5.278335e+05   3.965804e+06
  -3.473252e+06   3.416677e+06
  -3.218545e+06   1.126833e+06
  -5.343039e+05  -1.398047e+06
   1.840316e+06  -1.320805e+06
   1.743113e+06   1.286364e+06
  -2.563813e+05   2.940539e+06
  -1.742160e+06   1.338155e+06
  -1.284436e+06  -1.550331e+06
   2.604411e+05  -2.212521e+06
   1.130546e+06  -5.655650e+04
   5.660155e+05   2.263985e+06
  -7.520221e+05   2.277165e+06
  -1.519330e+06   1.777887e+05
  -8.913321e+05  -1.891662e+06
   7.314995e+05  -2.110863e+06
   1.859503e+06  -5.144109e+05
   1.357605e+06   1.203791e+06
  -1.353456e+05   1.427050e+06
  -7.881799e+05   3.781272e+05
   1.944092e+05  -1.645573e+05
   1.491517e+06   8.447937e+05
   1.220551e+06   2.283289e+06
  -8.163783e+05   2.270763e+06
  -2.871786e+06   5.402232e+05
  -3.047598e+06  -1.350946e+06
  -1.099350e+06  -1.902305e+06
   1.322933e+06  -9.941622e+05
   2.070648e+06   4.840251e+05
   4.860884e+05   1.462248e+06
  -1.782374e+06   1.148994e+06
  -2.353343e+06  -4.105442e+05
  -7.488161e+05  -1.944140e+06
   1.058446e+06  -1.909361e+06
   1.108486e+06  -3.086263e+05
  -1.929253e+05   1.053834e+06
  -9.143215e+05   6.546054e+05
  -2.449788e+05  -8.963091e+05
   7.814576e+05  -1.695148e+06
   1.048458e+06  -8.958052e+05
   6.567356e+05   4.728562e+05
   2.099452e+05   9.423339e+05
  -1.221669e+05   2.146585e+05
  -2.562300e+05  -7.780817e+05
   2.104454e+05  -9.589248e+05
   1.241201e+06  -6.190384e+04
   1.776309e+06   1.198576e+06
   8.465044e+05   1.743957e+06
  -9.472139e+05   1.102625e+06
  -1.909407e+06  -1.212136e+05
  -1.224044e+06  -8.576059e+05
   2.040673e+05  -6.483383e+05
   9.551175e+05   2.726853e+04
   5.726870e+05   4.226597e+05
  -2.898395e+05   2.483658e+05
  -7.040143e+05  -2.593369e+05
  -2.642380e+05  -6.605875e+05
   5.752432e+05  -5.995005e+05
   8.438781e+05  -6.823123e+04
   1.007564e+05   4.431971e+05
  -8.154044e+05   3.111603e+05
  -5.839414e+05  -4.792661e+05
   8.934461e+05  -1.134155e+06
   2.158042e+06  -8.460671e+05
   1.917930e+06   2.991192e+05
   5.936546e+05   1.424280e+06
  -3.814133e+05   1.804639e+06
  -4.126968e+05   1.496817e+06
  -2.103411e+05   1.047447e+06
  -5.467430e+05   7.910303e+05
  -1.258253e+06   5.361613e+05
  -1.629000e+06  -9.915696e+04
  -1.248948e+06  -1.070307e+06
  -2.733843e+05  -1.686411e+06
   7.775211e+05  -1.208282e+06
   1.249517e+06   2.158531e+05
   7.399362e+05   1.421993e+06
  -4.212910e+05   1.323758e+06
  -1.275585e+06   7.819159e+04
  -1.128391e+06  -1.105213e+06
  -2.641858e+05  -1.302697e+06
   4.334338e+05  -7.335365e+05
   4.919063e+05  -2.385341e+05
   2.775045e+05  -2.401331e+05
   4.458944e+05  -4.331651e+05
   1.127716e+06  -2.938596e+05
   1.691235e+06   3.634731e+05
   1.305991e+06   1.242799e+06
  -1.490088e+05   1.760387e+06
  -1.711196e+06   1.445447e+06
  -2.094740e+06   3.822504e+05
  -1.010165e+06  -7.191132e+05
   4.379260e+05  -1.077372e+06
   8.982477e+05  -5.642051e+05
   1.923645e+05   1.847535e+05
  -6.665094e+05   4.195654e+05
  -7.487697e+05   3.501982e+03
  -1.364544e+05  -5.033031e+05
   4.234249e+05  -4.543820e+05
   3.976924e+05   1.642554e+05
  -1.542293e+05   6.231495e+05
  -7.563927e+05   1.792580e+05
  -8.310643e+05  -9.988660e+05
  -8.290722e+04  -1.795322e+06
   1.114812e+06  -1.263560e+06
   1.833447e+06   2.735802e+05
   1.412708e+06   1.494173e+06
   1.990894e+05   1.479044e+06
  -7.570550e+05   5.974880e+05
  -7.859428e+05  -9.242635e+04
  -2.163695e+05  -5.377300e+04
   1.206567e+05   3.445470e+05
  -1.678302e+05   4.695786e+05
  -6.881806e+05   1.329717e+05
  -7.595672e+05  -3.417259e+05
  -1.786840e+05  -5.179592e+05
   5.040437e+05  -2.369922e+05
   5.054300e+05   2.402433e+05
  -3.141688e+05   4.162321e+05
  -1.156505e+06   5.631256e+03
  -1.050680e+06  -7.178686e+05
   5.826667e+04  -1.110379e+06
   1.172319e+06  -7.831606e+05
   1.290510e+06  -8.121119e+03
   4.467272e+05   5.484270e+05
  -4.268747e+05   4.713916e+05
  -5.355274e+05  -3.849887e+04
   6.064622e+04  -3.954736e+05
   6.778947e+05  -2.006115e+05
   7.297536e+05   3.712447e+05
   1.985033e+05   7.401939e+05
  -4.250777e+05   5.240868e+05
  -5.922493e+05  -3.075685e+04
  -2.027976e+05  -3.053550e+05
   2.652640e+05  -9.888943e+03
   2.205713e+05   4.812948e+05
  -3.816244e+05   5.604239e+05
  -9.309742e+05   5.623841e+04
  -8.011465e+05  -6.184254e+05
  -3.882881e+04  -9.147051e+05
   6.803253e+05  -6.374168e+05
   7.556527e+05  -4.821479e+04
   2.345526e+05   3.851077e+05
  -3.074499e+05   3.586799e+05
  -3.714670e+05  -1.629283e+04
   8.413204e+03  -3.098019e+05
   3.622925e+05  -2.163206e+05
   2.991986e+05   9.117294e+04
  -7.607397e+04   1.620945e+05
  -2.737197e+05  -1.575278e+05
   3.621428e+04  -4.901951e+05
   6.231792e+05  -3.507141e+05
   8.990555e+05   2.873129e+05
   5.221496e+05   9.443210e+05
  -2.527926e+05   1.101783e+06
  -8.376075e+05   6.473644e+05
  -8.722059e+05  -7.687528e+04
  -5.012715e+05  -5.734047e+05
  -1.444049e+05  -5.826993e+05
  -5.224034e+04  -2.866993e+05
  -9.634402e+04  -1.089701e+05
   2.586917e+04  -2.364667e+05
   3.954676e+05  -3.829518e+05
   7.074367e+05  -1.456249e+05
   5.497992e+05   4.264950e+05
  -1.278675e+05   7.857262e+05
  -8.605902e+05   4.770574e+05
  -1.039723e+06  -3.302184e+05
  -4.646275e+05  -9.893073e+05
   4.690446e+05  -9.962937e+05
   1.111826e+06  -4.048469e+05
   1.088644e+06   3.031065e+05
   5.446245e+05   6.640402e+05
  -5.267021e+04   5.858517e+05
  -3.333219e+05   3.543794e+05
  -2.984054e+05   3.033453e+05
  -2.292562e+05   4.414366e+05
  -3.406251e+05   4.373438e+05
  -5.309822e+05   3.113596e+04
  -4.988884e+05  -5.839120e+05
  -1.102838e+05  -8.960702e+05
   3.922048e+05  -6.060965e+05
   5.941434e+05   5.566244e+04
   3.256421e+05   5.665873e+05
  -1.590334e+05   5.977966e+05
  -4.335939e+05   2.393272e+05
  -3.154010e+05  -1.730750e+05
  -1.406196e+04  -3.755279e+05
   1.248134e+05  -3.492519e+05
  -3.581048e+01  -2.531461e+05
  -1.399836e+05  -2.148575e+05
   1.940613e+04  -1.908523e+05
   4.730149e+05  -4.565983e+04
   8.265246e+05   2.429552e+05
   6.625430e+05   5.119911e+05
  -2.014664e+03   5.695692e+05
  -6.645471e+05   3.822221e+05
  -8.017614e+05   8.566881e+04
  -3.889415e+05  -1.395262e+05
   9.588272e+04  -1.774486e+05
   1.982593e+05  -4.060768e+04
  -5.199811e+04   1.069130e+05
  -2.602732e+05   6.003994e+04
  -1.775846e+05  -1.883570e+05
   3.785885e+04  -3.670912e+05
   8.496351e+04  -2.245364e+05
  -8.360585e+04   1.034594e+05
  -2.283493e+05   1.966743e+05
  -1.287721e+05  -1.125806e+05
   1.818117e+05  -4.679170e+05
   4.703822e+05  -4.016911e+05
   5.026125e+05   7.372351e+04
   2.031417e+05   4.674982e+05
  -2.591493e+05   3.906620e+05
  -5.164804e+05  -2.743589e+04
  -2.751052e+05  -3.407391e+05
   3.354369e+05  -2.688579e+05
   7.618083e+05   9.336177e+04
   5.368874e+05   4.378497e+05
  -1.890867e+05   5.073829e+05
  -7.477458e+05   2.617102e+05
  -6.448936e+05  -9.715247e+04
  -7.896012e+04  -2.699663e+05
   3.036282e+05  -1.293780e+05
   1.238435e+05   1.254546e+05
  -3.466536e+05   1.455623e+05
  -5.187446e+05  -1.938092e+05
  -1.290694e+05  -6.188545e+05
   4.951852e+05  -6.900989e+05
   7.890340e+05  -2.274183e+05
   5.140552e+05   4.753628e+05
  -5.056906e+04   8.611920e+05
  -4.382290e+05   5.975892e+05
  -4.369324e+05  -8.481041e+04
  -1.820543e+05  -5.758586e+05
   8.818233e+04  -4.850729e+05
   2.424098e+05  -3.671567e+04
   2.495778e+05   2.252424e+05
   1.327244e+05   1.008002e+05
   4.268879e+03  -6.343566e+04
   1.349192e+04   1.039325e+05
   1.317101e+05   4.607793e+05
   9.346447e+04   5.327350e+05
  -2.653534e+05   1.527279e+05
  -6.635536e+05  -3.236595e+05
  -6.108722e+05  -4.829679e+05
  -4.622464e+04  -3.206175e+05
   4.921750e+05  -1.209472e+05
   4.954735e+05  -3.799287e+04
   1.084806e+05   7.047163e+03
  -1.097102e+05   8.513977e+04
   4.553529e+04   1.364486e+05
   1.970171e+05   1.136315e+05
  -1.999704e+04   6.853777e+04
  -4.114908e+05   2.089732e+04
  -4.687466e+05  -1.115301e+05
  -2.259462e+04  -3.314981e+05
   5.564203e+05  -4.206772e+05
   7.810961e+05  -1.550185e+05
   5.085073e+05   3.520468e+05
  -1.914298e+04   6.808658e+05
  -4.382414e+05   5.443494e+05
  -5.203159e+05   1.070626e+05
  -2.919254e+05  -2.059077e+05
   2.842300e+03  -1.719479e+05
   1.062417e+05   2.747209e+04
  -1.498462e+04   5.824604e+04
  -1.481511e+05  -1.700115e+05
  -8.186520e+04  -3.920826e+05
   1.526227e+05  -2.789983e+05
   3.159591e+05   1.660781e+05
   2.112042e+05   5.477530e+05
  -1.185806e+05   4.696553e+05
  -4.096796e+05  -2.609798e+04
  -3.866944e+05  -4.849764e+05
  -1.922383e+04  -5.218205e+05
   3.928021e+05  -1.939507e+05
   4.674473e+05   1.470873e+05
   1.516949e+05   2.698003e+05
  -1.788050e+05   2.173266e+05
  -1.401779e+05   1.238675e+05
   1.808370e+05   5.492354e+04
   3.189529e+05   4.787746e+04
   1.832902e+04   1.387420e+05
  -4.350021e+05   2.530684e+05
  -5.650759e+05   1.993689e+05
  -2.682682e+05  -8.617430e+04
   1.209405e+05  -3.626919e+05
   2.619022e+05  -3.213424e+05
   1.370218e+05   8.043663e+03
  -5.337482e+04   2.510850e+05
  -1.573691e+05   1.414249e+05
  -1.502018e+05  -1.587813e+05
  -5.822879e+04  -2.879112e+05
   7.409929e+04  -1.339878e+05
   1.715342e+05   8.041200e+04
   1.747570e+05   1.241717e+05
   1.042375e+05   2.567593e+04
   2.598532e+04  -2.151852e+04
  -3.792252e+04   7.409050e+04
  -1.124357e+05   1.990875e+05
  -1.886651e+05   1.740546e+05
  -1.987739e+05  -4.207213e+04
  -9.190347e+04  -2.829731e+05
   9.398148e+04  -3.150324e+05
   2.441701e+05  -7.713069e+04
   2.371737e+05   2.242986e+05
   3.426018e+04   3.081893e+05
  -2.446275e+05   1.158065e+05
  -3.597423e+05  -1.364219e+05
  -1.685981e+05  -2.147423e+05
   1.667887e+05  -1.115332e+05
   2.930238e+05   6.800482e+03
   6.707969e+04   2.088129e+04
  -2.306571e+05  -5.156839e+04
  -2.051490e+05  -1.349999e+05
   1.598109e+05  -1.581844e+05
   4.557464e+05  -5.397290e+04
