
 $NMID
 id='ANONYMOUS ', fmtdat='(2E16.6)'
 volume=1.0
 tramp=1.0
 $END
   4.913034e+07   1.116988e+06
   2.919062e+07   3.041718e+07
  -6.630773e+06   3.292747e+07
  -2.410997e+07   1.299702e+07
  -1.460074e+07  -5.668122e+06
   2.673973e+06  -8.158559e+06
   8.691032e+06   7.229843e+05
   2.730664e+06   8.520619e+06
  -5.295064e+06   8.554289e+06
  -8.543200e+06   1.974852e+06
  -6.171787e+06  -5.639551e+06
  -5.807219e+05  -7.800369e+06
   3.658117e+06  -2.304354e+06
   2.336780e+06   5.160005e+06
  -3.378729e+06   6.060787e+06
  -6.984147e+06  -1.119703e+06
  -3.895920e+06  -9.076997e+06
   3.436785e+06  -1.042271e+07
   9.003691e+06  -5.027130e+06
   9.415880e+06   2.105686e+06
   5.474843e+06   6.701820e+06
   3.165673e+05   7.362283e+06
  -2.433598e+06   5.013386e+06
  -1.177605e+06   2.462273e+06
   1.246498e+06   2.409277e+06
  -1.396519e+04   4.102147e+06
  -5.305866e+06   3.808981e+06
  -8.909099e+06   2.223075e+04
  -6.183161e+06  -3.992956e+06
   1.538471e+05  -4.513990e+06
   3.674992e+06  -2.024230e+06
   2.212721e+06   3.809059e+05
  -9.738830e+05   1.100723e+06
  -2.540863e+06   3.075237e+05
  -2.049799e+06  -1.727011e+06
  -2.943065e+05  -3.820406e+06
   1.828814e+06  -3.313840e+06
   2.670460e+06   3.866210e+05
   1.175944e+06   3.237306e+06
  -7.343057e+05   1.370997e+06
  -7.721223e+04  -2.517499e+06
   2.349826e+06  -2.160178e+06
   2.209476e+06   2.811338e+06
  -2.009494e+06   5.366283e+06
  -5.853863e+06   8.593509e+05
  -4.309178e+06  -6.037307e+06
   1.710570e+06  -7.379256e+06
   6.564366e+06  -1.995756e+06
   6.270059e+06   4.082360e+06
   1.741764e+06   5.525402e+06
  -3.174728e+06   2.550568e+06
  -4.907566e+06  -1.332957e+06
  -2.346604e+06  -3.160472e+06
   2.082360e+06  -2.002266e+06
   4.040434e+06   8.002615e+05
   1.776627e+06   2.398566e+06
  -1.519089e+06   1.205603e+06
  -1.643200e+06  -9.347835e+05
   1.032909e+06  -9.374033e+05
   2.213239e+06   1.314764e+06
  -3.063298e+05   2.848069e+06
  -3.852454e+06   1.680065e+06
  -4.647649e+06  -1.079684e+06
  -2.074769e+06  -3.470179e+06
   1.782030e+06  -4.709702e+06
   4.808026e+06  -4.265513e+06
   5.720973e+06  -1.352577e+06
   3.987356e+06   3.057087e+06
   6.604935e+05   5.668221e+06
  -1.692267e+06   4.394827e+06
  -1.538689e+06   1.300923e+06
  -2.847601e+05   6.917396e+03
  -3.228534e+05   9.723738e+05
  -1.797004e+06   1.471588e+06
  -2.705559e+06  -9.788522e+04
  -1.776946e+06  -2.086589e+06
   1.908459e+05  -2.134712e+06
   1.644833e+06  -1.157594e+05
   1.608416e+06   2.132922e+06
  -1.185975e+05   2.827218e+06
  -2.677544e+06   1.403524e+06
  -4.059990e+06  -1.318546e+06
  -2.761937e+06  -3.527706e+06
   1.700287e+05  -3.751723e+06
   2.061848e+06  -2.336179e+06
   1.958833e+06  -1.007935e+06
   1.665333e+06  -6.807371e+05
   2.782203e+06  -4.670649e+05
   4.113995e+06   7.624034e+05
   3.275110e+06   2.684374e+06
   4.861565e+04   3.954252e+06
  -3.184952e+06   3.662881e+06
  -4.096224e+06   1.874539e+06
  -2.514218e+06  -5.582104e+05
  -1.081965e+05  -2.178655e+06
   1.177414e+06  -1.784174e+06
   5.283435e+05   7.920382e+04
  -1.102503e+06   1.214479e+06
  -1.813705e+06   3.304914e+05
  -8.119093e+05  -1.157693e+06
   5.523125e+05  -1.062723e+06
   4.629578e+05   3.723442e+05
  -9.460334e+05   7.439042e+05
  -1.757941e+06  -1.057625e+06
  -7.388063e+05  -3.218046e+06
   1.348288e+06  -3.345525e+06
   2.957108e+06  -1.249157e+06
   3.271857e+06   1.317800e+06
   2.279317e+06   2.742908e+06
   4.202764e+05   2.601157e+06
  -1.259791e+06   1.392043e+06
  -1.547181e+06   1.619505e+05
  -4.757272e+05  -5.578959e+04
   3.306736e+05   7.308967e+05
  -4.053552e+05   1.260016e+06
  -1.806933e+06   5.138009e+05
  -1.921917e+06  -8.589134e+05
  -3.637474e+05  -1.342439e+06
   1.130426e+06  -5.375081e+05
   8.793233e+05   4.548884e+05
  -8.101231e+05   5.362737e+05
  -2.147253e+06  -2.950057e+05
  -1.737579e+06  -1.353035e+06
   2.452663e+05  -1.956670e+06
   2.279423e+06  -1.589638e+06
   2.697283e+06  -2.144141e+05
   1.144670e+06   1.230013e+06
  -9.049277e+05   1.398714e+06
  -1.472936e+06   1.424529e+05
  -1.508611e+05  -1.025973e+06
   1.473296e+06  -6.699119e+05
   1.646703e+06   7.764927e+05
   3.227101e+05   1.601745e+06
  -1.050071e+06   9.545642e+05
  -1.219247e+06  -2.882357e+05
  -2.512617e+05  -7.465631e+05
   7.493126e+05  -4.013690e+04
   6.765464e+05   1.029368e+06
  -6.001700e+05   1.355364e+06
  -1.957049e+06   4.638938e+05
  -1.937136e+06  -1.069736e+06
  -3.225527e+05  -2.010226e+06
   1.418432e+06  -1.556082e+06
   1.670619e+06  -1.776981e+05
   4.809992e+05   8.440956e+05
  -6.470018e+05   7.708547e+05
  -6.321258e+05   5.837716e+04
   1.086367e+05  -3.778318e+05
   5.076172e+05  -2.224020e+05
   1.697715e+05   7.740839e+04
  -4.064507e+05  -3.820715e+04
  -5.024524e+05  -6.264819e+05
   2.019177e+05  -1.138570e+06
   1.350066e+06  -8.410951e+05
   2.004928e+06   4.453819e+05
   1.370299e+06   1.914033e+06
  -2.673444e+05   2.347154e+06
  -1.602345e+06   1.355641e+06
  -1.660006e+06  -1.427134e+05
  -8.485130e+05  -9.131464e+05
  -3.038115e+05  -6.976202e+05
  -4.264243e+05  -2.596035e+05
  -5.636751e+05  -3.051804e+05
  -6.426586e+04  -7.198095e+05
   8.603315e+05  -8.589226e+05
   1.419558e+06  -2.979075e+05
   1.025962e+06   7.338474e+05
  -2.616807e+05   1.439189e+06
  -1.698583e+06   1.018942e+06
  -2.178909e+06  -5.165466e+05
  -1.065939e+06  -2.055560e+06
   1.006726e+06  -2.265736e+06
   2.466769e+06  -9.591658e+05
   2.276311e+06   6.642004e+05
   9.363330e+05   1.318364e+06
  -1.998299e+05   9.469228e+05
  -4.146509e+05   5.175264e+05
  -1.390609e+05   7.234361e+05
  -1.526940e+05   1.235688e+06
  -6.715443e+05   1.211834e+06
  -1.246375e+06   2.717694e+05
  -1.264112e+06  -1.080868e+06
  -4.915389e+05  -1.850550e+06
   6.400811e+05  -1.378123e+06
   1.248290e+06   2.652442e+04
   7.645995e+05   1.249376e+06
  -3.897047e+05   1.341357e+06
  -1.111085e+06   3.910796e+05
  -7.663413e+05  -6.556920e+05
   1.177021e+05  -1.017312e+06
   5.040787e+05  -7.496218e+05
   7.802682e+04  -4.149034e+05
  -4.061492e+05  -3.436155e+05
  -4.476798e+04  -3.766170e+05
   1.106993e+06  -1.807121e+05
   1.975460e+06   3.642259e+05
   1.542444e+06   1.031224e+06
  -5.017684e+04   1.373460e+06
  -1.542678e+06   1.060880e+06
  -1.772574e+06   2.414304e+05
  -8.036397e+05  -4.709160e+05
   2.557463e+05  -5.327426e+05
   4.895947e+05  -3.158645e+04
   1.162912e+04   3.938046e+05
  -4.444136e+05   2.365199e+05
  -4.566421e+05  -3.433168e+05
  -2.107264e+05  -7.130655e+05
  -6.481793e+04  -4.685195e+05
  -1.377920e+05   1.016074e+05
  -2.919705e+05   2.924951e+05
  -2.646262e+05  -2.306722e+05
   1.697542e+05  -9.601024e+05
   8.962749e+05  -1.009073e+06
   1.303958e+06  -1.258256e+05
   7.846472e+05   9.075953e+05
  -4.289893e+05   1.079207e+06
  -1.216502e+06   2.820401e+05
  -6.966917e+05  -5.780787e+05
   6.917806e+05  -6.166005e+05
   1.546566e+06   1.202425e+05
   9.780448e+05   8.565641e+05
  -4.767555e+05   9.621931e+05
  -1.469887e+06   4.525252e+05
  -1.206539e+06  -2.021128e+05
  -1.265175e+05  -5.057603e+05
   6.345721e+05  -2.535875e+05
   3.612798e+05   2.895613e+05
  -5.865346e+05   4.875807e+05
  -1.146508e+06  -1.143778e+05
  -6.153240e+05  -1.167564e+06
   6.229571e+05  -1.638503e+06
   1.468218e+06  -8.221133e+05
   1.205457e+06   7.678724e+05
   1.574404e+05   1.750444e+06
  -7.485145e+05   1.249519e+06
  -8.981816e+05  -1.852426e+05
  -4.001266e+05  -1.168011e+06
   2.265153e+05  -9.420529e+05
   5.460211e+05  -7.238734e+04
   4.509369e+05   3.785373e+05
   1.622880e+05   1.386337e+05
   4.676394e+04  -9.349154e+04
   2.569072e+05   2.901183e+05
   4.719870e+05   9.498785e+05
   1.696650e+05   1.054251e+06
  -6.961303e+05   3.694190e+05
  -1.427004e+06  -4.840751e+05
  -1.234194e+06  -8.411990e+05
  -1.656588e+05  -6.828647e+05
   8.441496e+05  -3.906969e+05
   9.633936e+05  -1.586045e+05
   3.463826e+05   5.750381e+04
  -1.477297e+05   2.167482e+05
  -3.433684e+04   2.003928e+05
   2.603514e+05   9.869774e+04
   4.494700e+04   1.312498e+05
  -6.532305e+05   2.164647e+05
  -1.019025e+06  -3.264573e+04
  -4.036796e+05  -6.836786e+05
   8.453914e+05  -1.130603e+06
   1.669265e+06  -7.020476e+05
   1.364731e+06   4.493595e+05
   2.411049e+05   1.375868e+06
  -7.732540e+05   1.324796e+06
  -1.033376e+06   5.036556e+05
  -6.348553e+05  -2.390387e+05
  -1.230762e+05  -3.520404e+05
   7.123568e+04  -6.386296e+04
  -7.840983e+04   1.487492e+04
  -2.856431e+05  -3.632202e+05
  -2.258226e+05  -7.913909e+05
   1.870000e+05  -6.585803e+05
   6.620869e+05   1.291004e+05
   7.049368e+05   9.396696e+05
   9.663438e+04   1.008392e+06
  -7.380456e+05   2.313217e+05
  -9.982536e+05  -7.179223e+05
  -3.227683e+05  -1.068373e+06
   7.066845e+05  -6.501843e+05
   1.090073e+06   9.129420e+04
   5.079520e+05   6.076935e+05
  -2.922876e+05   6.577197e+05
  -3.776968e+05   3.513981e+05
   2.394241e+05   1.091770e+04
   6.332826e+05  -2.820392e+04
   1.383982e+05   3.035064e+05
  -8.155510e+05   6.474379e+05
  -1.237365e+06   5.025354e+05
  -7.415404e+05  -1.886223e+05
   1.082543e+05  -8.467329e+05
   5.549646e+05  -8.254215e+05
   4.211785e+05  -1.518127e+05
   4.685881e+04   4.672320e+05
  -2.400831e+05   4.225113e+05
  -3.417585e+05  -1.459105e+05
  -2.391957e+05  -5.666864e+05
   5.808209e+04  -4.187376e+05
   3.809602e+05   4.808125e+04
   4.596015e+05   2.834107e+05
   2.342703e+05   9.978092e+04
  -3.197556e+04  -1.498900e+05
  -7.834835e+04  -4.888612e+04
   1.174788e+04   3.438986e+05
  -5.106430e+04   5.413453e+05
  -3.137440e+05   2.155435e+05
  -4.472355e+05  -3.733446e+05
  -1.502235e+05  -6.349153e+05
   4.010631e+05  -3.031904e+05
   6.470173e+05   2.800227e+05
   2.417189e+05   5.615853e+05
  -5.014126e+05   3.492808e+05
  -8.622970e+05  -8.493380e+04
  -4.629389e+05  -3.751532e+05
   2.927710e+05  -3.893339e+05
   6.283449e+05  -2.172385e+05
   2.482493e+05  -1.434878e+04
  -3.340590e+05   6.680280e+04
  -3.956110e+05  -6.187153e+04
   1.627977e+05  -2.793042e+05
   7.211907e+05  -2.562797e+05
