
 $NMID
 id='ANONYMOUS ', fmtdat='(2E16.6)'
 volume=1.0
 tramp=1.0
 $END
  -1.983131e+07   2.130262e+05
  -1.341396e+07  -8.995496e+06
  -2.637453e+05  -1.250343e+07
   8.393701e+06  -8.638436e+06
   7.276205e+06  -1.133840e+06
   6.064790e+05   3.597797e+06
  -4.040344e+06   2.023098e+06
  -3.244297e+06  -3.118368e+06
   7.494484e+05  -5.660899e+06
   3.717244e+06  -2.641608e+06
   3.343654e+06   2.573064e+06
   4.878849e+05   4.286517e+06
  -1.979360e+06   9.057590e+05
  -1.675755e+06  -3.567634e+06
   1.075613e+06  -4.245881e+06
   3.381773e+06  -5.000234e+05
   2.615655e+06   3.911189e+06
  -8.034756e+05   5.046849e+06
  -3.812835e+06   2.433747e+06
  -3.912205e+06  -1.155582e+06
  -1.624756e+06  -2.815785e+06
   3.292695e+05  -2.150858e+06
   3.312934e+04  -1.100237e+06
  -1.636807e+06  -1.485111e+06
  -1.988425e+06  -2.969800e+06
   5.010226e+05  -3.574908e+06
   4.190675e+06  -2.034477e+06
   5.598571e+06   7.378409e+05
   3.060183e+06   2.604389e+06
  -1.178007e+06   2.276408e+06
  -3.103869e+06   3.042120e+05
  -1.193742e+06  -1.570552e+06
   2.091366e+06  -1.749313e+06
   3.261839e+06   6.323938e+04
   1.565253e+06   2.418633e+06
  -7.588018e+05   3.099075e+06
  -1.447216e+06   1.301675e+06
  -4.937842e+05  -1.133719e+06
   5.154625e+05  -1.478852e+06
   4.241253e+05   6.378884e+05
  -5.851681e+05   2.551541e+06
  -1.524188e+06   1.735231e+06
  -1.464530e+06  -9.947251e+05
  -1.893733e+05  -2.413450e+06
   1.409064e+06  -8.239732e+05
   1.721874e+06   1.971042e+06
  -8.653769e+04   2.902155e+06
  -2.778043e+06   1.037582e+06
  -3.799109e+06  -1.763712e+06
  -1.838212e+06  -3.070911e+06
   1.561155e+06  -2.107301e+06
   3.385816e+06  -7.744400e+03
   2.187922e+06   1.463130e+06
  -5.391921e+05   1.346217e+06
  -2.066606e+06   1.114332e+05
  -1.240478e+06  -8.799727e+05
   5.847004e+05  -6.793246e+05
   1.255129e+06   3.549203e+05
   1.691733e+05   1.014664e+06
  -1.203109e+06   5.612612e+05
  -1.065834e+06  -5.371461e+05
   6.282944e+05  -1.127836e+06
   2.035152e+06  -4.600455e+05
   1.392367e+06   1.163701e+06
  -1.039715e+06   2.539649e+06
  -3.214781e+06   2.394683e+06
  -3.419147e+06   4.717815e+05
  -1.882391e+06  -2.018890e+06
  -2.079252e+05  -3.330937e+06
   4.706077e+05  -2.841432e+06
   4.347752e+05  -1.595948e+06
   6.271498e+05  -9.520384e+05
   1.397239e+06  -9.408867e+05
   2.170289e+06  -4.592056e+05
   2.120635e+06   9.712748e+05
   9.740587e+05   2.258624e+06
  -7.022655e+05   1.930851e+06
  -1.805007e+06  -2.169338e+04
  -1.448938e+06  -1.946887e+06
   2.292634e+05  -2.189286e+06
   1.966565e+06  -6.736282e+05
   2.373843e+06   1.216234e+06
   1.249375e+06   2.091087e+06
  -2.402134e+05   1.732357e+06
  -8.640801e+05   9.700987e+05
  -6.805841e+05   6.458415e+05
  -8.110631e+05   7.848344e+05
  -1.863704e+06   6.999092e+05
  -2.933493e+06  -2.010397e+05
  -2.491356e+06  -1.720213e+06
  -2.223695e+05  -2.909526e+06
   2.330691e+06  -2.805029e+06
   3.166850e+06  -1.275368e+06
   1.810682e+06   7.107886e+05
  -2.546709e+05   1.746987e+06
  -1.136055e+06   1.189482e+06
  -3.601097e+05  -1.808673e+05
   9.009179e+05  -8.745972e+05
   1.245867e+06  -2.504567e+05
   4.522394e+05   7.760823e+05
  -5.080217e+05   8.274383e+05
  -5.958714e+05  -2.126611e+05
   2.976409e+05  -9.512170e+05
   1.315663e+06  -1.311975e+05
   1.390394e+06   1.761491e+06
   1.291104e+05   2.883246e+06
  -1.769969e+06   1.989171e+06
  -2.931803e+06  -2.712253e+05
  -2.406816e+06  -2.076040e+06
  -5.949523e+05  -2.232010e+06
   1.015313e+06  -1.130780e+06
   1.242635e+06  -8.679110e+04
   3.618262e+05   2.846566e+04
  -2.851779e+05  -5.284624e+05
   1.678262e+05  -8.603596e+05
   1.152668e+06  -4.350696e+05
   1.383560e+06   4.065890e+05
   4.110406e+05   8.609416e+05
  -7.796023e+05   5.036267e+05
  -8.237294e+05  -2.823893e+05
   4.747132e+05  -6.703844e+05
   1.820819e+06  -1.618711e+05
   1.728685e+06   9.357068e+05
   8.416589e+04   1.727525e+06
  -1.693277e+06   1.483293e+06
  -2.067816e+06   3.236749e+05
  -8.874844e+05  -7.994981e+05
   5.686578e+05  -9.447211e+05
   9.397874e+05  -1.216748e+05
   6.072944e+04   6.794753e+05
  -1.049441e+06   5.253326e+05
  -1.282507e+06  -4.408557e+05
  -4.556433e+05  -1.172737e+06
   6.244603e+05  -9.126290e+05
   9.736531e+05  -2.045591e+04
   3.594346e+05   4.879495e+05
  -4.685413e+05   9.010522e+04
  -5.069536e+05  -7.202607e+05
   4.410103e+05  -1.011469e+06
   1.468924e+06  -3.632238e+05
   1.465150e+06   7.638919e+05
   3.127312e+05   1.474450e+06
  -9.513864e+05   1.219459e+06
  -1.226054e+06   2.562055e+05
  -4.589812e+05  -5.841196e+05
   4.220523e+05  -6.488058e+05
   5.654137e+05  -6.287507e+04
   1.436670e+04   4.463462e+05
  -4.963377e+05   3.567295e+05
  -3.907714e+05  -8.723958e+04
   1.680691e+05  -2.065714e+05
   4.756811e+05   2.688587e+05
   2.125911e+04   8.305820e+05
  -9.355509e+05   7.210343e+05
  -1.526976e+06  -2.342226e+05
  -1.096058e+06  -1.383212e+06
   1.187690e+05  -1.822220e+06
   1.184160e+06  -1.207691e+06
   1.384471e+06  -4.872678e+04
   8.623387e+05   7.704725e+05
   3.189851e+05   7.923736e+05
   1.926505e+05   3.541059e+05
   2.641401e+05   1.495274e+05
   4.763675e+04   4.289458e+05
  -5.623074e+05   7.129014e+05
  -1.095978e+06   3.745623e+05
  -9.346298e+05  -5.458884e+05
   5.612404e+04  -1.245483e+06
   1.264010e+06  -9.444467e+05
   1.733984e+06   2.780234e+05
   9.743634e+05   1.490172e+06
  -5.443440e+05   1.746796e+06
  -1.734530e+06   9.174209e+05
  -1.820802e+06  -2.712004e+05
  -9.653693e+05  -9.562532e+05
   2.303524e+03  -8.988432e+05
   4.150696e+05  -5.714505e+05
   3.033355e+05  -5.396067e+05
   1.848235e+05  -8.090021e+05
   4.309547e+05  -8.404105e+05
   8.675106e+05  -2.153724e+05
   9.661797e+05   7.928783e+05
   4.205096e+05   1.400546e+06
  -4.596103e+05   1.072263e+06
  -9.656044e+05   5.394041e+04
  -6.656187e+05  -8.556540e+05
   1.399480e+05  -1.021493e+06
   7.031317e+05  -4.643884e+05
   5.875805e+05   2.731137e+05
   8.227388e+04   6.645593e+05
  -1.824279e+05   6.093935e+05
   2.723598e+04   3.878932e+05
   2.882299e+05   2.864994e+05
   2.545717e+04   3.008246e+05
  -7.740586e+05   1.977880e+05
  -1.428796e+06  -1.726594e+05
  -1.207076e+06  -6.695660e+05
  -1.165276e+05  -9.630772e+05
   1.010011e+06  -8.228224e+05
   1.293385e+06  -3.242338e+05
   6.660217e+05   1.855614e+05
  -1.198722e+05   3.458144e+05
  -3.315694e+05   9.923890e+04
   2.423845e+04  -2.132685e+05
   3.781433e+05  -1.683484e+05
   3.408735e+05   2.506391e+05
   7.570117e+04   5.687607e+05
  -3.651301e+04   3.637426e+05
   1.125401e+05  -1.556175e+05
   2.932235e+05  -3.255958e+05
   2.288818e+05   1.534584e+05
  -1.505555e+05   7.733961e+05
  -6.442090e+05   7.769056e+05
  -8.634907e+05   6.455040e+04
  -5.001286e+05  -6.724408e+05
   2.946303e+05  -7.348140e+05
   8.468962e+05  -1.472141e+05
   5.323127e+05   4.548357e+05
  -4.799773e+05   5.142938e+05
  -1.232652e+06   2.013856e+04
  -9.197983e+05  -5.916462e+05
   2.251064e+05  -8.403100e+05
   1.137138e+06  -5.489758e+05
   1.028242e+06   3.250485e+04
   1.706591e+05   4.084944e+05
  -4.640842e+05   2.678409e+05
  -2.506507e+05  -1.759745e+05
   4.858228e+05  -3.385225e+05
   8.715525e+05   1.360016e+05
   4.051762e+05   9.205445e+05
  -5.511491e+05   1.232181e+06
  -1.162551e+06   5.953051e+05
  -9.416873e+05  -6.016824e+05
  -1.516540e+05  -1.371091e+06
   5.459558e+05  -1.043315e+06
   7.192475e+05   4.928438e+04
   4.146706e+05   8.817166e+05
  -5.584142e+04   7.872263e+05
  -3.922070e+05   1.111147e+05
  -4.272585e+05  -2.955020e+05
  -2.046240e+05  -1.264909e+05
  -4.905758e+03   9.702846e+04
  -9.919008e+04  -1.660263e+05
  -3.508425e+05  -7.001456e+05
  -2.512808e+05  -8.285519e+05
   4.247769e+05  -3.217477e+05
   1.133463e+06   3.393882e+05
   1.064401e+06   6.179997e+05
   1.569434e+05   5.057326e+05
  -7.185543e+05   3.152805e+05
  -7.698783e+05   1.765544e+05
  -2.058568e+05   9.327564e+03
   1.387362e+05  -1.633828e+05
  -6.694926e+04  -2.002159e+05
  -2.982303e+05  -1.212695e+05
  -6.360455e+02  -1.060477e+05
   6.016232e+05  -1.437386e+05
   7.746176e+05   3.551086e+04
   1.839677e+05   5.044636e+05
  -7.230874e+05   8.287762e+05
  -1.211128e+06   4.982207e+05
  -9.413740e+05  -3.789948e+05
  -1.693893e+05  -1.072989e+06
   5.500412e+05  -1.000710e+06
   7.863168e+05  -3.391331e+05
   5.062341e+05   2.271919e+05
   5.941689e+04   2.676129e+05
  -1.352766e+05  -5.162246e+03
   2.961961e+04  -7.625214e+04
   2.692506e+05   2.467966e+05
   2.236421e+05   6.055063e+05
  -1.538942e+05   4.898555e+05
  -5.300491e+05  -1.535555e+05
  -4.993736e+05  -7.766588e+05
   1.549963e+04  -7.654558e+05
   6.210653e+05  -9.864271e+04
   7.469025e+05   6.238589e+05
   2.003844e+05   8.140917e+05
  -5.518216e+05   4.410305e+05
  -7.952285e+05  -8.491929e+04
  -3.459013e+05  -4.008405e+05
   2.117310e+05  -4.274420e+05
   2.131342e+05  -2.550980e+05
  -2.652540e+05  -3.732159e+04
  -5.083176e+05   1.508106e+04
  -8.138289e+04  -2.163820e+05
   6.206227e+05  -5.183476e+05
   8.771167e+05  -4.612016e+05
   4.913965e+05   7.359975e+04
  -8.206713e+04   6.202940e+05
  -3.475989e+05   6.071785e+05
  -2.415948e+05   6.176423e+04
   2.700469e+03  -3.927190e+05
   1.964171e+05  -2.830131e+05
   2.689955e+05   1.817742e+05
   1.772909e+05   4.367506e+05
  -6.111852e+04   2.559702e+05
  -2.904252e+05  -6.600063e+04
  -3.301652e+05  -1.632979e+05
  -1.800991e+05  -2.911668e+04
  -1.127760e+04   5.778928e+04
   5.904759e+04  -8.182618e+04
   8.989376e+04  -3.120235e+05
   1.801048e+05  -3.367723e+05
   2.866915e+05  -3.420543e+04
   2.492730e+05   3.720184e+05
  -1.073269e+04   4.994723e+05
  -3.441415e+05   1.993048e+05
  -4.501510e+05  -2.606740e+05
  -1.514495e+05  -4.603117e+05
   3.613043e+05  -2.605693e+05
   6.198305e+05   9.373808e+04
   3.361340e+05   2.877916e+05
  -2.232442e+05   2.455750e+05
  -4.624149e+05   1.022676e+05
  -1.328314e+05   1.326528e+02
   3.382490e+05   6.201291e+03
   3.369945e+05   1.283992e+05
  -1.902306e+05   2.655388e+05
  -6.629114e+05   1.980698e+05
