
 $NMID
 id='ANONYMOUS ', fmtdat='(2E16.6)'
 volume=1.0
 tramp=1.0
 $END
  -5.394326e+07   9.601268e+04
  -3.266501e+07  -3.310797e+07
   6.821492e+06  -3.648328e+07
   2.634377e+07  -1.437718e+07
   1.597031e+07   6.410964e+06
  -3.011657e+06   8.992370e+06
  -9.501092e+06  -9.597040e+05
  -2.869887e+06  -9.359557e+06
   5.839897e+06  -9.172961e+06
   9.294357e+06  -2.084313e+06
   6.774078e+06   5.972703e+06
   7.932662e+05   8.342910e+06
  -3.863852e+06   2.620641e+06
  -2.565391e+06  -5.354720e+06
   3.605478e+06  -6.441633e+06
   7.607263e+06   1.196686e+06
   4.353721e+06   9.808502e+06
  -3.571207e+06   1.138610e+07
  -9.691985e+06   5.700225e+06
  -1.035716e+07  -1.980607e+06
  -6.296873e+06  -7.160255e+06
  -6.493069e+05  -8.199413e+06
   2.678147e+06  -5.735888e+06
   1.590166e+06  -2.666493e+06
  -1.162241e+06  -2.272272e+06
  -1.716517e+05  -4.164062e+06
   5.362466e+06  -4.227197e+06
   9.421288e+06  -3.874835e+05
   6.787402e+06   4.043278e+06
   1.397445e+05   4.869652e+06
  -3.696869e+06   2.394414e+06
  -2.373493e+06  -1.172728e+05
   7.585179e+05  -9.924000e+05
   2.387358e+06  -4.189203e+05
   2.145562e+06   1.539993e+06
   5.643710e+05   3.893605e+06
  -1.783920e+06   3.678976e+06
  -3.024591e+06  -1.739321e+05
  -1.549668e+06  -3.477217e+06
   7.308817e+05  -1.730867e+06
   2.482544e+05   2.486556e+06
  -2.422080e+06   2.281996e+06
  -2.404704e+06  -3.052504e+06
   2.226805e+06  -5.917236e+06
   6.570295e+06  -1.042472e+06
   4.915609e+06   6.581337e+06
  -1.762344e+06   8.170643e+06
  -7.124786e+06   2.342931e+06
  -6.780118e+06  -4.288869e+06
  -1.866627e+06  -5.877634e+06
   3.374814e+06  -2.699022e+06
   5.185520e+06   1.432403e+06
   2.442189e+06   3.381251e+06
  -2.293781e+06   2.164099e+06
  -4.387205e+06  -8.467935e+05
  -1.922366e+06  -2.605331e+06
   1.644815e+06  -1.332990e+06
   1.725789e+06   9.918225e+05
  -1.220604e+06   9.552692e+05
  -2.426571e+06  -1.575296e+06
   4.560467e+05  -3.258453e+06
   4.345575e+06  -1.889891e+06
   5.111126e+06   1.206253e+06
   2.283168e+06   3.792326e+06
  -1.764443e+06   5.101196e+06
  -4.929489e+06   4.687142e+06
  -6.038788e+06   1.652729e+06
  -4.405774e+06  -3.101348e+06
  -8.868741e+05  -6.014049e+06
   1.778344e+06  -4.682988e+06
   1.691885e+06  -1.282507e+06
   2.277077e+05   1.574046e+05
   1.072247e+05  -9.694842e+05
   1.676502e+06  -1.678958e+06
   2.785084e+06  -1.233901e+05
   1.950423e+06   1.996562e+06
  -5.362839e+04   2.156517e+06
  -1.605393e+06   1.720750e+05
  -1.675668e+06  -2.116762e+06
   3.026780e+04  -2.922019e+06
   2.745198e+06  -1.588111e+06
   4.355953e+06   1.217730e+06
   3.100200e+06   3.672884e+06
  -4.933231e+04   4.078011e+06
  -2.185438e+06   2.616291e+06
  -2.137657e+06   1.122470e+06
  -1.786576e+06   7.063085e+05
  -2.915042e+06   4.990220e+05
  -4.315427e+06  -7.454763e+05
  -3.461429e+06  -2.749209e+06
  -1.204610e+05  -4.110947e+06
   3.218303e+06  -3.871039e+06
   4.181024e+06  -2.069399e+06
   2.631018e+06   4.653372e+05
   2.236485e+05   2.234094e+06
  -1.132203e+06   1.900929e+06
  -5.555855e+05  -5.069120e+04
   1.101499e+06  -1.293914e+06
   1.894938e+06  -3.872869e+05
   8.983919e+05   1.196716e+06
  -5.343239e+05   1.109277e+06
  -4.498983e+05  -3.919203e+05
   1.039988e+06  -7.349854e+05
   1.864623e+06   1.211121e+06
   7.118257e+05   3.440799e+06
  -1.515719e+06   3.451716e+06
  -3.123996e+06   1.193518e+06
  -3.349433e+06  -1.412199e+06
  -2.310335e+06  -2.789983e+06
  -4.503547e+05  -2.640287e+06
   1.258474e+06  -1.458794e+06
   1.584471e+06  -2.111681e+05
   4.931119e+05   4.860607e+04
  -3.558474e+05  -7.545542e+05
   4.116458e+05  -1.335045e+06
   1.898507e+06  -5.726084e+05
   2.029145e+06   8.850058e+05
   3.877079e+05   1.413386e+06
  -1.175440e+06   5.710604e+05
  -8.992041e+05  -4.633395e+05
   8.516372e+05  -5.356264e+05
   2.203576e+06   3.171031e+05
   1.765295e+06   1.376866e+06
  -2.531823e+05   1.994304e+06
  -2.329504e+06   1.656789e+06
  -2.785500e+06   2.614547e+05
  -1.213528e+06  -1.269238e+06
   9.223464e+05  -1.492768e+06
   1.553388e+06  -1.828658e+05
   1.918945e+05   1.076935e+06
  -1.522292e+06   7.292528e+05
  -1.721601e+06  -7.896536e+05
  -3.376045e+05  -1.661786e+06
   1.097629e+06  -9.845666e+05
   1.266123e+06   3.115745e+05
   2.504944e+05   7.855901e+05
  -7.956083e+05   5.399876e+04
  -7.320394e+05  -1.059071e+06
   5.870681e+05  -1.423987e+06
   2.017392e+06  -5.307800e+05
   2.035143e+06   1.065677e+06
   3.740512e+05   2.083078e+06
  -1.451831e+06   1.641636e+06
  -1.733991e+06   2.040109e+05
  -5.024396e+05  -8.749866e+05
   6.654698e+05  -8.051535e+05
   6.404937e+05  -7.063087e+04
  -1.209477e+05   3.705707e+05
  -5.041233e+05   2.117175e+05
  -1.342437e+05  -7.394053e+04
   4.474106e+05   6.624177e+04
   5.228124e+05   6.703456e+05
  -2.077795e+05   1.191024e+06
  -1.391017e+06   8.929633e+05
  -2.087252e+06  -4.264388e+05
  -1.459196e+06  -1.958223e+06
   2.320212e+05  -2.430011e+06
   1.632468e+06  -1.412932e+06
   1.702002e+06   1.349813e+05
   8.609450e+05   9.133482e+05
   3.114179e+05   6.695380e+05
   4.674943e+05   2.275888e+05
   6.208311e+05   3.114923e+05
   8.803204e+04   7.617369e+05
  -8.827683e+05   9.012223e+05
  -1.458375e+06   3.204162e+05
  -1.053482e+06  -7.348935e+05
   2.591919e+05  -1.470842e+06
   1.737011e+06  -1.070004e+06
   2.256085e+06   4.983365e+05
   1.129422e+06   2.114882e+06
  -1.021764e+06   2.370646e+06
  -2.555684e+06   1.025931e+06
  -2.360995e+06  -6.713508e+05
  -9.594066e+05  -1.353072e+06
   2.116323e+05  -9.568326e+05
   4.016110e+05  -5.135706e+05
   9.113357e+04  -7.501924e+05
   1.124802e+05  -1.303405e+06
   6.763282e+05  -1.286142e+06
   1.296642e+06  -3.129345e+05
   1.335281e+06   1.091138e+06
   5.479834e+05   1.904324e+06
  -6.324407e+05   1.438775e+06
  -1.291363e+06  -8.601188e+03
  -8.107417e+05  -1.291090e+06
   3.958034e+05  -1.400648e+06
   1.167325e+06  -4.072942e+05
   8.134382e+05   6.973240e+05
  -1.228242e+05   1.077654e+06
  -5.375277e+05   7.861032e+05
  -8.681941e+04   4.206480e+05
   4.315144e+05   3.395948e+05
   5.733550e+04   3.850064e+05
  -1.152551e+06   2.065902e+05
  -2.067081e+06  -3.415387e+05
  -1.618810e+06  -1.047240e+06
   4.104801e+04  -1.439881e+06
   1.596946e+06  -1.138130e+06
   1.840144e+06  -2.719066e+05
   8.379268e+05   4.976710e+05
  -2.622138e+05   5.692869e+05
  -5.139653e+05   3.330915e+04
  -2.963742e+04  -4.201528e+05
   4.459401e+05  -2.561675e+05
   4.816881e+05   3.449507e+05
   2.497086e+05   7.249947e+05
   9.333890e+04   4.795181e+05
   1.398279e+05  -9.490909e+04
   2.841507e+05  -2.913921e+05
   2.757694e+05   2.347787e+05
  -1.470238e+05   9.887471e+05
  -9.066366e+05   1.066576e+06
  -1.366374e+06   1.730613e+05
  -8.520688e+05  -9.187987e+05
   4.189843e+05  -1.142616e+06
   1.262275e+06  -3.363101e+05
   7.342127e+05   5.772661e+05
  -7.084628e+05   6.483273e+05
  -1.594886e+06  -1.053414e+05
  -1.004320e+06  -8.747652e+05
   4.942590e+05  -9.914039e+05
   1.509649e+06  -4.700306e+05
   1.236781e+06   2.012775e+05
   1.305030e+05   5.174884e+05
  -6.550200e+05   2.662374e+05
  -3.866412e+05  -2.973962e+05
   5.864885e+05  -5.242668e+05
   1.187790e+06   8.034398e+04
   6.763107e+05   1.184651e+06
  -5.888106e+05   1.710752e+06
  -1.488595e+06   8.913887e+05
  -1.261144e+06  -7.608854e+05
  -2.009158e+05  -1.799776e+06
   7.482462e+05  -1.295738e+06
   9.295575e+05   1.849827e+05
   4.251932e+05   1.201375e+06
  -2.315249e+05   9.711060e+05
  -5.681916e+05   8.026591e+04
  -4.617109e+05  -3.806090e+05
  -1.572327e+05  -1.377903e+05
  -5.203441e+04   9.414974e+04
  -2.910452e+05  -3.003709e+05
  -5.143386e+05  -9.739735e+05
  -1.806867e+05  -1.084592e+06
   7.294482e+05  -3.954973e+05
   1.480430e+06   4.703365e+05
   1.276713e+06   8.451511e+05
   1.839037e+05   7.047708e+05
  -8.501146e+05   4.204165e+05
  -9.871228e+05   1.781963e+05
  -3.707407e+05  -5.811206e+04
   1.428859e+05  -2.273730e+05
   4.761260e+04  -2.020581e+05
  -2.536834e+05  -8.980669e+04
  -5.580122e+04  -1.326502e+05
   6.513823e+05  -2.416772e+05
   1.054523e+06   5.683483e+03
   4.564167e+05   6.961490e+05
  -8.308620e+05   1.194009e+06
  -1.717202e+06   7.762076e+05
  -1.438085e+06  -4.208512e+05
  -2.862541e+05  -1.411485e+06
   7.717076e+05  -1.391866e+06
   1.054311e+06  -5.550587e+05
   6.576549e+05   2.235120e+05
   1.424340e+05   3.600750e+05
  -5.675313e+04   7.510723e+04
   8.742994e+04  -7.106969e+03
   2.966972e+05   3.745737e+05
   2.450420e+05   8.134782e+05
  -1.743150e+05   6.877064e+05
  -6.823165e+05  -1.077253e+05
  -7.578225e+05  -9.423328e+05
  -1.408242e+05  -1.038362e+06
   7.451748e+05  -2.696408e+05
   1.050628e+06   7.033010e+05
   3.687043e+05   1.094980e+06
  -7.101662e+05   6.991223e+05
  -1.134857e+06  -6.283556e+04
  -5.494894e+05  -6.246915e+05
   2.851020e+05  -7.004540e+05
   3.939440e+05  -3.773188e+05
  -2.326773e+05  -2.475739e+03
  -6.492562e+05   4.587260e+04
  -1.553138e+05  -3.120287e+05
   8.273726e+05  -6.858778e+05
   1.279618e+06  -5.394517e+05
   7.857504e+05   1.861494e+05
  -8.979814e+04   8.823537e+05
  -5.648910e+05   8.731030e+05
  -4.435582e+05   1.789758e+05
  -6.594944e+04  -4.744691e+05
   2.339894e+05  -4.491574e+05
   3.536422e+05   1.302535e+05
   2.624738e+05   5.786948e+05
  -4.481066e+04   4.446667e+05
  -3.942880e+05  -3.500764e+04
  -4.871530e+05  -2.897592e+05
  -2.456242e+05  -1.052210e+05
   4.448446e+04   1.628690e+05
   8.546415e+04   6.884158e+04
  -3.647036e+04  -3.441329e+05
   1.294506e+04  -5.701448e+05
   3.073180e+05  -2.517058e+05
   4.851447e+05   3.572289e+05
   1.924456e+05   6.465261e+05
  -3.993995e+05   3.280688e+05
  -6.820657e+05  -2.636806e+05
  -2.690347e+05  -5.679288e+05
   5.127439e+05  -3.754146e+05
   8.991886e+05   5.979696e+04
   4.909585e+05   3.752503e+05
  -2.914186e+05   4.186847e+05
  -6.452202e+05   2.517523e+05
  -2.655135e+05   2.437568e+04
   3.280261e+05  -8.512066e+04
   4.024148e+05   4.105948e+04
  -1.513457e+05   2.822461e+05
  -7.198202e+05   2.798772e+05
