
 $NMID
 id='ANONYMOUS ', fmtdat='(2E16.6)'
 volume=1.0
 tramp=1.0
 $END
  -3.557906e+07   1.047818e+05
  -2.316938e+07  -1.818725e+07
   1.297160e+06  -2.300571e+07
   1.593907e+07  -1.340522e+07
   1.224021e+07   1.479170e+05
   1.526776e+04   6.282483e+06
  -6.950881e+06   2.137005e+06
  -4.459375e+06  -5.837597e+06
   2.268462e+06  -8.764834e+06
   6.522960e+06  -3.561629e+06
   5.445974e+06   4.416872e+06
   7.063901e+05   6.942701e+06
  -3.208061e+06   1.629185e+06
  -2.502110e+06  -5.451157e+06
   2.141881e+06  -6.468415e+06
   5.726220e+06  -2.930062e+05
   4.044897e+06   6.862366e+06
  -1.792231e+06   8.534291e+06
  -6.705099e+06   4.136540e+06
  -6.940138e+06  -1.836978e+06
  -3.311623e+06  -4.939217e+06
   2.497826e+05  -4.369203e+06
   6.273616e+05  -2.593552e+06
  -1.580167e+06  -2.398326e+06
  -2.576785e+06  -4.073121e+06
   6.122692e+05  -5.167059e+06
   6.199159e+06  -3.295356e+06
   8.730181e+06   8.667761e+05
   5.103130e+06   4.025420e+06
  -1.399635e+06   3.754497e+06
  -4.504875e+06   8.368454e+05
  -1.910311e+06  -1.910011e+06
   2.687003e+06  -2.259122e+06
   4.404137e+06   3.612987e+04
   2.298637e+06   3.232417e+06
  -8.139460e+05   4.525548e+06
  -2.119091e+06   2.344933e+06
  -1.233137e+06  -1.377234e+06
   2.841028e+05  -2.509996e+06
   6.466780e+05   3.788998e+05
  -6.808066e+05   3.573022e+06
  -2.374678e+06   2.552082e+06
  -2.266155e+06  -1.877607e+06
   2.969787e+05  -4.196492e+06
   3.150134e+06  -1.208947e+06
   3.126597e+06   3.824479e+06
  -5.225690e+05   5.276569e+06
  -4.901244e+06   1.728804e+06
  -6.008036e+06  -3.100805e+06
  -2.563715e+06  -4.987090e+06
   2.635937e+06  -3.085099e+06
   5.181254e+06   3.561009e+05
   3.126385e+06   2.518253e+06
  -1.167526e+06   2.071049e+06
  -3.432371e+06  -8.165545e+04
  -1.889938e+06  -1.636565e+06
   1.069114e+06  -1.093176e+06
   1.868934e+06   6.593033e+05
  -8.846321e+04   1.421513e+06
  -1.983789e+06   3.002898e+05
  -1.162585e+06  -1.384468e+06
   1.730560e+06  -1.765014e+06
   3.569928e+06  -2.607475e+05
   2.156922e+06   2.244177e+06
  -1.653417e+06   4.143768e+06
  -4.942418e+06   3.851947e+06
  -5.410005e+06   8.903404e+05
  -3.192745e+06  -3.106109e+06
  -4.063871e+05  -5.294964e+06
   9.875234e+05  -4.414953e+06
   9.137963e+05  -2.181790e+06
   8.119438e+05  -1.090019e+06
   1.700557e+06  -1.311321e+06
   2.958735e+06  -8.836490e+05
   3.121916e+06   1.159777e+06
   1.552911e+06   3.140375e+06
  -8.779097e+05   2.757988e+06
  -2.499709e+06  -1.998546e+04
  -2.061744e+06  -2.806898e+06
   3.117241e+05  -3.245344e+06
   2.953611e+06  -1.124920e+06
   3.770827e+06   1.743949e+06
   2.150348e+06   3.311857e+06
  -3.107400e+05   2.961431e+06
  -1.519252e+06   1.729754e+06
  -1.291804e+06   1.016192e+06
  -1.374657e+06   1.083404e+06
  -2.877511e+06   9.190724e+05
  -4.448869e+06  -4.440693e+05
  -3.710813e+06  -2.690788e+06
  -2.506903e+05  -4.377839e+06
   3.526567e+06  -4.164413e+06
   4.710558e+06  -1.931809e+06
   2.723452e+06   9.735234e+05
  -2.793658e+05   2.566685e+06
  -1.616211e+06   1.816455e+06
  -5.451278e+05  -2.323862e+05
   1.329213e+06  -1.312067e+06
   1.904059e+06  -3.640956e+05
   7.243802e+05   1.193264e+06
  -7.348661e+05   1.218062e+06
  -8.031500e+05  -3.531295e+05
   6.044718e+05  -1.291189e+06
   1.988355e+06   1.356017e+05
   1.790468e+06   2.885788e+06
  -2.274825e+05   4.203453e+06
  -2.834169e+06   2.607760e+06
  -4.230903e+06  -6.791106e+05
  -3.345446e+06  -3.124763e+06
  -7.745499e+05  -3.250231e+06
   1.502090e+06  -1.654622e+06
   1.828984e+06  -1.329014e+05
   5.388101e+05   4.902825e+04
  -4.097474e+05  -8.009556e+05
   3.045131e+05  -1.317789e+06
   1.799332e+06  -6.276082e+05
   2.089439e+06   7.012195e+05
   5.599215e+05   1.343834e+06
  -1.197988e+06   7.116737e+05
  -1.174232e+06  -4.551333e+05
   7.684422e+05  -9.115467e+05
   2.662141e+06  -9.370878e+04
   2.435300e+06   1.447381e+06
   1.663080e+04   2.500700e+06
  -2.554216e+06   2.107622e+06
  -3.082181e+06   4.133296e+05
  -1.312969e+06  -1.244458e+06
   8.939346e+05  -1.446102e+06
   1.462994e+06  -1.720883e+05
   1.040606e+05   1.047268e+06
  -1.594170e+06   7.706783e+05
  -1.900952e+06  -7.191064e+05
  -5.985179e+05  -1.770653e+06
   1.001270e+06  -1.293655e+06
   1.439233e+06   6.144287e+04
   4.732863e+05   7.613315e+05
  -7.384983e+05   1.110499e+05
  -7.562989e+05  -1.102127e+06
   6.706565e+05  -1.515310e+06
   2.202210e+06  -5.296769e+05
   2.184744e+06   1.166308e+06
   4.342115e+05   2.221013e+06
  -1.471110e+06   1.801392e+06
  -1.845744e+06   3.323849e+05
  -6.469567e+05  -8.951853e+05
   6.605221e+05  -9.426045e+05
   8.143107e+05  -7.960273e+04
  -2.011483e+04   6.148076e+05
  -7.108135e+05   4.624570e+05
  -4.931294e+05  -1.295228e+05
   3.056975e+05  -2.309962e+05
   6.816417e+05   4.763125e+05
  -3.141594e+04   1.255596e+06
  -1.432910e+06   1.044916e+06
  -2.278295e+06  -3.943901e+05
  -1.609696e+06  -2.095958e+06
   2.179797e+05  -2.705322e+06
   1.788249e+06  -1.732769e+06
   2.025084e+06  -7.812557e+03
   1.204263e+06   1.130741e+06
   4.353868e+05   1.093297e+06
   3.282050e+05   4.715606e+05
   4.529462e+05   2.493507e+05
   7.332503e+04   6.811515e+05
  -8.744059e+05   1.042810e+06
  -1.634683e+06   5.032832e+05
  -1.339812e+06  -8.256530e+05
   1.418564e+05  -1.809006e+06
   1.904065e+06  -1.344990e+06
   2.561268e+06   4.656704e+05
   1.389277e+06   2.257809e+06
  -9.002468e+05   2.598918e+06
  -2.645762e+06   1.295292e+06
  -2.687189e+06  -4.988377e+05
  -1.346386e+06  -1.453280e+06
   6.474440e+04  -1.281480e+06
   5.914392e+05  -7.859759e+05
   3.866420e+05  -8.023662e+05
   2.537380e+05  -1.248965e+06
   6.736003e+05  -1.280296e+06
   1.323091e+06  -3.145704e+05
   1.435019e+06   1.198548e+06
   6.023887e+05   2.094660e+06
  -7.021776e+05   1.588289e+06
  -1.436496e+06   4.794408e+04
  -9.602800e+05  -1.315220e+06
   2.694735e+05  -1.525535e+06
   1.104759e+06  -6.332019e+05
   8.783418e+05   4.896368e+05
   6.135267e+04   1.033713e+06
  -3.470226e+05   8.987541e+05
   6.219323e+03   5.549948e+05
   4.352913e+05   4.189378e+05
   3.970925e+04   4.434008e+05
  -1.180479e+06   2.718256e+05
  -2.158579e+06  -2.996046e+05
  -1.787432e+06  -1.046467e+06
  -1.156295e+05  -1.469681e+06
   1.568886e+06  -1.219646e+06
   1.952954e+06  -4.276849e+05
   9.767658e+05   3.426638e+05
  -2.052899e+05   5.376984e+05
  -5.110734e+05   1.210079e+05
   2.284302e+04  -3.469268e+05
   5.493890e+05  -2.521157e+05
   5.092009e+05   3.784477e+05
   1.392338e+05   8.365692e+05
  -2.643919e+04   5.372188e+05
   1.675515e+05  -2.041743e+05
   4.170114e+05  -4.466474e+05
   3.327509e+05   2.383074e+05
  -2.211567e+05   1.137619e+06
  -9.785625e+05   1.153849e+06
  -1.333313e+06   1.063020e+05
  -7.771509e+05  -1.009455e+06
   4.522320e+05  -1.125547e+06
   1.289450e+06  -2.409422e+05
   7.900661e+05   6.754654e+05
  -7.354620e+05   7.494207e+05
  -1.820674e+06  -1.689049e+04
  -1.308099e+06  -9.121478e+05
   3.907276e+05  -1.217013e+06
   1.696684e+06  -7.401825e+05
   1.497291e+06   9.932645e+04
   2.254503e+05   6.035233e+05
  -7.021004e+05   3.706857e+05
  -3.823779e+05  -2.792067e+05
   7.118370e+05  -5.127053e+05
   1.298038e+06   1.904515e+05
   6.204686e+05   1.361889e+06
  -8.007591e+05   1.837110e+06
  -1.719336e+06   8.907085e+05
  -1.391411e+06  -8.962794e+05
  -2.066722e+05  -2.031602e+06
   8.300202e+05  -1.520496e+06
   1.061873e+06   1.104660e+05
   5.749619e+05   1.322261e+06
  -1.306099e+05   1.151900e+06
  -5.954235e+05   1.444928e+05
  -6.057348e+05  -4.426387e+05
  -2.751789e+05  -1.846735e+05
  -1.934437e+04   1.360944e+05
  -1.824373e+05  -2.650259e+05
  -5.226443e+05  -1.053568e+06
  -3.260679e+05  -1.230405e+06
   6.731693e+05  -4.656532e+05
   1.671783e+06   5.234925e+05
   1.539877e+06   9.379765e+05
   2.209696e+05   7.604929e+05
  -1.046282e+06   4.579641e+05
  -1.137168e+06   2.385176e+05
  -3.287671e+05  -4.313033e+03
   1.983438e+05  -2.424525e+05
  -6.479131e+04  -2.842111e+05
  -4.077185e+05  -1.688106e+05
  -1.223679e+04  -1.554098e+05
   8.603698e+05  -2.159641e+05
   1.154864e+06   5.336732e+04
   3.155461e+05   7.554863e+05
  -1.053448e+06   1.240694e+06
  -1.828134e+06   7.505665e+05
  -1.434754e+06  -5.542276e+05
  -2.512745e+05  -1.590945e+06
   8.386204e+05  -1.492873e+06
   1.173156e+06  -5.172859e+05
   7.444743e+05   3.261035e+05
   9.934117e+04   3.987954e+05
  -1.717068e+05   8.557614e+03
   5.689965e+04  -9.143370e+04
   3.826584e+05   3.813095e+05
   3.116972e+05   9.043945e+05
  -2.279837e+05   7.332221e+05
  -7.788542e+05  -2.131705e+05
  -7.516643e+05  -1.138013e+06
  -4.148761e+03  -1.139338e+06
   9.033292e+05  -1.694007e+05
   1.112528e+06   9.062526e+05
   3.104229e+05   1.213076e+06
  -8.185498e+05   6.732780e+05
  -1.196937e+06  -1.243670e+05
  -5.297319e+05  -6.202741e+05
   3.198409e+05  -6.625067e+05
   3.453372e+05  -3.855650e+05
  -3.649154e+05  -4.881701e+04
  -7.484265e+05   2.151628e+04
  -1.291289e+05  -3.274844e+05
   9.286434e+05  -7.603620e+05
   1.334946e+06  -6.567168e+05
   7.597599e+05   1.350996e+05
  -1.251345e+05   9.327254e+05
  -5.472331e+05   9.127245e+05
  -3.869484e+05   1.120088e+05
  -6.544074e+03  -5.712294e+05
   2.883569e+05  -4.342009e+05
   3.950173e+05   2.475389e+05
   2.635664e+05   6.499537e+05
  -8.479063e+04   4.030010e+05
  -4.316203e+05  -8.957797e+04
  -4.996116e+05  -2.632137e+05
  -2.689055e+05  -6.091565e+04
  -3.040220e+03   1.051084e+05
   9.182578e+04  -7.958093e+04
   1.020750e+05  -4.442498e+05
   2.183170e+05  -5.238851e+05
   4.070996e+05  -9.408942e+04
   3.994743e+05   5.223549e+05
   2.519701e+04   7.354149e+05
  -4.994529e+05   3.054305e+05
  -6.834339e+05  -3.729731e+05
  -2.340511e+05  -6.745453e+05
   5.470399e+05  -3.890184e+05
   9.356863e+05   1.317440e+05
   5.052293e+05   4.295928e+05
  -3.326377e+05   3.827867e+05
  -6.937345e+05   1.726397e+05
  -2.174392e+05   4.834790e+03
   4.730200e+05  -6.742461e+03
   4.867224e+05   1.654918e+05
  -2.630479e+05   3.742821e+05
  -9.490277e+05   2.875591e+05
