
 $NMID
 id='ANONYMOUS ', fmtdat='(2E16.6)'
 volume=1.0
 tramp=1.0
 $END
  -3.091975e+07  -1.809823e+05
  -1.983843e+07  -1.611527e+07
   1.474934e+06  -1.995774e+07
   1.392932e+07  -1.130994e+07
   1.045980e+07   3.723097e+05
  -1.230517e+05   5.391573e+06
  -5.960743e+06   1.683829e+06
  -3.698277e+06  -5.065230e+06
   2.054497e+06  -7.432384e+06
   5.626541e+06  -2.948666e+06
   4.659610e+06   3.833371e+06
   5.832118e+05   5.961635e+06
  -2.768180e+06   1.406826e+06
  -2.133153e+06  -4.648356e+06
   1.873878e+06  -5.494280e+06
   4.920734e+06  -1.763897e+05
   3.418110e+06   5.948217e+06
  -1.621568e+06   7.342468e+06
  -5.831075e+06   3.536382e+06
  -6.022779e+06  -1.617336e+06
  -2.885929e+06  -4.322952e+06
   2.398511e+05  -3.857309e+06
   6.427120e+05  -2.278345e+06
  -1.248855e+06  -2.006986e+06
  -2.183103e+06  -3.398858e+06
   4.834764e+05  -4.389489e+06
   5.277379e+06  -2.851783e+06
   7.486359e+06   7.127304e+05
   4.401436e+06   3.459567e+06
  -1.166181e+06   3.256702e+06
  -3.841223e+06   7.694462e+05
  -1.668584e+06  -1.582774e+06
   2.214963e+06  -1.915850e+06
   3.701077e+06  -1.316463e+04
   1.981303e+06   2.700022e+06
  -6.403106e+05   3.858044e+06
  -1.813802e+06   2.045830e+06
  -1.122498e+06  -1.162373e+06
   2.009905e+05  -2.196534e+06
   5.853634e+05   2.594970e+05
  -5.361302e+05   3.028160e+06
  -2.022705e+06   2.168823e+06
  -1.918921e+06  -1.639238e+06
   3.396763e+05  -3.604414e+06
   2.791226e+06  -9.753496e+05
   2.681619e+06   3.375667e+06
  -5.277376e+05   4.574263e+06
  -4.260103e+06   1.461369e+06
  -5.132506e+06  -2.694224e+06
  -2.152576e+06  -4.271808e+06
   2.265701e+06  -2.607766e+06
   4.403332e+06   3.376957e+05
   2.631579e+06   2.162699e+06
  -1.032661e+06   1.749397e+06
  -2.944468e+06  -1.090690e+05
  -1.596295e+06  -1.425015e+06
   9.341305e+05  -9.292634e+05
   1.583459e+06   5.706627e+05
  -1.048319e+05   1.179739e+06
  -1.677228e+06   1.903723e+05
  -9.118394e+05  -1.214955e+06
   1.559961e+06  -1.470712e+06
   3.071109e+06  -1.549807e+05
   1.821537e+06   1.963624e+06
  -1.426028e+06   3.563775e+06
  -4.226161e+06   3.313995e+06
  -4.645297e+06   7.756259e+05
  -2.761823e+06  -2.666229e+06
  -3.518370e+05  -4.544992e+06
   8.693504e+05  -3.761588e+06
   7.880013e+05  -1.821780e+06
   6.542542e+05  -9.014157e+05
   1.396419e+06  -1.133496e+06
   2.497621e+06  -7.979506e+05
   2.672613e+06   9.454229e+05
   1.353150e+06   2.649913e+06
  -7.156331e+05   2.345455e+06
  -2.107409e+06   6.623358e+02
  -1.755872e+06  -2.367912e+06
   2.531459e+05  -2.761919e+06
   2.519709e+06  -9.763707e+05
   3.242218e+06   1.479544e+06
   1.858868e+06   2.849202e+06
  -2.722837e+05   2.564182e+06
  -1.328461e+06   1.493929e+06
  -1.128961e+06   8.589120e+05
  -1.179789e+06   9.073752e+05
  -2.450323e+06   7.711713e+05
  -3.787671e+06  -3.853773e+05
  -3.157874e+06  -2.293070e+06
  -2.140564e+05  -3.724865e+06
   2.994583e+06  -3.548968e+06
   4.003859e+06  -1.660440e+06
   2.327293e+06   8.136732e+05
  -2.183286e+05   2.186553e+06
  -1.364678e+06   1.558251e+06
  -4.670243e+05  -1.936220e+05
   1.127346e+06  -1.121510e+06
   1.624064e+06  -3.101988e+05
   6.222492e+05   1.020660e+06
  -6.197150e+05   1.037127e+06
  -6.730746e+05  -2.987239e+05
   5.223529e+05  -1.077797e+06
   1.677760e+06   1.481881e+05
   1.486250e+06   2.463728e+06
  -2.230450e+05   3.543649e+06
  -2.406143e+06   2.176854e+06
  -3.571284e+06  -5.882066e+05
  -2.826891e+06  -2.639358e+06
  -6.599770e+05  -2.749001e+06
   1.270461e+06  -1.409330e+06
   1.553270e+06  -1.195839e+05
   4.579349e+05   4.091749e+04
  -3.482842e+05  -6.814545e+05
   2.640633e+05  -1.123274e+06
   1.537679e+06  -5.316240e+05
   1.777347e+06   6.039508e+05
   4.699050e+05   1.146246e+06
  -1.020423e+06   6.021104e+05
  -9.930869e+05  -3.860042e+05
   6.537543e+05  -7.657622e+05
   2.252115e+06  -7.398645e+04
   2.058366e+06   1.223272e+06
   1.306780e+04   2.114170e+06
  -2.165636e+06   1.787463e+06
  -2.617708e+06   3.522258e+05
  -1.116086e+06  -1.060761e+06
   7.644137e+05  -1.234170e+06
   1.250638e+06  -1.452985e+05
   9.034701e+04   8.956890e+05
  -1.357560e+06   6.567914e+05
  -1.614863e+06  -6.134948e+05
  -5.034189e+05  -1.503272e+06
   8.531327e+05  -1.091876e+06
   1.218488e+06   5.861693e+04
   3.953687e+05   6.474890e+05
  -6.322877e+05   9.171502e+04
  -6.457632e+05  -9.396852e+05
   5.685151e+05  -1.292271e+06
   1.873801e+06  -4.551660e+05
   1.861181e+06   9.897065e+05
   3.706324e+05   1.889714e+06
  -1.252016e+06   1.531938e+06
  -1.568688e+06   2.809364e+05
  -5.467646e+05  -7.608851e+05
   5.623116e+05  -7.991812e+05
   6.889910e+05  -6.921571e+04
  -1.764992e+04   5.161865e+05
  -5.973380e+05   3.897833e+05
  -4.107522e+05  -1.042687e+05
   2.613353e+05  -1.866558e+05
   5.747068e+05   4.098148e+05
  -3.062975e+04   1.067196e+06
  -1.218924e+06   8.881996e+05
  -1.937838e+06  -3.341814e+05
  -1.371278e+06  -1.781540e+06
   1.819355e+05  -2.299133e+06
   1.515810e+06  -1.470464e+06
   1.715189e+06  -7.097135e+03
   1.019471e+06   9.522432e+05
   3.735342e+05   9.168249e+05
   2.881648e+05   3.959579e+05
   3.915830e+05   2.166853e+05
   6.289545e+04   5.839696e+05
  -7.435323e+05   8.859499e+05
  -1.386627e+06   4.274164e+05
  -1.136249e+06  -6.967176e+05
   1.190383e+05  -1.531469e+06
   1.615178e+06  -1.142332e+06
   2.175659e+06   3.932597e+05
   1.179701e+06   1.918290e+06
  -7.685338e+05   2.209072e+06
  -2.250821e+06   1.098375e+06
  -2.279994e+06  -4.262888e+05
  -1.137758e+06  -1.231255e+06
   5.542454e+04  -1.080919e+06
   4.945882e+05  -6.644950e+05
   3.193007e+05  -6.869335e+05
   2.122105e+05  -1.069281e+06
   5.745109e+05  -1.092669e+06
   1.127964e+06  -2.690686e+05
   1.222965e+06   1.017472e+06
   5.152757e+05   1.780255e+06
  -5.945649e+05   1.351424e+06
  -1.220326e+06   4.118851e+04
  -8.152232e+05  -1.119398e+06
   2.320462e+05  -1.296104e+06
   9.417420e+05  -5.323935e+05
   7.449807e+05   4.235668e+05
   4.609064e+04   8.812461e+05
  -3.008026e+05   7.609789e+05
   4.028748e+03   4.678357e+05
   3.726403e+05   3.543625e+05
   3.567667e+04   3.765611e+05
  -1.005418e+06   2.309181e+05
  -1.838763e+06  -2.547067e+05
  -1.520229e+06  -8.902124e+05
  -9.428317e+04  -1.251398e+06
   1.338385e+06  -1.038413e+06
   1.660615e+06  -3.617791e+05
   8.270060e+05   2.956228e+05
  -1.771860e+05   4.593233e+05
  -4.350686e+05   1.006107e+05
   1.818057e+04  -2.989904e+05
   4.648746e+05  -2.168089e+05
   4.340846e+05   3.209891e+05
   1.244465e+05   7.111617e+05
  -1.754565e+04   4.578542e+05
   1.404879e+05  -1.711179e+05
   3.494156e+05  -3.779974e+05
   2.827231e+05   2.022822e+05
  -1.834232e+05   9.670684e+05
  -8.310832e+05   9.835312e+05
  -1.140043e+06   9.350423e+04
  -6.675648e+05  -8.589108e+05
   3.843841e+05  -9.618577e+05
   1.100439e+06  -2.099753e+05
   6.738401e+05   5.718767e+05
  -6.249560e+05   6.367642e+05
  -1.544814e+06  -1.362910e+04
  -1.106938e+06  -7.726232e+05
   3.334075e+05  -1.029826e+06
   1.437814e+06  -6.256852e+05
   1.267757e+06   8.428297e+04
   1.904991e+05   5.108540e+05
  -5.962042e+05   3.136147e+05
  -3.263852e+05  -2.389168e+05
   6.032075e+05  -4.398623e+05
   1.105474e+06   1.568629e+05
   5.342063e+05   1.156547e+06
  -6.736262e+05   1.566295e+06
  -1.458753e+06   7.637326e+05
  -1.184914e+06  -7.578381e+05
  -1.800474e+05  -1.725464e+06
   7.019690e+05  -1.291258e+06
   9.008611e+05   9.464586e+04
   4.877259e+05   1.122239e+06
  -1.122445e+05   9.758403e+05
  -5.065174e+05   1.217980e+05
  -5.130330e+05  -3.736833e+05
  -2.314291e+05  -1.545730e+05
  -1.707578e+04   1.142574e+05
  -1.591686e+05  -2.286065e+05
  -4.471701e+05  -8.960197e+05
  -2.755259e+05  -1.043106e+06
   5.753601e+05  -3.946356e+05
   1.420939e+06   4.417651e+05
   1.306643e+06   7.933056e+05
   1.884533e+05   6.465086e+05
  -8.853637e+05   3.924225e+05
  -9.644428e+05   2.038845e+05
  -2.814001e+05  -5.791588e+03
   1.670436e+05  -2.070498e+05
  -5.259390e+04  -2.382899e+05
  -3.437741e+05  -1.393602e+05
  -1.236184e+04  -1.324716e+05
   7.272671e+05  -1.881716e+05
   9.827592e+05   4.212045e+04
   2.752565e+05   6.441694e+05
  -8.901193e+05   1.060327e+06
  -1.556150e+06   6.437081e+05
  -1.226370e+06  -4.675531e+05
  -2.186691e+05  -1.351758e+06
   7.113186e+05  -1.271873e+06
   9.972913e+05  -4.448950e+05
   6.338348e+05   2.733645e+05
   8.697162e+04   3.395524e+05
  -1.433782e+05   1.106630e+04
   4.858537e+04  -7.482654e+04
   3.239354e+05   3.240066e+05
   2.652321e+05   7.678365e+05
  -1.918965e+05   6.249381e+05
  -6.627547e+05  -1.768295e+05
  -6.445264e+05  -9.641670e+05
  -9.989185e+03  -9.703789e+05
   7.664891e+05  -1.503045e+05
   9.501005e+05   7.650370e+05
   2.689890e+05   1.031626e+06
  -6.946942e+05   5.772068e+05
  -1.020144e+06  -1.025804e+05
  -4.531283e+05  -5.294713e+05
   2.718320e+05  -5.673773e+05
   2.961834e+05  -3.284276e+05
  -3.073353e+05  -3.827251e+04
  -6.355602e+05   2.083547e+04
  -1.115026e+05  -2.791456e+05
   7.877091e+05  -6.480002e+05
   1.135604e+06  -5.577693e+05
   6.487411e+05   1.169140e+05
  -1.044700e+05   7.946890e+05
  -4.666205e+05   7.776519e+05
  -3.328679e+05   9.751018e+04
  -9.100409e+03  -4.847959e+05
   2.440933e+05  -3.718754e+05
   3.371612e+05   2.064597e+05
   2.260963e+05   5.520344e+05
  -7.121407e+04   3.458684e+05
  -3.677208e+05  -7.389737e+04
  -4.257639e+05  -2.251220e+05
  -2.281919e+05  -5.307701e+04
  -1.557497e+03   9.226498e+04
   7.639433e+04  -6.290614e+04
   8.092892e+04  -3.773055e+05
   1.794406e+05  -4.511415e+05
   3.456966e+05  -8.710990e+04
   3.460481e+05   4.408031e+05
   2.874175e+04   6.264147e+05
  -4.228417e+05   2.628890e+05
  -5.846826e+05  -3.140807e+05
  -2.025925e+05  -5.722462e+05
   4.652756e+05  -3.322569e+05
   7.981707e+05   1.089783e+05
   4.315357e+05   3.642887e+05
  -2.826533e+05   3.285543e+05
  -5.911406e+05   1.509841e+05
  -1.873940e+05   4.383570e+03
   3.995736e+05  -1.033922e+04
   4.139361e+05   1.357212e+05
  -2.193927e+05   3.176400e+05
  -8.017195e+05   2.482725e+05
