
 $NMID
 id='ANONYMOUS ', fmtdat='(2E16.6)'
 volume=1.0
 tramp=1.0
 $END
  -2.601954e+03  -2.373112e+01
  -1.865965e+03  -1.211864e+03
  -3.483554e+02  -1.620816e+03
   8.221724e+02  -1.345533e+03
   8.191969e+02  -5.626225e+02
   3.313639e+02   2.845668e+01
  -8.963763e+01   7.221329e+00
  -1.123045e+02  -2.459260e+02
   3.021591e+02  -4.515305e+02
   4.733520e+02  -1.559260e+02
   4.294357e+02   3.373467e+02
   1.362530e+02   5.401777e+02
  -1.220904e+02   2.361640e+02
  -1.490589e+02  -2.648022e+02
   2.971381e+01  -4.048727e+02
   3.289032e+02  -1.548687e+02
   2.354485e+02   4.028357e+02
   1.970387e+01   6.099152e+02
  -3.625137e+02   3.150179e+02
  -4.197317e+02  -9.090633e+00
  -2.034532e+02  -2.799766e+02
   6.875488e+01  -2.046064e+02
   1.004895e+01  -8.279696e+01
  -2.233383e+02  -1.559392e+02
  -2.177414e+02  -3.636214e+02
   9.559001e+01  -2.907862e+02
   4.573391e+02  -9.510584e+01
   4.478932e+02   2.274851e+02
   1.941409e+02   2.175017e+02
  -2.357985e+02   8.002918e+01
  -2.912308e+02  -1.835547e+02
  -9.664675e+01  -3.095525e+02
   1.922042e+02  -2.684110e+02
   3.797214e+02  -1.182570e+02
   2.989859e+02   9.550657e+01
   1.547904e+02   2.278786e+02
   9.634443e+01   1.397064e+02
   1.440817e+02  -3.611947e+01
   1.972498e+02  -6.536966e+01
   1.069969e+02   1.928151e+02
   1.332699e+01   3.866927e+02
  -2.378909e+02   2.922211e+02
  -2.291915e+02  -3.385536e+01
  -3.748649e+01  -2.125328e+02
   6.364475e+01  -9.802387e+01
   1.040490e+02   1.786925e+02
  -1.425317e+02   3.216279e+02
  -3.488631e+02   3.303090e+01
  -4.232016e+02  -2.963779e+02
  -1.633397e+02  -4.231735e+02
   2.630780e+02  -1.885405e+02
   4.232353e+02   6.865564e+01
   3.756219e+02   1.471935e+02
  -2.059288e+01   1.887553e+02
  -2.427232e+02   7.849593e+01
  -2.288999e+02   7.354518e+01
  -4.762664e+01  -7.513417e+01
  -2.304639e+01   2.003250e+01
  -6.867843e+01   1.888219e+01
  -1.518541e+02  -5.775150e+01
  -8.247519e+01  -1.900084e+02
   1.218484e+02  -2.146806e+02
   3.338693e+02  -1.543767e+02
   2.161979e+02   6.754480e+01
  -1.717834e+01   3.073512e+02
  -3.062350e+02   3.587720e+02
  -4.038608e+02   1.087501e+02
  -1.800931e+02  -1.510642e+02
  -3.660176e+01  -2.399630e+02
   8.763320e-02  -2.570886e+02
  -5.815978e+01  -1.558565e+02
   4.854183e+01  -1.184763e+02
   1.712201e+02  -9.400736e+01
   3.115155e+02  -1.335681e+01
   1.850826e+02   1.608679e+02
   4.732750e+01   2.314870e+02
  -7.939196e+01   1.034979e+02
  -1.343171e+02  -2.083433e+01
  -5.474275e+01  -1.873609e+02
   3.016355e+01  -2.572432e+02
   2.161289e+02  -1.920972e+01
   2.273642e+02   1.771409e+02
   1.717917e+02   2.287689e+02
  -2.513808e+01   2.647347e+02
  -5.532973e+01   1.371505e+02
  -5.714914e+01   1.322821e+02
  -1.565921e+02   1.170844e+02
  -2.335290e+02   3.365742e+01
  -4.405496e+02  -9.580529e+01
  -3.080648e+02  -2.614284e+02
   2.258361e+01  -4.151249e+02
   3.537722e+02  -3.917779e+02
   4.388194e+02  -1.758045e+02
   2.085995e+02   7.204290e+01
  -3.873648e+01   2.563412e+02
  -9.709747e+01   1.429745e+02
   3.757250e+01   4.402694e+01
   1.885956e+02  -2.004738e+01
   9.975574e+01   4.681854e+01
  -9.574581e+00   1.607456e+02
  -1.047501e+02   1.259724e+02
  -8.364319e+01  -9.984204e+01
   2.780750e+01  -1.291877e+02
   1.771142e+02   3.891698e+00
   1.378644e+02   2.375425e+02
   1.794602e+01   2.572898e+02
  -2.026574e+02   2.394826e+02
  -3.189220e+02  -7.550902e+01
  -3.295902e+02  -2.809403e+02
  -5.619583e+01  -2.342107e+02
   1.633050e+02  -6.459641e+01
   1.531586e+02  -6.745944e+01
  -6.400098e+00   3.887111e+01
  -6.141329e+01  -6.295549e+01
   4.327608e+01  -8.992118e+01
   1.246792e+02  -1.302327e+01
   1.322316e+02   4.259833e+01
   2.706568e+01   1.172664e+01
  -8.311101e+01  -2.314017e+01
  -6.031606e+01  -1.149726e+02
   1.752771e+02  -7.695811e+01
   2.590904e+02   4.365275e+01
   2.314583e+02   1.685888e+02
   5.939525e+01   2.370250e+02
  -2.211977e+02   2.131382e+02
  -2.166196e+02   5.795387e+01
  -1.318235e+02  -3.264712e+01
   5.254857e+01  -1.194806e+02
   7.290118e+01   7.457423e+00
  -6.977130e+01   9.030616e+01
  -1.977867e+02   4.767944e+01
  -1.583462e+02  -1.104403e+02
  -6.107291e+01  -1.293742e+02
   8.442851e+01  -1.288856e+02
   1.857114e+02  -3.868892e+01
   1.716659e+00   1.307351e+01
   2.196533e+00  -5.418287e+01
   2.071910e+01  -7.794354e+01
   6.252537e+01  -1.215166e+02
   2.082407e+02  -1.281000e+01
   1.416002e+02   1.113517e+02
   4.486852e+01   2.119990e+02
  -1.677880e+02   1.462248e+02
  -1.060493e+02   1.307664e+01
  -2.667382e+01  -3.208970e+01
   7.970441e+01  -4.771684e+01
   1.014984e+02  -6.379620e+01
  -5.208268e+00   5.368938e+01
   2.967187e+01  -3.648766e+01
  -1.136141e+01  -2.412554e+01
   1.541170e+02  -9.914927e+01
   7.671348e+01   1.262212e+02
   2.862460e+01   2.248491e+02
  -1.431147e+02   1.264951e+02
  -2.276148e+02   1.658475e+01
  -1.730770e+02  -1.486174e+02
  -1.536225e+01  -2.167892e+02
   7.179232e+01  -1.396572e+02
   1.179305e+02  -8.032649e+01
   4.696707e+01   3.980840e+01
   5.866851e+01   4.418313e+01
   5.148871e+01   3.236129e+01
   7.741930e+01  -2.458815e+01
   1.283626e+01   7.917714e+01
  -5.420471e+01   1.446105e+02
  -1.078385e+02   8.332336e+01
  -1.267802e+02  -2.707965e+01
   4.027626e+01  -1.540608e+02
   1.717384e+02  -7.562371e+01
   2.389602e+02   7.508747e+01
   8.161352e+01   1.851622e+02
  -9.973043e+01   1.863344e+02
  -2.569936e+02   8.480399e+01
  -1.961501e+02  -1.149426e+01
  -6.710488e+01  -1.463149e+02
   4.368752e+01  -3.876562e+01
   4.452902e+01  -4.691507e+01
   4.111599e+01  -4.914660e+01
   4.019478e+01  -5.510041e+01
   4.250889e+01  -1.072301e+02
   1.532983e+02  -2.478939e+01
   1.032649e+02   1.512385e+02
  -1.245898e+01   1.709082e+02
  -1.457073e+02   1.548138e+02
  -1.656634e+02   3.550049e+01
  -1.042862e+02  -1.073236e+02
  -3.540784e+01  -1.081704e+02
   4.946305e+01  -7.521677e+01
   3.371888e+01   4.863511e+01
  -2.226557e+01   1.426182e+01
  -5.476158e+01   4.955639e+01
   1.482210e+00  -2.157499e+01
   5.689908e+01   2.124076e+01
   1.047696e+02   4.420435e+01
  -6.967461e+01   6.214773e+01
  -2.104928e+02  -3.026762e+01
  -1.599751e+02  -6.259737e+01
  -4.298090e+01  -1.649948e+02
   1.023343e+02  -3.831293e+01
   1.113911e+02  -5.104376e+01
   5.443795e+01   6.160477e+01
  -5.198141e+01   3.805143e+01
  -8.292391e+01  -1.473417e+01
   1.141517e+01  -5.679279e+01
   1.998707e+01  -6.728371e+01
   8.378284e+01   1.824813e+00
   8.350919e+01   2.152091e+01
   2.403849e+01   6.073906e+01
   9.124352e+01   3.782727e+01
   9.950441e+01  -2.386418e+01
   5.398783e+01   5.602461e+01
  -5.786449e+01   8.983849e+01
  -1.826879e+02   1.454365e+02
  -1.855130e+02   5.584623e+01
  -1.245312e+02  -8.051685e+01
  -1.323584e+01  -1.249491e+02
   7.799916e+01  -5.510929e+01
   4.666577e+01   3.028608e+01
  -3.194227e+01   4.671664e+00
  -1.591517e+02   3.092073e+00
  -3.131888e+01  -1.183682e+02
   4.137376e+01  -4.403739e+01
   1.353633e+02  -7.984727e+01
   1.101048e+02   9.871415e+01
   1.165379e+01   7.358695e+01
  -6.067395e+01   1.872398e-01
  -8.709203e+01   5.001672e+01
  -8.072858e+00  -4.085144e+01
   8.159821e+01   4.051743e+01
   8.121771e+01   1.600585e+02
  -4.307743e+01   2.122712e+02
  -1.485731e+02   4.702453e+01
  -1.045146e+02  -1.157965e+02
  -3.088725e+01  -1.452084e+02
   6.404886e+01  -1.315915e+02
   8.650873e+01  -1.753479e+01
   4.743474e+01   1.355230e+02
  -3.029089e+01   7.819625e+01
  -6.071819e+01   2.589121e+00
  -2.263042e+01   1.234396e+00
   3.705956e+01   3.548532e+01
  -1.115456e+01  -4.338219e+01
  -3.138599e+01  -1.166266e+01
  -7.405985e+01  -7.649223e+01
  -5.537364e+01  -9.444612e+01
   6.291156e+01  -9.033100e+01
   1.159708e+02   5.402418e+01
   1.730308e+02   1.237423e+02
   1.580881e+01   8.851979e+01
  -9.495180e+01  -1.996572e+01
  -3.607464e+01   3.755069e+01
  -9.965453e+01  -5.670950e+01
   8.323126e+01   3.651551e+00
   1.118208e+01  -3.345499e+00
   4.624405e+01  -2.560795e+01
   1.028284e+01   2.636154e+01
   9.315979e+01  -2.125362e+01
   5.089806e+01  -2.222153e+01
   1.490086e+01   5.621661e+01
  -8.031773e+01   1.152736e+02
  -1.086269e+02   7.819695e+01
  -1.745881e+02  -8.059162e+01
  -6.571400e+01  -1.420495e+02
   4.535497e+01  -1.313837e+02
   1.555690e+02  -5.129356e+01
   1.108963e+02   2.208640e+01
   3.630473e+01   1.236978e+01
   4.869151e+01   3.232253e+01
   6.801676e+01   1.278542e+00
   5.672262e+00   2.799994e+01
   2.281771e+01   3.796654e+01
   1.266361e+01   7.333310e+01
  -9.745285e+01  -2.463608e+01
  -1.298190e+02  -8.554261e+01
  -5.108441e+01  -1.156865e+02
   3.095814e+01  -8.197420e+00
   4.866938e+01   6.289575e+01
   2.238975e+01   7.231571e+01
  -7.315373e+01   1.306908e+02
  -4.830615e+01  -6.191236e+01
  -3.871039e+01  -1.119542e+02
   2.747315e+00  -7.300175e+01
   7.060573e+01  -2.507887e+01
   3.126033e+01  -1.446662e+01
  -4.315138e+01   5.192402e+01
   1.374490e+01  -2.299144e+01
   8.533157e+01  -2.997875e+01
   1.319897e+02  -3.449062e+01
   1.102257e+02   3.125389e+01
  -3.587065e+01   1.178818e+01
  -9.196348e+01   6.141117e+01
  -5.110739e+01   2.055429e+00
   4.623290e-01  -4.093976e+01
  -2.496703e+01  -4.655064e+01
   5.962776e+01   5.354821e+01
  -9.835120e+00   1.039169e+02
  -3.742758e+01   6.356606e+01
  -2.042313e+01   2.118777e+01
  -4.129463e+01  -4.452973e+01
  -3.580094e+01  -6.032623e+01
   4.409439e+01   8.629345e+00
   9.174877e+01  -4.353062e+00
   2.772535e+01  -3.730466e+01
  -2.986716e+01  -5.492993e+01
   4.560525e+01  -3.718462e+01
   8.696980e+01   6.640003e+01
   3.939421e+00   1.891432e+01
  -8.405794e+01   3.591760e+01
   3.328262e+00  -3.056688e+01
   3.058203e+01  -7.991349e+01
   3.389976e+01   3.647860e+00
   1.174113e+02  -5.011037e+01
   3.543851e+01   7.276868e+01
  -1.204577e+01   5.252120e+01
  -4.371572e+01   4.341666e+01
  -5.571489e+01   1.612943e+01
   9.339118e+00   2.078220e+01
  -1.243460e+01  -2.302872e+01
  -3.811381e+00   2.373956e+01
  -5.537300e+01   9.187168e+00
