
 $NMID
 id='ANONYMOUS ', fmtdat='(2E16.6)'
 volume=1.0
 tramp=1.0
 $END
   2.313365e+03   2.193075e+01
   1.602715e+03   1.044694e+03
   1.431797e+02   1.459633e+03
  -7.958374e+02   1.104035e+03
  -7.607706e+02   3.580151e+02
  -1.692329e+02  -8.336254e+01
   1.654636e+02   1.641778e+01
   7.858007e+01   3.146966e+02
  -3.055209e+02   5.107847e+02
  -4.137426e+02   1.234917e+02
  -3.926474e+02  -3.042454e+02
  -8.225892e+01  -4.808968e+02
   1.419860e+02  -1.585663e+02
   1.782174e+02   2.188637e+02
  -2.487905e+01   3.954197e+02
  -2.685121e+02   7.892146e+01
  -2.687885e+02  -2.675405e+02
   2.906989e+01  -5.121383e+02
   3.499133e+02  -3.061916e+02
   3.096095e+02   1.537935e+02
   1.155926e+02   3.162895e+02
  -1.055597e+02   2.033887e+02
  -4.127540e+01   1.847107e+01
   1.539046e+02   5.772655e+01
   1.915433e+02   2.413954e+02
  -2.255574e+01   2.344389e+02
  -3.078016e+02   8.409166e+01
  -4.308057e+02  -1.611596e+02
  -1.683511e+02  -2.242868e+02
   2.357515e+02  -3.461064e+01
   2.837090e+02   1.259683e+02
   1.243707e+02   2.773295e+02
  -2.339138e+02   2.300067e+02
  -3.405238e+02   1.310036e+02
  -2.685726e+02  -9.714414e+01
  -9.242381e+01  -1.582750e+02
  -1.637906e+01  -9.184432e+01
  -7.129221e+01   1.219982e+01
  -1.540528e+02   4.734073e+01
  -5.025591e+01  -8.456053e+01
   1.888739e+01  -3.645965e+02
   1.970478e+02  -3.272108e+02
   2.398252e+02  -2.789338e+01
   7.663388e+01   1.478308e+02
  -1.461713e+02   6.703403e+01
  -9.248958e+01  -1.791295e+02
   1.257049e+02  -3.003791e+02
   2.944881e+02   2.998535e+01
   3.598421e+02   2.761656e+02
   9.900546e+01   3.962049e+02
  -2.129747e+02   1.667429e+02
  -3.709117e+02  -1.945477e+01
  -2.383458e+02  -1.507544e+02
   5.889522e+01  -1.574786e+02
   1.792470e+02  -2.973459e+01
   1.763629e+02  -2.196754e+01
   1.485428e+01  -9.586056e+00
  -5.625541e+01  -1.924746e+01
   1.091166e+02  -2.029945e+01
   1.443119e+02  -1.574657e+01
   7.445148e+01   1.591393e+02
  -1.362836e+02   1.746549e+02
  -2.584045e+02   8.980590e+01
  -1.952690e+02  -5.924696e+01
  -3.890596e+00  -2.493370e+02
   2.657794e+02  -2.625412e+02
   2.243325e+02  -1.284397e+02
   1.559751e+02   1.235674e+02
   2.359661e+01   2.649562e+02
  -3.564181e+01   2.415350e+02
  -4.154521e+01   9.140787e+01
   6.801166e+00   5.008917e+01
  -4.332414e+01   1.279687e+02
  -1.739874e+02   1.773699e+01
  -1.925449e+02  -1.704889e+02
  -3.702523e+01  -2.119608e+02
   1.344075e+02  -1.456174e+02
   1.128343e+02   6.360058e+01
   1.127950e+02   1.584537e+02
  -4.533530e+01   1.665796e+02
  -2.213910e+02   2.147013e+01
  -2.627084e+02  -1.507550e+02
  -1.581246e+02  -2.196742e+02
  -6.253195e+00  -1.798749e+02
   1.063060e+02  -1.084559e+02
   1.216523e+02  -8.191436e+01
   1.081170e+02  -2.732409e+01
   2.474226e+02   2.726702e+01
   2.719904e+02   4.009969e+01
   1.815109e+02   2.141775e+02
  -3.927949e+01   3.410591e+02
  -3.021338e+02   3.108569e+02
  -3.619992e+02   1.278693e+02
  -2.106047e+02  -4.107320e+01
  -8.087733e+00  -1.431585e+02
   8.707044e+01  -9.153164e+01
  -2.230925e+01  -8.363745e+01
  -7.417956e+01   7.594503e+00
  -1.384985e+02  -2.041446e+01
  -2.399470e+01  -8.716608e+01
   9.442897e+01   1.329971e+00
   5.524387e+01   4.872860e+01
  -2.888956e+01   7.188124e+01
  -8.740954e+01   3.105028e+01
  -1.021419e+02  -1.798885e+02
   5.146574e+01  -2.845625e+02
   1.517507e+02  -1.749327e+02
   2.330607e+02   9.554616e+01
   1.734885e+02   2.428398e+02
   1.278508e+01   2.307622e+02
  -1.539886e+02   1.543958e+02
  -1.384860e+02   1.707303e+01
  -5.037090e+01   1.191426e+01
   3.438955e+01   8.148145e+01
  -6.125365e+01   1.714846e+01
  -1.174603e+02   5.785049e+01
  -8.318873e+01  -2.470837e+01
  -4.160312e+01  -3.266541e+01
   6.893292e+01   2.753157e+01
   2.786969e+01   1.048005e+02
  -1.197025e+02   7.589622e+01
  -1.801023e+02   1.627987e+00
  -1.693351e+02  -1.804259e+02
   2.730852e+01  -1.633912e+02
   1.635922e+02  -1.909317e+02
   1.906135e+02  -8.537877e+01
   1.094524e+02   1.495547e+01
  -6.478881e+01   3.361481e+01
  -4.225484e+01  -1.368795e+01
   4.541772e+01  -7.972250e+01
   1.590059e+02  -3.041717e+01
   9.812425e+01   8.461148e+01
   8.613500e+01   1.187898e+02
  -3.210698e+01   1.041801e+02
  -1.846872e+01  -7.254426e+00
  -4.337264e+01  -5.376901e+01
  -1.244184e+00   5.910044e+01
   2.650918e+01   3.235769e+01
  -8.456050e+01   1.528529e+02
  -1.717540e+02  -3.310091e+00
  -1.235184e+02  -7.266189e+01
   3.856013e+01  -1.611759e+02
   2.105317e+02  -9.459382e+01
   1.641400e+02  -1.226847e+01
   6.702648e+01   4.334729e+01
  -3.765783e+01   9.133278e+01
  -6.404426e+01  -1.756452e+01
   6.032685e+01   2.876104e+00
   8.020411e+01  -2.192168e+01
  -1.262780e+01   4.514604e+01
  -7.224350e+01  -6.497220e+00
  -8.329086e+01  -7.324470e+01
  -1.797952e+01  -9.579577e+01
   1.237716e+02  -1.048246e+02
   1.667298e+02  -5.116202e+01
   1.143525e+02   1.275328e+02
   4.362716e+01   1.342376e+02
  -2.448222e+01   8.784308e+01
  -1.092377e+02  -4.834871e+01
  -4.567834e+01  -3.408788e+01
  -2.614359e+00  -3.321209e+01
  -6.495935e+01   1.625265e+01
  -1.973059e+01  -1.094993e+01
  -1.848916e+01  -7.051319e+01
   2.854203e+01  -6.852914e+01
   8.891941e+01  -5.570642e+01
   8.982511e+01   1.086448e+02
  -7.254053e+00   7.225106e+01
  -1.317713e+02   4.546598e+01
  -2.235912e+02  -5.627639e+01
  -6.795522e+00  -1.911242e+02
   1.304401e+02  -1.225635e+02
   2.292808e+02  -9.399777e+01
   1.778168e+02   4.599307e+01
   4.865012e+01   9.139020e+01
  -3.905367e+01   9.701671e+01
  -5.606352e+01   7.593142e+01
  -3.692395e+01   7.742220e+01
  -1.728804e+01   6.159518e+01
  -1.173094e+02   5.030494e+01
  -1.239459e+02  -1.936199e+01
  -9.301996e+01  -1.355450e+02
  -4.222621e+01  -1.400759e+02
   6.059075e+01  -9.980522e+01
   1.423689e+02  -9.267158e+00
   3.454315e+01   8.661038e+01
  -1.300538e+01   9.666782e+01
  -9.650837e+01   4.030770e+01
  -4.309341e+01   1.007701e+01
   7.161267e+01  -8.324779e+01
   7.370255e+00  -1.753685e+01
   5.422917e+00  -2.025390e+01
  -7.065840e+01  -3.247990e+01
  -3.836398e+01  -3.616784e+01
   8.755066e+01  -4.505088e+01
   1.275666e+02   2.941618e+01
   1.349076e+02   7.869045e+01
  -6.302740e+00   7.551498e+01
  -1.137404e+02   7.194144e+01
  -1.266447e+02  -4.699984e+01
   1.610427e+01  -4.010349e+00
   1.893476e+01  -3.549193e+01
   4.446395e+01   5.260406e+01
  -1.476748e+01   5.836766e+01
  -9.066869e+00   7.825337e+01
  -6.065223e+01   1.010561e+00
   2.328757e-01  -3.156239e+01
  -6.233210e+01  -1.587128e+01
  -5.257834e+01   2.321333e+01
  -6.594939e+01   2.730613e+01
  -5.496240e+01  -1.269180e+02
   4.434904e+01  -1.145184e+02
   8.301867e+01  -4.121708e+01
   1.263964e+02   2.886999e+01
   1.020542e+02   7.768253e+01
  -2.894500e+01   1.338961e+02
  -9.988929e+01   4.695135e+01
  -2.649637e+01   5.040199e+01
   4.557388e+01  -3.714304e+01
   1.038244e+02   1.980635e+01
   6.348099e+01   9.433726e+01
  -6.479662e+01   5.299459e+01
  -1.409535e+02   3.188407e+01
  -6.445943e+01   9.172394e+00
  -3.167163e+01  -1.975948e+01
   5.137870e+01  -4.983917e+01
   4.436068e+00   1.539397e+01
  -6.913637e+01  -9.092662e+00
  -7.346837e+01  -3.222788e+00
  -4.200624e+01  -3.220039e+01
   9.193429e+01  -1.271303e+02
   1.726550e+02  -7.647434e-01
   1.219566e+02   8.370642e+01
   5.214212e+01   1.395939e+02
  -7.412559e+01   1.617751e+02
  -1.004565e+02  -2.736475e+01
  -7.263581e+01  -7.958203e+01
  -2.632569e+01  -1.218789e+02
  -4.192847e+01   5.541294e+00
   6.268089e+01   5.026890e+01
  -3.989688e+01   8.187700e+00
   2.715358e+01  -1.586960e+01
   2.174034e+01   2.735126e+01
   6.271104e+01   2.781743e+00
  -1.608293e+01   6.034433e+01
  -6.333126e+01   2.876421e+01
  -8.275833e+01  -2.049974e+00
  -1.400516e+02  -4.473869e+01
   3.567734e+01  -5.326354e+01
   3.024500e+01  -2.132546e+01
   3.280707e+01  -3.081017e+01
  -1.118019e+01   3.673302e+01
  -1.802621e+01  -9.261134e+00
  -7.885450e+00  -3.577186e+01
  -8.597381e+00   3.571391e+01
  -2.721266e+01   2.725009e+01
  -6.586024e+01   1.916252e+01
  -6.356360e+01  -3.855707e+01
   5.656941e+00  -6.729478e+01
   9.984928e+01  -1.006803e+02
   1.074478e+02  -2.701155e+01
   1.500474e+02   5.911331e+01
   8.549934e+00   9.126559e+01
  -5.152634e+01   1.119964e+02
  -5.697425e+01   6.612250e+01
  -1.411410e+01  -5.147121e+01
   2.276853e+01  -1.983323e+01
   6.586683e+00  -7.026881e-02
  -2.263902e+01   3.760564e+01
   1.333040e+01   2.552800e+01
   1.406046e+01  -6.952046e+01
  -3.346741e+01  -8.386457e+01
   9.121538e+01   6.990024e+00
   1.050770e+02   7.592119e+01
   1.596111e+01   1.019967e+02
  -7.674956e+01   6.381602e+01
  -8.125893e+01  -7.226227e+01
  -3.612375e+00  -5.525613e+01
   9.767737e+01  -5.336830e+01
   1.204235e+02   1.630219e+01
  -9.168189e-01  -4.032445e+00
  -4.732592e+01   3.173533e+01
  -5.571154e+00   9.138823e+01
  -9.683711e+00  -3.309644e+01
   6.586677e+01  -1.204890e+01
  -3.418671e+00  -1.714689e+01
  -6.545671e+01   2.809880e+01
  -9.299202e+01   3.992542e+01
  -1.110817e+02   3.992571e+01
   6.764785e+01  -3.267273e+01
   7.038464e+01  -5.199550e+01
   3.470178e+01   2.964014e+01
   5.850369e+00   2.209778e+01
  -6.231519e+01   1.865412e+01
   9.353545e-01   2.178889e+01
   1.174146e+01  -1.897192e+01
  -4.772349e+00  -6.146508e+01
   9.923801e+00   2.416519e+01
   5.158674e+01   5.246882e+01
   6.638233e+01   2.848207e+01
   4.844286e+01  -4.110141e+01
  -3.877683e+01   9.399149e+00
   2.578521e+01  -2.485435e+01
   2.053319e+01   6.229015e+00
  -9.608441e+01   9.579587e+01
  -6.321158e+01  -8.086067e+01
  -4.788514e+01  -1.924205e+01
   6.965113e+01  -2.282420e+01
   3.442854e+01   6.745320e+01
  -5.081013e+01   7.648664e+01
  -3.959171e+01   6.807787e+01
  -6.870488e+01   4.890128e+01
  -4.344983e+01   1.529072e+01
   1.175947e+01  -5.933278e+01
   3.418796e+01  -3.762014e+01
   4.589296e+01  -1.548087e+01
  -1.134088e+01  -9.640033e+00
  -3.846593e+01  -1.013152e+01
  -1.762793e+01  -5.216682e+01
   2.522942e+01   3.601139e+01
