
 $NMID
 id='ANONYMOUS ', fmtdat='(2E16.6)'
 volume=1.0
 tramp=1.0
 $END
  -2.450857e+03   6.987353e+01
  -1.762967e+03  -1.153199e+03
  -2.535564e+02  -1.533188e+03
   7.916836e+02  -1.168833e+03
   7.545817e+02  -4.962041e+02
   2.380442e+02   7.895881e+01
  -1.798495e+02   4.152515e+01
  -1.289053e+02  -3.581699e+02
   2.190943e+02  -3.954295e+02
   4.610802e+02  -1.715132e+02
   3.237065e+02   3.135764e+02
   6.594367e+01   4.828904e+02
  -1.663137e+02   1.557207e+02
  -1.961210e+02  -2.395872e+02
   5.051856e+00  -4.306166e+02
   2.770281e+02  -9.698301e+01
   2.752058e+02   3.289932e+02
  -8.801896e+01   5.340515e+02
  -3.627057e+02   2.600440e+02
  -3.768808e+02  -1.150094e+02
  -1.597832e+02  -2.589486e+02
   8.493808e+01  -2.027194e+02
   1.297012e+01  -1.065924e+02
  -1.804286e+02  -1.084377e+02
  -2.057630e+02  -2.510463e+02
   5.520783e+01  -3.128872e+02
   3.565626e+02  -5.648014e+01
   4.483117e+02   2.072196e+02
   1.327821e+02   2.898402e+02
  -2.567942e+02   7.923342e+01
  -3.433135e+02  -1.130623e+02
  -1.953433e+02  -2.752484e+02
   2.117131e+02  -2.524600e+02
   3.707459e+02  -9.720086e+01
   2.625990e+02   5.852374e+01
   5.989179e+01   1.567401e+02
   4.747729e+01   1.505474e+02
   8.950200e+01  -4.425370e+01
   1.332648e+02  -8.897393e+01
   1.285491e+02   9.558784e+01
  -1.162838e+02   3.936329e+02
  -1.773340e+02   3.485734e+02
  -2.207884e+02  -1.258881e+00
  -6.071075e+01  -2.084801e+02
   8.454970e+01  -4.722620e+01
   4.922440e+01   2.339959e+02
  -3.353664e+01   2.637624e+02
  -3.535654e+02   4.049785e+01
  -4.069661e+02  -3.189512e+02
  -1.898167e+02  -3.752269e+02
   2.242413e+02  -1.972785e+02
   4.231541e+02   5.969973e+01
   2.523275e+02   2.020763e+02
  -4.136950e+01   1.355887e+02
  -2.142886e+02   8.694250e+01
  -1.751573e+02  -4.521879e+01
  -1.982057e+01  -2.632862e+01
   1.081995e+01  -1.298304e+01
  -5.066128e+01   9.640641e+00
  -9.671209e+01  -4.524534e+01
  -4.629595e+01  -1.007858e+02
   9.565556e+01  -2.709305e+02
   2.794223e+02  -1.550560e+02
   2.517928e+02   9.535301e+01
  -3.674797e+01   2.670204e+02
  -2.271367e+02   3.505295e+02
  -4.131567e+02   1.504267e+02
  -1.533952e+02  -1.030504e+02
  -1.230769e+01  -3.075604e+02
   3.747604e+01  -2.640192e+02
  -3.579539e+01  -1.693563e+02
   8.841100e+01  -1.055564e+02
   1.390542e+02  -9.628276e+01
   1.871232e+02  -4.467940e+01
   2.112128e+02   1.470601e+02
   6.539057e+01   2.108236e+02
  -8.817042e+01   1.630404e+02
  -1.171936e+02  -5.321119e+01
  -7.175768e+01  -1.963440e+02
   3.331003e+01  -1.705117e+02
   2.578496e+02  -6.076840e+01
   2.747833e+02   1.783413e+02
   1.934026e+02   2.512233e+02
   2.945364e+00   2.355327e+02
  -1.160126e+02   1.804187e+02
  -5.782268e+01   3.460541e+01
  -1.265595e+02   1.092892e+02
  -2.431464e+02   7.194927e+01
  -3.748554e+02  -1.205459e+02
  -2.826432e+02  -2.382751e+02
  -3.263611e+01  -3.780620e+02
   3.144237e+02  -3.706509e+02
   4.082275e+02  -1.357922e+02
   2.214344e+02   6.280118e+01
   6.547268e+00   1.931739e+02
  -3.034222e+01   9.185337e+01
   4.961118e+01   3.476489e+01
   1.013165e+02   2.877387e+00
   4.900468e+01   3.090400e+01
  -2.902306e+01   1.330296e+02
  -7.226184e+01   1.545922e+02
  -3.834500e+01  -7.273750e+01
  -6.056000e+00  -1.755689e+02
   1.780080e+02  -5.676107e+01
   9.807450e+01   1.834322e+02
   2.606375e+01   2.875392e+02
  -1.937799e+02   1.724242e+02
  -3.324616e+02  -4.571492e+01
  -2.251145e+02  -2.327506e+02
  -4.966014e+01  -2.850059e+02
   9.046599e+01  -1.471612e+02
   7.001128e+01   8.743205e+00
   4.102723e+01   5.917776e+00
  -4.101797e+01  -9.315008e+01
  -2.632931e+01  -1.396546e+02
   1.381132e+02  -5.316695e+01
   1.369851e+02   5.413153e+00
   1.901635e+01  -1.661047e+01
  -1.323893e+02  -3.648859e+01
  -2.393026e+01  -4.311021e+01
   1.388954e+02  -8.082296e+01
   2.431211e+02  -9.457671e+00
   2.257729e+02   1.041315e+02
  -1.509926e+01   2.248668e+02
  -1.906877e+02   1.739651e+02
  -2.340921e+02   8.946936e+01
  -1.223071e+02  -3.634474e+01
   2.767476e+01  -8.822538e+01
  -9.710768e+00   9.585920e+00
   1.346732e+01  -2.910742e-01
  -1.579664e+02   1.315865e+01
  -1.487334e+02  -9.292517e+01
  -5.702221e+01  -1.789228e+02
   6.260747e+01  -5.830549e+01
   1.304140e+02  -1.338043e+01
   6.560889e+01   3.547192e+01
  -3.349042e+01   2.180248e+01
   2.881695e+00  -6.388558e+01
   6.955236e+01  -1.003389e+02
   2.106694e+02   1.961029e+01
   1.628613e+02   7.794799e+01
   2.021521e+01   1.731631e+02
  -1.697889e+02   7.695105e+01
  -1.216017e+02   1.231791e+01
  -1.225773e+01  -1.088091e+02
   4.154347e+01  -9.480367e+01
   7.865813e+01   1.277976e+01
  -1.328761e+01  -6.125842e+01
  -6.022769e+01   2.410729e+01
   2.157591e+01   3.745961e+01
   7.236643e+01  -5.287372e+01
   4.648459e+01   9.153233e+01
   2.672984e+01   1.003188e+02
  -1.494755e+02   6.814688e+01
  -1.660943e+02  -3.404251e+01
  -1.339973e+02  -1.202616e+02
  -1.242759e+01  -1.552792e+02
   1.114400e+02  -1.490653e+02
   9.881211e+01  -5.495152e+01
   7.401443e+01   4.254478e+01
   6.077350e+01   5.585433e+00
   6.560620e+01  -6.734565e+00
   1.459476e+02  -3.759184e+01
   6.615493e+01   6.437619e+01
  -1.103763e+01   7.050144e+01
  -1.021336e+02   6.623091e+01
  -7.428853e+01  -5.560970e+01
  -2.940496e+01  -9.796601e+01
   1.495962e+02  -1.068970e+02
   1.449720e+02   7.954872e+01
   6.274039e+01   1.358411e+02
  -9.613938e+01   2.086381e+02
  -2.568848e+02   7.494390e+01
  -2.523003e+02  -1.222579e+02
  -1.178534e+02  -1.495234e+02
   1.058002e+01  -2.345207e+02
   1.124151e+02  -1.748409e+01
   1.012594e+02  -9.013720e+01
   4.514059e+01  -7.118342e+01
   5.199805e+01  -4.421885e+01
   1.473000e+02   2.577751e+01
   1.355864e+02   1.360629e+02
   2.764328e+01   2.082955e+02
  -4.910697e+01   1.103831e+02
  -1.365536e+02   5.053925e+01
  -1.057708e+02  -8.549183e+01
  -9.028112e+00  -9.645904e+01
   7.921088e+01  -6.892875e+01
   3.977734e+01   4.374601e+01
   3.456851e+01   7.975780e+01
  -5.711373e+01   3.872499e+01
   5.231961e+01  -3.279196e+01
   6.967703e+01   4.778094e+00
   5.146936e+01   1.229418e+01
  -1.627042e+01   2.390338e+01
  -2.043862e+02  -1.227319e+01
  -1.435551e+02  -5.843928e+01
   3.037191e+00  -7.950531e+01
   1.391856e+02  -5.315444e+01
   1.284348e+02  -2.209032e+01
   7.127520e+01   4.144270e+00
  -4.188653e+01   7.257960e+01
  -2.658569e+01  -4.088385e+01
  -2.744455e+01  -4.333582e+01
  -2.702535e+01  -8.232531e+01
   7.773655e+01  -2.959679e+00
   3.810765e+00   6.768525e+01
   3.422837e+01   5.432391e+01
   8.461623e+01  -2.724064e+01
   6.892437e+01   3.709407e+01
  -1.054124e+01   4.910818e+01
  -1.201155e+01   1.122669e+02
  -1.204652e+02   1.511401e+02
  -9.641720e+01   2.604953e+01
  -1.199538e+02  -4.952875e+01
  -4.704844e+00  -1.298405e+02
   1.022651e+02  -4.933158e+01
   1.117603e+02   4.972159e+01
  -5.886297e+01   2.857953e+01
  -7.486684e+01  -1.632451e+01
  -5.466010e+01  -1.079963e+02
  -1.123260e+01  -7.231590e+01
   1.716656e+02  -2.548707e+01
   1.229160e+02   6.327042e+01
   4.476658e+01   3.860783e+01
  -4.500475e+01   2.429665e+01
  -8.758311e-01  -4.004623e+01
   4.546131e+01  -2.374682e+01
   1.062241e+02  -1.445910e+01
  -1.421145e+01   8.909907e+01
  -2.990406e+01   1.362729e+02
  -1.070224e+02   1.004457e+02
  -6.648192e+01  -7.159276e+01
  -4.929960e+01  -1.116620e+02
   4.685076e+01  -1.780559e+02
   3.460403e+01  -1.625280e+00
   4.567357e+01   9.031763e+01
  -4.725045e+01   9.889865e+01
  -8.843826e+00   8.405070e+00
  -2.360996e+01  -1.587760e+01
  -3.794343e+01   1.558122e+01
   2.045489e+01   7.562700e+01
  -9.576119e+00  -3.665289e+01
  -7.856538e+01  -8.041194e+01
  -3.446043e+01  -9.873619e+01
   2.646781e+01   2.269920e+00
   1.263654e+02   5.697106e+01
   5.813891e+01   8.761262e+01
   3.260418e+01   4.265193e+01
  -1.165991e+01  -1.539831e+01
  -6.894959e+01  -1.623504e+01
  -5.000176e+01  -2.726633e+01
   1.845611e+01  -2.237169e+01
   1.458416e+01   3.335244e+01
  -1.206275e+01  -2.927908e+01
  -6.246694e+01  -3.864948e+01
   4.618350e+01   4.113029e+00
   5.660783e+01   5.900235e+01
  -8.830640e+00   8.605502e+01
  -7.707599e+01   1.348263e+02
  -1.423371e+02   9.994248e+01
  -1.774518e+02  -3.112565e+01
  -1.920540e+01  -9.802686e+01
   4.796879e+01  -1.360420e+02
   1.106506e+02  -4.910244e+01
   4.422555e+01  -1.157477e+01
  -2.432415e+01   3.106365e+01
   1.490270e+01   4.604009e+01
   3.819921e+01   1.797778e+01
  -1.881216e+01   7.034847e+01
  -3.706259e+01   3.568433e+01
  -1.846177e+01   8.060467e+01
  -1.799288e+01   3.136152e+01
  -3.699788e+01  -5.912427e+01
  -4.508463e+00  -6.538525e+01
   7.318010e+01   2.661406e-01
   1.190971e+02   4.014209e+01
   1.544776e+01   1.125737e+02
  -8.244702e+01   5.337224e+01
  -1.171173e+02  -4.752084e+01
  -1.731811e+01  -5.343383e+01
   6.982409e+01   1.983730e-01
   3.307982e+01  -2.599696e+01
   6.950302e+01  -2.030042e+01
  -6.989191e+01   2.130597e+01
  -4.233165e+01  -2.762395e+01
   5.874122e+01  -7.821289e+01
   1.096253e+02  -4.691233e+01
   4.570788e+01   2.667685e+01
   1.381107e+01   1.260009e+02
  -2.969932e+01   8.036905e+01
  -4.226174e+01   5.982988e+01
  -3.853876e+01  -3.836680e+01
  -2.118061e+00  -6.091820e+01
   6.217537e+01   1.328285e+01
  -3.509265e+01   1.026944e+02
   2.065842e+01   2.351971e+01
  -1.473736e+01  -2.624260e+01
  -4.585014e+00  -6.272325e+01
  -2.122390e+01  -1.677657e+01
   2.773235e+01   6.789965e+00
   2.271891e+01  -1.023066e+01
  -3.463749e+00  -2.542803e+01
   1.484254e+01  -9.912683e+01
  -7.409749e+00  -4.284707e+01
   7.709194e+01   6.687681e+01
   7.023760e+01   1.959459e+01
  -5.046344e+01  -4.770318e+00
  -1.150391e+02   1.231783e+00
   6.067780e+00  -8.782236e+01
   6.137503e+01  -4.819665e+01
   3.765779e+01   3.961658e+01
   9.371496e+01   7.015179e+01
   7.939238e+00   3.898732e+01
  -6.299063e+01   5.743818e+01
  -2.370198e+00  -2.757936e+01
   5.104170e+01  -4.244411e+01
  -3.904650e+00  -6.551141e+00
  -3.703136e+01  -4.131899e+01
  -5.827226e+01   1.975654e+01
