
 $NMID
 id='ANONYMOUS ', fmtdat='(2E16.6)'
 volume=1.0
 tramp=1.0
 $END
   3.312927e+02   4.088360e+01
   1.505507e+02   2.354596e+02
  -4.844456e+00   2.094116e+02
  -1.511918e+02   7.191682e+01
  -1.009213e+02  -3.578446e+00
   4.049049e+00  -7.777301e+01
   5.504100e+01   2.795120e+01
  -4.385546e+01   8.797174e+01
  -7.466921e+00   6.852537e+01
  -6.912914e+01   2.644106e+01
  -1.340282e+00  -9.396180e+01
   3.011259e+01  -3.511540e+01
   1.802373e+01   9.108516e-01
  -2.645830e+01   7.508408e+01
   1.164495e+00   5.195604e+01
  -7.897852e+01  -1.200864e+01
  -1.909798e+01   9.269149e-01
   2.185038e+01  -7.933998e+01
   4.835188e+01  -5.209846e+01
   9.563890e+00   2.140933e+01
   1.376426e+01   8.016113e+01
  -2.997790e+01  -1.706836e+01
   9.988003e+00   1.780205e+01
  -1.046582e+01  -5.596727e+00
   5.953138e+01   4.767944e+01
   1.111254e+00   5.814422e+00
  -7.832897e+01  -1.319407e+01
  -6.390880e+01  -3.284704e+01
   4.335986e+01   9.966293e+00
   2.610260e+01  -1.013708e+01
   5.611215e+01   1.646091e+01
   3.800000e+01   8.930604e+01
  -5.118001e+01   6.007886e+01
  -4.985811e+01   6.681290e+01
  -1.779575e+01  -2.666132e+01
   4.336407e+00  -1.551112e+01
   3.376317e+01  -5.101188e+00
  -2.667805e+01   4.770453e+01
  -6.054909e+01  -1.198436e+01
  -6.003283e+01  -9.666575e+00
   3.573010e+00  -4.664993e+01
  -8.209667e+00  -2.029283e+01
   9.237529e+01  -5.478001e+00
   2.399535e+01   7.246502e+01
   3.419823e+01   2.392455e+01
  -6.953249e+01  -9.601306e+01
   1.723620e+01  -5.799773e+01
   6.146486e+01   1.000927e+00
   2.259268e+01  -1.263284e+01
   2.815368e+01   1.611830e+01
  -6.831840e+00  -1.054188e+00
   2.904896e+01  -1.688373e+01
  -5.239121e+01  -8.102785e+00
   8.332784e+01  -5.608577e+01
   1.925107e+01  -7.172618e+01
   4.139225e+01  -8.450571e+01
   7.002316e+00   2.395090e-01
   7.034351e+00   3.234286e+01
  -2.273772e+01   1.567428e+01
   7.683829e+01  -1.478280e+00
  -3.411140e+01   7.229112e+00
   3.509396e+01   4.486877e+01
  -4.793708e+01   2.848020e+01
  -3.947833e+00  -5.980728e+00
  -3.986308e+00  -4.433801e+01
   4.111818e+01  -1.598892e+01
   6.152569e+00  -3.883155e+01
   5.583467e+01  -1.576733e+01
   3.681936e+01   1.604256e+01
  -2.274651e+01   4.323467e+01
  -4.754914e+01   4.283582e+01
   3.484615e+01   5.744572e+01
   1.900757e+00   3.600804e+01
   2.881347e+01  -9.270750e+01
   1.049731e+01  -4.880452e+01
  -9.932099e+00  -3.474831e+01
   9.082139e+00   2.365025e+00
  -6.377714e+00   1.855167e+01
   9.224054e+00   5.262345e+01
  -1.504510e+01  -5.320893e+01
  -1.464584e+01   2.113244e+01
   3.022951e+01  -2.524551e+01
  -2.366976e+01  -4.984617e+01
   1.349200e+01  -8.117578e+01
   8.441268e+01  -4.711787e+01
   3.317508e+01   2.601560e+01
   5.326919e+01  -2.702686e+01
   2.828855e+01  -1.938236e+01
  -1.748124e+01  -2.585493e+01
   3.010177e+01  -2.471509e+00
   8.655866e+00   7.565020e+01
  -1.975091e+01  -2.858826e+01
  -2.125716e+01   2.818826e+01
  -5.253538e+01   1.007590e+01
   6.359112e+00  -5.128582e+00
  -3.563750e+01  -5.691834e+01
  -9.356933e-01   2.440404e+00
  -2.012171e+01  -5.832626e+00
  -2.310500e+01  -1.076913e+00
   1.059524e+01   1.832865e+01
  -2.494959e+01  -3.845832e+00
   7.660136e+00  -2.370687e+01
  -1.078812e+00  -4.339672e+01
  -5.430635e+00   5.000883e+00
  -2.682186e+01   1.287520e+01
  -1.628212e+01  -9.044522e+01
   6.277537e+01  -4.871746e+01
   6.131348e+01  -1.979546e+01
   2.095025e+01   3.974695e+01
   3.805142e+01   6.111314e+01
   1.204359e+01  -5.157557e+01
   2.112229e+01  -3.355784e+01
   3.339380e+01  -1.236713e+00
  -3.506028e+01  -2.852370e+01
   1.414199e+01  -7.897128e+00
   4.227112e-01  -1.715973e+01
   6.581102e+00  -2.218053e+01
  -4.679845e+01   5.016892e+01
   3.264901e+01   8.442465e+00
   2.079404e+01   3.277518e+01
  -4.134994e+00   2.406189e+01
  -5.833040e+01  -5.027497e+01
  -5.427837e+01  -3.448247e+01
  -3.233401e+00  -3.971626e+01
   9.839256e+01  -2.426610e+01
   4.889388e+01  -3.204769e+00
   1.813972e+01   3.297646e+01
  -1.440524e+00  -6.519996e+01
   9.481882e+00  -3.430483e+01
   3.468986e+01  -2.098437e+01
  -1.036967e+01   2.154637e+01
  -6.315009e-01   1.488101e+01
   2.485659e+01   1.737934e+01
  -2.114621e+01   1.157753e+01
  -3.814066e+01   3.905467e+01
  -1.384769e+01   6.559629e+00
   1.554808e+01   2.042460e+01
   4.373011e+01   5.159243e+01
   1.497440e+01   1.630435e+01
  -6.734353e+01   4.119310e+01
  -2.011568e+01  -5.465308e+01
   1.545216e+01  -2.857067e+01
   2.534574e+01   7.193731e+00
   4.431730e+01  -8.285382e+00
   2.292186e+01   4.873091e+01
  -6.649957e+00  -5.068699e+01
   5.792586e+00   7.644856e+00
   2.393807e+01  -1.782976e+01
   9.221679e+00   1.344406e+01
  -6.688249e+00  -3.664817e+00
  -4.967445e+01  -2.711886e+00
  -8.078767e+00  -3.001720e+01
  -5.576636e+00   2.270024e+01
  -2.265969e+01   1.690007e+01
   4.463696e+01  -2.535597e+01
  -5.821673e+00   3.938350e+01
  -5.665018e+00  -1.566125e+01
   1.449933e+01  -1.385384e+01
  -7.924381e+00  -5.107879e+01
   9.023492e+00  -1.907345e+01
  -7.465402e+01  -1.848206e+01
   6.443209e+00  -8.611906e+00
   1.602663e+01  -1.944740e+01
  -7.015768e+00   7.132707e+00
   1.537288e+01   2.975228e+01
   2.383744e+01   1.332535e+01
  -8.944670e+00  -3.374148e+01
  -2.616005e+01   9.211155e+00
  -8.341472e+00   3.215359e+01
  -1.979002e+01  -2.674787e+00
  -3.483671e+01  -5.824537e+01
   5.362503e+00  -2.965667e+01
   8.152825e+01  -4.728377e+01
   4.553132e+00  -1.806258e+01
   4.345494e+01   4.045714e+00
   1.749912e+01   2.052577e+01
  -1.016356e+02   4.792214e+00
   1.507326e+01  -3.158704e+01
  -3.638049e+01   5.548557e+00
  -3.006599e+01  -4.615479e+01
   3.155516e+01   5.008228e+01
  -1.663089e+01  -4.909397e+01
   2.095518e+01  -5.481681e+01
  -1.967647e+01  -1.096017e+01
   4.433899e+01  -3.471792e+01
   1.631375e+01   1.200401e+01
  -3.941349e+01   6.244793e+01
  -3.217944e+00   5.472080e+01
   1.953228e+01   2.175622e+01
   2.986547e+01  -2.907834e+01
   2.191059e+01  -3.913382e+00
  -4.245944e+01   9.312875e+00
  -1.233493e+01   4.994691e+00
   1.850245e+01   4.451515e+01
  -1.848138e+01  -2.955618e+01
  -4.726190e+01  -6.253205e+01
  -1.897923e+01  -3.176571e+01
   8.276533e+00   2.597428e+01
  -9.516557e+00   4.377589e+01
   4.618571e+01  -5.967574e+00
  -1.078311e+01   1.260559e+01
  -5.525015e+01   2.549369e+01
   4.406142e+01  -3.164752e+01
  -4.853321e+01   1.066986e+00
  -4.933297e+01  -1.664709e+01
  -7.214636e+01  -1.827809e+01
   4.037858e+01  -1.186408e+01
  -1.987902e+01  -1.457536e+01
  -2.319215e+01   2.199982e+01
  -7.075715e+00   1.731305e+01
  -3.805038e+01  -3.471009e+01
   3.102599e+00  -3.707851e+00
   2.362501e+01   2.349852e+01
   7.641154e+01   2.903954e+01
   3.519658e+01   3.652629e+01
  -2.724291e+01   6.766369e+00
   1.317199e+01   1.104794e+01
   1.101985e+01   1.382178e+01
   2.138343e+01  -3.579297e+01
  -4.943535e+01   8.195354e+01
  -2.369773e+01   7.463121e+01
   8.107992e+00   1.435135e+01
  -3.876121e+01   1.840683e+01
   1.339217e+01  -2.892969e+01
   1.894942e+01   4.143970e+01
   6.457420e+01   3.463344e+01
   3.903576e+00   2.745371e+01
   4.552234e+00  -3.159920e+01
  -2.496868e+01  -1.173471e+01
   1.401563e+01   4.774732e+01
  -8.862556e+00  -3.966646e+01
   1.218611e+01   4.237884e+00
  -1.018401e+01  -2.494942e+01
  -5.183641e+01   4.734409e+01
   1.809731e+01   3.042858e+01
  -3.814558e+01  -2.757420e+01
  -1.264900e+01   5.853861e+01
  -2.795230e+01   2.448645e+00
   2.164981e+01   3.155506e+01
  -5.484365e-01   3.163805e+01
  -1.433190e+01   4.580818e+01
  -4.670054e+01  -1.669546e+01
  -2.414279e+01   3.362777e+01
   1.441579e+01  -1.345729e+00
  -1.694661e-01   1.344061e+01
   5.014914e+01   6.558556e+01
  -2.031084e+01  -1.017009e+01
  -2.548772e+01  -3.392348e+01
  -1.777722e+01  -7.987817e+01
  -5.656482e+00  -3.211144e+01
  -7.058273e+00  -1.061110e+01
  -1.621722e+01  -2.357691e+01
   3.940690e+01   1.753228e+01
  -2.272421e+01   4.840933e+01
  -5.028720e+01  -1.203821e+01
  -5.490123e+01  -1.715162e+01
  -1.133270e+01  -9.955675e+00
   1.974938e+01  -3.890952e+01
   4.661404e+01  -6.315340e+01
   2.336817e+01  -8.578077e+00
  -5.022212e+00  -1.263136e+01
  -2.731591e+01   5.833476e+00
  -4.845529e+01   2.191755e+01
   1.839271e+01  -1.231460e+01
  -6.278478e+00   2.150581e+01
  -5.879642e+01   9.871707e+00
   3.670624e+00  -3.048231e+01
  -4.570559e+01   2.659170e-01
   3.599197e+00  -8.176425e+00
  -4.655641e+01  -1.924304e+01
   2.706992e+01  -2.607055e+01
   1.166378e+01   2.919562e+00
  -1.265672e+01  -1.785447e+01
   1.327756e+00   9.944690e+00
  -3.668864e+01   3.449372e-01
  -6.318234e+01   5.339577e+01
  -2.047439e+00   5.701498e+01
   1.361850e+01  -4.765198e+01
   8.842176e+00  -2.687514e+01
  -1.822357e+01  -3.705882e+01
  -1.525563e+01  -5.473490e+01
  -2.376793e+00  -2.124394e+01
   7.140406e+00   3.018130e+01
   2.274498e+00   4.667790e+01
  -5.443686e+01  -3.515999e+01
   1.207543e+01  -3.225364e+01
  -3.674433e+01  -2.309939e+01
  -4.584943e+01  -4.477895e+01
  -3.580010e+01  -2.935521e+01
   5.526447e+01  -2.283545e+01
  -6.308008e+00  -2.651423e+01
   1.805322e+00   3.327919e+01
   1.438669e+01  -6.559354e+00
  -1.465002e+01   1.651309e+01
  -1.517382e+01  -7.920879e+01
  -1.902859e+00  -5.619253e-01
   3.912044e+01  -3.825747e+01
  -4.849524e+01  -6.762935e+00
  -2.771602e+01  -3.582314e+00
   6.017062e+00   2.782016e+01
   1.471284e+01  -1.804819e+01
  -4.743471e+01   8.196697e+00
   4.513578e+01  -7.868632e+00
  -5.507049e+00   1.482564e+01
  -3.499996e+00   2.369802e+01
  -3.983909e+01   9.845958e+00
   3.752153e+01   2.644837e+01
  -2.814084e+01  -7.034792e+01
   3.798200e+01   2.666337e+00
  -2.413310e+01   6.346101e+01
  -4.179095e+00   4.917597e+01
  -4.687460e+01   2.864186e+01
   1.519805e+01  -1.694990e+01
   5.756939e+00  -1.870248e+00
   5.734093e+01  -6.406150e+01
   2.426192e+01   8.559105e+00
   4.305127e+01   1.702267e+01
  -2.276837e+01  -4.521823e+01
   1.629049e+01  -1.810397e+01
   2.384856e+01  -4.306219e+00
