
 $NMID
 id='ANONYMOUS ', fmtdat='(2E16.6)'
 volume=1.0
 tramp=1.0
 $END
   4.599060e+03   9.995840e+01
   2.497570e+03   2.889433e+03
  -9.334520e+02   2.812184e+03
  -2.250553e+03   7.049960e+02
  -8.497681e+02  -8.025544e+02
   7.917804e+02  -5.550347e+02
   9.517504e+02   6.069334e+02
  -2.946430e+01   1.147589e+03
  -9.133325e+02   7.623418e+02
  -9.409560e+02  -1.604941e+02
  -3.911552e+02  -9.403421e+02
   2.959835e+02  -8.961975e+02
   7.282390e+02  -4.881166e+01
   3.583488e+02   7.556985e+02
  -3.254455e+02   8.036471e+02
  -6.485314e+02  -2.539615e+01
  -2.436196e+02  -6.825274e+02
   3.566671e+02  -5.844075e+02
   6.586961e+02   9.702542e+00
   3.213506e+02   3.233663e+02
  -3.264831e+01   4.829012e+02
  -2.357376e+02   2.714171e+02
  -2.229273e+02  -3.719196e+00
   1.394421e+02  -1.412093e+02
   4.700702e+02   5.733791e+01
   2.346672e+02   4.876955e+02
  -4.955863e+02   4.231805e+02
  -9.127827e+02  -6.516696e+01
  -3.929986e+02  -5.985236e+02
   4.503710e+02  -4.726783e+02
   7.372850e+02   6.812413e+01
   3.064725e+02   4.689840e+02
  -3.136188e+02   5.240577e+02
  -6.377999e+02   1.831485e+02
  -4.604667e+02  -2.789205e+02
  -6.163042e+01  -4.904116e+02
   1.971104e+02  -2.649006e+02
   2.112751e+02   2.630250e+02
  -2.563193e+02   4.631848e+02
  -4.942013e+02  -1.552637e+01
  -2.306795e+02  -7.622854e+02
   2.852360e+02  -7.216813e+02
   6.055245e+02  -2.315716e+01
   2.609139e+02   6.084554e+02
  -4.003318e+02   3.516870e+02
  -4.069572e+02  -3.321266e+02
   6.180317e+01  -5.754010e+02
   5.372095e+02  -1.289402e+02
   6.308971e+02   5.033083e+02
   1.587367e+02   6.392719e+02
  -3.605576e+02   3.750862e+02
  -6.893568e+02  -8.167806e+01
  -4.695671e+02  -3.880510e+02
   2.016757e+02  -3.882968e+02
   4.817280e+02  -2.739059e+01
   2.972428e+02   2.234407e+02
  -1.549288e+02   1.361885e+02
  -1.061591e+02  -1.996422e+02
   1.981039e+02  -2.315124e+02
   4.051789e+02   1.139440e+02
   1.397454e+02   3.542447e+02
  -2.012842e+02   2.741951e+02
  -3.522143e+02   4.361997e+01
  -1.707002e+02  -1.480871e+02
   7.135235e+01  -2.113989e+02
   2.118537e+02  -3.076304e+02
   3.557758e+02  -2.227361e+02
   2.902269e+02   1.675359e+02
   3.797919e+01   4.667300e+02
  -1.160530e+02   3.820430e+02
  -1.128180e+02   1.730776e+02
  -3.273285e+01   8.181349e+00
  -5.033729e+01   5.543520e+01
  -1.937296e+02   1.130729e+02
  -3.267233e+02  -2.731446e+01
  -2.219355e+02  -2.883256e+02
   4.997741e+01  -3.040700e+02
   2.571240e+02  -2.030716e+01
   1.651575e+02   3.003681e+02
   5.883769e+01   3.012300e+02
  -3.090126e+02   1.337907e+02
  -3.578738e+02  -1.680752e+02
  -1.947177e+02  -3.790156e+02
   9.569689e+01  -3.410682e+02
   2.366218e+02  -4.690962e+01
   1.951459e+02  -5.073645e+01
   6.837639e+01  -4.965846e+01
   2.440220e+02  -9.898489e+01
   4.064386e+02   3.778920e+01
   3.446610e+02   2.526480e+02
   2.416768e+01   4.146324e+02
  -3.262152e+02   4.222480e+02
  -5.508398e+02   1.996542e+02
  -3.841970e+02  -8.161370e+01
  -8.200895e+01  -3.860736e+02
   1.500774e+02  -2.440781e+02
   8.944511e+01  -1.782968e+01
  -1.519735e+02   1.207919e+02
  -2.538297e+02  -6.940805e-01
  -5.126918e+01  -2.251153e+02
   1.745269e+02  -2.242872e+02
   1.945535e+02   7.898053e+01
  -1.049858e+02   1.987908e+02
  -1.871592e+02   2.989490e+01
  -1.983066e+02  -2.552545e+02
   4.090026e+01  -3.069464e+02
   2.254854e+02  -1.460711e+02
   3.642158e+02   7.636172e+01
   2.852780e+02   2.137682e+02
   1.075448e+02   2.713866e+02
  -9.353185e+01   1.287727e+02
  -2.216833e+02   3.985366e+01
  -6.456367e+01  -2.301700e+01
   5.585868e+01   1.317155e+00
   6.485427e+01   1.175407e+02
  -1.363194e+02   1.323408e+02
  -2.442880e+02  -8.742785e+00
  -1.015326e+02  -8.331155e+01
   8.776388e+01  -5.743997e+01
   3.703559e+01   5.791344e+01
  -7.886433e+01   4.517332e+00
  -2.681519e+02   2.378068e+01
  -2.633832e+02  -1.178498e+02
  -6.312034e+01  -2.717268e+02
   1.816428e+02  -2.958871e+02
   2.850241e+02  -1.373198e+02
   1.655917e+02   1.277068e+02
   3.974893e-01   1.236632e+02
  -1.065777e+02  -2.091435e+01
   3.631473e+01  -5.694293e+01
   1.724177e+02  -1.157901e+02
   2.376823e+02   1.898623e+02
   6.270077e+01   2.399060e+02
  -4.184892e+01   1.758755e+02
  -7.784783e+01  -5.584349e+00
  -8.540260e+01   7.030979e+00
   3.525450e+01  -1.967679e+01
   6.344847e+01   8.430545e+01
  -8.250482e+01   5.064690e+01
  -2.106346e+02   4.903229e+01
  -2.182727e+02  -1.189576e+02
   7.072395e-01  -2.075265e+02
   2.025417e+02  -1.809723e+02
   2.401893e+02  -3.078209e+01
   7.782954e+01   1.047810e+02
  -8.192510e+01   1.064969e+02
  -8.088422e+01   3.428590e+01
  -1.112910e+01   9.757542e+00
  -2.646704e+01  -4.498118e+01
  -8.448100e+01   2.259794e+01
  -6.142260e+01  -4.362240e+01
  -1.087140e+02  -8.392308e+01
   6.747959e+01  -1.536007e+02
   1.462792e+02  -1.322977e+02
   2.636122e+02  -6.135719e+01
   2.082224e+02   1.545043e+02
   7.914036e+01   2.104223e+02
  -6.999417e+01   1.113420e+02
  -1.222275e+02   4.460761e+00
  -4.773383e+01  -5.230701e+01
  -4.585952e+01  -1.144026e+02
  -3.631686e+01  -2.636141e+01
  -8.130182e+01   2.778393e+01
  -5.519987e+01  -4.836097e+01
   1.935925e+01  -7.855038e+01
   7.723532e+01  -6.647964e+01
   6.379782e+01   4.357161e+01
  -3.406248e+01   1.088054e+02
  -1.317337e+02   8.486452e+01
  -2.302984e+02  -1.218747e+02
  -9.035628e+01  -1.264706e+02
   1.162309e+02  -2.516574e+02
   2.949505e+02  -9.669080e+01
   2.581101e+02   1.338977e+02
   1.838770e+02   1.788531e+02
  -3.881996e+01   1.781312e+02
  -8.430052e+01   8.990729e+01
  -7.923776e+01   1.338921e+02
  -5.656729e+01   1.265073e+02
  -5.434978e+01   1.018772e+02
  -1.803098e+02  -4.103384e+01
  -1.696907e+02  -2.105314e+02
  -1.738779e+01  -2.438725e+02
   3.826057e+01  -1.536581e+02
   1.831075e+02  -3.410440e+01
   1.268694e+02   1.687956e+02
   1.234601e+01   1.283338e+02
  -1.762291e+01   3.551228e+01
  -6.142706e+01  -6.879299e+01
   3.511485e+01  -4.475869e+01
   5.124175e+01  -6.070543e+01
  -1.135503e+01   9.544408e+00
  -5.833551e+01  -1.637665e+01
  -4.833216e+01  -7.917727e+01
   5.844974e+01  -4.345495e+01
   1.507600e+02   2.113343e+01
   1.115798e+02   5.280010e+01
   3.987234e+01   1.215083e+02
  -1.315845e+02   4.555831e+01
  -1.130641e+02   3.601423e+00
  -2.213630e+01  -2.408713e+01
   1.571358e+02  -6.114230e+01
   6.093382e+01   6.933008e+00
  -1.949057e+01   1.172099e+02
  -5.484317e+01   4.489533e+01
  -2.587497e+01  -3.175470e+01
  -5.087179e+01  -4.178896e+01
  -9.642895e+01  -5.010712e+01
  -6.865668e+01   5.173016e+01
  -4.816855e+01   3.459195e+01
  -5.606056e+00  -9.234344e+01
   6.773353e+00  -1.734034e+02
   1.067683e+02  -1.292451e+02
   1.995906e+02  -5.941453e+01
   1.318081e+02   6.922839e+01
  -2.136295e+01   1.328627e+02
  -8.440369e+01   3.909618e+01
  -9.989070e+01  -1.047070e+01
   5.484384e+01   2.646983e+01
   1.558064e+02   5.872135e+01
   5.812945e+01   1.532948e+02
  -9.693835e+01   1.541464e+02
  -1.781430e+02   5.903004e+01
  -2.392221e+02  -1.064149e+02
  -8.555272e+01  -9.424039e+01
   5.445251e+01  -5.827713e+01
   3.431659e+01  -5.994067e+01
   2.411017e+01   5.020082e+01
  -1.066318e+02  -2.829767e+01
  -2.942994e+01  -1.068464e+02
   7.802445e+01  -1.767884e+02
   1.489444e+02  -1.432122e+01
   1.558554e+02   7.423621e+01
  -8.565384e+00   1.984355e+02
  -1.233608e+02   9.370467e+01
  -1.596958e+02   9.358744e+01
  -4.883043e+01  -6.954573e+01
   6.989742e+01  -1.121710e+02
   3.708863e+01  -1.661519e+00
   4.738938e+01   8.886896e+01
   1.550178e+01   2.000427e+01
   1.351771e+01  -1.628906e+01
  -5.192361e+01   3.082049e+01
   1.819551e+01   8.979650e+01
   1.768048e+01   1.738322e+02
  -4.013624e+01   1.640868e+01
  -1.390750e+02  -8.513306e+01
  -1.122446e+02  -1.146051e+02
  -1.398111e+01  -1.593271e+01
   1.017547e+02  -1.410147e+01
   5.209975e+01  -1.069414e+01
   4.355947e+01  -4.167891e+01
  -2.647910e+01   1.033040e+01
  -1.087040e+00   5.244176e+01
   2.147433e+01   1.641757e+00
  -2.277553e+01   2.470700e+01
  -5.035241e+00   2.721158e+01
  -9.077181e+01  -5.797666e+00
  -1.806802e+01  -7.978571e+01
   1.015531e+02  -1.323703e+02
   2.282832e+02  -1.111393e+01
   1.049598e+02   3.283761e+01
   4.365399e+00   1.541059e+02
  -5.756494e+01   1.444139e+02
  -1.002795e+02   8.579789e+01
  -5.946297e+01   2.181209e+01
  -2.293098e+01   8.660958e+00
   8.461491e+01   3.090363e+01
   1.396600e+01   7.189085e+00
  -3.391947e+01  -5.332479e+01
   1.267487e+01  -1.135819e+02
   2.170557e+01  -8.466148e+01
   1.186160e+02   5.926962e+01
   6.278522e+01   1.157639e+02
   6.729224e+01   1.022830e+02
  -7.658154e+01   1.682081e+01
  -9.040976e+01  -7.347389e+01
   8.617977e+00  -1.040221e+02
   8.865374e+01  -6.066753e+01
   6.889220e+01   1.729793e+01
   3.366869e+01   1.014622e+02
  -1.582999e+01   8.220294e+01
  -8.832770e+00   1.306635e+01
   9.180987e+00  -6.083030e+00
   1.045290e+02   6.958350e+01
  -1.642132e+01   5.086637e+01
  -4.512508e+01   6.411733e+01
  -1.355940e+02   4.502031e+01
  -4.820034e+01  -1.124971e+01
   3.461081e+01  -1.458240e+02
   7.325724e+01  -1.272244e+02
   4.166691e+01  -2.625853e+01
   2.962753e+00   4.375079e+01
  -9.728587e+01   3.918088e+01
  -2.678173e+01  -3.076184e+01
  -6.734546e+01  -8.939915e+01
   2.710039e+01  -7.611497e+01
   6.699463e+01  -3.679167e+00
   1.856556e+01   1.384501e+01
   4.005318e+01  -2.931955e-01
   1.335959e+01   4.032462e+00
  -4.754826e+01   3.330787e+01
   7.166583e+00   7.407956e+01
  -3.146549e+01   1.974036e+01
   5.620591e-01   2.241538e+01
  -4.252802e+00  -3.708532e+01
  -7.865137e+00  -3.310507e+01
   8.008754e+01  -6.236330e+01
   4.911404e+01   5.677353e+01
   4.003919e+01   3.757983e+01
  -3.738863e+01   7.511462e+01
  -2.238316e+01  -6.650102e+01
  -8.102643e+01  -6.273245e+01
   4.810763e+01  -3.168151e+01
   3.226553e+01  -8.364848e+01
  -6.328380e+01   3.203162e+01
  -1.011056e+02   2.816961e+01
  -3.620327e+01  -3.096075e+01
   9.041008e+01  -6.028307e+01
   1.356495e+02  -3.842071e+00
