
 $NMID
 id='ANONYMOUS ', fmtdat='(2E16.6)'
 volume=1.0
 tramp=1.0
 $END
   2.264925e+03   6.897419e+00
   1.671619e+03   1.007479e+03
   2.996498e+02   1.461996e+03
  -7.314421e+02   1.299671e+03
  -8.760307e+02   5.084064e+02
  -3.032528e+02   1.470628e+01
   1.310498e+02  -7.982129e+01
   1.045777e+02   3.129607e+02
  -1.938901e+02   3.653087e+02
  -3.760421e+02   1.903041e+02
  -3.568039e+02  -2.720875e+02
  -1.254833e+02  -4.600355e+02
   7.029187e+01  -1.930930e+02
   1.555131e+02   1.995375e+02
   3.303587e+00   3.641078e+02
  -2.867890e+02   1.373083e+02
  -2.830654e+02  -3.640018e+02
  -1.806064e+01  -5.258881e+02
   3.247914e+02  -3.098870e+02
   4.100439e+02   4.963390e+01
   1.305805e+02   2.926861e+02
  -8.398277e+01   2.262258e+02
  -3.966874e+01   1.124187e+02
   1.478975e+02   1.256232e+02
   2.005785e+02   2.896117e+02
  -1.056714e+02   2.946527e+02
  -3.881928e+02   3.868490e+01
  -3.959690e+02  -1.462576e+02
  -1.017157e+02  -2.050356e+02
   2.781428e+02  -5.724093e+01
   3.705250e+02   1.377670e+02
   1.379843e+02   2.638528e+02
  -1.754376e+02   2.076455e+02
  -3.702231e+02   9.039025e+01
  -2.208370e+02  -1.207160e+02
  -1.200390e+02  -1.876747e+02
  -8.424371e+01  -1.107890e+02
  -1.440097e+02   2.227182e+01
  -1.703234e+02   2.915013e+01
  -6.810981e+01  -1.808607e+02
   9.636995e+01  -3.034878e+02
   1.289855e+02  -2.593234e+02
   1.855598e+02  -1.010828e+01
  -1.238820e+01   1.727301e+02
  -5.250888e+01  -2.469347e+00
  -6.074373e+01  -2.717274e+02
   7.878993e+01  -2.800896e+02
   3.924600e+02  -9.674074e+01
   3.688451e+02   2.250818e+02
   9.825437e+01   3.886339e+02
  -2.732767e+02   2.219896e+02
  -3.980511e+02  -6.241802e+01
  -2.243668e+02  -1.392831e+02
  -3.138407e+01  -1.714768e+02
   2.372694e+02  -1.080185e+02
   2.215703e+02  -4.943480e+01
   7.948736e+01  -8.545999e+00
  -2.461588e+01  -1.792581e+01
   1.114960e+02  -1.941304e+01
   1.578464e+02   2.648174e+01
   8.813025e+01   1.372827e+02
  -1.058150e+02   2.538977e+02
  -3.370298e+02   1.264935e+02
  -2.590919e+02  -8.813617e+01
   5.269736e+01  -3.027330e+02
   3.326616e+02  -3.697932e+02
   3.355893e+02  -8.474640e+01
   2.359886e+02   1.487441e+02
   2.070329e+01   3.283261e+02
  -2.895164e+00   2.959652e+02
   1.048948e+02   1.848710e+02
  -4.016682e+01   1.493597e+02
  -2.321495e+02   8.698056e+01
  -2.908136e+02   5.116731e+01
  -1.911864e+02  -1.117571e+02
  -2.918361e+01  -1.965861e+02
   6.868109e+01  -1.257178e+02
   2.067274e+02   9.204420e+01
   4.705923e+01   2.073772e+02
  -6.634917e+01   1.932523e+02
  -2.174099e+02   4.822267e+01
  -1.925543e+02  -1.294653e+02
  -1.248161e+02  -2.736898e+02
   3.854396e+01  -2.216349e+02
   1.080611e+02  -1.203796e+02
   9.348162e+01  -8.835870e+01
   8.477379e+01  -1.117951e+02
   3.109564e+02  -1.370682e+01
   2.977471e+02   1.015520e+02
   2.268401e+02   3.078688e+02
   2.541676e+01   3.429650e+02
  -3.476123e+02   3.218586e+02
  -4.493933e+02   1.872957e+02
  -1.882307e+02  -4.992367e+01
  -4.064058e+00  -2.126049e+02
   6.602944e+01  -1.126085e+02
  -1.924191e+01  -3.968650e+01
  -9.392193e+01  -4.748252e+01
  -2.197918e+02  -2.214521e+01
   3.482395e+01  -5.876966e+01
   4.793666e+01  -5.684793e+01
   1.092797e+02   2.185324e+01
  -4.536779e+01   6.015304e+01
  -7.528304e+01  -4.371217e+01
  -1.533387e+02  -1.412086e+02
   3.258469e+01  -3.281026e+02
   1.713946e+02  -1.158509e+02
   3.061231e+02   7.801460e+01
   2.192227e+02   1.958914e+02
  -2.988515e+01   2.361404e+02
  -1.008253e+02   9.909984e+01
  -1.187410e+02   2.963962e+01
  -1.326079e+00   4.329711e+01
   7.968197e+01   4.298071e+01
  -5.752612e+01   7.655366e+01
  -1.039215e+02   1.394712e+01
  -1.032348e+02   5.374795e+01
   5.043861e+01  -4.886187e+01
   2.759718e+01   9.963813e+00
   5.759660e+01   1.250316e+02
  -1.515909e+02   6.228902e+01
  -2.322383e+02  -2.380386e+01
  -2.264460e+02  -1.126822e+02
   6.345436e+01  -2.579445e+02
   1.976191e+02  -1.690745e+02
   2.287115e+02  -2.844608e+01
   8.265904e+01   9.486316e+01
  -1.301378e+01   3.319444e+01
  -2.391725e+01  -2.717023e+01
   3.729924e+01  -5.626752e+01
   1.693844e+02   4.987174e+01
   1.325346e+02   5.943949e+01
   4.725260e+01   1.756532e+02
  -9.492757e+01   9.882706e+01
  -5.608031e+01   3.886841e+01
  -6.656045e+00  -1.485935e-02
   6.403375e+00   5.690182e+00
   7.508034e+00   8.964461e+01
  -8.096048e+01   1.168872e+02
  -1.791723e+02  -4.882934e+01
  -1.881419e+02  -1.132786e+02
   2.708010e+00  -1.448134e+02
   1.274621e+02  -1.422532e+02
   1.333618e+02   4.158336e+01
   4.761453e+01   4.693710e+01
  -3.181618e+01   3.521594e+01
  -2.199343e+01   4.246107e+01
   4.041024e+01  -2.874749e+01
   5.330215e+01  -6.241010e+01
   3.025385e+01   6.379982e+01
  -8.589496e+01   2.383888e+01
  -3.227684e+01  -1.434998e+02
   1.153691e+01  -1.593818e+02
   1.611664e+02  -1.037121e+02
   2.102464e+02  -2.040021e+01
   1.626552e+02   1.332653e+02
   8.707441e+01   1.995035e+02
  -4.234506e+01   1.293745e+02
  -7.368035e+01   1.824084e+00
  -1.315215e+01  -1.594862e+01
  -8.499251e+01  -6.585212e+01
  -6.703118e+01   4.400981e+01
  -1.102297e+02   4.960728e+01
  -1.017515e+02  -5.043741e+01
   4.267642e+01  -1.433756e+02
   1.358650e+02  -7.986584e+01
   1.092968e+02   9.141733e+01
   4.014968e+00   9.389997e+01
  -1.830725e+02   1.020440e+02
  -2.450514e+02  -2.344055e+01
  -5.692583e+01  -1.686744e+02
   1.373652e+02  -1.449629e+02
   2.441160e+02  -9.646337e+01
   3.077399e+02   7.685878e+01
   6.664463e+01   1.477539e+02
  -5.881660e+01   1.087258e+02
  -7.748194e+01   9.121841e+01
  -7.654979e+01   7.864870e+01
  -5.052349e+01   5.844872e+01
  -6.099076e+01   5.422491e+01
  -1.454742e+02  -8.661900e+00
  -6.716967e+01  -1.678514e+02
  -4.116231e+01  -1.565403e+02
   1.317895e+02  -1.072951e+02
   1.662044e+02  -2.351301e+01
   1.547688e+02   9.274126e+01
  -8.379849e+01   1.072307e+02
  -5.205249e+01   1.146580e+02
  -5.213796e+01  -1.972511e+01
   1.560425e+01  -3.653967e+01
   1.161641e+01  -2.722482e+01
   1.360301e+01  -5.970342e+01
  -5.257229e+00  -4.408268e+00
  -1.674310e+01  -3.100762e+01
   8.334285e+01  -2.418578e+01
   1.795647e+02  -6.377746e+01
   9.755246e+01   3.695619e+01
  -1.549254e+01   1.165636e+02
  -1.136361e+02   6.486794e+01
  -1.883832e+02   3.348977e+01
  -6.536611e+01  -4.548052e+01
   1.116899e+02  -6.621802e+01
   8.207359e+01   8.599923e+00
  -7.245631e+00   1.135779e+02
  -3.292719e+01   3.080445e+01
   1.690292e+01  -7.503812e+00
  -6.223168e+01  -3.004277e+01
  -6.161328e+01  -7.164480e+01
  -7.361398e+01  -1.962672e+01
  -6.354351e+01  -3.194099e+01
  -7.328498e+01  -7.819289e+01
   4.162120e+00  -1.544441e+02
   1.868379e+02  -1.045998e+02
   1.733460e+02  -2.359932e+00
   1.629939e+02   5.726589e+01
  -3.168957e+01   8.411800e+01
  -7.484628e+01   5.988002e+01
  -2.887747e+01   1.797009e+01
   5.645277e+01  -1.675794e+01
   9.379040e+01   2.156985e+01
   1.207542e+02   8.453284e+01
  -7.960967e+01   9.120854e+01
  -1.980623e+02   6.124620e+01
  -1.741791e+02  -2.590425e+01
   3.352392e+00  -5.428403e+01
   7.456037e+01   2.212519e+01
   4.912891e+01  -1.542099e+01
  -3.247529e+01   2.932749e+00
  -1.095987e+02  -3.114637e+01
  -1.643542e+01  -9.423154e+01
   7.717800e+01  -1.334271e+02
   1.797225e+02  -5.427317e+01
   1.026747e+02   1.568689e+02
   1.923944e+01   1.497106e+02
  -4.553166e+01   1.263516e+02
  -6.096531e+01   5.802952e-01
  -7.191762e+01  -5.434536e+01
   3.338546e+01  -1.008625e+02
   8.595180e+01  -8.539484e-01
   3.568554e+01   2.873428e+01
   1.601003e+01   4.676117e+01
  -5.474864e+00  -8.142141e+00
  -3.442527e+01   1.499940e+01
   2.614207e+00   4.985295e+01
   2.998665e+01   1.056302e+02
  -6.772538e+01  -8.302315e+00
  -1.014544e+02  -8.582678e+01
  -1.298821e+02  -4.660503e+01
  -3.511414e+01  -2.081351e+01
   2.135193e+01   8.544182e+00
   7.123409e+01   2.808859e+01
   2.286436e+01   1.728866e+01
  -2.634957e+01   1.318788e+01
  -6.044107e+01   6.442590e+00
  -3.031319e+01  -1.217269e+01
   4.066775e+01  -2.769772e+01
  -1.029908e+02   2.082993e+01
  -9.741133e+01   1.791682e+01
  -1.883679e+01  -1.142954e+02
   1.073783e+02  -1.055442e+02
   1.757902e+02  -7.464471e+00
   1.219175e+02   3.740430e+01
  -2.576661e+01   1.605545e+02
  -4.718048e+01   1.551036e+02
  -1.150736e+02   6.311142e+01
  -8.004871e+01  -4.142936e+01
  -5.470601e+00  -2.755445e+01
  -5.486372e+01  -5.621766e-01
  -2.440116e+01  -3.502356e+01
  -8.720225e+01  -6.410208e+01
   4.229375e+00  -8.151121e+01
   9.762881e+00  -4.465986e+01
   1.699914e+01   1.033226e+01
   6.450128e+01   3.906040e+01
   3.175757e+01   5.388073e+01
  -7.348812e+01   1.013385e+01
  -1.092958e+02  -3.823391e+01
  -7.117078e+01  -5.750587e+01
   2.727601e+01  -5.001067e+01
   1.453593e+02  -3.439196e+01
   2.765437e+01   4.762829e+00
  -3.228396e+01   5.038776e+01
  -2.786272e+01   4.195143e+01
  -2.917073e+01  -3.251494e+00
   2.975627e+01  -5.722570e+01
   4.305109e+01   1.494061e+01
  -8.262262e+01   1.277562e+00
  -8.467935e+01   6.968536e+01
  -6.176163e+01  -8.303310e+01
  -1.470730e+01  -7.684428e+01
   1.164052e+02  -7.225919e+01
   1.903070e+01  -2.923567e+01
  -2.257049e+00   8.163069e+01
   3.274279e+01   4.593427e+01
  -3.608481e+01   1.401480e+01
  -3.432997e+01  -7.551625e+00
  -7.174327e+00  -4.076655e+01
   3.322065e+01  -7.733514e+00
   4.562120e+00   2.570328e+01
  -7.644185e+00  -4.486075e+01
   2.672096e+01  -6.334540e+01
  -1.728544e+01  -8.999547e+00
   3.023689e+01   1.542457e+01
   9.098086e+00  -1.476083e+01
  -6.827495e+01   8.156602e+00
  -5.979554e+01  -6.737415e+01
  -4.598311e+01  -6.926260e+01
   4.049348e+01  -2.193375e+01
   9.604796e+01   4.129365e+01
   3.520829e+01   5.721000e+01
  -5.242432e+01   7.874275e+01
  -1.062479e+02   1.526145e+01
   5.264954e+01  -4.740215e+01
   2.488328e+01  -6.232502e+01
   6.721375e+01  -2.435622e+01
   6.945509e+00  -2.689349e+01
  -1.541661e+01   1.635095e+01
  -2.942608e+01   3.701047e+00
   5.488858e+01  -1.708789e+01
   6.545386e+01  -3.205323e+01
