
 $NMID
 id='ANONYMOUS ', fmtdat='(2E16.6)'
 volume=1.0
 tramp=1.0
 $END
  -2.674701e+03   6.200423e+00
  -1.835293e+03  -1.280407e+03
  -1.607501e+02  -1.677931e+03
   9.296640e+02  -1.216573e+03
   8.523371e+02  -3.096292e+02
   1.626291e+02   8.401873e+01
  -2.657873e+02  -4.490720e+01
  -1.061924e+02  -3.817430e+02
   2.873317e+02  -4.793200e+02
   4.929459e+02  -1.263765e+02
   4.272711e+02   4.016737e+02
   5.004394e+01   4.992619e+02
  -1.708160e+02   1.789356e+02
  -1.955595e+02  -3.399047e+02
   1.183095e+02  -4.686602e+02
   3.976450e+02  -7.625007e+01
   3.486667e+02   3.790279e+02
  -5.472489e+01   5.469436e+02
  -4.243476e+02   3.192100e+02
  -3.710962e+02  -1.335286e+02
  -1.143620e+02  -2.867627e+02
   3.524382e+01  -1.717171e+02
   1.715214e+01  -6.243725e+01
  -1.936002e+02  -1.308159e+02
  -2.571021e+02  -2.793656e+02
   5.276547e+01  -2.676278e+02
   4.477591e+02  -1.331232e+02
   5.447437e+02   1.349083e+02
   2.222572e+02   2.957606e+02
  -3.073710e+02   5.019656e+01
  -3.988992e+02  -1.258709e+02
  -7.487647e+01  -3.265072e+02
   2.111257e+02  -3.081403e+02
   3.906516e+02  -7.966528e+01
   2.733999e+02   1.753335e+02
   1.182132e+02   2.619038e+02
  -4.283250e+01   1.178995e+02
   2.761507e+01  -5.474378e+01
   1.785833e+02  -8.578474e+01
   1.144066e+02   1.424312e+02
  -2.397305e+01   3.983790e+02
  -2.360318e+02   3.478536e+02
  -2.787405e+02  -4.932678e+01
  -1.140961e+02  -3.141353e+02
   5.072153e+01  -7.537354e+01
   1.463688e+02   2.151157e+02
  -6.516648e+01   3.535131e+02
  -4.256129e+02   3.188022e+01
  -4.306990e+02  -3.594165e+02
  -1.057867e+02  -4.363953e+02
   3.068132e+02  -2.279643e+02
   4.976002e+02   3.928068e+01
   2.728226e+02   2.177737e+02
  -2.334052e+01   1.824015e+02
  -2.495942e+02   5.961043e+01
  -1.734077e+02  -2.879037e+01
  -3.578854e+01  -1.490967e+01
   1.099372e+01   1.581697e+01
  -5.280453e+01   1.038841e+02
  -2.234055e+02  -9.226979e-01
  -9.812886e+01  -1.954191e+02
   1.173070e+02  -1.417638e+02
   2.812143e+02  -1.095711e+02
   2.590753e+02   1.141265e+02
  -4.442270e+01   3.994583e+02
  -2.826098e+02   3.295042e+02
  -3.710309e+02   1.373461e+02
  -1.890825e+02  -2.389187e+02
   5.895976e+00  -3.105756e+02
   7.213720e+01  -2.907965e+02
  -1.786560e+01  -1.287408e+02
   6.195315e+01  -9.039112e+01
   1.658867e+02  -8.335303e+01
   2.664469e+02  -8.814653e+00
   1.854481e+02   1.136060e+02
   5.566801e+01   2.432325e+02
  -9.866754e+01   1.996924e+02
  -1.829448e+02  -6.736263e+01
  -7.809371e+01  -1.981988e+02
   9.010702e+01  -1.881169e+02
   2.407174e+02  -7.929478e+01
   2.426658e+02   1.800390e+02
   1.731242e+02   2.607637e+02
  -7.278647e+01   2.651270e+02
  -1.360514e+02   1.414917e+02
  -1.816633e+02   1.314678e+02
  -1.449207e+02   2.832405e+01
  -2.217131e+02   7.769889e+01
  -4.075572e+02  -1.001639e+02
  -2.555744e+02  -2.818567e+02
   6.620315e+01  -3.460977e+02
   3.775433e+02  -3.637121e+02
   4.495587e+02  -1.470764e+02
   3.195475e+02   9.183604e+01
  -4.589856e+00   2.083126e+02
  -1.347247e+02   1.920069e+02
   2.504558e+01   2.953820e+01
   8.725886e+01  -1.932515e+01
   8.697276e+01   4.948490e+01
   4.517114e+01   1.791968e+02
  -9.546002e+01   3.576028e+01
  -1.196563e+02   6.270199e+00
   2.382517e+01  -1.608386e+02
   1.436434e+02   1.304444e+01
   1.574185e+02   2.103637e+02
  -2.730596e+01   3.570533e+02
  -1.392583e+02   2.050089e+02
  -3.112117e+02  -3.929686e+01
  -2.428397e+02  -2.099144e+02
  -3.599565e+01  -2.299025e+02
   1.593662e+02  -1.792757e+02
   1.493728e+02   1.156993e+01
   3.823534e+00   3.007206e+01
  -7.575592e+01  -5.080195e+01
   2.619094e+01  -1.157813e+02
   2.147190e+02  -5.072480e+01
   1.180619e+02   1.592521e+01
   5.602949e+01   3.825869e+01
  -8.372380e+00  -1.076247e+01
  -6.612023e+01  -9.281045e+01
   1.408820e+02  -1.087230e+02
   3.034524e+02  -1.057383e+00
   2.399855e+02   1.603716e+02
   3.922954e+01   2.733933e+02
  -1.933195e+02   2.429368e+02
  -2.497513e+02   1.119905e+02
  -7.857339e+01  -9.593684e+01
   8.246195e+01  -5.750166e+01
   8.723139e+01   2.742116e+01
  -2.311661e+01   7.302380e+01
  -1.512247e+02   1.406835e+01
  -2.423333e+02  -6.745490e+01
  -2.997766e+01  -2.312136e+02
   9.327299e+01  -1.463296e+02
   1.245990e+02   2.500400e+01
   8.935815e+00   6.454590e+01
  -3.342430e+01  -5.986526e+01
   2.273744e+01  -1.580504e+02
   1.264695e+02  -1.002832e+02
   2.155551e+02  -1.201427e+01
   1.683767e+02   1.304435e+02
   1.464929e+01   2.234778e+02
  -1.572562e+02   1.317963e+02
  -1.643803e+02  -8.572168e+00
  -7.272291e+01  -5.700078e+01
   7.385996e+01  -8.221802e+01
   4.977148e+01  -3.160797e+01
  -4.725773e+01   6.191715e+01
  -6.984046e+01   5.251731e+01
  -5.754746e+01  -2.574616e+01
   1.265492e+02  -5.120063e+01
   9.934679e+01   7.554812e+01
   3.385430e+01   1.192225e+02
  -1.181932e+02   1.170988e+02
  -2.451792e+02   4.555430e+01
  -1.358352e+02  -1.133321e+02
  -5.098258e+01  -2.496178e+02
   1.412965e+02  -1.598282e+02
   1.285513e+02  -4.573005e+01
   4.168543e+01  -3.256490e+01
   3.201224e+01   3.565235e+01
   3.685818e+01   1.706438e+01
   1.053543e+02   4.278444e+00
   7.820933e+01   7.856047e+01
   9.888623e+00   1.383105e+02
  -1.066742e+02   8.130917e+01
  -1.320500e+02  -9.784740e+01
   6.538769e+00  -1.464761e+02
   1.566902e+02  -8.013504e+01
   1.609474e+02   5.321693e+01
   1.152717e+02   1.861938e+02
  -8.778765e+01   1.570169e+02
  -2.791343e+02   7.216280e+01
  -1.219089e+02  -8.419060e+01
  -6.736528e+01  -1.713517e+02
   4.956104e+01  -1.460305e+02
   5.657784e+01  -4.315020e+01
   3.622330e+01  -1.024759e+02
   9.987284e+01  -7.938512e+01
   9.432348e+01  -5.115925e+01
   1.176493e+02   7.178589e+00
   1.171804e+02   1.982293e+02
   7.242624e+01   1.384538e+02
  -1.277273e+02   1.255854e+02
  -1.370362e+02  -3.455858e+01
  -1.428301e+02  -6.645593e+01
   1.058369e+01  -1.490142e+02
   5.783387e+01  -7.196390e+01
   8.384881e+01   3.586579e+01
  -2.417065e+00   5.295875e+01
  -1.336275e+01   2.797443e+01
   6.912515e+01  -2.676650e+01
   9.725554e+01  -2.110941e+01
   1.273910e+01   3.424212e+01
  -9.646387e+01   4.434608e+01
  -1.598053e+02  -4.679445e+01
  -1.882993e+02  -2.346367e+01
   3.020274e+01  -9.050443e+01
   1.289275e+02  -4.620221e+01
   1.052073e+02  -2.507431e+01
   5.991379e+01   6.338131e+01
  -7.188247e+01   6.703208e+01
  -1.393647e+02  -1.168935e+01
  -7.486966e+00  -3.922272e+01
   7.667728e+01  -1.029986e+02
   8.722322e+01   9.274562e+00
   6.860860e+01   4.878163e+01
   2.556404e+01   5.710523e+01
  -4.251845e+00   1.685021e+01
   6.393193e+01  -4.812664e+01
   6.755057e+01   6.958414e+01
   1.671855e+01   7.138371e+01
  -1.237000e+02   1.209072e+02
  -1.510686e+02   1.618650e+01
  -1.226572e+02  -1.364200e+02
   5.618374e+00  -1.591983e+02
   5.068686e+01  -9.439221e+01
   9.271311e+01   3.805861e+01
  -5.414788e+01   2.954554e+01
  -4.901248e+01  -5.718509e+01
  -1.262442e+02  -1.118016e+02
   8.994031e+01  -1.194725e+02
   1.445795e+02  -3.560234e+01
   9.927689e+01   2.478433e+01
  -2.813493e+00   1.047987e+02
  -1.260372e+02   3.876875e+01
  -5.282482e+01   1.762868e+01
   2.326868e+01  -7.059330e+01
   1.237366e+02   1.760717e+01
   1.404823e+02   9.762356e+01
  -4.699617e+01   9.764834e+01
  -1.477256e+02   7.596561e+01
  -9.956558e+01  -8.705449e+01
  -2.743310e+01  -1.986397e+02
   9.923161e+01  -1.639254e+02
   6.768319e+01   1.288496e+01
   9.019854e+00   1.212457e+02
  -3.056264e+00   9.813003e+01
  -2.122295e+01   2.178173e+01
  -7.426004e+01  -8.654242e+01
   4.642859e+00  -1.342313e+01
   1.112317e+01   5.181187e+01
   5.251366e+01  -4.728221e+01
  -7.984457e+00  -5.891819e+01
   5.544824e+00  -6.282909e+01
   4.734915e+01  -2.460746e+01
   1.578405e+02   5.244310e+01
   9.124317e+01   1.089872e+02
   3.824859e+01   7.210206e+01
  -6.277651e+01   2.948861e+01
  -1.059349e+02   3.387073e+01
  -3.679529e+01   7.474338e+00
   3.646093e+00  -3.049841e+01
   2.277535e+01  -6.227610e+01
   7.859671e+00   2.111100e+01
  -2.731380e+01  -9.951681e+00
   5.388580e+01  -2.799366e+01
   7.632424e+01   9.021302e+00
  -2.344412e+01   9.286026e+01
  -9.513578e+01   3.373175e+01
  -1.716610e+02   8.861649e+01
  -1.447652e+02   3.554218e+00
  -5.659369e+01  -1.375407e+02
   9.430315e+01  -1.314304e+02
   5.702150e+01  -4.734599e+01
   1.130010e+01   2.026568e+01
   5.750379e+01   2.796852e+01
  -6.262349e+00  -1.190714e+01
   2.371484e+01  -3.010728e+01
   1.234362e+01   1.997539e+01
   1.773181e+00   7.339818e+01
  -3.929740e+01   6.726927e+01
  -4.149627e+01   1.123038e+01
  -7.852656e+01  -3.848343e+00
  -6.296780e+01  -1.233833e+02
   5.523897e+01   1.781898e+01
   1.217594e+02   8.168910e+01
   3.086040e+01   8.128407e+01
  -7.862819e+01   5.827430e+01
  -1.194636e+02  -9.464457e+00
  -6.598439e+01  -1.394207e+01
   2.837139e+01  -1.048156e+02
   4.733160e+01  -1.238232e+01
   3.750137e+01   4.121213e+01
  -5.631738e+01  -4.414326e+01
  -2.733386e+01   4.577174e-01
   9.113981e+01  -3.382499e+01
   1.816982e+02   3.502040e-01
   1.026163e+01   4.670242e+00
   2.037363e+01   7.491554e+01
  -1.907727e+01   1.037888e+02
  -3.843051e+01  -1.812670e+00
  -1.290149e+01  -6.709217e+01
   9.374572e+01  -3.086882e+01
   3.284450e+01   1.158538e+00
  -2.439557e+01   5.475122e+01
  -6.043144e+01   1.065391e+00
   1.911012e+00   1.826958e+01
  -9.027136e+01  -2.240854e+01
  -6.919013e+01  -1.293716e+01
   9.759402e+00   4.491287e+01
   1.624014e+01   1.295115e+01
   4.224368e+01  -5.069493e+01
  -6.951201e+01  -6.528793e+01
   2.399662e+01  -5.915965e+01
   6.423114e+01   3.643342e+00
   5.341967e+01   4.044887e+01
  -4.612008e+01   2.601938e+01
  -1.208067e+02  -3.568121e+01
  -1.210261e+00  -6.235489e+01
   3.327267e+01   7.223073e+00
   4.716710e+01  -5.298027e+01
   4.885786e+01   3.774873e+01
  -4.487773e+01   1.006337e+02
  -1.053466e+02  -7.405565e+00
  -5.898800e+01   2.743932e+01
   6.539745e+01  -5.484498e+01
  -5.457404e+00  -7.438182e+01
  -1.770511e+01   8.788355e+01
  -4.181256e+01   8.811429e+00
