
 $NMID
 id='ANONYMOUS ', fmtdat='(2E16.6)'
 volume=1.0
 tramp=1.0
 $END
   1.786977e+03  -1.872321e+00
   1.208401e+03   8.133860e+02
   1.440363e+02   1.086334e+03
  -5.949678e+02   7.905048e+02
  -5.383776e+02   2.400909e+02
  -1.301370e+02  -6.578331e+01
   1.479013e+02   2.082980e+00
   1.558759e+01   2.679177e+02
  -2.406779e+02   3.605336e+02
  -3.153292e+02   2.105593e+01
  -2.625575e+02  -2.496019e+02
   2.322551e+00  -3.897059e+02
   9.087606e+01  -1.356894e+02
   1.711799e+02   2.475317e+02
  -3.153803e+01   2.885848e+02
  -2.113140e+02   2.627615e+01
  -1.393949e+02  -2.179682e+02
   1.049745e+02  -3.512477e+02
   2.593934e+02  -1.459691e+02
   2.722379e+02   8.719839e+01
   5.221073e+01   1.789411e+02
  -6.531270e+01   1.685217e+02
  -5.582178e+01   8.017756e+01
   5.297492e+01   7.329361e+01
   1.207639e+02   2.004638e+02
  -3.548131e+01   1.988269e+02
  -2.464315e+02   1.834291e+01
  -3.536206e+02  -1.270750e+02
  -9.383206e+01  -1.906902e+02
   1.481913e+02  -9.765942e+01
   2.281507e+02   1.406551e+02
   6.506354e+01   1.806324e+02
  -2.105169e+02   1.765279e+02
  -2.068110e+02   1.156679e+02
  -2.204637e+02  -9.598544e+01
  -4.234276e+01  -1.995748e+02
  -1.782711e+01  -5.312069e+01
  -5.973690e+01   8.632750e+01
  -1.026987e+02   3.833793e+01
  -1.025546e+02  -4.329029e+01
   6.372156e+00  -2.498506e+02
   1.331508e+02  -2.255719e+02
   1.854169e+02  -5.222932e+00
   5.077441e+01   6.056605e+01
  -3.255502e+01   1.263751e+02
  -1.182682e+02  -1.725736e+02
   7.798115e+01  -2.335047e+02
   2.280758e+02   4.688085e+00
   2.738183e+02   1.947989e+02
   1.266009e+02   2.759860e+02
  -2.031343e+02   1.605041e+02
  -2.344193e+02  -4.254534e+01
  -1.102566e+02  -2.027411e+02
  -2.749234e+01  -1.592841e+02
   1.258980e+02  -1.064921e+02
   1.338115e+02  -1.255144e+01
   3.332549e+01   3.603780e+01
  -4.545879e+01  -1.107586e+02
   4.415982e+01   2.915014e+00
   1.107962e+02   4.090520e+01
   6.660794e+01   3.519695e+01
  -6.313099e+01   1.004965e+02
  -2.327155e+02   1.422380e+02
  -1.288073e+02  -8.448631e+01
  -3.406109e+01  -2.332870e+02
   1.547065e+02  -1.961599e+02
   2.298467e+02  -9.286141e+01
   1.411394e+02   9.225147e+01
   4.863489e+01   1.458443e+02
  -1.424928e+01   1.235086e+02
   3.019224e+01   9.365226e+01
  -3.475183e+01   1.115816e+02
  -1.234823e+02   1.224226e+02
  -1.716440e+02   6.817809e+01
  -9.849793e+01  -5.521525e+01
  -7.499436e+01  -1.876031e+02
   7.259723e+01  -4.505304e+01
   5.282079e+01   4.679501e+01
   3.733658e+01   1.320751e+02
  -2.765520e+01   1.715681e+02
  -1.446291e+02   7.485127e+01
  -1.704221e+02  -7.922986e+01
  -1.020584e+02  -1.858056e+02
   5.164350e+01  -1.721810e+02
   8.421295e+01  -8.795142e+01
   1.469795e+02  -1.086816e+02
   8.946210e+01  -5.751721e+01
   1.441302e+02  -1.357520e+01
   2.492585e+02   7.202940e+01
   1.316723e+02   1.649330e+02
  -6.104505e+01   2.866466e+02
  -2.062331e+02   1.715474e+02
  -3.198680e+02   1.028793e+02
  -1.719524e+02  -7.375639e+01
  -2.615299e+01  -1.465412e+02
   3.065779e+01  -1.231716e+02
  -5.090668e+00  -5.799929e+01
  -7.437020e+01  -1.839351e+01
  -9.249753e+01  -1.032764e+02
  -1.196644e+01  -1.239155e+02
   1.221869e+02  -1.991250e+01
   6.589891e+01   7.042172e+01
  -1.383510e+01   9.820965e+01
  -6.633254e+01  -2.869527e+01
  -5.474619e+01  -9.471317e+01
   5.393133e+01  -2.200624e+02
   1.723069e+02  -1.248284e+02
   1.766173e+02   1.528566e+01
   1.801815e+02   1.473401e+02
   2.916743e+01   1.235624e+02
  -9.399859e+01   4.583823e+01
  -6.929263e+01   2.705992e+01
  -1.281732e+01   3.996702e+01
   9.374615e-02   5.135454e+01
   2.290616e+01   7.414465e+01
  -1.219539e+02   9.322425e+01
  -5.264984e+01  -5.412527e+00
  -1.840323e+01  -4.129803e+01
   3.825370e+01  -4.386988e+01
   7.058520e+00   6.356382e+01
  -1.009602e+02   2.638581e+01
  -2.023480e+02   9.623735e+00
  -1.488460e+02  -9.678061e+01
  -7.778600e+00  -1.871881e+02
   1.040707e+02  -1.552339e+02
   7.338494e+01  -4.807759e+01
   8.748758e+01  -3.093892e+01
   3.533017e+01   2.027761e+01
   3.987791e+00   3.830874e+01
   1.376537e+00  -3.565216e+01
   6.892691e+01  -3.611568e+00
   1.480521e+02   9.404071e+01
   3.075516e+01   1.193004e+02
  -8.422588e+01   9.048034e+01
  -9.803218e+01  -1.451311e+01
   7.754538e+00  -4.539715e+01
  -8.042063e+00   4.285308e+01
   7.177186e+01   8.225516e+01
  -4.439655e+01   7.072068e+00
  -1.150962e+02   2.194521e+01
  -1.084625e+02  -1.393815e+02
   1.000979e+01  -1.202061e+02
   1.156511e+02  -8.282692e+01
   5.027428e+01   4.338859e+01
   6.860617e+01   6.559625e+01
  -5.539729e+01   4.064891e+01
  -3.041484e+01   4.531078e+01
  -3.031554e+01   8.661856e+00
  -5.492087e+01  -5.307448e+00
  -4.667141e+01   1.688836e+01
  -5.372408e+01  -3.840988e+01
  -1.097318e+02  -4.886154e+01
   4.443343e+01  -3.260657e+01
   7.680714e+01  -8.892805e+01
   1.550141e+02   1.687446e+01
   9.919788e+01   6.185176e+01
   5.950746e+00   1.302294e+02
  -8.195177e+01   1.435175e+02
  -1.556258e+01   1.576258e+01
  -8.599743e+00  -3.850682e+01
  -2.973091e+01   6.492796e+00
  -2.992065e+01   2.215273e+01
  -1.127309e+02  -6.920900e+00
  -7.466477e+01  -1.263129e+02
   2.533587e+01  -7.704777e+01
   6.829182e+01  -4.488587e+01
   1.030168e+02   8.289205e+01
   2.916877e+01   8.657230e+01
  -7.775476e+01   7.077193e+01
  -1.499301e+02   2.416663e+01
  -2.620562e+01  -1.552722e+02
   6.426907e+01  -8.866468e+01
   1.487908e+02   8.867505e+00
   1.269441e+02   3.477000e+01
   1.185269e+01   4.941089e+01
  -1.694232e+01   1.141059e+02
  -3.623104e+01   7.166928e+01
  -6.981269e+00  -1.831789e+01
  -5.649516e+01   1.026839e+02
  -5.801885e+01   1.043012e+02
  -1.179320e+02   6.317457e+00
  -5.097452e+01  -5.771969e+01
  -2.515161e+01  -9.657396e+01
   9.844034e+01  -1.189941e+02
   1.516938e+02   2.270979e+01
   3.255295e+01   5.379460e+01
  -1.853442e+01   9.214218e+01
  -6.572086e+01   3.868452e+01
  -5.153739e+01   3.891993e+01
   4.266239e+00  -5.878335e+00
  -1.522929e+01  -5.084207e+01
  -2.851698e+01   4.079330e+01
  -2.214747e+01  -2.896078e+01
  -3.715975e+01  -6.681844e+00
   7.141593e+01  -5.297100e+01
   1.126860e+02   1.782543e+00
   5.085270e+01   3.394321e+01
   1.546516e+01   5.892995e+00
  -1.053370e+02   8.063128e+01
  -6.815017e+01  -3.834735e+01
  -9.012190e+00  -2.491935e+01
  -8.201952e+00  -5.024855e+01
   3.093627e+01   7.748793e+01
   1.335001e+00   4.277218e+01
  -4.580459e+01   3.666322e+01
  -3.625808e+01   3.210206e+01
  -7.117188e+01  -1.876799e+01
  -4.925237e+00  -3.580131e+01
  -1.847509e+01   3.144627e+01
  -5.025504e+01  -4.517106e+01
   1.307065e+01  -7.183540e+01
   4.159396e+01  -1.339470e+02
   5.724300e+01  -1.912341e+02
   1.385552e+02  -2.675918e+01
   9.290864e+01   2.335412e+01
  -6.159529e+00   5.448541e+01
  -4.310534e+01   4.487486e+01
   4.089672e+00  -2.559985e+01
   1.069484e+01  -6.146875e+01
   6.204348e+01   3.754822e+01
   2.475005e+01   5.820803e+01
  -5.936488e+01   1.435074e+02
  -7.355884e+01  -2.574819e+01
  -9.449657e+01  -6.832655e+01
   3.814000e+01  -4.233521e+01
   5.171973e+01  -4.013358e+01
   7.012841e+01   3.807257e+01
  -5.153704e+01  -1.926448e+00
  -8.862275e+01  -2.981569e+00
  -2.942472e+01  -7.376057e+01
   4.537963e+01  -4.141232e+01
   5.690742e+01  -6.586139e+01
   1.166823e+02   4.341744e+01
   2.252777e+01   1.498637e+02
  -1.093093e+02   8.600696e+01
  -8.805949e+01   7.515217e+01
  -5.200772e+01  -7.681628e+01
  -8.241030e+01  -6.221825e+01
   5.149471e+01  -4.170425e+01
   1.755311e+01   3.919849e+01
  -3.286486e+01   2.970688e+01
  -1.531990e+00   3.741268e+01
   1.330574e+01  -8.977610e+00
   3.047313e+01   7.104131e+01
   2.062611e+01   9.606149e+01
  -3.357319e+01   1.846156e+01
  -9.210637e+01   1.070823e+01
  -5.583671e+01  -6.691201e+01
  -7.940836e+01   1.265086e-01
   6.161737e+01  -6.858347e+00
   3.147369e+01  -2.575395e+01
   3.450230e+00  -9.325041e-01
  -1.229420e+01   4.241135e+01
  -3.775836e+01   4.882566e+01
   1.934043e+01   1.458362e+01
  -1.866864e+01   4.184565e+01
  -5.486350e+01   8.454038e+00
  -4.565329e+01  -3.158664e+01
  -3.297155e+00  -1.328653e+01
   7.059954e+01  -1.047863e+01
   1.627480e+02  -3.873579e+00
   7.183110e+01   5.134001e-01
   8.141516e+00   9.648926e+01
  -1.573929e+01   1.059695e+02
  -5.907911e+01   8.734110e+00
   5.462525e+00  -2.736614e+00
  -3.647414e+00  -2.389409e+01
   1.690667e+01   9.809576e+00
   1.559941e+00  -6.046249e+01
  -4.537088e+00   8.209721e+00
  -7.368112e+00  -4.714095e+01
   4.463233e+01  -8.860819e+01
   1.740107e+01  -6.364294e+01
   5.703680e+01   1.294713e+02
   6.078954e+01   7.648872e+01
  -4.429856e+01   4.256954e+01
  -9.157321e+01  -2.450053e+01
  -2.994311e+01  -4.582076e+01
  -1.709875e+00  -4.550120e+01
   2.658993e+01  -2.770142e+01
   7.103226e+01   6.436695e+01
  -1.843260e+01   2.389714e+01
  -1.517249e+01  -6.423513e+01
  -8.774048e+00  -3.455938e+01
  -5.433660e+00   2.734453e+01
  -3.261583e+01   6.856277e+01
  -4.293439e+01   5.212149e+01
  -4.733919e+01   4.736865e+01
  -8.051569e+01  -1.121204e+01
  -3.948692e+01  -9.819522e+01
  -4.620496e+01  -8.435683e+01
   2.730483e+01  -1.755243e+01
  -5.385738e+01   6.886714e+01
   6.073877e+00   2.150778e+01
   6.283107e+00  -2.516733e+01
  -5.603658e+01   2.988780e+00
  -4.618544e+01   1.322337e+01
   5.041584e+01  -2.479478e+01
   3.249490e+01   2.788948e+01
   6.455558e+01   1.080539e+01
   5.608345e+00  -5.273131e+01
  -3.880256e+01   1.928883e+01
   2.232198e+01  -1.049774e+01
  -1.736690e+00   6.862102e+01
   3.853107e+01  -2.330713e+01
  -7.920809e+01  -9.867835e+00
  -9.911526e+00  -1.687191e+01
   1.322397e+01  -1.514747e+01
   5.443346e+01   2.289621e+01
   1.486058e+01   8.084887e+01
  -9.019208e+00   1.517150e+01
  -5.250581e+01  -5.738960e+00
  -2.848189e+01  -2.726445e+01
   5.426773e+01  -1.828531e+01
  -1.045856e+00  -1.170882e+01
   1.408699e+01  -2.446589e+01
  -5.182469e+01   1.707589e+00
   1.693242e+01  -3.626827e+01
   4.701621e+01   6.020772e+01
   5.673672e+01  -2.357827e+01
