
 $NMID
 id='ANONYMOUS ', fmtdat='(2E16.6)'
 volume=1.0
 tramp=1.0
 $END
   3.960905e+03   1.555169e+02
   2.158011e+03   2.465945e+03
  -7.952933e+02   2.448188e+03
  -1.934452e+03   6.107191e+02
  -7.904144e+02  -7.775767e+02
   6.614116e+02  -5.405654e+02
   8.865873e+02   4.989562e+02
  -4.189197e+01   1.002810e+03
  -7.886886e+02   6.863760e+02
  -8.683844e+02  -9.486804e+01
  -4.153963e+02  -8.580527e+02
   3.516375e+02  -8.525588e+02
   6.412068e+02  -4.991844e+01
   2.827861e+02   6.986771e+02
  -2.918187e+02   7.524176e+02
  -5.955677e+02  -9.356641e+00
  -2.148198e+02  -6.727868e+02
   3.062075e+02  -5.400330e+02
   5.617686e+02  -2.517002e+01
   3.091518e+02   4.152558e+02
   4.309650e+01   3.863712e+02
  -2.714499e+02   1.862340e+02
  -1.715374e+02  -5.751359e+00
   1.136450e+02  -1.043575e+02
   3.533167e+02   1.207099e+02
   1.986223e+02   3.126757e+02
  -4.003331e+02   4.066260e+02
  -7.623413e+02  -8.945816e+01
  -3.951732e+02  -5.359162e+02
   3.271243e+02  -4.342260e+02
   6.436436e+02   1.877705e+01
   3.278282e+02   4.387232e+02
  -2.490260e+02   4.622807e+02
  -4.912125e+02   1.555229e+02
  -3.760132e+02  -1.945997e+02
  -8.128575e+01  -4.477697e+02
   2.070679e+02  -2.828696e+02
   1.791263e+02   1.944593e+02
  -1.479339e+02   4.410137e+02
  -3.830059e+02   4.298335e+00
  -2.200000e+02  -6.055964e+02
   3.657731e+02  -5.948807e+02
   5.610563e+02   1.172582e+01
   2.971144e+02   5.396377e+02
  -2.900826e+02   3.694025e+02
  -3.833087e+02  -3.187165e+02
   4.844637e+01  -4.637175e+02
   4.753526e+02  -1.095522e+02
   4.990283e+02   4.313529e+02
   1.008689e+02   4.888424e+02
  -3.951976e+02   2.285537e+02
  -5.437019e+02  -1.520582e+01
  -3.597090e+02  -3.607497e+02
   1.874546e+02  -3.334103e+02
   3.943648e+02  -3.031353e+01
   1.361777e+02   2.155635e+02
  -4.937739e+01   8.714307e+01
  -1.237106e+02  -1.375522e+02
   1.297014e+02  -9.200645e+01
   3.037972e+02   6.066638e+01
   1.554613e+02   3.151590e+02
  -1.779178e+02   2.374031e+02
  -2.423927e+02  -9.182617e+00
  -1.539884e+02  -4.062768e+01
  -2.704755e+00  -2.268435e+02
   1.701293e+02  -2.637731e+02
   2.527232e+02  -2.214119e+02
   3.053024e+02   1.058664e+02
   1.055552e+02   4.051855e+02
  -1.148538e+02   3.049762e+02
  -1.315063e+02   1.000057e+02
  -3.875593e+01  -1.781450e+01
   4.670505e+01   1.063211e+02
  -1.262199e+02   1.333556e+02
  -2.759579e+02  -3.752386e+01
  -2.403019e+02  -2.107657e+02
   1.567642e+01  -2.246911e+02
   1.739014e+02  -3.621268e+01
   2.484551e+02   1.664311e+02
  -9.369580e+00   2.180957e+02
  -1.892280e+02   9.297654e+01
  -3.020055e+02  -1.989906e+02
  -2.221920e+02  -3.109203e+02
   1.544398e+02  -2.386104e+02
   2.222934e+02  -1.359589e+02
   1.347637e+02   5.993516e+01
   1.011171e+02   4.177625e+00
   1.633798e+02  -1.056092e+02
   3.169663e+02   6.630157e+01
   2.825946e+02   2.617920e+02
   7.425603e+00   4.140796e+02
  -2.628066e+02   3.850062e+02
  -4.695180e+02   1.665600e+02
  -3.311172e+02  -1.361237e+01
  -4.253158e+01  -2.442171e+02
   1.017592e+02  -2.209966e+02
   2.797687e+01  -2.080718e+00
  -1.129592e+02   8.637537e+01
  -1.955393e+02   3.011939e+01
  -2.048038e+01  -1.543732e+02
   1.293512e+02  -1.682911e+02
   1.320300e+02   6.293582e+01
  -7.508080e+00   1.912760e+02
  -1.955984e+02   4.443573e+01
  -1.358409e+02  -1.844395e+02
   7.551198e+01  -2.851519e+02
   2.200760e+02  -1.645312e+02
   3.233620e+02   6.043392e+01
   2.351102e+02   2.422414e+02
   3.432929e+01   2.013128e+02
  -9.677647e+01   1.343259e+02
  -1.844469e+02  -9.779109e+00
  -3.451965e+01  -2.788332e+01
   5.920433e+01   5.075044e+01
   9.523890e+00   6.854882e+01
  -6.254655e+01   7.705194e+01
  -1.385371e+02   3.769699e+01
  -9.424782e+01  -4.317853e+01
   6.084411e+01   1.307580e+01
   7.730329e+01   8.340875e+01
  -1.292522e+02   5.769449e+01
  -2.757244e+02   2.712315e+01
  -2.361512e+02  -1.153511e+02
  -5.945293e+01  -2.400236e+02
   1.146584e+02  -2.076538e+02
   2.767919e+02  -6.456498e+01
   1.479202e+02   7.918898e+01
   3.104494e+01   9.032859e+01
  -6.185049e+01   2.752089e+01
   7.154856e+01  -1.061729e+02
   1.671647e+02  -6.378681e+01
   1.502998e+02   1.044401e+02
   7.168124e+01   1.820863e+02
  -5.193697e+01   8.356219e+01
  -1.678772e+02   5.018574e+01
  -4.944276e+01  -1.996294e+01
   1.449367e+01  -8.433805e+00
   2.106369e+01   5.503460e+01
  -1.031139e+02   1.065990e+02
  -1.558183e+02   4.712391e+01
  -1.669889e+02  -8.798930e+01
  -2.418360e+01  -1.592731e+02
   1.690895e+02  -1.072789e+02
   1.801996e+02  -4.110980e+00
   1.394928e+02   1.056525e+02
  -9.287601e+01   5.612031e+01
  -8.843412e+01   1.350695e+01
   2.218469e+01   1.350552e+00
   9.470376e+00   6.801691e+01
  -3.647357e+01  -9.834080e+00
  -3.459586e+01  -4.369414e+01
  -7.813756e+01  -1.498148e+02
  -6.009992e+00  -1.388827e+02
   1.198048e+02  -1.507840e+02
   1.812322e+02   5.568454e+00
   2.069783e+02   5.576662e+01
   4.538136e+01   2.231902e+02
  -9.664314e+01   1.679400e+02
  -1.663512e+02   1.115335e+02
  -4.052552e+00  -4.917185e+01
  -2.743008e+01  -1.697104e+01
  -6.214346e+01  -5.815955e-01
  -1.293176e+02  -1.597656e+01
  -4.469199e+01  -4.271053e+01
  -5.858326e+00  -3.883941e+01
   1.030246e+01  -3.936305e+01
   6.124583e+01   2.438386e+01
  -7.132899e+00   1.393257e+02
  -1.694241e+02   8.949177e+01
  -1.343860e+02   1.270390e+01
  -6.974640e+01  -1.149262e+02
   4.268322e+01  -1.395888e+02
   2.012354e+02  -9.495175e+01
   1.927820e+02   8.764661e+01
   6.255754e+01   1.707360e+02
   1.197124e+01   1.174890e+02
  -1.263884e+02   9.816784e+01
  -3.481837e+01   8.783400e+01
  -1.031722e+02   6.225377e+01
  -1.512850e+02   1.222307e+02
  -9.819396e+01  -5.393906e+01
  -3.565950e+01  -1.172625e+02
  -3.727242e+01  -2.303700e+02
   8.314076e+01  -1.947688e+02
   1.691037e+02   2.331506e+01
   7.399763e+01   5.229999e+01
   2.443829e+01   1.754936e+02
  -5.134910e+01   3.624816e+01
  -1.024684e+02  -4.988353e+00
   2.370939e+01  -7.818995e+01
  -4.364647e+01  -1.800616e+01
  -9.991191e+01  -4.376813e+01
  -4.122916e+01  -4.325399e+01
  -2.546594e+01  -1.603021e+01
   2.074043e+01   6.347450e+00
   1.632407e+02  -7.077039e+00
   1.586006e+02   2.677417e+01
   1.471957e+01   1.088765e+02
  -9.012157e+01   9.810593e+01
  -1.143330e+02  -2.047652e+01
  -5.223694e+01   8.455161e+00
   8.093854e+01  -4.147287e+01
   5.167311e+01   1.701375e+01
  -7.273246e+00   6.972079e+01
  -6.334322e+01   5.491096e+01
  -1.578076e+01  -2.287038e+01
  -5.423790e+01   2.450966e+01
  -3.296428e+01   2.912651e+01
  -1.031719e+02   2.658103e+01
  -1.636713e+01  -8.330710e+01
  -4.745480e+01  -5.444799e+01
   3.678146e+01  -1.318138e+02
   1.338229e+02  -1.162494e+02
   1.899323e+02  -1.341204e+01
   1.499379e+02   1.086653e+02
  -1.770461e+01   1.071679e+02
  -5.062579e+01   2.236649e+00
  -5.249581e+01  -1.148626e+01
  -5.233107e+00  -4.811064e+01
   8.701043e+01   3.293649e+01
   7.065267e+01   7.386096e+01
  -8.508030e+01   1.163635e+02
  -1.873885e+02   8.354697e+01
  -1.592808e+02   5.770228e+00
  -2.974728e+01  -6.395804e+01
   7.656596e+01  -3.790833e+01
   8.388146e+01  -6.268403e+00
  -1.214029e+01  -8.437368e-01
  -7.882371e+01  -1.395379e+01
  -6.002771e+01  -7.491258e+01
   8.054231e+01  -1.217244e+02
   1.059323e+02  -3.895289e+01
   1.049190e+02   1.450830e+02
  -1.883179e+01   1.652558e+02
  -7.473201e+01   1.195246e+02
  -7.085052e+01  -2.789455e+01
   1.327452e+00  -1.186501e+02
   1.171575e+01  -5.668796e+01
  -5.267989e+00  -7.294203e+01
   8.548440e+01   1.020289e+02
  -1.866061e+01   4.947671e+01
  -1.180769e+01   2.089018e+01
   3.049758e+01   1.309591e+00
   4.644336e+01   1.073552e+02
   5.685733e+01   1.425117e+02
  -5.589742e+01   3.885562e+01
  -1.517126e+02   2.613783e+01
  -1.495856e+02  -1.044895e+02
  -1.510301e+01  -8.573274e+00
   7.461620e+01  -4.686735e+01
   4.056979e+01  -1.449810e+01
  -1.403185e+00   5.450397e+01
  -5.009147e+01  -1.268091e+01
   2.674580e+01  -1.173246e+01
   1.751557e+01  -1.517389e+01
  -3.502609e+01   5.549814e+01
  -4.885347e+01  -2.478048e+01
  -5.571094e+01  -5.390072e+01
   5.584263e+01  -1.190884e+02
   1.576760e+02  -4.710058e+01
   1.929983e+02  -1.823805e+01
   1.159887e+02   9.948652e+01
   4.634173e+01   1.154395e+02
  -2.623945e+01   8.831584e+01
  -6.609961e+01   3.504729e+01
  -7.791653e+01  -7.058476e+01
   3.127945e+01  -1.216434e+01
  -3.206466e+01  -5.964193e+01
  -3.798601e+01  -1.379222e+01
  -3.499872e+01  -6.541973e+01
   3.697849e+01  -7.095090e+01
   2.336257e+01  -8.837801e+01
   5.956569e+01  -9.498449e+00
   6.073243e+01   8.942327e+01
  -4.706755e+00   1.160352e+02
  -8.792047e+01  -2.506332e+01
  -1.275089e+02  -9.217510e+01
  -5.147989e+01  -1.138264e+02
   5.072591e+01  -6.041058e+01
   1.191147e+02   2.456998e+01
  -1.305732e+01   5.434648e+01
  -3.486355e+01   4.984096e+01
   3.394771e+01   3.269122e+01
   3.234165e+00  -1.212113e+01
   7.853740e+01  -7.862312e+00
   6.398096e+01  -1.778041e+01
  -1.003807e+02  -9.972166e+00
  -5.070862e+01   6.518744e+01
  -4.859462e+01   7.420256e+00
   3.296651e+01  -7.893573e+01
   4.631412e+01  -1.041336e+02
  -2.633326e+00  -7.388086e+00
  -5.729732e+01   9.934905e+01
   8.263743e+00   1.739721e+01
  -8.513368e+01   7.573115e+00
  -4.055205e+01  -7.637704e+00
  -2.641430e+01  -2.020711e+01
  -2.126048e+01  -1.555339e+01
  -3.089559e-01  -3.487716e+01
  -1.283643e+01  -1.286478e+01
   1.902643e+01  -6.482651e-01
  -2.656358e+00   2.922342e+01
   4.322242e+01   7.139838e+01
  -2.996169e+01   1.641083e+01
   6.206748e+00  -1.898803e+01
  -1.072788e+01  -6.172921e+01
   1.403274e+01  -2.743789e+01
   6.501512e+01  -1.976563e+01
   2.932927e+01   4.111502e+01
   2.745584e+01  -5.124317e+00
  -2.428929e+01   1.330408e+01
  -9.911784e+01  -9.948069e-01
  -2.505235e+01  -9.605737e+01
   4.728203e+01   1.881187e+01
   9.115628e+01  -4.715817e+00
   7.453112e+01   1.230853e+01
  -3.631312e+01  -2.120674e+01
  -8.093269e+01  -3.690368e+01
   1.482908e+01  -6.456661e+01
   8.131787e+01   1.416040e+00
