
 $NMID
 id='ANONYMOUS ', fmtdat='(2E16.6)'
 volume=1.0
 tramp=1.0
 $END
   3.596799e+03   1.306824e+02
   2.193401e+03   2.075345e+03
  -3.707799e+02   2.315844e+03
  -1.554362e+03   1.066396e+03
  -9.717996e+02  -1.263545e+02
   2.274295e+02  -3.400772e+02
   5.377309e+02   2.749348e+02
   2.865164e+01   6.906352e+02
  -6.217899e+02   5.763251e+02
  -7.544917e+02   5.289700e+01
  -4.114824e+02  -6.440629e+02
   9.731234e+01  -7.435039e+02
   4.363606e+02  -1.068969e+02
   2.914927e+02   5.078178e+02
  -1.722831e+02   6.465939e+02
  -4.600377e+02   5.745026e+01
  -2.856939e+02  -5.537473e+02
   2.243388e+02  -6.236749e+02
   4.803212e+02  -1.864896e+02
   4.272678e+02   2.525967e+02
   7.166468e+01   3.551190e+02
  -2.165556e+02   2.593317e+02
  -1.082564e+02   3.247327e+01
   1.750584e+02   4.858710e+01
   3.206250e+02   1.874570e+02
   8.480384e+01   3.906590e+02
  -4.723559e+02   2.519111e+02
  -7.024202e+02  -1.467967e+02
  -2.567496e+02  -4.537549e+02
   3.865998e+02  -2.450839e+02
   5.938219e+02   1.146313e+02
   2.144149e+02   4.100650e+02
  -3.269862e+02   4.047374e+02
  -5.208138e+02   1.221977e+02
  -2.968898e+02  -1.750835e+02
  -1.032719e+02  -3.953693e+02
   1.002207e+02  -2.205729e+02
   3.922475e+01   1.057674e+02
  -1.745627e+02   2.631919e+02
  -2.690200e+02  -1.622356e+02
  -2.992059e+01  -5.841503e+02
   3.286088e+02  -5.410154e+02
   4.547301e+02   2.875041e+01
   2.017836e+02   4.214650e+02
  -2.591242e+02   2.025003e+02
  -2.793753e+02  -2.775485e+02
   1.098003e+02  -4.362677e+02
   5.100761e+02  -2.387200e+01
   5.664826e+02   4.268438e+02
   1.567448e+02   5.376348e+02
  -3.272009e+02   2.738575e+02
  -5.879300e+02  -3.881985e+01
  -3.146188e+02  -3.376651e+02
   1.090820e+02  -3.024154e+02
   3.432234e+02  -9.561385e+01
   1.793376e+02   6.648559e+01
  -1.673287e+01   1.040734e+01
  -1.255457e+02  -5.614077e+01
   1.450020e+02  -1.028242e+02
   2.635789e+02  -4.228600e+00
   8.958578e+01   2.240725e+02
  -1.913961e+02   3.006237e+02
  -3.446503e+02   9.016083e+01
  -2.334569e+02  -9.321974e+01
   2.205512e+01  -2.909824e+02
   2.098927e+02  -3.025480e+02
   4.114045e+02  -1.717474e+02
   2.082665e+02   1.174342e+02
   3.447736e+01   3.639063e+02
  -4.771278e+01   2.831474e+02
  -7.787129e+01   1.107478e+02
   9.747592e+00   2.443039e+01
  -9.610374e+01   1.163719e+02
  -2.048125e+02   7.384941e+01
  -2.326962e+02  -1.333899e+02
  -1.238014e+02  -2.281860e+02
   7.389819e+01  -2.190939e+02
   2.174764e+02   1.865795e+01
   1.710861e+02   2.504978e+02
  -2.852728e+01   3.113364e+02
  -2.824879e+02   5.213100e+01
  -3.320872e+02  -1.633855e+02
  -1.256385e+02  -3.737358e+02
   4.872281e+01  -2.639453e+02
   1.862150e+02  -1.166961e+02
   1.333380e+02  -8.165658e+01
   1.066916e+02   2.182957e+00
   2.856941e+02  -5.849253e+01
   4.287169e+02   8.570935e+01
   2.969637e+02   3.045758e+02
  -2.391576e+01   4.180139e+02
  -4.115716e+02   3.736225e+02
  -4.807671e+02   2.022694e+02
  -2.651563e+02  -9.253143e+01
  -7.375218e+00  -2.059727e+02
   1.083191e+02  -2.046496e+02
   4.760508e+00  -7.014830e+01
  -7.626657e+01   9.382808e+01
  -1.076062e+02  -4.862317e+01
   1.421773e+01  -1.843659e+02
   9.263290e+01  -1.206346e+02
   8.602802e+01   8.378202e+01
  -6.726242e+01   1.440520e+02
  -1.509730e+02   4.790849e+01
  -9.368958e+01  -2.843678e+02
   4.720308e+01  -3.601596e+02
   2.155900e+02  -2.171190e+02
   3.400610e+02   1.116061e+02
   2.754739e+02   2.456925e+02
   1.281786e+01   2.674338e+02
  -1.441739e+02   1.245001e+02
  -1.757419e+02  -2.258863e+00
  -8.761474e+00  -5.505661e+01
   3.135109e+01   1.674790e+01
  -1.529500e+00   9.806695e+01
  -8.756350e+01   8.216888e+01
  -1.560136e+02  -3.904133e+01
  -5.939848e+01  -8.130403e+01
   1.087351e+02   1.017603e+01
   9.291430e+01   3.828828e+00
  -1.173818e+02   1.009221e+02
  -2.907343e+02  -4.558682e+00
  -2.795841e+02  -1.505000e+02
  -6.417446e+01  -3.041730e+02
   1.955287e+02  -2.151753e+02
   2.295344e+02  -1.161958e+02
   1.032876e+02   3.913937e+01
  -2.603808e+01   1.011862e+02
  -3.813642e+01  -3.813427e+00
   3.239513e+01  -2.771926e+01
   1.894920e+02  -4.612553e+01
   1.949271e+02   9.969472e+01
   9.944243e+00   1.863120e+02
  -1.343502e+02   1.303363e+02
  -1.549549e+02  -2.526037e+01
  -7.776039e+01  -6.580032e+01
   2.665874e+01   5.856680e+01
  -2.321171e+01   5.526974e+01
  -9.967046e+01   1.276291e+02
  -2.123248e+02   7.696752e+00
  -2.160644e+02  -9.722859e+01
   1.001889e+01  -2.261807e+02
   1.376041e+02  -8.174939e+01
   2.159413e+02  -1.017928e+01
   6.532353e+01   1.132777e+02
  -7.484682e+01   1.017604e+02
  -6.384023e+01   6.009890e+01
  -1.252194e+01  -4.733386e+01
   5.129618e+01  -8.169599e+01
   1.497930e+01   1.604016e+01
  -1.510963e+02   1.160896e+01
  -6.415263e+01  -1.066206e+02
  -1.141534e+01  -1.646208e+02
   1.680716e+02  -1.391829e+02
   1.762956e+02  -3.813851e+01
   2.009948e+02   1.550971e+02
   2.633506e+01   2.194623e+02
  -5.527276e+01   1.267223e+02
  -1.356658e+02   7.353705e+01
  -7.409223e+01  -3.275948e+01
  -5.405362e+01  -5.636519e+01
  -5.104953e+01   3.197324e+00
  -1.297264e+02   4.269617e+01
  -3.242669e+01  -1.286468e+02
   5.088496e+01  -8.707051e+01
   1.088431e+02  -9.502041e+00
   1.241486e+02   1.241205e+02
  -4.022064e+01   1.693638e+02
  -2.629038e+02   7.835454e+01
  -1.751187e+02  -6.869501e+01
  -3.904678e+01  -1.674108e+02
   1.452289e+02  -2.564268e+02
   2.600552e+02  -9.819480e+01
   1.917294e+02   3.878532e+01
   1.186615e+02   2.023267e+02
  -4.097786e+01   1.536070e+02
  -7.171500e+01   9.132612e+01
  -6.493485e+01   3.079052e+01
  -5.632171e+00   6.362237e+01
  -1.069310e+02   9.117855e+01
  -1.004623e+02  -2.562161e+01
  -1.495078e+02  -1.176054e+02
  -3.169273e+01  -2.313579e+02
   1.046285e+02  -1.767488e+02
   2.133717e+02   9.045345e+00
   1.431888e+02   1.176932e+02
   7.870763e+01   1.934841e+02
  -4.373249e+01   9.486861e+01
  -9.626355e+01   2.494485e+01
  -5.190165e+01  -8.949324e+00
   2.830996e+01   1.774669e+00
  -1.633810e+01  -4.936636e+01
  -5.841665e+01  -5.612381e+01
  -6.117003e+01  -9.026642e+00
   6.535761e+01  -3.275173e+00
   2.494994e+02  -2.742765e+01
   1.566413e+02   9.512551e+01
  -5.247440e+01   1.217311e+02
  -1.011271e+02   1.006439e+02
  -2.286493e+02   2.176184e+01
  -7.851082e+01  -7.017004e+01
   8.952590e+01  -7.289796e+01
   5.101671e+01   1.544909e+01
   6.051845e+01   3.236538e+01
   1.375783e+00   3.796831e+01
  -1.924573e+01   6.798223e+00
  -4.620903e+01  -1.020187e+02
  -9.991024e+01  -5.093848e+01
  -6.773800e+01  -3.731509e+01
  -1.083439e+02   6.890087e+00
   8.780668e+00  -6.027014e+01
   4.488901e+01  -1.272253e+02
   1.391062e+02  -1.037766e+02
   1.079709e+02  -6.545582e+01
   1.234007e+02   8.585402e+01
  -3.870132e+01   1.483815e+02
  -1.050232e+02   1.242293e+02
  -2.086254e+01  -1.374590e+01
   5.875936e+01  -8.833658e+00
   1.232221e+02   8.678170e+01
   5.472466e+01   1.104995e+02
  -1.192323e+02   1.466994e+02
  -1.273174e+02   3.813710e+01
  -1.942398e+02  -7.596176e+01
  -1.748523e+01  -1.055669e+02
   2.970069e+01  -6.357389e+01
   6.580319e+01   4.327345e+00
  -7.367551e+01   1.822902e+01
  -7.943691e+01  -4.007797e+01
  -2.909339e+01  -9.805666e+01
   1.110005e+02  -1.568885e+02
   1.688519e+02  -3.641186e+01
   9.627802e+01   9.382783e+01
   2.228734e+01   1.745185e+02
  -9.862565e+01   1.378264e+02
  -1.031328e+02  -1.668741e+00
  -7.647686e+00  -1.631502e+02
  -6.962630e+00  -1.428245e+02
   1.198576e+02  -4.844492e+01
   6.547967e+01  -3.305155e+01
   6.184808e+01  -1.208362e+01
   3.169125e+01  -4.855655e+01
   2.095566e+01   1.000574e+02
   5.817402e+01   7.370087e+01
   5.027876e+01   9.349401e+01
  -6.417350e+01   1.013158e+01
  -1.311925e+02  -6.120024e+01
  -1.091577e+02  -1.169117e+02
  -4.968238e+01  -9.147488e+01
   1.126717e+02  -8.475527e+01
   1.508561e+02   2.938798e+00
   7.551507e+00   3.799082e+01
  -8.806810e+01   1.201520e+01
   8.567067e+00   5.663689e+01
   4.704524e+01  -2.526525e+01
  -1.818136e+01   6.460322e+01
  -6.206541e+01   1.869787e+01
  -1.291887e+02  -3.504842e+01
  -4.450513e+01  -7.072035e+01
   8.229861e+01  -1.214166e+02
   1.464807e+02  -9.027049e+01
   1.735520e+02   7.201895e+01
   3.055531e+01   1.590513e+02
  -1.025908e+02   1.483712e+02
  -1.006557e+02   3.382470e+01
  -1.125891e+02   1.172150e+01
   1.560186e+01  -9.304110e+00
   2.857511e+01  -2.454520e+01
  -8.872617e+00   6.765032e+01
   3.357767e+01  -7.309328e+01
  -3.975365e+01  -9.015545e+01
   2.637400e+01  -3.922265e+01
   7.759250e+01   2.744921e+01
   9.589830e+01   1.312700e+02
  -1.389924e+00   8.454682e+01
  -6.453481e+01   3.794226e+01
  -1.125572e+02  -3.401833e+01
  -1.445329e+01  -9.826683e+01
   7.483738e+00  -3.662725e+01
   9.987521e+01  -1.058000e+00
   3.059934e+01   4.938405e+01
  -2.517959e+01   5.753409e+01
   6.930712e+00   3.538303e+01
   3.344537e+01  -1.339737e+01
   1.118596e+01  -1.029080e+01
   2.419294e+01   3.667382e+01
  -1.343492e+02   9.232005e+01
  -9.892521e+01   1.628975e+01
  -5.376046e+01   3.895011e+00
   4.463012e+00  -7.441698e+01
   8.217982e+01   1.033413e+00
   1.039668e+02   2.121972e+01
  -1.468278e+01   7.462131e+01
   1.563073e+01   8.285805e+01
  -8.690010e+01  -2.779461e+01
  -4.682673e+01  -3.019867e+01
  -2.753539e+00  -8.591796e+01
   4.267708e+01  -1.492281e+01
   2.730443e+01   1.729533e+01
   6.455406e+01  -2.362313e+01
  -3.840385e+01   3.530075e+00
  -4.399778e+01   1.383692e+01
  -1.290202e+01   6.709305e+01
   4.341694e+00   7.131341e+01
  -6.473165e+01  -1.896230e+00
  -6.001224e+01  -2.997928e+01
   2.309406e+01  -3.012940e+01
   1.026525e+02   1.087964e+01
   5.521533e+01   3.526511e+00
  -5.663376e+00   4.190392e+01
  -4.875831e+01   1.650907e+01
  -8.859059e+01   5.751331e+00
  -5.400205e+01  -5.429397e+00
   3.460257e+01  -8.900672e+01
   6.273444e+01  -4.824704e+01
   7.478025e+01   3.631497e+01
   2.984356e+01   4.516580e+01
  -2.728788e+01  -7.106938e+01
   5.348774e+01  -2.707658e+00
   6.859551e+01  -1.108655e+01
