
 $NMID
 id='ANONYMOUS ', fmtdat='(2E16.6)'
 volume=1.0
 tramp=1.0
 $END
   1.611742e+03   1.728203e+02
   1.000895e+03   1.008908e+03
  -1.354867e+02   9.990120e+02
  -6.509243e+02   5.707744e+02
  -5.108812e+02   7.521644e+01
  -3.375286e+00  -6.645699e+01
   1.852500e+02   4.063803e+01
   3.256774e+01   2.874708e+02
  -2.498654e+02   2.991535e+02
  -3.381813e+02   7.811088e+00
  -2.110148e+02  -2.504733e+02
  -7.574419e+00  -3.349879e+02
   1.819761e+02  -1.242578e+02
   9.689597e+01   2.223750e+02
  -9.608630e+01   2.564108e+02
  -2.127011e+02   4.265556e+00
  -1.609399e+02  -2.702908e+02
   1.179218e+02  -3.062740e+02
   2.795636e+02  -1.229872e+02
   2.744851e+02   8.154223e+01
   5.044526e+01   1.517680e+02
  -5.970954e+01   7.515003e+01
  -7.481469e+01   4.996932e+01
   7.988365e+01   5.859797e+01
   1.172471e+02   1.190067e+02
  -4.602370e+01   1.334767e+02
  -2.932621e+02   1.996065e+01
  -2.871015e+02  -1.445355e+02
  -1.216796e+02  -1.607318e+02
   2.176093e+02  -4.094107e+01
   2.201372e+02   1.097954e+02
   8.474984e+01   2.237161e+02
  -1.665392e+02   1.929097e+02
  -2.808030e+02   9.216238e+01
  -1.101910e+02  -1.122391e+02
  -2.738801e+01  -1.146096e+02
   4.236837e+01  -9.411129e+01
   5.110984e+00   7.160983e+01
  -7.851619e+01   4.656149e+01
  -1.358371e+02  -7.191405e+01
  -1.695195e+01  -2.520310e+02
   1.198039e+02  -1.766799e+02
   1.592863e+02   1.953001e+01
   2.741830e+01   1.222983e+02
  -8.182438e+01   7.835978e+01
  -1.085997e+02  -1.596724e+02
   9.616193e+01  -1.182039e+02
   2.820011e+02  -4.245821e+01
   1.993022e+02   1.997239e+02
   2.687524e+01   2.593312e+02
  -1.234107e+02   1.352022e+02
  -3.040013e+02  -2.546521e+01
  -1.358515e+02  -1.384556e+02
   5.290430e+01  -1.070350e+02
   1.084908e+02  -8.278310e+01
   9.458434e+01   3.620958e+01
   4.015898e+01  -1.517967e+01
  -5.062909e+01   2.689786e+01
   5.145370e+01  -3.801436e+01
   1.172991e+02   6.920055e+00
   4.862358e+01   5.472271e+01
  -6.552287e+01   1.139460e+02
  -2.324284e+02   6.420388e+01
  -1.065965e+02  -6.559501e+01
   2.011341e+01  -1.851642e+02
   1.771637e+02  -2.121138e+02
   2.168760e+02  -5.468460e+01
   1.622005e+02   8.462749e+01
   2.769947e+01   2.349455e+02
   3.847267e+00   1.501584e+02
   1.265848e+01   1.027332e+02
  -3.964248e+01   7.992833e+01
  -5.388085e+01   5.234738e+01
  -1.317681e+02  -1.445659e+01
  -6.648806e+01  -6.406719e+01
  -4.995471e+01  -1.281991e+02
   5.377343e+01  -7.579318e+01
   7.122521e+01   3.340201e+01
   5.070085e+01   1.335015e+02
  -2.467765e+01   1.179521e+02
  -1.362117e+02   6.809386e+01
  -1.250117e+02  -6.632402e+01
  -2.630281e+01  -1.438798e+02
   1.933401e+01  -1.217227e+02
   1.136402e+02  -1.060647e+02
   9.572090e+01  -2.009281e+01
   9.583134e+01   8.864843e+00
   1.487642e+02   3.290125e+01
   2.035060e+02   9.888210e+01
   1.629568e+02   1.802948e+02
  -1.603210e+01   1.692611e+02
  -2.277795e+02   1.543250e+02
  -2.319201e+02   3.778948e+01
  -9.324213e+01  -6.069697e+01
  -1.569965e+01  -6.034727e+01
   1.140210e+02  -1.037295e+02
  -2.035400e-01  -5.950497e+00
  -8.331840e+01   4.648511e+01
  -2.910378e+01   1.099161e+01
   3.727968e+00  -1.304065e+01
   9.948509e+01  -6.274376e+01
   5.535001e+01   3.877928e+01
  -6.845304e+01   8.640921e+01
  -3.042986e+01  -2.636261e+01
  -6.093020e+01  -1.694469e+02
   2.414941e+01  -1.515645e+02
   1.508186e+02  -7.818558e+01
   1.890423e+02  -1.725832e+00
   1.186595e+02   1.378059e+02
   4.611364e+00   1.704121e+02
  -4.121466e+01   9.211300e+01
  -1.052509e+02   1.017017e+01
  -4.024029e+01   5.144330e+01
   5.719128e+01   4.274122e+01
  -3.283407e+01   7.593503e+00
  -1.249952e+02   2.875075e+01
  -1.207371e+02  -2.152456e+01
  -2.512636e+01  -1.478653e+01
  -8.566697e-01  -4.589971e+00
  -3.437898e+01   5.455704e+01
  -9.606957e+01   6.856783e+01
  -1.230160e+02   4.348722e+01
  -9.229256e+01  -1.228612e+02
  -1.040888e+01  -1.337621e+02
   1.204028e+02  -8.196054e+01
   7.459004e+01   2.545788e+01
   9.783457e+01   3.708639e+01
  -4.171787e+01   3.288735e+01
  -7.341882e+01   1.710752e+01
   4.306252e+01   3.101266e+01
   9.023859e+01  -2.375900e+01
   6.543659e+01   5.052767e+01
   2.688978e+01   6.188460e+01
  -9.036493e+01   1.059665e+02
  -7.694089e+01  -2.370298e+01
  -2.442210e+01  -1.302707e+01
   6.862437e+01   2.412676e+01
   2.563504e+01   5.074757e+01
  -5.656954e+01   7.611419e+01
  -8.281670e+01   3.506271e+01
  -1.063720e+02  -5.232724e+01
   2.184830e+01  -8.454435e+01
   6.078380e+00  -6.904310e+01
   9.823461e+01   5.225880e+00
   8.053333e+01   7.094962e+01
  -5.694894e+01   1.064500e+02
  -2.461713e+01   5.440598e+01
   3.194133e+01  -2.406824e+01
   4.760172e+01   2.626402e+01
  -6.438218e+01  -2.022121e+01
  -6.383979e+01  -1.298471e+01
  -1.244060e+02  -8.618269e+01
   4.975064e+01  -8.556844e+01
   9.485697e+01  -2.352547e+01
   1.572609e+02  -3.241503e+01
   1.003715e+02   7.696012e+01
   3.880296e+01   1.164825e+02
  -4.077725e+00   6.123041e+01
  -3.798119e+01  -1.103106e+01
  -3.277981e+01  -5.176554e+01
  -5.344135e+01  -6.625518e+01
  -2.202195e+01  -2.019914e+01
  -3.217917e+01   4.121751e+00
   1.202978e+01  -6.259573e+01
   2.956432e+01  -4.263138e+01
   8.102395e+01  -2.922096e+01
  -6.930047e+00   3.343547e+01
   9.155194e+00   1.362040e+01
  -7.758431e+01   6.013394e+01
  -6.732386e+01  -4.397804e+01
  -2.525087e+01  -1.559171e+02
   3.665351e+01  -5.052221e+01
   1.396161e+02  -4.200236e+01
   1.234534e+02   8.817408e+01
   7.011213e+01   8.438958e+01
  -1.270334e+01  -2.141045e+01
  -4.625990e+01   3.582653e+00
  -7.316779e+01   8.154830e-01
  -6.435040e+01  -1.870808e+01
  -9.886459e+01   3.709735e+01
  -9.608568e+01  -3.202118e+01
  -4.695529e+01  -1.548566e+02
   2.189566e+01  -1.163955e+02
   4.877782e+01  -9.066085e+01
   6.756526e+01   4.144232e+01
   1.420882e+01   7.378257e+01
  -7.298272e+00   1.046103e+02
  -5.553753e+01  -8.374982e+00
  -3.483501e+01  -7.448162e+01
   8.903834e+01   2.690976e+01
   6.371223e+01  -4.110507e+01
   1.403315e+01  -8.526965e-01
  -8.334042e+01  -4.001645e+00
  -6.483848e-01  -6.928569e+01
   9.346386e+01  -6.945225e+01
   1.221862e+02   3.021091e+01
   6.480081e+01   2.705759e+01
   2.717972e+01   1.874502e+01
  -9.043236e+01   1.992285e+01
  -7.106335e+01  -4.748112e-02
  -2.633154e+01  -4.544478e+01
   5.352733e+01  -2.150430e+01
   6.557488e+01   3.504597e+01
   4.060716e+01   8.104447e+01
  -2.252229e+01   3.493094e+01
  -4.407960e+01  -4.097208e+01
  -8.146394e+01   1.688966e+01
   1.388254e+01  -4.623945e+01
  -6.714222e+01  -2.169340e+01
   1.118425e+01  -2.640415e+01
  -1.569059e+01  -5.100293e+01
  -2.884307e+01  -1.033206e+02
   1.873253e+01  -5.012892e+01
   9.778327e+01  -3.154982e+01
   3.404135e+01   4.595241e+01
   2.720474e+01   9.111283e+01
  -1.107447e+02   7.618016e+01
  -4.254900e+01  -3.984216e+01
   7.067206e+01   2.842174e+01
   2.978832e+01  -1.814083e+01
  -4.904149e+00  -6.929668e+00
  -2.991453e+01   1.307905e+02
  -7.702453e+01  -8.187840e+00
  -9.845315e+01   6.245502e+00
   9.110280e+00  -3.281230e+01
   4.407564e+01  -7.173315e+01
   7.520296e+01  -1.240743e+01
  -1.959512e+01  -8.314576e+00
   8.904790e-02  -3.692366e+00
   9.295336e-01  -1.079998e+02
   5.523183e+01  -3.421228e+01
   1.022578e+02  -9.022196e+00
   8.414980e+01   6.279653e+01
   4.370528e+01   9.673114e+01
  -3.878252e+01   7.983883e+01
  -5.735247e+01  -2.570619e+01
   1.725394e+01  -4.531889e+01
  -4.945437e+01  -3.947092e+01
   6.183713e+01   1.913608e+01
   8.516523e+01   7.491009e+01
  -3.041797e+01   2.506933e+01
   1.168791e+01   4.241541e+01
  -1.477545e+01  -2.990475e+01
   4.552431e+01  -1.995612e+01
   4.594021e+01   6.314611e+01
  -1.657679e+01  -1.785741e+01
  -4.812764e+01   1.140812e+00
  -6.848125e+01  -4.419716e+01
  -9.599620e+00   4.299897e+00
   5.484885e+01  -3.376565e+01
   3.602230e+01  -3.811277e+01
  -1.043289e+01   4.717486e+01
   3.594457e+00  -8.445167e+00
   2.246131e+01   3.945142e+01
  -3.927999e+01   7.539529e+00
  -2.991989e+01  -8.409204e+00
  -2.665223e+01   5.800107e+01
  -4.437648e+01   4.782467e+01
  -7.475613e+01  -1.651374e+01
   4.109090e+01  -1.133988e+02
   6.861833e+01   2.610510e+01
   4.921773e+01   2.378745e-01
  -1.974050e+00   1.300286e+02
  -4.522424e+01   6.476423e+01
  -8.456817e+01  -9.775982e+00
  -3.168848e+01  -8.079161e+01
  -3.608374e+01  -5.227300e+01
  -7.768857e+00  -2.555352e+01
  -1.584421e+01  -2.566675e+01
  -6.368479e+01  -7.330663e+00
   6.182378e+00  -5.753257e+01
   1.742201e+01  -3.814497e+01
   6.100639e+01  -9.532153e+00
   6.331633e+01  -2.927288e+01
   4.289957e+00   9.085444e+01
  -7.331187e+01   1.439661e+01
   2.626744e+01  -5.245080e+01
  -1.801610e+01  -5.927140e+01
   4.536334e+01  -6.477022e+01
   5.616237e+01   3.451364e+01
  -2.493497e+00   3.309353e+01
   7.209279e+00   6.218539e+01
  -6.089817e+01   1.638954e+00
   3.897260e+01  -2.088919e+01
  -1.287905e+01  -1.256605e+01
  -5.262047e+01   8.738231e+00
   6.263422e+00   4.056637e+01
  -5.713631e+01   4.377538e+00
  -5.128091e+01  -2.462207e+01
   6.890144e+01  -7.280457e+01
  -7.356286e+00  -2.927506e+01
   3.741666e+01  -2.182964e+01
  -3.912271e+00   3.272788e+01
   1.301261e+01   4.563065e+01
  -1.471208e+01   3.162301e+01
   2.120182e+01  -8.207461e+01
   1.579466e+01  -2.188525e+01
   3.920168e+01   3.669116e+01
   2.311029e+01   3.744599e+01
  -1.442346e+01   3.337323e+01
   3.331252e+01   1.061449e+00
  -7.859850e-01   7.221101e+00
   6.151038e+01  -7.220285e+00
   1.425041e+01   5.445685e+01
  -2.465705e+00   5.839377e+01
  -3.619691e+01   2.977756e+01
   2.733372e+00  -2.930294e+01
   4.296439e+01   4.904400e+01
   4.888548e+01  -5.154669e+01
  -3.118363e+01   5.001885e+00
  -4.614715e+01   2.154128e+01
  -5.301203e+01  -5.449235e+00
   1.746120e+01  -6.589513e+01
   5.469630e+01   4.255732e+01
  -3.750774e+01   3.530772e+01
  -2.398857e+01  -2.696980e+01
   2.535920e+00  -2.297406e+00
  -6.566934e+01  -1.356819e+01
   1.178611e+01  -2.799350e+01
   6.073376e+01  -7.184779e+00
