
 $NMID
 id='ANONYMOUS ', fmtdat='(2E16.6)'
 volume=1.0
 tramp=1.0
 $END
  -3.217424e+03   1.770739e+02
  -2.227589e+03  -1.510566e+03
  -8.844971e+01  -2.030787e+03
   1.199208e+03  -1.381096e+03
   9.578480e+02  -2.511738e+02
   5.131065e+01   2.353003e+02
  -3.829217e+02  -1.162479e+02
  -1.040019e+02  -5.090122e+02
   4.266622e+02  -5.355997e+02
   6.204841e+02  -9.110361e+01
   4.751525e+02   4.908629e+02
  -2.444401e+01   6.801001e+02
  -2.805817e+02   2.217587e+02
  -2.785814e+02  -4.183301e+02
   6.429656e+01  -5.371628e+02
   4.223561e+02  -1.095363e+02
   3.099570e+02   4.617621e+02
  -6.006427e+01   6.443227e+02
  -4.675740e+02   2.884782e+02
  -4.349488e+02  -1.862390e+02
  -1.150480e+02  -3.810043e+02
   1.006607e+02  -2.033064e+02
   5.162317e+01  -1.186145e+02
  -1.494171e+02  -9.853689e+01
  -2.442747e+02  -2.718205e+02
  -1.772432e+00  -3.406908e+02
   4.861411e+02  -1.264638e+02
   5.971556e+02   1.860927e+02
   2.586097e+02   3.363048e+02
  -3.162740e+02   2.291162e+02
  -5.470801e+02  -8.618813e+01
  -2.184521e+02  -3.647490e+02
   2.209467e+02  -3.811974e+02
   5.021072e+02  -1.560285e+02
   3.598959e+02   2.010197e+02
   9.784933e+01   3.468582e+02
  -1.101197e+01   2.164049e+02
  -2.944094e+01  -7.325592e+01
   1.663199e+02  -1.086807e+02
   1.788937e+02   1.232050e+02
   4.196537e+01   4.856996e+02
  -2.470882e+02   4.472732e+02
  -2.975841e+02   7.876355e+00
  -1.812596e+02  -2.575861e+02
   1.517746e+02  -1.764664e+02
   2.084448e+02   2.245134e+02
  -6.689182e+01   3.715309e+02
  -4.718942e+02   1.637210e+02
  -4.753697e+02  -2.956532e+02
  -2.063250e+02  -4.855032e+02
   3.073307e+02  -3.097390e+02
   5.329849e+02   2.526708e+00
   3.752571e+02   2.383489e+02
  -2.123850e+01   2.905716e+02
  -2.536297e+02   4.314014e+01
  -2.769506e+02  -1.491809e+01
  -5.142172e+01  -3.149878e+01
   1.381612e+02   1.474887e+01
  -8.864258e+01   7.532733e+01
  -1.768847e+02  -7.911403e+01
  -1.385278e+02  -1.946582e+02
   1.531296e+02  -2.632810e+02
   3.418258e+02  -1.316838e+02
   3.088580e+02   8.611412e+01
   4.091725e+01   2.989079e+02
  -2.580094e+02   3.504640e+02
  -3.463118e+02   1.549501e+02
  -2.256998e+02  -1.073330e+02
  -1.046578e+02  -3.497644e+02
  -2.050612e+01  -3.422627e+02
   6.650781e+01  -2.231833e+02
   2.816133e+01  -1.114571e+02
   7.933385e+01  -1.305122e+02
   2.644634e+02  -4.000000e+01
   2.327235e+02   1.354413e+02
   1.174731e+02   2.345189e+02
  -6.779436e+01   1.925994e+02
  -1.936789e+02  -5.144403e+01
  -1.254507e+02  -2.618848e+02
   1.094668e+01  -2.858444e+02
   2.493342e+02  -1.140065e+02
   2.902226e+02   1.659964e+02
   1.899891e+02   2.611234e+02
  -7.938584e+01   2.666011e+02
  -1.830096e+02   1.751402e+02
  -1.263173e+02   1.283056e+02
  -1.932074e+02   4.022407e+01
  -2.586199e+02   1.550759e+01
  -4.919753e+02  -9.752110e+01
  -2.838855e+02  -2.831302e+02
  -1.548400e+01  -4.855364e+02
   3.734588e+02  -3.778687e+02
   5.025283e+02  -1.773874e+02
   3.126809e+02   1.023860e+02
   2.788017e+01   2.275193e+02
  -4.134607e+01   2.174842e+02
  -2.957649e+00   1.751115e+01
   1.351460e+02   7.135331e-01
   1.008011e+02   3.776477e+01
  -5.053175e+01   1.627122e+02
  -8.641367e+01   1.508879e+02
  -1.195121e+02  -3.826080e+01
   1.569639e+01  -5.444559e+01
   1.512848e+02   2.153544e-01
   1.430315e+02   2.100942e+02
  -6.444801e+01   3.420249e+02
  -2.000990e+02   2.518764e+02
  -4.100061e+02   2.093118e+01
  -3.019082e+02  -3.065393e+02
  -3.241677e+01  -2.745164e+02
   9.679671e+01  -1.697566e+02
   1.021010e+02  -3.978084e+01
   8.168043e+01  -4.435080e+01
  -8.959782e+00  -7.530224e+01
   2.047369e+01  -1.299368e+02
   1.430437e+02  -3.407922e+01
   1.712222e+02   6.548371e+00
   3.569011e+00   7.105437e+01
  -4.459598e+01   4.384591e+01
  -3.533251e+01  -9.780130e+01
   1.025266e+02  -1.156538e+02
   3.180989e+02   1.621506e+00
   2.645528e+02   1.822858e+02
  -2.333030e+01   2.799555e+02
  -2.481233e+02   2.112626e+02
  -2.432895e+02   7.970933e+01
  -1.303776e+02  -3.952533e+01
   2.093169e+01  -9.115126e+01
   8.135160e+01  -1.378209e+01
  -1.167259e+01   8.064192e+01
  -1.788152e+02   3.735915e+01
  -2.191287e+02  -1.650464e+02
  -4.653763e+01  -2.155691e+02
   9.042900e+01  -1.405383e+02
   1.781160e+02  -1.870849e+01
   6.675875e+01   5.422920e+01
  -5.871634e+01  -1.035711e+01
  -4.692614e+01  -1.289852e+02
   7.508708e+01  -1.259131e+02
   1.736056e+02  -1.155833e+01
   1.906672e+02   1.283898e+02
   1.072937e+01   2.021677e+02
  -1.884571e+02   1.916849e+02
  -1.547546e+02   8.792835e+01
  -3.312759e+01  -6.045412e+01
   9.312473e+01  -5.970564e+01
   7.288901e+01  -5.807667e+01
   4.518479e+01   9.441411e+00
  -4.085124e+01  -5.972787e+01
   6.093484e+01  -1.492882e+01
   8.031814e+01  -2.149850e+01
   7.680037e+01   1.151061e+02
  -1.126575e+01   1.643360e+02
  -1.595678e+02   1.020931e+02
  -2.232141e+02   4.476705e+01
  -2.357399e+02  -1.177805e+02
  -3.597220e+01  -2.244275e+02
   3.082301e+01  -1.396019e+02
   1.906874e+02  -3.480071e+01
   6.243897e+01  -6.592649e+00
   7.622630e+01   4.369041e+01
   3.954983e+01   7.292817e+00
   1.379667e+02   1.605237e+01
   5.314769e+01   1.064852e+02
  -5.938378e+01   1.024762e+02
  -1.521030e+02   7.372721e+01
  -1.268170e+02  -5.460780e+01
   5.603471e+01  -1.796241e+02
   1.562471e+02  -1.085284e+02
   1.706477e+02   6.342496e+01
   1.133057e+02   2.341473e+02
  -1.280746e+02   2.791265e+02
  -2.898669e+02   5.671390e+01
  -2.421299e+02  -1.188767e+02
  -6.555478e+01  -1.485569e+02
   8.434954e+01  -9.043340e+01
   1.422396e+02  -1.340835e+02
   4.777313e+01  -8.953564e+01
   8.444824e+01  -6.930561e+01
   7.632148e+01  -7.384438e+01
   1.250266e+02   1.699472e+01
   1.236542e+02   1.627396e+02
   3.119631e+01   1.768819e+02
  -9.292974e+01   1.505309e+02
  -1.784320e+02   2.136996e+01
  -7.716420e+01  -9.308379e+01
  -1.063165e+02  -1.379639e+02
   2.988855e+01  -5.685739e+01
   7.958746e+01   1.214758e+01
   5.816435e+01   9.811477e+01
  -4.706693e+01   5.772238e+01
  -1.828382e+01   9.173369e+00
   8.107897e+01  -1.491736e+01
   6.115958e+01   4.383812e+01
  -2.243624e+01   1.394632e+01
  -1.715322e+02   4.961487e+00
  -1.608248e+02  -4.371831e+01
  -1.476467e+00  -1.081010e+02
   1.477517e+02  -7.048534e+01
   1.571987e+02  -1.996387e+01
  -8.193158e+00   2.960747e+01
  -8.104031e+01   4.708413e+01
  -6.838714e+01   8.028243e+00
  -8.449628e+01  -3.731649e+01
   4.324324e+01  -5.245694e+01
   8.004713e+01   4.990891e+01
   4.394690e+01   2.862312e+01
   1.686739e+01   6.321242e+01
   2.962456e+01  -4.819163e+01
   4.198211e+01  -3.039520e+00
   9.348041e+01   7.727668e+01
  -4.993519e+01   1.855472e+02
  -1.594919e+02   1.370773e+02
  -1.977081e+02   2.135683e+01
  -1.075520e+02  -1.114509e+02
  -6.582739e+01  -9.690313e+01
   1.102303e+02  -6.475882e+01
   9.308025e+01  -1.345614e+01
  -4.754533e+01   4.710787e+01
  -1.241971e+02   2.280309e+01
  -5.725750e+01  -8.278486e+01
   7.272683e+01  -1.023107e+02
   1.948456e+02  -7.654264e+01
   1.221320e+02   3.940949e+01
  -1.055728e+01   8.636228e+01
  -2.366545e+01   6.078325e+01
  -7.559750e+01  -3.288194e+01
   4.301161e+01  -2.628429e+01
   6.384861e+01   4.487680e+01
   4.352423e+01   1.112789e+02
  -6.252888e+01   1.716240e+02
  -1.803770e+02   1.142187e+02
  -1.208159e+02  -7.795951e+01
  -2.839222e+01  -2.157474e+02
   8.175334e+01  -1.172124e+02
   1.131296e+02  -1.318160e+01
   7.513824e+01   1.398332e+02
  -1.323110e+01   1.172042e+02
  -3.966687e+01   8.995371e-01
  -4.697031e+01  -1.526876e+01
  -4.267973e+01   2.311480e+01
  -1.779802e+01   1.220361e+01
   5.368137e+00  -1.625652e+01
  -8.504457e+01  -9.211327e+01
  -4.136227e+01  -1.035600e+02
   4.863119e+01  -8.980568e+01
   8.086178e+01   7.594943e+01
   7.511296e+01   1.571940e+02
   2.501482e+01   8.254314e+01
  -1.001000e+02   5.804634e+01
  -8.343625e+01   6.314098e+01
  -3.266717e+01   6.685647e+00
  -3.698364e+00  -2.801063e+01
   3.226328e+01   5.246610e+00
  -7.133166e-01   3.597177e+01
   2.024368e+01   5.166069e+01
   2.537411e+01   4.620060e+00
   1.308357e+02   1.754374e+01
  -5.295651e+00   7.331870e+01
  -3.261755e+01   1.247407e+02
  -2.326074e+02   2.712063e+01
  -1.433524e+02  -4.824073e+01
  -3.765374e+01  -1.588297e+02
   1.930425e+01  -1.258158e+02
   1.588088e+02  -8.921689e+01
   5.376027e+01   1.539924e+01
   2.134606e+01   7.243456e+01
   3.962466e+01  -4.373732e+00
   1.726204e+01  -2.961037e+01
  -2.668209e+01   3.239679e+01
   4.852509e+00   1.044282e+02
   1.467595e+01   7.089737e+01
  -6.144100e+01  -4.564202e+00
  -5.200249e+01  -9.198482e+01
  -8.812975e+01  -1.431738e+02
   3.896079e+01  -7.177432e+01
   8.315089e+01   5.119748e+01
   1.546874e+01   8.839685e+01
  -6.442420e+01   2.432692e+01
  -1.048717e+02  -3.979449e+00
  -1.030886e+02  -5.768195e+01
   1.525937e+01  -5.245933e+01
   7.272819e+00   6.598641e+00
  -5.632754e+00   1.374740e+01
  -6.162044e+01   1.823800e+01
   5.275289e+01  -2.390177e-02
   8.340649e+01  -1.217817e+02
   6.167975e+01  -4.139720e+00
   5.991856e+01   3.437187e+01
  -5.215437e+00   4.314555e+01
  -6.388639e+01   1.251553e+02
  -1.008344e+01   6.042451e+01
  -2.215600e+01  -9.988999e+01
   1.301757e+01  -6.903266e+01
   1.807360e+01   1.169487e+01
   4.512313e+01   8.038823e+01
   1.642126e+01   7.049349e+01
   2.137495e+01   1.047666e+01
  -2.746192e+01   5.929076e+01
  -1.353807e+01   2.830449e+01
  -4.646988e+01   4.034807e+01
  -7.265375e+00  -3.174721e+01
  -3.815442e+01  -6.717610e+01
  -2.585351e+01  -7.946266e+01
   1.051292e+01  -7.859184e+00
   6.591423e+01  -2.325914e+01
   1.888453e+01   3.874561e+01
  -4.655092e+01   5.241504e+01
  -4.069049e+01  -3.403004e+01
  -2.203704e+01  -1.045207e+02
   2.711985e+01  -2.156696e+01
   8.235589e+01  -2.407488e+01
   4.773191e+01   4.574804e+01
  -9.378789e+00   7.297304e+00
  -9.226662e+01   4.041885e+01
  -6.500139e+01   9.078404e+00
   9.627816e+00   8.460596e+01
   1.278672e+01  -2.097367e+01
  -1.513321e+00   3.577434e+01
  -5.618269e+01   3.443404e+01
