
 $NMID
 id='ANONYMOUS ', fmtdat='(2E16.6)'
 volume=1.0
 tramp=1.0
 $END
  -1.964575e+03   7.061695e+01
  -1.331776e+03  -9.288113e+02
  -8.224053e+01  -1.215412e+03
   7.792966e+02  -7.704044e+02
   5.288497e+02  -1.083813e+02
   3.928878e+01   1.316098e+02
  -2.181938e+02   1.437244e+01
  -2.235986e+01  -3.278130e+02
   2.688547e+02  -3.301327e+02
   4.004964e+02  -1.140288e+02
   2.562073e+02   3.334936e+02
   4.363762e+01   3.898695e+02
  -2.400804e+02   1.143788e+02
  -8.367285e+01  -2.626033e+02
   3.804932e+01  -3.188987e+02
   2.198966e+02  -4.383929e+01
   2.306657e+02   2.729141e+02
  -4.531728e+01   3.848170e+02
  -2.815086e+02   1.547619e+02
  -2.295657e+02  -1.273543e+02
  -2.043126e+01  -2.059717e+02
   6.308130e+01  -1.764453e+02
   1.647738e+01  -5.674058e+01
  -1.077862e+02  -8.459835e+01
  -1.592213e+02  -1.339648e+02
  -5.365613e+00  -1.577198e+02
   2.840767e+02  -1.184790e+02
   3.421902e+02   8.841373e+01
   2.151823e+02   1.750343e+02
  -1.814273e+02   1.057289e+02
  -2.863063e+02  -9.091910e+01
  -1.120829e+02  -2.324099e+02
   1.580319e+02  -2.464594e+02
   2.789505e+02  -5.503435e+01
   1.716027e+02   1.004643e+02
   1.540885e+01   1.561487e+02
  -5.027992e+01   1.372376e+02
   2.788803e+01  -6.589628e+01
   7.023796e+01  -1.118282e+02
   1.326495e+02   8.342299e+01
   4.695617e+01   2.358133e+02
  -1.144056e+02   2.571452e+02
  -2.316910e+02  -1.807141e+01
  -1.157493e+02  -1.696049e+02
   6.822516e+01  -1.488733e+02
   1.035251e+02   1.918081e+02
  -4.639056e+01   1.922713e+02
  -2.160267e+02   1.663335e+01
  -2.648460e+02  -1.863667e+02
  -8.521381e+01  -2.360831e+02
   1.149679e+02  -1.629054e+02
   2.987628e+02   1.894267e+01
   1.745284e+02   1.186881e+02
   2.891232e+01   1.420315e+02
  -1.752004e+02   6.115157e+01
  -1.648760e+02  -2.982541e+01
  -1.537526e+01  -1.688613e+01
   2.220230e+01  -2.385604e+01
  -2.894103e+01   5.391586e+01
  -1.422615e+02  -4.566993e+01
  -7.558665e+01  -1.053204e+02
   6.788532e+01  -1.183608e+02
   2.147526e+02  -9.967003e+01
   1.802486e+02   1.848699e+01
   2.348139e+01   1.932758e+02
  -1.410349e+02   2.524300e+02
  -1.778262e+02   1.054573e+02
  -1.758438e+02  -1.270277e+02
  -2.407903e+00  -2.146026e+02
   2.190140e+01  -2.088737e+02
   7.413651e+01  -8.762729e+01
  -3.231325e+01  -1.240672e+02
   6.926885e+01  -1.202216e+02
   1.203700e+02  -1.037176e+01
   1.718988e+02   1.065153e+02
   1.903037e+01   1.094711e+02
  -6.775431e+01   4.802363e+01
  -1.321514e+02  -3.276640e+01
  -6.882467e+01  -8.928090e+01
  -2.265583e+01  -1.690846e+02
   8.776224e+01   1.793469e+01
   1.820882e+02   1.339085e+02
   1.191228e+02   1.758717e+02
  -3.371382e+01   1.218926e+02
  -1.834672e+02   1.029281e+02
  -8.426908e+01   3.053718e+01
  -6.874832e+01   8.202189e+01
  -1.322098e+02   5.879982e+00
  -2.106628e+02  -5.999194e+01
  -1.762783e+02  -1.672762e+02
  -2.157607e+01  -2.478590e+02
   2.294228e+02  -2.187337e+02
   2.610714e+02  -5.826254e+01
   1.336880e+02   1.499354e+01
  -1.135894e+01   1.187304e+02
  -7.623696e+01   1.908827e+02
   1.967564e+01  -4.902179e+00
   7.789553e+01   2.258076e+01
   5.241006e+01   3.754241e+01
   1.281032e+01   6.493484e+01
  -5.263712e+01   7.784317e+01
  -6.324628e+01  -1.255803e+01
   5.531062e+01  -6.406946e+01
   9.474019e+01  -2.252116e+01
   6.902692e+01   1.209690e+02
   1.569992e+01   2.242185e+02
  -1.613783e+02   1.018995e+02
  -1.851038e+02  -7.582256e+01
  -1.965079e+02  -1.325575e+02
  -8.285254e+00  -1.495490e+02
   4.638738e+01  -9.664397e+01
   4.496972e+01   2.600957e+00
   8.205386e+00   1.811410e+01
  -2.373785e+01  -4.846977e+01
  -1.638774e+01  -3.769627e+01
   5.810680e+01  -6.049160e+01
   1.127813e+02  -4.846883e+01
  -1.453410e+00   8.934230e+00
  -2.665753e+01   2.692569e+01
   7.146303e+00  -2.915325e+01
   4.066267e+01  -9.609160e+01
   1.489184e+02   7.457272e+01
   9.214250e+01   1.036884e+02
  -3.392564e+01   1.358007e+02
  -1.235434e+02   1.859904e+02
  -1.520377e+02   2.317063e+01
  -9.634808e+01  -2.549472e+01
  -8.469511e+00  -9.649412e+00
   1.806717e+00   2.340526e+01
  -1.424786e+01   8.351517e+01
  -1.682377e+02   6.048990e+01
  -7.498933e+01  -8.279975e+01
  -5.342874e+01  -1.118381e+02
   1.197869e+01  -9.031253e+01
   6.011036e+01  -3.657040e+01
   4.447557e+01   2.542353e+01
  -1.866868e+01   3.978952e+01
  -3.641013e+01  -6.768469e+01
   1.143946e+02  -2.300319e+01
   9.194953e+01   2.400418e+01
   8.104629e+01   4.399589e+01
   3.433017e+01   1.106464e+02
  -1.260640e+02   9.021251e+01
  -1.104262e+02  -1.242989e+01
  -3.539453e+01  -3.544030e+01
   6.784617e+01  -8.744365e+01
   3.002867e+01  -2.494142e+01
  -5.242797e+01  -1.027939e+01
  -7.487576e+01  -1.177489e+01
   3.044668e+00   5.392933e+01
   6.095624e+01   8.331506e+01
   7.487362e+01   5.058154e+01
  -1.730571e+01   1.162887e+02
  -1.009025e+02   7.307888e+01
  -1.087526e+02   5.367029e+01
  -8.355040e+01  -8.710678e+01
  -4.481403e+01  -1.381513e+02
   4.921471e+01  -5.757921e+01
   8.603685e+01  -6.426777e+01
   5.395222e+01  -2.459652e+01
   4.057048e+01   6.090406e+01
   1.780407e+01   3.735916e+00
   7.853076e+00  -7.527709e+01
   3.443913e+01   6.782834e+01
  -1.538133e+01   1.030346e+02
  -6.255464e+01   3.253277e+01
  -3.197386e+01   7.867719e+00
   2.711618e+01  -8.711959e+01
   9.969359e+01  -9.342682e+01
   1.016699e+02   8.672664e+00
   4.399276e+01   1.228112e+02
  -1.015390e+01   1.601429e+02
  -1.366088e+02   5.154265e+01
  -1.228392e+02   8.965243e+00
  -3.164704e+01  -4.727068e+01
   2.226725e+01  -4.339225e+01
   4.727302e+01  -3.960234e+01
   8.780116e+01  -8.133090e+01
   7.565318e+01  -5.461208e+01
   2.081622e+01  -2.760447e+01
   1.308113e+02   5.334065e+00
   4.826041e+01   1.301851e+02
   2.903176e+01   1.469403e+02
  -2.269964e+01   1.083848e+02
  -1.149570e+02  -4.584497e+01
  -5.572729e+01  -8.549195e+01
  -4.700871e+01  -1.027233e+02
   5.263504e+01  -4.506592e+01
  -1.636635e+01  -5.320874e-01
   1.317183e+01   4.851035e+01
  -9.106149e+01   3.763223e+01
  -7.735440e+00  -1.665318e+01
   2.903168e+01  -1.073334e+01
   3.972052e+01   4.068283e+01
  -1.166195e+01  -1.760105e+01
  -1.495349e+02  -1.638549e+01
  -8.820999e+01  -1.058852e+01
  -5.998918e+01  -7.593345e+01
   5.437659e+01  -6.403321e+01
   5.836188e+01   2.537267e+01
   7.635218e+00   5.986707e+01
  -1.049712e+02  -6.873677e+00
  -2.937957e+01   2.884850e+01
   1.974525e+01  -6.636011e+01
   2.807743e+01  -3.031729e+01
   6.867901e+00   5.082776e+01
   4.328739e+01  -4.179223e+00
  -2.229827e+01   4.251162e+01
   9.782795e+01  -4.803679e+01
   7.479076e+01  -5.519038e+01
   1.023452e+02  -3.179336e+01
  -1.349353e+01   1.131764e+02
  -9.521410e+01   1.312698e+02
  -1.204878e+02   1.962982e+01
  -6.089044e+01  -9.808301e+01
   3.910275e-01  -3.777556e+01
   7.123283e+01  -4.829514e+01
  -1.523008e+01   3.109416e+01
  -1.755898e+01  -2.983232e+01
  -1.302143e+02   2.598570e+01
  -3.086043e+01  -5.502250e-01
   5.753678e+01  -1.682143e+01
   1.211739e+02  -4.846341e+01
   5.741708e+01   3.607457e+01
   1.125521e+02   8.718234e+01
  -1.722278e+01   4.427887e+01
  -5.616718e+01   1.041004e+01
   2.375430e+01  -4.156030e+01
   2.440883e+01   5.999538e+01
   1.215958e+00   2.770536e+01
  -5.724922e+01   8.878172e+01
  -1.133594e+02  -8.520190e+00
  -1.102080e+02  -1.155955e+02
  -2.073230e+01  -9.935207e+01
   7.143380e+01  -1.126633e+02
   4.915783e+01   2.770965e+01
   6.295349e+01   2.420963e+01
  -6.766919e-01   5.255051e+01
  -6.153925e+01  -2.733606e+01
   3.723295e+01  -3.321055e+01
   1.718760e+01  -1.277308e+01
   2.528825e+01   4.519529e+01
  -2.880556e+01  -3.516160e+01
  -1.897765e+01  -5.931991e+01
  -2.909451e+01  -4.305094e+01
   1.948689e+00  -4.720354e+01
   1.061971e+02   3.542702e+01
   7.238565e+01   4.734883e+01
  -1.566552e+01   1.470713e+01
  -2.095369e+01   7.613629e+01
  -6.376951e+01   6.424576e+01
  -2.916321e+01   2.913488e+01
   7.347728e+01  -2.838246e+01
   1.354269e+01   2.135709e+01
   3.450302e+01  -2.371492e+01
   4.417171e+01   2.689117e+01
   1.435337e+01   1.128488e+01
  -5.686647e+00   2.464518e+01
  -3.791270e+01   1.040426e+02
  -1.031363e+02   8.251233e+01
  -1.045407e+02   5.560546e+01
  -9.666613e+01  -6.060285e+01
   9.292091e+00  -2.343555e+01
   4.023463e+01  -6.762968e+01
   1.024890e+02  -4.598927e+01
   1.022364e+02   2.307814e+01
  -9.464584e+00   6.068367e+01
   2.731157e+01  -2.266317e+00
   6.140532e+01   1.261466e+00
   6.720493e-01   3.394582e+01
   3.855782e+01   7.269729e+01
   1.295431e+01   3.333642e-01
  -8.844926e+01  -3.670528e-01
  -3.201603e+01  -7.239323e+01
  -3.714879e+01  -5.804701e+01
   8.023997e+01   2.138609e+01
   6.265095e+01   6.042843e+01
  -2.295804e+01   8.506678e+01
  -6.236236e+01   4.648218e+01
  -5.627273e+01  -1.430624e+00
  -7.421024e+00   8.051444e-01
   7.792203e+00  -4.562431e+01
   7.548247e+01  -1.510282e+01
   2.756711e+01  -1.319158e+01
  -1.374885e+01  -8.445507e+00
   4.535216e+01   4.468024e+01
   3.621272e+01  -4.106293e+01
   7.430317e+01   1.229199e+00
   1.936044e+01  -2.163600e+01
   2.034084e+00   9.438911e+01
  -2.623274e+01   1.633016e+01
  -3.448923e+01   4.066353e+01
  -6.542544e+01  -3.356492e+01
   7.402355e+01  -3.053372e+01
  -2.106967e+01   3.286028e+01
   1.331645e+01   6.672157e+01
  -9.337388e+01   3.410529e+01
  -4.911742e+01   8.863536e+00
  -2.641634e+01   2.608684e+01
   2.558476e+01  -3.692361e+00
  -1.534723e+00   6.506711e+01
  -2.109361e+01  -5.141722e+01
   4.587596e+01  -3.143994e+01
   1.553181e+01  -5.286125e+01
   2.111962e+00  -2.817401e+01
   4.327054e+01   4.975368e+01
  -6.827497e+01   1.243624e+02
  -1.366261e+01   6.714560e+01
  -1.167199e+01  -5.576804e+01
  -4.112249e+01  -7.138563e+01
   7.829003e+01  -4.897079e+01
  -9.561315e+00  -4.445321e+01
   8.604849e+01   5.564942e+00
  -3.047878e+01   2.699941e+01
  -2.588090e+01   1.842717e+01
  -2.222313e+00  -1.837770e+01
   6.291312e+01  -8.356503e+00
  -3.459589e+01  -4.901915e+00
   2.196425e+00   3.674975e+01
  -9.474856e+01  -4.402805e+01
