
 $NMID
 id='ANONYMOUS ', fmtdat='(2E16.6)'
 volume=1.0
 tramp=1.0
 $END
  -2.002338e+03  -7.151872e+01
  -1.197147e+03  -1.118056e+03
   1.599377e+02  -1.194024e+03
   8.810077e+02  -5.446968e+02
   4.746851e+02   1.090513e+01
  -9.980409e+01   1.247214e+02
  -2.215732e+02  -1.481206e+02
  -2.264830e+00  -4.336718e+02
   3.865681e+02  -3.329546e+02
   4.056022e+02  -1.097143e+01
   1.915172e+02   3.596782e+02
  -7.237612e+01   4.148422e+02
  -2.344991e+02   8.364020e+01
  -1.457699e+02  -2.554072e+02
   8.749637e+01  -3.062623e+02
   3.200789e+02  -3.162067e+01
   1.791121e+02   3.224670e+02
  -1.319272e+02   3.650959e+02
  -2.300199e+02   6.748588e+01
  -2.398534e+02  -1.483631e+02
   2.158487e+01  -2.087260e+02
   1.005813e+02  -1.829587e+02
   1.893500e+01  -4.287856e+01
  -9.050925e+01  -5.190387e+01
  -1.763560e+02  -1.835428e+02
  -1.245662e+01  -1.956363e+02
   2.730227e+02  -1.684735e+02
   3.664613e+02   8.810523e+01
   1.157406e+02   2.269295e+02
  -2.043665e+02   1.881611e+02
  -3.424524e+02  -4.644351e+01
  -9.666063e+01  -2.820579e+02
   1.389382e+02  -2.742446e+02
   2.751906e+02  -5.086583e+01
   1.605652e+02   1.024737e+02
   9.761315e+01   2.096009e+02
  -9.248503e+00   7.575996e+01
   6.056039e+00  -9.202375e+01
   1.175500e+02  -1.335791e+02
   2.170121e+02   1.058991e+01
   4.444057e+01   3.403772e+02
  -1.547405e+02   2.698193e+02
  -2.010392e+02  -4.481612e+01
  -7.959260e+01  -2.243206e+02
   1.612685e+02  -1.568822e+02
   1.353653e+02   1.703705e+02
  -5.003797e+01   2.638425e+02
  -2.659373e+02   2.209777e+01
  -2.773427e+02  -1.782107e+02
  -8.686089e+01  -2.510788e+02
   1.806510e+02  -1.278661e+02
   3.344073e+02   4.887177e+01
   1.889002e+02   1.508780e+02
  -7.209957e+01   1.562782e+02
  -1.580069e+02   1.335304e+01
  -1.326111e+02  -5.510781e+01
   6.044503e+01  -1.306964e+01
   2.310074e+01   4.072755e+01
  -1.171358e+02   2.033054e+01
  -1.663641e+02  -1.143116e+01
  -7.282727e+01  -7.093068e+01
   1.025129e+02  -1.178999e+02
   1.725554e+02  -4.465765e+01
   1.527498e+02   5.155230e+00
  -3.516840e+01   2.640592e+02
  -1.526266e+02   1.942784e+02
  -1.999823e+02   8.389155e+01
  -1.447637e+02  -6.944182e+01
   3.192388e+01  -2.591977e+02
   8.309566e+01  -2.226627e+02
  -7.463448e+00  -9.146938e+01
  -1.563118e+01  -4.018233e+01
   2.525478e+01  -7.138282e+01
   1.577299e+02  -7.760235e+01
   1.113605e+02   8.543151e+00
   1.070714e+01   1.450048e+02
  -1.947148e+00   8.144906e+01
  -8.576118e+01   3.517715e+00
  -9.564668e+01  -1.060383e+02
  -3.306620e+01  -9.713410e+01
   1.367966e+02  -2.013651e+01
   2.122379e+02   9.494535e+01
   1.412009e+02   1.468146e+02
  -6.200856e+01   1.686659e+02
  -6.004074e+01   9.555637e+01
  -6.665930e+01   1.218407e+01
  -5.359121e+01   3.080711e+01
  -1.289452e+02   7.384579e+01
  -2.254582e+02  -2.854495e+01
  -1.737926e+02  -1.706554e+02
   6.710837e+01  -2.697460e+02
   1.747953e+02  -2.049620e+02
   3.258855e+02  -9.552056e+01
   1.539100e+02   6.196422e+01
   1.216771e+01   1.530860e+02
  -1.011531e+02   1.099437e+02
  -7.531791e+00   3.751117e+01
   6.922648e+01  -7.349292e+01
   1.073426e+02   8.544868e+00
  -4.589089e+01   1.270550e+02
  -1.218147e+02   7.227068e+01
  -7.740437e+01  -4.494259e+01
   5.670436e+01  -1.027479e+02
   7.948468e+01  -1.469647e+01
   2.041388e+01   1.221479e+02
  -4.285695e+01   2.036921e+02
  -1.669338e+02   1.643773e+02
  -2.112299e+02  -4.557141e+00
  -1.199186e+02  -1.824248e+02
  -5.404594e+01  -1.319010e+02
   8.795055e+01  -7.137888e+01
   8.189908e+01   2.442547e-01
   4.086835e+01  -1.844313e+01
  -1.491668e+01  -3.702599e+01
   1.329808e+01  -4.306239e+01
   5.840665e+01  -4.471276e+01
   8.305949e+01  -2.402431e+01
  -1.719896e+01   6.017628e+01
  -7.828528e+01   5.256095e+01
   6.998568e+01  -6.138062e+01
   8.848262e+01  -2.368022e+01
   1.049144e+02   2.225021e+00
   1.180052e+02   6.360098e+01
   1.093746e+01   1.683467e+02
  -1.012548e+02   1.018589e+02
  -1.150096e+02   7.820719e+01
  -3.270888e+01  -3.979515e+01
  -3.844470e+00  -7.796836e+01
  -1.756734e+01   3.172307e+01
  -3.493735e+01   3.311229e+01
  -1.125071e+02   3.181493e+01
  -1.360874e+02  -6.215754e+01
  -4.792078e+01  -7.262599e+01
   7.876711e+01  -8.234620e+01
   1.286775e+01   1.164494e+01
  -2.604593e+01   5.711195e+01
  -3.318776e+01   7.073124e-01
  -2.351710e+01  -4.803206e+01
   2.204713e+01  -6.956798e+01
   1.277647e+02  -5.251001e+01
   9.824103e+01   6.112663e+01
  -2.925060e+01   1.401821e+02
  -2.891265e+01   1.074072e+02
  -5.055269e+01   1.301142e+01
  -3.940362e+01  -7.396363e+01
   2.748467e+01  -6.070069e+01
  -3.180075e+00   8.425927e+00
  -1.263705e+01   3.586548e+01
   2.136789e+01  -2.229961e+01
  -1.599487e+00   4.661411e-01
   7.843249e+01  -1.117450e+00
   7.681872e+01   1.791985e+01
   1.681068e+01   1.016784e+02
  -1.230197e+02   5.387615e+01
  -1.063369e+02   3.788333e+01
  -1.249564e+02  -7.603725e+01
  -5.329063e+01  -1.540726e+02
   1.250645e+02  -1.476099e+02
   8.520673e+01  -2.303612e+01
   3.936161e+01   4.656804e+01
  -2.899977e+00   5.725772e+01
   1.391631e+01  -2.431482e+01
   3.101301e+01  -4.654026e+01
   7.172122e+01   4.647533e+01
  -6.528240e+00  -7.558648e+00
  -6.338330e+01   4.601123e+01
  -6.118576e+01  -2.002205e+01
   2.556525e+00  -9.487623e+01
   7.446008e+01  -4.089803e+01
   1.179843e+02   1.193018e+02
   1.044674e+02   1.026429e+02
  -8.722712e+01   1.051576e+02
  -1.703983e+02   1.444281e+01
  -1.842680e+02  -8.341624e+01
  -2.312258e+01  -5.915182e+01
   4.654168e+00  -2.612208e+01
   1.977868e+01  -2.784756e+01
   3.793683e+01  -6.379066e+01
   6.186939e+01   1.105743e+01
   4.118870e+01  -1.741067e+01
   1.483957e+02   4.321700e+01
   4.317044e+01   1.121994e+02
   2.356438e+01   9.523836e+01
  -2.079626e+01   8.697294e+01
  -1.197292e+02   1.245958e+01
  -2.557960e+01  -3.964583e+01
  -2.511001e+01  -8.676488e+01
   4.520392e+01  -1.690637e+01
   6.824925e+01  -5.179061e-01
  -1.214347e+01   6.141458e+01
   4.933933e+01   9.863252e+00
  -1.594766e+01   1.549360e+01
   3.756913e+01  -1.659443e+01
   2.927605e+01  -2.992434e+01
  -2.958513e+01   6.398489e+01
  -5.616431e+01  -1.640774e+00
  -1.088277e+02  -9.879328e+00
  -2.777315e+00  -1.163030e+01
   8.655355e+01  -1.411754e+01
   8.902852e+01  -1.448416e+01
   3.935258e+01  -7.118623e+01
  -1.562415e+01   2.483488e+01
  -3.512868e+01  -2.611309e+01
   6.221354e+01  -5.770365e+01
  -8.604477e+00  -1.361722e+01
   2.582571e+01   2.035612e+00
   3.838731e+00   1.570863e+01
   3.536060e+01   8.967621e+01
   5.476669e+01   1.486462e+00
   3.548547e+00   4.042782e+01
  -9.029861e+00   3.765028e+01
  -4.415962e+00   7.990880e+01
  -6.414276e+01   1.043384e+02
  -1.239447e+02   7.451220e+01
  -7.755135e+01  -8.207082e+01
   1.370152e+01  -5.209620e+01
   7.619455e+01   4.185541e+00
   5.724145e+00  -1.675798e+01
  -6.819310e+01   9.983675e+00
  -7.487563e+01   2.562746e+01
   3.692723e+00  -3.988510e+01
   3.505694e+01  -7.791925e+01
   1.292624e+02   4.283880e+00
   6.948326e+01   1.664679e+01
   2.849221e+01   4.449505e+01
  -5.585837e+01   6.940817e+00
   1.663068e+01   1.774079e+01
   1.583690e+01  -4.036159e+01
   5.238179e+01   5.413701e+01
  -1.769162e+01   8.131838e+01
  -8.583434e+01   1.003450e+02
  -5.592219e+01   1.780421e+01
  -1.728721e+01  -7.717878e+01
   1.367232e+01  -9.379913e+01
   5.476099e+01  -6.449607e+01
   5.920334e+01   4.129796e+01
   3.272377e+01   7.139500e+01
  -4.708851e+01   5.636942e+01
  -6.753956e+01   3.149458e+01
  -1.413948e+01   3.387704e+01
   8.953054e+00  -5.137556e+01
   1.558333e+01   4.642943e+01
   1.962373e+00   2.418195e+01
   3.600384e+00  -9.972095e+01
  -3.295880e+01   2.222197e+01
   3.854519e+01   2.419768e+01
   8.696436e+01   6.908351e+01
   8.126561e+01   4.476261e+01
  -2.818417e+01   1.998929e+01
  -1.118644e+02   3.365292e+01
  -6.735621e+01  -2.125890e+01
   7.378068e+00   5.338822e-01
   3.832796e+01   3.743606e+01
   2.480051e+01  -2.818848e+01
  -5.417470e+01   3.520634e+00
   1.872737e+01   4.555675e+00
  -2.137050e+01   1.649922e+01
   2.488503e+01  -2.867254e+01
   2.690278e+00   7.005548e+01
  -5.805761e+01   9.484966e+01
  -1.221946e+02   5.936215e+01
  -7.397788e+01   2.636343e+01
  -2.765182e+01  -8.897331e+01
  -1.625752e+01  -6.084291e+01
   9.814937e+01  -4.753087e+01
   3.473755e+01   1.877221e+01
   3.666136e+01   4.176137e+01
  -2.231097e+00  -3.672613e+01
  -1.219325e+01  -1.524527e+01
   3.106223e+01  -2.880287e+01
  -4.167384e+01   7.988933e+01
  -5.317816e+01   6.403501e+01
  -6.196471e+01  -2.057335e+01
  -8.242800e+01   1.766864e+01
  -1.813029e+01  -8.326077e+01
   1.121979e+02   1.230260e+01
   1.285884e+02   6.313944e+01
  -6.843224e+00   1.051656e+02
  -3.469113e+01   1.819866e+01
  -7.850060e+01  -3.243999e+01
  -8.547925e+00  -3.000223e+01
   3.667566e+01   5.352401e+00
   2.639672e+01   1.403458e+01
  -4.393667e+01   1.399821e+01
  -3.111713e+01  -1.333382e+01
  -4.313426e+01  -6.595019e+00
   4.367622e+01  -3.773483e+01
   5.042466e+01  -3.906060e+01
   2.036180e+00   2.203718e+01
  -1.814571e+01   5.360808e+01
  -6.384138e+01   3.850808e+01
  -2.024071e+01   2.938883e+01
  -4.755463e+01  -2.689964e+01
  -1.567734e+01  -5.337323e+01
   4.370694e+01  -1.101072e+01
  -2.872056e-01   7.021175e+01
   3.265135e+01   1.039393e+01
  -5.813506e+01   2.334549e+00
   3.758136e+00  -1.188911e+01
  -6.816743e+01  -4.729800e+01
   5.577860e-01  -3.116855e+00
   3.169329e+01   1.427797e+01
   4.411728e+01  -4.071878e+01
  -3.594683e+01  -4.332898e+01
   8.165430e+00  -1.332533e+01
   2.607728e+01   1.610873e+01
   5.104949e+01   4.780130e+01
  -1.822692e+00   1.544294e+01
  -6.388998e+01  -3.403337e+01
  -5.195319e+00  -3.871541e+01
   6.511683e+01  -3.049756e+00
   5.881593e+01  -2.398377e+01
   3.250471e+01  -6.958561e+01
  -5.207898e+01   9.129585e+01
  -5.372543e+01  -2.196050e+01
  -1.611399e+01   3.515793e+01
  -3.689644e+00  -2.936889e+01
  -2.747942e+01  -3.665999e+00
  -7.016190e+01   4.026141e+00
  -3.938734e+00   3.229598e+01
