
 $NMID
 id='ANONYMOUS ', fmtdat='(2E16.6)'
 volume=1.0
 tramp=1.0
 $END
   4.753341e+03  -8.985123e+01
   2.812341e+03   2.845861e+03
  -8.447847e+02   3.025563e+03
  -2.372570e+03   9.467911e+02
  -9.915521e+02  -8.841066e+02
   8.122331e+02  -6.973516e+02
   1.039406e+03   4.747055e+02
   2.057123e+01   1.201029e+03
  -9.027889e+02   8.520882e+02
  -1.057300e+03  -1.019840e+02
  -5.306365e+02  -9.480361e+02
   2.694899e+02  -9.580104e+02
   7.162771e+02  -9.999953e+01
   4.534495e+02   8.092269e+02
  -2.934088e+02   8.455482e+02
  -6.167534e+02   7.222398e+00
  -2.969857e+02  -8.054480e+02
   3.740716e+02  -6.991193e+02
   6.539649e+02  -7.966892e+01
   3.995772e+02   4.332098e+02
  -7.756816e+00   4.994650e+02
  -2.529449e+02   3.152407e+02
  -2.475425e+02   3.149276e+00
   7.935314e+01  -1.363728e+02
   4.189759e+02   8.452158e+01
   2.475474e+02   4.320830e+02
  -4.537961e+02   4.278137e+02
  -8.553391e+02  -3.231148e+01
  -5.041152e+02  -5.688479e+02
   3.774807e+02  -5.194897e+02
   8.096078e+02  -1.686816e+01
   4.124193e+02   5.160198e+02
  -2.256649e+02   6.284068e+02
  -5.836913e+02   1.838110e+02
  -4.106978e+02  -2.290471e+02
  -1.469883e+02  -5.206436e+02
   2.360420e+02  -3.434943e+02
   2.651355e+02   2.863532e+02
  -1.680741e+02   4.615411e+02
  -4.639254e+02  -1.975398e+00
  -3.545359e+02  -6.720736e+02
   3.298009e+02  -7.688265e+02
   6.868102e+02  -2.373523e+01
   3.262206e+02   6.065646e+02
  -2.969149e+02   3.892790e+02
  -4.653048e+02  -3.497091e+02
   1.113393e+02  -5.516082e+02
   5.624429e+02  -2.049449e+02
   6.648542e+02   3.877274e+02
   1.591277e+02   6.512401e+02
  -4.398011e+02   3.957711e+02
  -6.807688e+02  -5.873994e+01
  -4.486147e+02  -4.228260e+02
   1.905108e+02  -3.686966e+02
   4.709553e+02  -2.833633e+01
   2.737566e+02   2.917680e+02
  -1.088617e+02   1.712452e+02
  -1.804516e+02  -1.833942e+02
   1.602959e+02  -1.748449e+02
   3.886901e+02   7.174156e+01
   1.479649e+02   3.472712e+02
  -2.045915e+02   2.720930e+02
  -3.250051e+02   4.259121e+01
  -1.678227e+02  -9.386920e+01
  -9.492177e+00  -2.386226e+02
   2.190775e+02  -3.699654e+02
   3.409480e+02  -2.518642e+02
   3.423434e+02   1.138989e+02
   1.025583e+02   4.704197e+02
  -1.261410e+02   4.501531e+02
  -1.526029e+02   1.203100e+02
  -1.351614e+01  -1.194765e+02
  -1.096832e+01   5.626345e+01
  -1.963652e+02   1.130573e+02
  -2.673932e+02  -3.680775e+01
  -1.851565e+02  -2.443206e+02
   6.041633e+01  -2.820262e+02
   2.598703e+02  -6.938163e+01
   2.337902e+02   2.339615e+02
  -3.417621e+00   3.168790e+02
  -2.375789e+02   8.329811e+01
  -3.799489e+02  -1.735159e+02
  -2.347294e+02  -3.860316e+02
   1.303246e+02  -2.872916e+02
   2.357049e+02  -1.665018e+02
   1.068873e+02  -9.358542e+00
   1.230173e+02   6.642541e+00
   2.036847e+02  -6.337570e+01
   3.955048e+02   2.167299e+00
   3.674290e+02   2.730035e+02
   2.247036e+01   4.671540e+02
  -3.613734e+02   4.287131e+02
  -5.389412e+02   2.176431e+02
  -4.081507e+02  -9.932601e+01
  -1.451953e+01  -2.844347e+02
   1.661529e+02  -1.961621e+02
   9.703355e+01  -9.823343e+01
  -1.296506e+02   1.065720e+02
  -2.235585e+02  -1.987948e+01
  -5.650500e+01  -2.001379e+02
   1.729581e+02  -1.589684e+02
   2.258534e+02   6.072492e+01
  -5.932935e+00   2.075949e+02
  -1.770273e+02   4.544528e+01
  -1.313383e+02  -1.870639e+02
   8.781138e+01  -3.353565e+02
   1.910119e+02  -2.558504e+02
   3.687066e+02   5.171401e+01
   2.221225e+02   2.588949e+02
   1.113438e+02   2.449065e+02
  -8.256301e+01   1.788960e+02
  -2.113672e+02   5.539927e+00
  -5.913469e+01  -2.529002e+01
   1.031250e+02   6.939801e+01
  -5.538650e+00   1.179365e+02
  -1.265903e+02   9.766458e+01
  -1.635129e+02   1.185751e+01
  -9.075213e+01  -4.575852e+01
   4.049692e+01   1.131535e+01
   6.397055e+01   1.086543e+02
  -1.529510e+02   2.267698e+01
  -2.589715e+02   1.716880e+01
  -3.032383e+02  -1.520218e+02
  -1.583413e+02  -2.640134e+02
   1.809290e+02  -2.340230e+02
   2.808522e+02  -1.572064e+02
   2.042341e+02  -3.337977e+00
   1.127923e+01   1.380970e+02
  -1.232516e+02   2.975460e+01
  -1.833901e+01  -1.188540e+02
   2.086506e+02  -7.025888e+01
   2.172228e+02   3.323554e+01
   3.805853e+01   2.399820e+02
  -1.349792e+02   1.724566e+02
  -1.436036e+02   3.980971e+01
  -8.977923e+01  -6.788498e+01
   1.653644e+01   2.564046e+01
   5.430243e+01   1.174958e+02
  -6.809355e+01   9.633692e+01
  -1.591471e+02   4.421397e+01
  -2.400005e+02  -1.311669e+02
  -1.286711e+01  -2.296893e+02
   1.377145e+02  -1.611987e+02
   1.975817e+02   1.257611e+01
   2.533258e+01   1.240625e+02
  -5.188639e+01   1.480949e+02
  -1.012726e+02   7.366795e+00
   8.624100e+00  -5.711692e+00
   2.097814e+01   4.208133e+01
  -8.276535e+00  -2.453656e+00
  -9.607485e+01  -1.767310e+01
  -6.319110e+01  -8.235998e+01
  -6.044957e+01  -1.737234e+02
   7.545533e+01  -1.851786e+02
   2.124643e+02  -5.874067e+01
   2.668880e+02   1.239048e+02
   5.635078e+01   2.446814e+02
  -8.825739e+01   1.968935e+02
  -1.832240e+02   2.740563e+01
  -6.860282e+01  -1.079562e+02
   2.209663e+01  -1.526030e+01
  -3.586166e+00   7.712315e+01
  -9.273821e+01   6.987555e+01
  -2.912004e+01   5.648391e+00
  -1.912014e+01  -4.729732e+01
   8.388157e+01  -3.465778e+01
   8.254004e+01   4.686640e+01
  -3.328310e+00   1.554514e+02
  -1.769359e+02   1.185566e+02
  -2.045658e+02  -6.011345e+01
  -3.003260e+01  -1.787440e+02
   1.024389e+02  -2.165850e+02
   3.000170e+02  -1.331308e+02
   2.349533e+02   1.080257e+02
   1.725493e+02   2.030366e+02
  -5.015082e+01   1.280400e+02
  -9.680182e+01   6.287209e+01
  -1.253113e+02   1.051224e+02
  -7.957264e+01   1.269832e+02
  -7.030043e+01   7.838338e+01
  -1.404578e+02  -4.159025e+00
  -1.255591e+02  -2.191603e+02
   7.286895e+00  -1.942951e+02
   1.210020e+02  -2.258061e+02
   2.331995e+02  -2.531419e+01
   1.580631e+02   8.528064e+01
  -9.157856e+00   1.458099e+02
  -8.217829e+01   4.472049e+01
  -7.257815e+01  -1.157665e+02
  -2.813951e+01  -7.208194e-01
   1.641708e+01  -7.101333e+01
  -4.265521e+01   1.381534e+01
  -8.367856e+01  -2.954504e+00
  -2.089543e+01  -4.423659e+01
   8.753929e+01   1.720976e+01
   1.390384e+02   2.814492e+01
   1.914765e+02   5.094759e-01
   8.689697e+00   8.631787e+01
  -1.004486e+02   7.591902e+01
  -1.182896e+02  -5.298830e+01
  -7.197332e+01   1.827088e+01
   9.982580e+01  -4.234032e+01
   5.396856e+01   7.550577e+01
   3.482602e+00   2.797329e+01
  -6.722607e+00   6.166166e+01
  -7.186300e+01  -1.345508e+01
  -4.905182e+01  -6.237466e+01
  -4.017857e+01  -4.067400e+01
  -1.293368e+02   6.177596e+00
  -8.809477e+01  -2.120290e+01
  -2.634585e+00  -8.523177e+01
  -1.256014e+01  -1.587252e+02
   1.194390e+02  -2.110840e+02
   2.039076e+02  -3.545551e+01
   1.206973e+02   1.146475e+02
   4.130544e+00   1.040359e+02
  -1.751525e+02   2.385447e+01
  -8.606946e+01  -1.950561e+01
   9.898467e+01   3.932602e+01
   1.190170e+02   1.966099e+01
   7.710217e+01   1.091419e+02
  -9.017996e+01   1.153452e+02
  -1.888895e+02   4.450063e+01
  -1.806112e+02  -3.091898e+01
  -3.963504e+01  -7.738244e+01
   3.985916e+01  -6.864379e+01
   2.477491e+01  -1.357441e+01
   3.996958e+00   7.828886e+00
  -4.972903e+01  -4.022504e+01
  -3.945485e+01  -1.942760e+02
   1.035162e+02  -1.771847e+02
   2.057262e+02  -1.023991e+02
   9.605052e+01   1.321081e+02
   4.331073e+01   1.797886e+02
  -5.433355e+01   1.409656e+02
  -1.321120e+02  -2.618298e+01
  -1.225527e+02  -1.151481e+02
   3.433373e+01  -1.283878e+02
   2.206559e+01  -2.290132e+01
  -6.486650e+00   5.520049e+01
   3.767801e+01  -1.118187e+01
  -1.918002e+01   2.668359e+01
   6.347992e+01  -5.937739e+01
   6.244386e+01   1.262750e+02
   6.250751e+01   1.247237e+02
  -4.112425e+01   6.951230e+01
  -1.384706e+02  -5.830582e+01
  -1.247429e+02  -9.230582e+01
  -1.331584e+01  -5.841180e+01
   7.254002e+01  -4.875564e+00
   1.241130e+02  -1.629848e+01
  -1.056567e+01   6.620305e+00
  -5.857093e+01   3.584628e+01
   2.247505e+01   1.460928e+01
  -3.086258e+01   2.424244e+01
   4.429614e+01  -4.206527e+01
  -4.318990e+01  -8.872605e+00
  -9.926225e+01  -7.410098e+01
  -2.800712e+01  -9.418972e+01
   1.712888e+02  -1.240341e+02
   2.293996e+02  -1.199470e+02
   1.408412e+02   6.768216e+01
   1.898130e+01   1.697347e+02
  -8.559316e+01   1.539163e+02
  -1.187916e+02   7.183402e+00
  -9.159063e+01  -3.025813e+01
  -1.481169e+01  -7.215501e+01
  -6.750016e+00  -3.247322e+01
  -6.133593e+01  -3.651714e+00
   6.030841e+00  -6.450824e+01
  -5.205707e+01  -9.255034e+01
  -2.030325e+01  -7.243813e+01
   7.861559e+01  -3.817942e+00
   4.337060e+01   8.855000e+01
  -1.770618e+01   8.566830e+01
  -7.715878e+01   5.152949e+01
  -5.439667e+01  -8.275742e+01
  -3.697007e+01  -1.130285e+02
   4.582655e+01  -7.141602e+01
   6.821216e+01   1.458228e+01
   6.040469e+00   5.787847e+01
  -4.100163e+01   1.051846e+02
  -1.248877e+02   1.081538e+01
   6.071283e+01   3.773771e+00
   8.476852e+01   4.316820e+01
   4.186695e+01  -2.824175e+01
  -6.932496e+01   6.968671e+01
  -1.033147e+02   4.823520e+01
  -5.358903e+01  -1.118608e+01
   9.177817e+00  -9.255783e+01
   4.387725e+01  -8.178849e+01
   4.614937e+01   2.955277e+01
   4.004424e+01   3.024408e+01
  -7.651571e+01   4.246840e+01
  -8.649702e+01   3.726273e+01
  -2.345347e+01  -9.309808e+01
   2.738696e+01  -4.925481e+01
   5.856467e+01   1.042402e+01
   3.421436e+00   1.122976e+01
  -3.823947e+01  -2.988005e+01
   6.436952e+01  -1.243045e+01
  -3.390031e+01   9.471932e+01
  -4.715726e+01   5.594011e-01
  -2.410306e+01   6.013956e+01
  -2.286884e+00   1.648681e+01
  -1.982308e+01  -5.073296e+01
   1.421156e+01  -6.013018e+01
   9.025911e+01  -4.351274e+01
   7.398602e+01  -7.964024e-01
  -1.895023e+01   6.493312e+01
  -3.462484e+01  -1.536092e+01
  -4.707797e+01  -6.776883e+01
  -2.069701e+01  -2.281314e+01
   4.556609e+00  -3.955325e+01
   4.967017e+01  -1.063201e+01
   4.167315e+00  -1.124290e+01
  -5.344986e+01  -2.715951e+01
  -3.089628e+01  -1.033271e+01
  -3.419327e+01  -2.392271e+01
   1.535724e+02  -2.126840e+01
