
 $NMID
 id='ANONYMOUS ', fmtdat='(2E16.6)'
 volume=1.0
 tramp=1.0
 $END
  -4.130782e+03  -7.495608e+01
  -2.316361e+03  -2.516583e+03
   8.205821e+02  -2.557424e+03
   2.060574e+03  -6.710198e+02
   8.057613e+02   7.318270e+02
  -6.844962e+02   5.340892e+02
  -8.664756e+02  -4.611347e+02
   5.380151e+01  -1.037720e+03
   8.210392e+02  -7.185064e+02
   8.887216e+02   1.436059e+02
   4.206346e+02   8.563071e+02
  -3.075051e+02   8.391612e+02
  -6.388296e+02   6.497012e+01
  -3.637755e+02  -7.622356e+02
   3.048387e+02  -6.850155e+02
   5.978987e+02   4.536473e+01
   2.441721e+02   6.714589e+02
  -3.431788e+02   5.660326e+02
  -5.361269e+02   6.063108e+01
  -3.632620e+02  -3.746426e+02
   2.781668e+01  -4.350914e+02
   2.411452e+02  -2.209289e+02
   1.689434e+02   1.395834e+01
  -1.309308e+02   1.117353e+02
  -3.803931e+02  -1.273980e+02
  -1.619831e+02  -4.297580e+02
   4.693484e+02  -4.022391e+02
   8.034074e+02   1.075628e+02
   3.902925e+02   5.796500e+02
  -4.047400e+02   4.316798e+02
  -7.046438e+02  -5.385381e+01
  -3.384597e+02  -4.569706e+02
   2.832710e+02  -5.036503e+02
   5.729561e+02  -1.164993e+02
   3.885295e+02   1.914381e+02
   5.196049e+01   4.782001e+02
  -2.468962e+02   2.758154e+02
  -1.924354e+02  -2.047475e+02
   1.564756e+02  -4.691456e+02
   4.706318e+02  -2.671194e+00
   2.477293e+02   6.289844e+02
  -3.281222e+02   6.921426e+02
  -5.394690e+02  -2.419108e+01
  -2.440338e+02  -5.064787e+02
   3.304495e+02  -2.700726e+02
   3.765399e+02   3.182321e+02
  -7.059331e+01   5.019618e+02
  -5.008221e+02   1.581274e+02
  -5.066667e+02  -3.649901e+02
  -1.754143e+02  -5.408148e+02
   4.755032e+02  -3.148345e+02
   6.225023e+02   8.262294e+01
   3.472111e+02   3.879959e+02
  -1.867370e+02   2.964743e+02
  -4.404864e+02  -7.232000e+01
  -2.684327e+02  -1.582114e+02
   1.388987e+02  -8.088591e+01
   1.263629e+02   1.344727e+02
  -1.631374e+02   1.825180e+02
  -3.153913e+02  -3.268197e+01
  -1.663152e+02  -2.923285e+02
   2.014462e+02  -2.248667e+02
   2.792969e+02  -3.226576e+00
   1.545185e+02   6.300154e+01
  -4.783269e+01   2.028430e+02
  -1.973139e+02   3.306636e+02
  -3.566096e+02   1.682619e+02
  -2.634336e+02  -1.187370e+02
  -3.091757e+01  -3.467508e+02
   7.756250e+01  -3.583772e+02
   1.515841e+02  -9.210680e+01
  -2.729752e+01   1.512553e+01
   5.517494e+01  -1.063875e+02
   1.822569e+02  -1.190452e+02
   3.096950e+02   8.641761e+01
   1.746654e+02   2.577296e+02
  -1.244605e+02   2.838512e+02
  -2.152132e+02   1.419205e+01
  -2.490237e+02  -2.075352e+02
   1.181575e+01  -3.348526e+02
   1.949968e+02  -8.341379e+01
   3.107910e+02   1.936111e+02
   1.734878e+02   2.981284e+02
  -3.951673e+01   3.149368e+02
  -1.558933e+02   6.920532e+01
  -1.445870e+02  -3.381083e+00
  -7.445129e+01   8.600923e+01
  -1.893852e+02   5.005073e+01
  -3.772801e+02  -2.543748e+01
  -3.380770e+02  -2.559489e+02
   7.992285e+01  -4.149832e+02
   3.261321e+02  -3.907580e+02
   4.162970e+02  -1.333572e+02
   2.908647e+02   7.920238e+01
   2.577516e+01   2.806547e+02
  -1.763189e+02   3.024290e+02
  -5.746194e+01   5.200239e+01
   1.213179e+02  -1.356468e+02
   1.996433e+02   3.577692e+01
   4.442832e+01   1.948661e+02
  -1.202644e+02   1.679867e+02
  -1.726865e+02  -6.632673e+01
   2.872545e+01  -2.051117e+02
   1.850257e+02  -3.096234e+01
   1.823484e+02   2.201202e+02
  -3.544407e+01   3.002985e+02
  -1.743252e+02   1.521620e+02
  -2.975265e+02  -8.418140e+01
  -2.388133e+02  -1.755786e+02
  -6.859617e+01  -2.234904e+02
   7.217074e+01  -1.156483e+02
   1.961592e+02  -2.513109e+01
   7.276587e-01   4.476151e+01
  -4.407437e+00  -3.632472e+01
  -6.451535e+01  -1.271196e+02
   1.293212e+02  -8.151579e+01
   1.496836e+02   1.318431e+01
   1.052776e+02   6.326716e+01
  -7.330197e+01   3.178807e+01
  -1.182109e+02  -7.419552e+01
   1.023874e+02  -3.516659e+01
   2.052521e+02  -2.330301e+01
   2.075299e+02   9.172827e+01
   9.629816e+01   2.442089e+02
  -1.515758e+02   2.217204e+02
  -2.687281e+02   1.828332e+02
  -1.320606e+02  -8.068585e+01
   2.624400e+01  -9.847447e+01
   2.387529e+01  -5.089215e+00
  -1.459222e+01   8.547643e+01
  -1.930048e+02   2.344697e+01
  -2.290877e+02  -1.021973e+02
  -5.288274e+01  -1.910195e+02
   7.714379e+01  -1.693806e+02
   5.890025e+01  -3.616371e+01
   1.418958e+02   6.068390e+01
  -1.428112e+01   7.682288e+01
  -2.980645e+01  -7.971786e+01
   6.645968e+01  -9.434796e+01
   1.282556e+02  -4.258074e+01
   1.220936e+02   8.151693e+01
   2.387350e+01   1.869884e+02
  -1.560016e+02   1.322522e+02
  -1.920238e+02  -3.566558e+01
  -5.923964e+01  -1.399876e+02
   8.492481e+01  -1.067191e+02
   3.750095e+01   7.433403e+00
   4.749051e+01   1.593451e+01
  -3.384478e+01   4.033563e+01
  -5.812487e+01  -3.675533e+01
   6.729765e+01  -1.377565e+01
   2.182351e+01   4.451224e+01
  -1.620855e+01   7.875081e+01
  -1.572592e+02   1.182807e+02
  -2.562805e+02   2.668889e+01
  -1.752504e+02  -1.584694e+02
  -2.086748e+00  -1.863252e+02
   8.531717e+01  -1.929933e+02
   1.384077e+02  -5.472799e+01
   7.139634e+01   3.315560e+01
  -1.336734e+00   5.700946e+01
   4.050883e+01  -4.229805e+00
   1.040161e+02   4.950928e+01
   4.988232e+01   4.085751e+01
  -4.060854e+01   5.298798e+01
  -7.616623e+01   5.725421e+01
  -9.859053e+01   2.704977e+00
   5.706652e+01  -4.724119e+01
   1.330412e+02  -6.666982e+01
   1.393915e+02   3.936790e+01
   8.684313e+01   1.747432e+02
  -6.026850e+01   2.346265e+02
  -1.778566e+02   4.617627e+01
  -2.587999e+02  -1.073982e+02
  -1.057050e+02  -1.951280e+02
   2.771679e+00  -1.507999e+02
   7.411083e+01  -5.728074e+01
   2.508980e+01  -6.046942e+01
   5.455406e+01  -1.442504e+02
   7.538470e+01  -7.085057e+01
   1.104405e+02   6.787522e+01
   1.074813e+02   8.969413e+01
   5.110684e+01   2.122018e+02
  -1.139354e+02   1.227804e+02
  -1.798245e+02   1.899992e+01
  -1.327010e+02  -1.076153e+02
   4.001159e+01  -1.766461e+02
   6.847265e+01  -8.401280e+01
   6.138380e+01  -2.792770e+01
  -4.693962e+01  -1.739269e+01
  -1.073151e+01   1.119628e+01
   5.923631e+01  -5.599696e+00
   5.454644e+01   2.704625e+01
  -1.212455e+00   5.309730e+01
  -6.006010e+01   4.226737e+01
  -1.758753e+02   2.609682e+01
  -1.142594e+02  -7.773535e+01
  -6.092110e+01  -6.392507e+01
   1.329788e+02  -8.782750e+01
   1.747176e+02   4.864936e+01
   5.331796e+01   4.379059e+01
  -4.558752e+01   1.537710e+01
  -6.601461e+01  -2.779776e+01
  -1.065171e+01  -4.308700e+01
   1.202327e+01  -1.122110e+02
   1.510181e+01  -1.964466e+01
   2.135074e+01   5.201676e+01
  -3.861254e+00   2.162476e+01
   6.868364e+01   4.515769e+01
   3.840956e+01   6.491094e+01
  -2.944945e-01   8.189001e+01
  -1.004200e+02   1.351032e+02
  -1.019676e+02   1.944096e+02
  -1.673951e+02   2.159136e+01
  -1.393525e+02  -4.169844e+01
  -2.088168e+00  -1.127670e+02
   6.678612e+01  -7.637462e+01
   7.742548e+01  -3.711997e+01
  -2.795763e+01   4.747801e+01
  -1.356679e+02  -3.040621e+01
  -6.191875e+01  -8.798325e+01
   8.752777e+01  -1.152515e+02
   1.952250e+02  -1.361270e+01
   1.408205e+02   4.854271e+01
   4.859239e+01   8.638898e+01
  -9.081420e+01   1.107948e+02
  -6.058387e+01   2.548427e+01
  -5.193013e+00  -6.956590e+01
   5.458946e+01  -4.384870e+01
  -1.055081e+01   1.154911e+02
  -7.041828e+01   1.649636e+02
  -1.572104e+02   9.535778e+01
  -1.829692e+02  -1.264879e+02
   3.999093e+01  -1.899352e+02
   6.229976e+01  -1.522026e+02
   1.244907e+02   2.246624e+01
   4.236763e+01   8.322638e+01
  -2.301088e+01   8.839361e+01
  -6.780233e+01   3.584502e+00
  -6.820603e+01  -3.801480e+01
  -5.858298e+01   3.671361e-02
   1.066208e+01   1.959162e+01
  -8.041865e+01  -5.072852e+01
  -9.862450e+00  -1.236672e+02
  -5.004316e+01  -9.198691e+01
   3.388023e+01  -2.545699e+00
   6.688215e+01  -8.519902e+00
   8.556597e+01   1.121016e+02
   3.366405e+01   7.317728e+01
  -4.390009e+01   5.393831e+01
  -1.026201e+02   2.059008e+01
   3.044860e+01   1.161819e+00
  -1.287695e+01  -4.324402e+01
  -1.026596e+00   2.650624e+01
   1.948406e+01  -1.180085e+01
   3.319429e+01   8.736298e-01
   7.106343e+01  -3.401671e+00
   8.596803e+01  -4.118111e+01
  -2.341061e+01   7.470751e+01
  -1.019556e+02   1.251293e+02
  -1.428291e+02   8.217345e+01
  -6.266800e+01  -1.208909e+02
  -3.789516e+00  -1.209056e+02
   1.176710e+02  -1.848999e+02
   9.179341e+01  -8.590400e+01
   5.965059e+01  -4.881254e+00
  -1.735925e+00   2.541673e+01
  -2.246483e+01  -1.786397e+01
   1.477606e+00   1.582324e+01
   3.591058e+01  -1.978483e+01
   2.895020e+01   6.996808e+01
   2.126450e+00   9.639555e+01
  -7.490231e+01  -1.605186e+01
  -3.492702e+01  -8.215168e+01
  -5.770547e+01  -6.647305e+01
   1.128440e+02   8.085704e+00
   1.241088e+02   1.571981e+01
   4.126684e+01   1.508915e+02
  -1.067914e+02  -1.333469e+01
  -6.511110e+01  -2.532855e+01
  -2.142260e+01  -8.291065e+01
   2.970339e+00  -2.598724e+00
   9.774035e+00  -2.249688e+01
  -4.927219e+01   2.612968e+01
  -8.036992e+01   2.135389e+00
   2.935185e+01   9.162883e-01
   2.955747e+01  -7.117125e+01
   8.548583e+01  -7.247220e+01
   5.207061e+01   2.749885e+01
  -2.540869e+01   7.573102e+01
  -6.916918e+01   8.289678e+01
   4.790377e+01   1.475037e+01
  -2.129292e+01  -6.573216e+01
  -5.375397e+00  -2.842178e+01
   2.678553e-01   1.738465e+01
   2.692917e+01   3.795970e+01
  -9.667493e+00   7.498416e+01
   2.674841e+01  -1.148411e+01
  -2.896298e+01  -2.019388e+01
  -2.047020e+00  -4.125610e+01
  -3.251759e+01   3.076115e+01
   2.084570e+01  -1.109760e+01
   1.098703e+01  -3.105832e+01
   3.125878e+01  -1.997283e+01
   5.554763e+01   4.822534e+01
  -1.155828e+01   1.807318e+01
   1.805815e+01   4.668982e+01
  -4.946368e+01   3.689416e+01
  -7.581785e+01  -8.572170e+01
  -5.609904e+01  -6.913402e+01
   3.978246e+01  -2.879525e+00
   1.058019e+02   1.205683e+01
   5.457934e+01   2.021202e+01
  -1.498889e+01   4.795130e-02
  -5.458436e+01   4.754136e+01
  -2.938064e+01   7.344003e+00
   5.223984e+01  -1.991851e+01
   1.063784e+02   7.539964e+00
  -4.697034e+00   3.302909e+01
  -8.592996e+01   4.201366e+01
