
 $NMID
 id='ANONYMOUS ', fmtdat='(2E16.6)'
 volume=1.0
 tramp=1.0
 $END
   2.301984e+03  -7.618118e+01
   1.622515e+03   1.152776e+03
   4.687361e+01   1.474130e+03
  -9.350198e+02   9.280965e+02
  -7.884684e+02   1.520094e+02
  -4.196670e+01  -1.636781e+02
   2.551198e+02   6.389852e+01
   4.503902e+01   3.511388e+02
  -3.195845e+02   4.779349e+02
  -4.829110e+02   8.997802e+01
  -3.840808e+02  -3.398267e+02
  -4.424864e+01  -4.894928e+02
   2.671143e+02  -1.472966e+02
   1.717887e+02   2.354184e+02
  -5.149339e+01   4.136779e+02
  -2.901122e+02   7.142996e+01
  -2.301971e+02  -3.464720e+02
   5.221466e+01  -4.491568e+02
   3.134903e+02  -1.766937e+02
   2.912527e+02   1.729884e+02
   1.244886e+02   2.503547e+02
  -1.027958e+02   1.703908e+02
  -4.765557e+01   6.206591e+01
   1.045758e+02   1.432224e+01
   1.707160e+02   1.433157e+02
  -4.048397e+01   2.232073e+02
  -2.885267e+02   9.267184e+01
  -4.523834e+02  -1.028305e+02
  -2.134640e+02  -2.064847e+02
   2.666559e+02  -1.476147e+02
   3.685003e+02   4.300470e+01
   2.071146e+02   2.336368e+02
  -1.478065e+02   2.319785e+02
  -2.263688e+02   1.697115e+02
  -2.471880e+02  -6.343708e+01
  -2.451206e+01  -2.155808e+02
   4.258797e+01  -1.551990e+02
  -3.833680e+01   8.712140e+01
  -8.361470e+01   9.408775e+01
  -1.296299e+02  -3.692586e+01
  -5.917817e+01  -2.888775e+02
   1.916719e+02  -3.468585e+02
   2.286281e+02  -5.903017e+01
   1.198883e+02   1.615788e+02
  -4.811611e+01   1.005735e+02
  -1.828283e+02  -2.363112e+02
   3.214159e+01  -2.487611e+02
   2.779494e+02   1.060978e+01
   3.594580e+02   2.362490e+02
   1.147243e+02   4.049251e+02
  -1.881341e+02   2.024413e+02
  -3.635287e+02  -8.446196e+01
  -2.745338e+02  -2.056396e+02
  -2.306197e+01  -1.476700e+02
   2.076164e+02  -8.033199e+01
   2.238588e+02  -5.600732e+00
   2.421782e+01   5.909185e+01
   3.871585e+00  -2.758649e+01
   3.150138e+01  -7.055913e+01
   2.066129e+02   1.625255e+01
   1.251104e+02   1.551486e+02
  -1.133524e+02   1.726206e+02
  -2.589696e+02   6.838959e+01
  -1.897001e+02  -8.642197e+01
   2.113548e+00  -2.429732e+02
   2.198183e+02  -2.093156e+02
   2.314918e+02  -1.345990e+02
   1.343234e+02   1.003606e+02
   6.122875e+01   2.828042e+02
  -8.924372e+00   2.193475e+02
   7.004400e+01   1.332505e+02
  -7.113866e+01   6.648788e+01
  -5.431926e+01   1.097586e+02
  -1.424985e+02   3.729545e+01
  -1.108746e+02  -6.757097e+01
  -6.536565e+01  -1.995109e+02
   2.757504e+01  -1.654102e+02
   1.625772e+02   3.051094e+01
   1.083584e+02   1.556060e+02
  -8.980065e+00   1.854415e+02
  -2.035722e+02   5.020843e+01
  -2.441220e+02  -1.298232e+02
  -1.369096e+02  -1.431495e+02
   2.610380e+01  -1.721161e+02
   9.785749e+01  -1.019410e+02
   1.083563e+02  -8.846826e+01
   1.001175e+02  -1.421129e+01
   1.474201e+02   2.661544e+01
   2.817448e+02   8.307766e+01
   2.433615e+02   1.699698e+02
   3.239764e+01   3.216362e+02
  -2.658033e+02   2.948200e+02
  -3.857765e+02   1.695237e+02
  -1.435677e+02  -1.905439e+01
  -2.238072e+01  -2.272932e+02
   8.255702e+01  -1.554603e+02
  -4.274630e+01  -3.358979e+01
  -8.381407e+01   2.709278e+01
  -9.192212e+01  -2.570128e+01
   4.346708e+01  -4.783268e+01
   8.047973e+01  -7.735562e+01
   5.432872e+01   1.925932e+01
  -2.933427e+01   6.743931e+01
  -8.371377e+01   8.756762e+00
  -1.369943e+02  -8.650195e+01
   1.999044e+01  -2.659105e+02
   1.656322e+02  -1.528728e+02
   2.473136e+02   4.903061e+01
   1.556838e+02   2.052571e+02
   3.488780e+00   1.636393e+02
  -1.149940e+02   3.903364e+01
  -1.289396e+02   1.801101e+01
   3.404801e+00   1.776367e+01
   6.214291e+01   3.367787e+01
   2.310801e+00   1.298879e+02
  -9.516232e+01   2.665759e+01
  -1.236656e+02  -1.805460e+00
  -2.262786e+01  -6.465154e+01
   8.526225e+01   5.315767e+01
   5.619759e+00   1.351286e+01
  -1.550532e+02   1.835645e+01
  -1.851832e+02  -2.763209e+00
  -1.765942e+02  -1.326347e+02
  -3.608413e+01  -1.641917e+02
   1.353625e+02  -1.532190e+02
   1.828996e+02  -7.632036e+01
   1.180585e+02   2.466203e+01
   7.617748e+00   9.911500e+01
  -7.715139e+01  -1.604822e+01
   7.866360e+01  -7.272629e+01
   1.220512e+02  -3.354975e+01
   9.223920e+01   1.040613e+02
   6.012429e+01   1.428155e+02
  -1.075053e+02   8.426763e+01
  -9.055101e+01  -1.357805e+01
  -7.489432e+01  -2.275759e+01
   3.273851e+01   1.303503e+01
   5.336010e+01   7.420350e+01
  -5.221837e+01   7.520460e+01
  -1.693313e+02  -2.992029e+01
  -1.486618e+02  -1.199571e+02
   6.192190e+01  -1.041898e+02
   1.682520e+02  -1.125326e+02
   1.456121e+02  -7.735067e+01
   3.948345e+01   8.433873e+01
  -2.451425e+01   7.853438e+01
  -8.706064e+01   7.061013e+01
  -1.568760e+00  -2.939527e+00
   2.027199e+01  -3.757187e+00
   1.578092e+00  -3.379159e+01
  -6.367708e+01   1.372213e+01
  -1.169293e+02  -1.213306e+01
  -1.345018e+01  -1.428582e+02
   9.941745e+01  -7.317646e+01
   1.611393e+02  -5.702566e+00
   2.244175e+02   1.290211e+02
   5.306130e+01   1.404290e+02
  -9.584519e+01   1.020148e+02
  -1.071362e+02   4.167914e+00
  -8.256091e+01  -2.109859e+01
   2.079288e+01   1.428878e+01
   8.350692e+00   5.893472e+01
   8.178649e+00  -4.992584e+01
  -7.564407e+01  -3.533262e+01
   1.533832e+01  -8.820940e+01
   8.850811e+01  -3.507374e+01
   1.084771e+02   6.411359e+01
  -5.503202e+01   4.591399e+01
  -1.661275e+02   6.522747e+01
  -1.632069e+02  -5.418741e+01
  -5.406363e+01  -1.356883e+02
   7.631479e+01  -1.738482e+02
   1.837876e+02  -6.480508e+01
   1.286526e+02   5.908865e+01
   8.881031e+01   5.851563e+01
  -2.328189e+01   8.659890e+01
  -8.755093e+01   5.013262e+01
  -5.873516e+01   1.027487e+02
  -2.522051e+01   7.967174e+01
  -9.663005e+01   1.756044e+01
  -3.709515e+01  -7.743690e+00
  -1.063129e+02  -1.995425e+02
  -3.265368e+01  -1.389377e+02
   9.613499e+01  -2.222864e+01
   9.952922e+01  -1.729238e+01
   7.989750e+01   2.023271e+01
  -2.194919e+01   1.025747e+02
  -4.581897e+01   6.881407e+01
  -8.741364e+01   4.771856e+01
   4.365852e+00   2.017646e+00
   3.662768e+01   4.717292e+01
  -1.953658e+01  -1.848898e+01
  -1.413701e+01  -4.602673e+01
  -2.087209e+00  -4.552670e+00
   7.721249e+01  -7.059293e+00
   9.104769e+01  -2.717996e+01
   1.298654e+02   3.439726e+01
   4.081551e+01   5.064662e+01
  -1.012575e+02   2.838450e+01
  -1.267304e+02  -5.270682e+01
   1.956213e+01  -4.636522e+01
   8.223775e+01  -3.403800e+01
   6.707173e+00   1.887724e+01
   2.011788e+01   5.861877e+01
  -3.403817e+01   2.720121e+01
  -6.715663e+00   2.836298e+01
  -5.680811e+01  -4.052898e+01
  -1.566263e+01  -5.850433e+01
  -1.511766e+01   5.752285e+01
  -4.387545e+01  -3.681467e+01
  -1.220413e+02  -4.556168e+01
   2.775539e+01  -1.375248e+02
   4.183484e+01  -7.831046e+01
   1.151648e+02  -1.019889e+01
   6.432239e+01   7.450831e+01
  -3.163605e+01   1.067127e+02
  -1.426967e+01   2.044936e+01
  -7.727444e+01  -2.897799e+01
   3.542762e+01  -1.665103e+01
   6.142925e+01   5.886834e+01
   1.176427e+01   5.950482e+01
  -5.411199e+01   1.007269e+02
  -1.048912e+02   4.381283e+01
  -1.809021e+02  -1.602163e+01
   3.094315e-01  -1.101244e+02
  -2.946076e+01  -2.839297e+01
   1.062486e+02  -2.962766e+01
  -1.045234e+02  -3.491277e+01
  -2.297241e+01   1.984942e+01
   2.342399e+01  -7.985203e+01
   5.803466e+01  -1.026817e+02
   1.076957e+02  -3.663410e+00
   1.201099e+02   4.708074e+01
   3.374321e+01   1.086034e+02
  -9.702300e+01   7.521348e+01
  -4.984134e+01  -3.493939e+01
  -2.492325e+01  -1.522000e+02
   1.235239e+01  -9.863732e+01
   2.854605e+01  -1.463872e+01
   5.980822e+00   4.281598e+00
   3.244429e-01   3.086646e+01
  -8.555561e+00   1.094662e+01
   4.694031e+01  -4.257811e+00
   6.687984e+01   2.756687e+01
  -1.788043e+01   6.724967e+01
  -6.778373e+01  -1.174864e+01
  -1.216930e+02  -3.979302e+01
  -9.211439e+01  -8.225836e+00
   1.939156e+01  -4.188629e+00
   5.973226e+01  -2.057298e+01
   6.603710e+01  -3.697036e+01
   1.847699e+01   7.632972e+01
  -3.741692e+01   2.260588e+01
  -3.511709e+01   1.079301e+00
   2.085988e+01  -3.962935e+01
  -3.234080e+01  -3.458020e+01
  -6.944665e+01  -1.655565e+01
  -2.511195e+01  -2.567971e+01
  -4.642930e+01  -3.037037e+01
   6.005734e+01  -9.958823e+01
   9.934432e+01  -3.019995e+01
   1.580452e+02   5.150606e+01
   4.608686e+01   6.638893e+01
  -5.156543e+01   1.154279e+02
  -6.145781e+01   2.739465e+01
  -1.325756e+01  -3.094004e+01
  -5.024214e+01  -3.192395e+01
   1.198714e+01   3.428601e+01
   5.866632e+01  -3.101961e+01
   2.707473e+00  -5.709763e+01
   1.269727e+00  -5.413013e+01
   3.982504e+01  -2.792024e+01
   6.818662e+01   4.501647e+01
   7.113555e+01   7.063939e+01
   1.494802e+01   1.078405e+02
  -4.741887e+01   8.110212e+00
  -7.235415e+01  -2.376396e+01
  -3.326282e+00  -2.226220e+01
   5.784885e+01  -6.423094e+01
   8.744482e+01  -2.695362e+01
   5.373500e+01   5.638719e+01
  -4.190458e+01   4.672213e+01
  -1.609805e+01  -2.139941e+01
   2.491982e+01   4.502143e+01
   6.285066e+01   3.190451e+01
   5.723342e+01  -5.217391e+00
  -8.519644e+01   7.270264e+01
  -1.167688e+02   2.288627e+01
  -3.282499e+01   2.237542e+01
   1.394517e+01  -1.053758e+02
   3.255521e+01  -3.239850e+01
   4.417684e+01  -2.648357e+01
   9.508430e+00   5.753134e+01
  -3.349821e+01   3.399071e+01
  -2.579660e+00  -3.112208e+01
   1.385364e+01   1.259314e+01
  -2.785276e+01  -5.227276e+01
   6.086397e+00   1.511030e+00
   5.047432e+01   7.418023e+01
   2.971962e+01   2.760002e+01
  -2.222510e+01  -8.178925e+01
   3.349361e+01  -3.558310e+00
   2.029599e+01   2.667568e+01
   1.523346e+01   7.223905e+01
  -2.009675e+01  -8.112522e+00
  -6.624368e+01  -2.480970e+01
   1.651099e+01  -3.992689e+01
   4.259696e+01  -5.060668e+01
   8.978115e+01   4.915534e+00
  -3.672075e+01   5.424923e+01
  -2.476396e+01   8.354599e+01
  -3.016239e+01  -4.221581e+01
  -1.104550e+02  -9.335852e+00
   6.482778e+01  -2.535250e+01
   8.722023e+01  -3.212687e+01
   3.666376e+01  -2.097893e+01
  -3.367799e+01   6.209546e+00
  -1.505200e+01  -4.932338e+01
   3.589303e+01   9.091371e+00
  -3.440706e+00  -2.950557e+01
