
 $NMID
 id='ANONYMOUS ', fmtdat='(2E16.6)'
 volume=1.0
 tramp=1.0
 $END
   4.693798e+03   4.156978e+01
   2.724296e+03   2.892516e+03
  -8.814207e+02   2.991656e+03
  -2.378789e+03   8.765765e+02
  -9.949199e+02  -8.620870e+02
   7.661209e+02  -7.408655e+02
   1.063500e+03   4.717882e+02
  -1.061849e+01   1.156532e+03
  -8.701855e+02   8.861729e+02
  -1.054718e+03  -1.408398e+02
  -4.616853e+02  -9.787168e+02
   3.162208e+02  -1.013750e+03
   7.577230e+02  -1.071805e+02
   4.923774e+02   7.985512e+02
  -3.210514e+02   8.696065e+02
  -6.735954e+02  -1.100185e+01
  -3.078377e+02  -7.801756e+02
   4.024626e+02  -6.773536e+02
   6.840255e+02  -6.793563e+01
   4.741775e+02   3.491612e+02
   1.520662e+01   4.999468e+02
  -3.166662e+02   2.625690e+02
  -2.804311e+02  -1.258330e+01
   8.728396e+01  -1.282792e+02
   4.689450e+02   1.268851e+02
   2.208973e+02   4.911857e+02
  -4.866933e+02   4.775219e+02
  -9.559287e+02  -4.695574e+01
  -4.799497e+02  -6.321029e+02
   3.901973e+02  -5.574419e+02
   8.051095e+02   1.497854e+01
   3.669357e+02   5.038680e+02
  -2.876938e+02   5.422933e+02
  -6.055092e+02   2.326590e+02
  -3.831106e+02  -2.194188e+02
  -9.550828e+01  -5.832231e+02
   2.384928e+02  -2.975459e+02
   1.837787e+02   2.804808e+02
  -1.293418e+02   5.137504e+02
  -4.988356e+02   7.052915e+01
  -2.968174e+02  -7.763263e+02
   2.584294e+02  -8.225777e+02
   7.038073e+02  -1.833479e+01
   3.315156e+02   6.182646e+02
  -3.209227e+02   3.578889e+02
  -5.228090e+02  -3.408669e+02
   6.872805e+01  -5.980099e+02
   6.265180e+02  -1.528561e+02
   5.942771e+02   4.520778e+02
   1.505362e+02   6.234042e+02
  -4.016176e+02   3.778043e+02
  -6.642080e+02  -1.173450e+02
  -3.700191e+02  -4.235432e+02
   1.388069e+02  -4.185375e+02
   4.979850e+02   2.998494e+00
   3.012389e+02   2.522620e+02
  -8.634819e+01   1.641930e+02
  -1.289139e+02  -1.334083e+02
   1.326198e+02  -2.197907e+02
   4.188133e+02   1.052149e+02
   1.633666e+02   3.163359e+02
  -2.676892e+02   2.584993e+02
  -3.573714e+02   1.194761e+02
  -2.244394e+02  -1.144960e+02
   3.548013e+01  -2.013261e+02
   2.275514e+02  -3.204457e+02
   3.190518e+02  -2.915245e+02
   3.037437e+02   1.669089e+02
   1.082204e+02   4.830764e+02
  -8.327698e+01   3.994999e+02
  -1.808421e+02   1.556795e+02
  -1.071599e+00   5.741272e+00
  -1.618764e+01   6.164385e+01
  -1.791912e+02   1.672648e+02
  -3.023493e+02  -3.248777e+01
  -1.903176e+02  -3.113510e+02
   6.983580e+01  -2.185875e+02
   3.105161e+02  -1.626530e+00
   2.364846e+02   2.967476e+02
  -1.410268e+01   2.362340e+02
  -2.603525e+02   1.282688e+02
  -3.735077e+02  -1.663976e+02
  -2.014304e+02  -3.438701e+02
   4.821480e+01  -3.027727e+02
   2.305740e+02  -9.108879e+01
   1.393767e+02  -3.284236e+01
   1.029480e+02  -8.696193e+01
   2.365951e+02  -1.312240e+02
   4.124599e+02   5.987699e+01
   3.185041e+02   3.047395e+02
  -2.080294e+01   4.676126e+02
  -3.596668e+02   4.648204e+02
  -5.251905e+02   1.691446e+02
  -3.995645e+02  -9.833971e+01
  -4.830888e+01  -3.027497e+02
   1.406156e+02  -3.005931e+02
   4.944679e+01  -3.962083e+01
  -8.500438e+01   1.152433e+02
  -1.846804e+02   6.440501e+01
  -1.834564e+01  -2.042933e+02
   2.036634e+02  -1.647646e+02
   2.117011e+02   8.277873e+01
   4.605877e+00   2.146676e+02
  -2.795875e+02   6.478755e+01
  -1.584545e+02  -2.271750e+02
   9.926414e+01  -3.233640e+02
   2.510136e+02  -2.552312e+02
   3.312883e+02   9.152175e+01
   2.837425e+02   2.431459e+02
   1.234729e+02   2.732156e+02
  -8.439040e+01   1.763295e+02
  -1.665606e+02  -3.083695e+01
  -3.983252e+01  -2.938592e+01
   4.449366e+01   1.743184e+01
   1.682713e+01   1.560819e+02
  -1.047836e+02   9.556501e+01
  -2.280928e+02   3.666832e+01
  -1.098970e+02  -1.080166e+02
   4.484021e+01   1.168339e+00
   5.565188e+01   6.697658e+01
  -1.397731e+02   7.430973e+01
  -3.162247e+02   5.383079e+01
  -2.518966e+02  -1.352312e+02
  -5.741261e+01  -2.786272e+02
   1.834255e+02  -2.277200e+02
   2.900458e+02  -1.360586e+02
   1.800574e+02   3.637922e+01
  -3.981715e+01   1.371134e+02
  -1.083182e+02   3.248637e+01
   6.451873e+01  -1.104954e+02
   1.790444e+02  -8.142673e+01
   2.253193e+02   1.206063e+02
   6.215651e+01   1.875510e+02
  -1.344949e+02   1.801852e+02
  -1.648616e+02   1.200183e+01
  -8.320090e+01  -3.163121e+01
   5.466808e+01  -2.105180e+01
   5.939538e+01   5.984478e+01
  -6.413100e+01   1.090928e+02
  -1.787482e+02   9.037721e+00
  -2.366336e+02  -9.541269e+01
   6.640285e+00  -2.446501e+02
   1.851102e+02  -2.277265e+02
   2.946162e+02  -3.925397e+01
   8.052368e+01   1.556649e+02
  -6.373069e+01   1.268523e+02
  -7.226507e+01   1.334461e+01
  -4.512411e+01  -1.729683e+01
   3.116313e+01  -4.472822e+01
  -3.975756e+01   3.119847e+01
  -4.325952e+01  -2.493032e+01
  -1.079908e+02  -4.579384e+01
   1.264042e+01  -1.346976e+02
   1.052154e+02  -1.329714e+02
   2.241849e+02  -1.274009e+01
   1.695371e+02   1.056186e+02
   3.502707e+01   2.399063e+02
  -9.367924e+01   2.588925e+02
  -1.449701e+02   3.939365e+01
  -9.255653e+01  -4.492415e+01
  -1.013975e+01  -3.577131e+01
  -6.444250e+01  -4.213546e+01
  -9.745364e+01  -4.151943e+00
  -2.032298e+01  -2.113745e+01
   4.342841e+01  -2.826604e+01
   1.028701e+02  -1.045617e+02
   9.372639e+01  -1.090914e+01
  -2.478241e+01   1.041748e+02
  -1.265403e+02   7.807457e+01
  -1.677224e+02  -2.320712e+01
  -1.380723e+02  -2.064843e+02
   1.707232e+02  -2.117669e+02
   2.234536e+02  -9.719826e+01
   2.500113e+02   6.024668e+01
   1.141534e+02   1.709589e+02
  -1.767975e+01   1.822370e+02
  -1.692709e+02   1.054058e+02
  -1.094169e+02   3.777214e+01
  -1.316738e+02   7.008844e+01
  -1.270191e+02   3.859115e+01
  -1.496375e+02  -2.969169e+01
  -1.237324e+02  -1.093314e+02
  -3.626177e+01  -2.354110e+02
   1.557521e+02  -1.894874e+02
   2.240799e+02   1.674236e+01
   1.788398e+02   1.647605e+02
   4.781855e+01   1.738761e+02
  -2.744219e+01   7.614940e+01
  -1.029409e+02  -3.022687e+01
  -3.125613e+01  -1.154260e+01
   2.827800e+01   2.223508e+01
  -4.621208e+01  -7.392545e+01
  -6.180237e+01  -5.827002e+01
  -2.916126e+01  -2.893968e+01
   6.790680e+01  -8.896430e+00
   1.893866e+02  -1.564667e+01
   1.423548e+02   8.597440e+01
  -8.353405e+00   8.116923e+01
  -1.201090e+02   1.322322e+02
  -1.360298e+02  -1.262085e+01
  -4.863352e+01  -1.744793e+01
   9.133586e+01  -3.488784e+01
   7.921038e+01  -1.720327e+01
   3.190916e+01   4.643916e+01
  -1.138686e+02   7.885783e+01
  -5.402690e+01  -1.922011e+01
  -9.308307e+01  -8.472680e+01
  -2.194803e+01  -4.098495e+01
  -7.762165e+01   5.124012e+01
  -4.122270e+01   7.441980e+00
  -3.028781e+01  -1.054711e+02
   1.159242e+02  -9.444500e+01
   1.654909e+02  -1.286360e+02
   1.544078e+02  -6.311276e+01
   1.505973e+02   6.592208e+01
   3.546060e+01   1.490216e+02
  -8.479761e+01   5.369072e+01
  -6.180473e+01   2.417930e+00
   4.672699e+01  -4.397002e+01
   1.449784e+02   9.319648e+01
   4.475588e+01   1.183916e+02
  -1.044649e+02   1.538998e+02
  -2.069472e+02   1.107644e+02
  -1.731990e+02  -3.442031e+01
  -1.781649e+01  -8.127179e+01
   7.426230e+01  -7.867129e+01
   1.021273e+01   3.724549e+01
  -3.522481e+01   9.185368e+00
  -1.079181e+02  -7.782071e+00
  -1.359449e+01  -1.652636e+02
   9.667400e+01  -1.093057e+02
   1.625128e+02  -8.711287e+01
   1.120018e+02   1.365608e+02
  -7.952339e+00   1.915095e+02
  -1.334903e+02   1.371519e+02
  -1.425365e+02  -2.089812e+01
  -5.302809e+01  -1.262466e+02
   2.050204e+00  -1.230322e+02
   3.154248e+01  -6.275208e+01
  -3.416691e+01   1.970302e+01
   5.935703e+01  -2.843996e+01
   3.995123e+01  -6.771934e+00
  -2.777071e+01  -3.540667e+01
   4.494401e+01   9.613320e+01
   6.886627e+01   1.093448e+02
  -6.802354e+01   6.390720e+01
  -8.636623e+01  -5.348288e+01
  -1.533124e+02  -5.896276e+01
  -4.969241e+01  -8.592892e+00
   5.179291e+01  -1.321234e+00
   1.010702e+02  -5.267728e+01
  -1.050299e+01  -9.544387e-01
  -2.778789e+01   5.500629e+01
  -6.385857e+01   4.279174e+00
   2.748504e+00   2.251598e+01
  -1.197893e+01  -3.682574e+01
  -7.003692e+01  -8.878106e+01
  -8.769663e+01  -4.094211e+01
   3.014490e+01  -4.438650e+01
   9.747967e+01  -1.158090e+02
   1.909094e+02  -4.704745e+01
   1.598797e+02   8.859373e+01
   8.064619e+01   1.550928e+02
  -8.878346e+01   1.511544e+02
  -9.913778e+01   5.812216e+01
  -1.037898e+02  -5.486682e+01
   1.356151e+01  -9.766700e+01
  -1.438234e+01  -3.333815e+01
   2.031033e+00   2.091193e+01
   4.700967e+00  -1.324197e+01
  -1.332614e+00  -1.026136e+02
  -4.681623e+01  -5.545656e+01
   7.870457e+01   6.806428e+01
   1.318250e+02   6.331437e+01
   2.877660e+01   1.210714e+02
  -5.579068e+01   3.905722e+01
  -1.429351e+02  -6.592650e+01
  -1.197743e+01  -9.633057e+01
   7.291654e+01  -7.133146e+01
   9.393406e+01   1.140522e+01
   1.177593e+02   9.705588e+01
  -5.704640e+01   4.828122e+01
  -5.645139e+01   5.807719e+01
   4.698480e+01  -7.171685e+00
   1.140133e+02  -1.172480e+01
  -3.108982e+00   5.037552e+01
  -9.283861e+01   5.778822e+01
  -1.249051e+02   1.138783e+02
  -7.331919e+01  -3.851904e+01
   4.485075e+01  -4.630121e+01
   1.678742e+02  -5.272813e+01
   4.846048e+01  -4.222393e+00
   4.450186e+01   4.286731e+01
  -5.231489e+01   4.739474e+01
  -1.071571e+01  -2.616008e+01
  -3.599843e+01  -5.249014e+01
   7.267657e+00  -3.402230e+01
   2.616734e+01   2.755309e+01
  -1.381856e+01   9.132401e+00
   1.731892e+01  -1.308959e+01
   2.581883e+01   2.178475e+01
  -8.117218e+01   1.988916e+00
  -4.841317e+01   5.056577e+01
  -5.756159e+01   4.442355e+01
   9.208839e+00   8.744244e+00
  -6.852607e+01  -4.446486e+01
   1.434651e+01  -1.046749e+02
   9.432140e+01  -4.166761e+01
   3.600481e+01   7.226546e+01
   4.069248e+01   3.775122e+01
  -7.472541e+01   7.820742e+01
  -6.373156e+01  -3.381799e+01
  -4.675024e+01  -6.174657e+01
   3.253683e+01  -6.542457e+00
   9.633149e+01  -2.062931e+01
   5.573045e+01   1.845819e+01
  -1.624357e+01   1.617834e+01
  -3.963443e+01  -2.106704e+01
   1.472016e+01  -5.650080e+01
   1.160226e+02  -3.540576e+00
