
 $NMID
 id='ANONYMOUS ', fmtdat='(2E16.6)'
 volume=1.0
 tramp=1.0
 $END
  -4.690514e+03  -7.359994e+01
  -2.608226e+03  -2.922918e+03
   9.406091e+02  -2.924871e+03
   2.349016e+03  -7.799699e+02
   8.999842e+02   8.080199e+02
  -8.336685e+02   6.532428e+02
  -1.000306e+03  -5.545730e+02
   8.468351e+01  -1.249791e+03
   9.577109e+02  -8.399684e+02
   1.053250e+03   1.681753e+02
   3.906855e+02   9.829960e+02
  -3.586626e+02   9.192415e+02
  -7.601788e+02   1.277199e+02
  -4.543525e+02  -8.092858e+02
   3.001334e+02  -7.472742e+02
   6.598515e+02   5.399553e+01
   2.316560e+02   7.736907e+02
  -3.767777e+02   6.404422e+02
  -6.043280e+02   7.902284e+01
  -3.645338e+02  -4.430972e+02
  -4.996776e+00  -4.456590e+02
   2.609893e+02  -2.779698e+02
   2.538589e+02   3.231450e+01
  -2.200662e+02   9.634574e+01
  -4.793084e+02  -5.282170e+01
  -2.319502e+02  -4.409004e+02
   4.965189e+02  -4.176249e+02
   9.228428e+02   3.945066e+01
   4.416400e+02   6.385329e+02
  -4.253109e+02   5.703561e+02
  -8.101415e+02  -5.574422e+01
  -4.245803e+02  -5.318732e+02
   2.571416e+02  -6.057227e+02
   5.798167e+02  -2.310833e+02
   4.043855e+02   2.849150e+02
   4.705277e+01   5.327983e+02
  -2.927438e+02   2.757352e+02
  -2.306711e+02  -2.027994e+02
   1.804809e+02  -4.238424e+02
   5.391883e+02   1.598605e+01
   2.675419e+02   7.832602e+02
  -3.843528e+02   7.557987e+02
  -6.890932e+02   5.912954e+00
  -3.466053e+02  -5.945557e+02
   3.409110e+02  -3.686720e+02
   4.220070e+02   3.619199e+02
  -6.127430e+01   5.877180e+02
  -5.405802e+02   1.596338e+02
  -5.767034e+02  -4.041783e+02
  -1.617607e+02  -6.299845e+02
   4.393522e+02  -3.797140e+02
   6.744526e+02   6.231891e+01
   3.570107e+02   4.828549e+02
  -1.966194e+02   3.899361e+02
  -4.934426e+02   3.849823e+00
  -2.418024e+02  -2.460174e+02
   1.656746e+02  -1.036453e+02
   1.427573e+02   1.698059e+02
  -1.781699e+02   2.167605e+02
  -3.344250e+02  -5.869668e+01
  -1.521118e+02  -3.363693e+02
   2.530701e+02  -2.653351e+02
   2.494900e+02  -3.791787e+01
   1.498799e+02   1.428399e+02
  -3.089312e+01   2.075715e+02
  -2.953705e+02   3.320111e+02
  -3.082567e+02   2.124824e+02
  -3.391395e+02  -1.831550e+02
  -6.307764e+01  -4.138985e+02
   1.878881e+02  -3.930467e+02
   1.516323e+02  -1.232427e+02
   6.430130e+00   3.678078e+01
  -3.136848e+01  -6.205959e+01
   2.098387e+02  -7.288442e+01
   2.865631e+02   8.062341e+01
   1.814917e+02   2.811196e+02
  -4.671009e+01   2.643879e+02
  -2.167940e+02   3.184571e+01
  -2.286572e+02  -2.623177e+02
   4.256945e+01  -3.059365e+02
   2.530827e+02  -1.505486e+02
   3.986439e+02   1.947493e+02
   2.474747e+02   4.248826e+02
  -1.343987e+02   3.496982e+02
  -2.525450e+02   1.328976e+02
  -1.362752e+02  -5.625487e+01
  -1.186285e+02   5.528194e+01
  -2.298839e+02   6.957836e+01
  -4.340129e+02  -9.054125e+00
  -2.941398e+02  -3.027681e+02
   3.791355e+00  -4.236871e+02
   3.582080e+02  -4.219874e+02
   5.108593e+02  -2.467002e+02
   2.811371e+02   1.222555e+02
   6.412838e+01   2.954862e+02
  -1.371371e+02   2.658236e+02
  -1.041320e+02   3.681702e+01
   1.070771e+02  -1.287522e+02
   2.069410e+02   3.426359e+01
   2.789661e+01   2.256085e+02
  -2.047276e+02   1.100719e+02
  -1.441096e+02  -9.973522e+01
   1.174522e+00  -2.022200e+02
   2.164383e+02  -6.381128e+01
   1.453492e+02   2.663018e+02
  -9.276231e+01   3.391004e+02
  -2.855453e+02   2.196232e+02
  -3.091264e+02  -5.790298e+01
  -2.871100e+02  -2.696549e+02
  -1.073824e+02  -2.923048e+02
   7.781333e+01  -1.725873e+02
   1.579406e+02  -3.476670e+01
   4.467800e+01  -1.110800e-01
  -9.709319e+01  -2.020512e+01
  -3.710568e+01  -1.427682e+02
   9.763441e+01  -1.243976e+02
   1.836891e+02  -2.208325e+01
   1.155646e+02   8.326233e+01
  -9.629157e+01   1.306526e+01
  -7.429190e+01  -1.211416e+02
   1.465524e+02  -8.685329e+01
   2.799040e+02   2.459225e+01
   2.781238e+02   1.616886e+02
   7.314284e+01   2.053791e+02
  -2.146568e+02   2.557858e+02
  -2.937840e+02   4.990185e+01
  -2.361425e+02  -1.046154e+02
  -3.643990e+01  -1.759136e+02
   9.370578e+01   3.392749e+01
  -5.588846e+00   8.845813e+01
  -1.899003e+02   3.596846e+01
  -2.190319e+02  -1.012581e+02
  -1.224121e+02  -2.452556e+02
   6.878735e+01  -1.755371e+02
   1.556561e+02  -1.749253e+01
   5.384882e+01   4.226501e+01
  -5.437762e+01   1.933945e+01
  -4.414100e+01  -6.832607e+01
   7.886746e+01  -1.423164e+02
   2.226468e+02  -3.203584e+01
   1.775424e+02   7.870054e+01
   7.009861e+00   2.296252e+02
  -2.026201e+02   1.512489e+02
  -1.639840e+02  -5.800653e+01
  -1.173471e+02  -1.035122e+02
   4.159238e+01  -1.017550e+02
   7.581953e+01  -3.725268e+01
   4.603778e+01   1.420666e+01
  -3.247446e+00   1.378403e+01
  -6.755753e+01   1.316872e+01
   4.588105e+01   8.542784e+00
   9.357423e+01   3.545219e+01
  -4.936546e+01   1.505590e+02
  -1.639481e+02   1.228936e+02
  -2.154898e+02   4.747859e+01
  -2.527993e+02  -1.294322e+02
  -3.503485e+01  -2.046120e+02
   1.941263e+02  -1.675621e+02
   1.534148e+02  -8.134436e+01
   1.363206e+02   1.234722e+02
  -2.135016e+01  -1.766548e+01
   2.059508e+01  -5.796787e+01
   8.765905e+01   4.664666e+01
   2.818983e+00   7.024370e+01
  -3.479790e+00   7.796097e+01
  -1.040413e+02   9.345146e+01
  -4.173051e+01   1.214756e+01
   1.690317e+01  -1.123324e+02
   1.317851e+02  -1.145598e+02
   2.246919e+02   3.795080e+01
   1.102088e+02   2.218366e+02
  -7.707084e+01   2.569895e+02
  -3.027977e+02   5.646741e+01
  -2.510257e+02  -1.539001e+02
  -1.176946e+02  -1.708789e+02
   4.332658e+01  -1.247990e+02
   1.095274e+02  -8.226400e+01
   4.256801e+01  -4.490837e+01
   1.785438e+01  -1.087870e+02
   8.441378e+01  -5.791130e+01
   1.862941e+02   2.149102e+01
   6.143904e+01   2.390393e+02
   5.858706e+01   2.135822e+02
  -8.463992e+01   2.177322e+02
  -1.960305e+02  -3.315532e+01
  -1.407794e+02  -1.475038e+02
  -5.277701e+01  -1.616423e+02
   3.761146e+01  -9.522912e+01
   5.625105e+01  -2.881339e+01
   1.382312e+01   1.539515e+01
   2.282480e+00   5.626927e+01
   4.052790e+01   3.009969e+01
   1.129005e+02   3.843194e+01
   3.037567e+01   4.499244e+01
  -1.929725e+01   1.582709e+01
  -1.454670e+02   8.503057e+01
  -8.876028e+01  -7.999326e+01
  -3.931439e+01  -1.343136e+02
   1.133743e+02  -3.908414e+01
   1.412653e+02  -1.656779e+01
   8.128552e+01   1.843382e+01
  -1.186986e+02   2.061478e+01
  -8.212573e+01   2.070600e+01
  -2.968120e+01  -8.172718e+01
   5.738130e+01   1.567642e+00
   3.196818e+01   5.253005e+01
   5.583086e+01   3.845203e+01
   3.776590e+01   3.023396e+01
   7.145209e+01   4.329929e+01
   7.994531e+01  -1.305086e+01
  -1.826586e+01   2.684428e+01
  -4.249255e+01   1.712015e+02
  -8.483467e+01   1.201973e+02
  -1.591735e+02   7.558182e+01
  -1.210012e+02  -8.330878e+01
  -2.456103e+01  -1.648564e+02
   1.055867e+02  -2.357101e+01
   5.342369e+00   2.407526e+01
  -5.007141e+01   3.312555e+00
  -1.494037e+02  -9.215990e+01
  -8.968408e+01  -1.713192e+02
   1.352991e+02  -1.082005e+02
   1.218612e+02  -4.745156e+01
   1.124633e+02   3.797183e+01
   4.728849e+01   1.287219e+02
  -3.561828e+01   7.655140e+01
  -5.781583e+01  -1.290284e+01
   3.451379e+01   6.029399e+00
   9.643810e+01   6.353315e+01
   1.661554e+01   8.535185e+01
  -1.203562e+02   1.520655e+02
  -1.240764e+02   5.320127e+01
  -1.537646e+02  -9.890535e+01
  -3.594450e+01  -2.306976e+02
   9.944557e+01  -1.451378e+02
   1.051893e+02   8.706763e+01
   4.816196e+01   1.283519e+02
  -4.372165e+00   1.103255e+02
  -5.630244e+01   4.282369e+01
  -7.339530e+01  -7.405526e+00
  -6.387770e+01  -2.764372e+01
   1.955894e+01   5.749563e+01
  -1.603468e+01  -7.688640e+01
  -5.261359e+01  -7.498017e+01
  -2.837840e+01  -8.429147e+01
   3.292071e+01   7.111275e+00
   9.634112e+01  -1.169853e+01
   9.031955e+01   6.228351e+01
  -2.712055e+01   3.934998e+01
  -8.770639e+01   5.611839e+01
  -1.443089e+02   5.060941e+01
  -1.283307e+01   4.337563e+01
  -1.377517e+01  -2.205923e+01
  -4.425610e+00   2.428154e+01
  -8.194185e+01  -4.197460e+01
   4.971039e+01   3.751309e+01
   2.409051e+01   4.848522e+01
   1.467404e+02   2.731697e+01
   1.252486e+01   1.040731e+02
  -1.372569e+02   1.032103e+02
  -1.406508e+02   8.492779e+01
  -1.754820e+02  -1.320207e+02
   2.386208e+01  -1.434607e+02
   8.639564e+01  -1.624709e+02
   1.297682e+02  -1.047334e+02
   9.351027e+01   2.484063e+01
  -1.670176e+00   4.500455e+01
   1.353613e+01   3.290468e+01
   2.173496e+01  -4.242333e+01
   1.866378e+01   3.072394e+01
   4.055968e+01   1.026139e+02
  -7.733421e+01   2.493490e+01
  -1.114267e+02  -4.867446e+01
  -7.587531e+01  -6.379371e+01
  -1.145279e+01  -1.256928e+02
   8.016362e+01  -1.454814e+01
   7.115548e+01   5.564166e+01
   5.542211e+01   1.239513e+02
  -7.319293e+01   5.833205e+01
  -1.435242e+02  -1.202641e+01
  -5.787261e+00  -3.915722e+01
   4.146119e+01   5.424808e+00
   3.731056e+01   3.581855e+00
  -1.873975e+01  -1.688441e+00
  -3.710745e+01   6.136977e+00
  -3.235026e+01   3.047412e+00
   3.253100e+01  -8.150494e+01
   1.333568e+02  -4.853326e+01
   3.845820e+01  -1.383044e+01
  -2.087486e+01   6.498230e+01
  -6.684829e+01   1.154318e+02
  -5.959213e+01  -4.276102e+01
  -1.936283e+01  -4.541308e+01
   1.978366e+01  -5.385967e+01
   8.336258e+01   1.426182e+01
   5.666580e+00   4.899609e+01
   7.441595e-01   2.775193e+01
  -2.104802e+01  -2.764332e+01
  -1.150297e+01  -9.253141e+01
   5.133149e+00  -1.119527e+00
   1.461586e+01   1.219476e+01
   6.516704e+00   5.102861e+01
   3.256624e+01   9.846170e+00
   2.969628e+01  -7.354477e+01
   9.881939e+01  -5.238339e+01
   1.199412e+00   5.901252e+01
  -2.399322e+00   9.803856e+01
  -3.330061e+01  -3.634846e+00
  -2.121234e+01  -5.040327e+01
  -2.316539e+01  -5.391608e+01
   8.740467e+01  -6.722330e+01
   9.353227e+01   1.421227e+01
   7.749421e+01   1.732235e+01
  -3.394738e+01   3.220336e+01
  -8.516171e+01   3.565077e+01
  -2.956697e+00  -1.651647e+01
   1.058607e+01   3.631584e+01
   5.687809e+00  -3.932366e+01
  -5.646946e+01   4.408882e+01
  -7.893831e+01   1.117567e+01
