
 $NMID
 id='ANONYMOUS ', fmtdat='(2E16.6)'
 volume=1.0
 tramp=1.0
 $END
  -3.617245e+03   1.463113e+02
  -2.368745e+03  -1.952851e+03
   1.498929e+02  -2.402164e+03
   1.554646e+03  -1.209399e+03
   1.000410e+03   1.491506e+02
  -1.403581e+02   4.685994e+02
  -5.574871e+02  -2.140612e+02
  -1.089851e+02  -7.050161e+02
   5.626279e+02  -7.284210e+02
   7.883242e+02  -4.689310e+01
   5.401961e+02   6.295439e+02
   2.403540e+01   6.938457e+02
  -4.513412e+02   1.994150e+02
  -3.034879e+02  -4.977202e+02
   1.252827e+02  -6.482200e+02
   5.085492e+02  -3.114029e+01
   3.060974e+02   5.235408e+02
  -1.735728e+02   5.984214e+02
  -5.287488e+02   2.167114e+02
  -4.338307e+02  -2.376894e+02
  -5.830280e+01  -3.440325e+02
   1.648554e+02  -3.191885e+02
   9.288476e+01  -7.328774e+01
  -1.356614e+02  -3.498467e+01
  -3.618864e+02  -2.019742e+02
  -3.651466e+01  -3.382865e+02
   4.729978e+02  -2.486760e+02
   6.620662e+02   1.067077e+02
   3.109603e+02   4.391690e+02
  -2.931029e+02   3.411683e+02
  -5.960479e+02  -7.674469e+01
  -2.453618e+02  -3.421628e+02
   2.208112e+02  -3.865019e+02
   4.947733e+02  -2.153769e+02
   3.445994e+02   1.242209e+02
   7.160635e+01   3.344636e+02
  -7.262761e+01   1.929235e+02
  -2.982483e+01  -1.674834e+02
   8.764006e+01  -2.749492e+02
   2.741462e+02   3.080183e+01
   1.239565e+02   5.229013e+02
  -2.800277e+02   5.467335e+02
  -4.418592e+02  -1.700283e+01
  -2.054662e+02  -4.419343e+02
   1.802976e+02  -1.863140e+02
   2.586744e+02   2.395958e+02
  -2.871692e+01   4.783280e+02
  -4.432878e+02   4.466630e+01
  -5.369287e+02  -3.363853e+02
  -1.334480e+02  -5.557045e+02
   3.688631e+02  -3.300178e+02
   4.985592e+02   5.051690e+01
   3.626938e+02   3.085697e+02
  -2.376869e+01   2.934413e+02
  -3.309183e+02   1.406157e+02
  -2.069260e+02  -1.425882e+02
   9.372559e+01  -1.684851e+01
   1.004535e+02   7.055024e+01
  -1.074549e+02   1.707599e+02
  -2.757075e+02  -7.383711e+01
  -1.727010e+02  -2.223115e+02
   1.588169e+02  -2.779196e+02
   3.177660e+02  -9.354367e+01
   2.154376e+02   1.049977e+02
  -2.308575e+01   3.045013e+02
  -2.492528e+02   3.223045e+02
  -3.077665e+02   1.860690e+02
  -3.050983e+02  -1.496211e+02
  -7.878098e+01  -3.634510e+02
   7.010755e+01  -3.020993e+02
   1.326270e+02  -1.563339e+02
   2.832881e+01  -3.800183e+01
   1.022196e+02  -3.023861e+01
   1.963395e+02  -1.052038e+02
   2.846711e+02   1.013631e+02
   1.053352e+02   2.525734e+02
  -3.893591e+01   2.509448e+02
  -1.195874e+02  -3.161259e+01
  -1.126800e+02  -2.375943e+02
   4.186187e+01  -2.352679e+02
   2.273575e+02  -9.667543e+01
   3.160981e+02   2.073341e+02
   1.464353e+02   2.876045e+02
  -1.016258e+02   2.339660e+02
  -2.306955e+02   1.337766e+02
  -1.736816e+02   6.641916e+01
  -1.204472e+02   5.363007e+01
  -2.917415e+02  -1.859224e+01
  -3.845578e+02  -1.092974e+02
  -3.022390e+02  -3.023125e+02
  -2.827915e+01  -4.146443e+02
   4.005626e+02  -3.808303e+02
   4.719688e+02  -2.058064e+02
   3.031110e+02   9.696552e+01
   7.076253e+01   2.671810e+02
  -1.239537e+02   2.044024e+02
  -7.637018e+01   2.694192e+01
   8.840760e+01  -7.101442e+01
   1.267878e+02  -6.681921e+01
   9.965601e+00   1.556615e+02
  -4.476993e+01   1.432808e+02
  -1.691081e+02  -6.835380e+01
  -8.973444e-01  -1.766450e+02
   1.846345e+02  -1.415236e+01
   1.242553e+02   2.690991e+02
   2.232943e+01   3.916055e+02
  -2.557091e+02   2.535991e+02
  -3.484513e+02  -1.145480e+02
  -2.481745e+02  -2.512611e+02
  -6.389295e+01  -2.730751e+02
   1.527298e+02  -1.465576e+02
   1.838952e+02   1.701826e+01
   7.881125e+01  -5.178981e+01
  -6.067621e+01  -1.661950e+01
  -4.087645e+01  -8.450303e+01
   1.244860e+02  -1.118572e+02
   1.103498e+02   2.903804e+01
   1.719284e+01   6.089292e+01
  -9.348745e+01   2.673751e+01
  -2.355663e+01  -3.519402e+01
   1.154179e+02  -9.747614e+01
   2.148397e+02   3.304058e+01
   2.359942e+02   1.565469e+02
   4.896675e+01   2.439154e+02
  -1.753221e+02   2.308456e+02
  -3.229583e+02   1.338327e+02
  -1.312910e+02  -3.092751e+01
  -3.063909e-01  -4.680703e+01
   8.140292e+01   7.369425e+00
  -5.169949e+01   8.241693e+01
  -1.432554e+02   1.180173e+02
  -2.205056e+02  -1.245932e+02
  -1.958320e+01  -1.760132e+02
   6.469513e+01  -1.084437e+02
   1.467379e+02   1.680723e+01
   1.022671e+02   3.813309e+01
  -7.018660e+00  -2.504864e+01
  -1.482686e+01  -1.325918e+02
   8.449593e+01  -1.387745e+02
   2.206916e+02  -1.594568e+00
   2.036425e+02   1.946410e+02
   1.451256e+01   1.985135e+02
  -1.559844e+02   1.579990e+02
  -1.393869e+02  -2.200645e+01
  -6.030024e+01  -9.425307e+01
   5.747202e+01  -1.220774e+02
   4.547108e+01  -6.410172e+01
   1.625759e+01   3.570035e+01
  -3.326084e+01  -2.893603e+01
   2.779946e+01  -2.360879e+01
   8.894555e+01  -2.614891e+01
   1.134580e+02   1.136851e+02
   1.887615e+01   1.640747e+02
  -1.121765e+02   1.691535e+02
  -1.825791e+02  -1.887203e+01
  -1.512966e+02  -1.600467e+02
  -1.080590e+02  -2.252599e+02
   8.732090e+01  -1.158341e+02
   1.709783e+02  -5.032554e+01
   4.285420e+01   2.848884e+01
   2.895010e+01  -4.188992e+01
   1.886842e+01   3.120849e+01
   7.978172e+01   6.523470e+00
   4.866526e+01   8.229487e+01
  -7.232063e+01   1.397564e+02
  -1.577630e+02   7.620290e+01
  -6.566823e+01  -6.534013e+01
   6.533977e+00  -7.140980e+01
   1.380748e+02  -5.042769e+01
   2.096693e+02   6.729890e+01
   1.347701e+02   2.311443e+02
  -1.163565e+02   2.714074e+02
  -2.039921e+02   5.055315e+01
  -2.007922e+02  -7.627969e+01
  -9.150330e+01  -9.192564e+01
   8.330097e+01  -1.421103e+02
   1.020017e+02  -6.933919e+01
   4.742546e+01  -8.435907e+01
   8.465204e+01  -9.082948e+01
   1.568851e+02  -1.022502e+02
   1.251227e+02   4.113836e+01
   7.641767e+01   1.380821e+02
   4.046020e+01   2.297390e+02
  -1.156079e+02   1.460117e+02
  -1.673860e+02  -1.248919e+01
  -1.963503e+02  -1.198920e+02
  -3.386522e+01  -1.901676e+02
   8.959145e+01  -8.809598e+01
   4.237262e+01  -5.979111e+01
   6.329656e+00   8.789338e+01
  -3.327279e+01   4.262914e+01
   6.938625e+00   2.457190e+01
   1.053153e+02   4.167590e+01
   1.417247e-01   4.643329e+01
  -1.071579e+02  -4.497194e+00
  -1.472564e+02   2.034879e+00
  -1.561574e+02  -4.425598e+01
  -1.706985e+01  -1.600853e+02
   1.128280e+02  -1.119808e+02
   1.024702e+02  -1.902251e+01
   3.747006e+01   6.341590e+01
  -5.066545e+01   9.641822e+00
  -3.085299e+01  -5.142166e+01
  -3.874685e+01  -1.057492e+02
   4.468248e+01  -6.595811e+01
   8.602678e+01   5.884897e+01
   4.160603e+01   2.534182e+01
   6.740559e+01   5.214099e+01
   8.917589e+01   7.391345e+00
   7.939801e+01   3.054580e+00
   2.102483e+01   4.404774e+01
  -5.752229e+01   2.049068e+02
  -8.188437e+01   8.968419e+01
  -1.816489e+02   4.159777e+01
  -1.547199e+02  -8.832962e+01
  -4.061963e+01  -4.037647e+01
   1.146469e+02  -4.259418e+01
   5.210064e+01  -1.601536e+00
   3.973558e+00  -2.404613e+00
  -1.198516e+02  -2.760304e+01
  -4.266192e+01  -6.090789e+01
   1.319408e+02  -1.544218e+02
   1.757668e+02  -3.459177e+01
   1.143599e+02   7.203147e+01
   6.960674e+01   8.406204e+01
  -6.127858e+01   8.790837e+01
  -1.103395e+02  -4.614868e+01
  -2.551038e+00  -2.948248e+01
   1.189490e+02   2.258356e+01
   5.159519e+01   9.655851e+01
  -5.707811e+01   1.272264e+02
  -1.210695e+02   4.984335e+01
  -1.074417e+02  -1.116385e+02
  -5.576899e+01  -1.775032e+02
   1.234236e+02  -1.474509e+02
   6.599648e+01   2.162277e+01
   6.147046e+01   1.385382e+02
   1.465777e+01   1.089477e+02
  -6.979678e+01  -8.103521e+00
  -7.428057e+01   7.263086e+00
  -4.255922e+01   6.453398e+00
  -1.943205e+00   4.041014e+01
  -1.833407e+01  -4.145755e+00
  -5.084372e+01  -5.558295e+01
  -2.096898e+00  -9.052703e+01
   2.515459e+01  -3.169174e+01
   1.719101e+02   7.639320e+01
   1.132073e+02   7.840678e+01
   8.085270e+00   2.448350e+01
  -8.132091e+01   1.769167e+01
  -9.330085e+01   5.423929e+01
   4.293998e-02   1.856184e+01
   4.986184e+01  -3.230379e+01
  -2.014550e+01  -1.104942e+01
  -4.877345e+01   8.020304e+00
   1.011795e+02  -1.685959e+00
   6.780165e+01   1.031773e+01
   8.165901e+00   7.378085e+01
   8.386787e+00   4.710497e+01
  -9.240796e+01   8.065711e+01
  -1.466619e+02   3.846628e+01
  -1.925110e+02  -9.618524e+01
  -1.967912e+01  -1.127708e+02
   7.525627e+01  -1.628229e+02
   1.272201e+02  -7.498196e+01
   1.144824e+02   1.943928e+01
   3.597422e+01  -3.054454e+00
   2.275530e+01   1.204143e+01
  -1.713471e+01   3.933260e+01
  -1.498370e+01   1.817360e+01
  -5.853061e+00   9.983746e+01
  -8.599818e+01   2.476221e+01
  -8.510825e+01   2.699268e+01
  -9.585952e+01  -1.232175e+02
   4.475802e+00  -9.002745e+01
   1.306465e+02  -4.051576e+01
   1.444414e+02   6.485388e+01
   2.979039e+01   1.611168e+02
  -5.438028e+01   7.867320e+01
  -8.201840e+01  -2.736285e+01
  -4.889328e+01  -8.539594e+01
   1.666964e+01  -8.465615e+01
  -6.535767e+00  -3.822614e+01
  -7.590894e+01  -4.674945e+00
  -7.386469e+01  -1.950033e+01
  -2.828210e+01  -5.400143e+01
   5.875109e+01  -2.843750e+01
   1.055124e+02  -4.712198e+01
   6.514513e+01   1.963524e+01
  -8.304851e+00   9.358606e+01
  -3.916030e+01   8.487846e+01
  -3.106635e+01   8.768634e+00
  -2.573707e+01  -5.258037e+01
   1.857269e+01  -8.877834e+01
   7.109783e+01  -2.253050e+00
   3.473499e+01   7.437485e+01
   7.046532e+01   2.437555e+01
  -6.778812e+01  -2.950019e+01
   1.478662e+01   3.408555e+01
  -4.573350e+01  -4.869499e+01
   1.456124e+01  -1.142921e+00
   1.877193e+01   5.693125e+01
   4.504382e+01  -8.007337e+01
   2.769698e+01   2.596604e+01
   7.866040e+00  -3.977599e+01
   1.353692e+01   7.910923e+01
   3.557220e+01   4.465673e+01
   2.079676e+01   2.866710e+01
  -3.349403e+01  -2.790532e+01
  -2.933575e+01  -7.159843e+01
   6.869908e+01  -1.229794e+00
   1.198077e+02  -1.218389e+01
   2.511546e+01   2.446864e+01
  -4.396283e+01   2.427272e+01
  -3.857895e+01   5.940983e+00
  -2.788894e+01   4.091494e+01
   7.878762e+01   3.407726e+01
   6.584534e+01   1.987853e+00
  -2.519291e+01   7.675136e+01
  -8.841814e+01  -1.216281e+01
