
 $NMID
 id='ANONYMOUS ', fmtdat='(2E16.6)'
 volume=1.0
 tramp=1.0
 $END
   4.602109e+03   2.519303e+01
   2.642237e+03   2.732565e+03
  -8.016334e+02   2.813648e+03
  -2.179590e+03   8.279615e+02
  -8.822788e+02  -7.145334e+02
   7.622649e+02  -6.141638e+02
   9.473840e+02   4.576588e+02
  -7.934038e+01   1.188217e+03
  -9.171394e+02   8.283738e+02
  -9.302387e+02  -1.982844e+02
  -4.683187e+02  -9.242280e+02
   2.437189e+02  -9.138846e+02
   6.742499e+02  -3.086353e+01
   3.276560e+02   7.977685e+02
  -3.054858e+02   7.359160e+02
  -6.290427e+02   2.104951e+01
  -2.685731e+02  -6.905755e+02
   3.407132e+02  -5.989165e+02
   6.132624e+02  -3.662013e+01
   4.022998e+02   3.822786e+02
   5.998958e+00   4.116215e+02
  -2.318410e+02   3.017863e+02
  -2.456622e+02  -4.955329e+01
   1.035824e+02  -8.994303e+01
   3.696351e+02   1.078731e+02
   1.867041e+02   5.021067e+02
  -5.361546e+02   4.315528e+02
  -9.098219e+02  -1.175436e+02
  -4.497928e+02  -5.694987e+02
   4.693001e+02  -5.493654e+02
   7.835733e+02   2.257176e+00
   3.529485e+02   4.890788e+02
  -2.920661e+02   5.276534e+02
  -5.612167e+02   1.931563e+02
  -3.875857e+02  -2.844888e+02
  -8.304661e+01  -4.822072e+02
   2.058365e+02  -2.700018e+02
   1.485266e+02   2.205342e+02
  -1.602584e+02   4.513775e+02
  -4.800871e+02  -3.062806e+01
  -2.874384e+02  -7.480688e+02
   3.304856e+02  -6.872913e+02
   7.015619e+02   1.871293e+01
   2.541257e+02   5.570705e+02
  -3.353121e+02   3.778553e+02
  -4.542256e+02  -3.487654e+02
   1.353863e+02  -5.684952e+02
   6.335786e+02  -1.915032e+02
   6.154219e+02   4.191725e+02
   1.877996e+02   6.756638e+02
  -3.773612e+02   3.476883e+02
  -6.569923e+02  -5.280276e+01
  -3.801684e+02  -3.566207e+02
   1.743071e+02  -3.660043e+02
   4.520612e+02  -4.602659e+01
   2.687950e+02   2.010953e+02
  -7.881958e+01   1.282785e+02
  -1.420424e+02  -1.775797e+02
   1.922890e+02  -2.005739e+02
   3.734951e+02   8.121235e+01
   1.936703e+02   3.334369e+02
  -2.145280e+02   2.867456e+02
  -3.002870e+02   1.128897e+02
  -1.974131e+02  -2.157692e+01
   4.329193e+01  -2.310150e+02
   2.130815e+02  -2.991330e+02
   3.563298e+02  -2.634265e+02
   2.873446e+02   1.467311e+02
   9.052370e+01   4.577216e+02
  -9.681054e+01   4.336169e+02
  -1.062899e+02   1.603486e+02
  -1.397664e+01  -9.977500e+00
  -1.264942e+02   8.791922e+01
  -2.292996e+02   1.512585e+02
  -3.024748e+02  -8.464333e+01
  -1.565031e+02  -2.631846e+02
   6.360898e+01  -2.769130e+02
   2.481347e+02  -5.979300e+00
   1.740929e+02   3.046676e+02
  -3.090576e+01   3.529742e+02
  -3.070190e+02   7.585728e+01
  -3.467647e+02  -1.706381e+02
  -1.513783e+02  -3.313246e+02
   8.651500e+01  -2.898338e+02
   2.198997e+02  -1.398702e+02
   1.639269e+02   9.181433e-01
   1.241491e+02  -4.687091e+01
   2.562411e+02  -7.763302e+01
   4.213053e+02   3.521183e+01
   3.416087e+02   2.844384e+02
   3.350739e+00   4.110066e+02
  -4.203252e+02   4.423789e+02
  -4.902587e+02   2.361564e+02
  -3.694316e+02  -1.121908e+02
  -8.388495e+01  -3.713844e+02
   1.006298e+02  -2.110653e+02
   6.948215e+01  -3.585652e+01
  -6.968089e+01   9.449450e+01
  -1.895666e+02   3.395767e+01
  -5.309248e+01  -2.386687e+02
   1.617032e+02  -1.801386e+02
   1.694531e+02   8.305322e+01
   2.876540e+01   2.053091e+02
  -1.951119e+02   6.302888e+01
  -1.508984e+02  -2.376379e+02
   8.204001e+01  -3.243268e+02
   1.925845e+02  -1.909745e+02
   3.550024e+02   5.556140e+01
   2.780073e+02   2.442142e+02
   7.816826e+01   3.205493e+02
  -1.131226e+02   1.610998e+02
  -1.865155e+02   6.090262e+01
  -5.969742e+01   1.380327e+01
   8.019986e+01  -4.790416e+01
   2.042875e+01   1.227409e+02
  -1.422158e+02   6.922723e+01
  -2.168922e+02   4.029892e+01
  -5.906634e+01  -7.194240e+01
   5.566944e+01  -2.035857e+01
   7.558239e+01   1.024612e+02
  -1.152416e+02   7.577348e+01
  -3.250660e+02  -6.172238e+00
  -3.026107e+02  -1.544336e+02
  -2.536716e-02  -2.553885e+02
   1.542621e+02  -2.593060e+02
   2.695388e+02  -1.970811e+02
   2.191758e+02   6.092481e+01
  -4.182374e+01   1.037183e+02
  -8.369058e+01  -2.243623e+01
   1.483840e+01  -7.601819e+01
   1.821705e+02  -3.090616e+01
   1.964539e+02   7.301102e+01
   3.592193e+01   2.654545e+02
  -7.424552e+01   1.495613e+02
  -1.494706e+02  -1.542539e+01
  -8.976672e+01  -1.145300e+01
   1.581706e+01   2.259389e+01
   2.470378e+00   8.101006e+01
  -6.382168e+01   1.338420e+02
  -2.297065e+02   2.966910e+01
  -1.847888e+02  -1.633205e+02
  -5.083048e+01  -2.004750e+02
   1.524545e+02  -2.191716e+02
   1.823492e+02  -1.044321e+01
   9.150017e+01   1.272809e+02
  -8.430732e+01   8.597104e+01
  -5.624949e+01   3.713931e+01
   2.719609e+01  -4.133578e+01
   3.244145e+01  -1.110091e+01
  -1.269757e+01   3.151864e+01
  -9.520832e+01  -9.762384e+00
  -1.132190e+02  -7.266168e+01
  -1.092947e+01  -1.527838e+02
   1.216724e+02  -2.396148e+02
   2.344441e+02   1.509956e+01
   1.957587e+02   1.776259e+02
  -8.567710e+00   2.612862e+02
  -1.332840e+02   1.810195e+02
  -1.579181e+02   2.963083e+01
  -1.016724e+02  -4.954971e+01
   1.827523e+01   2.806116e+01
  -1.738673e+01   3.055907e+01
  -9.798941e+01  -4.537006e+01
  -4.847103e+01  -5.178547e+00
   2.938818e+01  -1.442666e+02
   1.131440e+02  -3.827687e+01
   6.213090e+01   3.442611e+01
  -1.002670e+01   6.785202e+01
  -1.176036e+02   8.253866e+01
  -2.228330e+02  -6.138148e+01
  -1.235113e+02  -2.319087e+02
   1.460632e+02  -2.717367e+02
   2.751748e+02  -1.176559e+02
   2.518716e+02   1.159528e+02
   6.958256e+01   1.381588e+02
  -6.803664e+01   9.806882e+01
  -1.278864e+02   1.197921e+02
  -7.553125e+01   7.225080e+01
  -4.622620e+01   9.897900e+01
  -9.352714e+01   9.730918e+01
  -1.382329e+02   9.112836e+00
  -1.596284e+02  -1.963129e+02
  -9.562955e+01  -2.085094e+02
   1.389972e+02  -1.690217e+02
   1.908109e+02  -3.698811e+00
   1.767311e+02   1.755900e+02
  -2.253593e-02   1.297303e+02
  -6.463037e+01   1.001275e+02
  -8.257920e+01  -1.217232e+01
   5.115310e+00  -5.136406e+01
  -3.105377e+01  -1.906422e+01
  -2.024478e+01  -2.750087e+01
  -8.631212e+01   7.380250e+00
  -2.018742e+01  -2.846433e+01
   7.411129e+01  -8.518995e+01
   1.579477e+02   2.715532e+01
   1.415928e+02   4.624968e+01
  -2.254472e+01   8.049103e+01
  -9.873322e+01   9.750949e+01
  -1.798213e+02   1.683032e+01
  -3.784126e+01  -3.741009e+01
   9.323993e+01  -1.696097e+01
   6.024733e+01   2.696514e+01
  -2.935252e+01   2.622472e+01
  -6.868271e+01   9.812525e+01
  -7.030998e+01   2.113305e+01
  -4.690966e+01  -9.353708e+01
  -7.568772e+01  -2.291719e+00
  -8.060935e+01   7.131552e+01
  -9.527509e+01  -3.481810e+01
  -3.612144e+01  -1.088248e+02
   1.324356e+01  -1.794474e+02
   1.520151e+02  -1.462493e+02
   1.896178e+02  -9.118224e+01
   1.147648e+02   7.318567e+01
  -2.505162e+00   1.108925e+02
  -1.336662e+02   5.402048e+01
  -1.167323e+02  -3.773111e+01
  -1.083082e+00  -1.325174e+01
   1.556102e+02   6.283881e+01
   1.018890e+02   8.108034e+01
  -8.689546e+01   1.177282e+02
  -2.131109e+02   3.348773e+01
  -2.004160e+02   3.030323e+01
  -6.958113e+01  -1.192087e+02
   6.715648e+01  -5.766730e+01
   1.321779e+01  -3.406101e+01
  -4.433781e+01   3.641604e+00
  -7.932444e+01  -5.375349e+01
  -4.467066e+01  -1.400250e+02
   9.487650e+01  -1.963610e+02
   1.953495e+02  -2.412027e+01
   1.553288e+02   1.130686e+02
   1.003159e+02   2.390668e+02
  -6.375414e+01   1.370528e+02
  -1.067449e+02  -1.458275e+01
  -6.107104e+01  -1.417643e+02
   1.665681e+01  -9.003532e+01
   6.452009e+01   1.409475e+01
   5.468091e+01   2.988162e+01
   3.558684e+01  -8.254886e-01
  -3.774868e+00  -6.003514e+00
   2.535771e+01   1.931250e+01
   3.870250e+01   8.047122e+01
   9.717454e+01   7.521039e+01
  -3.786986e+00   2.841034e+01
  -1.459373e+02  -6.608822e+01
  -8.321245e+01  -9.106721e+01
  -7.808143e+00  -7.304139e+01
   6.926727e+01  -3.620146e+00
   2.278893e+01  -9.799961e+00
  -1.276880e+01   1.891071e+01
  -1.159545e+01   4.424568e+01
  -2.796652e+01   7.336634e+00
   2.265162e+01   3.327718e+01
  -3.654549e+01  -1.403056e+01
  -7.609751e+01   1.242550e+01
  -1.024731e+02  -9.040721e+01
   1.000775e+01  -6.903373e+01
   1.358287e+02  -1.057791e+02
   2.013850e+02  -5.375389e+01
   1.319913e+02   5.875093e+01
   3.538552e+01   1.692403e+02
  -7.035389e+01   1.883976e+02
  -1.172808e+02   4.554120e+01
  -1.179464e+02  -1.937626e+01
  -5.483246e+01  -1.809284e+01
   5.574583e+00   1.187748e+01
   4.118743e+01  -1.264540e+01
  -4.687758e+01  -5.064484e+01
  -6.520482e+00  -4.774836e+01
  -9.851672e+00  -5.523963e+01
   9.294705e+01   6.442057e+01
   3.793682e+01   1.009761e+02
   2.270371e-01   7.136205e+01
  -7.576002e+01   9.989363e+01
  -1.297395e+02  -9.276095e+01
  -6.164601e+01  -9.635103e+01
   4.761103e+01  -4.364998e+01
   6.204196e+01  -4.505246e+00
   6.506743e+01  -1.369824e+01
  -4.657905e+01   1.158745e+01
  -4.450213e+01   3.252633e+01
   5.466318e+01  -1.286161e+01
   7.505599e+01  -3.923100e+01
   1.153167e+01   2.113063e+01
  -1.304192e+02   9.545348e+01
  -8.296583e+01   3.977737e+01
  -1.020243e+02  -6.702498e+01
   6.019107e+01  -1.196078e+02
   1.347982e+02  -7.793979e+01
   1.673016e+01   1.515782e+01
   1.608220e+01   3.574700e+01
  -5.077410e+01   6.273057e+01
  -4.301844e+01  -2.692567e+01
   1.066724e+01  -7.467287e+01
   3.849544e+01  -6.348475e+00
   3.805809e+01   3.859596e+01
   4.078399e+01   3.002569e+01
  -1.415780e+01   8.414744e+00
  -2.176526e+01  -2.254565e+01
  -8.461440e+00  -2.075044e+01
   2.679178e+01  -2.476794e+00
  -1.535988e+01   6.392571e+01
  -4.732571e+01  -1.271717e+01
   1.597217e+01  -2.514603e+01
  -1.312131e+01  -8.733191e+01
   6.857094e+01   6.969358e+00
   9.246384e+01   4.930839e+01
  -1.991138e+01   7.058705e+01
  -7.034356e+01   4.524706e+01
  -1.511619e+02  -2.630781e+01
  -5.942819e+01  -5.936074e+01
   1.846663e+00  -1.857829e+01
   1.036117e+02  -7.766080e+00
   7.845662e+01  -4.903007e+01
  -3.072432e+01  -3.141482e+00
  -3.088006e+00  -1.306872e+01
   8.746939e+01  -4.066014e+01
   7.432602e+01   7.887688e+00
