
 $NMID
 id='ANONYMOUS ', fmtdat='(2E16.6)'
 volume=1.0
 tramp=1.0
 $END
   4.519131e+03  -3.968596e+01
   2.622135e+03   2.829028e+03
  -7.967484e+02   2.855369e+03
  -2.211564e+03   9.158454e+02
  -9.503290e+02  -7.238288e+02
   7.870959e+02  -5.900078e+02
   9.814971e+02   5.130218e+02
  -1.285193e+01   1.143606e+03
  -9.012689e+02   7.924090e+02
  -9.681616e+02  -1.247460e+02
  -4.883143e+02  -8.858957e+02
   2.540034e+02  -9.168509e+02
   7.153081e+02  -9.378905e+01
   3.715883e+02   8.078444e+02
  -2.758367e+02   7.375255e+02
  -6.231749e+02   4.493044e+01
  -2.053301e+02  -7.662908e+02
   3.610796e+02  -6.735448e+02
   5.771676e+02  -4.238785e+01
   4.079695e+02   4.058371e+02
   1.392952e+01   5.206354e+02
  -2.431090e+02   2.124826e+02
  -2.629941e+02  -2.923874e+01
   1.314857e+02  -4.125719e+01
   4.497580e+02   1.408963e+02
   2.164774e+02   4.639810e+02
  -4.293875e+02   4.582081e+02
  -9.018377e+02  -5.291269e+01
  -4.896003e+02  -6.338933e+02
   4.129610e+02  -5.000886e+02
   7.181093e+02   3.652195e+01
   3.536000e+02   5.350398e+02
  -3.410978e+02   5.874080e+02
  -5.912647e+02   2.024919e+02
  -3.940345e+02  -1.919527e+02
  -7.360822e+01  -5.112995e+02
   1.944853e+02  -2.840136e+02
   1.506247e+02   2.367378e+02
  -1.798570e+02   4.259947e+02
  -4.865306e+02   2.816925e+00
  -2.672132e+02  -6.978377e+02
   3.308451e+02  -7.214615e+02
   6.525746e+02  -3.633166e+01
   2.687253e+02   5.865606e+02
  -3.080335e+02   3.318605e+02
  -3.881688e+02  -3.367719e+02
   9.542598e+01  -5.715539e+02
   6.027366e+02  -1.207355e+02
   6.517170e+02   4.814144e+02
   1.583045e+02   6.060793e+02
  -4.060692e+02   3.987787e+02
  -6.781549e+02  -8.812982e+01
  -3.321981e+02  -3.804201e+02
   1.882013e+02  -4.282836e+02
   4.860313e+02  -4.539753e+01
   2.746896e+02   2.625094e+02
  -1.360262e+02   1.059021e+02
  -2.225411e+02  -1.975129e+02
   1.952885e+02  -2.189488e+02
   3.719353e+02   7.306119e+01
   9.052769e+01   2.488960e+02
  -1.928953e+02   2.726145e+02
  -3.356051e+02   8.637252e+01
  -1.950948e+02  -5.473018e+01
   2.376766e+01  -2.025732e+02
   2.318128e+02  -3.671522e+02
   3.020635e+02  -2.158897e+02
   3.792171e+02   2.000053e+02
   1.028181e+02   4.484911e+02
  -1.627449e+02   3.866296e+02
  -1.652251e+02   1.155758e+02
  -6.673664e+01  -1.740821e+01
  -4.378819e+01   1.146674e+02
  -2.100691e+02   1.798264e+02
  -3.508783e+02  -5.838540e+01
  -1.149450e+02  -2.724965e+02
   7.628574e+01  -2.798430e+02
   1.696903e+02  -2.748313e+00
   2.012458e+02   2.125482e+02
   4.852550e+00   3.393217e+02
  -2.246001e+02   1.106813e+02
  -3.702474e+02  -1.950837e+02
  -2.861962e+02  -3.658023e+02
   1.868140e+02  -3.533463e+02
   2.418927e+02  -7.766271e+01
   1.926828e+02   8.960519e+00
   1.464440e+02  -7.070831e+01
   2.843793e+02  -6.688889e+01
   4.194842e+02   4.144926e+01
   3.147390e+02   2.464547e+02
  -2.895651e+01   4.702971e+02
  -3.194476e+02   3.854284e+02
  -5.100929e+02   2.343749e+02
  -3.350723e+02  -9.121077e+01
  -2.939681e+01  -3.363711e+02
   1.349208e+02  -2.655992e+02
   1.255303e+02   1.213326e+01
  -1.068952e+02   1.286135e+02
  -1.800481e+02  -5.597946e+01
  -4.005169e+01  -2.184121e+02
   1.513430e+02  -1.450543e+02
   1.716776e+02   6.655397e+01
  -3.747135e-01   1.808172e+02
  -1.816826e+02  -3.073237e+00
  -1.815873e+02  -3.279124e+02
   4.481728e+01  -2.458175e+02
   2.582882e+02  -1.827524e+02
   3.845622e+02   1.189175e+02
   2.992774e+02   2.058189e+02
   7.545160e+01   3.497358e+02
  -9.284656e+01   1.761032e+02
  -1.427650e+02  -4.800594e+00
  -9.341473e+01   1.497354e+01
   9.991729e+01   8.036145e+01
   7.061838e+01   1.264397e+02
  -9.791667e+01   6.322172e+01
  -2.120819e+02  -5.668257e+01
  -1.053494e+02  -9.708978e+01
   1.166652e+02  -3.073519e+01
   8.005793e+01   9.142560e+01
  -1.625823e+02   9.392926e+01
  -2.662429e+02   8.337523e+01
  -2.441712e+02  -1.119842e+02
  -1.048237e+02  -2.681614e+02
   1.790155e+02  -2.941925e+02
   3.303837e+02  -1.388534e+02
   1.941845e+02   8.445913e+01
  -1.531026e+01   9.966285e+01
  -9.818427e+01  -2.383578e+01
   3.017631e+01  -1.565215e+02
   2.064264e+02  -6.425854e+01
   2.210830e+02   9.767006e+01
   7.981553e+01   1.512344e+02
  -3.891638e+01   1.298083e+02
  -1.568965e+02   5.679278e+01
  -3.009047e+01  -8.982823e+01
   8.129232e+01  -2.826983e+01
  -9.118974e+00   7.532660e+01
  -4.456580e+01   1.668172e+02
  -2.147191e+02   3.475287e+01
  -2.034755e+02  -1.591099e+02
   1.397566e+01  -2.086134e+02
   2.077255e+02  -1.446723e+02
   1.967294e+02  -2.204765e+01
   8.956842e+01   1.549241e+02
  -8.262596e+01   1.509838e+02
  -8.940451e+01   4.501047e+01
  -6.084500e+01  -3.713351e+01
   8.455981e+01  -4.188623e+01
   7.023880e+00  -1.400293e+01
  -9.895688e+01  -2.100234e+01
  -1.555202e+02  -1.296467e+02
  -1.099685e+01  -1.685437e+02
   9.878164e+01  -1.688385e+02
   2.699898e+02   2.480419e+01
   2.300589e+02   1.720600e+02
   6.339526e+01   2.011386e+02
  -1.582985e+02   1.780552e+02
  -1.446540e+02   2.074015e+01
  -1.007385e+02  -3.961417e+01
  -9.774135e+01  -5.817344e+01
  -6.771591e+01  -5.188712e+00
  -8.750034e+01   6.379582e+01
  -6.668763e+01  -4.384010e+01
   3.529670e+01  -1.131066e+02
   1.530272e+02  -4.208216e+01
   8.850527e+01  -3.911817e+01
  -3.483248e+01   1.115207e+02
  -1.414448e+02   6.641124e+01
  -1.684465e+02  -1.021283e+02
  -1.137251e+02  -1.904719e+02
   1.453505e+02  -2.359740e+02
   2.907588e+02  -1.116237e+02
   2.591600e+02   7.032324e+01
   1.049733e+02   1.771062e+02
  -7.196811e+01   1.189889e+02
  -1.042926e+02   6.507253e+01
  -3.835845e+01   9.530780e+01
  -8.292954e+01   1.484202e+02
  -5.120379e+01   6.022007e+01
  -1.303146e+02   1.788427e+01
  -1.059017e+02  -1.038920e+02
  -6.814841e+01  -1.975511e+02
   1.094644e+02  -1.421595e+02
   1.534076e+02  -4.318711e+01
   1.466314e+02   1.503251e+02
   3.729337e+01   1.321905e+02
  -6.230712e+01   1.270913e+02
   1.856523e+01   1.814716e+01
  -5.962823e+01  -1.023647e+02
   3.054904e+00  -4.349485e+01
  -2.891053e+01  -1.121292e+01
  -1.034212e+02  -5.634078e+01
  -1.162289e+02  -7.088039e+01
   2.200498e+00  -4.127634e+01
   1.528283e+02  -2.539189e+01
   1.715998e+02   1.192407e+01
   1.329466e+01   1.044265e+02
  -1.452773e+02   6.375670e+01
  -1.820992e+02  -1.054490e+01
  -1.502483e+01  -8.169896e+01
   9.142850e+01  -6.209296e+00
   3.874131e+01  -3.517047e+00
   2.406175e+01   1.352723e+02
  -5.546724e+01  -4.043408e+00
  -9.797551e+01  -4.630458e+01
  -4.564864e+01  -3.809578e+01
  -1.056506e+01  -1.054021e+02
  -6.156606e+01  -4.536207e+01
  -7.789687e+01   1.699605e+00
   1.886376e+01  -6.111890e+01
   5.475835e+01  -2.055989e+02
   9.328900e+01  -1.301183e+02
   1.203008e+02  -7.935479e+00
   1.792682e+02   5.517427e+01
  -4.866123e+01   1.214936e+02
  -1.207554e+02   3.977499e+01
  -8.390872e+00  -1.285525e+00
   8.262826e+01   2.497335e+01
   1.857763e+02   3.880336e+01
   8.626800e+01   7.127909e+01
  -1.159822e+02   1.220349e+02
  -1.465138e+02   2.847215e+01
  -1.161737e+02  -1.579983e+00
   1.519709e+01  -9.513676e+01
   5.771346e+01  -5.629903e+01
   3.922309e+01  -3.946260e+01
  -5.892490e+01   2.606223e+01
  -8.566638e+01   5.237927e+00
  -1.396483e+02  -1.775309e+02
   1.376496e+02  -2.248534e+02
   1.761413e+02  -5.681805e+01
   1.004418e+02   9.590328e+01
   5.724155e+00   2.142315e+02
  -5.327794e+01   1.064200e+02
  -5.184936e+01  -2.564212e+01
  -1.245159e+00  -9.955041e+01
   1.773802e+01  -1.043257e+02
   8.292512e+01  -3.344306e+01
   6.649526e+01  -6.807301e+00
   2.195903e+01   2.056966e+01
  -5.527565e+01  -4.373322e+01
  -2.776007e+01   3.617693e+01
   7.562499e+01   1.275362e+02
   5.541158e+01   1.000736e+02
  -5.722053e+01   4.061017e+01
  -1.106536e+02  -3.994260e+01
  -1.270157e+02  -7.102802e+01
  -5.101072e+01  -2.081971e+01
   4.118839e+01  -1.791952e+01
   1.126406e+02  -3.350274e+01
   1.714828e+00   2.747351e+01
  -4.099745e+01   2.813844e+01
   5.022714e+01   2.824417e+01
   1.168672e+02  -2.749689e+01
  -2.534431e+01  -4.602152e+01
  -1.183587e+02  -2.733135e+01
  -1.051577e+02  -1.669371e+01
   4.259810e+01  -6.813712e+01
   7.610380e+01  -8.209462e+01
   2.276998e+02  -4.758227e+01
   1.520495e+02   2.198360e+01
   2.026770e+01   1.784521e+02
  -6.859315e+01   1.363691e+02
  -1.596359e+02   8.425667e+01
  -8.177953e+01  -1.308662e+01
  -9.620277e+01  -1.366903e+01
  -5.864142e+00   1.855140e+01
   8.602950e+00   1.241400e+01
  -2.316939e+01  -6.254696e+01
  -4.446529e+00  -3.820509e+01
   5.370409e+01  -1.224489e+02
   1.063703e+02   6.158325e+01
   8.080803e+01   1.233689e+02
  -3.793936e+01   6.638800e+01
  -6.014760e+01   4.533658e+01
  -7.885703e+01  -4.597221e+01
  -3.482849e+01  -9.395960e+01
   6.650885e+01  -5.312699e+01
   9.550528e+01  -1.036749e+01
   6.313480e+01   7.191729e+01
  -3.540804e+01   3.087854e+01
   1.041279e+01   9.868806e+00
   3.079838e+01   5.080725e+01
   1.176138e+02   9.572018e+00
   2.446259e+01   1.464476e+01
  -1.245209e+02   9.153479e+01
  -1.592956e+02   7.620321e+01
  -9.488807e+01  -2.546213e+01
  -4.826604e+01  -1.172773e+02
   8.266702e+01  -1.071302e+02
  -2.509810e+01  -1.346714e+01
  -2.311223e+00   4.161701e+01
  -4.787538e+01   9.858548e+00
  -7.505440e+01  -2.474788e+01
  -1.949746e+01  -4.116091e+01
  -4.034377e+00  -2.786021e+01
   1.986380e+01  -1.482202e+01
   7.522357e+01   3.678030e+01
  -7.350039e+00  -6.938311e+01
  -1.794604e+01  -3.353711e+01
  -1.296090e+01   1.459064e+01
  -4.583835e+00   1.733263e+00
   1.916642e+01   2.254484e+01
   1.057932e+00   7.450142e-01
  -4.197971e+01  -2.703693e+01
   1.357392e+01  -4.063917e+01
   4.535184e+01  -4.741894e+01
   5.885133e+01   6.475583e+01
   5.674687e+01   5.699768e+01
  -6.159661e+01   3.239335e+01
  -9.119948e+01   1.491889e+01
  -2.217919e+01  -4.492702e+01
   4.552517e+01  -4.800608e+01
   7.816062e+01   1.986245e+00
   8.223504e+01  -7.927995e+00
   7.684908e+00  -9.368004e+00
  -2.814197e+01  -4.008558e+01
   2.423744e+01  -6.839563e+01
   9.191447e+01  -2.964946e+01
