
 $NMID
 id='ANONYMOUS ', fmtdat='(2E16.6)'
 volume=1.0
 tramp=1.0
 $END
   3.823024e+03   1.292632e+01
   2.373479e+03   2.143195e+03
  -4.217719e+02   2.392777e+03
  -1.693932e+03   1.011037e+03
  -9.541209e+02  -3.044129e+02
   3.311496e+02  -4.033152e+02
   6.048198e+02   3.151507e+02
  -1.269705e+01   8.382559e+02
  -7.060862e+02   6.829048e+02
  -7.907025e+02  -3.796730e+01
  -4.259263e+02  -6.529830e+02
   1.257129e+02  -7.437903e+02
   5.193011e+02  -1.382032e+02
   3.232263e+02   5.140035e+02
  -1.785179e+02   6.986369e+02
  -5.529432e+02  -6.611172e+00
  -2.582230e+02  -6.288497e+02
   2.285661e+02  -6.619967e+02
   5.997736e+02  -1.590605e+02
   4.607178e+02   2.649481e+02
   7.877817e+01   3.706086e+02
  -1.826118e+02   2.989964e+02
  -1.839020e+02   8.832820e+00
   1.510617e+02  -2.988680e+00
   3.226886e+02   1.229634e+02
   6.870394e+01   4.130983e+02
  -4.312562e+02   2.895311e+02
  -7.403367e+02  -1.682056e+02
  -3.071033e+02  -4.366727e+02
   3.646852e+02  -3.610392e+02
   6.118865e+02   2.703969e+01
   2.519384e+02   4.252624e+02
  -2.997629e+02   4.224857e+02
  -5.231790e+02   1.566412e+02
  -3.737656e+02  -2.241526e+02
  -5.698262e+01  -4.068133e+02
   1.509648e+02  -2.437914e+02
   1.063771e+02   1.542354e+02
  -1.440286e+02   2.753447e+02
  -3.874536e+02  -7.408805e+01
  -1.079955e+02  -5.683564e+02
   3.172289e+02  -5.679655e+02
   5.104019e+02  -1.633891e+01
   2.236771e+02   4.513586e+02
  -2.181193e+02   2.285373e+02
  -3.144714e+02  -2.985020e+02
   8.196137e+01  -4.987763e+02
   4.672177e+02  -2.702487e+01
   5.455342e+02   3.775745e+02
   1.410380e+02   4.828715e+02
  -3.417033e+02   2.753384e+02
  -5.852631e+02  -9.046759e+01
  -3.277370e+02  -2.800614e+02
   7.800736e+01  -3.341277e+02
   3.712438e+02  -9.057511e+01
   2.407150e+02   6.132769e+01
  -7.665168e+01   4.722758e+01
  -9.827069e+01  -9.326279e+01
   9.504204e+01  -8.873234e+01
   3.021591e+02   2.912651e+01
   1.177693e+02   2.085940e+02
  -1.183981e+02   2.520018e+02
  -2.771015e+02   1.193909e+02
  -2.815372e+02  -8.738834e+01
   2.007567e+01  -2.918150e+02
   1.847776e+02  -3.385302e+02
   3.625963e+02  -1.692011e+02
   2.914993e+02   1.145611e+02
   8.533963e+01   4.145504e+02
  -5.296457e+01   2.873763e+02
  -1.151260e+02   9.369195e+01
  -1.459128e+01   2.957483e+00
  -6.076996e+01   8.480609e+01
  -2.609025e+02   8.762171e+01
  -2.094183e+02  -2.847119e+01
  -9.315470e+01  -2.372326e+02
   7.939221e+01  -2.338388e+02
   1.948543e+02   6.133682e+01
   1.731480e+02   2.012605e+02
  -4.107817e+01   2.395977e+02
  -3.154097e+02   1.007226e+02
  -3.247612e+02  -1.660671e+02
  -1.529424e+02  -3.145081e+02
   9.920613e+01  -3.215818e+02
   2.034952e+02  -1.866265e+02
   1.806066e+02  -4.104917e+01
   1.379099e+02  -5.524912e+01
   3.019047e+02  -2.978306e+01
   3.940399e+02   3.807537e+01
   3.351307e+02   3.222093e+02
   1.113566e+01   3.926496e+02
  -2.977327e+02   3.426807e+02
  -4.598030e+02   2.146255e+02
  -3.053655e+02  -1.369076e+02
  -9.600019e+00  -3.193284e+02
   1.402357e+02  -2.005626e+02
  -3.589503e+01  -3.208463e+01
  -1.260050e+02   5.638423e+01
  -1.400126e+02  -2.509010e+01
  -9.591378e+01  -2.033843e+02
   6.264185e+01  -1.567202e+02
   1.336992e+02   5.126558e+01
  -3.484932e+00   1.699173e+02
  -1.498988e+02   9.529793e+00
  -1.563751e+02  -2.427415e+02
   8.000069e+01  -3.142602e+02
   2.075986e+02  -1.988520e+02
   3.166781e+02   5.645673e+01
   2.674328e+02   2.908511e+02
   7.142431e+01   2.361658e+02
  -1.311811e+02   1.095269e+02
  -1.523259e+02   1.471379e+01
  -4.338051e+01  -5.289542e+01
   4.453037e+01   2.631840e+01
   3.817270e+01   8.147874e+01
  -1.189546e+02   3.212228e+01
  -9.803284e+01  -1.730499e+01
  -1.477205e+01  -9.263804e+01
   7.723147e+01  -1.305861e+01
   9.564362e+00   7.442022e+01
  -9.155479e+01   7.932054e+01
  -2.467880e+02   2.376822e+01
  -2.776294e+02  -1.629923e+02
  -6.149768e+01  -1.711030e+02
   1.795570e+02  -2.556126e+02
   2.906888e+02  -1.259399e+02
   1.460985e+02   7.039615e+01
  -2.277466e+01   1.472987e+02
  -6.321924e+01   2.912072e+01
   8.312633e+01  -7.411916e+01
   1.492289e+02  -4.000708e+01
   1.532800e+02   4.412706e+01
   6.580549e+01   1.838469e+02
  -8.789405e+01   1.587025e+02
  -1.066339e+02   7.005087e+00
  -4.913832e+01  -3.508488e+01
   3.882117e+01   2.994985e+01
   3.711185e+01   3.412870e+01
  -6.724469e+01   1.637504e+02
  -2.081436e+02   4.222811e+00
  -1.771713e+02  -1.655921e+02
   5.011046e+01  -1.991877e+02
   1.829690e+02  -1.049708e+02
   2.027788e+02  -3.577442e+00
   9.676759e+01   1.169371e+02
  -6.471027e+01   1.427036e+02
  -1.061256e+02   4.753035e+01
   3.201039e+01  -2.302029e+01
   4.690333e+01  -3.497250e+01
  -2.519349e+01   3.540915e+01
  -2.098573e+01  -3.672744e+01
  -1.064558e+02  -5.435055e+01
  -7.502328e+01  -1.301149e+02
   1.459059e+02  -1.162188e+02
   1.813414e+02  -1.382553e+01
   2.032370e+02   1.495651e+02
   1.694285e+01   2.463843e+02
  -8.112427e+01   8.341115e+01
  -1.608583e+02  -4.082274e+00
  -1.201309e+02  -5.821362e+01
  -4.533588e+01   1.794986e+01
  -7.711636e+01   3.114793e+01
  -1.284479e+01   2.814083e+01
  -1.265680e+01  -7.484052e+01
  -7.756879e-01  -9.220536e+01
   1.267841e+02  -5.419713e+01
   1.189748e+02   6.248032e+01
  -1.793503e+01   9.914008e+01
  -1.330767e+02   1.048274e+02
  -2.048728e+02  -7.436999e+01
  -7.374745e+01  -2.746701e+02
   1.135321e+02  -1.860359e+02
   2.601847e+02  -5.583122e+01
   2.126622e+02   4.792111e+01
   6.904764e+01   1.822284e+02
  -4.482400e+01   1.710325e+02
  -6.566219e+01   9.052477e+01
  -8.006507e+01   2.682162e+01
  -1.284210e+01   7.698457e+01
  -4.014597e+01   4.269905e+01
  -1.325048e+02  -5.325445e+00
  -1.124174e+02  -9.742098e+01
  -1.726837e+01  -2.581421e+02
   8.885136e+01  -1.747479e+02
   1.752210e+02   4.934098e+00
   1.167341e+02   1.152500e+02
   3.322027e+01   1.472853e+02
  -4.975773e+01   8.687834e+01
  -5.176690e+01   8.408743e+00
   4.923263e+01   1.231556e+01
  -1.173823e+01   1.533554e+01
   2.752613e+01   2.694413e+01
  -8.387343e+01  -3.244806e+01
   6.392454e+00  -5.004928e+00
   7.331519e+01   1.604072e+01
   2.261348e+02   1.518849e+01
   1.193796e+02   5.171348e+01
   5.606758e+01   1.141603e+02
  -1.154647e+02   9.694825e+00
  -1.684768e+02  -1.150262e+00
  -4.789351e+01  -2.185832e+01
   1.006547e+02  -6.921482e+01
   6.186581e+01   5.400017e+01
   5.344016e+01   3.816037e+00
  -9.801442e+01   4.286103e+01
  -9.265154e+01  -2.856763e+01
  -2.712548e+01  -5.681318e+01
  -8.938015e+01   3.398962e+00
  -8.903657e+01  -2.471464e+01
  -7.052003e+01  -1.145537e+00
  -4.581316e+01  -7.464001e+01
   4.956900e+01  -1.573407e+02
   9.587302e+01  -1.192358e+02
   1.642146e+02   2.445920e+01
   8.344936e+01   1.214878e+02
  -9.043992e+01   1.459945e+02
  -7.219572e+01   2.559976e+01
  -5.752473e+01   3.917779e+01
   2.493381e+01  -1.323827e+01
   1.195721e+02   3.970344e+01
   1.140948e+02   7.378896e+01
  -8.520279e+01   1.276730e+02
  -1.893201e+02   5.688057e+01
  -1.660247e+02  -1.934255e+01
  -3.807313e+01  -1.149888e+02
  -5.326106e+00  -1.100630e+02
   4.863174e+01  -3.445334e+01
  -6.570243e+01   4.903612e+01
  -9.379063e+01   1.775563e+01
  -6.723709e+00  -1.357623e+02
   4.755936e+01  -1.607851e+02
   1.761726e+02  -6.003863e+01
   1.570480e+02   4.005221e+01
  -5.307625e+00   1.506072e+02
  -7.099023e+01   1.433016e+02
  -8.764094e+01  -1.035853e+01
  -3.934066e+01  -1.350528e+02
  -1.921916e+01  -6.636170e+01
   2.703703e+01  -2.270698e+01
   3.427109e+00   2.490115e+00
   3.450198e+01   4.273432e+01
  -2.985803e+01  -2.107944e+01
   1.990184e+01  -3.061592e+01
   1.407903e+01   6.766540e+01
   7.739426e+01   1.006745e+02
  -7.968377e+01   9.080204e-01
  -1.460228e+02  -2.259074e+01
  -5.933011e+01  -6.866074e+01
  -6.581057e+01   2.959006e+01
   1.292824e+02  -4.041219e+01
   6.348324e+01  -1.943453e+01
   1.292503e+02   3.967308e+01
  -3.271556e+01  -1.984446e+01
  -4.007229e+01  -6.730623e+00
   3.902054e+01   3.823130e+00
   2.156568e+01   3.560730e+01
  -6.366230e+01   1.109250e+00
  -3.549269e+01   1.974064e+01
  -1.899832e+01  -1.295357e+02
   1.530745e+02  -1.302023e+02
   8.547840e+01  -2.383965e+01
   1.179164e+02   5.505904e+01
  -3.121184e+01   1.775352e+02
  -8.314538e+01   2.167265e+02
  -1.299233e+02   7.227235e+01
  -8.843824e+01  -5.938023e+01
  -4.072423e+01   4.913871e+00
   1.644524e+00   1.485908e+01
   3.559952e+01   1.974359e+00
  -1.922182e+01  -9.688531e+01
  -7.861490e+00  -1.387913e+02
   9.781430e+00  -6.596747e+01
   3.503847e+01  -1.901908e+01
   1.351068e+02   8.744616e+01
   6.022287e+01   9.596357e+01
  -5.712937e+01   2.007211e+00
  -1.132031e+02  -4.425558e+01
  -1.453538e+01  -5.575281e+01
   3.847281e+00  -5.008702e+01
   9.546891e+01   4.972509e+00
  -4.510629e+00   5.454275e+01
  -8.594184e+01   2.392279e+01
  -1.391096e+01   4.983002e+01
  -1.695380e+01   3.449119e+01
   3.006306e+01  -5.467819e+01
   1.248608e+01   3.289781e+01
  -5.864501e+01   5.442422e+00
  -9.180393e+01   9.432597e+00
  -6.753680e+01  -3.912590e+01
   1.716388e+01  -6.008457e+01
   1.033445e+02  -7.657225e+01
   3.730568e+01   1.224760e+01
   4.355235e+01   5.810579e+01
  -4.982442e+01   8.371355e+01
  -3.391932e+01  -1.461497e+01
  -3.159522e+01  -6.478735e+01
  -1.391397e+01  -1.798829e+01
   2.280122e+01   7.834223e+01
   4.107787e+01   2.524397e+01
   6.345241e+01   1.163411e+01
   9.024124e+00  -4.130235e+01
  -2.558272e+01   4.676160e+01
   5.001190e+01   1.886239e+01
  -8.554877e-01   7.642132e+01
   3.791781e+01  -6.498267e+00
   9.289909e+00  -6.936665e+01
   1.213401e+01  -1.169536e+02
   3.767509e+01  -4.320044e+01
   1.851248e+01   4.528976e+01
  -1.611778e+01   9.497014e+01
  -8.864358e+01  -9.086255e+00
  -1.324303e+02  -2.598384e+01
  -2.989959e+01  -6.889569e+01
   2.753312e+01  -9.818319e+01
   9.196461e+01   1.045232e+01
   3.222662e+01   2.612714e+01
  -4.930025e+01   1.756508e+01
  -5.263195e+01   7.522148e+00
   3.839261e+01  -3.594122e+01
   6.052057e+01  -4.242136e+00
