
 $NMID
 id='ANONYMOUS ', fmtdat='(2E16.6)'
 volume=1.0
 tramp=1.0
 $END
  -4.892818e+03   1.745196e+01
  -2.788264e+03  -3.024179e+03
   1.000046e+03  -3.134448e+03
   2.514799e+03  -8.703879e+02
   9.846468e+02   9.431644e+02
  -8.962348e+02   7.043455e+02
  -1.094584e+03  -5.579997e+02
   2.162560e+01  -1.296278e+03
   9.617583e+02  -8.640464e+02
   1.124241e+03   1.438203e+02
   4.878097e+02   9.918658e+02
  -3.238668e+02   1.037960e+03
  -7.697974e+02   9.697739e+01
  -4.387961e+02  -7.940718e+02
   3.373360e+02  -8.313546e+02
   7.255974e+02   4.201596e+01
   3.503453e+02   7.532260e+02
  -4.203072e+02   6.712236e+02
  -6.716662e+02   7.808223e+00
  -3.717201e+02  -4.331223e+02
   5.190706e+01  -4.734012e+02
   3.006716e+02  -3.571666e+02
   2.424002e+02  -3.327434e+01
  -8.888345e+01   1.051261e+02
  -4.363364e+02  -1.073603e+02
  -2.206243e+02  -5.149964e+02
   5.424131e+02  -5.064488e+02
   9.640036e+02   3.494823e+01
   5.149824e+02   6.666143e+02
  -3.938437e+02   5.770054e+02
  -9.317395e+02   2.930568e+00
  -4.106083e+02  -5.671220e+02
   3.095386e+02  -5.910314e+02
   5.712183e+02  -2.135035e+02
   5.223108e+02   2.767218e+02
   7.669096e+01   5.825631e+02
  -2.484981e+02   3.483643e+02
  -2.560994e+02  -2.484926e+02
   1.829349e+02  -5.455130e+02
   5.265855e+02  -2.197264e+01
   3.296200e+02   7.614806e+02
  -3.942840e+02   8.176387e+02
  -6.692061e+02  -3.455546e+01
  -3.117968e+02  -6.095283e+02
   3.547126e+02  -4.024786e+02
   5.152313e+02   3.317083e+02
  -2.789271e+01   6.047089e+02
  -6.052503e+02   1.454789e+02
  -6.816723e+02  -4.537887e+02
  -2.030500e+02  -6.469695e+02
   4.259649e+02  -4.084154e+02
   6.747141e+02   6.457590e+01
   4.226957e+02   4.789644e+02
  -2.098846e+02   4.563155e+02
  -5.351852e+02   2.862162e+01
  -2.507952e+02  -2.924049e+02
   1.821939e+02  -1.732131e+02
   2.795107e+02   1.858035e+02
  -1.570684e+02   2.302502e+02
  -3.582580e+02  -1.008835e+02
  -1.236974e+02  -3.631188e+02
   2.649567e+02  -3.047760e+02
   3.236688e+02  -6.570796e+01
   1.814214e+02   1.129782e+02
  -4.788795e+01   1.398581e+02
  -2.289354e+02   2.806469e+02
  -3.717517e+02   2.765352e+02
  -3.170063e+02  -3.187428e+01
  -6.342182e+01  -5.140455e+02
   1.077981e+02  -4.735978e+02
   1.399645e+02  -1.418980e+02
   5.220744e+01   9.009118e+01
   2.422200e+01  -6.093339e+01
   1.690323e+02  -1.790055e+02
   2.883330e+02   6.609621e+01
   1.901090e+02   3.045831e+02
  -2.599996e+01   3.250898e+02
  -3.027060e+02  -2.143968e+01
  -2.135776e+02  -1.869798e+02
  -4.673648e+01  -3.156560e+02
   3.006075e+02  -8.311888e+01
   3.484320e+02   1.814607e+02
   1.880578e+02   3.824503e+02
  -1.579081e+02   3.400772e+02
  -2.761172e+02   1.145962e+02
  -1.619480e+02  -3.398272e+00
  -6.840630e+01  -3.990279e+01
  -2.116483e+02   6.764949e+01
  -4.212173e+02  -2.208635e+01
  -3.516436e+02  -3.479663e+02
   5.326550e+00  -5.180900e+02
   3.733994e+02  -3.878044e+02
   5.359884e+02  -2.266259e+02
   3.631889e+02   1.103335e+02
   2.109531e+01   3.147035e+02
  -1.278716e+02   3.202190e+02
  -9.002773e+01   6.032060e+01
   8.334301e+01  -1.180746e+02
   2.248315e+02   2.248790e+01
   9.937259e+01   2.123617e+02
  -1.598972e+02   2.306742e+02
  -2.010434e+02  -8.640931e+01
   3.533000e+01  -2.438198e+02
   2.829897e+02   4.315809e+00
   1.882621e+02   2.107701e+02
  -5.983971e+01   4.108314e+02
  -2.466484e+02   2.499756e+02
  -3.631569e+02  -1.383368e+02
  -2.505497e+02  -2.889931e+02
  -9.260156e+01  -2.880885e+02
   1.592634e+02  -1.626019e+02
   2.021512e+02  -1.228563e+01
   6.968840e+01   6.289151e+01
  -1.234419e+02  -6.070635e+01
   9.276649e+00  -1.790498e+02
   1.389291e+02  -3.066699e+01
   2.138777e+02   1.027237e+01
   7.466368e+01   7.558336e+01
  -1.142061e+02   5.464308e+01
  -7.128388e+01  -8.863015e+01
   1.969994e+02  -8.819727e+01
   2.691485e+02  -1.371479e+01
   2.014025e+02   1.299517e+02
   8.927774e+01   3.008018e+02
  -1.891056e+02   2.739459e+02
  -3.261974e+02   1.391595e+02
  -1.951856e+02  -9.253325e+01
   2.649975e+01  -1.054375e+02
   7.272606e+01   2.792064e+01
  -4.176215e+01   1.743755e+02
  -2.639176e+02   8.227041e+01
  -2.829988e+02  -1.336123e+02
  -8.155579e+01  -1.983472e+02
   7.560220e+01  -1.790182e+02
   1.709278e+02  -4.268640e+00
   2.657561e+01  -4.712725e+01
  -6.656903e+01   4.331032e+01
  -5.282297e+01  -6.992919e+01
   8.485769e+01  -1.191790e+02
   2.675584e+02  -7.391908e+01
   2.452305e+02   1.254787e+02
  -1.842554e+00   2.522368e+02
  -1.934542e+02   1.860411e+02
  -1.934299e+02   2.661944e+01
  -6.690949e+01  -1.559740e+02
   5.334272e+01  -5.873070e+01
   8.964099e+01  -3.776831e+01
   1.800854e+01   4.836115e+01
  -3.794800e+01  -1.173276e+01
  -1.913463e+01  -6.923397e+01
   5.339652e+01   1.263045e+01
   6.722182e+01   8.168923e+01
   4.192675e+01   2.284865e+02
  -1.398004e+02   1.555384e+02
  -2.995612e+02   5.782929e+01
  -2.180820e+02  -1.276734e+02
  -4.877214e+01  -2.750599e+02
   1.284333e+02  -1.406051e+02
   1.473486e+02  -3.311256e+01
   5.361104e+01   8.818351e+01
   2.551431e+01   8.825529e+01
   5.121773e+01  -2.183843e+01
   2.114107e+01   2.087533e+01
   4.045134e+01   3.984703e+01
  -7.715257e+01   8.859303e+01
  -1.245719e+02   4.498392e+01
  -8.936136e+01  -4.065211e+01
  -2.100136e+01  -1.244374e+02
   1.597547e+02  -3.785886e+01
   2.367048e+02   6.136369e+01
   6.284682e+01   2.306778e+02
  -1.464740e+02   2.032904e+02
  -3.054152e+02   4.869201e+01
  -2.179296e+02  -1.041168e+02
  -1.055201e+02  -2.259404e+02
   4.739089e+01  -1.784896e+02
   6.987988e+01  -7.423349e+01
   2.562876e+01  -3.500154e+01
   1.059830e+02  -1.074798e+02
   1.316762e+02  -7.912061e+01
   9.318917e+01  -2.925669e+01
   1.182759e+02   1.120812e+02
   4.017837e+01   3.087066e+02
  -9.385464e+01   1.964912e+02
  -2.402668e+02   1.585176e+01
  -1.836050e+02  -1.139192e+02
  -1.168797e+02  -1.424592e+02
   6.555819e+01  -1.022964e+02
   1.509880e+01  -7.949345e+01
   4.798927e+01   1.150364e+01
   9.661974e+00   1.092921e+02
   8.201266e+01   3.356835e+01
   1.266759e+02   8.936068e+00
   2.193025e+01   1.627811e+01
  -8.962591e+01   7.800839e+01
  -1.518288e+02  -2.208712e+01
  -1.132243e+02  -5.793788e+01
  -5.501926e+01  -9.483165e+01
   1.194801e+02  -1.017039e+02
   1.730240e+02  -3.400821e+01
   2.031940e+01   3.365217e+01
  -2.984998e+01   1.508756e+01
  -7.963134e+01  -1.545501e+01
  -1.436572e+01  -1.175287e+02
   8.528165e+01  -6.678944e+01
   1.000426e+01   2.940734e+01
   2.786340e+01   5.919838e+01
   5.854799e+01   2.549124e+01
   1.011156e+02   5.303375e+01
   2.947337e+01  -8.507854e+01
  -2.905168e+01   3.958349e+01
  -2.130485e+01   1.392701e+02
  -1.389260e+02   2.076092e+02
  -1.959185e+02   3.053278e+01
  -1.655241e+02  -1.361336e+02
  -6.590101e+01  -1.180912e+02
   1.134365e+02  -5.021522e+01
   6.484196e+01   7.546650e+01
  -3.635156e+01   1.863479e-01
  -1.079353e+02  -9.727121e+00
  -3.433790e+01  -1.051994e+02
   1.134564e+02  -5.355173e+01
   2.293568e+02  -4.523627e+01
   1.746203e+02  -3.188067e+01
   1.956814e+01   3.185814e+01
  -5.201166e+01   8.085618e+01
  -5.211805e+01   2.413061e+01
   6.274414e+01  -3.728768e+01
   4.801995e+01   1.985984e+01
   3.879838e+01   1.362261e+02
  -1.632174e+02   1.277630e+02
  -1.597888e+02   5.026486e+01
  -1.229058e+02  -1.030511e+02
   1.248239e+01  -2.326132e+02
   9.480714e+01  -1.999202e+02
   1.098225e+02  -2.870443e+01
   6.932017e+01   1.118422e+02
  -6.794290e+01   1.599646e+02
  -4.966736e+01   3.154936e+01
   3.367552e+01  -4.518187e+01
   1.292442e+01  -1.663953e+01
   3.627228e+00   4.597964e+01
  -5.610667e+00  -3.445101e+01
  -7.074158e+01  -6.413730e+01
  -5.561575e+01  -8.896137e+01
   2.179469e+01   1.550581e+01
   1.332135e+02   5.133681e+01
   1.413271e+02   5.892371e+01
   7.391185e+01   7.980062e+01
  -7.628928e+01   6.544635e+01
  -1.162398e+02   8.760878e+01
  -3.801251e+01   2.308473e+01
   5.840262e+01  -3.888488e+01
   4.666806e+01   1.736569e+01
  -4.916781e+01   6.640808e+01
   5.497136e+01   1.561323e+01
   1.271463e+02  -1.154654e+01
   1.102734e+02   1.760776e+01
   9.476138e+01   9.218940e+01
  -9.061347e+01   1.449610e+02
  -2.225522e+02   5.164622e+01
  -1.424102e+02  -5.789570e+01
  -2.007400e+01  -1.538842e+02
   1.031129e+02  -1.742038e+02
   1.631074e+02  -2.112045e+01
   1.364485e+02  -2.137788e+01
  -2.010127e+00   3.581008e+01
  -5.303444e+01  -1.128499e+01
   1.543234e+01  -5.127522e+00
   3.180040e+01   4.745719e+01
   4.166125e+00   1.013988e+02
   5.324086e+00   5.354992e+01
  -7.659179e+01   7.293186e+00
  -4.143496e+01  -1.526508e+02
  -3.596388e+01  -8.531813e+01
   2.366859e+01   2.783489e+01
   9.374753e+01   1.092789e+02
  -1.009292e+01   1.394418e+02
  -6.577770e+01   6.569863e+01
  -7.903306e+01  -1.496085e+01
  -2.632561e+01  -8.929307e+01
   6.191927e+01  -9.439090e+01
   4.939861e+01  -7.303025e+01
   1.947879e+01  -3.758934e+01
  -3.033929e+01   9.802426e+00
  -3.782604e+01  -5.374037e+01
   5.668696e+01  -1.113750e+02
   1.015248e+02  -3.144959e+00
   4.506734e+01   6.548373e+01
  -2.784094e+01   9.980676e+01
  -3.601423e+01   1.692809e+01
  -1.298207e+01  -6.214745e+00
   3.426080e+01  -9.204954e+01
   2.331215e+01   1.090496e+01
   1.220267e+02   5.907182e+01
   6.516148e+00   1.045268e+01
  -1.687125e+01   7.036628e+01
  -3.780145e+01  -4.562297e+00
  -3.996076e+01  -3.794402e+01
   1.171723e+01   7.704997e+00
   1.989409e+01   2.079978e+01
  -3.686583e+01  -2.400906e+01
   2.962240e+01  -7.841635e+01
  -1.231574e+01  -4.397766e+01
   6.561991e+01  -1.480079e+01
   1.947787e+01   3.752356e+01
   9.603758e+01   7.415256e+01
  -4.004098e+01   3.474912e-01
  -5.057189e+01  -6.873413e+01
   1.343514e+01  -1.111362e+02
   6.351372e+01  -3.171945e+01
   1.189733e+02   3.271868e+01
   8.027808e+01   5.527728e+01
  -7.678659e+01   4.736622e+01
  -8.128510e+01   6.436972e+01
   2.465084e+01   3.767991e+00
   5.155628e+01   2.034859e+00
   4.712759e+01   1.037599e+01
  -1.233258e+01   3.504443e+01
  -1.806218e+02   4.045812e+01
