
 $NMID
 id='ANONYMOUS ', fmtdat='(2E16.6)'
 volume=1.0
 tramp=1.0
 $END
  -4.565965e+03  -5.923226e+01
  -2.547261e+03  -2.866819e+03
   9.023484e+02  -2.863448e+03
   2.319136e+03  -8.071847e+02
   9.116528e+02   7.874167e+02
  -7.800318e+02   6.217373e+02
  -1.003151e+03  -5.078009e+02
   2.407528e+00  -1.151800e+03
   9.601352e+02  -8.514979e+02
   1.029123e+03   2.393063e+02
   4.349097e+02   9.548018e+02
  -3.065238e+02   9.522060e+02
  -7.340868e+02   8.456520e+01
  -4.233871e+02  -8.261431e+02
   2.824024e+02  -7.390859e+02
   6.906102e+02   5.785855e+01
   2.338162e+02   7.433310e+02
  -3.784389e+02   6.211999e+02
  -5.757136e+02   7.448002e+01
  -3.493154e+02  -3.756520e+02
   1.543798e+00  -4.459268e+02
   2.695490e+02  -2.627389e+02
   2.188843e+02   3.213861e+01
  -1.346140e+02   5.365828e+01
  -4.699275e+02  -1.058946e+02
  -1.710850e+02  -4.249230e+02
   5.071680e+02  -5.154095e+02
   9.533651e+02   4.739109e+01
   4.514437e+02   6.049122e+02
  -3.886932e+02   5.439175e+02
  -8.039099e+02  -5.342593e+01
  -3.699150e+02  -4.988176e+02
   3.096158e+02  -5.669816e+02
   6.208437e+02  -1.435906e+02
   3.987902e+02   2.701469e+02
   3.955737e+01   5.265381e+02
  -2.301742e+02   3.028174e+02
  -1.835612e+02  -2.423634e+02
   2.227761e+02  -4.932154e+02
   5.409424e+02   2.255412e+01
   2.832943e+02   7.713560e+02
  -3.453617e+02   7.295482e+02
  -7.100206e+02   7.685162e+00
  -2.620837e+02  -5.925227e+02
   3.437132e+02  -3.964675e+02
   4.822439e+02   3.285992e+02
  -4.077357e+01   5.586600e+02
  -5.328921e+02   1.731200e+02
  -5.886577e+02  -4.683235e+02
  -1.463832e+02  -5.580961e+02
   4.399924e+02  -3.739528e+02
   6.309976e+02   6.276038e+01
   3.440891e+02   4.210467e+02
  -1.482659e+02   4.156633e+02
  -4.462455e+02   1.163600e+01
  -2.594753e+02  -2.346787e+02
   9.702029e+01  -1.513301e+02
   1.457025e+02   1.850281e+02
  -2.031633e+02   2.131591e+02
  -3.525079e+02  -7.394612e+01
  -1.304741e+02  -3.248027e+02
   2.690830e+02  -2.896524e+02
   3.054974e+02  -3.537082e+01
   1.822669e+02   7.765186e+01
  -2.721894e+01   2.197045e+02
  -2.390096e+02   3.489691e+02
  -2.885370e+02   2.644920e+02
  -3.072484e+02  -1.395655e+02
  -1.046411e+02  -4.540552e+02
   1.835932e+02  -3.911263e+02
   1.451085e+02  -9.392489e+01
  -1.686327e+01   5.066825e+01
   3.692257e+00  -8.483863e+01
   1.800696e+02  -1.234023e+02
   2.438859e+02   3.537168e+01
   1.674949e+02   3.010615e+02
  -1.040117e+02   2.690034e+02
  -1.823309e+02   3.190742e+01
  -1.936624e+02  -3.163578e+02
   2.624874e+01  -3.156528e+02
   3.008793e+02  -1.788886e+02
   3.792791e+02   1.480450e+02
   1.616391e+02   3.790429e+02
  -8.728470e+01   3.781535e+02
  -2.385377e+02   1.087288e+02
  -1.431781e+02   1.730053e+01
  -9.200580e+01   2.208774e+01
  -2.184201e+02   8.114867e+01
  -4.267029e+02  -9.264316e+01
  -3.107955e+02  -3.011385e+02
   3.229591e+01  -4.010959e+02
   3.430218e+02  -3.794839e+02
   5.002914e+02  -2.350191e+02
   2.964870e+02   1.252940e+02
   5.244235e+01   3.170573e+02
  -1.480334e+02   3.293400e+02
  -8.187217e+01   6.264767e+01
   3.419666e+01  -1.162636e+02
   2.220561e+02   1.250310e+01
   9.960435e+01   2.150313e+02
  -1.354620e+02   2.449343e+02
  -2.211680e+02  -1.139561e+02
   5.203121e+00  -1.976365e+02
   1.884238e+02  -1.905063e+01
   1.345204e+02   3.163698e+02
   1.354227e+01   4.294858e+02
  -2.565331e+02   2.020815e+02
  -3.058588e+02  -2.726820e+01
  -2.607579e+02  -2.813168e+02
  -1.027129e+02  -2.380989e+02
   5.420780e+01  -1.293725e+02
   2.104043e+02  -1.575058e+01
   3.695677e+01  -1.919960e+01
  -6.565008e+01  -4.612164e+01
   2.479597e+00  -1.064110e+02
   1.792466e+02  -7.338077e+01
   1.887765e+02  -1.641966e+00
   7.906745e+01   1.239821e+02
  -9.500543e+01   2.270876e+01
  -7.942898e+01  -7.953442e+01
   1.427834e+02  -8.706031e+01
   3.090849e+02  -1.744295e+01
   2.439925e+02   1.232851e+02
   7.662315e+01   2.720177e+02
  -1.137703e+02   2.511188e+02
  -2.432785e+02   1.114633e+02
  -2.057350e+02  -8.338987e+01
   1.700687e+01  -1.221580e+02
   7.712745e+01  -1.134595e+01
  -3.418758e+01   1.536715e+02
  -1.762818e+02   1.451280e+02
  -1.442986e+02  -1.212192e+02
  -8.986596e+01  -2.125732e+02
   7.179414e+01  -1.610686e+02
   1.531090e+02  -9.941345e+00
   3.775816e+01   7.196199e+01
  -2.113800e+01   1.678512e+01
  -8.623039e+01  -8.290598e+01
   9.214118e+01  -5.669515e+01
   2.122593e+02  -6.478260e+01
   2.307697e+02   7.955242e+01
   2.614419e+00   2.093120e+02
  -1.886845e+02   1.645556e+02
  -1.065405e+02   4.425883e+01
  -6.897962e+01  -9.745634e+01
   3.596096e+01  -1.034843e+02
   1.440539e+01  -5.192156e+01
   9.847830e+01  -2.472353e+01
  -7.362281e+01  -2.089678e+01
   6.102087e+01   1.559396e+01
   4.596055e+01   1.022913e+01
   6.307008e+01   2.949286e+01
  -1.786484e+01   1.148767e+02
  -1.097807e+02   9.689259e+01
  -2.292247e+02   6.042205e+01
  -1.835121e+02  -1.423739e+02
  -3.046624e+01  -2.130460e+02
   1.145527e+02  -2.241436e+02
   1.756026e+02  -6.227818e+01
   8.536602e+01   1.381137e+01
   1.000499e+01   5.036540e+01
   7.071038e+01   1.583557e+00
   3.788006e+01  -5.070486e+01
   6.070498e+01   7.542946e+01
  -1.088677e+02   7.641462e+01
  -1.328102e+02   2.681782e+01
  -5.686667e+01  -4.510833e+01
  -9.554509e+00  -8.989566e+01
   1.582632e+02  -5.314769e+01
   2.172526e+02   6.342062e+01
   8.717233e+01   1.376339e+02
  -8.116892e+01   2.282736e+02
  -2.625795e+02   4.211063e+01
  -2.170131e+02  -1.090034e+02
  -1.487332e+02  -1.733088e+02
   5.508240e+01  -1.754662e+02
   1.175961e+02  -5.367638e+01
   8.516240e+01  -1.302468e+02
   7.392775e+01  -6.087397e+01
   1.724906e+02  -2.249658e+01
   1.132044e+02   1.391043e+01
   9.939045e+01   1.268661e+02
   4.840605e+01   2.176478e+02
  -9.986140e+01   1.954681e+02
  -1.489708e+02   8.399566e+01
  -1.720046e+02  -7.980379e+01
   2.605833e+01  -1.215254e+02
   9.345903e+01  -6.637555e+01
   7.254193e+01  -6.634573e+01
   8.494824e+00   9.691836e+00
  -5.417479e+00   1.442753e+01
   2.167902e+01  -3.563387e+01
   9.609820e+01   2.919273e+01
  -7.153131e+00   8.205737e+01
  -4.711280e+01   4.021608e+01
  -1.646454e+02   7.173728e+00
  -1.308248e+02  -1.257526e+01
  -1.357094e+01  -6.858252e+01
   1.769658e+02  -6.939380e+01
   1.272457e+02  -3.700792e+01
   4.467709e+01   9.365333e+00
  -9.003209e+01   5.353430e+01
  -8.175203e+01  -1.378124e+01
  -1.004818e+02  -1.269438e+02
   4.391329e+01  -1.330679e+02
   7.617790e+01   2.046259e+01
   6.608552e+01   9.554072e+01
   4.039693e+01   1.425978e+01
   6.782992e+01  -3.519467e+01
   2.748222e+01  -5.096223e+01
   7.041140e+01   4.572214e+01
  -6.827887e+01   1.339461e+02
  -1.514702e+02   1.670995e+02
  -1.339964e+02   6.123574e+01
  -1.330514e+02  -1.138967e+02
  -2.678933e+01  -1.240220e+02
   1.005109e+02  -9.740940e+00
   1.060064e+02  -1.155202e+01
  -8.452002e+01  -7.294240e+00
  -1.055211e+02  -3.515899e+01
  -4.058328e+01  -1.096691e+02
   1.235715e+02  -1.330814e+02
   1.818397e+02  -6.496762e+01
   2.008989e+02   1.670057e+01
   3.419347e+01   3.985825e+01
   2.056701e+01   7.365238e+01
  -1.041860e+02  -1.500900e+01
   2.994255e+01  -9.635698e+00
   6.890116e+01   5.818855e+01
   5.182948e+01   1.211024e+02
  -1.402978e+02   1.646379e+02
  -2.248823e+02   1.091315e+02
  -9.951955e+01  -9.881561e+01
  -5.058523e+01  -2.121996e+02
   1.117311e+02  -1.125641e+02
   1.126187e+02   2.088270e+01
   7.546719e+01   1.184844e+02
  -6.987951e+00   8.941837e+01
   2.542321e+01  -1.719290e+01
  -7.503050e+01  -9.931817e+01
  -4.583671e+01   2.740234e+01
  -1.285660e+01   1.299546e+01
  -1.334322e+01   5.290243e+00
  -3.037285e+01  -1.083645e+02
  -3.603158e+01  -1.229648e+02
   4.650294e+01  -4.230453e+01
   1.409646e+02   6.144233e+01
   1.502125e+02   8.806354e+01
   3.279890e+01   2.147893e+01
  -1.272907e+02   4.418280e+01
  -7.913010e+01   2.930459e+01
  -4.617965e+01   9.514891e+00
   4.697871e+01  -2.137037e+01
   8.481362e+01  -3.619308e+01
  -2.721284e+01  -2.386357e+01
   9.693576e+00   6.279108e+00
   5.541202e+01   1.350042e+01
   7.291560e+01   6.661647e+01
   3.588804e+01   8.909621e+01
  -1.135087e+02   1.355636e+02
  -1.651653e+02   9.582569e+01
  -1.651053e+02  -9.119719e+01
  -2.741593e+01  -5.914185e+01
   7.484737e+01  -1.469403e+02
   1.361665e+02  -5.311615e+01
   9.813433e+01   8.229746e+01
   4.726992e+00   2.459780e+01
  -1.264366e+01   2.063445e+01
   4.141787e+01  -4.126816e+01
   7.005755e+01   9.975950e+01
   2.405658e+01   8.480643e+01
  -5.380970e+00   5.915676e+01
  -3.714961e+01  -5.027652e+01
  -5.991057e+01  -1.622907e+02
  -1.185807e+01  -1.088494e+02
   1.682344e+01  -1.789218e+01
   1.254682e+02   4.708374e+01
   6.087138e+01   1.529375e+02
  -1.131772e+02   7.507691e+01
  -8.001303e+01  -2.998362e+01
  -7.978929e+01  -9.934634e+01
   5.494913e+00  -4.856868e-01
  -2.351854e+00  -3.051787e+01
   1.433241e+00   1.210596e+01
  -7.008925e+01   1.832657e+01
  -3.113022e+01  -2.786939e+01
   1.129445e+02  -3.726175e+01
   1.519853e+02  -5.636897e+01
   6.867299e+00   5.172152e+01
  -1.904429e+01   1.089323e+02
  -4.306553e+01   1.329080e+02
  -2.712943e+01   1.704182e+01
   2.682881e+01  -7.989000e+01
   6.517206e+01  -5.253965e+01
   6.651895e+01   3.724184e+01
  -1.814699e+01   1.843032e+01
   4.662952e+01   4.528166e+01
  -1.139770e+01   2.668326e+00
  -2.098030e+01  -2.268178e+01
  -3.908479e+01  -7.929222e+00
   3.243385e+01   2.136991e+01
   1.374679e+01   1.274239e+01
   5.519597e+01  -4.390630e+01
   8.421516e+00  -5.637363e+01
   4.109764e+01  -3.652691e+01
  -2.624962e+01   1.327547e+01
   2.508118e+00   1.040046e+02
  -4.140069e+01   3.969950e+01
  -7.451023e+01  -5.577634e+01
  -1.377037e+01  -3.837674e+01
   1.886077e+01  -5.052553e+01
   9.664109e+01  -8.513483e-01
   6.663651e+01   2.961754e+01
  -5.109371e+01   5.191691e+01
  -1.156346e+02   3.572508e+01
  -9.351977e+00  -3.300359e+01
   4.175656e+01  -7.316244e+00
   9.179244e+01   6.260946e+01
   4.306630e+01   3.848257e+01
  -1.433192e+02   9.364740e+00
