
 $NMID
 id='ANONYMOUS ', fmtdat='(2E16.6)'
 volume=1.0
 tramp=1.0
 $END
   4.206543e+03   7.200583e+01
   2.458071e+03   2.470637e+03
  -5.458078e+02   2.604919e+03
  -1.976208e+03   9.543019e+02
  -9.344792e+02  -4.660513e+02
   5.512370e+02  -4.554373e+02
   8.149841e+02   4.134247e+02
  -5.701509e+01   9.337170e+02
  -7.799952e+02   7.766951e+02
  -9.256763e+02  -5.928017e+01
  -4.417678e+02  -7.835981e+02
   1.662790e+02  -8.445769e+02
   5.824549e+02  -1.915818e+02
   2.783608e+02   6.653796e+02
  -2.230273e+02   7.123408e+02
  -5.941511e+02  -4.813220e+01
  -2.978848e+02  -6.572214e+02
   2.747910e+02  -6.366038e+02
   5.848895e+02  -8.501103e+01
   4.123646e+02   3.263999e+02
   8.447292e+01   4.305875e+02
  -1.965530e+02   2.682234e+02
  -2.143001e+02   7.597995e+01
   1.300072e+02  -3.608794e+01
   3.074683e+02   1.009233e+02
   1.586644e+02   4.290666e+02
  -4.899368e+02   3.367632e+02
  -8.656589e+02  -5.933056e+01
  -3.769201e+02  -4.718715e+02
   4.329088e+02  -4.361821e+02
   6.989278e+02   6.072525e+01
   2.972908e+02   4.507714e+02
  -2.934060e+02   5.291411e+02
  -5.425018e+02   1.879489e+02
  -4.325274e+02  -1.961787e+02
  -6.152080e+01  -4.657424e+02
   1.787335e+02  -2.197407e+02
   1.315848e+02   1.825108e+02
  -2.328341e+02   3.636714e+02
  -4.625967e+02  -4.759430e+01
  -1.660639e+02  -6.797962e+02
   3.509188e+02  -6.122989e+02
   5.531370e+02   3.840459e+00
   2.427526e+02   5.737236e+02
  -3.126295e+02   2.827478e+02
  -3.611320e+02  -3.681820e+02
   3.106088e+01  -5.278178e+02
   4.934749e+02  -1.225508e+02
   5.366099e+02   4.145199e+02
   1.970978e+02   5.853943e+02
  -3.936023e+02   3.245634e+02
  -6.523590e+02  -9.028670e+01
  -3.137776e+02  -3.594687e+02
   1.435374e+02  -3.566711e+02
   4.014303e+02  -9.939496e+01
   2.305545e+02   1.541864e+02
  -7.329073e+01   1.161663e+02
  -1.328930e+02  -1.586689e+02
   1.586744e+02  -1.817836e+02
   3.848997e+02   1.033630e+02
   2.089033e+02   3.158279e+02
  -2.064844e+02   2.571558e+02
  -3.142864e+02   8.554595e+01
  -2.017972e+02  -8.938395e+01
   3.334540e+01  -1.956245e+02
   2.052648e+02  -3.793793e+02
   3.081755e+02  -2.008764e+02
   3.066180e+02   1.734258e+02
   5.930373e+01   4.201052e+02
  -1.556755e+02   3.883574e+02
  -1.285816e+02   1.464740e+02
  -9.413080e+01   2.511415e+01
  -1.176172e+02   5.334725e+01
  -2.392894e+02   1.494210e+02
  -2.826321e+02  -7.817275e+01
  -9.689248e+01  -2.686572e+02
   6.376778e+01  -2.530068e+02
   1.875858e+02  -2.186743e+01
   1.629944e+02   2.149896e+02
  -1.335888e+01   3.101555e+02
  -3.523244e+02   1.624890e+02
  -3.245153e+02  -2.112277e+02
  -1.425618e+02  -3.821078e+02
   2.036895e+01  -2.551247e+02
   1.642871e+02  -1.832978e+02
   1.623551e+02  -2.212939e+01
   1.081624e+02  -5.890357e+01
   2.720289e+02  -4.857078e+01
   3.968319e+02   1.012518e+02
   3.153239e+02   2.571653e+02
  -7.508554e+01   4.929093e+02
  -3.465522e+02   4.596918e+02
  -4.974021e+02   2.019386e+02
  -3.274113e+02  -1.075550e+02
  -7.416605e+01  -2.682799e+02
   1.682818e+02  -2.449743e+02
   8.084787e+01  -1.794743e+01
  -1.542526e+02   1.067625e+02
  -1.826579e+02  -4.991362e+01
  -8.881483e+01  -1.490444e+02
   1.798454e+02  -1.869582e+02
   1.567940e+02   7.542843e+01
  -5.631263e+00   2.240987e+02
  -1.818127e+02   6.080895e+01
  -1.287466e+02  -2.351894e+02
   2.329778e+01  -3.346057e+02
   2.260463e+02  -2.294726e+02
   3.201683e+02   3.907218e+01
   2.713204e+02   2.259429e+02
   9.223156e+01   2.350689e+02
  -1.144836e+02   1.634825e+02
  -1.168125e+02  -1.639943e+01
  -4.435032e+01   5.284788e+01
   1.029066e+02   5.723266e+01
   2.349950e+01   1.689224e+02
  -1.590545e+02   1.246439e+02
  -2.248164e+02  -4.032993e+01
  -7.622902e+01  -9.516090e+01
   4.044478e+01  -4.981719e+01
   6.100465e+01   1.463981e+02
  -1.462348e+02   6.373029e+01
  -2.685213e+02  -1.398059e+01
  -3.314071e+02  -1.299216e+02
  -6.654509e+01  -2.658714e+02
   1.764180e+02  -2.843464e+02
   3.152866e+02  -1.155820e+02
   1.492116e+02   4.619311e+01
  -1.494865e+01   4.802561e+01
  -1.057671e+02   5.921926e+00
  -2.358570e+01  -8.545064e+01
   2.098596e+02  -5.022026e+01
   2.274353e+02   7.088908e+01
   7.940847e+01   2.780409e+02
  -1.560599e+02   1.226941e+02
  -1.482744e+02   2.158631e+01
  -9.249589e+01  -5.464787e+01
   4.230912e+00  -3.464151e+01
   2.941090e+01   7.004496e+01
  -9.564825e+01   1.055773e+02
  -2.353080e+02   2.396310e+01
  -2.216278e+02  -1.649763e+02
  -3.525631e+01  -2.214968e+02
   2.252771e+02  -1.142667e+02
   1.963876e+02   8.141428e-01
   4.046885e+01   1.806399e+02
  -4.497010e+01   1.032971e+02
  -1.116287e+02   5.500143e+01
  -4.643062e+00  -2.502097e+01
   4.669814e+01  -1.296744e+01
  -3.964935e+01  -1.155546e+01
  -1.120011e+02   1.877249e+01
  -4.129168e+01  -1.198889e+02
   2.217375e+01  -2.095585e+02
   1.846171e+02  -1.333981e+02
   2.264638e+02  -7.373714e+00
   2.279202e+02   1.703600e+02
   2.543358e+01   2.496302e+02
  -3.567038e+01   1.871511e+02
  -1.122116e+02   5.272707e+01
  -9.422184e+01  -7.528002e+01
  -7.819755e+01   4.227428e+01
  -2.731335e+01  -6.891444e+00
  -7.770153e+01   2.301113e+01
  -6.741868e+01  -4.174476e+01
   3.430888e+01  -9.676459e+01
   1.830777e+01  -4.830386e+01
   7.996428e+01   7.411031e+01
  -2.780636e+01   1.241082e+02
  -1.493355e+02   7.000283e+01
  -1.720036e+02  -9.395165e+01
  -6.936371e+01  -2.009322e+02
   5.124923e+01  -2.149348e+02
   3.001216e+02  -1.039132e+02
   2.904712e+02   5.095252e+01
   1.165422e+02   1.752084e+02
  -5.576441e+01   1.044945e+02
  -8.523786e+01   1.569693e+02
  -1.301003e+02   8.483456e+01
  -6.019719e+01   1.149344e+02
  -8.632867e+01   7.118669e+01
  -1.161943e+02   2.936378e+01
  -9.409751e+01  -1.185940e+02
  -7.800076e+01  -2.261953e+02
   1.336204e+02  -1.990683e+02
   2.004188e+02  -1.442199e+00
   1.480721e+02   1.467513e+02
   4.298881e+01   1.328524e+02
  -5.101557e+01   8.862309e+01
  -3.320098e+01   1.645552e+01
   8.585527e+00  -6.190597e+01
   5.373916e+01  -4.001667e+01
  -1.898402e+01  -1.160035e+01
  -5.565326e+01  -1.432608e+01
  -7.222585e+01  -6.592182e+01
   8.546940e+01  -5.955387e+00
   1.596448e+02   1.817922e+01
   1.441889e+02   2.336614e+01
  -1.283700e+01   1.172550e+02
  -1.427138e+02   8.476660e+01
  -1.643782e+02   6.637223e+01
   1.601490e+01  -2.226185e+01
   1.965252e+01  -5.102054e+01
   3.454700e+01   6.330709e+01
   1.664283e+01   7.641201e+01
  -7.704725e+01   1.247204e+02
  -4.158530e+01   3.963736e+00
  -2.254633e+01  -5.054432e+01
  -6.869635e+00  -6.676492e+01
  -3.989901e+01  -1.445801e+00
  -2.617495e+01  -3.337484e+01
   6.412075e+00  -1.773847e+01
   3.059088e+01  -5.935267e+01
   5.041656e+01  -1.543819e+02
   1.463207e+02  -6.256974e+01
   8.370940e+01   9.672663e+01
  -3.112119e+01   1.365990e+02
  -6.640876e+01   7.351536e+01
  -1.273094e+01  -2.720167e+01
   8.924411e+01   1.701101e+01
   1.403267e+02   6.573600e+01
   4.912855e+01   9.267996e+01
  -8.535634e+01   8.427202e+01
  -2.026247e+02   9.141294e+01
  -1.655907e+02  -1.977059e+01
  -4.807207e+01  -4.652211e+01
   5.797251e+01  -3.648787e+01
   4.567213e+01  -1.314643e+01
  -3.274584e+01   2.492522e+01
  -5.881217e+01  -5.254110e+01
  -3.690003e+01  -1.060230e+02
   5.887540e+01  -1.574433e+02
   2.068632e+02  -9.097719e+01
   1.136174e+02   5.113788e+01
   6.415363e+01   1.901722e+02
  -6.496824e+01   1.838430e+02
  -1.426589e+02  -1.582376e+01
  -4.476119e+01  -8.535889e+01
   2.373310e+01  -1.467762e+02
  -5.150824e+01  -2.362759e+01
   8.628763e+01   7.538797e+01
  -1.678078e+01   2.512182e+01
   5.725744e+01  -2.196011e+01
   4.502319e+01   4.834744e+01
   7.527109e+01   4.438258e+01
   6.487876e+01   1.118346e+02
  -3.621153e+01   1.342492e+02
  -7.152803e+01  -4.038763e+01
  -1.082371e+02  -9.121682e+01
  -8.276109e+00   4.372118e+00
   5.972575e+01   2.344086e+01
   1.269551e+02   1.312003e+01
  -6.533049e+01   4.353336e+01
  -3.913918e+01   2.010569e+00
  -4.227373e+01   5.500033e+00
  -2.191447e+00  -1.765469e-01
   5.383046e+01  -2.321655e+01
  -5.136025e+01   3.830894e+01
  -1.012188e+02  -2.433169e+01
  -1.180806e+01  -5.984662e+01
   1.526145e+02  -4.397559e+01
   2.460054e+02  -1.389135e+02
   1.143072e+02   8.981454e+01
   7.131757e+01   1.823277e+02
  -7.147617e+01   1.545397e+02
  -1.294699e+02   9.113534e+00
  -7.841178e+01  -1.402851e+01
  -9.758164e+01  -9.097219e+01
  -2.469152e+01  -1.965970e+01
  -5.650539e+01   1.584357e+01
  -2.712738e+01  -3.216938e+01
  -4.726690e+01  -1.091984e+02
   6.263286e+00  -6.131674e+01
   6.210879e+01   5.743967e+00
   1.825870e+01   1.132836e+02
   3.134745e+01   1.502455e+02
  -1.224888e+02  -5.662243e+00
  -1.115256e+02  -1.119337e+02
  -3.617393e+00  -1.005226e+02
   2.973650e+01  -3.414945e+01
   7.767420e+01  -2.260759e+01
   4.908869e+01   1.461874e+01
  -3.831803e+01   1.699228e+01
  -3.589830e+01   3.114165e+01
   5.442611e+01   4.132318e+01
   6.760759e+01   1.454573e+01
   4.339589e+01   4.726167e+01
  -1.155601e+02   7.552044e+01
  -9.066471e+01   4.983598e+01
  -2.654409e+01  -4.978672e+01
  -1.124180e+01  -9.239665e+01
   2.823618e+00  -5.729497e+01
   3.224371e+01  -8.413319e+01
   1.243741e+00  -7.909921e+00
  -2.450474e+01   5.821714e+01
  -9.342957e+00  -2.841253e+01
  -2.933124e+01  -1.464333e+01
  -2.445663e+01  -4.220208e+01
   5.222182e+01   3.162374e+01
   4.874941e+01  -2.389938e+01
   4.239114e+01  -6.540445e+01
   2.092599e-02  -4.061679e+01
   1.485946e+01   3.943156e+01
  -3.887295e+01  -4.471800e+00
  -1.624539e+01  -1.741229e+00
   4.902413e+00   5.572808e+01
  -3.951509e+01  -4.717064e+01
  -5.317294e+01  -5.062593e+00
  -5.119628e+00  -1.892245e+01
   8.900487e+01   8.670731e+01
  -2.202082e+01   6.154640e+01
  -9.476916e+01  -8.746879e+00
  -6.013603e+01  -3.449423e+01
   1.028080e+01  -1.654683e+01
   5.061923e+01  -5.790208e+01
   4.022749e+01  -6.231485e+01
   7.315989e+01  -2.028650e+01
  -2.001718e+01  -3.856861e+01
   1.564654e+00   9.597093e-01
  -3.247179e+01   1.007949e+01
   5.856423e+01  -4.570337e+01
