
 $NMID
 id='ANONYMOUS ', fmtdat='(2E16.6)'
 volume=1.0
 tramp=1.0
 $END
  -4.715927e+03  -4.118898e+01
  -2.703439e+03  -2.922478e+03
   9.644255e+02  -3.003976e+03
   2.400093e+03  -7.665381e+02
   9.759369e+02   9.055501e+02
  -8.844514e+02   6.941052e+02
  -1.025675e+03  -5.240116e+02
   2.871839e+01  -1.197481e+03
   9.014911e+02  -8.106635e+02
   1.064848e+03   1.389462e+02
   4.685617e+02   9.988952e+02
  -3.844543e+02   1.003784e+03
  -6.772614e+02   9.848725e+01
  -4.081950e+02  -8.391897e+02
   3.115138e+02  -8.343987e+02
   6.615427e+02   1.000723e+01
   2.740045e+02   7.496928e+02
  -3.712757e+02   6.032434e+02
  -6.287296e+02   4.025743e+01
  -3.507009e+02  -4.289481e+02
  -1.648986e+01  -5.120583e+02
   2.378994e+02  -2.402803e+02
   2.574212e+02  -3.868293e+01
  -1.278075e+02   1.163746e+02
  -4.350129e+02  -1.605719e+02
  -2.951058e+02  -4.433375e+02
   4.971707e+02  -4.520182e+02
   9.201019e+02   1.010056e+02
   4.589550e+02   6.236455e+02
  -4.429301e+02   4.792251e+02
  -7.774965e+02  -5.036572e+01
  -4.423458e+02  -5.562763e+02
   3.509520e+02  -5.692688e+02
   6.523529e+02  -1.886306e+02
   4.588536e+02   3.087965e+02
   3.112745e+01   5.034363e+02
  -2.074306e+02   3.702263e+02
  -1.623133e+02  -2.593340e+02
   1.664335e+02  -5.527801e+02
   5.391736e+02   2.852010e+01
   2.282067e+02   7.527331e+02
  -4.026224e+02   7.797535e+02
  -6.702008e+02  -1.840400e+01
  -3.085805e+02  -6.525174e+02
   3.363302e+02  -3.958865e+02
   4.283994e+02   3.808426e+02
  -8.444357e+01   5.835223e+02
  -6.705557e+02   1.706649e+02
  -6.171683e+02  -4.105349e+02
  -1.762655e+02  -6.155980e+02
   4.378860e+02  -2.531105e+02
   6.441114e+02   1.150165e+02
   3.540431e+02   4.514675e+02
  -1.646191e+02   4.037200e+02
  -4.529956e+02   2.986745e+01
  -2.464442e+02  -2.600121e+02
   1.472212e+02  -1.137544e+02
   1.817642e+02   1.970503e+02
  -1.654605e+02   2.512458e+02
  -3.399406e+02  -1.269689e+02
  -7.097837e+01  -3.164499e+02
   2.116822e+02  -2.435503e+02
   3.478685e+02  -7.202035e+01
   1.422739e+02   1.268690e+02
   1.450828e+00   2.082947e+02
  -2.315909e+02   3.070589e+02
  -3.378513e+02   1.595464e+02
  -2.701781e+02  -1.299200e+02
  -1.076879e+02  -4.785386e+02
   1.522814e+02  -3.628500e+02
   1.636169e+02  -6.834058e+01
   6.150852e+01  -5.328571e+00
  -7.578148e+00  -7.085718e+01
   2.079978e+02  -1.342029e+02
   3.061185e+02   5.997170e+01
   2.053285e+02   2.622028e+02
  -6.311627e+01   2.971463e+02
  -1.948589e+02   4.615359e+01
  -2.364023e+02  -2.226111e+02
   2.857720e+01  -3.085394e+02
   3.120865e+02  -1.166734e+02
   3.924227e+02   2.040243e+02
   2.002435e+02   3.524396e+02
  -1.281001e+02   3.218702e+02
  -2.394579e+02   1.129015e+02
  -1.466671e+02  -3.218095e+01
  -1.225589e+02   3.519925e+01
  -1.982660e+02   5.854238e+01
  -3.988575e+02  -6.813626e+01
  -3.577180e+02  -3.143221e+02
   3.259279e+01  -4.476740e+02
   3.771203e+02  -4.212147e+02
   5.185737e+02  -2.217264e+02
   3.471239e+02   6.793762e+01
   7.499879e+00   3.321007e+02
  -1.559249e+02   2.767694e+02
  -8.570301e+01   2.885613e+01
   7.503332e+01  -5.859174e+01
   2.507741e+02   1.104905e+01
   7.118625e+01   2.394874e+02
  -1.576434e+02   1.471265e+02
  -1.865634e+02  -1.209440e+02
  -9.625862e+00  -2.648784e+02
   2.801404e+02  -1.386625e+00
   1.646359e+02   2.185943e+02
   6.494547e-01   3.807354e+02
  -2.260570e+02   1.736345e+02
  -2.979865e+02  -1.423310e+02
  -2.466078e+02  -2.935159e+02
  -9.225509e+01  -2.828855e+02
   9.638064e+01  -1.125540e+02
   1.664057e+02  -4.890335e+00
   1.012845e+02   6.957171e+01
  -1.162126e+02  -5.804451e+01
   1.203947e+01  -8.752516e+01
   1.426210e+02  -1.172869e+02
   2.150781e+02   1.125488e+01
   5.675608e+01   7.251679e+01
  -1.016499e+02   2.776338e+01
  -1.025430e+02  -2.766668e+01
   1.294751e+02  -8.086881e+01
   3.115078e+02  -4.873685e+01
   2.915002e+02   1.293954e+02
  -8.615880e+00   2.186233e+02
  -1.953866e+02   2.976739e+02
  -2.856019e+02   1.228649e+02
  -2.166831e+02  -4.384447e+01
   8.545646e+00  -1.042090e+02
   1.190024e+02   5.094878e+01
   3.932407e+00   1.175154e+02
  -2.350696e+02   9.986705e+01
  -2.076409e+02  -5.152467e+01
  -8.864710e+01  -1.266161e+02
   1.117561e+02  -1.436230e+02
   1.501938e+02  -1.862038e+01
   1.416388e+02   5.263814e+01
  -5.039204e+01   7.616995e+01
  -6.265945e+01  -5.316070e+01
   4.862824e+01  -1.223865e+02
   1.996005e+02  -8.898547e+01
   1.655453e+02   1.196577e+02
  -3.836184e+01   2.315047e+02
  -1.520141e+02   1.614690e+02
  -1.834333e+02   5.045180e+00
  -7.213789e+01  -1.014856e+02
   3.313081e+01  -4.836704e+01
   7.527823e+01  -6.492276e+01
   1.912978e+01   2.710098e+01
  -4.562642e+00   1.167534e+01
   1.715301e+01   1.148832e+00
   1.672472e+02  -2.671751e+01
   1.148966e+02   5.518787e+01
   5.979427e+00   1.376458e+02
  -1.079017e+02   1.069317e+02
  -2.248930e+02   4.953450e+01
  -2.040886e+02  -1.977006e+02
  -1.098690e+01  -3.026334e+02
   9.051116e+01  -1.590241e+02
   1.419656e+02  -8.709952e+01
   9.594192e+01   4.794642e+01
   1.684593e+01   1.093744e+02
   4.863899e+01   1.536439e+01
   1.124904e+02   1.004421e+01
   5.973745e+01   1.071652e+01
  -2.746299e+01   6.404809e+01
  -1.619582e+02   3.347944e+01
  -8.880319e+01  -5.281412e+01
   2.579552e+00  -7.199827e+01
   1.387858e+02  -1.043937e+02
   2.330659e+02   3.205904e+01
   6.110316e+01   1.718183e+02
  -7.717282e+01   2.622118e+02
  -3.079813e+02   5.456812e+01
  -2.840578e+02  -4.815153e+01
  -9.410064e+01  -1.567082e+02
   2.714403e+00  -1.665592e+02
   6.748836e+01  -7.832495e+01
   9.468741e+01  -9.652013e+01
   1.148303e+02  -1.507372e+02
   1.759096e+02  -3.744547e+01
   1.542722e+02   2.602730e+01
   1.581990e+02   2.465561e+02
   3.666639e+01   2.099457e+02
  -9.769336e+01   1.883715e+02
  -1.225332e+02  -9.388461e+00
  -1.491672e+02  -1.395801e+02
  -6.167490e+00  -1.685842e+02
   8.372615e+01  -4.107915e+01
   6.484487e+01   8.086157e+00
  -1.354339e+01   6.176759e+01
   5.763116e+01   5.488372e+01
   5.599288e+01   4.121392e+01
   5.162577e+01   4.821693e+01
   3.959603e+01   2.214792e+01
  -1.157357e+02   8.637775e+01
  -1.139995e+02   2.300891e+01
  -1.246448e+02  -8.590375e+01
  -5.575062e+01  -8.740847e+01
   1.196045e+02  -6.494205e+01
   1.567754e+02  -2.537027e+01
   5.885775e+01   3.579277e+01
  -5.254293e+00   2.759291e+01
  -4.850813e+01  -6.195646e+00
  -3.058489e+01  -7.137801e+01
   6.704103e+01  -4.063914e+01
   8.951072e+01  -2.130707e+01
   2.492681e+01   5.777359e+01
   4.233708e+01   7.462487e+01
   8.504544e+01   1.029754e+01
   9.958660e+01  -2.772178e+01
   4.409744e+00   4.611153e+01
  -6.327869e+01   1.911517e+02
  -1.601550e+02   1.947585e+02
  -1.479406e+02   1.151124e-02
  -1.030635e+02  -8.401920e+01
   1.651946e+01  -1.062619e+02
   9.846384e+01  -1.078984e+02
   1.215469e+02   3.005908e+01
  -9.044846e+01   4.433406e+01
  -1.311033e+02  -7.880991e+01
  -4.822695e+01  -9.926016e+01
   1.124602e+02  -7.160468e+01
   2.179975e+02  -6.785652e+01
   2.000458e+02   4.916769e+01
   1.589998e+01   7.610310e+01
  -4.579086e+01   3.301877e+01
  -3.547917e+01   9.539266e+00
   2.439686e+01  -1.501919e+01
   1.050161e+02   6.411547e+01
   3.658509e+01   4.795001e+01
  -6.113039e+01   2.053500e+02
  -2.144667e+02   9.069250e+01
  -1.285339e+02  -9.257424e+01
   1.578775e+01  -1.643532e+02
   1.409304e+02  -1.702558e+02
   1.390905e+02   1.055827e+01
   2.656837e+01   8.027617e+01
  -3.449493e+01   1.074631e+02
  -7.330018e+01  -2.697471e+01
  -2.458549e+01  -5.400855e+01
   9.187210e+00  -4.458894e+01
   3.686312e+01   4.045228e+00
  -5.202087e+00   7.044614e+00
  -1.065402e+02  -9.048499e+01
  -5.369573e+01  -1.262405e+02
   6.251342e+01  -1.649495e+01
   1.472195e+02   8.175016e+01
   9.582648e+01   6.811296e+01
  -9.203464e-02   8.557608e+01
  -9.402608e+01   6.937147e+00
  -3.533884e+01  -2.709723e+01
   3.557328e+01   2.988039e+00
   8.490316e+01  -1.090798e+01
  -1.247928e+01  -7.128936e+01
   1.152026e+01  -1.064970e+00
   3.248058e+01  -1.994238e+00
   1.078624e+02  -3.075277e+01
   1.207760e+02  -4.642809e+00
   2.711562e+00   7.164346e+01
  -7.636983e+01   9.896192e+01
  -1.853643e+02   3.961215e+01
  -1.665425e+02  -7.566401e+01
   1.244352e+01  -1.302742e+02
   6.312623e+01  -1.658517e+02
   8.884919e+01  -2.805875e+01
   8.032155e+01   2.100700e+01
   1.093681e+01   1.289270e+02
  -4.869189e+01   3.089581e+01
   1.894532e+01  -5.027045e+01
   1.521758e+01   6.234293e+01
  -1.112926e+01   9.224920e+01
  -5.315647e+01   4.802745e+00
  -1.289890e+02  -1.368520e+01
  -7.692541e+01  -1.321604e+02
  -2.517179e+01  -1.320831e+02
   3.822042e+01  -1.910994e+01
   1.169772e+02   9.413414e+01
   8.048769e+01   8.325708e+01
  -9.982969e+01   1.195837e+01
  -6.467486e+01  -5.741272e+00
  -9.146137e+01  -6.794336e+01
   2.522858e+01  -6.510884e+00
   2.932564e+01  -1.223259e+02
  -3.411742e+01  -5.946605e+00
  -5.467408e+01  -1.715195e+01
  -1.605599e-01  -5.434787e+01
   1.204610e+01  -1.860853e+01
   1.068475e+02  -4.432718e+01
   1.035482e+02   1.345662e+01
   1.742625e+01   2.015014e+01
  -6.328664e+01   1.022891e+02
   8.649635e-01  -6.236753e+01
   2.590514e+01  -5.211937e+01
  -1.737075e+01   1.150430e+01
   3.311607e+01  -1.178187e+01
   5.016439e+01   8.533431e+01
  -2.744972e+01   1.107159e+01
  -2.832879e+01  -5.112641e+00
  -6.525079e+01   1.599797e+01
   4.394312e+01   3.264728e+01
  -3.008008e+01  -4.030034e+01
  -6.903333e+01  -5.994787e+01
   6.784552e+00  -3.929462e+01
  -4.769730e-01  -3.919666e+00
   1.760555e+01  -6.951038e+00
  -2.864977e+01   7.075371e+00
   2.332722e+01   5.223410e+01
  -6.660242e+01   4.537863e+01
  -4.760887e+01  -4.125931e+01
  -2.279566e+00  -1.384783e+02
   1.090572e+02  -4.680710e+01
   7.350215e+01   3.322037e+01
  -1.826099e+01  -1.695934e+01
  -8.205633e+01  -9.442483e+00
  -8.772403e+01  -7.551840e+00
  -6.309994e+01   2.662305e+01
   3.723394e+01   5.721670e+01
   3.262396e+01   4.101052e+01
  -2.225276e+01   2.259372e+01
  -8.285104e+01   1.785329e+01
