
 $NMID
 id='ANONYMOUS ', fmtdat='(2E16.6)'
 volume=1.0
 tramp=1.0
 $END
   4.259101e+03  -2.919833e+01
   2.546707e+03   2.460171e+03
  -5.774501e+02   2.767651e+03
  -1.999171e+03   9.744947e+02
  -1.016369e+03  -5.763413e+02
   5.518138e+02  -5.955038e+02
   8.088847e+02   3.917419e+02
   3.171996e+01   9.937090e+02
  -7.718861e+02   7.895166e+02
  -9.779548e+02  -7.140252e+01
  -4.830790e+02  -8.139145e+02
   1.601798e+02  -8.460386e+02
   5.942494e+02  -1.394980e+02
   4.234515e+02   6.993624e+02
  -2.922503e+02   7.224383e+02
  -5.086772e+02  -2.706719e+01
  -2.815092e+02  -7.125984e+02
   3.818089e+02  -6.055705e+02
   6.274915e+02  -1.080470e+02
   3.949321e+02   3.956780e+02
   4.200752e+01   4.541633e+02
  -1.615103e+02   2.879503e+02
  -1.854571e+02  -1.828650e+01
   5.907086e+01  -1.034014e+02
   3.343930e+02   1.105766e+02
   1.803305e+02   3.906799e+02
  -4.722399e+02   3.573653e+02
  -8.571356e+02  -5.629840e+01
  -4.235087e+02  -5.529318e+02
   3.851079e+02  -4.845749e+02
   7.930178e+02   4.638932e+01
   3.986158e+02   5.007048e+02
  -3.096976e+02   5.308430e+02
  -5.736528e+02   2.348011e+02
  -4.063875e+02  -2.532949e+02
  -4.565119e+01  -4.393554e+02
   1.697713e+02  -2.696032e+02
   1.106959e+02   1.846675e+02
  -1.546917e+02   3.620710e+02
  -3.521703e+02  -5.411802e+01
  -2.158833e+02  -7.064889e+02
   3.137282e+02  -6.559475e+02
   5.842939e+02  -7.214084e+01
   2.002255e+02   5.432591e+02
  -2.243248e+02   3.218191e+02
  -3.732475e+02  -2.933627e+02
   6.896896e+01  -5.692660e+02
   5.556514e+02  -8.186156e+01
   5.699744e+02   4.360073e+02
   1.661857e+02   6.172356e+02
  -4.077573e+02   3.536774e+02
  -6.497427e+02  -8.055803e+01
  -4.456683e+02  -3.244745e+02
   1.734510e+02  -3.699827e+02
   3.974455e+02  -6.723419e+01
   2.623008e+02   1.468826e+02
  -1.455857e+02   1.078060e+02
  -1.657421e+02  -1.080253e+02
   1.455967e+02  -1.518035e+02
   3.544577e+02   2.351134e+01
   1.663719e+02   2.996672e+02
  -2.248918e+02   2.607343e+02
  -3.468357e+02   8.399548e+01
  -2.205719e+02  -5.499932e+01
   2.754157e+01  -2.533406e+02
   2.629393e+02  -3.007611e+02
   3.684030e+02  -2.281034e+02
   2.828467e+02   4.827907e+01
   9.006565e+01   5.070044e+02
  -8.756934e+01   4.014470e+02
  -1.047924e+02   1.179926e+02
  -4.200779e+01   5.543163e+01
  -8.642226e+01   6.311926e+01
  -2.205849e+02   1.668701e+02
  -3.024532e+02  -2.831772e+01
  -1.182459e+02  -2.586682e+02
   6.158728e+01  -2.516548e+02
   2.118853e+02   5.681425e+01
   2.020312e+02   2.711640e+02
  -2.136498e+01   2.886355e+02
  -2.732267e+02   1.615014e+02
  -3.661120e+02  -1.438773e+02
  -1.973888e+02  -3.434679e+02
   1.311900e+02  -2.927042e+02
   1.606344e+02  -1.467089e+02
   1.594063e+02  -2.491126e+01
   1.473726e+02  -7.905502e+01
   1.694449e+02  -6.217070e+01
   4.203416e+02   5.934064e+01
   3.336231e+02   3.038934e+02
   3.238063e+01   4.135550e+02
  -3.330910e+02   3.831183e+02
  -4.787562e+02   2.269301e+02
  -3.346393e+02  -9.415815e+01
  -8.868125e+01  -2.527954e+02
   1.126915e+02  -2.578517e+02
   9.854937e+01  -3.549369e+01
  -7.448307e+01   9.365929e+01
  -1.877440e+02  -4.562189e+01
  -2.462472e+01  -2.257098e+02
   1.587059e+02  -1.892974e+02
   1.740377e+02   1.259800e+02
  -1.501204e+01   1.943269e+02
  -1.745310e+02   3.570257e+01
  -1.464760e+02  -2.158792e+02
   7.791478e+00  -3.365589e+02
   2.130968e+02  -2.030929e+02
   3.456467e+02   6.682395e+01
   3.074712e+02   2.008766e+02
   6.407449e+01   2.663655e+02
  -1.244084e+02   1.451733e+02
  -1.427454e+02   1.680280e+01
  -5.771537e+01  -2.410720e+01
   3.241009e+01   8.933242e+01
   5.428151e+01   7.570012e+01
  -1.937657e+02   8.694071e+01
  -1.786649e+02  -1.550834e+01
  -7.535308e+01  -4.237495e+01
   1.568382e+02   1.197374e+01
   7.199830e+01   5.507727e+01
  -1.360951e+02   7.999700e+01
  -3.065176e+02  -6.974703e+00
  -2.137693e+02  -1.574480e+02
  -4.870358e+01  -2.832831e+02
   2.167515e+02  -2.773696e+02
   2.483901e+02  -8.645198e+01
   1.625168e+02   2.065923e+01
  -1.063369e+01   8.967978e+01
  -1.210899e+02   1.472404e+00
   6.167185e+01  -1.195124e+02
   1.987715e+02  -6.520897e+01
   2.268350e+02   9.732975e+01
   7.424575e+01   1.938940e+02
  -1.076211e+02   1.229532e+02
  -1.430163e+02  -1.587920e+01
  -7.021075e+01  -7.227638e+01
   1.492434e+01   9.137035e+00
   2.260423e+01   9.622930e+01
  -7.784164e+01   9.614641e+01
  -2.127077e+02   1.672316e+01
  -2.113350e+02  -9.942078e+01
  -1.964999e+01  -2.629998e+02
   1.796443e+02  -1.101657e+02
   2.165726e+02  -1.510529e+01
   6.637762e+01   9.795658e+01
  -5.126897e+01   1.567411e+02
  -5.348945e+01   5.646308e+01
  -3.761758e+01  -4.556509e+01
  -1.161076e+01   2.641928e+01
  -6.373710e+01  -1.517713e+00
  -8.450590e+01  -2.459475e+01
  -4.289453e+01  -9.866754e+01
  -2.803271e+01  -1.301700e+02
   1.840557e+02  -1.725619e+02
   2.887012e+02  -3.380381e+01
   1.668591e+02   1.018023e+02
   1.641961e+01   2.408278e+02
  -8.777976e+01   1.873709e+02
  -1.894860e+02   1.571410e+01
  -4.467406e+01  -8.079382e+01
   1.279372e+01  -4.716840e+01
  -6.282627e+01   2.044659e+00
  -6.351522e+01  -4.831217e+01
  -7.248942e+01  -4.008415e+01
   7.717658e+01  -8.269958e+01
   1.047578e+02  -4.399507e+01
   1.105446e+02  -7.629333e+00
  -4.634076e+01   1.141180e+02
  -1.898230e+02   1.412640e+02
  -1.516273e+02  -4.800199e+01
  -9.109267e+01  -1.862920e+02
   1.518631e+02  -2.531768e+02
   2.416239e+02  -8.984509e+01
   2.665815e+02   9.318265e+01
   1.127708e+02   1.859495e+02
  -1.138367e+02   1.458745e+02
  -1.101889e+02   1.130401e+02
  -6.568932e+01   1.316047e+02
  -9.315447e+01   2.532294e+01
  -1.190917e+02   4.220440e+01
  -1.108676e+02  -4.381269e+01
  -1.244551e+02  -1.435090e+02
  -2.208448e+01  -3.014222e+02
   1.123734e+02  -1.412176e+02
   1.204758e+02  -1.220481e+01
   1.615967e+02   1.285573e+02
   2.387684e+01   7.697561e+01
  -1.783558e+01   9.147037e+01
  -9.212768e+01   2.022572e+01
   1.580468e+01  -6.233848e+01
   2.371035e+01  -2.465414e+01
  -8.584509e+01   2.459467e+01
  -1.121893e+01  -3.411721e+01
  -6.230356e+01  -4.376242e+01
   1.045306e+02  -1.864871e+01
   1.860225e+02   5.790444e+00
   1.456348e+02   2.571727e+01
   1.973151e+01   6.036085e+01
  -1.271290e+02   1.150946e+02
  -1.758690e+02   8.725888e+00
  -6.544066e+01  -5.716760e+01
   1.941997e+01  -2.179847e+01
   5.324166e+00   4.442124e+01
   2.174486e+01   6.336521e+01
  -3.143668e+01   8.201073e+01
  -1.937354e+01   9.289373e+00
  -6.278728e+01  -4.663335e+01
  -8.849619e+01   1.880444e+01
  -8.777758e+01  -2.409665e+01
  -7.576399e+01   3.279108e+01
  -4.433880e+01  -1.294642e+02
   1.548979e+00  -1.581478e+02
   6.953370e+01  -1.736809e+02
   2.127263e+02  -6.143848e+01
   1.628838e+02   1.124701e+02
  -2.213559e+01   2.253623e+02
  -4.798581e+01   6.542258e+01
  -1.012760e+02  -2.958319e+01
   1.211034e+02  -6.089867e+01
   1.529630e+02   4.423931e+01
   8.674070e+01   1.562979e+02
  -8.551242e+01   6.964085e+01
  -1.662508e+02   1.201210e+02
  -1.794160e+02  -3.776677e+01
  -5.209233e+01  -6.130463e+01
   9.567154e+01  -6.977313e+01
   3.068592e+00  -5.056285e+00
  -8.675306e+01   7.846114e+00
  -1.173677e+02  -6.272994e+00
  -5.362026e+01  -1.564870e+02
   1.229967e+02  -1.195397e+02
   2.022551e+02  -1.021753e+02
   1.426719e+02   1.020958e+02
   6.924005e+01   1.945596e+02
  -8.290344e+01   1.298852e+02
  -9.997876e+01  -1.161195e+01
  -6.599937e+01  -1.460465e+02
  -3.969311e+01  -1.148777e+02
   2.887704e+01   2.590773e+01
   7.212078e+01   4.525452e+01
  -1.143263e+01  -1.041231e+01
   2.349655e+01   2.477375e+01
   1.330241e+01  -2.473613e+01
   4.957710e+01   1.361721e+02
   3.623118e+01   7.539166e+01
  -7.119167e+01  -2.104309e+01
  -1.144705e+02  -3.299534e+01
  -1.473860e+02  -4.494381e+01
  -3.266328e+01  -7.583672e+01
   9.873994e+01  -4.753475e+00
   1.184788e+02  -8.344182e+00
  -1.738179e+01   2.896944e+01
  -5.911735e+01   8.344483e+01
  -3.872462e+00  -4.247832e+01
   5.630616e+01   5.184095e+01
  -2.011975e+01  -5.966951e+01
  -9.401584e+01  -2.738204e+01
  -1.242351e+02  -3.047102e+01
  -2.002095e+01  -7.720423e+01
   1.189914e+02  -1.010942e+02
   2.612795e+02  -5.779357e+01
   1.367276e+02   9.894400e+01
   5.495256e+01   1.980313e+02
  -3.004590e+01   1.158595e+02
  -1.035811e+02   2.372451e+01
  -8.392674e+01   1.526119e+01
   1.450762e+01  -1.022818e+02
   4.715115e+01  -3.288597e+01
  -2.199387e+01  -6.696969e+01
  -1.507217e+00  -7.182974e+01
   6.630749e+00  -1.142393e+02
   2.406414e+00  -1.099683e+02
   1.296415e+02  -3.191608e+01
   7.670827e+01   7.563777e+01
  -3.740190e+01   1.860162e+02
  -7.798602e+01   1.903058e+01
  -9.151974e+01  -1.083602e+02
   9.267401e-01  -1.204432e+02
   4.248364e+01  -4.370693e+01
   3.689516e+01   3.024418e+01
   4.003902e+01   5.644083e+01
  -3.014780e+01   9.852445e+01
  -9.542658e+01  -3.227922e+01
  -1.255294e+01   2.826517e+01
   6.851854e+01  -3.371273e+01
   5.442279e+01   2.532682e+01
  -9.605267e+01   2.451473e+01
  -1.513928e+02   1.056820e+02
  -7.834441e+01  -4.097911e+01
   8.902241e+00  -9.695522e+01
   6.042574e+01  -5.368640e+01
  -8.586777e-01  -7.040310e+00
  -1.294625e+01   5.392904e+01
   2.063937e+01   4.215903e+01
   3.426647e+01   7.298696e+00
   2.346612e+01  -1.592292e+01
   9.186284e+00  -3.905592e+01
   2.555946e+01   4.627536e+00
   3.309820e+01   4.605358e+01
   4.424397e+00  -5.015733e+00
  -1.013442e+01   4.490275e+01
   7.433500e+00   4.751240e+01
   1.165211e+01  -3.939033e+01
  -4.853644e+01   9.006328e+00
   3.076551e+01   3.162470e+01
   4.143362e+01  -3.571721e+01
  -2.784420e+01  -4.839435e+01
   3.230984e+01  -4.055491e+01
   3.946009e+00   1.356895e+02
   2.243203e+01   2.459209e+01
  -2.734163e+01   4.192190e-02
  -1.036231e+02   7.085712e-01
  -1.686583e+01  -6.557304e+01
  -2.861904e+01  -5.487004e+01
   3.180200e+01  -3.415186e+01
   4.841905e+01   9.466452e+00
  -6.968224e+00   1.884195e+01
  -6.329753e+01   1.762116e+01
   4.412131e+01  -5.154993e+01
   1.379937e+02  -3.624081e+01
