
 $NMID
 id='ANONYMOUS ', fmtdat='(2E16.6)'
 volume=1.0
 tramp=1.0
 $END
  -4.551584e+03  -8.518975e+01
  -2.606919e+03  -2.765637e+03
   9.179799e+02  -2.903195e+03
   2.281545e+03  -8.297405e+02
   9.845064e+02   7.183097e+02
  -6.932043e+02   5.789925e+02
  -9.846488e+02  -4.575399e+02
   3.064685e+01  -1.118563e+03
   8.872039e+02  -8.286712e+02
   9.209690e+02   1.383198e+02
   4.707670e+02   8.979595e+02
  -2.928321e+02   9.575923e+02
  -7.130287e+02   1.000746e+02
  -4.252509e+02  -7.775768e+02
   3.556489e+02  -7.933144e+02
   6.854819e+02   3.533214e+01
   2.930782e+02   6.851500e+02
  -3.901882e+02   6.782921e+02
  -6.429140e+02   1.011124e+02
  -4.225645e+02  -3.590351e+02
   4.589941e+01  -4.468023e+02
   2.650024e+02  -3.111594e+02
   2.902594e+02   1.961255e+01
  -1.522663e+02   1.115947e+02
  -4.281822e+02  -1.274416e+02
  -1.739024e+02  -4.535529e+02
   4.404527e+02  -4.407685e+02
   9.592753e+02   1.142632e+02
   4.461876e+02   6.236297e+02
  -4.456049e+02   5.562836e+02
  -8.188641e+02  -4.359272e+01
  -4.082100e+02  -5.079640e+02
   3.526824e+02  -5.621643e+02
   6.073790e+02  -1.708393e+02
   4.001323e+02   2.663160e+02
   7.632727e+01   4.752342e+02
  -2.361386e+02   3.128963e+02
  -1.880990e+02  -2.138953e+02
   1.248888e+02  -4.768865e+02
   4.443900e+02   2.944903e+01
   2.568679e+02   7.255208e+02
  -3.825378e+02   7.467999e+02
  -6.772823e+02   2.924965e+00
  -2.529485e+02  -6.237105e+02
   3.292342e+02  -2.952232e+02
   3.585493e+02   3.845687e+02
  -8.725569e+01   5.310113e+02
  -5.642884e+02   1.317894e+02
  -6.250718e+02  -4.224527e+02
  -1.747846e+02  -6.308355e+02
   4.415766e+02  -3.012953e+02
   7.022149e+02   8.684629e+01
   3.996141e+02   3.614939e+02
  -2.015834e+02   3.530016e+02
  -4.617025e+02  -5.153829e+00
  -2.666088e+02  -1.902974e+02
   1.632547e+02  -1.851104e+02
   1.630297e+02   1.975423e+02
  -1.833035e+02   2.226577e+02
  -3.641855e+02  -6.480555e+01
  -1.421242e+02  -3.123358e+02
   2.012675e+02  -2.232399e+02
   3.576706e+02  -8.099681e+01
   1.740571e+02   1.241231e+02
  -9.465629e+00   1.920703e+02
  -1.779391e+02   2.572755e+02
  -3.328155e+02   2.180302e+02
  -3.116193e+02  -1.584378e+02
  -8.301212e+01  -4.809447e+02
   1.151243e+02  -3.634989e+02
   1.938095e+02  -9.514819e+01
   1.633936e+01   2.512127e+01
   4.266224e+01  -2.903623e+01
   2.000175e+02  -1.426610e+02
   3.405287e+02   7.526591e+01
   2.055727e+02   3.600699e+02
  -1.115100e+02   2.954878e+02
  -2.192994e+02  -3.536069e+01
  -2.370785e+02  -2.357707e+02
  -2.025601e+01  -2.885586e+02
   2.892291e+02  -1.761913e+02
   4.205664e+02   1.475454e+02
   1.929226e+02   4.327738e+02
  -1.220912e+02   3.562484e+02
  -2.340867e+02   1.600756e+02
  -1.261607e+02   4.579493e+00
  -9.046136e+01   3.213190e+01
  -2.264360e+02   9.270215e+01
  -4.236425e+02  -1.605489e+01
  -3.475853e+02  -2.931096e+02
  -2.558752e-01  -4.748209e+02
   3.725971e+02  -3.928867e+02
   4.892404e+02  -2.171639e+02
   3.683029e+02   1.137198e+02
   5.796334e+01   2.539301e+02
  -1.367084e+02   3.057901e+02
  -6.859144e+01  -1.893931e+01
   1.432985e+02  -1.601798e+02
   2.626438e+02   8.038919e-01
   5.971600e+01   1.712723e+02
  -1.851502e+02   2.187717e+02
  -1.714094e+02  -4.500585e+01
   1.338447e+01  -2.332133e+02
   1.965607e+02  -9.781796e+01
   1.529021e+02   2.741717e+02
  -4.019123e+01   3.217340e+02
  -3.036722e+02   2.242197e+02
  -3.741157e+02  -1.014588e+02
  -2.531013e+02  -2.689871e+02
  -1.273129e+02  -2.979835e+02
   1.134824e+02  -2.103722e+02
   1.763621e+02  -2.428583e+01
   3.168137e+01   8.511025e+01
  -4.253037e+01  -1.819172e+01
  -1.431337e+01  -1.547673e+02
   1.107109e+02  -1.424219e+02
   1.643026e+02   2.070269e+01
   5.707407e+01   4.484120e+01
  -3.622757e+01   2.656416e+01
  -6.962006e+01  -1.136346e+02
   1.498075e+02  -1.015414e+02
   2.828699e+02   2.220617e+01
   3.354927e+02   1.352843e+02
   5.800212e+01   2.535682e+02
  -1.623081e+02   2.545273e+02
  -2.769211e+02   8.976523e+01
  -1.440408e+02  -6.231840e+01
  -4.524953e+00  -4.492608e+01
   6.401578e+01  -4.452708e+01
  -5.352555e+01   1.350115e+02
  -2.300522e+02   1.722580e+01
  -2.111002e+02  -1.184892e+02
  -8.693667e+01  -2.423426e+02
   1.008527e+02  -1.953842e+02
   8.927939e+01  -5.516963e+01
   1.539418e+01   3.444735e+01
  -2.754665e+01  -7.925208e+01
  -2.748185e+01  -1.071559e+02
   1.065110e+02  -1.324622e+02
   2.670881e+02  -1.245052e+00
   2.212393e+02   1.130818e+02
   5.224390e+01   2.832583e+02
  -1.149241e+02   1.546066e+02
  -2.041133e+02   4.052974e+01
  -6.774479e+01  -1.232505e+02
   6.919394e+01  -6.765649e+01
   1.240711e+02  -3.560010e+01
   3.542880e+01   1.656621e+01
   3.962342e+01   1.892773e+01
   2.018073e+01   2.069310e+01
   5.657593e+01  -7.062910e+00
   1.313575e+02   1.105162e+02
   2.340949e+01   1.115454e+02
  -1.722140e+02   1.934405e+02
  -2.292757e+02   7.689778e+00
  -2.159908e+02  -1.421496e+02
  -2.050417e+01  -2.213149e+02
   1.018702e+02  -1.775956e+02
   1.411619e+02  -1.933615e+01
   7.934408e+01   7.161874e+01
   5.207777e+01   6.016157e+01
   6.055323e+01  -1.710919e+01
   9.853210e+01   3.678898e+01
   5.971814e+00   6.284591e+01
  -7.387442e+01   5.137557e+01
  -1.599076e+02   3.290335e+01
  -9.698992e+01  -6.221237e+01
   2.995756e+01  -1.356528e+02
   1.530171e+02  -3.791608e+01
   1.650030e+02   6.179280e+01
   9.567638e+01   2.130743e+02
  -9.668536e+01   2.033323e+02
  -2.783190e+02   1.269278e+02
  -2.401318e+02  -1.163617e+02
  -9.343161e+01  -2.208176e+02
   1.681275e+01  -1.626834e+02
   1.315136e+02  -1.330132e+02
   4.487732e+01  -2.751179e+01
   4.927039e+01  -1.221738e+02
   1.043794e+02  -1.871925e+01
   1.128580e+02   4.318158e+01
   3.813075e+01   1.498029e+02
   1.553347e+00   2.164495e+02
  -8.847352e+01   2.203350e+02
  -1.824661e+02   1.401055e+01
  -1.678147e+02  -1.119314e+02
  -1.942807e+01  -1.868292e+02
   3.985706e+01  -1.086043e+02
   1.856464e+01  -5.780198e+01
  -1.247326e+00  -1.990882e+01
   3.003549e+01  -8.769929e+00
  -4.580097e+00   6.259208e+01
   1.232669e+02   3.185128e+01
   1.958977e+01  -1.006635e+01
  -2.225654e+01   1.636543e+01
  -2.117660e+02  -6.019375e+01
  -1.602649e+02  -1.868105e+01
  -2.702220e+01  -9.134897e+01
   1.039099e+02  -1.158617e+02
   1.385446e+02   2.924768e+00
   3.025758e+01   4.952657e+01
  -5.927806e+01  -3.860964e+01
  -1.062665e+02  -7.396713e+01
  -1.712439e+01  -9.577588e+01
   6.245670e+01  -1.037158e+02
   7.986787e+01   2.306514e+01
   2.858882e+01   1.212986e+02
   4.008869e+01   6.921415e+00
   3.287594e+01  -1.691134e+01
   2.585184e+01  -6.191514e+01
  -1.474720e+00   3.157800e+01
  -4.243144e+01   1.339600e+02
  -7.652049e+01   1.620464e+02
  -1.685975e+02   9.701858e+00
  -1.222051e+02  -4.373139e+01
   3.165203e+01  -8.230214e+01
   4.252980e+01  -3.899942e+01
   4.040717e+01  -1.079974e+01
  -4.567745e+01   1.593044e+01
  -1.181561e+02  -2.064437e+01
  -6.444830e+01  -1.345788e+02
   6.231691e+01  -1.357357e+02
   1.739770e+02  -6.100392e+01
   1.626555e+02   3.174382e+01
   7.580364e+01   1.285842e+02
  -6.145031e+01   4.539535e+01
  -2.989724e+01   2.572318e+01
   2.208473e+01   1.373478e+01
   6.135712e+01   4.450533e+01
   6.669888e+01   1.481487e+02
  -1.160258e+02   1.191124e+02
  -2.225400e+02   1.273047e+02
  -1.343027e+02  -9.168882e+01
   3.588079e+01  -1.606655e+02
   1.294337e+02  -1.648487e+02
   3.158009e+01   3.775874e+01
   2.048592e+01   9.605331e+01
   4.924411e+01   1.445617e+02
  -1.954896e+01  -4.066742e+01
  -8.209691e+01  -9.602021e+01
  -3.954141e+01   3.124884e+01
  -2.615205e+01   1.575795e+01
  -1.718800e+01   2.214774e+01
  -9.424871e+01  -8.073779e+01
  -4.725037e+01  -1.041771e+02
   3.429785e+01  -4.276992e+01
   1.737676e+02   4.252556e+01
   1.054315e+02   2.221613e+01
  -4.749231e+01   2.676253e+01
  -1.123759e+02   2.777413e+01
  -5.076241e+01  -1.133828e+01
  -3.744108e+01   4.972454e+01
   2.719836e+01  -1.227072e+01
   2.430112e+01  -2.845057e+01
   8.977009e+00  -3.660030e+01
   2.703926e+00   4.827967e+01
   5.078341e+01  -7.941139e+01
   8.495899e+01   4.537221e+01
   4.639200e+01   8.803415e+01
  -1.152686e+02   1.273109e+02
  -2.115381e+02   1.284766e+01
  -1.216226e+02  -6.409111e+01
  -1.881186e+01  -2.219634e+02
   9.134710e+01  -1.448645e+02
   9.323175e+01  -9.006244e+01
   1.103282e+02   6.481686e+01
   4.461774e+01   1.833818e+01
   2.011895e+01   2.482925e+01
   3.015270e+00  -1.887247e+01
   3.169630e+01   2.672211e+01
   1.919349e+01   7.358889e+01
  -2.244023e+01   8.473048e+01
  -9.047305e+01   2.164703e+01
  -7.108462e+01  -1.495479e+02
   6.824369e+01  -9.844467e+01
   7.036158e+01  -8.883843e+00
   1.035942e+02   5.221409e+01
   4.908989e+01   7.931900e+01
  -5.380075e+01   1.663899e+00
  -1.087042e+02   3.567529e+01
   8.751012e-01  -7.163500e+01
   4.849708e+01  -6.406580e+01
   1.265815e+01   8.264108e+00
  -4.115027e+01   3.859322e+00
  -7.605483e+01   7.384259e+01
   4.852900e+00  -1.311004e+01
   9.748682e+01  -4.951096e+01
   1.118153e+02  -8.364426e+01
   1.120080e+02   3.533289e+01
  -4.254169e+01   1.221917e+02
  -2.370069e+01   8.589994e+01
  -2.958356e+01  -2.043202e+01
  -3.181714e+01  -6.073427e+01
   4.426322e+01  -2.607871e+01
   4.783744e+01   5.834737e+01
   3.696144e+01   5.995821e+01
  -1.648832e+01   1.857327e+01
  -1.396587e+01   4.657208e+01
  -4.670012e+01  -2.156304e+01
  -3.660660e+01   1.549530e+01
  -1.073545e+00  -3.623035e+01
   2.626080e+01   2.256232e+01
   5.609370e+00  -1.169071e+01
  -1.205433e+00  -8.162031e+01
   1.032371e+02   4.008241e+01
   6.078463e+01   7.977187e+01
  -2.194024e+01   7.554003e+01
  -3.688918e+01   6.762890e+01
  -4.513886e+01  -7.026255e+01
  -2.683888e+01  -1.253351e+02
   4.601879e+01  -2.637751e+01
   8.835009e+00   1.966866e+01
   2.982794e+01   8.943786e+01
  -6.968163e+01   3.651135e+01
  -1.294816e+02   4.043486e+01
   9.142271e+01  -1.251970e+01
   3.330136e+01   5.846164e+01
   3.803877e+01  -8.718014e+00
  -2.701465e+01   1.709137e+01
  -1.300934e+02   8.231060e-01
