
 $NMID
 id='ANONYMOUS ', fmtdat='(2E16.6)'
 volume=1.0
 tramp=1.0
 $END
  -3.075232e+03   3.630859e+01
  -1.996620e+03  -1.458229e+03
  -7.095504e+01  -1.868699e+03
   1.109428e+03  -1.220527e+03
   8.326905e+02  -2.922135e+02
   6.897671e+01   9.309096e+01
  -3.167069e+02  -1.212217e+02
  -4.724766e+01  -4.717339e+02
   3.883928e+02  -5.119230e+02
   5.836588e+02  -6.573353e+01
   4.399561e+02   5.110772e+02
  -7.382173e+00   6.278627e+02
  -2.775279e+02   1.416299e+02
  -2.476804e+02  -3.916908e+02
   5.612969e+01  -5.570944e+02
   3.056995e+02  -1.017993e+02
   2.804743e+02   4.515970e+02
  -1.195148e+02   5.563893e+02
  -4.173930e+02   3.046113e+02
  -3.743540e+02  -1.608803e+02
  -1.577160e+02  -3.390918e+02
   9.803088e+01  -3.025549e+02
   6.643653e+01  -8.624317e+01
  -1.958183e+02  -1.330923e+02
  -2.914194e+02  -2.582639e+02
   5.131216e+01  -3.527450e+02
   4.686682e+02  -1.883896e+02
   5.697377e+02   1.903302e+02
   2.413863e+02   3.345187e+02
  -3.594344e+02   2.229909e+02
  -4.951383e+02  -1.360246e+02
  -1.858912e+02  -3.973051e+02
   2.927877e+02  -3.210115e+02
   4.343658e+02  -1.197518e+02
   3.231640e+02   1.903534e+02
   4.574966e+01   2.810142e+02
   3.888055e+01   1.737398e+02
   7.464515e+01  -1.021758e+02
   2.478057e+02  -9.619088e+01
   1.994264e+02   1.201592e+02
   2.217150e+01   5.164409e+02
  -2.339286e+02   4.374651e+02
  -3.582936e+02  -3.130769e+01
  -9.734669e+01  -2.627312e+02
   1.713408e+02  -7.257415e+01
   1.817372e+02   2.212465e+02
  -7.294831e+01   3.588181e+02
  -3.793468e+02   7.196768e+01
  -3.748043e+02  -3.541705e+02
  -1.656058e+02  -4.241858e+02
   2.747461e+02  -2.893193e+02
   5.352109e+02   4.900746e+01
   3.097607e+02   2.288998e+02
  -3.570807e+01   1.962672e+02
  -2.403348e+02   8.938200e+01
  -2.015852e+02  -3.013100e+00
  -5.710227e+01   2.120786e+01
   8.033875e+01   7.165809e+01
  -1.272471e+02   5.463610e+01
  -2.031066e+02  -4.884917e+01
  -1.618797e+02  -1.945669e+02
   1.241852e+02  -2.284627e+02
   3.423834e+02  -1.338105e+02
   3.017986e+02   9.897121e+01
  -2.874746e+01   3.126421e+02
  -3.002508e+02   3.715582e+02
  -3.469191e+02   1.850407e+02
  -2.648623e+02  -1.442920e+02
   6.495164e+00  -3.384190e+02
  -4.389712e+01  -2.986774e+02
  -3.790612e-01  -1.437644e+02
   9.763022e+01  -1.469654e+02
   1.262637e+02  -1.553253e+02
   2.197177e+02  -4.237523e+01
   2.259782e+02   1.204510e+02
   8.503979e+01   2.134031e+02
  -1.080132e+02   1.438064e+02
  -2.150692e+02  -7.287761e+01
  -7.195317e+01  -2.896729e+02
   1.652164e+01  -2.191861e+02
   2.062172e+02   4.206002e-01
   2.900659e+02   1.689149e+02
   1.767004e+02   2.770630e+02
  -5.296956e+01   2.791571e+02
  -1.810825e+02   7.336438e+01
  -1.299026e+02   8.809704e+01
  -1.427624e+02   1.265572e+02
  -2.607821e+02   3.010122e+01
  -4.545147e+02  -1.002273e+02
  -3.198279e+02  -3.346063e+02
   1.872846e+01  -4.051584e+02
   3.719767e+02  -4.431026e+02
   4.879977e+02  -1.679483e+02
   3.259963e+02   7.614469e+01
  -5.793876e+01   2.208548e+02
  -7.867096e+01   2.374653e+02
  -5.013145e+00   2.462365e+01
   1.682841e+02   3.458008e+01
   1.529421e+02   8.805127e+01
   1.500503e+01   8.779266e+01
  -2.748300e+01   9.940421e+01
  -9.233705e+01  -2.075923e+01
   5.273050e+01  -1.733182e+02
   1.398328e+02  -4.946414e+00
   1.423643e+02   2.837381e+02
  -1.378555e+01   3.824144e+02
  -1.819257e+02   1.647195e+02
  -3.733756e+02  -3.576218e+01
  -2.441154e+02  -2.303522e+02
  -4.296185e+01  -2.528928e+02
   1.678468e+02  -9.530327e+01
   1.512552e+02  -1.850843e+01
   3.835567e+01   5.247829e+01
  -6.947065e+01  -6.225655e+01
  -2.679935e+01  -1.638973e+02
   9.506835e+01  -9.773066e+01
   1.173733e+02   7.701056e+01
   9.168775e+01   5.191569e+01
  -1.068942e+02  -5.503193e+01
  -4.236281e+01  -1.061508e+02
   1.158191e+02  -1.008316e+02
   2.954684e+02   2.704098e+00
   2.076516e+02   1.130597e+02
   2.029368e+01   2.531088e+02
  -2.071187e+02   1.772115e+02
  -2.756307e+02   5.701559e+01
  -1.528072e+02  -9.182850e+01
   1.366054e+01  -8.545033e+01
   7.792149e+01  -4.289633e+01
  -5.492826e+01   5.086490e+01
  -1.758894e+02   3.839125e+01
  -2.334664e+02  -9.536637e+01
  -2.012595e+01  -1.908611e+02
   6.206390e+01  -1.587087e+02
   1.100970e+02  -1.763731e+01
   4.913569e+01   2.434798e+01
  -3.605591e+01  -3.409943e+01
  -1.317983e+01  -1.108471e+02
   9.150602e+01  -1.617550e+02
   2.165917e+02   1.161428e+01
   1.490197e+02   1.399031e+02
   1.142329e+01   1.874726e+02
  -1.601367e+02   1.871464e+02
  -1.490500e+02   4.224695e+00
  -3.895157e+01  -1.524436e+02
   2.113616e+01  -1.318024e+02
   5.605352e+01  -2.516701e+01
   1.797692e+01   1.508740e+01
  -2.169619e+01   3.865094e+01
   3.212005e+01  -3.246748e+01
   5.009029e+01  -7.568788e+00
   7.123358e+01   1.487107e+02
   5.355675e+01   1.868339e+02
  -9.520573e+01   1.252513e+02
  -2.170612e+02   7.416007e+00
  -1.646691e+02  -1.183459e+02
  -3.145152e+01  -2.059246e+02
   1.006135e+02  -1.708717e+02
   1.572140e+02  -3.151317e+01
   7.286486e+01   8.570959e+01
   4.063596e+01  -5.154990e+00
   8.644414e+01  -4.208035e+01
   9.164313e+01  -3.719464e+01
   8.966761e+01   7.280155e+01
  -4.405129e+01   8.468088e+01
  -1.199207e+02   8.946239e+01
  -1.526742e+02  -3.366530e+01
   3.539655e+01  -1.693684e+02
   1.268482e+02  -8.793467e+01
   2.083627e+02   5.470756e+01
   9.142865e+01   2.438416e+02
  -1.149341e+02   2.325872e+02
  -2.379303e+02   6.340081e+01
  -2.313628e+02  -9.858192e+01
  -1.200888e+02  -1.413734e+02
  -5.126172e+00  -1.753381e+02
   1.476666e+02  -1.147336e+02
   6.679812e+01  -1.214326e+02
  -2.618344e+00  -9.803463e+01
   1.041343e+02  -1.469506e+02
   1.165901e+02   2.854827e+01
   1.249801e+02   1.315817e+02
   1.549185e+01   2.620585e+02
  -9.867919e+01   1.374636e+02
  -1.763540e+02  -4.302409e+01
  -6.603311e+01  -1.069011e+02
  -1.742881e+01  -1.549654e+02
   1.010818e+02  -1.140377e+02
   2.297450e+01  -7.628446e+00
  -5.349187e+01   2.423078e+01
  -6.102387e+01   4.423253e+01
   1.131181e+01   1.754385e+01
   6.746645e+01   1.853514e+01
   3.608275e+01   7.240833e+01
  -4.829194e+01  -3.798237e+01
  -1.846346e+02   3.252051e+01
  -1.251585e+02  -1.937176e+01
  -4.486307e+01  -8.365359e+01
   1.911795e+02  -3.715174e+01
   1.666250e+02  -2.614104e+01
   2.267230e+01   4.808677e+01
  -8.740223e+01   3.811491e+01
  -4.744846e+01  -1.342458e+01
  -2.587918e+01  -3.685415e+01
   5.283774e+00  -5.621658e+01
   1.080563e+02   5.565571e+01
   4.700349e+01   7.135649e+01
   1.227407e+01   8.556923e+01
   3.422578e+01   1.644529e+01
   8.155487e+01  -9.829373e+00
   3.010306e+01   1.572738e+01
  -9.115336e+01   1.278448e+02
  -1.492366e+02   1.110189e+02
  -1.913625e+02  -3.008580e+01
  -9.271694e+01  -1.154269e+02
  -1.670425e+01  -2.137420e+02
   9.576144e+01  -3.315100e+01
   8.592358e+01   3.235569e+01
  -5.263832e+01   3.638735e+01
  -1.347296e+02  -3.985854e+01
  -6.518659e+01  -9.228689e+01
   7.509982e+01  -1.267931e+02
   1.620755e+02  -4.097329e+01
   1.240867e+02   7.196111e+01
   3.307016e+00   1.183217e+02
  -7.188788e+01   5.059863e+01
  -1.746935e+01  -1.766399e+01
   7.352852e+01  -6.538188e+01
   4.987779e+01   4.514169e+01
   4.693476e+01   7.266091e+01
  -7.661972e+01   1.406859e+02
  -1.518934e+02   5.569177e+01
  -6.409684e+01  -9.431423e+01
  -5.374957e+01  -1.741748e+02
   3.794520e+01  -1.452289e+02
   1.206464e+02   1.222586e+01
   8.368045e+01   5.885520e+01
  -3.290623e+01   1.589666e+02
  -6.214424e+01  -2.153183e+01
  -4.432098e+01  -1.818562e+00
  -6.141023e+00   3.806191e+00
  -5.865526e+01  -3.744999e+01
  -1.140680e+01  -3.123612e+01
  -1.368998e+01  -9.180508e+01
  -6.658239e+00  -8.648160e+01
   9.153451e+01  -7.070107e+00
   1.238591e+02   5.833064e+01
   1.580149e+02   5.496330e+01
   5.013856e+01   3.109727e+01
  -4.801475e+01   6.643231e+01
  -5.078255e+01   2.903599e+01
  -1.318666e+01   2.053059e+01
   2.920211e+01  -5.481377e+01
   8.112349e+01   2.497430e+01
  -2.990881e+01   7.788694e+01
  -1.937633e+01   4.386839e+01
   1.098479e+02  -2.268617e+01
   7.467201e+01   5.738076e+01
  -4.635404e+01   2.639862e+00
  -5.354294e+01   1.363505e+02
  -1.996833e+02   9.532257e+01
  -1.530982e+02  -7.355645e+01
  -5.249706e+01  -1.365369e+02
   4.039459e+01  -1.481489e+02
   1.047174e+02  -6.139140e+01
   5.941992e+01   1.600699e+01
  -5.499917e+00   3.074568e+01
  -4.697429e+01  -3.161551e+01
   1.359036e+01  -4.101457e+01
   1.847941e+01   5.528670e+01
   7.100798e+01   9.102375e+01
  -2.621692e+00   8.964710e+01
  -8.566774e+01  -4.447030e+01
  -9.459046e+01  -4.950207e+01
  -3.538607e+01  -1.052541e+02
   5.667647e+01  -1.115392e+01
   1.352197e+02   4.472655e+01
   9.503641e+01   1.389434e+02
  -7.369285e+01   1.079040e+02
  -4.846341e+01   2.531650e+01
  -5.498275e+01  -7.983747e+01
  -2.808049e+00  -1.063285e+02
   1.931985e+01  -5.784340e+01
  -8.815903e+00  -4.709700e+01
  -8.820525e+01  -4.569666e+01
  -2.977101e+01  -7.065644e+01
   1.138820e+02  -7.161704e+01
   1.345645e+02  -5.215342e+01
   5.823839e+01   8.182963e+01
  -4.003789e+01   1.114909e+02
  -3.936286e+01   7.555177e+01
  -7.798822e+01  -2.304443e+01
   2.205889e+01  -7.202410e+01
   1.075411e+02   1.952884e+00
   6.540460e+00  -6.138553e+00
  -1.293715e+00   2.299640e+01
  -1.897308e+01   4.905832e+01
   1.727924e+01  -2.596504e+01
  -8.753858e+01  -4.920067e+01
   3.125631e+01  -1.212397e+01
   4.860586e+01   5.902444e+01
  -1.836139e+01  -1.125767e+01
  -4.486372e+01  -7.878963e+00
   1.621305e+01  -5.179241e+01
  -1.676296e+01  -1.686312e+01
   3.857336e+01   1.913176e+01
  -1.741513e+01   8.211473e+01
  -1.892819e+01  -1.852075e+01
  -5.925100e+01  -3.026269e+01
   7.624417e-01  -9.763274e+01
   1.014098e+02  -8.303040e+01
   1.041439e+02   7.997457e+00
   6.453337e+01   4.089344e+01
  -2.443881e+01   5.731568e+01
  -9.349643e+01   5.562716e+01
  -1.097116e+01   4.858769e+01
   8.657485e+01  -6.533465e-01
   5.667131e+01  -2.263198e+01
  -1.767735e+01   5.808614e+01
  -4.243901e+01   7.132105e+00
