
 $NMID
 id='ANONYMOUS ', fmtdat='(2E16.6)'
 volume=1.0
 tramp=1.0
 $END
   2.981185e+03  -5.854347e+01
   2.130419e+03   1.299763e+03
   3.219053e+02   1.940920e+03
  -1.034220e+03   1.466031e+03
  -1.006899e+03   5.144140e+02
  -2.991200e+02  -1.376945e+02
   2.390723e+02   2.385972e+01
   1.233225e+02   4.158071e+02
  -3.062372e+02   5.952378e+02
  -6.053851e+02   1.429818e+02
  -4.655734e+02  -4.320416e+02
  -1.260120e+02  -6.000956e+02
   1.943039e+02  -2.486487e+02
   2.593897e+02   3.544056e+02
  -6.331724e+00   5.072171e+02
  -3.765991e+02   1.023018e+02
  -3.402079e+02  -4.368183e+02
   6.082452e+01  -7.255860e+02
   4.453423e+02  -3.609907e+02
   5.353554e+02   1.633771e+02
   1.980082e+02   3.558806e+02
  -1.024039e+02   2.482121e+02
   1.027989e+01   1.073422e+02
   2.015790e+02   1.978818e+02
   2.602376e+02   2.779246e+02
  -6.956991e+01   3.644057e+02
  -4.596645e+02   1.028080e+02
  -4.829678e+02  -1.979306e+02
  -1.936590e+02  -2.757799e+02
   2.572534e+02  -1.536483e+02
   5.287715e+02   1.598764e+02
   1.422910e+02   3.709299e+02
  -2.328348e+02   2.818150e+02
  -4.145980e+02   1.127719e+02
  -2.455186e+02  -5.512263e+01
  -1.015893e+02  -2.960462e+02
   4.789678e+00  -1.117871e+02
  -8.517056e+01   5.457741e+01
  -1.427789e+02   5.370497e+01
  -1.527965e+02  -1.182835e+02
   1.390801e+01  -5.019029e+02
   2.372861e+02  -4.042776e+02
   2.156883e+02  -3.016737e+01
   1.122987e+02   2.535161e+02
  -1.179801e+02   5.815501e+01
  -1.496565e+02  -2.788623e+02
   1.212955e+02  -3.860443e+02
   4.043650e+02  -5.624374e+01
   4.706855e+02   3.560452e+02
   1.747256e+02   4.927932e+02
  -2.732470e+02   2.787832e+02
  -4.271426e+02  -7.914426e+01
  -2.877208e+02  -2.234823e+02
   2.350019e+01  -1.949789e+02
   2.570998e+02  -9.098837e+01
   2.244025e+02  -3.170235e+01
   1.022556e+02   6.061117e-01
  -1.858919e+01   1.099341e+01
   7.982623e+01  -7.498292e+00
   2.168452e+02   4.415299e+01
   1.690356e+02   1.110110e+02
  -1.336921e+02   2.760752e+02
  -3.716428e+02   1.865301e+02
  -2.934105e+02  -1.426761e+02
   2.382837e+01  -3.779407e+02
   3.341838e+02  -4.138411e+02
   3.851850e+02  -1.535317e+02
   2.181692e+02   1.376449e+02
   8.177649e+01   3.593197e+02
  -3.028466e+01   2.868208e+02
  -4.822075e+01   1.898848e+02
  -7.002317e+01   1.292628e+02
  -2.409604e+02   8.197709e+01
  -3.324889e+02   3.641407e+01
  -2.613607e+02  -1.431718e+02
  -8.982622e+01  -3.133139e+02
   1.297004e+02  -2.011876e+02
   2.394298e+02   6.399348e+01
   1.334030e+02   3.100736e+02
  -6.427671e+01   2.860550e+02
  -2.130566e+02   2.530930e+01
  -3.104538e+02  -1.847628e+02
  -1.564532e+02  -3.633775e+02
   6.037941e+00  -2.405761e+02
   1.331295e+02  -1.770956e+02
   1.675349e+02  -1.325409e+02
   1.704476e+02  -8.611813e+01
   2.957554e+02  -2.232151e+01
   4.411449e+02   1.274312e+02
   3.407103e+02   3.029912e+02
  -1.589118e+01   4.819683e+02
  -4.243461e+02   4.154126e+02
  -4.886195e+02   1.943242e+02
  -2.661835e+02  -1.242202e+02
  -7.640756e+01  -2.327709e+02
   1.079169e+02  -1.305945e+02
  -2.155900e+01  -2.044118e+01
  -1.193100e+02   9.066919e+00
  -1.017632e+02  -3.272808e+01
   5.024349e-01  -9.570949e+01
   1.068710e+02  -1.161976e+02
   4.856612e+01   2.046950e+01
  -4.291007e+01   8.541570e+01
  -1.265209e+02   2.977806e-01
  -1.918739e+02  -2.499319e+02
   5.390388e+01  -3.290411e+02
   2.588687e+02  -2.520097e+02
   4.092724e+02   8.849454e+01
   2.977205e+02   3.157217e+02
  -3.688194e+00   2.982857e+02
  -1.870161e+02   1.575719e+02
  -1.412246e+02   2.142820e+00
  -3.267060e+01   1.208090e+01
   2.246141e+01   8.329149e+01
   3.893925e+01   1.581680e+02
  -1.465701e+02   7.327559e+01
  -8.175088e+01  -1.153949e+01
  -3.223781e+01  -5.549599e+01
   6.077113e+01   2.532502e+01
   2.677209e+01   8.355496e+01
  -1.748939e+02   1.454833e+02
  -3.321794e+02  -1.927692e+00
  -2.980188e+02  -2.002028e+02
  -1.148621e+01  -2.942637e+02
   2.631441e+02  -2.149618e+02
   2.601219e+02  -1.050306e+02
   1.400403e+02  -1.968769e+00
  -3.444456e+01  -8.288613e+00
  -2.150374e+01  -6.013435e+01
   5.099305e+01  -1.236593e+02
   2.325904e+02  -1.709040e+01
   1.411211e+02   7.603410e+01
   1.463440e+01   1.071686e+02
  -1.297585e+02   1.496508e+02
  -1.241214e+02   1.757251e+01
   5.886494e+00  -4.244377e+01
   8.045915e+01   5.260270e+01
  -3.623499e+00   9.956273e+01
  -1.150211e+02   1.615523e+02
  -2.107427e+02   2.810169e+01
  -2.442357e+02  -1.381157e+02
   4.574710e+01  -1.880113e+02
   2.232650e+02  -1.846060e+02
   1.563103e+02   4.534357e+01
   9.329748e+01   8.892705e+01
  -5.998362e+01   3.166611e+01
  -7.989275e+01   5.075278e+01
  -4.227721e+01  -6.047299e+01
   3.879927e+01  -6.048045e+01
  -3.138619e+01   1.713931e+01
  -1.303497e+02   9.867891e+00
  -1.625315e+02  -1.198398e+02
  -2.360761e+01  -1.965981e+02
   1.625633e+02  -1.540130e+02
   2.503883e+02   2.052058e+01
   1.570867e+02   1.449728e+02
   2.352154e+01   2.570580e+02
  -7.866175e+01   1.639914e+02
  -1.372800e+02  -2.732931e+01
  -7.614747e+01  -1.921986e+01
  -6.410500e+01  -3.604905e+01
  -5.897658e+01   1.789414e+01
  -6.689323e+01   2.763218e+01
  -2.720373e+01  -5.209436e+01
   5.806743e+01  -1.604230e+02
   1.810953e+02  -1.159983e+02
   1.517202e+02   5.466409e+01
   5.306811e+00   1.417342e+02
  -2.331632e+02   9.323638e+01
  -1.307336e+02  -1.023333e+02
  -2.326135e+01  -2.480153e+02
   1.838913e+02  -2.632032e+02
   3.214098e+02  -7.685122e+01
   2.812558e+02   9.107663e+01
   1.270345e+02   2.298090e+02
  -6.883251e+01   1.227830e+02
  -5.193626e+01   6.712595e+01
  -6.107971e+01   1.182955e+02
  -1.173192e+02   8.580335e+01
  -9.766791e+01   5.826618e+01
  -1.362242e+02  -6.947042e+01
  -1.690049e+02  -1.412610e+02
  -2.867907e+01  -2.014107e+02
   9.193186e+01  -1.525273e+02
   1.215100e+02  -2.610706e+01
   9.425980e+01   1.254522e+02
   2.783362e+01   2.139174e+02
  -1.305335e+02   4.953755e+01
  -4.502812e+01  -4.537526e+01
  -1.424300e+01  -4.071597e+01
   4.754028e+01   1.365028e+01
  -3.480785e+01  -3.075734e+01
  -5.219327e+01   2.406095e+01
  -6.650695e+01  -5.302562e+01
   1.118023e+02  -7.363274e+01
   1.651521e+02   1.235437e+01
   1.574556e+02   7.468383e+01
  -1.841584e+01   9.548898e+01
  -1.285654e+02   1.004350e+02
  -1.300216e+02   2.501336e+01
  -1.576377e+01  -3.601205e+01
   2.717217e+01  -4.502607e+01
   1.549918e+02   1.300397e+00
   3.455048e+01   8.877949e+01
  -5.081318e+01   9.653077e+01
  -5.179626e+01  -1.770546e+01
  -9.870268e+00  -1.114991e+01
  -2.687293e+01  -3.006411e+01
  -8.840256e+01   6.159895e+01
  -3.764274e+01  -2.478122e+01
  -9.193535e+01  -6.807570e+01
  -4.281982e+01  -1.563722e+02
   9.132857e+01  -1.921476e+02
   2.197593e+02  -1.262502e+01
   1.453344e+02   4.447764e+01
   6.237580e+00   1.404629e+02
  -1.107028e+02   8.884179e+01
  -7.240782e+01   1.666954e+00
   2.995161e+01  -8.530676e+01
   1.540739e+02   5.008010e+01
   5.816111e+01   1.087068e+02
  -8.525389e+01   1.073154e+02
  -1.997795e+02   4.639512e+00
  -1.553858e+02   1.659885e+00
  -5.071377e+00  -9.969485e+01
   1.159543e+02  -1.978150e+01
   2.378172e+01   6.267256e+01
  -2.138736e+01   5.030077e+01
  -6.987087e+01  -5.271710e+00
  -4.720616e+01  -1.351004e+02
   5.079792e+01  -1.437581e+02
   1.987284e+02  -1.318402e+02
   1.784626e+02   1.218459e+02
   9.425180e+00   2.051700e+02
  -1.877477e+01   1.487096e+02
  -1.154912e+02  -5.343449e+01
  -5.313035e+01  -1.178058e+02
   4.504912e+01  -1.360922e+02
   8.286443e+00   3.763837e+01
   1.358845e+01   4.024501e+01
   2.308431e+01   2.429381e+01
  -2.722749e+01  -2.080077e+01
   5.236834e+01   5.827649e+01
   5.800839e+01   1.159553e+02
   3.329406e+01   9.782168e+01
  -8.411185e+01  -1.821750e+01
  -1.824655e+02  -3.432897e+01
  -8.460635e+01  -4.298284e+01
  -1.559618e+01  -5.874968e+01
   1.081470e+02  -2.865533e+01
   7.811641e+01  -1.449580e+01
   1.809174e+01   1.083409e+01
  -7.357272e+01   6.672859e+01
  -9.679428e+00   4.283073e+00
   1.539817e+01   1.097139e+01
   6.000083e+00  -6.652909e+01
  -5.631202e+01   2.363692e+01
  -9.845161e+01  -2.602268e+01
  -6.605256e+01  -5.517337e+01
   4.154534e+01  -9.639673e+01
   2.109845e+02  -1.219087e+02
   1.813665e+02   6.149649e+01
   4.725974e+01   1.649513e+02
  -3.657900e+01   1.735554e+02
  -7.491904e+01   5.291664e+01
  -4.344663e+01  -4.609643e+01
  -7.562527e+00  -6.802686e+01
   5.111395e+01  -1.034009e+01
   6.200541e-01  -1.824528e+01
  -4.736833e+01  -5.101123e+01
  -1.408622e+01  -7.225028e+01
   3.500279e+01  -5.919200e+01
   1.140314e+02  -1.911127e+01
   8.776877e+01   1.043980e+02
   4.413102e+01   9.479804e+01
  -5.205099e+01   2.515921e+01
  -9.273237e+01  -6.987849e+01
  -3.908500e+01  -8.279938e+01
   7.228512e+01  -1.561710e+02
   9.120745e+01  -4.864044e+01
  -4.957558e+00   1.052022e+02
  -2.522754e+01   1.017957e+02
  -7.764833e+01   6.111866e+01
  -4.571179e+00   4.572774e+01
   4.925644e+01   5.910941e+00
   3.220083e+01   1.037042e+01
  -6.130373e+01   1.104181e+02
  -1.538723e+02   5.552129e+01
  -1.259938e+02  -1.275897e+01
   8.405901e+00  -1.361099e+02
   8.526935e+01  -8.533335e+01
   2.694537e+01  -6.589061e-01
  -7.709416e+00   7.084744e+01
  -3.118731e+01  -3.500174e+00
   2.436236e+01   1.631749e+01
  -4.886836e+01  -1.607668e+01
   5.771580e+01  -1.206401e+02
   5.892366e+01   3.250557e+01
   1.315858e+02   4.587745e+01
  -2.536333e+01  -1.814710e+01
   2.385764e+01  -2.489934e+01
  -1.962249e+01   4.090636e+01
   1.986858e+00   4.818372e+01
  -1.679651e+01   7.812884e+01
  -8.412812e+01   3.532262e+01
  -4.209508e+01  -2.932399e+01
  -3.426221e+01  -8.278668e+00
   1.064035e+00  -3.013429e+01
   7.974466e+01  -8.769277e+00
   2.550177e+01   3.786517e+01
  -2.504058e+01   2.363614e+01
  -5.322061e+01  -1.296378e+01
  -2.132134e+01  -3.814402e+01
  -4.294554e+00  -5.152461e+01
   8.441432e+01   7.967234e-01
   7.567149e+00   1.995726e+01
  -4.906530e+01   1.553607e+01
   3.311181e-01  -2.666101e+00
   6.474355e+00  -5.179341e+01
   5.562564e+01  -2.670007e+01
