
 $NMID
 id='ANONYMOUS ', fmtdat='(2E16.6)'
 volume=1.0
 tramp=1.0
 $END
  -4.173039e+03  -6.246493e+01
  -2.388730e+03  -2.527095e+03
   6.448949e+02  -2.571525e+03
   1.872159e+03  -9.165212e+02
   9.299299e+02   4.781100e+02
  -5.207886e+02   4.744184e+02
  -7.805949e+02  -3.967871e+02
   4.523860e+01  -9.763729e+02
   8.229490e+02  -7.724552e+02
   8.540307e+02   8.279811e+01
   4.707465e+02   7.624508e+02
  -2.804459e+02   8.388180e+02
  -5.697594e+02   1.005494e+02
  -3.767302e+02  -7.109745e+02
   2.749089e+02  -7.205475e+02
   6.125376e+02   1.807157e+01
   3.039096e+02   6.136234e+02
  -3.142895e+02   6.792555e+02
  -5.332471e+02   1.338003e+02
  -3.900015e+02  -2.921795e+02
  -1.545806e+01  -3.816655e+02
   1.586313e+02  -2.151171e+02
   2.040634e+02  -4.732834e+01
  -1.670164e+02   1.816327e+01
  -3.785720e+02  -2.105843e+02
  -1.407621e+02  -4.511578e+02
   5.195788e+02  -3.161390e+02
   8.463759e+02   6.562182e+01
   3.697089e+02   5.137217e+02
  -3.759632e+02   4.194572e+02
  -7.208058e+02  -3.559510e+01
  -2.966153e+02  -5.539768e+02
   2.702036e+02  -4.315672e+02
   4.837650e+02  -1.793294e+02
   4.195384e+02   2.148314e+02
   4.181546e+01   5.109648e+02
  -1.719766e+02   2.936039e+02
  -1.266103e+02  -2.357377e+02
   1.723540e+02  -4.334189e+02
   3.944329e+02   7.478930e+01
   1.921682e+02   6.980984e+02
  -2.983762e+02   6.499443e+02
  -5.546410e+02   4.280286e+01
  -2.257147e+02  -5.199035e+02
   3.180488e+02  -2.383248e+02
   3.351105e+02   3.786720e+02
  -7.294411e+01   5.688814e+02
  -5.174412e+02   8.930369e+01
  -5.669196e+02  -4.018901e+02
  -1.566083e+02  -6.337782e+02
   4.126513e+02  -3.448843e+02
   6.334850e+02   6.493476e+01
   3.676420e+02   3.914609e+02
  -1.292947e+02   3.323256e+02
  -4.308909e+02  -2.031685e+01
  -2.326361e+02  -1.305871e+02
   2.925324e+01  -1.074181e+02
   1.044383e+02   1.348510e+02
  -1.660045e+02   2.010236e+02
  -3.598305e+02  -7.455366e+01
  -8.969883e+01  -2.486671e+02
   1.718030e+02  -2.903844e+02
   2.981356e+02  -7.959261e+01
   2.476815e+02   6.477756e+01
  -6.702985e+01   2.820003e+02
  -2.496914e+02   3.818340e+02
  -3.761323e+02   2.310196e+02
  -2.838152e+02  -1.141880e+02
  -3.719055e+01  -4.812912e+02
   9.558762e+01  -3.761573e+02
   1.118580e+02  -1.726227e+02
   5.232455e+01  -1.689447e+01
   5.600768e+01  -9.757111e+01
   2.203773e+02  -1.547950e+02
   2.340261e+02   4.466540e+01
   1.675422e+02   2.132595e+02
  -1.135645e+02   2.680724e+02
  -2.380162e+02   4.459422e+01
  -2.180757e+02  -2.202571e+02
   1.108367e+01  -3.126507e+02
   3.192500e+02  -8.295358e+01
   2.903750e+02   1.546465e+02
   1.493911e+02   4.127905e+02
  -8.742490e+01   3.160966e+02
  -2.409540e+02   1.427192e+02
  -1.190178e+02   4.755472e+01
  -1.447997e+02   8.401538e+01
  -2.610700e+02   4.555147e+01
  -4.188737e+02  -4.822569e+01
  -3.406204e+02  -2.990738e+02
   3.617530e+01  -4.722384e+02
   3.784257e+02  -4.153184e+02
   5.089719e+02  -1.787606e+02
   3.741551e+02   1.401738e+02
   3.466583e+01   2.871008e+02
  -1.135434e+02   2.386631e+02
  -1.090099e+02   7.207583e+01
   2.611759e+01  -1.229660e+02
   1.685978e+02   7.007549e+01
   2.625373e+01   2.067296e+02
  -1.553951e+02   1.263826e+02
  -1.277148e+02  -4.344217e+01
   7.553861e+01  -2.139370e+02
   1.632836e+02  -3.890679e+01
   2.181752e+02   2.795684e+02
  -8.403071e+01   3.193779e+02
  -2.156927e+02   1.828146e+02
  -3.036582e+02  -5.918801e+01
  -1.748100e+02  -2.413448e+02
  -8.675444e+01  -2.622469e+02
   1.285825e+02  -2.189922e+02
   1.885729e+02  -6.916040e+00
   4.553684e+01   6.372687e+01
  -9.344708e+01  -3.562187e+01
   3.045515e+00  -1.155904e+02
   1.350958e+02  -1.031386e+02
   2.017925e+02   1.939662e+01
   5.289958e+01   2.401061e+01
  -5.038136e+01   2.469772e+01
  -6.592189e+01  -8.352203e+01
   1.445505e+02  -1.359709e+02
   2.727919e+02  -2.126859e+01
   2.124691e+02   1.192175e+02
   4.248393e+01   2.533790e+02
  -2.093718e+02   2.540099e+02
  -2.718616e+02   1.195122e+02
  -9.076103e+01  -1.983876e+01
   4.863897e+01  -1.807221e+02
   1.132879e+02   1.748916e+01
  -3.494507e+01   1.111392e+02
  -2.168510e+02   5.527662e+01
  -2.116727e+02  -1.135444e+02
  -4.664194e+01  -2.450766e+02
   1.353762e+02  -1.195614e+02
   1.640735e+02  -1.911539e+01
   6.715814e+01   2.725611e+01
  -2.903547e+01  -2.995728e+01
  -1.233676e+01  -7.420624e+01
   8.594471e+01  -1.393806e+02
   1.886419e+02  -1.611251e+01
   2.571263e+02   1.466117e+02
  -4.899228e+01   2.236914e+02
  -1.041438e+02   1.328066e+02
  -2.079635e+02   4.426904e+01
  -7.102152e+01  -1.028872e+02
   6.492079e+01  -4.140156e+01
   6.725376e+01  -1.672311e+01
   9.378555e+00   6.761188e+01
  -4.373993e+01  -2.814861e+00
   4.345302e+01   2.138827e+01
   7.874570e+01  -5.281866e+00
   7.671350e+01   3.073896e+01
   1.643926e+01   1.720032e+02
  -1.205104e+02   1.844687e+02
  -2.022358e+02  -1.427439e+01
  -2.011935e+02  -1.954160e+02
  -6.667539e+01  -2.395660e+02
   9.570088e+01  -1.710887e+02
   1.612101e+02  -4.985351e+01
   7.276137e+01   6.510614e+01
   1.284197e+01   2.373972e+01
   6.304798e+01  -1.790864e+01
   3.984038e+01  -3.117497e+01
   7.180786e+01   5.275945e+01
   5.743180e+00   1.259388e+02
  -1.379865e+02   8.949811e+01
  -6.674581e+01  -2.610897e+01
  -1.931655e+01  -9.261454e+01
   1.577184e+02  -9.360216e+01
   2.163770e+02   5.697954e+01
   8.687997e+01   1.807161e+02
  -1.576241e+02   2.570264e+02
  -2.608278e+02   1.152868e+02
  -2.805535e+02  -5.018483e+01
  -6.868466e+01  -1.659245e+02
   1.121116e+01  -2.096848e+02
   5.974487e+01  -5.988748e+01
   1.035959e+02  -9.300234e+01
   7.148205e+01  -1.081588e+02
   2.985476e+01  -8.777895e+01
   1.230312e+02   3.549095e+01
   1.688368e+02   1.080863e+02
   6.460154e+01   2.073955e+02
  -1.193684e+02   1.781797e+02
  -2.614365e+02   1.928985e+01
  -1.137093e+02  -1.109483e+02
   4.878784e+01  -1.679760e+02
   5.795354e+01  -1.342727e+02
   3.997562e+01   1.460423e+01
  -4.841777e+01   8.600999e+01
   6.284894e+01   2.434365e+01
   1.015367e+01   1.355294e+01
   6.299787e+01   5.722543e+01
   4.793953e+01   2.171518e+01
  -5.595633e+01   4.703130e+01
  -1.858901e+02   1.811993e+01
  -9.645354e+01  -4.747256e+01
   1.616316e+00  -9.048231e+01
   1.279451e+02  -7.886712e+01
   1.711215e+02   2.219959e+01
   5.142517e+01   1.269320e+01
  -4.504321e+01  -1.566398e+00
  -8.342392e+01  -3.052123e+01
  -2.010121e+01  -9.601312e+01
   5.231252e+01  -4.372502e+01
   4.186615e+01  -2.771813e+01
   4.787589e+01   3.598225e+01
   4.116480e+01   3.406394e+01
   1.425473e+01  -8.795608e+00
   8.828828e+01  -2.277194e+01
  -1.206795e+01   4.244123e+01
  -4.905518e+01   1.413681e+02
  -1.232416e+02   1.817826e+02
  -1.283190e+02   1.948433e+01
  -1.287371e+02  -6.817444e+01
  -1.515364e+01  -1.445856e+02
   5.985058e+01  -1.028638e+02
   1.243785e+02  -1.883003e+01
  -2.377448e+01   4.684909e+01
  -1.346616e+02   1.258063e+01
  -1.387088e+02  -1.510317e+02
   5.256723e+01  -8.695700e+01
   1.953654e+02  -6.849472e+01
   1.675514e+02   6.508999e+01
   9.419204e+01   2.967296e+01
  -6.407749e+01   3.806484e+01
  -7.801059e+01  -1.195250e+01
   8.854273e+01  -6.131745e+01
   8.277794e+01   5.492799e+01
   6.639227e+01   1.246502e+02
  -8.124817e+01   1.967786e+02
  -1.610593e+02   7.899385e+01
  -1.459439e+02  -8.368701e+01
   3.226261e+01  -2.334710e+02
   6.585456e+01  -1.535206e+02
   7.620685e+01  -1.869825e+01
   9.564760e+01   7.131466e+01
  -5.967202e+00   1.051191e+02
  -8.986053e+01   8.821194e+00
  -1.118707e+02  -1.109085e+02
  -1.872006e+01  -4.119443e+00
   4.335537e+01   5.608370e+00
  -2.929053e+01   1.267056e+01
  -6.131262e+01  -1.237572e+02
  -3.645825e+00  -9.160170e+01
   4.102443e+01  -4.715647e+01
   1.217282e+02   4.269291e+01
   9.664347e+01   5.418296e+01
  -8.305560e+00   5.522424e+01
  -1.205031e+02  -3.750505e+01
  -1.063643e+02  -2.743278e+01
   4.167772e+00  -4.415321e+01
   1.326869e+02   1.560630e+01
   8.607267e+01  -3.732088e+01
  -4.355798e+01   4.610168e+01
  -4.143656e+01  -8.849054e+00
   3.861104e+01   3.428731e+01
   1.162537e+02   1.263668e+01
   3.266887e+01   5.134933e+01
  -1.590945e+02   1.054109e+02
  -1.352174e+02   6.923113e+01
  -1.030101e+02  -1.250540e+02
  -1.784172e+01  -1.384023e+02
   6.283188e+01  -1.257939e+02
   8.298880e+01  -3.402312e+01
   3.990790e+01   8.011709e+01
   4.388709e+01   3.175609e+01
   8.059714e+01  -4.011808e+01
   2.984428e+01   5.708793e+00
   2.076679e+01   2.125277e+01
   5.480772e+01   9.862881e+01
  -3.924831e+00   8.986561e+01
  -1.534087e+02  -8.388122e+00
  -9.381584e+01   2.041511e+01
  -1.020001e+01  -1.184788e+02
   5.280791e+01  -5.872432e+01
   1.204505e+02   1.001395e+02
   4.339075e+01   1.093763e+02
  -7.661133e+01   7.188164e+01
  -1.132025e+02  -4.506100e+01
  -2.042007e+01  -8.415670e+01
   1.532579e+01  -8.527250e+01
   6.053302e+01  -4.092717e+01
  -5.425514e+01  -6.554083e+01
  -1.050256e+02  -8.222844e+00
  -1.456795e+01  -8.117377e+00
   1.011815e+02  -1.892114e+01
   4.759447e+01  -5.273660e+01
   1.022791e+02   3.727946e+01
   8.434615e+00   7.438609e+01
  -9.001220e+01   4.167910e+01
  -1.434638e+01  -9.121039e+00
  -7.141474e+01  -5.417337e+01
  -5.080284e+00  -8.442582e+01
   3.525919e+01   4.779281e+01
  -2.065201e+01   6.517644e+01
  -5.379402e+01   6.454066e+01
  -1.658805e+01  -1.300664e+01
  -4.588038e+00   1.609759e+01
  -1.015151e+01  -2.504645e+01
   6.109819e+00   4.969488e+01
   1.947216e+01   3.878829e+01
   2.940449e+01  -1.795029e+01
   8.455881e+00  -3.803572e+01
  -3.102310e+01  -4.284987e+01
   3.192303e+00   1.132171e+02
  -1.864240e+00   1.265340e+02
  -3.383295e+01  -2.249428e+01
  -5.070389e+00  -1.758204e+01
  -2.375244e+01  -9.459448e+01
   3.332831e+01  -1.048940e+01
   1.407960e+02   1.857071e+01
   5.832317e+01   8.096739e+01
  -3.689961e+01   7.048502e+01
  -2.906490e+01   5.177014e+01
  -5.753787e+01   2.004421e+01
   2.629620e+01   1.218402e+01
   8.191184e+01   5.152332e+01
  -5.967301e+01  -2.318892e+00
  -9.134424e+01   8.672431e+01
