
 $NMID
 id='ANONYMOUS ', fmtdat='(2E16.6)'
 volume=1.0
 tramp=1.0
 $END
   4.797377e+03  -4.112800e+01
   2.727247e+03   2.981445e+03
  -9.036833e+02   3.092633e+03
  -2.440933e+03   8.044819e+02
  -9.729966e+02  -9.301109e+02
   7.888078e+02  -7.369351e+02
   1.057350e+03   5.358701e+02
  -5.037952e+01   1.232631e+03
  -9.943706e+02   8.588521e+02
  -1.028750e+03  -1.413996e+02
  -4.453034e+02  -1.016982e+03
   2.853032e+02  -1.012459e+03
   7.214953e+02  -5.464190e+01
   4.636033e+02   8.430682e+02
  -3.349348e+02   8.050747e+02
  -7.002131e+02  -3.124688e+01
  -2.971625e+02  -7.994734e+02
   4.391942e+02  -6.680337e+02
   6.558919e+02  -3.625338e+01
   3.683851e+02   4.142005e+02
  -2.031992e+01   5.207739e+02
  -2.456891e+02   2.862468e+02
  -2.568194e+02   5.920795e+00
   6.305000e+01  -1.669053e+02
   4.177357e+02   2.907856e+01
   2.976472e+02   4.537690e+02
  -4.805475e+02   4.840081e+02
  -9.153754e+02  -6.374112e+01
  -4.593585e+02  -5.451004e+02
   4.290725e+02  -5.976261e+02
   8.544608e+02   9.537331e+01
   3.938203e+02   5.171185e+02
  -3.036651e+02   6.370053e+02
  -6.600478e+02   2.446885e+02
  -4.675998e+02  -2.451740e+02
  -7.109300e+01  -4.889646e+02
   2.447593e+02  -3.082433e+02
   1.981722e+02   2.634504e+02
  -1.769320e+02   5.349811e+02
  -4.990458e+02  -3.255888e+01
  -3.226147e+02  -7.198393e+02
   3.411972e+02  -8.073096e+02
   6.613780e+02  -7.210535e+00
   2.892422e+02   6.823789e+02
  -3.301583e+02   3.472400e+02
  -4.490975e+02  -3.305775e+02
   4.828631e+01  -6.194990e+02
   6.176866e+02  -1.720740e+02
   6.229208e+02   4.269533e+02
   2.029870e+02   6.257400e+02
  -4.323866e+02   4.421527e+02
  -7.111959e+02  -4.331698e+01
  -3.943983e+02  -4.529244e+02
   1.195139e+02  -4.159618e+02
   4.927970e+02  -4.745535e+01
   2.626609e+02   2.857114e+02
  -2.152311e+02   1.483742e+02
  -2.037423e+02  -1.934203e+02
   1.896872e+02  -1.919781e+02
   4.405802e+02   1.178283e+02
   1.320283e+02   3.543579e+02
  -2.222825e+02   3.005993e+02
  -3.745012e+02   1.394385e+02
  -1.781123e+02  -1.113745e+02
   5.401359e+01  -1.978314e+02
   2.256322e+02  -2.925707e+02
   3.107649e+02  -2.135831e+02
   3.313537e+02   1.498687e+02
   6.316006e+01   4.446003e+02
  -1.724902e+02   3.832674e+02
  -2.220923e+02   6.390334e+01
  -1.679950e+01  -1.507582e+01
  -5.399562e+00   8.867706e+01
  -1.415591e+02   1.377978e+02
  -3.585593e+02  -3.344871e+01
  -2.420218e+02  -2.897843e+02
   2.816801e+01  -3.213589e+02
   2.393246e+02  -1.052657e+01
   2.302004e+02   2.175455e+02
   2.077985e+01   3.020384e+02
  -2.233217e+02   8.155606e+01
  -3.998555e+02  -1.497830e+02
  -1.959078e+02  -4.321679e+02
   1.212853e+02  -3.174220e+02
   1.853261e+02  -1.038404e+02
   1.724581e+02  -5.604647e+00
   1.062180e+02  -4.784038e+01
   2.847286e+02  -3.512586e+01
   4.105716e+02   9.893060e+01
   3.478032e+02   3.473569e+02
  -1.681680e+01   4.748484e+02
  -3.970897e+02   4.098143e+02
  -4.547205e+02   2.411206e+02
  -3.807788e+02  -1.024633e+02
  -1.173173e+02  -2.771736e+02
   1.895692e+02  -2.417808e+02
   1.407398e+02  -2.632231e+01
  -4.790543e+01   6.456341e+01
  -1.845669e+02  -4.686031e+00
  -4.991842e+01  -2.376637e+02
   1.392014e+02  -2.172050e+02
   2.362021e+02   5.262475e+00
   2.292166e+01   2.004774e+02
  -1.972167e+02  -1.501704e+01
  -1.804284e+02  -2.321995e+02
   8.756832e+01  -3.965920e+02
   2.523727e+02  -1.498901e+02
   2.739400e+02   3.699945e+01
   3.317533e+02   1.860272e+02
   1.125952e+02   2.268711e+02
  -1.388006e+02   1.929876e+02
  -1.885852e+02   6.411459e+01
  -5.668030e+01  -2.073178e+01
   1.185802e+02   4.433210e+01
   3.465961e+01   8.874093e+01
  -1.121049e+02   9.209010e+01
  -1.248545e+02  -4.948224e+01
  -9.020813e+01  -6.782072e+01
   9.317500e+01  -8.586566e+01
   3.211436e+01   7.441265e+01
  -8.589100e+01   5.386026e+01
  -2.714096e+02  -1.875191e+01
  -2.274859e+02  -6.985662e+01
  -4.912219e+01  -2.568271e+02
   1.381982e+02  -2.712180e+02
   3.199324e+02  -1.582956e+02
   2.102331e+02   3.459835e+01
  -4.429290e+01   1.586082e+02
  -1.159690e+02  -2.050509e+00
   7.740808e+01  -1.115541e+02
   1.952744e+02  -1.269104e+02
   2.105634e+02   6.391070e+01
   6.273256e+01   2.290385e+02
  -6.589051e+01   1.445503e+02
  -1.731765e+02   5.175155e+00
  -7.809203e+01  -5.841645e+01
  -2.797333e+01   4.719231e+00
   2.062420e+01   1.630791e+02
  -5.283103e+01   1.529893e+02
  -1.935656e+02   4.774370e+01
  -1.569210e+02  -1.291928e+02
  -6.134557e+01  -1.800005e+02
   1.915154e+02  -1.647917e+02
   1.868608e+02   1.130850e+01
   1.083224e+02   1.312977e+02
  -6.948814e+01   1.266540e+02
  -1.232675e+02  -4.030764e+01
  -1.222999e+01  -9.893990e-01
   3.587353e+01  -2.711009e+01
  -7.965869e+01  -3.317809e+01
  -3.700778e+01  -3.919093e+01
  -1.145478e+02  -5.756419e+01
   1.782605e+01  -1.060725e+02
   2.358094e+01  -1.710247e+02
   2.806281e+02  -1.673596e+01
   2.296083e+02   1.210512e+02
   1.014112e+02   2.688376e+02
  -1.511515e+02   1.482847e+02
  -1.648906e+02   4.375247e+01
  -7.602561e+01  -3.955383e+01
  -6.266758e+01  -5.449133e+01
  -6.822895e+00   3.441822e+01
  -1.022131e+02   4.978221e+01
  -1.373869e+01  -1.273562e+01
   3.587427e+01  -5.393828e+01
   1.018654e+02  -1.888970e+01
   1.798161e+01   4.657275e+01
  -3.916551e+01   9.341373e+01
  -1.370433e+02   5.458020e+01
  -1.777389e+02  -6.150526e+01
  -8.805345e+01  -1.804363e+02
   1.436320e+02  -2.209588e+02
   2.709349e+02  -1.304216e+02
   2.286925e+02   1.290943e+02
   4.875635e+01   1.534390e+02
  -4.583870e+01   1.818181e+02
  -5.013662e+01   1.554963e+02
  -6.268308e+01   6.505275e+01
  -1.130380e+02   9.590733e+01
  -5.087846e+01   6.107871e+01
  -1.247571e+02   9.476434e+00
  -9.037849e+01  -1.717442e+02
  -1.225629e+01  -2.011442e+02
   9.638394e+01  -1.969051e+02
   2.069898e+02   2.192172e+01
   1.146496e+02   1.145847e+02
   5.264997e+01   2.180711e+02
  -6.095671e+01   9.839852e+01
  -6.122597e+01  -1.395888e+01
   5.695610e+01   2.535657e+00
   3.680177e+01  -8.966236e+01
  -3.379728e+01  -6.878170e+01
  -5.927521e+01  -8.895837e+00
   8.260415e+00  -2.628783e+01
   4.909351e+01  -1.582716e+01
   1.590155e+02   4.210804e+01
   1.160300e+02   3.015607e+01
   1.096857e+01   5.079965e+01
  -1.199082e+02   8.937675e+01
  -1.209840e+02   3.553989e+01
  -2.950576e+01   3.541257e+00
   3.219520e+01   2.027450e+01
   7.974057e+01  -2.513095e+01
   3.672815e+01   2.312461e+01
  -2.483108e+01   6.679236e+01
  -4.792325e+01  -5.720317e+01
   8.050053e+00  -2.726224e+01
  -4.130036e+01  -6.533319e+01
  -7.542882e+01  -4.535868e+01
  -7.825508e+01   1.347029e+01
   4.050741e+00  -5.846224e+01
   5.244689e+01  -2.152329e+02
   1.490371e+02  -1.071044e+02
   2.072013e+02   3.494870e+01
   1.238505e+02   6.107437e+01
  -1.269173e+00   1.126216e+02
  -7.912718e+01   4.790570e+01
  -4.485920e+01  -3.761867e+01
   3.897593e+01  -3.481536e+01
   1.530186e+02   5.999297e+01
   3.182641e+01   1.109546e+02
  -3.388901e+01   9.268650e+01
  -1.580298e+02   1.091103e+02
  -1.293277e+02  -4.003765e+01
  -1.022933e+01  -6.696007e+01
   9.155451e+01  -1.197496e+02
   5.446885e+01  -3.298987e+01
   7.159342e+01   2.981105e+01
  -1.240638e+01  -2.913355e+01
  -2.952414e+01  -2.059602e+02
   1.206447e+02  -1.455388e+02
   2.192133e+02  -9.651022e+01
   1.175370e+02   7.669407e+01
   8.670289e+00   1.381041e+02
  -8.969264e+01   1.193974e+02
  -1.257092e+02  -2.141302e+01
  -2.751743e+01  -1.361024e+02
  -1.234746e+01  -1.061660e+02
  -2.802560e+01   5.079198e+00
   6.881865e+01   2.631714e+01
   4.021084e+01   3.853497e+01
  -2.251611e+01  -7.400266e+01
  -2.852287e+01   8.428234e+01
   1.974589e+01   1.272153e+02
  -5.612993e+00   7.295481e+01
  -1.235182e+02   2.307565e+01
  -1.291569e+02  -8.396043e+01
  -1.476988e+02  -6.367591e+01
  -2.653192e+00  -1.749955e-01
   1.181990e+02  -6.081470e+01
   1.073388e+02  -1.676279e+00
  -1.050148e+01  -1.542623e+01
  -3.063774e+00   4.884435e+01
  -1.783305e+01   3.266450e+01
   1.583635e+01   1.548214e+01
  -2.193902e+01   2.100908e+01
  -9.676536e+01   2.428307e+01
  -1.290620e+02  -1.992922e+01
  -1.389442e+01  -5.322081e+01
   1.092704e+02  -6.402545e+01
   1.899022e+02  -6.977949e+01
   1.907721e+02   1.354765e+02
   6.702528e+00   1.876921e+02
  -1.288415e+02   1.319012e+02
  -1.459803e+02   1.090726e+01
  -1.203993e+02  -3.705913e+01
  -2.852332e+01  -4.265785e+01
   1.279990e+01  -2.994490e+01
  -2.815352e+01  -6.120682e+01
  -2.774280e+01  -5.106170e+01
   1.187622e+01  -1.364863e+02
   9.412157e+00  -5.027547e+01
   9.747578e+01   2.889472e+01
   8.985614e+01   5.812281e+01
  -3.654741e+01   1.149166e+02
  -1.512991e+02  -1.890989e+01
  -1.084556e+02  -8.571552e+01
  -8.308760e+01  -1.552408e+02
   8.364755e+01  -8.073055e+01
   1.036243e+02   1.348555e+01
   6.821956e+01   6.288893e+01
  -4.801722e+01   5.380999e+01
  -4.071637e+01  -4.853340e+01
   3.352736e+01  -2.249508e+01
   7.897319e+01  -1.575039e+01
  -1.694104e+01   1.250800e+01
  -5.782938e+01   1.007620e+02
  -1.357155e+02   4.082510e+01
  -4.367673e+01   1.879251e+01
   1.671523e+01  -7.038928e+01
   5.073078e+01  -4.864777e+01
   1.501400e+01   6.944645e+01
  -7.632413e+01   1.124181e+02
  -1.709366e+01   8.250856e+01
   5.869742e+00  -3.328039e+01
  -4.894528e+01  -1.322470e+01
   9.368743e+00  -4.438151e+01
   4.322925e+01   5.205402e+00
  -7.271855e+00   2.852227e+01
   5.294929e+01  -1.226215e+01
   3.258584e+01  -7.227811e+01
   5.099338e+01   2.779596e+01
  -1.251796e+01  -1.376361e+01
  -2.707971e+01  -3.062005e+01
  -1.163050e+01   1.696487e+00
  -2.835234e+01  -3.682858e+01
   1.985953e+01  -7.263461e+01
   2.818610e+01  -3.877188e+01
  -5.427985e+00   5.434306e+01
   1.948272e+01   4.158122e+01
  -1.705893e+01   3.151525e+01
  -1.235782e+02   4.680132e+00
  -5.960334e+01  -4.730349e+01
   5.388328e+01  -5.936603e+01
   6.886153e+01  -1.076842e+01
  -3.217795e+01  -1.228178e+01
  -1.903771e+01   4.026692e+01
  -3.650753e+01  -3.420631e+01
   4.353596e+01  -2.253548e+01
   1.130679e+02   1.827508e+01
