
 $NMID
 id='ANONYMOUS ', fmtdat='(2E16.6)'
 volume=1.0
 tramp=1.0
 $END
  -4.664169e+03  -4.067383e+01
  -2.676529e+03  -2.923209e+03
   9.178040e+02  -2.913275e+03
   2.364916e+03  -8.317523e+02
   9.618137e+02   8.282016e+02
  -7.811473e+02   6.023650e+02
  -9.961721e+02  -4.943557e+02
   2.166138e+01  -1.182423e+03
   9.143494e+02  -8.190069e+02
   1.013894e+03   1.711937e+02
   4.348451e+02   9.908582e+02
  -2.999727e+02   9.923591e+02
  -7.432519e+02   7.308394e+01
  -4.640007e+02  -8.362163e+02
   3.254533e+02  -8.489325e+02
   6.401531e+02   5.656192e+01
   2.699536e+02   7.856810e+02
  -3.644928e+02   6.919863e+02
  -5.805283e+02   3.657149e+01
  -3.741204e+02  -3.556459e+02
  -6.030342e+01  -5.175495e+02
   2.217513e+02  -2.894346e+02
   2.506424e+02   4.219267e+01
  -1.730033e+02   1.653849e+02
  -4.773672e+02  -9.215973e+01
  -2.058101e+02  -4.429828e+02
   5.260426e+02  -4.954439e+02
   9.429635e+02   7.964625e+01
   4.564098e+02   6.625068e+02
  -3.717875e+02   5.709030e+02
  -8.416528e+02  -3.611809e+01
  -3.365762e+02  -5.044729e+02
   2.746326e+02  -5.525838e+02
   6.448042e+02  -2.400382e+02
   5.156746e+02   2.616229e+02
   3.957098e+01   5.413544e+02
  -2.148791e+02   2.626065e+02
  -2.083907e+02  -2.525982e+02
   2.092382e+02  -5.171072e+02
   5.390875e+02   4.972831e+01
   3.133842e+02   7.539646e+02
  -3.655218e+02   7.781057e+02
  -6.291054e+02   3.483626e+01
  -2.566326e+02  -6.285672e+02
   3.279268e+02  -2.882286e+02
   4.750623e+02   3.473758e+02
  -4.985054e+01   5.806643e+02
  -5.943651e+02   1.506550e+02
  -6.104662e+02  -4.848489e+02
  -1.741077e+02  -5.837786e+02
   4.167954e+02  -3.913153e+02
   6.736984e+02   5.374081e+01
   4.146137e+02   4.639377e+02
  -1.891445e+02   3.628748e+02
  -4.547000e+02   7.355057e+01
  -2.585484e+02  -2.089687e+02
   1.444733e+02  -8.281452e+01
   1.865417e+02   2.530429e+02
  -1.470866e+02   2.077493e+02
  -3.859708e+02  -4.626422e+01
  -1.679715e+02  -3.070762e+02
   2.316217e+02  -3.224462e+02
   3.790674e+02  -4.045990e+01
   1.965519e+02   8.003315e+01
  -3.220341e+01   2.545728e+02
  -2.087657e+02   3.383565e+02
  -3.163643e+02   2.036791e+02
  -2.938145e+02  -1.531575e+02
  -2.415135e+01  -4.798589e+02
   1.581319e+02  -3.971888e+02
   1.358252e+02  -8.184430e+01
   3.142625e+01   5.399043e+01
  -1.844716e+01  -6.464715e+01
   2.241570e+02  -1.377718e+02
   2.819150e+02   8.004776e+01
   1.348504e+02   2.824933e+02
  -9.121245e+01   2.898703e+02
  -2.656364e+02  -2.926246e+01
  -2.111107e+02  -2.431718e+02
   3.227470e+01  -2.880232e+02
   3.030341e+02  -1.493744e+02
   4.048514e+02   1.193358e+02
   2.457821e+02   3.900573e+02
  -9.546221e+01   3.683504e+02
  -2.577619e+02   1.938189e+02
  -2.060853e+02   9.418053e+00
  -1.450041e+02   4.727630e+01
  -1.894375e+02   6.904659e+01
  -3.760439e+02  -5.493606e+01
  -3.088574e+02  -3.212143e+02
  -1.526961e+01  -4.563027e+02
   3.355319e+02  -4.607328e+02
   4.670871e+02  -2.322545e+02
   3.607091e+02   3.568835e+01
   1.002387e+02   2.714463e+02
  -1.201803e+02   3.022976e+02
  -5.763856e+01  -4.758315e+01
   7.194097e+01  -9.629044e+01
   2.190303e+02   5.299218e+01
   2.579850e+01   1.656205e+02
  -1.999943e+02   1.500228e+02
  -1.994588e+02  -4.609194e+01
   5.364240e+01  -1.875275e+02
   2.188202e+02   2.513763e+01
   1.489756e+02   2.678941e+02
   1.826562e+01   3.370442e+02
  -2.295106e+02   1.786369e+02
  -3.831801e+02  -1.069827e+02
  -2.385622e+02  -2.041189e+02
  -1.134410e+02  -2.459466e+02
   1.901187e+02  -1.076107e+02
   1.969738e+02  -4.862753e+01
   9.619803e+01   1.733836e+01
  -6.413907e+01  -1.090374e+01
  -8.506052e+01  -1.054476e+02
   7.484226e+01  -1.203524e+02
   1.911922e+02  -8.183859e+00
   3.467492e+01   7.696008e+01
  -1.389135e+02   6.303071e+01
  -5.908731e+01  -6.019174e+01
   1.150935e+02  -8.839943e+01
   2.553180e+02  -4.358455e+01
   2.686270e+02   1.019960e+02
   7.823430e+01   2.413969e+02
  -2.251174e+02   2.402524e+02
  -3.228240e+02   1.168127e+02
  -2.101891e+02  -3.183246e+01
   4.465858e+01  -1.270911e+02
   1.153152e+02  -6.269446e+01
  -6.226329e+01   9.750644e+01
  -1.970427e+02   3.967582e+01
  -2.207263e+02  -1.549154e+02
  -1.117793e+02  -2.818105e+02
   7.008599e+01  -1.433935e+02
   1.263604e+02   6.205816e+00
   9.142212e+01   3.215936e+01
  -2.566186e+01  -7.253077e+00
  -3.204297e+01  -5.024883e+01
   9.033415e+01  -1.402493e+02
   2.195547e+02  -1.143217e+02
   1.700754e+02   1.182529e+02
   3.664590e+01   1.887635e+02
  -1.864028e+02   1.572158e+02
  -1.728893e+02   1.676970e+01
  -6.321357e+01  -1.256288e+02
   1.165167e+02  -1.816123e+02
   8.995985e+01  -1.626879e+01
   3.758148e+01   4.910725e+01
  -4.877562e+00   6.333968e+01
  -6.997895e+01   1.799873e+01
   7.874336e+01  -2.755358e+01
   1.229387e+02   7.145222e+01
   1.297817e+01   2.114968e+02
  -1.237365e+02   1.517163e+02
  -2.527049e+02   1.998180e+01
  -2.295741e+02  -1.555710e+02
  -8.601826e+01  -2.491287e+02
   1.277954e+02  -1.879917e+02
   9.439931e+01  -4.087412e+00
   1.230338e+02  -7.518450e+00
   3.340782e+00   2.952574e+01
   2.436780e+01   2.867896e+01
   6.064558e+01  -5.120086e+01
   2.905727e+01   4.676381e+01
  -9.463190e+01   9.546518e+01
  -7.995121e+01   5.270020e+01
  -8.460826e+01  -3.856594e+00
  -2.491327e+01  -9.319666e+01
   1.317410e+02  -1.028887e+02
   1.905711e+02   2.760915e+01
   1.367094e+02   1.934182e+02
  -1.073518e+02   2.117834e+02
  -3.492901e+02   1.483593e+02
  -2.456265e+02  -1.122803e+02
  -8.498326e+01  -2.058273e+02
   3.147666e+01  -1.437681e+02
   8.259295e+01  -1.093129e+02
   8.336643e+01  -8.822886e+01
   9.965443e+01  -6.750322e+01
   8.157816e+01  -5.737471e+01
   1.072989e+02  -3.097420e+01
   1.260239e+02   2.059394e+02
   1.164263e+01   2.062992e+02
  -1.385253e+02   1.833059e+02
  -2.141905e+02   6.147052e+00
  -1.219008e+02  -1.103078e+02
  -5.414746e+01  -1.420362e+02
   1.124300e+02  -3.395300e+01
   3.866643e+01  -2.128714e+00
   3.748101e+01   7.333507e+01
  -5.300168e+01   6.302740e+01
   3.233483e+01   5.816007e+01
   1.313935e+02  -4.699022e+00
   5.433274e+01   4.870438e+01
  -6.140502e+01   2.676906e+01
  -1.965214e+02  -1.899947e+01
  -1.145157e+02   2.475678e+01
   7.804196e+01  -1.071820e+02
   1.325369e+02  -1.078810e+02
   1.443694e+02   1.766323e+01
   7.230570e+01   3.663533e+01
  -9.466146e+01   2.237601e+01
  -4.155571e+01   7.838079e+00
   3.266964e+01  -7.717246e+01
   1.035987e+02  -4.596775e+01
   1.994226e+01   2.727755e+01
   5.518595e+01   8.241654e+01
   2.499743e+01   9.186522e+01
   4.836900e+01   4.007537e+01
   1.127825e+02   6.018182e+01
  -1.275495e+01   4.638915e+01
  -1.028515e+02   1.203767e+02
  -1.219815e+02   1.224488e+02
  -1.548667e+02   4.862448e-01
  -5.572655e+01  -6.032036e+01
  -2.779791e+01  -1.152346e+02
   9.892506e+01  -3.751759e+01
   5.213149e+01   3.307047e+01
  -7.880204e+01  -1.239884e+01
  -1.937740e+02  -6.125493e+01
  -4.893944e+01  -1.726393e+02
   1.048114e+02  -1.235816e+02
   2.221074e+02  -1.031962e+02
   1.602274e+02   4.292775e+01
   1.255414e+01   5.798560e+01
  -5.519164e+01   9.492362e+01
  -4.416469e+01   2.461295e+01
   3.983145e+01  -1.491599e+01
   5.009716e+01   4.204818e+01
   2.272598e+01   1.249694e+02
  -9.941852e+01   1.421353e+02
  -1.432677e+02   3.856387e+01
  -1.610052e+02  -1.571975e+02
   1.002575e+01  -2.064401e+02
   8.111180e+01  -1.774337e+02
   8.468444e+01   1.266696e+01
   1.190767e+02   1.102277e+02
  -5.443958e+01   6.764362e+01
   1.056775e+00   4.410067e+01
  -9.552176e+01  -2.512900e+01
  -7.003056e+01   1.413470e+01
   4.104027e+01   1.365235e+01
   1.690263e+01  -7.544754e+00
  -2.370151e+01  -1.018271e+02
  -6.030388e+01  -1.289457e+02
   5.118772e+01  -1.292372e+02
   1.953018e+02   3.366422e+01
   1.287032e+02   7.470526e+01
  -6.164085e+00   2.699443e+01
  -1.141009e+02   3.907496e+01
  -6.552895e+01  -2.668370e+01
  -5.297015e+01   4.022409e+00
   6.664992e+01   2.400398e+01
   3.433729e+01  -1.405833e+01
   1.157647e+01   1.466831e+00
   1.534161e+01   2.005904e+01
   8.736360e+01   1.442014e+01
   1.217049e+02   2.216414e+01
   5.718861e+01   1.089831e+02
  -1.112398e+02   8.596054e+01
  -1.922622e+02   5.509447e+01
  -1.204174e+02  -5.570709e+01
  -3.099907e+01  -2.071855e+02
   3.978709e+01  -1.835854e+02
   1.407284e+02  -4.305957e+01
   7.356491e+01   9.906755e+01
   2.088200e+01   6.084309e+01
  -1.668468e+00   7.464870e+00
   3.203310e+01   3.228677e+00
   1.220397e+00   1.662990e+01
   8.817936e+01   7.865434e+01
   2.229241e+01   8.651322e+01
  -1.073864e+02  -2.689217e+01
  -6.512595e+01  -1.367202e+02
  -7.746586e+00  -1.126720e+02
   5.501738e+01  -1.874458e+01
   7.186945e+01   1.506943e+02
   3.408855e+01   1.093168e+02
  -6.987646e+01   5.163518e+01
  -1.076910e+02  -7.144903e+01
  -5.921529e+00  -8.381350e+01
   4.137856e+01  -2.390157e+01
   3.221427e+01  -4.120788e+01
  -1.325569e+01  -2.835351e+00
  -1.394250e+02   1.040345e+01
  -1.127768e+01  -2.567231e+01
   8.808838e+01  -9.243329e+01
   9.964697e+01   3.759282e+00
   8.507480e+01   3.322231e+01
   3.745334e+00   7.775030e+01
  -6.472875e+01   8.308691e+01
  -2.522361e+01  -5.192103e+01
  -2.335188e+01  -5.261923e+01
   5.749641e+00  -9.731230e+01
   3.907556e+01   1.631422e+01
   4.314046e+01   3.988903e+01
   4.282141e+01   4.522244e+01
  -6.635646e+01  -3.679394e+01
  -2.823711e+01  -5.228351e+01
  -2.009077e+01  -1.510661e+00
   8.908417e+00   2.379883e+01
  -6.374789e+01   1.116360e+01
  -3.708963e+00  -1.819464e+01
   5.366129e+01  -4.690270e+01
   5.422883e+01   3.019304e+01
   4.428451e+01   5.182243e+01
  -6.117092e+01   4.142702e+00
  -6.436303e+01   7.112357e+00
  -6.620845e+01  -1.444505e+01
   4.212795e+01  -1.492244e+01
   7.427120e+01  -4.885663e+01
   7.405863e+00   7.237314e+01
   4.597274e+01   5.519476e+01
  -6.175156e+00   6.032856e+01
  -1.344716e+02   3.198319e+01
  -3.634947e+01  -1.329478e+01
   1.399571e+01   9.002866e-02
   3.129345e+01  -2.753392e+01
  -6.613581e+01   2.198454e+01
  -1.206421e+02   3.343607e+01
