
 $NMID
 id='ANONYMOUS ', fmtdat='(2E16.6)'
 volume=1.0
 tramp=1.0
 $END
   3.879183e+03  -1.012262e+02
   2.397788e+03   2.144878e+03
  -4.171380e+02   2.505688e+03
  -1.779042e+03   9.761972e+02
  -9.677811e+02  -3.088988e+02
   4.041084e+02  -4.845043e+02
   7.147289e+02   2.896167e+02
   7.442244e+01   8.999187e+02
  -6.450303e+02   7.586706e+02
  -8.099347e+02  -2.234496e+01
  -4.070856e+02  -6.822380e+02
   1.316351e+02  -8.185411e+02
   5.197904e+02  -1.123635e+02
   3.425119e+02   6.094756e+02
  -1.811058e+02   6.777070e+02
  -5.263599e+02   6.030863e+01
  -2.701232e+02  -5.399985e+02
   2.691427e+02  -6.587559e+02
   5.152646e+02  -1.394803e+02
   4.065151e+02   2.978880e+02
   1.015087e+02   3.536361e+02
  -2.037747e+02   2.821597e+02
  -1.875222e+02  -9.474070e+00
   1.173186e+02  -1.444639e+01
   3.717912e+02   1.746751e+02
   1.729350e+02   4.119350e+02
  -4.523687e+02   3.112845e+02
  -7.966419e+02  -1.446667e+02
  -3.631538e+02  -4.818573e+02
   3.134390e+02  -4.039057e+02
   6.695494e+02   8.602532e+01
   2.650540e+02   4.080756e+02
  -2.579013e+02   4.956088e+02
  -4.775689e+02   1.446880e+02
  -4.330696e+02  -2.242673e+02
  -6.832788e+01  -4.214606e+02
   1.317078e+02  -2.943728e+02
   5.071057e+01   1.818881e+02
  -1.462462e+02   4.019534e+02
  -2.500254e+02   1.141565e+01
  -1.781358e+02  -5.857016e+02
   2.632558e+02  -6.119200e+02
   4.408943e+02   1.893739e+01
   1.946710e+02   4.132838e+02
  -1.925730e+02   3.098141e+02
  -3.559799e+02  -2.825206e+02
   4.815430e+00  -4.587967e+02
   4.805288e+02  -1.056282e+02
   5.171921e+02   4.188943e+02
   1.365557e+02   5.677892e+02
  -3.883255e+02   3.100363e+02
  -5.922064e+02  -5.050072e+01
  -3.896508e+02  -3.688497e+02
   1.554872e+02  -2.852209e+02
   3.648434e+02  -4.289244e+01
   2.624389e+02   1.459065e+02
  -9.825857e+01   8.389968e+01
  -6.013458e+01  -8.552514e+01
   1.091820e+02  -9.816034e+01
   3.324131e+02   2.808652e+01
   1.618408e+02   2.638921e+02
  -1.846686e+02   2.561315e+02
  -3.256832e+02   8.159983e+01
  -2.579210e+02  -8.576675e+01
   4.006068e+01  -3.166817e+02
   2.545650e+02  -3.303062e+02
   2.932135e+02  -1.866610e+02
   2.477544e+02   7.420464e+01
   6.290940e+01   3.671891e+02
  -9.852033e+01   3.354621e+02
  -7.388322e+01   1.568022e+02
   1.046601e+01   8.181344e+01
  -9.251275e+01   9.621109e+01
  -1.932733e+02   1.203971e+02
  -2.868225e+02  -4.828221e+01
  -1.752264e+02  -2.598473e+02
   3.205317e+01  -2.181073e+02
   2.281570e+02  -2.273081e+01
   1.685383e+02   2.133635e+02
   3.815479e+01   2.503068e+02
  -2.704812e+02   8.211306e+01
  -3.051664e+02  -1.691109e+02
  -2.011397e+02  -3.234699e+02
   1.106246e+02  -3.523998e+02
   2.256621e+02  -1.362135e+02
   1.341601e+02  -5.647206e+01
   8.371582e+01  -9.547992e-01
   1.968351e+02  -5.359022e+01
   3.850899e+02   7.753889e+01
   2.991485e+02   3.066114e+02
   2.430638e+01   4.267120e+02
  -3.372631e+02   4.514244e+02
  -4.383596e+02   1.954970e+02
  -3.413518e+02  -1.085409e+02
  -2.516425e+01  -3.280901e+02
   1.384398e+02  -2.327766e+02
   4.074910e+01  -2.606510e+01
  -5.186853e+01   9.650931e+01
  -1.707659e+02   1.397307e+01
  -3.612310e+01  -1.205027e+02
   1.186124e+02  -1.944865e+02
   1.530381e+02   7.136213e+01
  -3.146216e+01   2.156602e+02
  -2.218338e+02  -4.995930e+00
  -1.482049e+02  -2.226055e+02
   5.923276e+01  -2.885510e+02
   2.332308e+02  -1.315904e+02
   3.656393e+02   1.026693e+02
   3.262781e+02   3.096134e+02
   9.080811e+01   2.142380e+02
  -1.037671e+02   1.425915e+02
  -1.710096e+02   3.698405e+01
  -1.669915e+01  -1.517747e+01
   1.118066e+02   7.060757e+01
   1.894843e+01   1.193977e+02
  -1.012129e+02   1.180224e+02
  -9.483094e+01  -3.408003e+01
  -6.274652e+01  -8.058361e+01
   8.920849e+01  -2.589986e+01
   4.717434e+00   6.577673e+01
  -1.175819e+02   2.922439e+01
  -2.284918e+02  -7.476760e+01
  -2.562175e+02  -1.188171e+02
  -9.045329e+01  -2.303504e+02
   2.052486e+02  -2.951372e+02
   2.928526e+02  -1.191564e+02
   1.317041e+02  -2.449376e+01
  -2.667901e+01   7.248893e+01
  -5.036490e+01   2.619096e+01
   7.024268e+01  -5.374870e+01
   1.438717e+02  -4.520463e+01
   2.139938e+02   7.770223e+01
   6.971413e+01   2.429741e+02
  -9.534642e+01   2.007657e+02
  -1.043031e+02   3.579721e+01
  -6.016559e+01  -4.381014e+01
   2.729170e+01   6.472735e+01
   7.228611e+01   4.782911e+01
  -2.839734e+01   1.265099e+02
  -2.245074e+02  -1.435011e+01
  -1.736664e+02  -1.125383e+02
  -2.311416e+01  -2.619162e+02
   1.506450e+02  -1.765554e+02
   1.900512e+02   4.409936e+00
   6.550733e+01   5.677618e+01
  -1.039492e+01   3.071858e+01
  -1.002474e+02   5.983824e+01
  -1.108093e+01  -4.251101e+01
   9.310281e+00  -1.029903e+00
   4.683815e+00   5.372199e+01
  -4.769446e+01  -3.173145e+00
  -1.152105e+02  -7.023815e+01
  -7.187452e+01  -1.925347e+02
   1.134037e+02  -1.679665e+02
   2.169327e+02   3.983071e+01
   1.899651e+02   1.438870e+02
   4.000681e+01   2.788823e+02
  -1.473472e+02   1.622965e+02
  -1.408610e+02  -5.971434e+00
  -8.559718e+01  -3.641903e+01
  -5.998133e+01  -1.296800e+01
  -1.072221e+02   5.385181e+01
  -1.036120e+02  -1.261352e+01
  -1.577064e+01  -6.012238e+00
   4.499321e+01  -5.085117e+01
   1.104676e+02  -7.363759e+01
   1.159722e+02   7.732724e+00
   1.214237e+01   9.994841e+01
  -2.001825e+02   8.941630e+01
  -1.789982e+02   4.548352e+00
  -7.777331e+01  -1.952892e+02
   1.134315e+02  -2.009257e+02
   2.926696e+02  -9.182203e+01
   3.032142e+02   5.909600e+01
   1.186852e+02   1.719039e+02
   2.173830e+01   1.511253e+02
  -1.145498e+02   1.057708e+02
  -7.813346e+01   5.473513e+01
  -9.434558e+01   7.978001e+01
  -5.856631e+01   6.454542e+01
  -1.202933e+02  -6.243215e+01
  -8.762396e+01  -1.592514e+02
  -7.446540e+01  -1.923609e+02
   4.750876e+01  -2.211484e+02
   2.297347e+02   2.138450e+01
   1.117640e+02   1.273513e+02
   1.300542e+01   1.531869e+02
  -4.389895e+01   1.136149e+02
  -4.470243e+01  -1.764431e+01
  -8.375008e+00  -9.586998e+00
   3.180801e+01  -4.657284e+01
  -1.000448e+02  -3.821874e+01
  -1.025507e+02   5.134988e+00
  -5.244268e+01  -4.427683e+01
   3.989892e+01  -4.576290e+01
   1.405555e+02  -1.697664e+01
   1.028065e+02   5.099775e+01
  -2.145603e+01   7.739732e+01
  -1.424158e+02   6.023521e+01
  -1.009944e+02   1.703785e+01
  -4.093762e+01  -1.670606e+01
   9.493810e+01  -2.916439e+01
   9.384072e+01   2.987624e+01
   2.909777e+01   7.402011e+01
  -5.797001e+01   5.800949e+01
  -6.557315e+01   1.436619e+01
  -4.346039e+01  -7.137274e+00
  -8.073675e+01  -1.699686e+01
  -5.687631e+00  -1.820342e+01
  -1.158523e+02   4.161285e+01
  -6.013866e+01  -8.391031e+01
   4.042915e+01  -1.071249e+02
   1.246819e+02  -1.119484e+02
   1.280655e+02  -3.473868e+01
   1.598550e+02   6.389097e+01
   1.708705e+01   9.884971e+01
  -4.734422e+01   3.465703e+01
  -7.048790e+01  -9.128598e-01
   4.667353e+01  -3.661812e+01
   2.083463e+02   3.671138e+01
   9.780155e+01   9.892015e+01
  -7.211737e+01   7.674061e+01
  -1.631796e+02   3.600309e+01
  -1.046434e+02  -5.237607e+01
  -4.774448e+01  -7.560846e+01
   7.871793e+01  -8.554847e+01
   9.618539e+01   1.317189e+01
  -2.416200e+01   3.014494e+01
  -1.116695e+02  -2.131247e+01
  -5.764466e+01  -8.600744e+01
   8.733111e+01  -1.744304e+02
   1.267806e+02  -4.800499e+01
   1.590603e+02   1.140598e+02
  -1.201869e+01   1.597332e+02
  -3.167159e+01   1.285068e+02
  -9.908518e+01   4.982470e+00
  -6.269229e+01  -1.129174e+02
  -6.764943e+01  -1.179913e+02
   4.084938e+01   1.237150e+01
   1.056956e+01   7.041590e+01
  -9.051080e+00  -1.153251e+01
   2.690114e+01  -1.460852e+01
  -9.337200e+00  -3.929178e+01
   4.779193e+01   5.858174e+01
   7.099745e+00   2.923189e+01
  -4.091153e+01   5.469267e+01
  -1.331074e+02  -5.017091e+01
  -8.272404e+01  -1.156271e+02
   6.582959e+00  -6.252544e+01
   7.480385e+01  -7.652361e+01
   7.211028e+01   2.163737e+00
  -3.130725e+01  -2.785110e+01
  -3.243620e+01   1.203613e+02
  -2.184593e+01  -2.233668e+01
   1.047489e+01  -1.244358e+01
  -2.861925e+01   3.446526e+01
  -8.282784e+01  -2.965474e+01
  -1.202471e+02  -1.845995e+01
  -7.824322e+00  -4.494783e+01
   1.158203e+02  -1.049492e+02
   1.795602e+02  -8.723470e+01
   1.256986e+02   7.623852e+01
  -6.955727e+00   1.489315e+02
   2.033526e+01   1.789796e+02
  -1.304261e+02   9.993198e+01
  -7.107627e+01   2.187482e+01
   1.568440e+01  -3.285190e+01
  -1.234245e+00   3.584143e+00
  -1.881511e+01   2.586583e+01
  -2.947969e+01  -2.984602e+01
  -2.064595e+01  -6.864862e+01
  -2.945518e+00  -8.557235e+01
   6.722780e+01   2.056968e+00
   8.670810e+01   8.007915e+01
   5.516404e+00   1.401774e+02
  -2.881077e+01  -1.055070e+00
  -9.932178e+01  -5.202156e+01
  -3.339326e+01  -1.253880e+02
   5.320940e+01  -2.006535e+01
   1.170315e+02   3.296681e+01
   4.211921e+01   4.118528e+01
   9.023467e-01   1.052782e+02
  -3.011405e+01  -6.343447e+01
   3.096099e+01  -6.841816e+00
   8.922066e+01   3.272552e+01
  -2.209586e+01   3.662957e+00
  -1.507841e+01   1.852711e+01
  -9.997251e+01   1.136356e+02
  -8.660560e+01  -1.756626e+01
   3.885001e+01  -9.382196e+01
   4.341385e+01  -4.620773e+01
   3.243821e+00   5.060518e+01
  -2.711477e+01   1.395727e+01
   3.946534e+00   4.275509e+01
  -3.378792e+01  -4.784264e+01
  -1.511677e+01  -5.605774e+01
   2.538622e+01  -3.505004e+01
   1.863814e+01   2.293615e+01
   2.808057e+01   3.075119e+01
  -3.656336e+01   2.271855e+01
  -2.949755e-01  -4.280304e+01
  -3.562842e+01   5.022327e+01
   3.528273e+01   5.439381e+01
  -3.519748e+01   6.604859e+01
  -7.296500e+01   6.528147e+00
  -5.579893e+01  -5.263440e+01
  -2.662563e+01  -5.225293e+01
   6.420232e+01  -2.792184e+01
   1.210657e+01   2.405512e+01
   4.136799e+01   6.822528e+01
  -9.840140e+01  -3.089861e+01
  -8.311041e+01  -3.030152e+01
  -1.742434e+01  -3.250827e+01
   4.727204e+01  -1.313146e+01
   6.524784e+01  -1.825950e+01
  -3.814720e+01  -1.971454e+01
   6.621734e+00  -1.883630e+01
  -9.670826e+00  -1.234517e+01
   8.753171e+00   4.836014e+01
   6.734916e+01   1.339116e+01
