
 $NMID
 id='ANONYMOUS ', fmtdat='(2E16.6)'
 volume=1.0
 tramp=1.0
 $END
   3.232921e+03  -1.347587e+00
   2.049573e+03   1.701179e+03
  -1.241903e+02   2.013877e+03
  -1.319881e+03   1.059238e+03
  -8.099628e+02   4.583855e+01
   8.368103e+01  -2.271843e+02
   4.241775e+02   2.051086e+02
   7.511429e+01   5.884824e+02
  -4.950788e+02   5.752190e+02
  -6.756709e+02   4.361963e+01
  -3.678937e+02  -5.522698e+02
   3.061999e+01  -6.080090e+02
   3.407070e+02  -1.195414e+02
   2.340169e+02   4.581937e+02
  -1.147052e+02   5.514675e+02
  -3.733275e+02   6.804994e+01
  -2.749183e+02  -4.574676e+02
   1.906372e+02  -5.839544e+02
   4.039871e+02  -2.741948e+02
   3.863734e+02   1.807954e+02
   1.032421e+02   3.807212e+02
  -1.392013e+02   2.745351e+02
  -8.041645e+01   4.927187e+01
   1.905361e+02   2.436275e+01
   2.525189e+02   2.005713e+02
   5.576866e+01   3.229080e+02
  -4.650645e+02   2.208649e+02
  -5.949531e+02  -1.792211e+02
  -2.643586e+02  -3.800088e+02
   3.315153e+02  -2.304480e+02
   5.360511e+02   1.302520e+02
   2.390398e+02   3.509128e+02
  -2.140537e+02   3.353261e+02
  -4.692997e+02   6.103316e+01
  -3.469577e+02  -1.598296e+02
  -6.539983e+01  -2.836696e+02
   4.490765e+01  -2.011873e+02
  -2.758168e+01   1.051726e+02
  -1.295401e+02   2.224801e+02
  -1.999396e+02  -6.453841e+01
  -1.269789e+02  -4.206223e+02
   2.210520e+02  -4.842105e+02
   3.721938e+02  -3.309936e+01
   1.187406e+02   3.315609e+02
  -1.766612e+02   2.138565e+02
  -1.377915e+02  -2.728051e+02
   9.760823e+01  -4.026390e+02
   4.187197e+02  -9.404033e+01
   4.819625e+02   3.266875e+02
   1.444620e+02   4.438195e+02
  -2.484017e+02   2.502102e+02
  -4.639932e+02  -7.385097e+01
  -2.878859e+02  -2.438377e+02
   2.144013e+01  -1.897761e+02
   2.926707e+02  -8.702147e+01
   2.487404e+02   8.822507e+01
  -3.086663e+01   6.694283e+01
  -5.090675e+01  -1.261720e+02
   1.802623e+02  -1.321738e+02
   2.020506e+02   6.149673e+01
   1.122703e+02   2.127543e+02
  -1.281715e+02   2.165055e+02
  -3.300216e+02   6.046125e+01
  -2.014075e+02  -1.021688e+02
   8.788965e-01  -2.408888e+02
   2.470459e+02  -3.925183e+02
   3.118248e+02  -1.991883e+02
   2.283928e+02   1.177106e+02
   1.151108e+01   4.083093e+02
  -7.917010e+01   2.701961e+02
  -6.915300e+01   1.607222e+02
  -2.176217e+01   5.033944e+01
  -1.077617e+02   8.666619e+01
  -1.870262e+02   9.633062e+01
  -2.352269e+02  -7.892939e+01
  -1.103022e+02  -2.000941e+02
   7.588645e+01  -1.905077e+02
   2.100572e+02   1.354509e+01
   1.807862e+02   2.424379e+02
  -6.846102e+01   2.582631e+02
  -2.339797e+02   1.011094e+02
  -2.952850e+02  -1.177061e+02
  -1.621812e+02  -3.039453e+02
   6.662602e+01  -2.789301e+02
   1.190630e+02  -1.033086e+02
   1.580624e+02  -8.197232e+01
   1.978157e+02  -8.052111e+01
   2.623625e+02  -2.620895e+01
   3.637893e+02   4.728698e+01
   2.517113e+02   2.613769e+02
   2.531015e+01   3.994050e+02
  -3.124565e+02   4.054636e+02
  -3.914987e+02   1.475293e+02
  -2.330312e+02  -8.239297e+01
  -4.424184e+01  -2.539372e+02
   1.090452e+02  -1.753589e+02
   4.781948e+01  -1.374506e+01
  -1.503963e+02   5.839364e+01
  -1.297235e+02   1.010982e+01
   3.643340e+01  -1.994722e+02
   1.469666e+02  -1.423337e+02
   1.211350e+02   8.113305e+01
  -8.665093e+01   1.240406e+02
  -1.784673e+02   3.357451e+00
  -1.157133e+02  -1.802842e+02
  -1.648075e+01  -2.798524e+02
   2.104062e+02  -1.892207e+02
   3.288574e+02   2.025022e+01
   3.020025e+02   1.561320e+02
   8.111741e+01   2.492223e+02
  -6.949706e+01   1.687180e+02
  -1.315463e+02   4.251146e+01
  -4.592811e+01  -2.526389e+01
   2.404866e+01   4.287792e+01
   8.384886e+00   9.259977e+01
  -1.334506e+02   7.500336e+01
  -1.211227e+02  -1.141172e+01
  -3.338118e+01  -4.165848e+01
   4.680875e+01   5.840645e-01
   5.186125e+01   3.721591e+01
  -1.388593e+02   5.957065e+01
  -2.338805e+02  -2.174579e+01
  -2.945788e+02  -1.501922e+02
   4.992193e-01  -2.343009e+02
   1.554404e+02  -2.090535e+02
   2.597931e+02  -1.205205e+02
   1.357715e+02   2.013358e+01
  -9.367820e+01   2.820276e+01
  -2.681734e+01  -2.571594e+00
   8.266811e+01  -7.667479e+01
   9.890662e+01  -4.087621e+01
   1.661722e+02   1.382000e+02
   8.065065e+01   1.733298e+02
  -5.598808e+01   1.455882e+02
  -1.297905e+02   3.367992e+01
  -8.460740e+01  -4.180089e+01
   4.833663e+01   3.171929e+01
   1.203279e+01   1.093217e+02
  -8.982739e+01   1.115194e+02
  -1.692513e+02   1.775919e+01
  -1.941267e+02  -8.798530e+01
  -4.725805e+01  -2.285589e+02
   2.072812e+02  -1.219793e+02
   1.433394e+02  -1.969113e+01
   2.574551e+01   4.038974e+01
  -9.327175e+01   1.151706e+02
  -9.888892e+01   2.526622e+01
  -9.705214e+00  -3.151213e+01
   5.245121e+01  -1.263762e+00
  -2.602174e+01   9.245396e+00
  -8.658442e+01  -3.345024e+01
  -1.856281e+02  -5.316319e+01
   1.503851e+00  -1.670322e+02
   1.303643e+02  -1.987812e+02
   2.137817e+02  -1.598671e+01
   1.148581e+02   1.343087e+02
   6.749445e+01   2.721512e+02
  -1.048829e+02   1.298673e+02
  -1.264724e+02   9.697370e+01
  -1.944479e+01   2.797531e+00
  -5.269239e+00  -6.895573e+01
  -7.879866e+01   4.894882e+01
  -5.499511e+01   7.337409e+00
  -7.423015e+01  -7.074093e+01
   3.298275e+01  -7.847475e+01
   1.193398e+02  -3.300091e+01
   8.505242e+01   2.299707e+01
  -1.743103e+01   6.516221e+01
  -1.522977e+02   3.888678e+01
  -1.938473e+02  -3.980323e+01
  -8.744725e+01  -1.897851e+02
   1.258007e+02  -1.724519e+02
   2.286517e+02  -3.383269e+01
   2.110959e+02   6.282017e+01
   7.193332e+01   1.350194e+02
  -5.165422e+01   1.074767e+02
  -1.410524e+02   7.578984e+01
  -1.998894e+01   9.923230e+01
  -7.484445e+01   9.216814e+01
  -8.165386e+01   9.201192e+01
  -1.060674e+02   6.074481e+01
  -9.987202e+01  -1.189502e+02
  -1.582477e+01  -2.135651e+02
   1.208196e+02  -1.091726e+02
   1.816895e+02  -2.624487e+01
   1.583939e+02   1.258709e+02
  -2.165106e+01   1.538329e+02
  -4.424620e+01   1.467364e+02
  -7.684224e+01   1.707633e+01
  -1.020968e+01  -1.569097e+01
   3.055163e+01   1.759978e+01
  -5.294790e+00  -4.547481e+01
  -7.496662e+01  -4.035116e+01
  -7.369053e+01  -7.384315e+01
   9.192039e+01  -4.523863e+01
   1.211124e+02  -1.616703e+01
   1.229859e+02   7.027157e+00
   2.705765e+01   1.710174e+02
  -8.745519e+01   9.469035e+01
  -1.310667e+02  -2.810214e+00
   6.227287e+00  -1.115876e+02
   7.773341e+00  -3.775104e+01
   7.320167e+01  -1.725898e+00
   2.155385e+01   1.318033e+02
  -3.035945e+01   1.127435e+02
  -2.878985e+01   2.906677e+01
  -4.621798e+01  -5.780534e+01
  -1.740150e+01  -3.036256e+01
  -7.284681e+01  -3.023066e+01
  -9.710895e+01   5.144117e+01
  -1.758326e+01  -1.102365e+02
  -1.791979e+01  -9.968369e+01
   1.420855e+02  -1.641646e+02
   1.685104e+02  -5.178721e+01
   1.498552e+02   8.583936e+01
   1.327764e+01   1.427305e+02
  -5.103135e+01   4.901837e+01
  -3.674776e+01  -3.621065e+01
   1.160719e+01   1.013949e+01
   1.223139e+02   5.147126e+01
   1.040545e+02   4.518949e+01
  -1.003022e+02   7.776752e+01
  -1.879453e+02   4.926765e+01
  -1.568692e+02  -3.864518e+01
  -4.806690e+00  -8.220475e+01
   6.397065e+01  -3.213472e+01
   6.079113e+01  -2.161962e+00
  -5.579147e+01  -5.236403e+00
  -6.041407e+01  -9.978113e+00
  -5.287613e+01  -8.311404e+01
   9.334015e+01  -1.639390e+02
   1.188448e+02  -1.009741e+02
   1.131081e+02   9.764568e+01
  -2.521135e+01   1.910050e+02
  -5.867459e+01   6.368005e+01
  -1.268405e+02   1.818852e+01
  -3.873816e+01  -1.396377e+02
  -4.677516e+00  -1.279834e+02
   7.295451e+01  -3.184362e+00
   1.593767e+01   1.629273e+01
   1.609315e+01   9.721345e+00
   2.904130e+01  -4.474919e+00
   6.965280e+00   7.445577e+01
   9.281944e+01   1.119507e+02
   1.210395e+01   1.018282e+02
  -3.645426e+01   9.026277e+01
  -1.235576e+02  -2.984921e+01
  -1.281389e+02  -5.286101e+01
  -4.215149e+01  -4.196487e+01
   5.600708e+01  -5.184061e+01
   1.021003e+02  -1.042214e+01
   5.948866e+01  -4.822237e+01
  -3.207658e+01   2.737217e+01
  -7.269895e+00   7.618570e+00
   3.786642e+01  -1.016780e+00
   1.395249e+01   3.282793e+01
  -2.042011e+01   8.926768e+00
  -1.072040e+02  -4.287396e+01
  -7.159569e+00  -9.122030e+01
   1.246169e+02  -6.305441e+01
   1.999063e+02  -8.528891e+01
   1.378340e+02   3.373475e+01
   6.303223e+01   1.593334e+02
  -1.517351e+01   1.467508e+02
  -1.158800e+02   4.684080e+01
  -5.792892e+01  -2.470299e+01
   2.697123e+00  -4.457789e+01
  -3.464856e+01  -7.275465e+00
   1.480547e+01  -3.464723e+01
  -9.809977e+01  -5.022884e+01
  -2.677709e+01  -1.075843e+02
  -2.476239e+01  -1.107011e+02
   7.841576e+01   1.433043e+01
   9.569891e+01   4.325746e+01
   2.756445e+01   1.228775e+02
  -6.263941e+01   2.293159e+01
  -8.017403e+01  -2.773712e+01
  -4.781266e+01  -5.928809e+01
   5.255035e+01  -7.740702e+01
   6.543999e+01  -3.112678e+01
   4.628583e+01   5.145761e+01
  -3.426188e+01   5.383663e+01
  -6.233804e+00   6.876711e+01
   6.173876e+00   3.808674e+01
   1.005671e+02  -3.412154e+01
   2.006720e+01  -2.016803e+01
  -8.491894e+01   1.049556e+02
  -1.378205e+02   3.121672e+01
  -1.024181e+02   1.496673e+01
   1.321173e+01  -1.005159e+02
   7.132405e+01  -1.219095e+02
   4.524005e+01   1.828037e+01
  -9.831164e+00   4.333904e+01
  -1.765915e+01   8.484414e+01
  -5.216766e+01  -2.182397e+01
  -3.448543e+01  -6.423962e+01
   3.971147e+01  -4.205639e+01
  -4.637412e+00  -3.757804e+01
   4.704869e+01   8.592474e+01
   1.297003e+01  -1.237694e+01
   2.525390e+01  -1.496346e+01
   2.136893e+01  -8.813521e+00
  -8.119407e+01   7.866583e+00
  -3.248789e+01   2.978821e+01
  -9.932333e+00   6.745452e+01
  -7.567152e+01  -9.039334e+01
   1.534356e+01  -8.331467e+01
  -1.894490e+01  -1.174528e+01
   5.560278e+01   2.627451e+01
   1.655573e+01   6.940607e+00
  -5.540424e+01  -9.368552e+00
  -1.086773e+02   3.256522e+01
  -6.207133e+01  -2.184498e+01
   1.409921e+01   2.773022e+01
   6.975002e+01  -3.730955e+00
   2.740731e+01  -9.520836e+00
  -4.288416e+01  -8.056605e+00
  -4.519984e+01   5.734674e+00
   4.247173e+01  -3.520934e+01
   5.755360e+01   3.408464e+01
