
 $NMID
 id='ANONYMOUS ', fmtdat='(2E16.6)'
 volume=1.0
 tramp=1.0
 $END
   3.617337e+03  -4.274020e+01
   2.287368e+03   1.973946e+03
  -2.713787e+02   2.326583e+03
  -1.574690e+03   1.084692e+03
  -9.171818e+02  -1.318353e+02
   2.284689e+02  -3.160140e+02
   5.190621e+02   2.175706e+02
   2.613062e+01   8.076296e+02
  -5.202483e+02   6.275180e+02
  -7.835821e+02   1.440636e+01
  -4.052546e+02  -6.788321e+02
   1.091059e+02  -7.455176e+02
   4.257713e+02  -1.411181e+02
   2.747700e+02   5.403929e+02
  -1.572343e+02   6.000309e+02
  -5.335175e+02   8.512077e+01
  -3.093977e+02  -5.700316e+02
   2.274225e+02  -6.007789e+02
   4.699049e+02  -2.486377e+02
   4.859543e+02   2.306855e+02
   1.554757e+02   3.776631e+02
  -1.187837e+02   2.658820e+02
  -7.304994e+01   2.204538e+01
   2.252634e+02   2.690925e+01
   3.331939e+02   2.398292e+02
   6.862578e+01   4.047786e+02
  -4.578098e+02   3.173079e+02
  -7.019349e+02  -1.531170e+02
  -3.463435e+02  -4.504569e+02
   3.441730e+02  -2.729987e+02
   6.715069e+02   9.583449e+01
   2.101091e+02   4.518650e+02
  -2.740025e+02   4.360577e+02
  -4.819543e+02   2.022973e+02
  -3.984453e+02  -1.380844e+02
  -2.425056e+01  -3.683761e+02
   1.046158e+02  -2.607023e+02
   6.540760e+01   1.284372e+02
  -1.671966e+02   2.679408e+02
  -3.073988e+02  -3.933191e+01
  -1.263235e+02  -5.418175e+02
   3.310344e+02  -5.207770e+02
   4.371737e+02  -2.090041e+01
   1.810771e+02   4.481635e+02
  -1.782446e+02   1.835659e+02
  -2.398281e+02  -2.284122e+02
   1.106557e+02  -4.474648e+02
   5.482753e+02  -6.570133e+01
   4.950729e+02   3.720986e+02
   1.568716e+02   5.056226e+02
  -2.711075e+02   2.414925e+02
  -5.667411e+02  -7.208812e+01
  -3.255192e+02  -2.773707e+02
   1.534113e+02  -2.798037e+02
   3.444484e+02  -5.653518e+01
   1.924353e+02   1.326486e+02
  -7.891842e+01   6.912075e+01
  -3.838334e+01  -5.997565e+01
   1.022209e+02  -1.510446e+02
   2.450237e+02   5.484220e+01
   8.415879e+01   2.223572e+02
  -2.047217e+02   2.356823e+02
  -3.263419e+02   1.033091e+02
  -2.635250e+02  -7.060502e+01
  -1.712373e+00  -3.247439e+02
   2.564571e+02  -3.001401e+02
   3.358909e+02  -1.837917e+02
   1.956258e+02   1.486118e+02
   8.109792e+01   3.781956e+02
  -1.020273e+02   3.243283e+02
  -6.974733e+01   1.307752e+02
   8.066591e+00   9.930734e+01
  -8.882333e+01   1.140753e+02
  -2.659970e+02   1.148130e+02
  -2.135948e+02  -1.070931e+02
  -1.600060e+02  -2.807923e+02
   7.339482e+01  -2.096790e+02
   2.823631e+02   6.927155e+01
   1.854370e+02   2.226108e+02
  -6.943890e+01   3.143073e+02
  -3.073802e+02   9.718428e+01
  -2.855546e+02  -1.654398e+02
  -1.693731e+02  -3.231724e+02
   3.653879e+01  -2.411524e+02
   1.928385e+02  -1.597264e+02
   1.108529e+02  -5.577575e+01
   1.591154e+02  -2.541939e+01
   2.415769e+02  -2.552058e+01
   3.842218e+02   7.804370e+01
   3.020306e+02   3.069675e+02
  -1.381300e+01   4.108548e+02
  -3.574011e+02   4.335548e+02
  -4.942130e+02   1.834318e+02
  -2.736998e+02  -4.186760e+01
  -5.966733e+00  -2.982970e+02
   6.662652e+01  -2.161402e+02
   6.308545e+01  -9.557166e+01
  -1.399352e+02   2.083705e+01
  -1.709682e+02  -2.490583e+01
  -5.488698e+01  -1.446291e+02
   9.854646e+01  -7.172378e+01
   6.625347e+01   6.891982e+01
  -5.515628e+01   1.698580e+02
  -2.224953e+02   4.630604e+01
  -9.633861e+01  -2.625622e+02
  -1.311676e+01  -3.252857e+02
   2.523620e+02  -2.202607e+02
   2.815981e+02   8.409419e+01
   2.824828e+02   2.739926e+02
   8.639237e+01   2.673255e+02
  -1.050061e+02   1.539591e+02
  -1.730374e+02   5.475199e+01
  -2.079181e+01  -6.344592e+00
   6.655689e+01   7.260004e+01
  -4.720378e+01   1.040334e+02
  -1.383641e+02   8.650741e+01
  -6.588345e+01  -1.846325e+01
  -4.872638e+01  -5.500549e+01
   8.434192e+01   2.575922e+01
   3.618202e+01   1.253556e+02
  -1.093233e+02   7.444121e+01
  -2.423344e+02  -4.284469e+01
  -2.745811e+02  -1.652118e+02
  -3.091320e+01  -2.390282e+02
   1.799566e+02  -2.166175e+02
   2.724740e+02  -1.252152e+02
   1.236276e+02   1.445684e+01
  -8.104094e+00   9.241701e+01
  -7.400058e+01  -2.231909e+00
   6.845466e+01  -9.417761e+01
   2.151041e+02  -8.599092e+01
   2.068316e+02   8.642481e+01
  -6.340353e-01   2.037002e+02
  -6.628638e+01   1.608292e+02
  -1.454950e+02   1.979924e+01
  -9.427420e+01   8.587228e+00
   5.535514e+00   9.825108e+00
   4.076087e+01   7.329879e+01
  -7.491828e+01   1.380118e+02
  -2.197117e+02  -2.316528e+01
  -1.711549e+02  -1.292218e+02
  -1.712212e+01  -2.455905e+02
   9.255935e+01  -1.455903e+02
   2.087133e+02   1.260248e+01
   1.009452e+02   4.882981e+01
  -9.246337e+01   1.038298e+02
  -7.454553e+01   1.118891e+01
  -8.757803e+00   4.857710e+01
   8.930402e+01  -7.369164e+00
   4.665669e+01   1.769294e+01
  -1.500594e+02  -6.956329e+01
  -1.232970e+02  -9.426803e+01
  -3.258250e+01  -1.858345e+02
   1.325140e+02  -1.306128e+02
   2.510311e+02  -5.960175e+00
   2.375257e+02   1.444679e+02
   2.589796e+01   2.516311e+02
  -1.372958e+02   1.233048e+02
  -1.648354e+02   8.176309e+00
  -2.143898e+01  -4.272166e+01
  -3.784964e+01  -1.764916e+00
  -7.719718e+01   6.817937e+01
  -5.938434e+01   6.505651e+01
  -5.736904e+01  -5.195735e+01
   7.973214e+01  -1.051083e+02
   1.283496e+02  -8.851979e+01
   8.603901e+01   7.438964e+01
  -2.932549e+01   1.061818e+02
  -1.581110e+02   6.877360e+01
  -2.130087e+02  -1.283912e+01
  -7.945913e+01  -2.731836e+02
   1.186564e+02  -1.984599e+02
   2.436504e+02  -9.103657e+01
   2.156110e+02   1.059881e+02
   1.097734e+02   1.809464e+02
  -2.210456e+01   1.453020e+02
  -1.174683e+02   9.529002e+01
  -1.848829e+01   4.830011e+01
  -1.198142e+02   1.452318e+02
  -1.201496e+02   3.238974e+01
  -1.526834e+02  -5.267067e+01
  -1.232890e+02  -1.496293e+02
   5.185847e+00  -2.122853e+02
   1.196054e+02  -1.388910e+02
   1.797446e+02  -4.788319e+00
   1.013701e+02   1.044988e+02
   4.713186e+01   1.353656e+02
  -8.175152e+01   5.929043e+01
  -1.044379e+02  -2.590666e+01
  -2.947288e+01  -2.541261e+01
   1.042653e+01  -3.228877e+01
   8.950100e+00   2.920632e+01
  -7.274335e+01   1.709775e+00
  -3.062818e+01  -8.516270e+01
   4.310738e+01  -3.670872e+01
   2.044335e+02  -8.644890e+00
   1.156942e+02   3.272232e+01
  -3.717418e+01   7.545334e+01
  -1.402251e+02   7.280005e+01
  -1.911930e+02  -2.243494e+00
  -3.307691e+01  -5.858790e+01
   2.492669e+01  -2.127003e+01
   4.340604e+01   1.942512e+01
  -8.227952e+00   2.470668e+01
  -3.943799e+01   9.690162e+01
  -7.374313e+01  -1.512334e+01
  -3.493815e+01  -8.939775e+01
  -1.004919e+02  -6.131932e+01
  -6.829908e+01  -1.769916e+01
  -8.199515e+01  -2.324183e+01
  -1.469007e+01  -6.806910e+01
   2.956154e+01  -1.658983e+02
   1.341156e+02  -1.648450e+02
   2.084483e+02  -1.527033e+01
   1.471836e+02   7.377926e+01
  -3.009903e+01   1.323608e+02
  -6.153945e+01   9.311988e+01
  -3.526053e+01  -2.937994e+01
   3.952191e+01  -1.142818e+01
   1.356336e+02   2.633038e+01
   1.137236e+01   9.776984e+01
  -6.418591e+01   1.258057e+02
  -1.732797e+02   6.257266e+01
  -1.397285e+02  -4.065044e+01
   1.073915e+01  -1.165005e+02
   7.764350e+01  -6.934322e+01
   5.122211e+01  -4.392295e+01
   2.795665e+01  -8.895730e-01
  -6.647988e+01  -3.726636e+01
  -4.429362e+01  -9.116649e+01
   9.578261e+01  -1.352800e+02
   1.537016e+02  -1.155239e+02
   1.654310e+02   8.307726e+01
   9.863821e+00   1.756343e+02
  -4.972470e+01   1.725465e+02
  -1.016037e+02   3.433742e+01
  -3.865825e+01  -1.041176e+02
   2.429133e+01  -7.955526e+01
   3.557532e+01   2.917415e+01
  -1.210900e+01   5.186312e+01
  -2.271126e+00  -1.422437e+01
  -1.847523e+01  -7.490387e+01
   9.936284e+00  -2.322063e+01
   6.464601e+01   7.357778e+01
   9.451592e+01   1.079795e+02
  -3.827979e+01   4.354853e+01
  -8.234307e+01  -4.935339e+01
  -7.451233e+01  -5.024244e+01
  -4.215386e+00   5.344452e+00
   1.298623e+02  -1.482735e+00
   9.526311e+01  -2.824637e+00
   2.400751e+00   1.479186e+01
  -2.262780e+01  -6.261016e+00
   4.081332e+00  -3.435787e+01
  -1.994574e+01   1.992717e+01
  -4.865151e+01   2.064621e+01
  -4.576876e+01  -1.627777e+01
  -2.020450e+00   4.854522e-01
   3.306173e+00  -8.791994e+01
   1.055354e+02  -1.297794e+02
   1.565159e+02  -7.294485e+01
   1.287874e+02   4.014190e+01
   5.041021e+01   1.536930e+02
  -3.640951e+01   1.968146e+02
  -5.537474e+01   9.720121e+01
  -3.608509e+01  -2.890822e+01
  -4.295730e+01  -1.624590e+01
   3.178335e+01  -2.106019e+01
   3.534490e+01  -2.552256e+01
   1.543760e+01  -2.135562e+01
  -1.736859e+01  -4.118971e+01
   4.663392e+01  -6.657115e+01
   8.044138e+01  -2.907813e+01
   9.552485e+01   1.497366e+02
   2.780968e+01   1.272396e+02
  -7.781243e+01   1.628052e+00
  -1.012017e+02  -1.005096e+02
  -5.279479e+01  -1.482793e+02
   5.363777e+01  -3.589103e+01
   6.165335e+01   2.905966e+01
  -1.909869e+01   7.862536e+01
  -1.839500e+01   5.965116e+01
  -6.456357e+01   7.272064e+01
   4.141817e+01  -5.342628e+00
   8.083943e+01  -2.577624e+00
  -3.222278e+01   5.131272e+01
  -9.994284e+01  -2.963495e-01
  -1.273414e+02   2.975645e+01
  -7.344433e+01  -3.424134e+01
  -9.380195e+00  -8.565485e+01
   6.668904e+01  -7.597544e+01
   9.117801e+01  -5.938753e+01
   2.772953e+01   2.863947e+01
  -7.374167e+01   1.304486e+01
  -2.232489e+01   4.952129e+01
  -1.850598e+01  -4.393187e+01
   2.040225e+01  -2.672042e+01
   2.920554e+01   4.565506e+01
   7.778411e+01   2.207026e+00
   6.482604e+01  -6.680025e+00
  -4.112383e+01  -6.359223e+01
   1.736373e+01  -2.912311e+01
   5.321997e+01   9.189439e+01
  -2.510679e+01   4.291393e+01
  -1.797064e+01   2.730664e+01
  -3.056396e+00  -9.323553e+00
  -2.798700e+01  -2.740421e+01
   2.436458e+01  -3.592351e+01
   5.742675e+01   3.114022e+01
  -3.581597e+01   5.325035e+01
  -4.515711e+01   5.208755e+01
  -1.021457e+02   4.195849e+01
  -5.637880e+01  -2.350138e+01
  -2.547014e+01  -1.609993e+01
   4.960245e+01  -2.956635e+01
  -9.401578e+00  -2.045257e+00
   3.401225e+01  -3.107978e+00
  -7.565206e+01  -1.188614e+01
   4.723066e+01  -1.114731e+01
   1.087189e+02  -2.581002e+00
