
 $NMID
 id='ANONYMOUS ', fmtdat='(2E16.6)'
 volume=1.0
 tramp=1.0
 $END
   3.909683e+03  -3.256377e+01
   2.472498e+03   2.111430e+03
  -3.538159e+02   2.437083e+03
  -1.708209e+03   1.157159e+03
  -1.039546e+03  -1.560879e+02
   2.396074e+02  -4.212206e+02
   5.977958e+02   2.817776e+02
   2.091124e-01   8.628627e+02
  -6.357338e+02   7.156603e+02
  -7.844988e+02   4.260142e+01
  -4.569849e+02  -6.953709e+02
   6.291084e+01  -7.882314e+02
   4.980762e+02  -2.196941e+02
   3.702261e+02   6.155158e+02
  -2.180601e+02   6.455407e+02
  -5.037278e+02   7.119730e+01
  -3.054826e+02  -5.807502e+02
   2.808682e+02  -7.243255e+02
   6.032618e+02  -1.580464e+02
   4.826770e+02   2.675522e+02
   8.866735e+01   4.135239e+02
  -2.201058e+02   2.580780e+02
  -9.041363e+01   4.273657e+01
   1.103251e+02   1.068113e+01
   3.112228e+02   1.699628e+02
   6.058073e+01   4.399194e+02
  -4.912114e+02   2.456154e+02
  -7.038165e+02  -1.410054e+02
  -3.348596e+02  -4.485892e+02
   3.328454e+02  -3.674868e+02
   6.468212e+02   7.805915e+01
   2.914229e+02   4.622442e+02
  -2.843622e+02   4.304520e+02
  -5.606214e+02   1.181462e+02
  -3.691410e+02  -1.727749e+02
  -5.600186e+01  -3.851186e+02
   1.003443e+02  -2.973839e+02
   8.467672e+01   1.499665e+02
  -1.719148e+02   2.894293e+02
  -3.292154e+02  -9.316637e+01
  -1.417260e+02  -5.636072e+02
   2.657992e+02  -5.692166e+02
   5.139842e+02  -3.934015e+01
   1.622716e+02   4.351581e+02
  -2.090135e+02   2.178562e+02
  -3.470917e+02  -2.941856e+02
   4.420299e+01  -4.607687e+02
   4.834503e+02  -1.559505e+02
   5.839669e+02   3.724486e+02
   1.531755e+02   4.884160e+02
  -3.299039e+02   3.319785e+02
  -6.248510e+02  -2.878848e+01
  -3.836888e+02  -3.789484e+02
   7.544627e+01  -2.762702e+02
   3.850874e+02  -7.485675e+01
   2.540316e+02   1.401201e+02
  -5.539166e+01   7.870024e+01
  -1.108553e+02  -1.070792e+02
   1.095605e+02  -6.056366e+01
   3.167179e+02   9.788286e+01
   1.437086e+02   2.755705e+02
  -1.980989e+02   2.635285e+02
  -3.407421e+02   1.277116e+02
  -1.984327e+02  -1.019889e+02
  -3.838848e+00  -2.894994e+02
   2.843744e+02  -3.696710e+02
   3.177902e+02  -1.504875e+02
   2.546056e+02   1.129513e+02
   1.004798e+02   4.089065e+02
  -6.077827e+01   3.818467e+02
  -7.712352e+01   1.774780e+02
  -3.374075e+01   7.489379e+01
  -1.148828e+02   1.238488e+02
  -1.954086e+02   7.388698e+01
  -2.817989e+02  -1.066452e+02
  -1.110559e+02  -2.857861e+02
   1.049954e+02  -2.532807e+02
   2.366879e+02   2.242841e+01
   1.639983e+02   2.382833e+02
   3.553045e+01   2.890852e+02
  -2.664058e+02   6.497088e+01
  -3.549635e+02  -1.123098e+02
  -2.015431e+02  -3.432237e+02
   8.142453e+01  -3.218056e+02
   2.108196e+02  -1.108377e+02
   1.496632e+02   2.281536e+01
   1.178704e+02  -3.491492e+01
   2.596555e+02  -3.118535e+01
   3.964715e+02   4.235884e+01
   2.912290e+02   2.893827e+02
  -5.032843e+01   4.851027e+02
  -3.419696e+02   4.060259e+02
  -4.479973e+02   1.911418e+02
  -2.790000e+02  -7.044775e+01
  -2.465454e+01  -2.846240e+02
   9.050806e+01  -2.642568e+02
   3.622335e+01  -4.979093e+01
  -1.462109e+02   1.411241e+02
  -1.656737e+02  -4.383016e+01
  -2.884263e+01  -1.620287e+02
   1.435464e+02  -1.384681e+02
   1.354716e+02   7.306128e+01
  -7.518347e+01   1.654371e+02
  -1.593717e+02  -2.163025e+01
  -1.841241e+02  -2.471741e+02
   2.867249e+01  -3.799891e+02
   2.701067e+02  -2.312645e+02
   3.572437e+02   9.912609e+01
   2.743866e+02   2.935269e+02
   8.186741e+01   2.644987e+02
  -1.426234e+02   2.105381e+02
  -2.241439e+02  -1.056948e+01
  -7.349499e+01  -9.751207e+00
   8.549143e+01   9.650272e+01
   3.117892e+01   1.440777e+02
  -1.356391e+02   9.085638e+01
  -1.881575e+02   9.678788e-01
   2.282670e+01  -1.294305e+02
   8.725783e+01  -1.493845e+01
   6.741497e+01   8.799718e+01
  -1.499313e+02   7.828165e+01
  -2.827290e+02  -1.372649e+01
  -2.610622e+02  -1.359574e+02
  -9.465679e+01  -2.825970e+02
   2.085705e+02  -2.505202e+02
   3.843715e+02  -7.961677e+01
   1.705430e+02   7.339182e+01
  -4.893980e+01   1.482747e+02
  -4.964204e+01  -1.055027e+01
   4.446002e+01  -9.091786e+01
   1.378816e+02  -5.123648e+01
   1.958878e+02   7.875267e+01
   7.468378e+01   2.583602e+02
  -1.017477e+02   1.711845e+02
  -1.458002e+02   1.768706e+01
  -7.278724e+01  -4.519782e+01
   7.434824e+01   6.058562e+01
   2.122792e+00   1.113174e+02
  -4.187926e+01   1.447172e+02
  -1.994661e+02   3.800897e+00
  -1.998703e+02  -1.166225e+02
   1.826711e+01  -2.423567e+02
   1.441670e+02  -1.499950e+02
   2.135058e+02  -1.209755e+01
   8.394918e+01   1.463805e+02
  -4.114953e+01   1.259069e+02
  -1.711801e+02  -2.764786e+00
  -4.669232e+01  -5.144795e+01
   3.913121e+01  -4.667579e+00
  -4.352165e+01   2.908429e+01
  -8.578158e+01   2.557995e+01
  -9.040966e+01  -1.085962e+02
  -2.506748e+01  -1.687312e+02
   1.346782e+02  -1.587203e+02
   2.569264e+02  -3.010052e+01
   2.256403e+02   1.755129e+02
   2.815066e+01   1.920370e+02
  -8.529596e+01   2.013551e+02
  -9.516958e+01  -1.722763e+01
  -1.125791e+02  -1.035627e+02
  -3.554004e+01  -4.125648e+01
  -8.723340e+01   7.070801e+01
  -1.223010e+02   1.081187e+01
  -5.758231e+01  -5.614991e+01
  -2.746279e+01  -1.098553e+02
   1.731553e+02  -6.859678e+01
   1.409131e+02   4.699025e+01
  -8.283973e+00   1.301724e+02
  -1.590843e+02   6.996729e+01
  -2.304864e+02  -1.822921e+01
  -8.725057e+01  -2.591830e+02
   1.741528e+02  -2.260044e+02
   2.232234e+02  -1.195712e+02
   3.043622e+02   7.921736e+01
   9.148896e+01   1.506931e+02
  -1.719427e+01   1.783293e+02
  -1.375678e+02   4.921739e+01
  -6.146219e+01   8.980722e+01
  -8.792425e+01   8.832925e+01
  -9.593778e+01   9.204115e+01
  -1.387940e+02   3.027313e+01
  -1.130145e+02  -1.510602e+02
  -6.041611e+01  -2.308925e+02
   1.410956e+02  -1.963648e+02
   1.967422e+02   9.651287e+00
   1.066717e+02   1.636251e+02
  -2.431381e+01   1.608403e+02
  -8.974888e+01   8.482343e+01
  -5.167860e+01  -3.016423e+01
   9.006065e+00  -6.468527e+01
   1.673239e+01  -8.456021e+01
  -6.948887e+01  -5.103797e+01
  -7.674334e+01  -2.463264e+01
  -1.172203e+02  -4.667853e+01
   5.907710e+01  -3.753812e+01
   2.077145e+02  -4.868176e+00
   1.310333e+02   6.172175e+01
   1.910516e+00   9.429516e+01
  -1.382175e+02   1.294137e+02
  -1.762834e+02   1.955235e+01
  -6.887194e+01  -6.480210e+01
   5.253969e+01  -6.204984e+01
   1.139883e+02   2.019256e+00
   2.376946e+01   5.696442e+01
  -1.088178e+01   6.306000e+01
  -3.969129e+01  -1.650045e+01
  -3.139124e+01  -2.390799e+01
  -6.557359e-01  -4.251404e+01
  -5.878878e+01   1.123086e+01
  -1.054343e+02   3.935082e+00
  -1.234601e+01  -6.188000e+01
   3.689079e+01  -1.238646e+02
   1.258929e+02  -1.354284e+02
   2.117231e+02  -5.015446e+01
   1.356057e+02   8.141689e+01
  -1.863225e+01   1.280088e+02
  -7.666170e+01   5.385101e+01
  -8.097915e+01   3.531805e+01
   6.792498e+01   9.673418e+00
   1.757149e+02   6.239268e+01
   7.138064e+01   1.215516e+02
  -8.526920e+01   1.325130e+02
  -2.022577e+02   6.294617e+01
  -1.981485e+02   1.512141e+01
  -7.414565e+01  -8.030336e+01
   1.084536e+02  -9.706475e+01
   7.485556e+01   2.331160e+01
  -1.054841e+01   3.560649e+01
  -1.390382e+02  -1.690466e+01
  -4.442934e+01  -9.785566e+01
   1.433745e+02  -1.825104e+02
   1.549850e+02  -8.488041e+01
   2.023167e+02   1.686327e+02
   5.191616e+01   2.349245e+02
  -5.717408e+01   1.328906e+02
  -1.343250e+02  -1.689908e+01
  -6.846069e+01  -1.169501e+02
   1.173492e+01  -8.691066e+01
   9.293463e+01   2.624677e+01
   4.322110e+01   3.204574e+01
  -1.905203e+01  -6.420331e+01
   4.062317e+00  -1.180058e+01
   3.052524e+01  -2.631821e+00
   4.250704e+01   8.692198e+01
   6.896927e+00   1.481580e+02
  -1.317676e+02   1.027328e+02
  -1.509598e+02  -4.843475e+01
  -9.122208e+01  -6.736018e+01
  -4.450671e+01  -1.090293e+01
   1.036302e+02  -1.586921e+01
   1.062294e+02  -4.999469e+01
   4.477769e+01   2.369870e+01
  -4.789975e+01  -1.317405e+01
   1.170900e+00  -4.911816e+01
   2.382482e+01  -1.387088e+01
  -3.538508e+01  -6.416949e+01
  -9.226263e+01  -2.259901e+01
  -1.323619e+02  -3.813234e+01
   4.984952e+01  -8.208464e+01
   1.394228e+02  -1.235352e+02
   2.160708e+02  -7.790487e+01
   1.548116e+02   9.835010e+01
   4.283177e+01   1.302166e+02
  -9.835187e+01   1.189060e+02
  -1.250680e+02   1.108567e+02
  -7.779403e+01  -5.098930e+01
   3.163258e+01  -2.529578e+01
   8.149249e+00  -8.262153e+01
  -6.865633e+00  -3.607980e+01
  -3.975178e+01  -6.479406e+01
  -4.611309e+00  -1.502029e+02
   1.124983e+01  -5.686825e+01
   7.967214e+01  -4.193015e+00
   4.884767e+01   6.806467e+01
  -6.367618e+00   8.631770e+01
  -1.102848e+02   1.723258e+01
  -1.191889e+02  -6.346732e+00
  -2.883962e+01  -9.031328e+01
   1.095034e+02  -7.330602e+01
   9.360505e+01   4.972356e+00
   7.296439e+01   7.924941e+01
  -2.878572e+01   5.366407e+01
  -6.225109e+01   4.945383e+01
  -3.381673e+01  -2.445173e+01
   6.929664e+01   1.253877e+01
  -1.696701e+01  -3.333266e+01
  -6.566861e+01   4.653342e+01
  -1.622618e+02   7.327278e+01
  -6.663272e+01  -1.258204e+01
  -4.441218e+01  -1.009593e+02
   3.278515e+01  -8.999092e+01
   3.054940e+01   1.082175e+01
   1.589253e+01   1.270920e+01
  -6.830057e+01   2.367664e+01
   1.087518e+01  -1.650351e+01
  -4.238685e+01  -4.991980e+01
   6.349906e+01  -7.682418e+01
   2.731335e+01   2.546549e+01
   5.963109e+01   7.636567e+01
   5.481935e+01   1.172771e+01
  -2.251989e+01  -3.625147e+01
  -4.728313e+01  -4.359273e+01
   1.292136e+01   2.257091e+01
  -1.172417e+01   1.028313e+02
  -2.948291e+01   1.068265e+01
  -7.816209e+01  -5.159471e+01
   6.763184e+00  -2.122275e+01
   4.252959e+01  -3.674541e+01
   4.003965e+01   3.806946e+01
   2.470364e+01   3.538920e+01
  -3.718748e+01   3.916338e+01
  -1.050590e+02  -3.627641e+01
   7.248133e+00  -3.416286e+01
   6.310370e+00  -6.955471e+01
   2.366053e+01   1.654119e+01
  -2.013622e+00  -2.599571e+01
  -5.153532e+01   1.780030e+01
  -1.983336e+01  -1.167977e+01
   3.496214e+01  -6.264592e+01
   8.713481e+01  -2.954025e+01
