
 $NMID
 id='ANONYMOUS ', fmtdat='(2E16.6)'
 volume=1.0
 tramp=1.0
 $END
  -4.535546e+03   2.380247e+01
  -2.643179e+03  -2.803392e+03
   8.055969e+02  -2.895220e+03
   2.261088e+03  -8.676512e+02
   9.933046e+02   7.062468e+02
  -7.410829e+02   5.797631e+02
  -9.391891e+02  -4.630982e+02
  -2.073867e+01  -1.185645e+03
   8.441705e+02  -8.275522e+02
   1.006763e+03   1.223791e+02
   4.644020e+02   9.537264e+02
  -2.674884e+02   9.441507e+02
  -6.932595e+02   1.482894e+02
  -3.705796e+02  -7.753395e+02
   3.696324e+02  -7.752444e+02
   6.778790e+02   2.215544e+01
   2.985706e+02   6.924044e+02
  -3.518545e+02   6.492109e+02
  -6.002739e+02   4.703671e+01
  -3.769017e+02  -3.367373e+02
  -3.182708e+01  -4.853113e+02
   2.643713e+02  -3.324677e+02
   2.009454e+02   4.797043e+00
  -1.823786e+02   7.090805e+01
  -3.811251e+02  -4.993724e+01
  -2.860521e+02  -4.405450e+02
   4.407654e+02  -4.355283e+02
   8.774249e+02   1.201941e+02
   4.942043e+02   6.015846e+02
  -4.143566e+02   4.877020e+02
  -7.357451e+02  -6.246964e+01
  -3.437624e+02  -4.766249e+02
   2.636025e+02  -5.165386e+02
   5.823807e+02  -2.237444e+02
   4.309253e+02   2.303131e+02
   6.857420e+01   5.258969e+02
  -1.901880e+02   3.313212e+02
  -2.052213e+02  -2.406036e+02
   1.498884e+02  -4.960558e+02
   4.375752e+02   2.370751e+01
   2.672458e+02   7.540074e+02
  -3.111864e+02   7.245347e+02
  -6.644668e+02   9.779714e+01
  -2.942175e+02  -6.014591e+02
   2.781559e+02  -4.095975e+02
   3.975940e+02   3.225556e+02
  -7.894621e+01   5.487617e+02
  -5.348397e+02   1.457955e+02
  -6.075637e+02  -3.969023e+02
  -1.676328e+02  -5.723474e+02
   3.930794e+02  -3.259611e+02
   6.745218e+02   5.689156e+01
   4.113539e+02   4.395431e+02
  -1.283527e+02   3.861220e+02
  -5.001633e+02   5.607387e+01
  -2.724427e+02  -1.747233e+02
   7.936962e+01  -1.334569e+02
   7.700345e+01   1.820957e+02
  -1.545175e+02   2.027865e+02
  -3.932148e+02  -5.021520e+00
  -1.141644e+02  -2.712810e+02
   2.699606e+02  -2.765038e+02
   3.624519e+02  -1.215615e+02
   1.983166e+02   9.863853e+01
  -5.874438e+01   2.198608e+02
  -2.098554e+02   3.334293e+02
  -2.906647e+02   2.123494e+02
  -2.722902e+02  -1.257735e+02
  -6.531301e+01  -4.519534e+02
   1.396747e+02  -4.407522e+02
   1.330570e+02  -1.216968e+02
   3.972045e+01   9.915678e+00
   6.948361e+01  -5.569616e+01
   1.923559e+02  -1.739299e+02
   3.260932e+02   8.123561e+01
   1.778064e+02   2.592852e+02
  -6.943243e+01   2.817774e+02
  -2.760241e+02   8.236323e+01
  -2.062020e+02  -1.983653e+02
   2.820339e+01  -3.714183e+02
   2.238926e+02  -1.644642e+02
   3.810988e+02   1.683848e+02
   1.684172e+02   3.172551e+02
  -9.560372e+01   2.953446e+02
  -2.306753e+02   1.371191e+02
  -1.647059e+02  -6.304403e+00
  -1.150805e+02   5.576575e+01
  -1.659927e+02   2.616244e+01
  -3.848291e+02  -1.140375e+01
  -2.769085e+02  -2.617745e+02
   3.400612e+00  -4.214583e+02
   3.491715e+02  -4.929761e+02
   4.505805e+02  -2.105541e+02
   4.203825e+02   1.433115e+02
   5.769568e+01   2.621278e+02
  -1.175302e+02   2.738677e+02
  -1.298360e+02  -2.944074e+01
   7.975452e+01  -1.667651e+02
   2.050701e+02   1.877104e+01
   7.834959e+01   2.031922e+02
  -2.083803e+02   1.827232e+02
  -2.137810e+02  -5.536069e+01
   4.252725e+01  -2.413686e+02
   1.937386e+02  -4.898854e+01
   1.610949e+02   2.867198e+02
  -5.823477e+01   3.215851e+02
  -1.827417e+02   1.961620e+02
  -3.035793e+02  -5.917531e+01
  -2.551302e+02  -2.525560e+02
  -9.421808e+01  -2.855062e+02
   1.363032e+02  -1.413153e+02
   1.540305e+02  -4.127122e+01
   1.316489e+02  -3.484991e-01
  -3.594973e+01  -5.147316e+01
  -4.195852e+00  -9.776013e+01
   1.055567e+02  -1.412990e+02
   2.020339e+02   4.572414e+01
   7.663258e+01   9.519723e+01
  -9.739593e+01   2.960449e+01
  -8.321482e+01  -1.099689e+02
   1.334484e+02  -1.513670e+02
   3.076840e+02   4.069368e+00
   2.927165e+02   7.283437e+01
   6.551163e+01   2.895434e+02
  -1.459573e+02   2.976949e+02
  -2.799601e+02   1.224164e+02
  -1.419434e+02  -7.034375e+01
   3.912319e+01  -1.509862e+02
   1.164446e+02   2.167984e+01
  -1.187372e+01   1.076126e+02
  -1.813761e+02   7.000600e+01
  -1.910314e+02  -1.095454e+02
  -9.027396e+01  -2.593836e+02
   1.016676e+02  -2.057182e+02
   2.008812e+02  -2.651502e+01
   3.715112e+01  -3.467395e+00
  -8.315526e+01  -1.677202e+01
  -2.016191e+01  -7.344822e+01
   3.737601e+01  -1.054033e+02
   2.063081e+02  -1.961146e+01
   1.625172e+02   1.527991e+02
   4.049713e+01   2.281998e+02
  -1.867547e+02   1.378257e+02
  -2.364806e+02   4.132056e+01
  -3.826637e+01  -1.444894e+02
   6.145863e+01  -1.194920e+02
   9.919568e+01  -5.799534e+01
   4.845088e+01   2.771708e+01
  -2.023201e+01   3.505035e+00
  -2.094608e+01   8.300783e+00
   3.315187e+01   5.243810e+01
   1.460845e+02   4.702659e+01
   1.984761e+01   1.564221e+02
  -1.157063e+02   6.906529e+01
  -2.212218e+02  -1.365928e+01
  -2.629789e+02  -1.876504e+02
  -6.104347e+01  -2.873231e+02
   1.130946e+02  -2.184266e+02
   1.426103e+02  -9.738814e+01
   3.050792e+01   5.191270e+01
   1.028093e+01   1.082991e+02
   1.465141e+01  -1.542072e+00
   6.851928e+01  -3.109550e+01
   2.603790e+00   9.903999e+01
  -7.734364e+01   3.995394e+01
  -3.937819e+01   1.245368e+02
  -1.162326e+02  -8.312890e+01
  -4.115845e+01  -5.352942e+01
   1.655855e+02  -6.974946e+01
   1.839643e+02   8.276687e+01
   1.422558e+02   2.408924e+02
  -7.095515e+01   2.076285e+02
  -2.642740e+02   1.029285e+02
  -2.862403e+02  -1.146133e+02
  -9.614605e+01  -1.517493e+02
   6.033374e+01  -1.681913e+02
   1.364763e+02  -1.299587e+02
   1.092146e+02  -7.884852e+01
   5.873933e+01  -7.536813e+01
   1.164964e+02  -2.972161e+01
   8.543271e+01   2.421558e+01
   1.179139e+02   1.457832e+02
   7.050991e+01   2.182290e+02
  -8.637646e+01   1.917121e+02
  -1.726792e+02   3.480079e+01
  -1.317804e+02  -1.266837e+02
  -3.935669e+00  -1.245386e+02
   5.679686e+01  -6.454494e+01
   3.378285e+01  -9.857322e+00
  -8.671930e+00   6.687992e+01
  -1.886425e+01   3.153693e+01
   5.967771e+01   2.753901e+01
   1.548314e+01   4.589368e+01
   2.768217e+01   4.236474e+01
  -4.612989e+01   8.091851e+01
  -1.893991e+02   3.356782e+00
  -1.229049e+02  -3.865371e+01
   2.035618e+00  -9.174543e+01
   1.058349e+02  -1.232102e+02
   1.044061e+02  -8.059297e+01
   6.070193e+01   5.575612e+01
  -8.725637e+01   1.303296e+01
  -7.678329e+01  -3.087115e+01
   4.177987e+00  -6.332587e+01
   5.398779e+01  -3.636442e+01
   4.863446e+01   2.584079e+01
   4.808246e+01   4.142258e+01
   3.014295e+01   1.833877e+01
   3.172907e+01   2.465670e+01
   8.344765e+01   1.058636e+01
   4.257155e+01   4.444547e+01
  -5.390666e+01   1.444990e+02
  -7.327818e+01   1.811853e+02
  -1.716502e+02   5.197933e+01
  -9.156359e+01  -1.337185e+02
   1.253939e+01  -1.493175e+02
   5.873512e+01  -6.812656e+01
   6.247453e+01  -3.147659e+01
  -5.388826e+01   1.481956e+00
  -1.733260e+02  -6.145344e+01
  -8.365570e+01  -7.649101e+01
   1.262861e+02  -8.875505e+01
   1.534540e+02  -8.072796e+01
   1.236375e+02   3.732312e+01
   3.722933e+01   9.922745e+01
  -5.150121e+01   5.173851e+01
  -7.616316e+01   3.477137e+01
   1.003300e+02  -4.413459e+01
   8.514191e+01  -4.720121e+00
   6.739352e+01   8.628200e+01
  -7.995060e+01   1.661960e+02
  -1.735845e+02   2.702200e+01
  -1.354931e+02  -7.949722e+01
   8.261033e+00  -1.843846e+02
   6.142321e+01  -1.806038e+02
   1.124138e+02   5.280325e+00
   9.229804e+01   1.469176e+02
  -3.562143e+01   6.125526e+01
  -4.178499e+01   1.914169e+01
  -4.666276e+01  -6.930569e+00
  -2.988237e+01  -1.055819e+01
  -1.652623e+01   2.514303e+01
  -3.096663e+01   2.111013e+01
  -1.156692e+02  -8.223957e+01
  -1.258539e+01  -8.480008e+01
   8.960705e+01  -4.855604e+00
   1.042588e+02   7.154361e+01
   1.460000e+02   1.096857e+02
   4.098553e+01   3.439886e+01
  -5.834425e+01   4.737366e+01
  -4.424060e+01  -2.998550e+01
  -3.531250e+01  -2.206593e+01
   7.850238e+00   3.169892e+01
   6.126993e+01  -2.963862e+01
  -1.831899e+01  -1.553285e+01
   2.068231e+01   3.022281e+01
   8.025513e+01   2.893271e+00
   1.170803e+02   4.559156e+01
  -4.000480e+00   4.347199e+01
  -1.887102e+02   1.335613e+02
  -1.772754e+02   4.924853e+01
  -1.368912e+02  -1.070459e+02
  -3.686660e+01  -1.044187e+02
   8.361198e+01  -1.634435e+02
   1.306467e+02  -6.341571e+01
   2.271944e+01   4.050630e+01
   9.992032e+00   1.232980e+01
   2.292289e+01  -5.663506e+01
  -5.950301e+00  -2.730808e+01
   7.741021e+01   8.436193e+01
  -2.512124e+01   8.203265e+01
  -9.789679e+01   7.445929e+01
  -8.367785e+01  -6.744517e+01
  -3.761627e+01  -8.224996e+01
   2.765074e+01  -1.017387e+02
   4.171265e+01  -1.371480e+01
   7.375551e+01   1.028552e+02
   2.242987e+01   1.006173e+02
  -5.158931e+01   2.600431e+01
  -5.787683e+01   9.219434e+00
  -2.460544e+01  -4.580256e+01
   8.633899e+01  -8.901938e+01
   4.754340e+01  -4.711633e+01
   1.489520e+01   1.856332e+01
  -9.279219e+01   2.819158e+01
  -8.366353e+01  -2.345458e+01
   7.821721e+01  -4.621786e+01
   1.020509e+02  -9.165334e+01
   3.263931e+01  -4.976655e+01
  -3.917578e+01   2.813359e+01
  -7.960692e+01   4.359511e+01
  -4.157458e+01   6.474973e+00
   3.658522e+01  -7.667423e+01
   2.287071e+01  -7.482938e+01
   9.393050e+01  -7.402278e+01
   7.422757e+01   8.310953e+01
  -3.373076e+01   4.317866e+01
  -1.340891e+01   3.937947e+01
  -6.180277e+01  -5.793799e+01
   4.820634e+01   4.171444e+01
   6.092977e+01   4.537470e+01
   2.401736e+01  -4.099275e+01
  -5.100725e+01  -2.926104e+01
   2.024924e+00  -8.091201e+01
   1.459999e+01   8.140582e+01
   4.840244e+01   5.916127e+01
  -4.756743e-01   5.935114e+01
  -1.039489e+02   1.708848e+01
  -7.545483e+01  -6.981813e+01
   3.243977e+01  -4.325778e+01
   5.615781e+01  -7.730173e+00
   9.606290e+01   8.394055e+01
   1.764386e+01   6.179209e+01
  -7.856536e+00   2.827787e+01
  -6.987623e+01  -3.879982e+01
  -6.871575e+01   5.068041e+00
   2.431382e+01   6.456305e+01
   1.081256e+02   2.777059e+01
  -5.920103e+01   4.142358e+01
  -1.137875e+02  -1.128457e+00
