
 $NMID
 id='ANONYMOUS ', fmtdat='(2E16.6)'
 volume=1.0
 tramp=1.0
 $END
  -3.511435e+03  -3.199432e+01
  -2.210144e+03  -1.836489e+03
   1.525829e+02  -2.181717e+03
   1.466579e+03  -1.133814e+03
   9.268498e+02  -1.585553e+01
  -1.513288e+02   3.023937e+02
  -5.586368e+02  -1.774128e+02
  -1.331548e+01  -6.400369e+02
   5.319175e+02  -6.052416e+02
   7.398243e+02  -1.147304e+02
   4.690916e+02   5.589002e+02
  -5.366791e+01   6.815572e+02
  -4.186268e+02   1.605397e+02
  -3.036314e+02  -4.578679e+02
   1.199124e+02  -5.719169e+02
   4.134982e+02  -7.603260e+01
   2.981707e+02   5.052142e+02
  -1.712249e+02   6.125430e+02
  -4.918445e+02   2.099798e+02
  -4.649336e+02  -1.963824e+02
  -9.762754e+01  -3.332891e+02
   1.749996e+02  -2.508122e+02
   8.626423e+01  -5.069195e+01
  -1.023271e+02  -2.292299e+01
  -3.241871e+02  -2.240411e+02
  -6.255862e+01  -3.244074e+02
   4.263964e+02  -2.146493e+02
   6.441913e+02   1.602306e+02
   2.938545e+02   4.376272e+02
  -3.859699e+02   2.927784e+02
  -4.819818e+02  -1.086986e+02
  -1.728808e+02  -3.383854e+02
   2.846838e+02  -3.678670e+02
   4.738847e+02  -1.391064e+02
   3.666941e+02   1.339293e+02
   1.384708e+02   3.328371e+02
  -4.138810e+01   1.964345e+02
  -1.157533e+01  -8.969279e+01
   1.573101e+02  -2.245553e+02
   2.634809e+02   1.199476e+02
   5.728504e+01   5.020449e+02
  -2.409581e+02   5.077376e+02
  -4.014250e+02  -2.026919e+01
  -1.804780e+02  -3.305977e+02
   1.520154e+02  -2.057037e+02
   2.243938e+02   2.553130e+02
  -8.038243e+01   4.602714e+02
  -4.540017e+02   9.000105e+01
  -5.208035e+02  -3.717927e+02
  -1.327395e+02  -5.304417e+02
   3.116447e+02  -3.315902e+02
   5.195680e+02   3.692676e+01
   3.100209e+02   2.939878e+02
  -9.225816e+01   2.532187e+02
  -2.852884e+02   8.155703e+01
  -2.272199e+02  -6.128015e+01
   2.036250e+01  -8.895686e+00
   6.334879e+01   5.804337e+01
  -1.246469e+02   1.495962e+02
  -2.598740e+02   4.854378e-01
  -1.429472e+02  -2.392749e+02
   1.890205e+02  -2.247516e+02
   3.400059e+02  -1.211388e+02
   2.658608e+02   8.027473e+01
  -7.595268e+01   3.257779e+02
  -2.131605e+02   3.633953e+02
  -3.788463e+02   2.109410e+02
  -2.565955e+02  -1.507786e+02
  -3.084032e+01  -3.933607e+02
   1.698027e+01  -2.866743e+02
   5.322348e+01  -1.370775e+02
  -1.155080e+00  -9.388964e+01
   9.671386e+01  -1.033940e+02
   2.398488e+02  -2.605634e+01
   2.926046e+02   9.124802e+01
   1.043697e+02   2.446035e+02
  -1.303523e+02   1.402867e+02
  -1.813163e+02  -2.149174e+01
  -1.510204e+02  -2.314438e+02
   4.027705e+01  -2.701884e+02
   2.006843e+02  -1.095859e+02
   2.544423e+02   2.179945e+02
   2.114143e+02   2.611490e+02
  -5.330862e+01   3.140915e+02
  -1.223017e+02   1.628011e+02
  -1.943157e+02   3.659879e+01
  -1.129609e+02   1.112389e+02
  -2.439672e+02   2.200134e+01
  -4.164034e+02  -1.384072e+02
  -3.454205e+02  -3.053019e+02
   3.484475e+01  -4.466189e+02
   3.855293e+02  -3.776143e+02
   4.366661e+02  -1.841962e+02
   2.872494e+02   1.453711e+02
  -4.996988e+01   2.730908e+02
  -9.796639e+01   2.231422e+02
  -4.764497e+00   6.931906e+01
   1.735257e+02  -3.610618e+01
   1.124846e+02   4.079541e+01
   2.948705e+01   1.375597e+02
  -1.153252e+02   1.345014e+02
  -1.219583e+02  -6.166335e+01
   3.445623e+01  -1.661583e+02
   1.814003e+02  -3.144174e+01
   1.705547e+02   2.275170e+02
  -6.598702e+01   3.516425e+02
  -2.347314e+02   2.207729e+02
  -3.841960e+02  -1.183912e+02
  -2.500333e+02  -2.074840e+02
  -6.695916e+01  -2.425974e+02
   1.060426e+02  -1.461839e+02
   1.775789e+02  -2.777654e+01
   5.332428e+01   1.009499e+01
  -2.239999e+00  -6.608533e+01
   9.167498e+00  -1.261942e+02
   9.648662e+01  -4.203177e+01
   1.699167e+02   1.913530e+01
  -8.300762e+00   3.922957e+01
  -7.961173e+01   6.543355e+01
  -3.941629e+01  -5.274966e+01
   8.416073e+01  -1.084816e+02
   2.902492e+02  -1.258992e+01
   2.225253e+02   2.038886e+02
   5.128596e+01   1.791857e+02
  -1.579750e+02   1.781088e+02
  -2.939534e+02   7.788010e+01
  -1.609245e+02  -4.329396e+01
   2.988763e+01  -5.503405e+01
   3.536841e+01   2.280441e+01
  -4.711882e+01   6.782610e+01
  -1.436990e+02   6.026986e+00
  -1.615021e+02  -1.302538e+02
  -5.783652e+01  -2.356383e+02
   1.114000e+02  -1.875112e+02
   1.761909e+02  -2.651073e+01
   4.748157e+01   9.287682e+00
  -3.687090e+01   1.385445e+01
  -7.289363e+00  -1.399707e+02
   7.384263e+01  -1.876300e+02
   1.903195e+02  -2.748970e+01
   1.756020e+02   1.226586e+02
  -1.537422e+01   2.000801e+02
  -1.916192e+02   1.843663e+02
  -1.986880e+02   1.095327e+01
  -7.896761e+01  -1.254606e+02
   8.816775e+01  -3.419794e+01
   6.220136e+01  -1.294673e+01
  -2.114007e+01  -2.240933e+01
  -5.615012e+01  -1.326386e+01
  -1.731781e+01  -3.600068e-01
   4.026196e+01  -3.967502e+01
   1.093666e+02   7.358466e+01
  -2.983559e+01   1.397620e+02
  -2.149090e+02   1.385862e+02
  -1.851972e+02  -8.879155e+00
  -2.006944e+02  -1.309793e+02
  -6.020957e+01  -2.390187e+02
   6.500313e+01  -1.363061e+02
   1.362287e+02  -2.558752e+01
   7.228724e+01   4.100789e+01
  -5.080245e+00   3.280352e+01
   5.838211e+01  -6.815503e+01
   8.362520e+01   6.792706e+00
   3.981077e+01   7.860703e+01
  -4.841651e+01   8.990085e+01
  -1.605259e+02   9.948353e+01
  -1.673685e+02  -4.552310e+01
  -8.320525e+00  -1.055661e+02
   1.517930e+02  -1.111378e+02
   1.698502e+02   9.268264e+01
   9.287555e+01   2.957027e+02
  -1.932626e+02   2.258383e+02
  -2.104252e+02   8.240143e+01
  -2.845641e+02  -1.437655e+02
  -8.828883e+01  -1.509786e+02
   8.359466e+01  -1.181544e+02
   1.045862e+02  -6.335558e+01
   5.296352e+01  -6.065083e+01
   7.277065e+01  -1.088505e+02
   9.377452e+01  -9.062053e+01
   1.351896e+02   3.091263e+01
   4.193120e+01   1.774708e+02
   1.956206e+01   1.924476e+02
  -1.242076e+02   1.412423e+02
  -1.488504e+02   4.283447e+01
  -1.447789e+02  -2.106715e+02
   9.080235e+00  -1.913535e+02
   1.244049e+02  -5.490986e+01
   2.410845e+01  -2.787005e+00
   3.387139e+00   4.267161e+00
  -2.394516e+01   4.672215e+01
   5.409139e+01  -4.405816e+01
   6.850088e+01  -5.697674e+01
   2.468333e+01   1.828566e+00
  -3.947114e+01   7.895198e+01
  -1.720728e+02   1.671074e+01
  -1.406657e+02  -7.352855e+01
   2.189094e+01  -1.340017e+02
   1.249973e+02  -6.097276e+01
   1.950342e+02  -2.269689e+01
   5.145361e+01   8.214827e+01
  -4.337218e+01   2.989767e+01
  -1.106006e+02  -8.225893e+00
  -1.128120e+01  -7.469200e+01
   7.765377e+00  -9.007357e+01
   1.041602e+02  -8.388610e+01
   1.009399e+02   8.418204e+01
   5.708639e+01   4.479843e+01
   8.517178e+01  -1.662771e+01
   1.350443e+01  -5.198456e+01
   5.474394e+01   1.213689e+02
  -3.174312e+01   2.026599e+02
  -1.255781e+02   1.087174e+02
  -1.653306e+02   3.575112e+01
  -1.642637e+02  -1.162066e+02
  -7.551332e+00  -1.277905e+02
   6.872568e+01   1.096321e+01
   6.503187e+01   4.751575e+01
  -4.516760e+01   3.440823e+01
  -1.534723e+02   7.750205e+00
  -6.288070e+01  -1.198594e+02
   6.858755e+01  -7.454559e+01
   1.468165e+02   6.957818e+00
   1.918230e+02   1.068572e+02
   2.723896e+01   6.186401e+01
  -5.903892e+01   3.568488e+01
  -3.394258e+01  -2.168483e+00
   5.099869e+01  -2.453875e+01
   8.898631e+01   1.742030e+01
  -1.943770e-01   1.058311e+02
  -8.722275e+01   1.730443e+02
  -1.643116e+02   6.676421e+00
  -1.456800e+02  -1.047336e+02
  -2.352446e+01  -1.639209e+02
   1.012595e+02  -1.238784e+02
   9.836295e+01  -2.522960e+00
   4.598358e+01   9.220372e+01
  -3.868395e+01   8.751647e+01
  -4.040434e+01   4.061266e+01
  -2.927772e+01   4.838739e+00
   1.325046e-01  -5.240638e+01
  -2.341242e+01   3.506519e+01
  -2.729058e+01   4.567897e+00
  -6.651518e+01  -3.914143e+01
  -3.757624e+01  -1.421581e+02
   1.147532e+02  -3.704692e+01
   1.314099e+02   4.373964e+01
   3.827785e+01   1.011324e+01
   3.451417e+01   2.095788e+01
  -1.103243e+02   3.444039e+01
  -6.343341e+01  -1.472966e+01
   1.346293e+01  -1.559905e+01
  -2.414147e+01   3.441296e+01
  -2.225535e+01  -2.001157e+01
  -1.562728e+01  -1.167322e+01
   5.836558e+01  -2.020886e+01
   9.496564e+01  -3.909681e+01
   1.025604e+02   3.199554e+01
   1.138229e+01   1.157519e+02
  -8.168479e+01   8.914893e+01
  -2.397382e+02   8.692399e+01
  -1.707033e+02  -9.462847e+01
  -4.393585e+01  -1.793058e+02
   2.694706e+01  -1.654761e+02
   7.120822e+01  -7.341197e+01
   1.204549e+02   1.419711e+01
   1.400733e+01   2.052776e+01
  -1.471406e+01   2.592350e+01
   3.381188e+01   3.449762e+01
   2.482862e+01   1.928190e+01
   2.775476e+01   1.206291e+02
  -5.267758e+01   1.555745e+02
  -8.751098e+01  -3.450066e+01
  -1.336551e+02  -8.097409e+01
   4.796205e+01  -1.326469e+02
   6.232078e+01   1.089844e+00
   9.551606e+01   7.534207e+01
   5.716497e+01   3.622997e+01
  -8.010464e+01   5.892448e+01
  -1.521328e+02  -5.475989e+01
  -3.301875e+01  -4.566576e+01
   1.756059e+01  -5.958946e+01
   1.865176e+01  -5.456467e+01
  -1.242944e+01  -2.250055e+01
  -5.805880e+01   4.656410e+01
  -4.448350e+00  -3.773810e+01
   6.306761e+01  -6.409647e+01
   1.234538e+02  -7.822822e+01
   3.240284e+01  -2.737857e+01
  -2.132881e+01   7.474194e+01
  -7.247609e+01   8.255264e+01
  -6.543968e+01   3.254129e+01
   1.475250e+01  -2.965597e+01
   2.417630e+01  -9.281289e+01
  -1.650245e+01  -6.838084e+01
   5.028123e+01   6.759151e+01
  -3.972493e+01   2.727690e+01
   1.565665e+01   1.843292e+01
  -7.936227e+00  -3.769550e+01
  -5.984517e+01   8.984183e+00
  -7.689072e+01  -4.029984e+01
  -1.744738e+01   7.550358e+00
   2.786177e+01  -2.720118e+01
   1.032476e+01  -9.764066e-01
   2.301627e+01  -5.932766e+01
   6.930092e+01   2.322773e+01
   3.578373e+01  -1.912278e+01
  -7.261086e+01   3.605704e+00
  -3.442477e+01  -1.126909e+01
  -4.232065e+01  -6.570064e+01
   7.068162e+01   6.102470e+00
   1.276960e+02   7.991561e+00
   2.327559e+01   4.022830e+00
  -1.909360e+01   6.860755e+01
  -6.504911e+01   7.018963e+01
   1.785345e+01   2.718842e-01
   2.620538e+01  -1.774341e+01
   3.252132e+01   3.202861e+01
  -2.387498e+00   4.233882e+01
  -5.198163e+01   2.401157e+01
