
 $NMID
 id='ANONYMOUS ', fmtdat='(2E16.6)'
 volume=1.0
 tramp=1.0
 $END
  -2.438764e+03  -4.739370e+01
  -1.708459e+03  -1.043074e+03
  -2.704493e+02  -1.528574e+03
   7.592091e+02  -1.263951e+03
   8.171333e+02  -5.008445e+02
   3.466317e+02   4.860801e+01
  -8.982829e+01   1.027558e+02
  -8.042307e+01  -2.811923e+02
   2.556283e+02  -4.211385e+02
   4.157632e+02  -1.396431e+02
   3.905807e+02   3.293621e+02
   1.705255e+02   4.913127e+02
  -8.920922e+01   2.554255e+02
  -1.841397e+02  -2.243438e+02
   9.843499e+00  -3.551990e+02
   2.737951e+02  -1.011371e+02
   2.868193e+02   2.623900e+02
  -4.176998e+01   5.444238e+02
  -4.263258e+02   2.853586e+02
  -4.490086e+02  -1.029996e+02
  -1.474679e+02  -2.725842e+02
   8.800569e+01  -2.715791e+02
   2.836708e+01  -1.312932e+02
  -1.433179e+02  -1.840374e+02
  -2.051200e+02  -3.170383e+02
   8.376982e+01  -2.636647e+02
   4.107101e+02  -2.583007e+01
   4.648816e+02   2.171484e+02
   1.199892e+02   2.205572e+02
  -2.816660e+02   4.584478e+01
  -2.793961e+02  -1.859378e+02
  -1.072814e+02  -2.617802e+02
   2.357932e+02  -2.405098e+02
   3.966603e+02  -9.473027e+01
   1.514664e+02   1.352324e+02
   8.511249e+01   2.243717e+02
   3.572448e+01   1.177000e+02
   1.285916e+02  -1.635626e+01
   1.666858e+02  -5.090300e+01
   1.104962e+02   1.376643e+02
  -8.375116e+01   3.757770e+02
  -2.605016e+02   2.568168e+02
  -1.210020e+02   1.902256e+01
  -4.756410e+01  -1.918630e+02
   9.105225e+01  -6.588742e+01
   9.963714e+01   1.905867e+02
  -8.951403e+01   2.854286e+02
  -3.778879e+02   1.088046e+01
  -3.744035e+02  -3.021282e+02
  -1.344438e+02  -4.125591e+02
   2.502053e+02  -2.012529e+02
   4.077384e+02   6.462249e+01
   2.350151e+02   1.608831e+02
   2.771562e+01   1.822184e+02
  -1.719267e+02   1.053247e+02
  -1.853061e+02  -1.234386e+00
  -1.231785e+02   1.214538e+01
  -1.813044e+01   3.474866e-02
  -2.930524e+01   3.816287e+01
  -1.141990e+02  -3.901737e+01
  -1.208988e+02  -1.686869e+02
   1.988099e+02  -2.161907e+02
   3.071603e+02  -1.387667e+02
   2.800550e+02   5.583710e+01
   6.061700e+00   3.623194e+02
  -2.691839e+02   3.124981e+02
  -3.530360e+02   7.671714e+01
  -2.113433e+02  -2.295500e+02
  -4.754726e+01  -2.513215e+02
   3.527032e+01  -2.018802e+02
  -1.094538e+00  -1.778448e+02
   1.268573e+01  -1.416874e+02
   1.589691e+02  -1.183150e+02
   2.644713e+02  -8.288315e+01
   1.900267e+02   1.251243e+02
  -1.555142e+01   2.965711e+02
  -8.043331e+01   1.575779e+02
  -1.812216e+02  -9.902611e+00
  -8.395544e+01  -2.215262e+02
   5.748228e+01  -1.587475e+02
   1.759916e+02  -6.784424e+00
   2.266604e+02   1.858241e+02
   1.100674e+02   2.140617e+02
  -9.408497e+01   2.437103e+02
  -1.356093e+02   1.850081e+02
  -1.383745e+02   7.965618e+01
  -1.570669e+02   9.895597e+00
  -2.573296e+02   2.007556e+00
  -3.925066e+02  -1.255701e+02
  -2.835801e+02  -2.702377e+02
   5.076787e+01  -4.005017e+02
   3.201469e+02  -3.110479e+02
   4.299428e+02  -1.256382e+02
   1.954711e+02   5.022835e+01
  -4.502900e+01   2.082037e+02
  -6.948522e+01   1.703007e+02
   2.201470e+01   5.593439e+01
   6.870661e+01   2.830797e+00
   9.948830e+01   5.447049e+01
   3.739310e+01   1.038246e+02
  -7.630294e+01   7.278381e+01
  -5.474517e+01  -7.260865e+01
   6.762148e+01  -5.541462e+01
   1.783934e+02  -4.476641e+01
   1.104854e+02   2.108700e+02
  -1.457524e+01   3.259762e+02
  -2.027819e+02   1.949389e+02
  -3.277065e+02  -5.657389e+01
  -2.659107e+02  -2.523558e+02
  -3.609328e+00  -2.654094e+02
   1.476699e+02  -1.241022e+02
   7.259531e+01   4.010487e+01
   2.203269e+01  -1.170643e+01
   8.312670e+00  -9.153718e+01
  -9.473183e-01  -1.560709e+02
   1.215414e+02  -3.304892e+01
   6.913089e+01   9.998568e+00
  -1.577809e+01   4.600799e+01
  -8.223406e+01  -6.727469e+01
  -3.691992e+01  -8.237343e+01
   1.887753e+02  -7.191604e+01
   2.391879e+02   3.573549e+01
   2.149476e+02   1.651388e+02
   2.253845e+01   2.330870e+02
  -2.457703e+02   2.127439e+02
  -2.480148e+02   2.347671e+01
  -7.618313e+01  -4.216923e-01
   1.628281e+01  -2.352235e+01
   3.996514e+01   6.689910e+01
  -1.045746e+02   7.587552e+00
  -1.699557e+02   4.828242e+00
  -1.320923e+02  -9.618747e+01
   1.366281e+01  -1.356139e+02
   6.291159e+01  -6.964125e+01
   6.421136e+01  -4.768879e+01
   3.304782e+01   4.198389e+01
  -4.475811e+01  -5.048534e+01
  -7.018567e+01  -1.342735e+02
   1.235711e+02  -9.201869e+01
   2.225846e+02   3.482009e+01
   1.231700e+02   1.521147e+02
  -5.386244e+01   1.455005e+02
  -1.776556e+02   1.117737e+02
  -1.103007e+02  -6.077417e+01
  -3.054646e+00  -8.366427e+01
   8.379089e+01  -2.942500e+01
   7.203266e+01   3.205890e+01
   2.523951e+01   5.652701e+01
  -4.600042e+01  -7.171889e+00
   4.687418e+01  -6.833445e+01
   9.921519e+01   4.262714e-01
   1.281275e+02   1.390960e+02
  -3.696633e+00   1.898672e+02
  -1.811301e+02   1.415442e+02
  -2.031435e+02   4.305383e+00
  -2.116080e+02  -1.245872e+02
  -3.465490e+01  -1.928494e+02
   7.814374e+01  -1.346657e+02
   1.216701e+02  -2.204449e+01
   3.004594e+01   5.185783e+01
   1.703712e+01   2.724393e+01
  -4.266270e+01  -1.898998e+01
   5.832414e+01   3.206052e+01
   2.923245e+01   8.190091e+01
  -1.410522e+01   9.762205e+01
  -1.077074e+02   1.015048e+02
  -8.610648e+01  -6.666842e+01
   1.566446e+01  -1.869215e+02
   1.248615e+02  -7.002670e+01
   2.172795e+02   6.073636e+01
   5.169842e+01   2.147723e+02
  -1.157625e+02   2.034391e+02
  -2.868316e+02   2.484996e+01
  -2.253834e+02  -1.143828e+02
  -7.128056e+01  -1.821890e+02
   4.010046e+01  -9.149405e+01
   6.696140e+01  -9.260268e+01
   5.920470e+01  -6.826953e+01
  -1.428793e+01  -6.323571e+01
   7.562514e+01  -1.334026e+01
   8.706292e+01   4.106488e+01
   6.338983e+01   1.391975e+02
   2.659334e+01   1.865765e+02
  -1.052757e+02   1.316014e+02
  -1.512617e+02   1.310905e+01
  -1.358406e+02  -1.354242e+02
  -3.864507e+01  -1.214788e+02
   6.943655e+01  -6.868566e+01
   1.319144e+02   3.768089e+01
  -6.033126e+00   3.326888e+01
  -2.484060e+01   4.562649e+01
   2.742073e+01  -6.382974e-02
   6.201425e+01   4.340762e+01
   3.507426e+01   1.322442e+01
  -3.239067e+01   1.004796e+02
  -1.349593e+02   6.643658e+00
  -1.269528e+02  -5.125664e+01
  -3.305395e+01  -1.123679e+02
   1.171489e+02  -8.529629e+01
   4.218442e+01   2.081352e+01
  -2.679690e+01   8.407432e+01
  -1.925812e+01   1.188770e+01
  -8.918742e+01   1.594974e+01
  -5.698711e+01  -2.040462e+01
   6.327724e+01  -8.380883e+01
   8.631910e+01  -2.395762e+00
   6.387230e+01   3.911218e+01
   5.540987e+01   1.144725e+01
   2.899190e+01   9.876715e+00
   4.150147e+00   5.866012e+01
   6.692533e+01   1.340233e+01
  -6.072148e+01   1.478219e+02
  -1.857396e+02   6.176448e+01
  -1.918556e+02   9.096700e+01
  -1.037448e+02  -1.052620e+02
  -9.786446e+00  -1.206519e+02
   2.845059e+01  -1.016835e+02
   3.434899e+01   6.896531e+01
  -6.927085e+01   4.199603e+01
  -1.466846e+02  -4.893242e+01
  -5.749054e+01  -4.741121e+01
   9.716656e+01  -4.513707e+01
   1.593874e+02  -7.834312e+01
   1.266983e+02   1.198943e+02
   8.133955e+01   5.620084e+01
  -4.262464e+01   1.738682e+01
  -7.997656e+01  -2.190303e+01
   1.983238e+01  -2.126787e+01
   8.416317e+01   1.425884e+00
   5.021427e+01   1.076397e+02
  -1.077398e+02   1.227791e+02
  -1.372817e+02   4.533314e+01
  -1.211165e+02  -1.130103e+02
  -4.432932e+01  -1.428170e+02
   5.663691e+01  -1.357099e+02
   9.204991e+01   1.166329e+00
   4.776462e+00   9.454586e+01
  -3.939884e+01   1.192523e+02
  -6.772065e+01   8.727319e-01
  -2.167067e+01  -3.835752e+01
  -3.443345e+01   5.370703e+01
  -4.011356e+01   2.079285e+01
  -9.117251e+01  -2.085647e+01
  -8.527675e+01  -9.486305e+01
  -4.258748e+01  -8.195145e+01
   5.593894e+01  -3.622630e+01
   1.287825e+02   4.990962e+01
   1.113372e+02   9.735017e+01
   1.463254e+01   3.269203e+01
  -7.207940e+01   2.343859e+01
  -1.259234e+02   1.986422e+00
  -5.695629e+01  -5.296965e+00
  -5.050587e+01  -2.258446e+00
  -8.242116e+00   4.617115e+00
  -3.513491e+01  -7.995247e+00
  -3.955813e+01   5.602956e+01
   8.710152e+01   2.083137e+01
   7.128934e+01   6.570094e+00
  -1.498068e+01   8.902302e+01
  -1.473506e+02   6.905698e+01
  -1.500376e+02   5.491621e+01
  -1.652840e+02  -7.663499e+01
  -6.608222e-03  -1.272373e+02
   3.900166e+01  -1.603351e+02
   1.032534e+02  -4.420657e+01
   7.513863e+01   5.714305e+00
   2.034964e+00   2.080974e+01
  -5.713981e+00   3.200023e+01
   7.437142e+01  -3.091793e+01
  -5.835337e+00   4.805280e+01
   2.437026e+01   1.239967e+02
  -5.322475e+01   9.506869e+01
  -1.167849e+02  -5.052174e+00
  -6.995848e+01  -6.170888e+01
  -3.429823e+01  -1.190741e+02
   5.122272e+01  -1.887861e+01
   1.035682e+02   2.119101e+01
   6.079367e+01   1.133755e+02
  -1.344130e+02   6.911340e+01
  -1.107998e+02  -3.266565e+01
  -5.762033e+01  -7.118892e+01
   5.089115e+01  -7.466539e+01
   6.859692e+01  -6.928747e+01
  -8.917340e+01  -1.252979e+01
  -6.174338e+01   1.821355e+01
  -9.858206e+00   4.983016e+01
   1.033956e+02  -6.435745e+01
   1.293500e+02  -5.861594e+01
   1.394663e+01  -2.407744e+01
   4.425818e+00   7.936051e+01
  -4.739265e+01   8.236690e+01
  -4.070171e+01   6.327727e+01
   1.868639e+01  -9.260253e+01
   4.730438e+01  -8.553999e+01
   3.329144e+01  -3.138561e+01
   4.587110e+01   2.889516e+01
   4.695098e+01   3.554023e+01
  -5.804023e+01  -3.811203e+01
  -4.182811e+01  -4.119365e+01
  -6.014785e+01   7.058526e+01
   5.874798e+00   1.766640e+01
  -7.199599e+00  -1.509277e+01
   1.132881e+01  -2.554581e+01
  -5.767819e+01  -7.151867e+01
   3.610646e+01  -2.647227e+00
   1.185109e+01   6.240400e+00
   8.419352e+00   2.795152e+01
  -5.888016e+01   5.191686e+00
  -5.167346e+01  -5.694358e+01
  -8.280258e+00  -6.044632e+01
   3.332167e+01  -8.181914e+01
   5.285646e+01  -3.150550e+01
   1.185985e+00   2.211207e+01
  -2.287036e+01   2.855852e+01
  -4.202701e+01   2.556546e-01
  -4.938352e+01   2.285588e+01
   1.314444e+01  -2.617817e+01
   4.954592e+01  -1.332132e+01
  -5.684958e+01  -3.180924e+01
  -1.154089e+02   4.656899e+01
