
 $NMID
 id='ANONYMOUS ', fmtdat='(2E16.6)'
 volume=1.0
 tramp=1.0
 $END
  -4.075458e+03   2.669924e+00
  -2.426318e+03  -2.472314e+03
   6.433554e+02  -2.577320e+03
   1.957336e+03  -8.990232e+02
   9.924952e+02   5.142628e+02
  -5.569636e+02   5.282955e+02
  -7.959260e+02  -3.603538e+02
  -2.550478e+01  -1.025841e+03
   7.664095e+02  -6.851445e+02
   8.828008e+02   1.086003e+02
   4.356114e+02   7.764050e+02
  -2.239628e+02   8.696126e+02
  -5.045369e+02   8.036849e+01
  -3.581944e+02  -6.687672e+02
   2.528056e+02  -7.153764e+02
   6.350028e+02   5.662646e+00
   2.987948e+02   6.260660e+02
  -2.335486e+02   6.235249e+02
  -5.531191e+02   1.104371e+02
  -3.800082e+02  -3.330672e+02
  -6.202163e+01  -4.222883e+02
   2.308221e+02  -2.323206e+02
   1.862800e+02  -1.406953e+01
  -1.190873e+02   6.647177e+01
  -4.268161e+02  -1.683864e+02
  -1.532217e+02  -4.493414e+02
   5.185264e+02  -3.233631e+02
   8.368699e+02   1.127391e+02
   4.365650e+02   4.833587e+02
  -3.629834e+02   4.632290e+02
  -7.306491e+02  -1.098587e+00
  -3.177519e+02  -4.628186e+02
   3.082808e+02  -5.341252e+02
   4.554728e+02  -2.146287e+02
   3.696956e+02   1.750070e+02
   1.359012e+01   4.433597e+02
  -1.749394e+02   2.766498e+02
  -9.777175e+01  -1.656784e+02
   1.050112e+02  -3.892564e+02
   3.808885e+02   7.770869e+01
   1.993439e+02   6.318349e+02
  -3.470659e+02   7.243643e+02
  -4.998342e+02  -3.420574e+01
  -2.698439e+02  -4.865258e+02
   2.572581e+02  -2.523401e+02
   3.564632e+02   2.983785e+02
  -8.047321e+01   5.030651e+02
  -5.078404e+02   1.135831e+02
  -5.761227e+02  -3.747615e+02
  -1.577157e+02  -5.360814e+02
   2.912206e+02  -2.898231e+02
   6.442848e+02   8.293936e+01
   3.699382e+02   3.531606e+02
  -1.298399e+02   2.942687e+02
  -4.106992e+02   4.642113e+01
  -2.136391e+02  -1.311683e+02
   1.324614e+02  -1.005640e+02
   1.376579e+02   1.058653e+02
  -1.711133e+02   1.448113e+02
  -3.123951e+02  -8.388634e+01
  -1.331973e+02  -3.034195e+02
   1.877214e+02  -2.496098e+02
   3.789872e+02  -7.735448e+01
   2.367968e+02   1.211687e+02
  -9.562038e+00   2.245593e+02
  -2.147823e+02   3.269369e+02
  -3.282790e+02   1.730589e+02
  -2.697001e+02  -1.022717e+02
  -4.890809e+01  -3.814946e+02
   1.453381e+02  -3.836222e+02
   9.915987e+01  -1.000749e+02
   2.514114e+01  -7.256750e+01
   6.886704e+01  -6.551753e+01
   1.556203e+02  -9.760686e+01
   1.946776e+02   3.385556e+01
   1.872825e+02   2.927998e+02
  -9.738557e+01   2.258947e+02
  -2.268207e+02  -8.708690e+00
  -1.716190e+02  -2.591856e+02
   3.531714e+01  -2.884451e+02
   2.455372e+02  -1.387276e+02
   3.546314e+02   1.173838e+02
   1.902484e+02   3.130381e+02
  -1.019310e+02   2.825115e+02
  -2.196481e+02   7.565551e+01
  -1.466481e+02   2.954465e+01
  -1.121249e+02   5.818538e+01
  -1.795208e+02   4.962203e+01
  -4.162480e+02  -5.753030e+01
  -3.403358e+02  -2.635229e+02
   3.947331e+01  -4.552719e+02
   3.738209e+02  -3.811012e+02
   4.982993e+02  -2.550880e+02
   3.044121e+02   1.157631e+02
   3.014794e+01   2.832900e+02
  -7.485018e+01   2.679621e+02
  -7.942297e+01   2.445046e+01
   9.837044e+01  -1.004593e+02
   2.167064e+02   1.235010e+01
   6.671259e+01   2.165556e+02
  -1.729930e+02   1.206933e+02
  -1.148367e+02  -1.018858e+02
   5.106064e+01  -1.340878e+02
   1.779237e+02  -8.704749e+00
   1.410767e+02   2.841596e+02
  -1.450487e+01   3.867745e+02
  -2.279353e+02   1.602215e+02
  -3.250287e+02  -8.623968e+01
  -2.776163e+02  -2.327050e+02
  -6.375636e+01  -2.299069e+02
   1.471824e+02  -1.437905e+02
   1.801839e+02   3.764873e+00
   2.119895e+00   8.325027e+01
  -5.409329e+01  -4.387360e+01
  -1.158680e+01  -1.436624e+02
   9.819454e+01  -6.658120e+01
   1.623564e+02   1.002348e+01
   3.019193e+01   1.139819e+02
  -5.555878e+01  -2.918186e+01
  -4.726880e+01  -6.230269e+01
   1.677015e+02  -9.947629e+01
   2.969788e+02   5.249271e+01
   2.109306e+02   1.496414e+02
   4.818683e+01   2.781516e+02
  -2.065818e+02   2.445194e+02
  -2.511841e+02   1.348126e+02
  -1.324770e+02  -1.596717e+01
   8.553834e+01  -1.359124e+02
   9.354056e+01  -3.890139e+00
  -6.009737e+01   9.142379e+01
  -1.913551e+02  -7.093918e-01
  -1.927967e+02  -9.527329e+01
  -5.324020e+01  -2.339153e+02
   9.055962e+01  -1.809463e+02
   1.770267e+02  -3.179702e+01
   8.037631e+01   2.074000e+01
  -3.494812e+01  -4.729761e+01
  -8.740226e+01  -8.003052e+01
   4.611534e+01  -5.932522e+01
   1.833150e+02  -3.615931e+01
   1.831858e+02   1.209845e+02
   6.353955e+01   2.458029e+02
  -1.669901e+02   1.946003e+02
  -1.973281e+02   2.217930e+01
  -5.314535e+01  -8.606586e+01
   1.937482e+01  -1.057578e+02
   1.122541e+02  -8.801471e+00
  -1.554013e+01   5.284175e+01
  -2.857633e+01   1.626169e+01
   6.327040e+01  -3.631205e+01
   2.893678e+00   3.589709e+01
   6.244588e+01   1.103604e+02
   4.571820e+01   9.625987e+01
  -1.318775e+02   1.523477e+02
  -1.816968e+02   3.019603e+01
  -1.285073e+02  -1.686312e+02
  -3.091572e+01  -2.145005e+02
   8.496708e+01  -1.632598e+02
   1.785860e+02  -1.874782e+01
   3.563565e+01   2.512163e+01
   1.525562e+01   6.411455e+01
   4.377896e+01   1.181647e+01
   1.121287e+02  -5.818888e+01
   2.202904e+01   3.887923e+01
  -2.574605e+01   9.713357e+01
  -1.131670e+02   4.674528e+01
  -8.468994e+01  -2.467797e+01
   7.331582e+00  -6.687056e+01
   1.315307e+02  -1.144484e+02
   1.791775e+02   2.072530e+01
   7.432975e+01   1.891268e+02
  -1.234738e+02   3.195431e+02
  -2.234908e+02   9.400718e+01
  -1.959473e+02  -1.101492e+02
  -6.710964e+01  -1.814175e+02
   4.052381e+01  -5.879258e+01
   1.237909e+02  -2.231139e+01
   1.002387e+02  -1.192836e+02
   1.311842e+02  -9.411192e+01
   1.377999e+02  -3.858397e+01
   1.463957e+02  -2.563714e+01
   1.587337e+02   1.745888e+02
  -2.654253e+01   2.038610e+02
  -1.052015e+02   1.297482e+02
  -1.839410e+02   1.632015e+01
  -1.120697e+02  -1.590032e+02
  -2.272371e+01  -1.601457e+02
   6.627159e+01  -1.055022e+02
   3.729497e+01   5.092470e+01
  -1.007112e+01   4.187712e+01
  -6.004366e+01   3.649724e+00
   3.828914e+01  -8.380473e+00
   8.245303e+01  -4.047540e+00
  -2.193418e+00  -2.139341e+00
  -3.030201e+01   3.385321e+01
  -1.249082e+02  -1.068994e+01
  -1.191752e+02  -1.254013e+02
  -1.903077e+00  -1.144639e+02
   1.460113e+02  -1.016831e+02
   1.385690e+02  -2.224174e+01
   5.764369e+01   2.093587e+00
  -9.712960e+01   4.043592e+01
  -8.125032e+01  -2.452857e+01
  -4.115912e+01  -3.345509e+01
  -3.624806e+01  -7.341011e+01
   5.027878e+01  -6.090036e+01
   7.306935e+01   7.273777e+01
   2.866654e+01   4.170112e+01
   8.126710e+01   3.888395e+01
   5.417896e+01   1.597052e+01
   4.470801e+01   1.101949e+02
  -8.427697e+00   2.040500e+02
  -1.571223e+02   1.286086e+02
  -1.353397e+02  -4.432991e+01
  -9.348555e+01  -7.658413e+01
  -2.299915e+01  -1.526751e+02
   8.839357e+01  -4.152714e+01
   4.170574e+01  -5.368635e+00
  -3.562567e+01   4.916211e+01
  -1.897223e+02  -3.195134e+01
  -7.867325e+01  -7.089676e+01
   1.025957e+02  -1.366964e+02
   2.174168e+02  -7.042316e+01
   1.404832e+02   5.956907e+00
   5.129121e+01   9.064557e+01
  -6.644232e+01   1.101881e+01
  -5.711217e+01   7.282055e+01
   5.049317e+01  -1.791011e+01
   1.581165e+02   3.519133e+01
  -7.418611e+00   9.647974e+01
  -1.254240e+02   1.085520e+02
  -1.857196e+02   7.910667e+01
  -1.564719e+02  -8.387328e+01
   3.871323e+01  -2.102257e+02
   4.870927e+01  -1.118906e+02
   6.552882e+01  -3.418073e+01
   3.135314e+01   5.854170e+01
  -2.992341e+01   3.706251e+01
  -6.661477e+01   2.325148e+01
  -6.166714e+01   2.238167e+01
  -5.155513e+01  -1.803464e+01
   4.422187e+01  -1.979610e+01
   2.188059e+01  -3.285968e+01
  -5.223331e+01  -6.440075e+01
  -1.094262e+02  -5.650465e+01
   6.867318e+01  -4.480425e+00
   6.534149e+01   3.021371e+01
   9.945166e+01   9.841788e+01
   2.496231e+00   3.125371e+01
  -1.196449e+02  -2.393661e+01
  -1.093468e+02  -4.444572e+01
   1.299911e+01   1.082430e+01
   7.518999e+00  -2.746695e+01
  -1.053038e+01  -4.011839e+01
  -5.228215e+01   6.309355e+01
  -2.630096e+00  -3.425523e+00
   4.124634e+01   5.072182e+01
   1.177063e+02   3.354727e+01
  -3.078380e+01   9.320389e+01
  -1.311339e+02   1.469618e+02
  -2.142931e+02   7.263421e+01
  -1.395679e+02  -3.495916e+01
   1.993125e+00  -1.166228e+02
   1.049406e+02  -2.121337e+02
   1.278526e+02  -7.000664e+00
   1.143438e+02  -3.107698e+01
   2.954365e+01  -3.709742e+01
   3.239694e+01   2.283507e+01
   5.169454e+00   2.023323e+01
  -3.468142e+01   3.207566e+01
   3.482510e+01   1.133841e+02
   2.759042e+00   6.896336e+01
  -9.924295e+01  -2.315572e+01
  -1.000613e+02  -7.933709e+01
  -3.030983e+01  -1.151651e+02
   6.548931e+01  -5.799469e+00
   8.436216e+01   1.526525e+02
  -2.868234e+00   5.683154e+01
  -1.161589e+02   5.088754e+01
  -1.543025e+02   1.964283e+01
  -5.420396e+01  -4.165297e+01
   7.119853e+01  -8.010696e+01
  -7.419126e+00   7.459170e+00
  -2.880100e+01  -9.802546e+00
  -9.919424e+01  -3.118686e+00
  -4.119852e+01  -1.177169e+01
   3.720464e+01  -2.874661e+01
   8.760092e+01  -3.043068e+01
   2.030718e+01   1.536352e+01
  -2.805332e+01   6.912887e+01
  -5.874736e+01   4.010322e+01
  -2.539652e+01   7.676509e+01
  -1.974646e+01  -5.482451e+01
   6.645333e+01  -7.730019e+01
   6.540126e+01   4.428764e+01
   1.735983e-01   8.910230e+01
  -6.171442e+01   4.400001e+01
  -2.891709e+01  -8.941188e+00
  -3.700185e+01   2.164867e+01
  -5.709209e-01  -2.436646e+01
  -3.251351e+01  -4.304959e+01
  -2.260008e+00   3.876057e+01
   5.618136e+01  -7.555946e+01
   3.177838e+01  -1.215528e+00
   8.233605e+00   2.526733e+01
   8.663674e+01   4.391554e+00
   2.277877e+01   8.766740e+01
  -4.125340e+01   2.602851e+01
  -3.432241e+01  -7.041090e+01
   1.811443e+01  -4.537235e+01
   7.473614e+01  -5.579767e+01
   9.664096e+01   1.834896e+01
   5.622972e+01   1.449024e+01
  -2.387820e+01   9.451752e+01
  -1.195385e+01   7.452025e+01
   1.770525e+01   3.573833e+00
   6.701497e+01  -9.528383e+00
   4.415359e+01  -4.142270e+01
  -3.560222e+01  -6.960779e+00
  -1.143042e+02   4.956502e+01
