
 $NMID
 id='ANONYMOUS ', fmtdat='(2E16.6)'
 volume=1.0
 tramp=1.0
 $END
   3.745660e+03   9.605393e-01
   2.399935e+03   2.059008e+03
  -2.840499e+02   2.358486e+03
  -1.664920e+03   1.105355e+03
  -9.476131e+02  -1.937558e+02
   2.246341e+02  -3.839050e+02
   6.155578e+02   1.808301e+02
   5.990741e+01   7.452699e+02
  -6.469961e+02   6.792229e+02
  -8.191761e+02  -4.885473e+01
  -4.616453e+02  -6.453231e+02
   1.088356e+02  -7.508314e+02
   4.806514e+02  -1.938258e+02
   3.200475e+02   5.737915e+02
  -1.392439e+02   6.280811e+02
  -4.701862e+02   5.942981e+01
  -2.915838e+02  -5.736230e+02
   2.216874e+02  -5.679674e+02
   5.300421e+02  -1.366786e+02
   4.347193e+02   2.495612e+02
   1.086632e+02   3.710597e+02
  -1.958057e+02   2.583938e+02
  -5.886142e+01   5.528084e+01
   1.872651e+02   3.727647e+01
   3.473930e+02   2.385354e+02
   1.054855e+02   3.700569e+02
  -4.446317e+02   2.030805e+02
  -7.189206e+02  -1.419379e+02
  -3.348479e+02  -4.495134e+02
   3.503619e+02  -3.112698e+02
   6.057206e+02   4.526799e+01
   3.053186e+02   4.227870e+02
  -2.534707e+02   4.346844e+02
  -5.169942e+02   1.556042e+02
  -3.508498e+02  -1.991409e+02
  -9.857517e+01  -4.098785e+02
   6.895220e+01  -1.964385e+02
   5.535613e+01   1.396253e+02
  -1.658061e+02   2.838098e+02
  -3.068062e+02  -6.669017e+01
  -1.395532e+02  -5.852950e+02
   3.001860e+02  -5.557057e+02
   4.452820e+02  -1.720910e+01
   1.724014e+02   4.617538e+02
  -1.951129e+02   2.558949e+02
  -2.556611e+02  -3.071291e+02
   1.835261e+01  -4.388052e+02
   5.046538e+02  -1.193930e+02
   5.538249e+02   3.734018e+02
   1.564542e+02   5.531664e+02
  -3.225181e+02   2.953839e+02
  -5.578333e+02  -4.726356e+01
  -3.975021e+02  -3.013067e+02
   8.398826e+01  -3.057963e+02
   3.465078e+02  -1.224536e+02
   2.257918e+02   9.905356e+01
  -8.236809e+01   9.982637e+01
  -1.194769e+02  -1.584218e+02
   1.317689e+02  -9.968551e+01
   3.184232e+02   1.247152e+02
   1.170386e+02   2.004667e+02
  -1.417629e+02   2.407676e+02
  -3.377806e+02   1.684201e+02
  -1.748826e+02  -8.865675e+01
   5.190820e+01  -3.188024e+02
   3.257785e+02  -3.417122e+02
   4.034851e+02  -1.715708e+02
   2.431646e+02   1.335508e+02
   3.491016e+01   3.592749e+02
  -4.066475e+01   3.234533e+02
  -9.531628e+01   1.200248e+02
  -1.989073e+01   7.950999e+01
  -7.235389e+01   1.352217e+02
  -2.515464e+02   7.274685e+01
  -2.862690e+02  -1.043723e+02
  -1.247635e+02  -2.877007e+02
   1.081057e+02  -2.561783e+02
   2.105958e+02  -7.215331e+00
   1.150233e+02   2.391063e+02
  -4.871230e+01   2.385965e+02
  -2.453920e+02   1.019583e+02
  -3.695804e+02  -1.760309e+02
  -1.883041e+02  -2.807747e+02
   3.528914e+01  -3.092547e+02
   1.613193e+02  -1.404005e+02
   1.721492e+02  -8.128277e+01
   9.369926e+01  -1.076953e+02
   2.779453e+02  -2.144300e+01
   4.280447e+02   2.998860e+01
   2.805457e+02   2.741106e+02
  -3.412753e+01   4.301678e+02
  -3.965990e+02   4.380741e+02
  -4.915288e+02   2.268570e+02
  -3.391844e+02  -1.300199e+02
  -2.547019e+01  -3.044199e+02
   1.036408e+02  -2.269019e+02
   7.586260e+01  -7.015978e+01
  -4.251254e+01   3.703616e+01
  -1.409009e+02   1.001374e+00
  -9.120417e+00  -2.214829e+02
   1.634814e+02  -1.507815e+02
   9.721504e+01   4.877623e+01
  -2.783930e+01   2.634336e+02
  -1.200204e+02   3.318276e+01
  -1.610712e+02  -2.918773e+02
  -2.735579e+01  -3.891872e+02
   2.464777e+02  -1.854533e+02
   3.159400e+02   1.094562e+02
   2.293458e+02   2.847480e+02
   5.406274e+01   3.014376e+02
  -1.486280e+02   6.133808e+01
  -1.397902e+02   3.645649e+00
  -1.328376e+01  -4.812581e+01
   5.435450e+01   6.921889e+01
  -3.155023e+01   1.317148e+02
  -9.519041e+01   6.653614e+01
  -1.785210e+02  -1.325535e+01
  -6.474064e+01  -1.007219e+02
   1.321445e+02  -8.878377e+01
   6.425832e+01   8.622170e+01
  -1.114303e+02   1.115681e+02
  -3.212435e+02  -2.967885e+01
  -2.034210e+02  -2.224941e+02
  -2.684806e+01  -2.975340e+02
   2.586569e+02  -2.244477e+02
   2.642834e+02  -1.766620e+02
   2.190005e+02   9.267327e+01
  -4.953473e+01   1.150821e+02
  -1.179775e+02   2.390949e+01
   2.793973e+01  -1.125309e+02
   1.530680e+02  -2.902138e+01
   1.463760e+02   1.312358e+02
   1.111970e+02   2.287649e+02
  -1.152192e+02   1.225852e+02
  -6.679949e+01  -1.585503e+00
  -3.296741e+01  -6.110230e+01
   2.266849e+01  -7.754040e+00
   1.580741e+01   7.939879e+01
  -8.321326e+01   1.622021e+02
  -1.581156e+02   4.805162e+01
  -1.844965e+02  -8.663161e+01
  -1.765738e+01  -2.180802e+02
   1.893269e+02  -1.579957e+02
   1.487059e+02  -2.060575e+01
   8.017918e+01   6.614255e+01
  -2.829378e+01   1.232392e+02
  -6.206936e+01  -1.145755e+01
  -4.254642e+00  -4.295358e+01
   8.699557e+01  -4.250802e+01
   5.502200e+01   3.217088e+01
  -7.988198e+01  -3.281371e+01
  -1.069567e+02  -5.084371e+01
  -2.594644e+01  -8.748807e+01
   1.386262e+02  -1.898219e+02
   1.880694e+02  -1.910606e+01
   1.861882e+02   1.476907e+02
   4.869990e+01   1.783489e+02
  -1.021728e+02   1.282966e+02
  -1.574159e+02   6.986228e+01
  -1.362781e+02  -3.833660e+01
  -1.235722e+01  -1.043265e+02
  -3.241182e+01  -5.600895e+01
  -7.431868e+01   5.238300e+01
  -5.212099e+01   3.164167e+00
   1.482594e+00  -9.573281e+01
   1.802558e+02  -6.804856e+01
   5.426116e+01   6.363852e+01
  -5.690857e+00   1.006679e+02
  -1.312454e+02   1.156907e+02
  -2.447670e+02  -1.420747e+01
  -1.161373e+02  -1.806633e+02
   1.119813e+02  -2.473244e+02
   2.872640e+02  -1.089195e+02
   2.616031e+02   6.376393e+01
   1.368683e+02   1.729940e+02
   1.528179e+01   1.304439e+02
  -7.396940e+01   6.010210e+01
  -4.454165e+01   2.872856e+01
  -1.111673e+02   5.147627e+01
  -3.326195e+01   8.310356e+01
  -1.156265e+02  -1.284024e+01
  -1.134806e+02  -1.333362e+02
   7.448643e+00  -2.136259e+02
   9.591989e+01  -2.129535e+02
   2.150113e+02  -3.311323e-01
   1.434420e+02   2.049681e+02
   5.606040e+01   1.035414e+02
  -5.440945e+01   3.673035e+01
  -2.907274e+01   3.936258e+01
   1.139980e+01  -6.991456e+00
  -2.382946e+01  -1.425863e+01
  -2.364106e+01  -8.640886e+00
  -7.762955e+01  -1.853940e+01
  -3.650509e+01  -5.151466e+01
   5.880223e+01  -1.311939e+01
   1.493874e+02   5.009754e+01
   1.772582e+02   6.904111e+01
   1.884241e+01   1.284465e+02
  -1.175075e+02   5.244317e+01
  -1.309919e+02  -5.896262e+00
  -2.325222e+01  -6.987800e+01
   1.610650e+00  -5.725927e+01
   1.565567e+02  -1.918692e+01
   8.899672e+00   8.454105e+01
  -8.805910e+01   5.703377e+01
  -1.090837e+02  -1.595601e+01
  -3.971057e+01  -1.044433e+02
  -4.440524e+01   3.841514e+00
  -8.044232e+01  -3.389822e+01
  -9.577159e+01  -2.652709e+01
  -4.187486e+01  -1.130969e+02
   4.877701e+01  -1.277630e+02
   1.514304e+02  -1.536959e+02
   1.652807e+02  -7.496285e+01
   1.319227e+02   9.841969e+01
   1.884232e+01   1.267539e+02
  -9.698722e+01   3.964066e+01
  -8.759546e+01   5.240355e+00
   1.657734e+01  -4.441805e+00
   1.891104e+02   1.007036e+02
   8.812128e+01   8.877050e+01
  -1.035488e+02   9.273474e+01
  -2.100862e+02   8.763410e+01
  -1.663427e+02   6.618813e+00
  -1.349196e+01  -1.079069e+02
   8.347496e+01  -9.488681e+01
   6.669012e+01   4.701550e+01
  -2.010916e+01  -1.378215e+01
  -4.972722e+01  -3.479334e+01
  -9.839016e+01  -1.167917e+02
   9.520858e+01  -1.415431e+02
   1.675095e+02  -3.441903e+01
   1.962753e+02   1.246129e+02
   2.520150e+00   1.892741e+02
  -4.165336e+01   1.623137e+02
  -9.738106e+01  -2.957231e+01
  -5.316102e+01  -1.653221e+02
  -1.097222e+01  -1.452583e+02
   5.207163e+01   1.375312e+01
   4.821360e+01  -2.112964e+01
   3.151460e+01   3.840683e+01
  -2.631162e+01  -5.482536e+01
   5.157964e+01   5.910393e+01
   1.756080e+01   8.175393e+01
   3.893981e+00   1.172507e+02
  -7.977869e+01   2.291444e+01
  -1.168301e+02  -1.690835e+01
  -1.687131e+02  -5.322900e+01
  -2.522732e+01  -6.343881e+01
   9.432768e+01  -5.025111e+01
   9.761518e+01   8.660312e+00
   4.963753e+01  -7.967575e+01
  -2.211589e+00   8.449643e+01
  -8.195571e+01   6.521213e+00
  -4.944010e+00  -1.047653e+01
  -8.480425e+00  -1.787833e+01
  -4.249255e+01  -1.079087e+01
  -1.539391e+02  -3.660273e+01
  -2.037047e+01  -8.101573e+01
   9.746230e+01  -1.105233e+02
   1.879286e+02  -3.884079e+01
   1.392616e+02   2.266837e+01
   5.135457e+01   1.553541e+02
  -9.065575e+01   1.978031e+02
  -1.504278e+02   7.852449e+01
  -9.315908e+01  -2.608135e+01
   3.150070e+01  -8.890043e+01
  -1.927450e+01   6.231553e+00
  -4.281179e+01  -1.022125e+00
  -2.268497e+01  -2.185203e+01
  -4.712066e+01  -8.605545e+01
   1.301479e+00  -9.942308e+01
   9.288667e+01   3.241743e+01
   1.566290e+02   1.457716e+02
   7.576891e+00   6.878259e+01
  -4.229418e+01   9.699335e-02
  -1.023696e+02  -3.557982e+01
  -2.643226e+01  -1.200391e+02
   4.579381e+01  -5.733158e+01
   9.950945e+01   6.719732e+01
   2.473630e+01   6.569765e+01
  -5.564919e+01   4.633229e+01
  -5.129703e+01   3.013366e+01
   4.392002e+01  -2.118354e+01
   4.585643e+01  -3.778533e+01
   1.872187e+01   3.070545e+01
  -4.083627e+01   3.951493e+01
  -1.570427e+02   6.664999e+01
  -4.039944e+01  -3.707011e+01
   3.705130e+01  -5.106603e+01
   1.201427e+02  -9.035223e+01
   3.012726e+01  -5.972756e+01
  -2.448837e+01   5.766295e+01
  -7.863935e+00   3.990796e+01
  -1.029921e+01  -1.404156e+01
  -2.306957e+01  -8.611754e+01
   5.360750e+01  -4.769608e+01
   7.523872e+01  -6.118194e+00
   2.973471e+01   5.897047e+01
   2.994555e+01  -1.529475e+01
  -1.841204e+01   1.501448e+01
  -1.899532e+01  -2.376648e+01
   1.134873e+01  -9.617953e+00
  -1.753918e+01  -2.030710e+01
  -4.081530e+01   3.430439e+01
  -4.105362e+00  -1.710383e+01
   2.240057e+01  -4.910270e+01
   3.678203e+01  -1.730758e+00
   1.092740e+02   2.474572e+01
  -5.229974e+01   9.278749e+01
  -6.378329e+01  -2.445284e+01
  -1.093441e+02   4.012183e+01
  -2.722344e+01  -3.361570e+00
   7.052805e+01  -6.339401e+01
   5.799601e+01  -2.329065e+01
   1.692353e+01  -6.755149e+01
  -4.604482e+01  -3.775208e-01
  -7.545212e+01   3.457956e+01
  -2.521889e+00  -5.810230e+01
   9.635855e+01  -9.550549e+01
