
 $NMID
 id='ANONYMOUS ', fmtdat='(2E16.6)'
 volume=1.0
 tramp=1.0
 $END
  -3.810405e+03  -1.936572e+01
  -2.289074e+03  -2.111721e+03
   3.914137e+02  -2.371997e+03
   1.721701e+03  -1.040774e+03
   9.687835e+02   2.591795e+02
  -3.705712e+02   3.230303e+02
  -6.884550e+02  -2.858310e+02
  -2.804525e+01  -8.281056e+02
   6.943127e+02  -6.950044e+02
   7.815627e+02   1.466163e+01
   4.574838e+02   6.758437e+02
  -1.249489e+02   6.924560e+02
  -4.364704e+02   1.540734e+02
  -3.066819e+02  -5.527072e+02
   2.005069e+02  -6.511519e+02
   4.672734e+02  -1.521400e+01
   2.874097e+02   5.583406e+02
  -1.935002e+02   6.274184e+02
  -5.693566e+02   1.712632e+02
  -4.291842e+02  -2.657373e+02
  -7.065004e+01  -3.938051e+02
   2.194572e+02  -2.287691e+02
   1.236232e+02  -6.692863e+01
  -1.538122e+02  -1.486798e+00
  -3.435471e+02  -1.681746e+02
  -9.747865e+01  -4.178116e+02
   4.762067e+02  -2.855541e+02
   7.038790e+02   1.354617e+02
   3.178142e+02   4.917127e+02
  -3.706491e+02   3.741415e+02
  -6.453792e+02  -5.585448e+01
  -2.787877e+02  -4.409715e+02
   2.536208e+02  -4.536746e+02
   5.047414e+02  -2.066000e+02
   3.579387e+02   1.705670e+02
   1.380092e+01   4.412018e+02
  -7.344684e+01   2.165528e+02
  -6.564162e+01  -1.527674e+02
   1.496104e+02  -3.148472e+02
   3.343209e+02   1.243270e+02
   1.498124e+02   5.667858e+02
  -2.845639e+02   5.734004e+02
  -4.325127e+02  -7.212251e+01
  -2.005619e+02  -3.884085e+02
   2.974640e+02  -2.065160e+02
   2.922261e+02   3.192953e+02
  -1.048978e+02   4.594548e+02
  -5.207779e+02   1.222322e+02
  -4.555401e+02  -3.560241e+02
  -1.281826e+02  -5.880118e+02
   3.788230e+02  -3.316482e+02
   5.354695e+02   1.090665e+02
   3.631172e+02   3.439952e+02
  -1.321490e+02   3.037223e+02
  -4.027997e+02   4.137721e+01
  -2.726583e+02  -8.228241e+01
   3.488490e+01  -4.882672e+01
   9.782519e+01   1.349608e+02
  -1.714636e+02   1.960694e+02
  -2.745681e+02  -5.340439e+01
  -1.940187e+02  -2.433226e+02
   1.513231e+02  -2.809005e+02
   3.698376e+02  -1.029937e+02
   3.050649e+02   1.020840e+02
  -4.380110e+01   2.359078e+02
  -2.436784e+02   3.689548e+02
  -3.631796e+02   1.871186e+02
  -2.656002e+02  -5.516077e+01
  -8.641321e+01  -3.975046e+02
   9.247792e+01  -3.652230e+02
   4.574257e+01  -8.086959e+01
  -7.201882e-01  -2.396838e+01
   1.194936e+02  -1.089084e+02
   2.325438e+02  -8.409161e+01
   2.206120e+02   5.102670e+01
   1.307081e+02   2.981352e+02
  -5.228651e+01   2.546420e+02
  -1.823952e+02  -2.724771e+00
  -1.125812e+02  -2.314737e+02
   2.750122e+01  -2.662847e+02
   2.520332e+02  -1.645054e+02
   3.594835e+02   2.081144e+02
   1.657786e+02   3.056364e+02
  -1.126746e+02   2.350473e+02
  -2.096279e+02   1.545883e+02
  -1.907019e+02   4.203179e+01
  -1.253590e+02   1.364170e+02
  -2.252353e+02   5.719690e+01
  -4.141265e+02  -1.050204e+02
  -3.112238e+02  -2.880768e+02
   2.924676e+01  -3.925458e+02
   3.686557e+02  -3.410330e+02
   5.559858e+02  -1.952717e+02
   2.960733e+02   1.163443e+02
   3.234515e+01   2.293964e+02
  -1.002109e+02   2.169172e+02
  -7.357303e+01   4.129089e+01
   1.349580e+02  -5.255764e+01
   1.411647e+02  -4.349613e+01
   1.285172e+02   2.224574e+02
  -1.534711e+02   1.621649e+02
  -1.788193e+02  -1.275668e+01
   2.543716e+01  -2.156076e+02
   1.141133e+02  -4.294512e+01
   9.622708e+01   2.404964e+02
  -1.793613e+00   3.747280e+02
  -2.463806e+02   2.096559e+02
  -3.607426e+02  -8.307591e+01
  -2.302784e+02  -2.473023e+02
  -9.276174e+01  -2.302702e+02
   1.377250e+02  -2.466599e+02
   1.956430e+02  -5.468462e+00
   2.311364e+01   1.504925e+01
   1.573180e+01  -5.041743e+01
  -8.122813e+01  -1.140637e+02
   8.732283e+01  -6.035129e+01
   1.832841e+02  -1.564728e+01
   6.925855e+01   9.324637e+01
  -7.542406e+01  -1.089237e+01
  -3.449339e+01  -7.835033e+01
   1.677058e+02  -9.355953e+01
   2.978497e+02  -1.653454e+01
   2.602971e+02   1.160986e+02
   5.874777e+00   2.336945e+02
  -1.294014e+02   2.490483e+02
  -3.407972e+02   1.052945e+02
  -1.297813e+02  -1.662389e+01
   5.532775e+01  -4.859518e+01
   1.085869e+02   1.697943e+01
  -1.117002e+02   1.234200e+02
  -1.808774e+02   3.473234e+01
  -2.035246e+02  -9.825629e+01
  -8.187161e+01  -2.188827e+02
   9.074172e+01  -1.097915e+02
   9.205725e+01  -5.354366e+01
   1.104907e+02   3.077741e+01
  -3.555800e+01   2.257333e+01
  -9.298024e+01  -1.133165e+02
   4.867622e+01  -6.840879e+01
   2.149491e+02  -5.689794e+01
   1.704053e+02   1.380950e+02
   3.826910e+01   2.034488e+02
  -1.712279e+02   1.380843e+02
  -1.771665e+02   1.171864e+00
  -1.172956e+00  -1.139764e+02
   7.612699e-01  -1.278863e+02
   5.796818e+01  -3.279711e+01
   1.745643e+01   3.689253e+01
  -4.944286e+01  -2.287552e+01
   1.960367e+00   2.589337e+00
   7.250286e+01   3.313106e+01
   9.624605e+01   1.072515e+02
  -2.068101e+01   1.319223e+02
  -1.371381e+02   1.730801e+02
  -2.080309e+02  -8.814246e+00
  -1.807838e+02  -1.445202e+02
   7.454921e+00  -2.170651e+02
   1.466375e+02  -1.147677e+02
   1.102651e+02   1.999740e+00
   8.345745e+01   2.730594e+01
   2.408444e+01   2.600372e+01
   1.160793e+02  -5.218424e+00
   1.012590e+02  -2.285576e+01
   2.187749e+01   3.636303e+01
  -2.285874e+01   7.981076e+01
  -1.402925e+02   6.944187e+01
  -8.536893e+01   3.749522e+01
   4.252838e+01  -1.530264e+02
   1.645754e+02  -8.261599e+01
   2.174555e+02   1.102469e+02
   1.124458e+02   1.784052e+02
  -1.287519e+02   2.254640e+02
  -2.574755e+02   8.714204e+01
  -2.551845e+02  -1.234550e+02
  -1.991635e+02  -1.268969e+02
   9.511467e-01  -1.609152e+02
   1.457126e+02  -5.659107e+01
   8.619862e+01  -6.476762e+01
   7.059720e+01  -8.037981e+01
   7.416351e+01  -8.374629e+01
   9.625950e+01   3.276974e+01
   9.156915e+01   1.411289e+02
   1.818840e+01   2.516614e+02
  -1.375427e+02   2.179867e+02
  -1.194732e+02   4.273627e+01
  -1.498993e+02  -1.337954e+02
   1.209552e+01  -1.688074e+02
   8.114765e+01  -6.089772e+01
   1.706784e+00   1.937794e+01
   4.167857e+00   5.851140e+00
  -1.600747e+01   8.264301e+01
   3.181352e+01   2.243087e+01
   5.740015e+01   3.335034e+01
   3.591899e+01   4.432047e+01
  -9.377471e+01   8.563774e+01
  -1.829292e+02  -5.966275e+00
  -1.932330e+02  -6.284962e+01
   4.469151e+01  -1.956829e+02
   1.258197e+02  -8.254753e+01
   1.431966e+02  -3.074518e+01
   9.494259e+00   2.485129e+01
  -1.443798e+01   5.798108e+01
  -6.699254e+01   2.323426e+01
   3.807105e+01  -9.227692e+01
   4.998122e+01  -5.414683e+01
   7.118215e+00   5.834485e+00
   2.743984e+00   1.170702e+02
   6.004103e+00   4.423203e+01
   4.835921e+00   5.686677e+00
   5.110782e+01   4.876340e+01
  -5.998788e+00   7.088685e+01
  -1.241661e+01   1.236134e+02
  -1.561910e+02   1.286413e+02
  -2.385643e+02  -3.768723e+00
  -1.280362e+02  -7.406904e+01
   2.311974e+01  -1.036756e+02
   6.724525e+01  -9.492640e+01
  -4.980810e+00   6.998761e+01
  -2.386575e+01  -4.528030e+00
  -1.494537e+02  -1.956620e+01
  -5.374009e+01  -1.201433e+02
   1.526707e+02  -1.047908e+02
   2.227810e+02  -1.171728e+01
   1.470457e+02  -2.442201e+01
   3.527515e+01   2.617511e+01
  -6.655383e+01   1.297069e+02
  -7.903433e+01  -1.141026e+01
   5.908661e+00   6.424976e+00
   8.614403e+01   8.882674e+00
   7.959348e+01   1.434116e+02
  -2.452527e+01   1.817938e+02
  -1.539113e+02   8.622491e+01
  -1.375931e+02  -1.201103e+02
  -5.254996e+01  -1.426259e+02
   5.150648e+01  -1.253864e+02
   9.800949e+01   2.264110e+01
   4.344491e+00   1.064510e+02
  -3.329593e+01   1.164862e+02
  -6.734521e+01   7.374046e+00
  -7.789840e+01  -2.517038e+01
  -2.784745e+01  -1.287296e+01
   3.208186e+01  -1.541147e+00
  -3.586165e+01  -2.247989e+01
  -4.077969e+01  -2.912733e+01
  -8.467681e+01  -8.430085e+01
   4.770925e+01  -3.422394e+01
   1.351699e+02   6.771000e+01
   8.367175e+01  -3.297072e-01
  -4.653503e+01   3.095963e+01
  -6.149055e+01  -3.041164e+01
  -7.521095e+01   5.940962e+01
  -2.334392e+01  -5.967237e+01
   3.245315e+01  -2.108201e+01
   2.566678e+01  -2.355312e+01
   2.061727e+01   2.627744e+01
  -3.239295e+01   2.442911e+01
   1.273360e+02  -2.980630e+01
   6.471877e+01   4.071828e+01
  -2.566469e+01   9.715346e+01
  -9.805493e+01   1.569494e+02
  -2.046376e+02   6.077823e+01
  -1.367398e+02  -1.048210e+02
  -1.934636e+01  -1.730810e+02
   1.106619e+02  -1.618028e+02
   8.183915e+01  -1.182432e+01
   8.826030e+01   1.997508e+01
   7.554571e+01   5.164855e+01
  -4.214983e+01   4.320461e+01
  -4.823992e+00   3.191307e+01
   5.268189e+01   6.385521e+01
   1.148810e+01   1.504515e+02
  -3.231191e+01   2.095493e+01
  -9.916234e+01  -5.169672e+01
  -9.379779e+01  -6.418240e+01
  -4.248272e+01  -1.342462e+02
   3.533051e+01  -2.162464e+01
   9.073067e+01   5.683691e+01
   7.111799e+01   1.123026e+02
  -1.173761e+02   2.269290e+01
  -6.850135e+01  -5.277345e+01
  -5.995910e+01  -5.435398e+01
   1.146830e+01  -1.992844e+01
   2.052207e+01   5.912841e-01
  -6.459484e+01   6.443914e+00
  -3.803698e+01  -6.988789e+00
   2.606522e+01  -7.297010e+00
   7.197543e+01  -1.418488e+02
   1.473048e+02   5.711469e+00
   4.340872e+01  -2.437949e+01
   6.135020e+00   1.018296e+02
  -8.006008e+01   6.009239e+01
  -8.746680e+01   1.382078e+01
  -2.356841e+01  -2.542394e+01
  -1.820170e+00  -9.731511e+01
   7.294058e+01   2.963386e+01
   3.730150e+01   6.479711e+01
   5.413801e+01   9.089251e+00
  -5.719322e+01   2.707302e+01
  -4.510596e+01  -9.828151e+01
  -2.204289e+01  -7.382236e+01
   9.760411e+00  -9.486276e+00
   1.187880e+01   4.038042e+01
  -2.389917e+01  -8.370430e+01
   1.058648e+01  -3.973461e+01
   5.399915e+01   1.950065e+01
  -3.716235e+00  -1.536151e+01
   8.796802e+00   4.195716e+01
  -8.522681e+01   9.391926e+01
  -1.018877e+02  -7.941389e+01
  -4.664188e+00  -4.655139e+01
   4.198208e+01  -3.921662e+01
   1.084522e+02  -2.743335e+01
   2.283954e+01   6.503648e+01
  -2.181274e+01   2.981980e+01
  -9.407236e+01   1.723411e+01
  -6.625101e+01  -4.580058e+01
   6.700960e+00  -1.106665e+00
   2.991113e+01  -2.046787e+01
  -1.021704e+02   6.153040e+01
  -1.887087e+01   2.449431e+01
