
 $NMID
 id='ANONYMOUS ', fmtdat='(2E16.6)'
 volume=1.0
 tramp=1.0
 $END
   3.656258e+03  -8.589928e+00
   2.251408e+03   2.010210e+03
  -2.208217e+02   2.295490e+03
  -1.610875e+03   1.162250e+03
  -9.598638e+02  -1.262537e+02
   2.068273e+02  -4.060114e+02
   5.572431e+02   2.326529e+02
   7.238534e+01   7.276701e+02
  -5.955465e+02   6.256818e+02
  -7.610558e+02   8.086468e+00
  -4.389687e+02  -6.045323e+02
   1.008408e+02  -7.466455e+02
   4.686094e+02  -1.683548e+02
   2.808361e+02   5.310631e+02
  -1.911917e+02   6.204131e+02
  -4.948068e+02   6.550438e+01
  -2.929763e+02  -5.327886e+02
   2.164982e+02  -6.061560e+02
   5.370259e+02  -2.186284e+02
   4.133217e+02   2.536287e+02
   6.162417e+01   3.811414e+02
  -1.340209e+02   3.022891e+02
  -1.763314e+02   6.341550e+01
   1.798460e+02   2.210922e+01
   3.653795e+02   2.009007e+02
   8.776251e+01   3.960720e+02
  -4.026166e+02   2.170955e+02
  -7.123685e+02  -8.186850e+01
  -2.231539e+02  -3.748248e+02
   3.429168e+02  -2.796180e+02
   5.538162e+02   5.794016e+01
   2.137179e+02   4.335198e+02
  -2.386243e+02   3.820305e+02
  -4.702744e+02   1.977032e+02
  -3.271695e+02  -1.618794e+02
  -1.059749e+02  -3.973418e+02
   7.733743e+01  -2.806017e+02
   4.559636e+01   1.987072e+02
  -7.339231e+01   2.786172e+02
  -3.127343e+02  -1.002668e+02
  -1.130060e+02  -5.160993e+02
   2.292115e+02  -5.502739e+02
   3.791914e+02  -1.947032e+01
   1.332348e+02   4.083685e+02
  -2.216772e+02   2.336876e+02
  -2.782280e+02  -2.549464e+02
   6.436834e+01  -4.271078e+02
   5.219150e+02  -8.781182e+01
   4.858257e+02   4.024175e+02
   1.958350e+02   4.835245e+02
  -2.768572e+02   2.835909e+02
  -5.538256e+02  -5.190725e+01
  -3.533099e+02  -3.052972e+02
   4.012389e+01  -3.031264e+02
   3.269155e+02  -9.854978e+01
   1.744341e+02   1.358976e+02
  -1.047706e+02   8.083585e+01
  -5.609433e+01  -1.383504e+02
   1.186452e+02  -9.890127e+01
   2.108008e+02   1.021273e+02
   5.946466e+01   2.697268e+02
  -1.641181e+02   2.188190e+02
  -3.164986e+02   8.931717e+01
  -1.878195e+02  -1.382037e+02
   2.481414e+01  -2.847416e+02
   2.314467e+02  -3.405629e+02
   3.333995e+02  -1.669357e+02
   2.374246e+02   1.420461e+02
   8.476173e+01   3.595849e+02
  -3.176952e+01   3.485370e+02
  -5.691180e+01   1.823447e+02
  -2.613071e+01   9.959405e+01
  -1.232178e+02   1.032013e+02
  -2.385625e+02   9.344233e+01
  -2.619742e+02  -7.173992e+01
  -9.704002e+01  -2.179472e+02
   1.131721e+02  -2.366576e+02
   2.270384e+02  -3.248664e+01
   1.604989e+02   2.356248e+02
  -2.099754e+01   2.686838e+02
  -2.166134e+02   3.936109e+01
  -3.386493e+02  -1.172457e+02
  -1.418751e+02  -2.768892e+02
   8.857598e+01  -2.534077e+02
   1.730276e+02  -8.753915e+01
   1.090880e+02  -8.024509e+01
   1.294069e+02  -3.551359e+01
   2.316004e+02  -4.631482e+01
   4.164725e+02   6.762761e+01
   3.177307e+02   2.771879e+02
  -1.349587e+01   4.353452e+02
  -3.100653e+02   4.690941e+02
  -4.692819e+02   1.967217e+02
  -3.071502e+02  -6.945150e+01
  -2.319199e+01  -2.959109e+02
   1.450093e+02  -1.946200e+02
   6.364667e+01  -1.410189e+01
  -8.915650e+01   1.085633e+01
  -1.566621e+02  -9.870180e+00
  -8.846652e+01  -1.653669e+02
   1.208639e+02  -1.359960e+02
   1.255356e+02   3.791673e+01
  -2.401016e+01   1.772171e+02
  -1.648208e+02   6.394306e+00
  -1.520334e+02  -2.331527e+02
   3.541045e+01  -3.458515e+02
   2.209532e+02  -1.909462e+02
   3.282875e+02   8.279499e+01
   2.942765e+02   2.322642e+02
   6.787511e+01   2.396322e+02
  -1.127885e+02   1.549693e+02
  -1.096966e+02  -5.441566e+01
  -7.034172e+01   2.683590e+01
   9.222922e+01   6.463807e+01
  -1.228241e+01   1.014770e+02
  -1.308641e+02   1.227805e+02
  -1.674981e+02   2.329781e+01
  -5.801362e+00  -8.008795e+01
   4.821570e+00   1.889653e+01
   6.438114e+01   6.990512e+01
  -1.134218e+02   1.410624e+02
  -2.904896e+02  -3.290754e+01
  -2.409474e+02  -1.863903e+02
  -1.351316e+01  -3.071087e+02
   1.748686e+02  -1.991302e+02
   2.806879e+02  -9.823705e+01
   1.134706e+02   4.749674e+01
  -4.805316e+00   1.160789e+02
  -8.219740e+01   1.188978e+00
   6.089775e+01  -1.106405e+02
   1.868366e+02  -7.121807e+00
   1.876104e+02   1.386272e+02
   5.701484e+01   2.177717e+02
  -9.847805e+01   1.175085e+02
  -1.534814e+02  -1.432912e+01
  -1.736529e+01  -3.571136e+01
   4.195560e+01  -2.065117e+01
   5.784235e+01   6.634960e+01
  -9.636003e+01   1.194938e+02
  -2.135438e+02  -2.282660e+01
  -2.045642e+02  -8.164821e+01
  -2.765795e+01  -1.902939e+02
   1.321780e+02  -1.815207e+02
   2.146710e+02  -3.291349e+01
   9.697806e+00   6.594519e+01
  -1.040817e+01   9.316274e+01
  -3.691625e+01   3.791850e+01
  -1.371127e+01   6.656832e+01
   5.712856e+01  -3.040148e+01
  -1.684684e+01  -1.125537e+01
  -5.864159e+01  -2.016310e+01
  -1.216773e+02  -1.188635e+02
   1.561572e+00  -1.524738e+02
   1.376883e+02  -1.514158e+02
   2.535917e+02   5.044773e+01
   2.472139e+02   1.561589e+02
   4.708795e+01   2.831161e+02
  -1.343558e+02   1.092869e+02
  -1.428159e+02   8.344226e+01
  -6.939081e+00  -1.766465e+01
  -7.998548e+00  -4.481225e+01
   1.633570e+01   1.533219e+01
  -8.931220e+01   1.630872e+01
  -1.947800e+01  -4.190207e+01
   8.965790e+01  -1.545299e+02
   9.814121e+01  -1.082404e+02
   6.462368e+01   7.105604e+01
  -4.690402e+01   1.070599e+02
  -1.754531e+02   1.289905e+02
  -1.432723e+02  -3.045477e+01
  -1.141463e+02  -1.708432e+02
   1.432670e+02  -1.993880e+02
   2.539642e+02  -8.707153e+01
   2.459049e+02   6.911384e+01
   1.017821e+02   1.925025e+02
   1.833423e+01   1.580345e+02
  -1.114939e+02   4.202927e+01
  -6.845825e+01   8.378437e+01
  -9.960019e+01   6.339866e+01
  -9.939919e+01   4.238512e+01
  -1.473779e+02  -2.687048e+01
  -1.169503e+02  -1.191360e+02
  -2.432727e+01  -2.095947e+02
   1.263713e+02  -1.533247e+02
   1.356594e+02  -6.817182e+00
   9.224649e+01   9.361740e+01
  -2.779217e+01   1.817774e+02
  -1.220429e+02   1.051403e+02
  -5.982076e+01  -3.281436e+01
   4.323699e+01  -3.112793e+01
   4.414435e+01   6.432680e+00
   4.495270e+00  -3.292480e+01
  -9.990645e+01   2.040460e+01
  -4.933273e+01  -2.879187e+01
   9.724007e+01  -1.777842e+01
   2.339736e+02   2.368571e+01
   1.589844e+02   1.148940e+02
  -2.682924e+01   1.194782e+02
  -1.374101e+02   1.482963e+01
  -1.426074e+02  -2.538909e+01
  -4.563426e+01  -8.183297e+01
   7.293869e+01  -7.068320e+01
   8.227753e+01   2.594465e+00
   3.285138e-01   6.798057e+01
  -2.095530e+01   3.027977e+01
  -3.952463e+01   1.125568e+01
  -7.658600e+01  -6.929464e+01
  -4.306569e+01  -6.693593e+01
  -5.611584e+01   2.338131e+01
  -3.001430e+01   1.000377e+01
  -1.715749e+01  -4.002364e+01
   2.892502e+01  -1.355071e+02
   1.497450e+02  -1.347708e+02
   1.273118e+02  -6.438203e+01
   1.628864e+02   8.610163e+01
   1.342580e+01   6.562331e+01
  -8.825763e+01   5.799394e+01
  -7.483424e+01  -1.586622e+01
   8.491049e+01  -3.644754e+01
   1.246952e+02   5.959821e+01
   3.192179e+01   1.040883e+02
  -5.250374e+01   9.286709e+01
  -1.925755e+02   9.689980e+01
  -8.441599e+01   3.180632e+00
  -3.267907e+01  -6.300754e+01
   1.081474e+02  -7.666183e+01
   8.184406e+01   3.565997e+01
  -2.694324e+01   6.942045e+01
  -6.370507e+01  -4.715085e+01
  -1.772809e+01  -9.634748e+01
   2.758132e+01  -2.073718e+02
   1.824076e+02  -1.062055e+02
   1.288152e+02   1.060813e+02
   6.989997e+00   1.870406e+02
  -8.965033e+01   1.369975e+02
  -8.150706e+01   2.250591e+01
  -5.384596e+01  -9.953133e+01
   6.292976e+00  -6.758466e+01
   9.340898e+00  -1.589595e+01
   2.592153e+01   8.379239e+00
   6.004939e+01   1.601803e+01
   5.019708e+01  -7.245456e+01
   2.297972e+01   2.045890e+01
   4.827644e+01   2.366445e+01
   7.238923e+01   9.178169e+01
  -7.104580e+01   5.397241e+01
  -1.182728e+02  -2.394178e+01
  -9.940694e+01  -5.050609e+01
  -3.003755e+01  -1.229922e+01
   8.683147e+01   5.705282e+00
   4.349659e+01  -5.422364e+01
   2.322025e+00  -1.455409e+01
  -2.300562e+01  -1.510703e+01
  -1.680689e+01   4.481038e+01
  -6.593150e+00  -1.891492e+01
  -8.920493e+00   1.030716e+01
  -1.254489e+02  -6.794126e+01
  -9.985096e+01  -2.561340e+01
   4.443704e+00  -4.906431e+01
   1.271657e+02  -6.742525e+01
   1.819758e+02  -1.071765e+02
   1.509926e+02   1.361031e+01
   3.877138e+01   1.543966e+02
  -4.846840e+01   1.674791e+02
  -8.421488e+01   3.765177e+01
  -6.781580e+01  -5.133543e+01
  -7.277326e+01  -7.770045e+01
  -4.820076e+00  -3.046739e+01
  -1.615972e-01  -3.086941e+01
  -4.712767e+01  -6.657549e+01
  -3.547280e+01  -9.412797e+01
   2.606951e+00  -8.620380e+01
   1.015153e+02  -2.839128e+01
   6.923810e+01   8.392277e+01
  -2.042084e+01   1.295475e+02
  -8.996788e+01   3.868296e+01
  -8.695026e+01  -6.072246e+01
   2.860232e+01  -1.095064e+02
   1.116009e+02  -5.544791e+01
   3.750532e+01   1.670836e+01
   2.493223e+00   5.987332e+01
  -2.220014e+01   1.140539e+02
  -9.650845e+01   3.222911e+01
   1.585226e+01   2.161045e+01
   6.932698e+01   1.146615e+01
   3.124231e+01   1.606798e+01
  -1.300814e+02   8.155543e+01
  -1.399455e+02   6.131948e+01
  -9.187257e+00  -3.499552e+01
   4.675864e+01  -9.175889e+01
  -8.574073e+00  -4.812246e+01
   8.883737e+01   1.310642e+01
   1.104809e+01   1.034807e+02
  -4.607336e+01   3.596009e+01
  -8.591763e+00  -5.474208e-02
   2.503137e+00  -4.673509e+01
   2.113783e+01  -5.275759e+01
   1.004895e+02   3.992400e+01
  -6.074070e+00   1.093182e+02
   1.228456e+01   1.813523e+01
   1.075156e+00  -4.411985e+01
   1.998676e+01   3.248828e+01
  -1.746503e+01   1.026357e+01
   5.152391e-01   1.049925e+02
  -2.826168e-01   3.686780e+00
  -5.183691e+01  -3.002352e+01
  -7.579664e+00  -2.133596e+01
   2.545549e+01   3.234749e+00
   9.619603e+01   2.201494e+01
   5.642281e+01   4.610841e+01
  -2.263903e+01  -1.401283e+01
  -9.633095e+01  -2.133970e+00
  -9.228119e+01  -2.579917e+01
   5.020068e+01  -4.406405e+01
   4.466035e+01  -4.610901e+01
  -5.701951e+01  -1.841033e+01
  -1.716028e+00   1.067845e+01
  -6.240449e+01  -1.003169e+01
   2.713801e+01  -1.894672e+01
   1.046908e+02  -3.811470e+00
