
 $NMID
 id='ANONYMOUS ', fmtdat='(2E16.6)'
 volume=1.0
 tramp=1.0
 $END
   2.466496e+03  -6.594007e+01
   1.728891e+03   1.149510e+03
   2.085601e+02   1.621913e+03
  -8.524064e+02   1.181725e+03
  -8.059741e+02   3.780170e+02
  -1.565668e+02  -1.041107e+02
   1.895970e+02   2.648420e+01
   7.067371e+01   3.095688e+02
  -2.394832e+02   4.761748e+02
  -5.022926e+02   9.415377e+01
  -4.269336e+02  -3.358590e+02
  -8.166689e+01  -5.203619e+02
   1.560964e+02  -2.058832e+02
   2.378368e+02   2.839972e+02
  -3.866701e+01   3.959410e+02
  -2.766557e+02   1.089403e+02
  -2.895041e+02  -3.396165e+02
  -2.713065e+00  -5.586970e+02
   3.443200e+02  -3.154643e+02
   3.725274e+02   1.382607e+02
   1.511878e+02   2.943165e+02
  -4.216977e+01   1.551667e+02
   1.311924e+01   8.077043e+01
   2.015154e+02   1.368967e+02
   9.054850e+01   2.897306e+02
  -1.177494e+02   2.509438e+02
  -4.003767e+02   1.387685e+02
  -4.724799e+02  -2.172474e+02
  -1.605426e+02  -3.200131e+02
   2.067003e+02  -9.521548e+01
   3.013840e+02   6.461913e+01
   1.277709e+02   2.594955e+02
  -2.291784e+02   2.245091e+02
  -3.342326e+02   1.191963e+02
  -2.241083e+02  -1.027859e+02
  -5.835165e+01  -2.080964e+02
   3.138966e+01  -1.578803e+02
  -1.806286e+01   9.800114e+00
  -1.198823e+02   7.443851e+01
  -1.215093e+02  -1.409478e+02
   2.331251e+01  -3.608394e+02
   1.821536e+02  -2.872110e+02
   1.978308e+02   2.063834e+01
   7.042022e+01   2.275341e+02
  -9.096358e+01   7.291614e+01
  -5.582096e+01  -2.060088e+02
   1.278464e+02  -2.953051e+02
   3.226072e+02  -5.405235e+01
   3.899184e+02   2.676742e+02
   1.161882e+02   3.901466e+02
  -2.196253e+02   2.247007e+02
  -3.563822e+02  -3.064170e+01
  -2.288536e+02  -1.804050e+02
   1.228288e+01  -1.111333e+02
   1.713148e+02  -1.234204e+02
   2.072254e+02  -3.430460e+01
   1.327789e+01   8.194583e-01
  -1.255755e+02  -1.837192e+01
   1.115903e+02  -3.785536e+01
   2.182098e+02   1.002589e+01
   1.132373e+02   1.667706e+02
  -1.182634e+02   2.090941e+02
  -3.083946e+02   1.349042e+02
  -2.275204e+02  -7.214189e+01
   4.514333e+01  -3.466259e+02
   2.577820e+02  -3.400302e+02
   2.662012e+02  -1.475875e+02
   1.563000e+02   8.353379e+01
  -5.272898e-01   3.188185e+02
   1.483463e+01   2.728241e+02
  -1.772337e+01   1.793949e+02
   1.836199e+00   1.909579e+02
  -1.230646e+02   1.017775e+02
  -1.761604e+02   1.135670e+01
  -1.584679e+02  -8.431226e+01
  -7.466738e+01  -1.860710e+02
   6.939571e+01  -1.404889e+02
   1.382760e+02   8.206437e+01
   6.579100e+01   2.414710e+02
  -1.579170e+01   2.295170e+02
  -1.417171e+02  -1.413922e+01
  -2.475419e+02  -1.467137e+02
  -1.453249e+02  -2.176144e+02
   5.141628e+01  -1.859239e+02
   1.596088e+02  -1.444063e+02
   1.163130e+02  -9.275913e+01
   1.959244e+02  -3.096965e+01
   2.672214e+02  -2.585844e+01
   3.718661e+02   7.896029e+01
   2.872735e+02   2.851006e+02
  -5.351419e+01   3.737716e+02
  -3.038240e+02   3.633519e+02
  -3.457452e+02   1.605570e+02
  -2.336234e+02  -1.024991e+02
  -9.117251e+00  -2.577081e+02
   1.894415e+01  -2.148106e+02
   6.260107e+01   1.469990e+01
  -5.966087e+01   7.114782e+01
  -1.285784e+02   9.134853e+00
   3.343021e+01  -1.238039e+02
   8.173647e+01  -3.421860e+01
   6.194586e+01   2.165777e+01
  -4.240908e+01   1.482768e+02
  -6.069361e+01  -7.308601e+01
  -9.174251e+01  -2.050281e+02
   8.482752e+00  -2.428335e+02
   1.396643e+02  -1.996448e+02
   3.344698e+02  -1.137618e+01
   2.119850e+02   2.294030e+02
   4.757057e+01   2.865676e+02
  -1.360342e+02   1.627830e+02
  -1.619328e+02  -5.468980e+00
   2.144718e+01  -6.691059e+01
   2.123200e+01   1.093923e+02
   7.358967e+00   1.157142e+02
  -1.127983e+02   2.949928e+01
  -1.023178e+02   3.674331e+01
  -2.130842e+01   1.760493e+01
   1.563649e+02   1.926365e+01
  -3.826087e+01   4.287932e+01
  -1.967169e+02   4.263708e+01
  -2.992335e+02  -2.493518e+01
  -1.943881e+02  -1.438823e+02
  -1.027599e+01  -2.452609e+02
   2.530891e+02  -2.403170e+02
   1.872636e+02  -8.792229e+01
   9.444580e+01   1.991631e+01
  -1.973159e+01   3.206044e+00
  -5.357942e+01   2.650800e+01
   7.056291e+01  -4.936849e+01
   1.384071e+02  -4.256927e+01
   1.416350e+02   5.080231e+01
   5.310703e+01   2.169526e+02
  -9.904797e+01   1.498891e+02
  -6.820024e+01   7.234499e+00
  -5.799442e+01  -4.108185e+01
   3.623273e+01  -1.508104e+01
   5.908088e+01   5.721414e+01
  -5.705741e+01   7.720763e+01
  -1.771505e+02  -2.273412e+01
  -1.661430e+02  -1.514834e+02
   2.443645e+01  -2.199813e+02
   1.250203e+02  -1.037287e+02
   1.174415e+02   1.531988e+01
   3.289138e+01   7.279618e+01
  -1.235707e+01   4.733950e+01
  -1.062169e+02   4.262308e+01
   2.595189e+01  -2.325317e+01
   1.601272e+01   1.361019e+00
  -4.338089e+00   3.764833e+01
  -8.389796e+01   4.432714e+01
  -4.409368e+01  -7.059658e+01
  -1.650818e+01  -2.081766e+02
   1.591470e+02  -1.016234e+02
   2.108619e+02   1.133419e+01
   1.884857e+02   1.665962e+02
   2.308484e+01   2.024020e+02
  -6.413813e+01   1.715497e+02
  -4.169002e+01   8.692260e+01
  -3.072281e+01  -1.019656e+02
   1.841415e+01  -5.039093e+00
  -2.010580e+01   1.373762e+01
  -4.901674e+01   5.085826e+01
  -8.257270e+01  -7.189359e+01
   2.272495e+01  -3.147611e+01
   1.354129e+02  -1.051144e+02
   7.618255e+01   7.152755e+01
  -9.907654e-01   5.227274e+01
  -1.393940e+02   4.827318e+01
  -1.566166e+02  -3.524295e+01
  -6.547344e+01  -1.970496e+02
   7.596672e+01  -1.530043e+02
   1.850846e+02  -5.771787e+01
   2.396965e+02   9.804110e+01
   1.052474e+02   1.246266e+02
  -1.620394e+01   9.548208e+01
  -5.616013e+01   1.207246e+02
  -6.939691e+01   9.224209e+01
  -6.098759e+01   3.404271e+01
  -8.826508e+01   8.383335e+01
  -1.241645e+02   8.438371e+00
  -1.231031e+02  -1.465411e+02
  -6.676928e+01  -1.814233e+02
   8.773003e+01  -1.513650e+02
   1.589401e+02   5.500606e+00
   8.010888e+01   7.892548e+01
   5.874546e+01   1.089125e+02
  -7.927576e+01   1.037188e+02
  -5.952205e+01  -4.737470e+01
   2.854808e+01  -3.426159e+01
   1.640034e+01   1.167550e+01
   1.887222e+01   1.303265e+01
  -8.768330e+01  -3.829219e+01
   1.425422e+01  -3.614919e+01
   1.173060e+02   5.849242e+00
   1.642167e+02   9.897424e+00
   1.124819e+02   6.137133e+01
   5.562909e+01   9.017347e+01
  -1.169115e+02   6.138882e+01
  -8.879232e+01   9.085716e+00
  -3.068370e+01  -6.802362e+01
  -6.281778e+00  -4.502425e+01
   6.817060e+01  -1.904583e+00
  -9.600263e+00   6.245333e+01
  -5.905719e+01   4.297063e+01
  -9.645939e+01   1.419950e+01
  -4.426802e+01  -8.331942e+01
  -4.827170e+01  -6.840258e+01
  -8.397418e+01   1.433136e+01
  -9.732613e+01   8.068420e+01
  -9.306833e+01  -5.910036e+01
   1.613672e+01  -1.445257e+02
   1.541316e+02  -1.473724e+02
   1.407695e+02  -4.458994e+01
   1.080310e+02   7.453297e+01
  -8.307483e+00   9.561496e+01
  -6.752223e+01   3.148051e+01
  -4.976495e+01   3.990864e+01
   6.355581e+01  -9.524343e+00
   9.672605e+01   5.707037e+01
   1.114898e+02   5.749228e+01
  -6.738173e+01   7.902030e+01
  -1.812670e+02   6.114743e+01
  -1.172754e+02  -3.036073e+01
   4.600672e+01  -6.384089e+01
   5.451948e+01  -7.496290e+01
   4.309197e+01  -3.007310e+01
   3.576981e+01   5.250944e+01
  -4.916920e+01  -2.918620e+01
  -5.297866e+01  -1.010508e+02
   1.026841e+02  -1.513540e+02
   1.691288e+02  -7.382412e+01
   7.394816e+01   6.604204e+01
   1.525808e+01   1.837606e+02
  -5.604480e+01   7.816967e+01
  -1.034803e+02  -4.692360e+01
  -5.628920e+01  -1.086063e+02
  -1.309704e+00  -1.095754e+02
   4.818038e+01  -5.712973e+01
   5.223588e+01   7.880752e+01
   2.677191e+01   1.008891e+01
  -1.391711e+00  -3.810039e+01
   3.908631e+01   1.451877e+01
   6.283737e+01   6.165433e+01
   2.285380e+01   1.181167e+02
  -3.761382e+01   1.458892e+01
  -7.379760e+01  -9.736575e+00
  -4.917077e+01  -3.071272e+01
  -4.431769e+01  -6.197089e+01
   1.852935e+01  -7.707845e+01
   5.239386e+01   8.282692e+00
   2.064928e+01   5.426139e+01
   2.849104e+01   1.234518e+01
  -4.367618e+01   5.216891e+01
  -8.417589e+00  -3.130701e+00
   1.113924e+01  -1.143896e+01
  -6.456829e+01  -5.544351e+01
  -6.404085e+01  -8.667419e+01
  -5.266316e+01  -7.728938e+00
   1.402853e+02  -4.777385e+01
   1.435300e+02  -7.544442e+01
   1.347518e+02   1.746659e+01
   1.705154e+01   1.755043e+02
  -4.036959e+01   1.214244e+02
  -8.196500e+01   7.974154e+01
  -7.344797e+01   2.473029e+01
  -1.165692e+01  -1.398739e+01
   1.646053e+01  -2.456896e+01
   1.104107e+01   1.920450e+01
  -1.363675e+01  -1.165934e+02
   5.994414e+00  -9.745445e+01
   1.461242e+01  -2.841976e+01
   8.899470e+01   7.364424e+01
   8.220013e+01   8.917631e+01
  -5.762775e+00   7.123145e+01
  -1.146493e+01   3.641133e+00
  -7.615451e+01  -8.531132e+01
  -5.569290e+01  -7.115273e+01
   3.125644e+01  -8.119905e+01
   9.324187e+01  -3.850206e+01
   1.123694e+02   1.127579e+02
  -5.890987e+01   4.064889e+01
  -1.143283e+02   3.194848e+01
   1.669121e+01   9.662680e+00
   1.155685e+02   1.155134e+00
   2.721974e+01  -1.016685e+01
  -8.251750e+01   1.435427e+02
  -7.665250e+01  -1.616478e+01
  -3.986756e+01  -3.440006e+01
  -3.731633e+01  -1.394955e+02
   1.105588e+02  -7.170498e+01
   1.675183e+01   6.190353e+01
   1.229664e+01   7.649532e+01
   8.273730e+00   7.118769e+00
   3.447797e+01  -1.624111e+01
  -1.017064e+02  -1.345010e+00
   5.744055e+01  -3.159588e+01
   1.863267e+01  -1.704033e+01
   4.390962e+01  -4.725034e+01
   4.575183e+01  -3.115516e+00
  -3.180722e+01  -1.813097e+01
  -2.314495e+01  -1.090474e+01
  -3.504342e+01  -1.547705e+01
   4.736305e+01   1.990561e+01
  -6.420971e+01  -3.118714e+01
  -4.997249e+01  -6.718502e+01
  -2.567246e+01  -6.844178e+00
   5.017442e+01  -4.919505e+01
   4.928130e+01   6.214548e+01
   2.532964e+01   8.347005e+01
  -6.775225e+01   4.713092e+01
  -4.734548e+01  -2.848593e+01
  -3.825408e+01  -4.485365e+01
  -1.678268e+00  -3.846783e+00
   2.349850e+01  -7.943824e+01
  -5.715102e+01  -3.360494e+00
  -3.053796e+01   5.610188e+00
   1.971404e+01  -5.084441e+01
  -5.497180e+00  -5.234414e+01
   7.456495e+01   2.586435e+01
