
 $NMID
 id='ANONYMOUS ', fmtdat='(2E16.6)'
 volume=1.0
 tramp=1.0
 $END
  -4.893651e+03   5.737948e+01
  -2.790647e+03  -3.018276e+03
   8.920318e+02  -3.124209e+03
   2.523235e+03  -9.480886e+02
   1.048448e+03   9.015075e+02
  -8.256129e+02   7.463528e+02
  -1.057093e+03  -5.022986e+02
   4.036602e+01  -1.273379e+03
   9.132618e+02  -8.871596e+02
   1.108450e+03   1.256924e+02
   5.032017e+02   9.483496e+02
  -2.771183e+02   1.069742e+03
  -7.550932e+02   8.591678e+01
  -4.857085e+02  -8.064602e+02
   3.247468e+02  -8.264215e+02
   7.092537e+02   2.165723e+01
   2.684598e+02   7.694616e+02
  -3.892922e+02   6.477967e+02
  -6.603171e+02   4.835240e+01
  -4.097849e+02  -4.063946e+02
   2.136661e-01  -4.026985e+02
   2.785221e+02  -3.216148e+02
   2.214705e+02   1.776546e+01
  -1.434207e+02   6.491996e+01
  -4.149148e+02  -1.169414e+02
  -2.337826e+02  -4.336460e+02
   4.731970e+02  -4.943194e+02
   9.589440e+02   1.573984e+01
   4.514096e+02   6.251167e+02
  -3.966291e+02   5.511887e+02
  -8.248841e+02   3.934883e+01
  -4.046322e+02  -4.874643e+02
   2.672714e+02  -5.726882e+02
   6.810520e+02  -2.212267e+02
   4.276533e+02   2.590503e+02
   1.224206e+02   5.668831e+02
  -2.438351e+02   3.282710e+02
  -1.790485e+02  -2.229024e+02
   1.517262e+02  -5.344232e+02
   4.794556e+02  -2.736878e+01
   3.130353e+02   7.233589e+02
  -3.000701e+02   8.290352e+02
  -7.190500e+02   3.567438e+01
  -3.245271e+02  -5.715721e+02
   3.427051e+02  -3.271859e+02
   4.521496e+02   3.325062e+02
  -3.019808e+01   6.059571e+02
  -5.883261e+02   1.696906e+02
  -6.939599e+02  -3.912610e+02
  -1.745679e+02  -6.833275e+02
   3.819722e+02  -3.884203e+02
   6.951758e+02   5.656329e+01
   4.504184e+02   3.670722e+02
  -1.861429e+02   3.937826e+02
  -4.568516e+02   6.681796e+01
  -2.594656e+02  -2.726351e+02
   1.550214e+02  -1.639305e+02
   1.360884e+02   1.805844e+02
  -1.734607e+02   2.332389e+02
  -4.426737e+02  -3.544378e+01
  -1.663471e+02  -3.400282e+02
   2.404410e+02  -2.572182e+02
   3.070021e+02  -6.375632e+01
   1.873045e+02   1.313879e+02
   1.405538e+00   1.836238e+02
  -1.956991e+02   3.280344e+02
  -3.677511e+02   1.945479e+02
  -3.434102e+02  -1.583272e+02
  -7.189908e+01  -4.640244e+02
   1.647260e+02  -4.187117e+02
   1.375305e+02  -1.083179e+02
   3.909590e+01   4.497815e+01
   8.157538e+01  -9.891572e+01
   1.560806e+02  -1.721915e+02
   3.265139e+02   3.393392e+01
   2.546418e+02   3.029911e+02
  -9.948107e+01   2.433372e+02
  -2.684908e+02   7.447648e+01
  -1.867717e+02  -2.264089e+02
   2.805010e+01  -3.228360e+02
   3.120914e+02  -1.399860e+02
   4.274068e+02   2.393802e+02
   2.483478e+02   4.134196e+02
  -1.826924e+02   3.286056e+02
  -3.075452e+02   1.147047e+02
  -1.092336e+02  -7.422891e+00
  -1.131109e+02   1.717424e+01
  -2.313067e+02   7.045549e+01
  -4.463394e+02  -8.125079e+01
  -3.064884e+02  -2.749965e+02
   2.003883e+01  -5.065391e+02
   3.832350e+02  -4.302564e+02
   5.965191e+02  -2.612057e+02
   3.613134e+02   6.518632e+01
   8.712408e+01   3.245771e+02
  -1.155056e+02   2.760073e+02
  -1.405842e+02   2.015941e+01
   9.477020e+01  -1.286355e+02
   2.296585e+02  -1.912613e+01
   9.257050e+01   2.088398e+02
  -1.585108e+02   2.380664e+02
  -2.167087e+02  -2.988024e+01
   1.541974e+01  -2.650847e+02
   1.722696e+02  -2.988916e+01
   1.086246e+02   2.061326e+02
  -3.402522e+01   3.182711e+02
  -2.199728e+02   2.092398e+02
  -2.822167e+02  -9.614304e+01
  -2.954012e+02  -3.067611e+02
  -1.005791e+02  -2.735070e+02
   1.350625e+02  -1.966348e+02
   1.363117e+02  -3.437711e+01
   1.556175e+01   9.719126e+00
  -1.005108e+02  -7.105518e+01
  -7.378485e+01  -6.989591e+01
   1.381269e+02  -1.379910e+02
   1.633550e+02  -5.896493e+01
   3.369580e+01   5.646911e+01
  -7.130958e+01   4.275390e+01
  -8.219607e+01  -7.155397e+01
   1.785937e+02  -3.945249e+01
   3.081020e+02   3.356801e+01
   2.650349e+02   1.304526e+02
   7.917490e+01   2.906785e+02
  -1.584895e+02   3.271282e+02
  -2.474725e+02   1.214539e+02
  -1.991570e+02  -9.282227e+01
   1.200423e+01  -1.027016e+02
   1.368106e+02  -3.344183e+01
  -3.754822e+00   1.282320e+02
  -2.489789e+02   6.287329e+01
  -2.274848e+02  -1.168112e+02
  -1.008302e+02  -2.186544e+02
   1.055399e+02  -2.150040e+02
   1.696944e+02  -4.127922e+01
   1.308987e+02   5.530485e+01
  -4.461174e+01   8.193594e+00
  -2.384773e+01  -6.931356e+01
   4.820709e+01  -1.390301e+02
   2.470802e+02  -5.296964e+01
   1.622035e+02   1.184662e+02
  -2.552244e+01   2.027947e+02
  -1.302747e+02   1.442256e+02
  -2.478313e+02  -2.586724e+01
  -6.724175e+01  -1.572706e+02
   5.179918e+01  -1.037202e+02
   1.202820e+02  -9.427211e+00
   4.214540e+01   6.176003e+01
  -2.880562e+00   9.260087e+01
   8.253270e+00  -4.427686e+01
   3.324132e+01  -2.384160e+01
   4.893163e+01   7.741458e+01
  -5.517807e+00   1.355561e+02
  -9.348164e+01   9.263903e+01
  -2.603091e+02   4.727126e+01
  -2.146624e+02  -1.857131e+02
  -5.229083e+01  -2.203995e+02
   1.164303e+02  -2.101664e+02
   1.967067e+02  -1.924228e+01
   1.096763e+02   1.028780e+02
  -2.567085e+01   5.763200e+01
   5.512597e+01   1.865332e+01
   7.003782e+01   1.893314e+01
  -1.406148e+01   7.685205e+01
  -3.280497e+01   9.517373e+01
  -1.041234e+02   6.256144e+01
  -6.927695e+01  -1.298825e+01
  -2.077371e+01  -4.501438e+01
   1.178893e+02  -7.645802e+01
   2.004348e+02   5.231332e+01
   1.338345e+02   1.922769e+02
  -1.016226e+02   2.343099e+02
  -2.587517e+02   7.658629e+01
  -3.170707e+02  -6.910963e+01
  -1.176210e+02  -2.305486e+02
  -1.420845e+01  -1.663100e+02
   7.930005e+01  -9.677729e+01
   9.506073e+01  -5.335979e+01
   1.046474e+02  -1.175093e+02
   7.101522e+01  -7.501030e+01
   1.639109e+02   1.267482e+01
   1.228930e+02   1.388323e+02
   1.085100e+01   2.363501e+02
  -7.457956e+01   2.150043e+02
  -1.947650e+02   1.641430e+01
  -8.386425e+01  -1.665357e+02
  -4.290043e+01  -1.322995e+02
   3.162428e+01  -1.112772e+02
   6.781858e+01  -3.341736e+01
   1.501601e+01   4.585895e+01
   2.745924e+01  -2.563322e-01
   4.743871e+01   1.178130e+01
   1.348986e+02   6.073385e+01
   4.468570e+01   4.511464e+01
  -2.418907e+01   5.787566e+01
  -1.075012e+02   5.809233e+01
  -1.341992e+02  -7.213463e+01
  -2.293097e+01  -1.007517e+02
   1.439885e+02  -8.641088e+01
   1.684604e+02  -2.895513e+01
   5.549186e+00   8.101574e+01
  -5.985362e+01   1.531035e+01
  -5.697546e+01  -3.093316e+01
  -3.866172e+01  -1.142831e+02
   3.587277e+01  -2.945691e+01
   6.287757e+01   1.321289e+01
   8.754797e+01   9.620609e+01
  -1.111577e+01   2.380105e+01
   4.379040e+01  -2.124653e+00
   8.682193e+01  -3.026753e+01
   6.111554e+01   4.878418e+01
  -2.688755e+01   1.646882e+02
  -9.719388e+01   1.726116e+02
  -1.436471e+02   2.553050e+01
  -1.169386e+02  -1.154481e+02
   2.236099e+01  -1.533604e+02
   9.162320e+01  -6.044871e+01
   3.870723e+01   5.942704e+01
  -6.498226e+01   1.986686e+00
  -1.709681e+02  -1.074071e+02
  -1.072608e+02  -1.512321e+02
   1.262265e+02  -1.564326e+02
   1.582794e+02   2.976230e+01
   1.676377e+02   5.724304e+01
   3.908808e+01   7.497521e+01
  -9.966210e+01   6.676701e+01
  -6.367964e+01   1.271057e+01
   1.708978e+01   3.946526e+00
   1.044771e+02  -2.624166e+01
   1.136389e+01   1.329363e+02
  -1.366125e+02   1.387433e+02
  -2.252291e+02   9.600446e+01
  -9.767281e+01  -1.469498e+02
  -2.289469e+01  -1.782992e+02
   1.372764e+02  -1.461114e+02
   1.372180e+02   3.523123e+01
   8.183881e+01   7.788629e+01
   1.986381e+01   5.977141e+01
  -2.073839e+01   2.212161e+01
  -5.684821e+01  -1.303272e+01
  -4.824381e+01  -7.190019e+00
   1.515283e+01   4.268249e+01
  -7.130015e+00  -3.614360e+01
  -6.043641e+01  -7.070901e+01
  -4.205868e+01  -1.248100e+02
   1.192919e+02  -5.515417e+01
   1.556671e+02   4.586388e+01
   1.387406e+02   6.842776e+01
   6.109427e+01   3.941618e+01
  -7.702286e+01   5.627365e+01
  -9.556551e+01  -2.885139e+01
   7.032412e+01  -2.921480e+01
  -1.439303e+01  -7.264512e+01
   1.872031e+01  -3.351868e+01
  -5.659955e+01  -1.820556e+00
   4.711360e+01  -2.284392e+01
   1.395703e+02  -3.648263e+01
   8.112811e+01   4.683816e+00
  -2.539780e+01   4.944063e+01
  -1.708397e+02   1.073521e+02
  -2.036660e+02   4.001939e+01
  -9.601999e+01  -7.665037e+01
  -2.211638e+01  -1.245349e+02
   7.739053e+01  -1.865869e+02
   1.564063e+02  -5.045975e+01
   1.496999e+02   1.081944e+01
   5.186552e+01   2.878408e+01
   4.835545e+01  -3.075683e+01
   1.703278e+01  -4.505204e+00
   6.018611e+01   2.425942e+01
   5.322919e+01   8.620039e+01
  -3.472197e+01   4.035663e+01
  -1.159626e+02  -5.373104e+01
  -9.590695e+01  -1.270935e+02
   8.311065e+00  -1.305620e+02
   2.596948e+01  -6.790772e+00
   8.707660e+01   2.744378e+01
   5.459506e+01   1.332302e+02
  -1.283660e+02   8.110946e+01
  -4.001542e+01   1.795905e+01
  -3.185286e+01  -3.294801e+01
   5.537003e+01  -7.080855e+01
   2.530837e+01   5.755040e+01
  -6.499129e+01  -4.213466e+01
  -8.178048e+01   2.779624e+01
   7.256931e+00   4.856640e+01
   1.154270e+02  -1.046693e+02
   1.275184e+02  -6.750492e+01
   6.434699e+01   9.875660e+00
  -6.125489e+00   1.066748e+02
  -9.620717e+01   8.410094e+01
  -6.397583e+01   1.554183e+00
   3.200295e+01  -3.709330e+01
  -3.570015e+00  -5.794171e+01
   4.546487e+01  -2.944123e+01
  -1.862272e+00   8.626757e+01
   5.260968e+01   2.897995e+01
   2.048313e+01   3.588245e+01
  -1.440056e+01  -9.825190e+00
  -2.388164e+01  -4.119265e+01
   2.491303e+01  -1.804894e+00
   1.603662e+01  -1.711376e+01
  -2.960947e+01  -7.341316e+01
   4.005721e+01  -1.074170e+02
   3.940216e+01  -5.653891e+01
   4.338491e+01  -1.143154e+01
  -4.247939e+01   4.573757e+01
  -5.683741e+01   5.767637e+01
  -5.432131e+01  -2.108777e+01
  -2.271292e+00  -1.208341e+02
   6.701938e+01  -7.455081e+01
   8.033544e+01   3.143359e+01
   3.544627e+01   5.837461e+01
  -6.085649e+01   1.000597e+02
  -6.349816e+01   3.025347e-01
  -1.821079e+01   2.262025e+01
  -4.719741e-01  -1.943285e+01
   4.849064e+01   2.346174e+01
  -2.962847e+01  -1.884401e+01
  -1.009657e+01   1.010878e+01
