
 $NMID
 id='ANONYMOUS ', fmtdat='(2E16.6)'
 volume=1.0
 tramp=1.0
 $END
   4.262682e+03   2.856325e+01
   2.457904e+03   2.550712e+03
  -6.397848e+02   2.670233e+03
  -1.932227e+03   9.316254e+02
  -9.041654e+02  -5.740052e+02
   5.573878e+02  -4.879055e+02
   7.924408e+02   4.476318e+02
  -8.840567e+01   9.734166e+02
  -8.687675e+02   7.682072e+02
  -8.591189e+02  -6.264024e+01
  -4.089407e+02  -8.342727e+02
   2.096864e+02  -8.202125e+02
   5.605437e+02  -1.030938e+02
   3.619885e+02   6.983968e+02
  -2.139137e+02   6.847433e+02
  -5.823906e+02  -8.894293e+00
  -2.868920e+02  -6.553394e+02
   2.512613e+02  -6.498553e+02
   5.410935e+02  -1.060617e+02
   3.687624e+02   2.669229e+02
   5.717413e+01   4.233600e+02
  -2.048117e+02   2.543964e+02
  -1.862817e+02   3.549963e+01
   9.200323e+01  -4.749155e+01
   4.706949e+02   1.733923e+02
   1.580696e+02   4.093414e+02
  -5.160707e+02   4.011909e+02
  -8.628584e+02  -1.537033e+02
  -3.266811e+02  -5.392428e+02
   4.489216e+02  -4.794902e+02
   7.257043e+02   9.161980e+01
   3.043211e+02   4.588496e+02
  -2.490287e+02   5.442100e+02
  -6.233247e+02   1.804921e+02
  -3.927541e+02  -2.183898e+02
  -7.321918e+01  -4.775231e+02
   2.139632e+02  -2.360057e+02
   1.544294e+02   2.221436e+02
  -1.893535e+02   4.186956e+02
  -3.877677e+02   3.320424e+00
  -1.302781e+02  -6.287215e+02
   3.421995e+02  -7.040548e+02
   5.670047e+02   2.702285e+01
   2.272797e+02   5.636807e+02
  -3.099331e+02   2.760370e+02
  -3.843230e+02  -3.184564e+02
   1.166644e+02  -5.444750e+02
   5.778043e+02  -1.719538e+02
   5.777697e+02   4.077828e+02
   1.447273e+02   5.797052e+02
  -4.120632e+02   3.957674e+02
  -5.753511e+02  -1.029681e+02
  -3.167293e+02  -3.373167e+02
   1.463333e+02  -3.613289e+02
   3.642594e+02  -8.891816e+01
   2.342406e+02   1.630208e+02
  -1.078065e+02   1.004629e+02
  -1.357617e+02  -1.283973e+02
   2.121741e+02  -1.870531e+02
   3.243662e+02   3.680877e+01
   1.305637e+02   2.610172e+02
  -2.230363e+02   2.602657e+02
  -2.778124e+02   7.460885e+01
  -1.720382e+02  -3.423082e+01
  -1.771529e+01  -2.696134e+02
   2.069289e+02  -3.922290e+02
   3.445281e+02  -2.250099e+02
   2.839688e+02   1.135857e+02
   2.632430e+01   4.367244e+02
  -9.515348e+01   4.032638e+02
  -6.477154e+01   1.428354e+02
  -4.297814e+01   1.028024e+00
  -6.241286e+01   1.006377e+02
  -2.951779e+02   1.665490e+02
  -3.243317e+02  -2.472395e+01
  -1.266655e+02  -2.639017e+02
   7.598646e+01  -2.378127e+02
   1.969367e+02   3.430330e+01
   1.525852e+02   2.425681e+02
   6.410523e+00   2.963838e+02
  -2.926736e+02   1.656098e+02
  -3.692403e+02  -1.731552e+02
  -1.320731e+02  -3.702684e+02
   1.417943e+02  -2.964395e+02
   2.364361e+02  -1.043060e+02
   1.487856e+02   2.594531e+01
   6.623593e+01   8.651413e-01
   2.533837e+02  -1.312183e+02
   3.872802e+02   9.279695e+01
   3.694435e+02   3.032394e+02
   5.385697e+01   4.625814e+02
  -3.876989e+02   4.162459e+02
  -5.229866e+02   1.512588e+02
  -3.462567e+02  -5.655454e+01
  -7.367930e+01  -3.479518e+02
   1.408397e+02  -2.873916e+02
   8.133527e+01   4.911028e+01
  -1.055862e+02   1.216084e+02
  -1.913288e+02  -1.086416e-01
  -4.073360e+01  -1.874083e+02
   1.454504e+02  -1.717037e+02
   2.380610e+02   7.665030e+01
  -2.350030e+00   1.872374e+02
  -1.779503e+02  -1.299878e+01
  -1.733213e+02  -2.615180e+02
   3.868719e+01  -3.247926e+02
   2.294370e+02  -2.317150e+02
   3.224343e+02   6.351436e+01
   3.042564e+02   2.739767e+02
   1.133999e+02   2.519987e+02
  -1.533456e+02   1.642892e+02
  -1.623374e+02   1.890322e+01
  -4.809617e+01  -7.561953e+01
   8.461246e+01  -3.554598e+01
  -4.627027e+00   8.853488e+01
  -1.559835e+02   5.601924e+01
  -1.726850e+02   1.476804e+01
  -4.733042e+01  -1.019125e+02
   7.187194e+01   1.886992e+00
   7.313541e+01   4.816600e+01
  -1.480070e+02   9.571493e+01
  -3.120755e+02   1.020112e+01
  -2.572984e+02  -1.498292e+02
  -5.339397e+01  -2.738828e+02
   2.057807e+02  -2.657666e+02
   2.896409e+02  -9.581022e+01
   1.309009e+02   4.666580e+01
  -4.373603e+01   1.345634e+02
  -1.166444e+02  -4.457534e+01
   7.772665e+01  -7.505830e+01
   1.906417e+02  -2.724646e+01
   2.025766e+02   7.799880e+01
   4.990879e+01   1.582880e+02
  -1.157072e+02   1.682107e+02
  -1.335929e+02   1.957165e+01
  -2.787592e+01  -3.320839e+01
   4.138996e+01  -1.034573e+01
   3.362890e+01   1.102237e+02
  -9.398061e+01   1.174334e+02
  -1.667517e+02   8.670177e+01
  -1.873989e+02  -1.662180e+02
   3.984153e+01  -2.185889e+02
   2.090933e+02  -2.052722e+02
   2.218662e+02   4.328635e+00
   6.040455e+01   1.096718e+02
  -1.769273e+01   1.120275e+02
  -1.088350e+02   6.946460e+01
  -4.474412e+01  -2.826603e+01
   1.392317e+01  -1.125120e+00
   1.392275e+01   2.317680e+01
  -9.172379e+01   9.125454e+01
  -6.274617e+01  -1.146290e+02
  -5.354198e+00  -1.595808e+02
   1.198461e+02  -1.335476e+02
   2.506956e+02   7.342300e-01
   1.952170e+02   1.507472e+02
   4.324546e+01   2.436915e+02
  -8.703334e+01   1.358255e+02
  -1.769892e+02   4.366509e+01
  -6.568999e+01   4.109885e+00
  -1.254944e+00  -1.037901e+02
  -7.081508e+01   5.479732e+01
  -8.156687e+01  -2.035516e+01
  -5.906892e+00  -1.124209e+02
   5.586046e+01  -9.784606e+01
   1.325816e+02  -4.515125e+01
   4.654868e+01   5.960676e+01
   7.900481e+00   1.737043e+02
  -8.168342e+01   1.139415e+02
  -1.831056e+02  -5.638073e+01
  -5.761451e+01  -2.186199e+02
   1.265437e+02  -2.537803e+02
   2.219778e+02  -1.166410e+02
   2.444922e+02   9.589860e+01
   1.350547e+02   2.147717e+02
   2.602780e+00   1.139160e+02
  -1.117694e+02   1.208301e+02
  -5.179124e+01   7.219688e+01
  -1.097554e+02   1.765301e+02
  -1.009282e+02   6.550235e+01
  -1.140567e+02   5.078121e+01
  -1.512328e+02  -2.006390e+02
  -4.529872e+01  -2.463975e+02
   4.993573e+01  -2.322760e+02
   1.810668e+02   3.100295e+01
   1.709895e+02   1.243693e+02
   4.173443e+00   1.827230e+02
  -6.064499e+01   8.893892e+01
  -7.989558e+01   5.640428e+01
   2.201829e+01  -5.954521e+01
  -9.007663e-01  -2.467746e+01
  -6.312014e+01  -2.859231e+01
  -5.709574e+01   4.800071e+00
  -4.071843e+01   1.142552e+01
   4.764698e+01  -4.787978e+01
   1.175085e+02  -1.722040e+01
   1.766167e+02   5.437936e+01
   2.643717e+01   9.357984e+01
  -1.389637e+02   1.204817e+02
  -1.546848e+02   2.529008e+01
  -3.876995e+01  -2.797466e+01
   8.246976e+01  -7.925408e+00
   1.156027e+02   2.933000e+01
  -1.151529e+01   1.126217e+02
  -5.900741e+01   6.269185e+01
  -1.000098e+02   1.871634e+01
  -2.053590e+01  -1.602215e+01
  -3.942060e+01  -8.381187e+01
  -7.629567e+01  -2.344168e+00
  -5.855829e+01   1.064623e+01
  -2.790869e+01  -7.031948e+01
   1.057507e+02  -1.718905e+02
   7.917721e+01  -1.536524e+02
   1.644981e+02   1.497610e+01
   7.560556e+01   1.524068e+02
   4.330060e+01   1.598102e+02
  -1.105083e+02   7.900170e+01
  -5.682817e+01  -8.635552e+00
   4.099149e+01   2.655903e+01
   1.333461e+02   6.092379e+01
   1.063189e+02   9.864586e+01
  -8.350022e+01   1.425967e+02
  -1.862262e+02   4.527753e+01
  -1.916193e+02  -2.776863e+00
  -4.625691e+01  -7.291679e+01
   1.785127e+01  -8.943029e+01
   6.728285e+01  -9.849504e+01
  -3.788043e+01   2.808516e+01
  -7.368598e+01  -5.804391e+01
  -5.124194e+01  -7.855560e+01
   1.195881e+02  -1.306826e+02
   1.777039e+02  -7.857804e+01
   1.570581e+02   6.245246e+01
  -8.784137e+00   2.253323e+02
  -6.148330e+01   1.457875e+02
  -6.139763e+01  -7.648026e+00
  -8.424237e+01  -1.476333e+02
   3.440526e+01  -1.567937e+02
   3.761255e+01  -3.929148e+01
   4.731338e+01   8.792210e+01
   3.065506e+01   3.907123e+00
  -7.324905e+00   1.095851e+01
   3.258337e+01  -3.317552e+01
   8.176257e+01   7.301239e+01
  -6.485891e+00   4.926132e+01
  -8.004429e+01   5.604519e+01
  -1.694287e+02   3.232518e+00
  -1.546732e+02  -9.626489e+01
  -4.821034e+01  -2.179165e+01
   3.542874e+01  -5.769862e+00
   2.671066e+01   4.552231e+01
   2.353576e+01  -1.876323e+01
  -5.119760e+01   2.014386e+01
  -4.363546e+01   6.240921e+01
   3.489334e+01   1.381488e+01
   8.576208e+01  -6.433922e+01
  -7.615124e+01  -7.650612e+00
  -7.583694e+01   3.703059e+01
   2.916338e+01  -3.108037e+01
   1.567993e+02  -1.044964e+02
   2.150747e+02  -8.167321e+01
   1.928299e+02   9.419241e+01
   2.028359e+01   1.724419e+02
  -1.107870e+02   1.262231e+02
  -1.069969e+02   7.656555e+01
  -1.174476e+02   3.855936e+01
  -3.354233e+01  -4.280164e+01
   4.288215e+01   3.492159e+01
  -2.073640e+01   6.551805e+00
  -5.704472e+01  -8.600758e+01
  -5.105791e+01  -1.401199e+02
  -4.960471e+01  -3.517045e+01
   8.659054e+01   3.227483e+01
   7.357666e+01   1.215365e+02
  -4.804055e+00   6.421450e+01
  -6.452465e+01  -7.280291e+00
  -1.400746e+02  -7.695796e+01
  -6.271139e+00  -1.339183e+02
   6.226554e+01  -7.934344e+01
   9.013602e+01  -3.965903e+00
   5.571127e+01   7.452275e+01
  -1.136267e+01   1.100731e+02
  -2.906605e+01  -3.845568e+01
  -1.096751e+01   3.225442e+01
   7.258408e+01  -2.110929e+01
   5.780986e+01   5.275346e+01
  -6.917256e+01   7.664804e+01
  -1.524691e+02   2.311254e+01
  -6.835643e+01   3.540829e+01
   3.526882e+01  -1.183020e+02
   5.890654e+01  -8.352350e+01
   7.680881e+01   4.573837e+01
   2.431114e+01   4.241764e+01
  -3.919346e+01   1.070768e+02
  -3.121334e+01  -2.096518e+01
  -8.422455e+01  -3.825672e+01
   2.251664e+01  -4.336243e+01
   6.278878e+01   1.144429e+01
   6.746442e+01  -5.021344e+01
   5.029556e+01   1.319511e+01
  -4.337370e+00   1.871738e+01
  -1.683208e+01  -3.154410e+01
  -4.278368e+01   3.613947e+01
   4.116771e+01   5.979077e+01
  -3.069175e+01  -9.364908e+00
  -4.193811e+01  -1.257797e+01
   2.002920e+01  -1.253175e+02
   5.192794e+00  -1.360250e+01
   1.031951e+02   4.727374e+01
   3.226921e+01   2.730098e+01
  -6.479474e+01   9.894135e+01
  -1.017327e+02   3.169991e+01
  -1.984854e+01  -9.594774e+01
   5.281502e+01  -1.246659e+01
   1.043780e+02  -2.742023e+01
   7.021459e+01   3.257601e+01
  -6.864902e+01  -3.191390e+01
  -2.088594e+01  -6.332368e+01
   1.715625e+01   4.812252e+00
   1.459202e+02  -3.151665e+01
