
 $NMID
 id='ANONYMOUS ', fmtdat='(2E16.6)'
 volume=1.0
 tramp=1.0
 $END
   3.490128e+03   1.364058e+02
   2.231849e+03   1.883058e+03
  -1.127259e+02   2.219500e+03
  -1.382094e+03   1.181700e+03
  -9.709598e+02   1.512697e+02
   6.166661e+01  -2.830076e+02
   4.401593e+02   1.833842e+02
   7.394030e+01   6.439589e+02
  -5.348194e+02   6.476766e+02
  -7.098234e+02   4.280847e+01
  -4.672000e+02  -5.936847e+02
  -2.307650e+00  -6.840068e+02
   3.750723e+02  -2.074251e+02
   2.215594e+02   4.729507e+02
  -1.846242e+02   6.034210e+02
  -4.795371e+02   3.904035e+01
  -2.762860e+02  -4.914022e+02
   1.991866e+02  -6.417507e+02
   5.215986e+02  -2.488825e+02
   4.158613e+02   2.350164e+02
   1.231815e+02   4.018514e+02
  -1.347605e+02   2.357178e+02
  -7.466293e+01   1.177067e+02
   2.013439e+02   4.748059e+01
   3.059290e+02   2.562622e+02
   1.770758e+01   3.599315e+02
  -4.939153e+02   1.808394e+02
  -6.810838e+02  -1.991111e+02
  -2.226497e+02  -4.460770e+02
   3.256363e+02  -2.651131e+02
   5.462233e+02   1.357493e+02
   2.032152e+02   3.769767e+02
  -2.496428e+02   3.914525e+02
  -4.577414e+02   1.470635e+02
  -3.069198e+02  -1.836865e+02
  -1.091861e+02  -3.442531e+02
  -3.920590e+00  -2.073977e+02
  -9.555942e-01   7.401089e+01
  -2.284116e+02   2.014584e+02
  -3.016739e+02  -1.644757e+02
   5.275910e+01  -4.602410e+02
   2.957992e+02  -4.590096e+02
   3.647131e+02  -4.991752e+01
   1.540925e+02   3.483169e+02
  -2.333219e+02   1.607515e+02
  -1.542029e+02  -3.557687e+02
   8.015980e+01  -4.416139e+02
   5.131797e+02  -5.757825e+01
   5.381766e+02   3.915471e+02
   8.183424e+01   5.226366e+02
  -3.531937e+02   3.092347e+02
  -5.612911e+02  -9.277035e+01
  -3.076185e+02  -3.205093e+02
   2.507591e+01  -2.866608e+02
   3.295160e+02  -1.069558e+02
   1.995395e+02   3.327782e+01
   5.287079e+00  -1.231376e+01
  -4.520785e+01  -3.015622e+01
   9.823853e+01  -6.956134e+01
   2.075358e+02   2.829615e+01
   1.522779e+02   2.231433e+02
  -1.770062e+02   1.750314e+02
  -3.625906e+02   8.457734e+01
  -2.941921e+02  -1.120364e+02
   9.274190e+01  -2.551511e+02
   3.131138e+02  -3.487272e+02
   4.245559e+02  -2.183741e+02
   1.886095e+02   1.363705e+02
   4.026329e+01   4.019921e+02
  -6.288118e+01   3.737393e+02
  -3.237556e+01   1.752605e+02
  -7.651670e+00   1.214330e+02
  -1.407233e+02   1.640800e+02
  -2.655464e+02   5.825634e+01
  -2.889265e+02  -1.228408e+02
  -7.937256e+01  -2.715941e+02
   1.310105e+02  -1.999238e+02
   2.037253e+02   8.990063e+01
   1.644987e+02   2.342566e+02
  -1.949366e+01   2.416473e+02
  -3.097309e+02   1.127712e+02
  -2.540687e+02  -1.687650e+02
  -1.998810e+02  -3.194511e+02
   5.148534e+01  -2.062016e+02
   1.841379e+02  -1.564736e+02
   1.604668e+02  -1.247597e+02
   9.588824e+01  -7.005747e+01
   2.769842e+02  -4.255135e+01
   3.733162e+02   1.264337e+02
   2.815865e+02   3.137366e+02
  -7.117240e+01   4.538390e+02
  -3.940856e+02   3.868034e+02
  -5.104575e+02   1.411809e+02
  -2.760123e+02  -1.578832e+02
   1.446486e+01  -2.803135e+02
   1.531748e+02  -2.320349e+02
   3.698352e+01  -1.388025e+01
  -1.171481e+02   1.635952e+00
  -1.148944e+02  -7.598776e+01
  -1.608634e+01  -8.214955e+01
   1.070433e+02  -7.890023e+01
   7.843384e+01   7.608313e+01
   3.386929e+01   1.155546e+02
  -1.378744e+02  -3.691986e+00
  -1.924480e+02  -2.229114e+02
   3.179719e+01  -3.523251e+02
   2.276290e+02  -1.941541e+02
   3.737899e+02   8.025393e+01
   3.049932e+02   3.065666e+02
   4.946397e+01   3.144574e+02
  -1.611286e+02   1.814003e+02
  -1.247926e+02  -4.443462e+01
  -1.555339e+01   8.117665e-01
   8.331470e+01   8.967610e+01
  -1.990087e+01   1.304104e+02
  -5.876333e+01   1.175664e+02
  -1.508495e+02  -1.860768e+01
  -2.139614e+01  -8.161752e+01
   1.519343e+01  -1.810766e+01
   2.167162e+01   1.248989e+02
  -1.559881e+02   7.753070e+01
  -3.156236e+02   2.018079e+01
  -2.938036e+02  -1.890327e+02
  -2.114892e+01  -2.233332e+02
   2.201020e+02  -2.645671e+02
   2.375152e+02  -8.325577e+01
   1.087798e+02   4.606301e+01
  -5.214185e+01   9.401592e+01
  -1.202888e+02  -5.140538e+01
   4.015575e+01  -1.012663e+02
   2.030311e+02  -7.494190e+01
   2.442033e+02   1.014661e+02
   2.377857e+01   1.806756e+02
  -1.303390e+02   1.641778e+02
  -1.636995e+02   9.146105e+01
  -3.583634e+00  -1.334309e+01
   5.607438e+01   4.120632e+01
   7.088688e+01   8.043642e+01
  -9.910371e+01   1.702013e+02
  -2.050780e+02  -3.468650e+01
  -2.062632e+02  -1.494112e+02
  -1.013281e+01  -2.304179e+02
   1.486800e+02  -1.186125e+02
   1.457846e+02   5.923529e+01
   4.723265e+01   1.263632e+02
  -6.286959e+01   8.581747e+01
  -9.714643e+01   2.058116e+01
  -2.808321e+01  -5.473967e+01
  -5.851545e+00  -4.253715e+01
  -5.390390e+01   5.490433e+01
  -7.416276e+01  -3.774043e+01
  -1.250666e+02  -5.238849e+01
  -6.823307e+00  -2.144634e+02
   6.977591e+01  -1.677580e+02
   2.295931e+02  -3.074241e+01
   1.879291e+02   1.099439e+02
   2.976472e+00   2.458086e+02
  -1.117980e+02   1.603485e+02
  -1.311321e+02   3.038358e+01
  -9.794498e+01  -3.287186e+01
  -2.243430e+01  -4.022420e+00
   1.683288e+01  -1.609518e-01
  -1.133374e+02   1.694754e+01
  -3.066480e+01  -3.359685e+01
   6.695371e+01  -1.114647e+02
   1.222143e+02  -2.235353e+01
   6.945766e+01   1.306590e+01
  -2.851329e+01   1.349021e+02
  -1.567999e+02   3.931435e+01
  -2.122382e+02  -1.116129e+02
  -5.757237e+01  -2.695508e+02
   1.511315e+02  -2.194428e+02
   2.191435e+02  -4.521957e+01
   2.236445e+02   9.853847e+01
   1.191034e+02   1.187590e+02
  -4.888369e+01   1.469584e+02
  -4.988935e+01   8.341817e+01
  -9.404358e+01   7.824714e+01
  -7.911692e+01   6.100793e+01
  -1.062374e+02   1.137477e+02
  -1.017237e+02  -4.362125e+01
  -1.778366e+02  -1.518335e+02
  -1.197821e+01  -2.405504e+02
   8.728081e+01  -1.838243e+02
   1.894501e+02   3.594805e+01
   1.192932e+02   1.133729e+02
  -2.949174e+01   1.711387e+02
  -2.689888e+01   4.921360e+01
  -4.006536e+01   1.669555e+01
   3.445876e+01  -5.587022e+01
   4.362992e+01   7.566080e+00
  -1.381268e+01   1.638798e+01
  -7.910158e+01  -5.229119e+01
  -4.902063e+01  -3.988525e+01
   9.220609e+01  -4.606038e+01
   1.724844e+02  -6.729849e-01
   9.781244e+01   1.063865e+02
   1.801606e+01   1.264649e+02
  -9.352111e+01   9.164663e+01
  -2.298805e+02   4.050057e+01
  -2.979889e+01  -4.302558e+01
   5.776129e+01  -1.377532e+01
   9.794189e+01   8.669884e+00
  -6.702574e+00   7.486873e+01
  -9.090364e+01   1.038589e+02
  -3.433181e+01  -1.980186e+01
  -2.956151e+01   5.077274e+00
  -4.578082e+01  -6.303329e+01
  -5.335131e+01   4.355310e+01
  -8.191626e+01   1.769510e+01
  -2.402355e+01  -3.875965e+01
   2.343909e+01  -1.600951e+02
   1.912665e+02  -1.509100e+02
   1.551751e+02   6.460762e+00
   1.384727e+02   1.180622e+02
  -2.151741e+01   1.226490e+02
  -1.080539e+02   1.165603e+02
  -6.056318e+01  -2.093428e+01
   4.156274e+01  -4.771532e+01
   1.089025e+02   5.206562e+01
   8.116579e+01   1.599703e+02
  -7.783864e+01   7.266328e+01
  -2.535826e+02   1.019989e+02
  -1.378303e+02  -4.552432e+01
  -4.137334e+01  -1.283458e+02
   1.085874e+02  -1.006748e+02
   5.789108e+00   1.710057e+01
  -3.598142e+01   3.793547e+01
  -9.005741e+01  -2.827296e+01
  -1.893615e+01  -8.211123e+01
   1.102194e+02  -1.660874e+02
   1.495940e+02  -1.112418e+02
   1.513744e+02   1.488381e+02
   1.537195e+00   1.999478e+02
  -8.576282e+01   1.165587e+02
  -1.219940e+02  -3.273002e+01
  -6.634176e+01  -1.534740e+02
  -2.896840e+01  -1.196595e+02
   6.261805e+01  -4.540259e+01
   4.558943e+01   2.437569e+01
   3.893407e+01   9.708642e+00
  -1.539604e+01  -5.244658e+01
   5.616797e+00   1.903826e+01
   9.008314e+01   1.114383e+02
  -3.325059e+01   1.491312e+02
  -2.249566e+01   4.446292e+01
  -1.628433e+02  -4.514895e+00
  -1.451941e+02  -1.031169e+02
  -3.450548e+01  -4.558377e+01
   7.559600e+01  -5.303500e+01
   8.101063e+01   2.258392e+01
   7.388569e+01  -3.991262e+01
  -1.082217e+02   1.074959e+01
  -3.591580e+01   2.007358e+01
  -2.203402e+01  -1.736026e+01
  -3.778169e+01  -2.006084e+01
   2.123147e+01  -2.012393e+01
  -1.108555e+02  -2.895297e+01
  -2.061543e+01  -3.714054e+01
   8.012952e+01  -1.200840e+02
   2.522809e+02  -5.952409e+01
   1.250780e+02   7.881259e+01
   7.395967e+01   1.507893e+02
  -8.625298e+01   1.472930e+02
  -1.382526e+02   9.004413e+01
  -6.075116e+01  -5.210781e+01
  -1.307176e+01  -2.329023e+01
   2.359017e+01  -2.770560e+01
   5.428598e+00   8.535826e-01
  -9.679744e+00  -9.261834e+01
  -3.018899e+01  -1.219284e+02
   9.463009e+01  -7.388388e+01
   1.318232e+02   4.848222e+01
   1.284152e+02   1.239802e+02
  -2.114956e+01   1.541042e+02
  -7.338854e+01   3.910874e+01
  -1.016399e+02  -6.499917e+01
  -6.067499e+00  -7.966713e+01
   5.155801e+01  -5.227154e+01
   1.017769e+02  -2.683515e+01
   6.888373e+01   8.144246e+01
  -3.706867e+01   5.909020e+01
  -1.164572e+02   9.656214e+01
  -1.998734e+01   3.388512e+00
   9.030607e+01  -6.640997e+00
   2.512918e+01   7.781432e+01
  -1.069829e+02   1.267567e+01
  -1.311611e+02   5.424946e+01
  -1.037497e+02  -2.165833e+01
  -3.594305e+01  -1.153894e+02
   6.824112e+01  -1.081873e+02
   2.869768e+01   1.143946e+01
  -1.531214e+01   4.808824e+01
  -2.428941e+01   2.829547e+01
  -1.031141e+01  -2.003408e+01
  -5.107093e+01  -5.700895e+01
   3.220758e+01  -2.646206e+01
   6.043261e+01   2.821139e+01
  -4.725085e+00   5.182104e+01
   5.886871e+01  -3.572582e+01
  -3.583487e+01  -2.539459e+01
   6.417427e+00   5.864150e+00
   2.508664e+00   4.339079e+01
   4.414412e+01   5.211037e+01
  -9.300771e+01   4.599158e+01
  -4.700845e+01  -2.076636e+01
  -7.726633e+01  -6.254091e+01
   5.812648e+01  -2.912809e-01
   1.480193e+01   3.644793e+01
   2.530768e+01   5.481119e+01
  -6.303107e+01   2.905065e+00
  -9.315210e+01  -2.622340e+01
  -4.999640e+01  -6.904032e+01
  -2.810702e+01  -6.515804e+01
   2.372727e+01  -6.844412e+01
   5.213064e+01  -7.961771e+00
   5.143532e+00  -3.128650e+01
  -2.522166e+01  -5.947289e+00
   1.544266e+01  -6.748223e+01
   1.190218e+02  -1.882243e+01
