
 $NMID
 id='ANONYMOUS ', fmtdat='(2E16.6)'
 volume=1.0
 tramp=1.0
 $END
  -3.642651e+03   1.051871e+02
  -2.302807e+03  -1.988275e+03
   2.905124e+02  -2.346907e+03
   1.601707e+03  -1.188407e+03
   9.545120e+02   1.953322e+02
  -2.143380e+02   3.840924e+02
  -6.513525e+02  -1.569890e+02
  -4.423429e+01  -7.084262e+02
   6.018964e+02  -6.667074e+02
   7.903855e+02  -9.362181e+01
   4.372412e+02   6.810357e+02
  -4.193441e+01   7.410495e+02
  -4.717480e+02   1.794523e+02
  -2.926302e+02  -5.194545e+02
   2.073296e+02  -6.200139e+02
   4.582630e+02  -8.611684e+01
   3.272145e+02   5.721519e+02
  -1.673450e+02   5.971369e+02
  -4.160090e+02   2.322643e+02
  -3.854398e+02  -2.713002e+02
  -1.278667e+02  -4.069138e+02
   1.037550e+02  -2.744125e+02
   1.322711e+02  -7.103997e+01
  -1.434973e+02  -3.819513e+01
  -3.226131e+02  -1.515923e+02
  -1.112957e+02  -3.699911e+02
   3.448513e+02  -3.125175e+02
   6.662218e+02   1.056516e+02
   3.494420e+02   4.276503e+02
  -3.329175e+02   3.655652e+02
  -6.254758e+02  -9.953428e+01
  -2.680054e+02  -3.383363e+02
   2.734005e+02  -4.465733e+02
   5.248514e+02  -1.900855e+02
   3.624007e+02   1.719253e+02
   8.220165e+01   3.671600e+02
  -5.845823e+01   2.691886e+02
  -9.719409e+01  -1.271989e+02
   1.779059e+02  -2.735050e+02
   3.355775e+02   6.423515e+01
   1.317018e+02   5.599690e+02
  -2.499253e+02   4.776843e+02
  -4.438967e+02   3.750617e+01
  -1.782837e+02  -4.372003e+02
   2.061154e+02  -2.660715e+02
   2.543958e+02   2.991384e+02
  -6.576565e+01   4.738293e+02
  -4.224567e+02   7.016895e+01
  -5.493905e+02  -3.374369e+02
  -1.673963e+02  -5.307857e+02
   3.504988e+02  -2.547719e+02
   5.730877e+02   7.011220e+01
   3.479326e+02   2.918453e+02
  -3.549712e+01   3.226055e+02
  -3.423377e+02   5.503057e+01
  -2.688267e+02  -1.267563e+02
   5.477822e+01  -6.148219e+01
   2.794039e+01   9.340054e+01
  -1.255455e+02   1.094170e+02
  -2.840889e+02  -3.538291e+01
  -1.233737e+02  -2.457663e+02
   1.410493e+02  -2.645262e+02
   3.727614e+02  -8.457768e+01
   2.482885e+02   6.379213e+01
   1.870248e+01   2.169288e+02
  -2.708094e+02   3.317827e+02
  -3.315708e+02   1.639249e+02
  -1.949168e+02  -1.098989e+02
  -8.837872e+01  -3.939922e+02
   6.438306e+01  -3.711225e+02
   1.038755e+02  -1.539791e+02
   1.252559e+00  -3.002139e+01
   6.235042e+01  -6.814993e+01
   1.747721e+02  -1.102221e+02
   2.543689e+02   7.054162e+01
   1.269776e+02   2.791130e+02
  -1.086790e+02   1.754993e+02
  -2.126841e+02   7.701781e+00
  -1.714048e+02  -1.897553e+02
  -4.767781e+01  -3.354007e+02
   2.675662e+02  -1.082783e+02
   3.256512e+02   1.990946e+02
   2.237367e+02   3.476388e+02
  -8.057971e+01   3.407298e+02
  -2.441821e+02   2.038282e+02
  -1.332996e+02   4.714642e+01
  -1.100789e+02   2.801633e+01
  -2.765564e+02   3.021009e+01
  -3.744725e+02  -7.372051e+01
  -2.909418e+02  -2.577307e+02
   5.185219e+01  -4.019324e+02
   3.266687e+02  -3.734943e+02
   4.540463e+02  -1.510775e+02
   2.805624e+02   1.029946e+02
  -7.601926e-01   2.898857e+02
  -1.186493e+02   2.001085e+02
  -3.822791e+01   6.190200e+01
   1.664869e+02  -9.542393e+01
   1.234199e+02   7.468367e+00
   6.485164e+01   1.729590e+02
  -9.592565e+01   9.364057e+01
  -1.508287e+02  -7.381107e+01
  -2.408760e+01  -1.493536e+02
   1.558920e+02  -2.005005e+01
   2.213033e+02   2.481826e+02
  -9.210290e+00   3.148078e+02
  -2.305034e+02   2.008872e+02
  -2.717767e+02  -6.920457e+01
  -2.870334e+02  -2.554872e+02
  -5.458425e+01  -2.171329e+02
   7.741466e+01  -1.379141e+02
   1.676416e+02  -3.905798e+01
   5.967237e+01   3.139219e+01
  -9.687405e+01  -6.157468e+01
  -5.163397e+01  -1.502818e+02
   1.022799e+02  -8.894776e+01
   1.201887e+02   4.130550e+01
   4.290667e+01   1.860488e+01
  -4.171175e+01  -3.218613e+01
  -1.530510e+01  -1.285064e+02
   1.584635e+02  -9.458730e+01
   2.590683e+02   1.453921e+01
   1.796643e+02   1.495864e+02
   7.715643e+01   2.024144e+02
  -1.867217e+02   2.081861e+02
  -2.774866e+02   1.053306e+02
  -2.218310e+02  -4.701619e+01
   6.813566e+00  -5.847794e+01
   6.339909e+01  -7.217293e-01
  -6.623866e+01   7.504896e+01
  -1.891126e+02   6.518388e+01
  -2.814923e+02  -1.051897e+02
  -6.427102e+01  -1.952484e+02
   8.682759e+01  -1.556230e+02
   1.356428e+02   2.098349e+01
   6.480895e+01   6.862382e+01
   1.882743e+01  -6.363511e+01
  -4.203885e+01  -1.017543e+02
   1.171800e+02  -1.052294e+02
   1.400484e+02  -6.737347e+01
   1.102716e+02   1.133725e+02
   3.249818e+00   1.946858e+02
  -1.843901e+02   2.075939e+02
  -1.552245e+02  -1.418810e+01
  -6.928104e+01  -9.029047e+01
   5.184870e+01  -1.469562e+02
   4.268377e+01  -3.743574e+01
   4.479459e+01   6.167408e+00
  -2.711328e+01  -3.037867e+01
   2.669797e+01  -2.412964e+01
   1.185024e+02   1.588790e+01
   8.426073e+01   6.762940e+01
   6.485359e+00   1.619487e+02
  -8.682828e+01   1.611993e+02
  -1.920854e+02   4.173451e+01
  -2.354107e+02  -1.741726e+02
  -5.199492e+01  -2.096383e+02
   6.221965e+01  -1.966879e+02
   7.285021e+01  -6.266568e+01
   3.674822e+01   1.386813e+02
   2.088698e+01   4.402710e+01
   1.208044e+02   4.087924e+01
   6.759478e+01  -8.378274e-02
   5.970132e+01   5.317379e+01
  -3.507115e+01   1.080248e+02
  -8.054782e+01   4.386855e+01
  -7.760267e+01  -5.101770e+01
   2.646856e+01  -9.264115e+01
   1.469305e+02  -9.127573e+01
   2.232428e+02   1.119637e+02
   7.262747e+01   1.551405e+02
  -1.323539e+02   2.180819e+02
  -2.551926e+02   1.478718e+02
  -2.816130e+02  -9.250520e+01
  -8.110129e+01  -1.608359e+02
  -8.016876e-01  -2.055043e+02
   9.073592e+01  -9.029813e+01
   1.021709e+02  -8.445231e+01
   1.011882e+02  -9.813484e+01
   1.270690e+02  -1.396305e+02
   5.108433e+01   8.283284e+01
   8.417345e+01   1.758113e+02
  -3.389339e+01   1.776078e+02
  -5.077149e+01   1.762192e+02
  -1.673625e+02  -2.159723e+01
  -1.374276e+02  -6.152825e+01
   2.699151e+00  -1.582004e+02
   6.541927e+01  -6.459827e+01
   8.249758e+01  -1.057874e+01
   9.188368e+00   1.132606e+02
  -6.185158e+00   3.273785e+01
   5.451606e+01   5.325894e+01
   1.022872e+02   6.999891e+01
   1.833310e+01   5.303646e+01
  -7.260691e+01  -2.243833e+00
  -1.719260e+02  -7.834376e+01
  -1.665782e+02  -2.542051e+01
   7.223126e+01  -1.341161e+02
   8.423475e+01  -1.556406e+01
   1.833081e+02  -7.032774e+01
   6.935947e+01   4.038261e+01
  -9.822619e+01   3.065468e+01
  -7.063956e+01  -1.825078e+01
   1.281417e+00  -3.875415e+01
   6.965404e+01  -3.261034e+01
   3.016958e+00   3.999140e+00
   4.321541e+01   5.003813e+01
   2.788064e+01   7.803130e+01
   5.905135e+01  -1.268510e+01
   3.232047e+01   3.247933e+00
   5.142735e+01   5.557638e+01
  -6.490275e+01   8.832074e+01
  -8.353547e+01   1.003320e+02
  -1.828921e+02  -1.462738e+01
  -1.428498e+02  -5.282569e+01
   1.438672e+01  -1.803510e+02
   4.014045e+01  -7.263116e+01
   4.669444e+01  -8.259285e-01
  -2.700704e+01   4.889503e+00
  -1.179932e+02   3.471640e+00
  -6.941289e+01  -1.400980e+02
   8.736180e+01  -1.070926e+02
   2.048196e+02  -2.256293e+01
   1.373002e+02   3.935039e+01
  -3.782034e+00   3.624901e+01
  -6.539651e+01   2.836218e+01
  -5.060475e+01  -9.272704e-01
   6.397536e+01   7.072087e+00
   4.640626e+01   2.888812e+01
   2.077169e+01   1.559446e+02
  -6.647511e+01   1.509622e+02
  -1.906025e+02   8.755296e+01
  -1.933130e+02  -5.313699e+01
   4.538770e+01  -2.325560e+02
   5.277108e+01  -1.144502e+02
   1.068854e+02  -1.045749e+01
   4.747685e+01   9.683782e+01
  -2.002059e+01   8.544726e+01
  -5.814472e+01   1.354629e+01
  -5.972030e+01  -2.957658e+01
   3.114483e+01  -1.033060e+01
  -3.776916e+01   1.471097e+01
  -3.104869e+01  -5.065324e+01
  -5.286683e+01  -1.274349e+02
  -4.020019e+01  -9.194362e+01
   4.883251e+01  -2.233977e+01
   1.291133e+02   4.643950e+01
   1.307131e+02   1.303745e+02
   2.256926e+01   6.125170e+01
  -9.478976e+01   1.056917e+01
  -1.051830e+02   1.997744e+00
  -4.680619e+01  -2.115541e+01
   5.562653e+01   1.352335e+01
  -4.661741e+01  -8.916665e+00
  -2.304818e+01  -1.082518e+01
   1.460397e+00  -1.432285e+01
   1.803490e+01  -1.289273e+01
   1.137762e+02   2.338740e+01
   1.803216e+01   4.444063e+01
  -1.077625e+02   7.872182e+01
  -1.964201e+02  -2.609817e+01
  -1.440059e+02  -6.371317e+01
  -3.539361e+01  -1.912467e+02
   1.049675e+02  -1.000042e+02
   7.018525e+01  -4.896553e+01
   1.106959e+02   1.519478e+01
  -1.464583e+01   8.946145e+01
   4.500834e+01  -1.447835e+01
  -5.820600e+00  -1.007904e+01
  -1.641145e+01   5.739630e+01
  -5.761303e+01   8.153979e+01
  -5.660003e+01   1.051965e+02
  -7.776107e+01  -4.290750e+01
  -2.481129e+01  -7.818253e+01
  -2.269905e+01  -1.679712e+02
   9.829688e+01  -2.395152e+01
   1.425917e+02   2.255878e+01
   4.742025e+00   1.318320e+02
  -9.569194e+01   5.268806e+01
  -1.230249e+02  -6.227376e+00
  -8.351001e+00  -6.619753e+01
   7.927300e+00  -4.453704e+01
   9.522779e+00  -8.229404e+01
   3.908168e+01  -5.806051e+00
  -9.818521e+01  -1.979662e+01
   1.292866e+00  -5.529457e+01
   1.047985e+02  -3.235767e+01
   1.456995e+02  -6.733313e+01
   1.146745e+02   2.159430e+01
   7.121102e+01   6.620857e+01
  -1.109463e+02   9.985238e+01
  -2.224433e+00   4.972429e+01
   3.331451e+01  -4.265677e+01
   4.651705e+01  -3.346568e+01
   3.804087e+01   3.515560e+01
  -1.078255e+00   7.113762e+01
  -1.306186e+01  -3.024202e+01
  -4.254092e+01  -1.672365e+01
  -3.326001e+01  -4.621282e+00
  -4.870128e+01   2.755847e+01
   1.794743e+01   7.300062e+01
   2.753864e+01   1.603763e+01
  -2.843605e+01   4.954747e+00
  -1.125274e+01  -4.617487e+01
   1.884236e+01   7.246573e+00
   5.266618e+01   1.210364e+00
   5.588403e+00   2.457112e+01
  -4.806399e+01  -1.188320e+01
  -5.527345e+01  -1.343560e+00
  -2.044512e+01  -9.728209e+01
  -9.265116e+00  -3.783773e+01
   9.344777e+01   5.047684e+01
   3.974992e+01  -5.817216e+00
   2.570709e+01   4.185730e+01
  -5.262059e+01  -2.365567e+01
  -3.311342e+01   1.999761e+01
   2.467639e+01  -4.948385e+00
   3.878221e+01   1.636284e+00
  -8.911713e+00   3.393500e+01
  -7.417117e+01  -3.050585e+01
