
 $NMID
 id='ANONYMOUS ', fmtdat='(2E16.6)'
 volume=1.0
 tramp=1.0
 $END
   3.312202e+03   8.934557e+00
   2.096614e+03   1.705796e+03
  -1.235335e+02   2.017334e+03
  -1.311017e+03   1.142542e+03
  -9.270814e+02   8.323864e+01
   5.965841e+01  -2.138428e+02
   3.500951e+02   1.647560e+02
   3.696047e+01   6.108926e+02
  -5.244768e+02   5.881605e+02
  -6.639512e+02   7.763320e+01
  -4.364227e+02  -5.044431e+02
   3.255956e+01  -6.631249e+02
   3.271783e+02  -1.505552e+02
   3.136158e+02   4.333552e+02
  -1.546241e+02   5.238040e+02
  -3.805248e+02   6.607291e+01
  -3.136872e+02  -4.828722e+02
   1.550654e+02  -6.280915e+02
   4.856917e+02  -2.461602e+02
   4.122218e+02   8.097148e+01
   6.657813e+01   3.419525e+02
  -1.549490e+02   1.829028e+02
  -8.219021e+01   8.371651e+01
   1.859275e+02   8.162955e+01
   3.220565e+02   2.116978e+02
  -3.303967e+01   3.980930e+02
  -4.141668e+02   1.500658e+02
  -6.033604e+02  -1.789976e+02
  -2.734810e+02  -4.179806e+02
   3.503709e+02  -2.837773e+02
   4.897478e+02   1.637344e+02
   1.938670e+02   3.632422e+02
  -2.440395e+02   4.048755e+02
  -4.813763e+02   1.354544e+02
  -3.624040e+02  -1.964941e+02
  -7.859947e+01  -3.330167e+02
   3.323245e+01  -1.768693e+02
  -4.745890e+00   6.231170e+01
  -2.244068e+02   1.870671e+02
  -2.228130e+02  -1.013793e+02
  -5.737497e+00  -4.780455e+02
   2.285041e+02  -5.117481e+02
   3.681846e+02   2.699425e+01
   8.816767e+01   3.617479e+02
  -1.654501e+02   1.275689e+02
  -1.671679e+02  -2.819340e+02
   1.305158e+02  -4.433684e+02
   5.045059e+02  -4.949935e+01
   4.756802e+02   3.774030e+02
   1.497852e+02   4.928231e+02
  -3.285211e+02   2.478074e+02
  -5.422359e+02  -8.955151e+01
  -3.437907e+02  -2.753814e+02
   1.042685e+02  -2.295821e+02
   2.784343e+02  -1.000666e+02
   1.747498e+02   7.738915e+01
   1.711927e-01   6.427492e+01
  -5.625500e+01  -3.451990e+01
   1.802662e+02  -4.658029e+01
   2.348984e+02   1.817515e+01
   1.582466e+02   1.718844e+02
  -1.723372e+02   2.212900e+02
  -2.687306e+02   7.650560e+01
  -2.043353e+02  -1.043994e+02
  -4.803918e+00  -3.279688e+02
   2.788686e+02  -3.234090e+02
   3.341483e+02  -1.855275e+02
   2.474326e+02   1.644809e+02
   9.839499e+01   3.655197e+02
  -2.941970e+01   2.993554e+02
  -2.367159e+00   1.651151e+02
  -1.118169e+00   5.441103e+01
  -1.157593e+02   1.278786e+02
  -2.491624e+02   1.346561e+01
  -2.635924e+02  -1.159692e+02
  -1.095336e+02  -2.428101e+02
   8.485365e+01  -1.324689e+02
   2.018514e+02  -1.743302e+01
   1.438655e+02   2.412969e+02
  -2.026979e+01   2.331897e+02
  -2.462280e+02   6.492058e+01
  -3.063725e+02  -1.606728e+02
  -1.385605e+02  -3.001103e+02
   7.107396e+01  -2.664134e+02
   1.902805e+02  -1.225364e+02
   1.742937e+02  -3.276593e+01
   1.124389e+02  -3.471449e+01
   3.050909e+02  -4.982328e+01
   3.791841e+02   1.295177e+02
   2.992914e+02   3.293540e+02
  -2.409807e+01   4.576070e+02
  -3.619029e+02   3.932051e+02
  -4.782483e+02   2.248264e+02
  -2.526145e+02  -1.300560e+02
   5.044368e+01  -3.175659e+02
   7.018752e+01  -1.488209e+02
   1.418207e+01  -2.599028e+01
  -1.085999e+02   3.231186e+01
  -1.195330e+02  -5.054276e+01
  -1.843998e+01  -1.281011e+02
   1.350389e+02  -1.249136e+02
   1.136665e+02   4.860791e+01
  -6.849957e+01   2.645804e+01
  -1.627729e+02   7.451339e+00
  -1.531214e+02  -1.649161e+02
   7.292000e+01  -3.452041e+02
   2.079534e+02  -2.448707e+02
   3.474002e+02   3.691593e+01
   2.732110e+02   2.718717e+02
   1.259257e+02   2.560060e+02
  -1.409740e+02   1.281571e+02
  -1.345880e+02  -1.996026e+01
  -3.027307e+01  -6.102319e+01
   5.785857e+01   6.742133e+01
   4.622732e+01   1.164361e+02
  -9.161261e+01   3.617685e+01
  -2.079718e+02  -5.842003e+01
   2.507376e+01  -8.509419e+01
   4.949760e+01  -1.812329e+01
   4.340958e+01   1.027682e+02
  -1.472548e+02   9.978338e+01
  -3.442369e+02   2.936874e+01
  -2.805652e+02  -1.834914e+02
  -5.821712e+01  -2.509370e+02
   1.936615e+02  -2.775124e+02
   2.527240e+02  -1.134804e+02
   1.260602e+02   8.436739e+01
  -7.489411e+01   1.039430e+02
  -9.675531e+01  -3.138002e+00
   3.775595e+01  -8.793317e+01
   1.786503e+02  -5.974096e+01
   1.122382e+02   8.025818e+01
   8.163026e+01   2.174841e+02
  -2.780638e+01   1.594949e+02
  -1.568301e+02   8.407491e+01
  -4.176175e+01  -6.839223e+01
   8.671094e+01   2.437942e+00
   8.487096e+01   1.523901e+02
  -1.246871e+02   6.317961e+01
  -2.516813e+02  -2.992304e+01
  -1.497881e+02  -1.870541e+02
  -2.946044e+01  -1.676211e+02
   1.599292e+02  -2.328324e+02
   1.647716e+02  -4.447158e+01
  -2.017111e+00   7.382989e+01
  -1.033847e+02   1.260757e+02
  -2.959515e+01   2.844995e+01
   1.287159e+01   2.797786e+00
   6.238938e+01  -2.305405e+01
  -4.870746e+00   4.031506e+01
  -1.216103e+02   6.648928e+00
  -1.188814e+02  -1.168491e+02
  -7.075560e+00  -2.107889e+02
   9.661020e+01  -1.885914e+02
   1.903868e+02  -5.039274e+00
   2.108432e+02   1.557994e+02
   5.623290e+00   2.159135e+02
  -1.253884e+02   1.614858e+02
  -1.828180e+02   2.803786e+01
  -8.902771e+01  -4.843818e+01
   2.753680e+00  -5.472698e+00
  -3.164200e+01  -6.160194e+01
  -6.370001e+01   3.124238e+01
  -5.591867e+01  -4.620988e+01
   6.740739e+01  -1.074899e+02
   1.331217e+02  -1.153295e+02
   1.043890e+02   2.081089e+01
   5.969355e+01   1.261818e+02
  -1.708739e+02   1.119283e+02
  -1.684839e+02  -7.420341e+01
  -9.805411e+01  -1.461941e+02
   1.320600e+02  -2.044613e+02
   2.276037e+02  -8.150830e+01
   2.291341e+02   6.892180e+01
   1.001405e+02   2.037852e+02
  -2.360139e+01   1.167573e+02
  -1.043171e+02   8.633662e+01
  -5.485521e+01   4.795161e+01
  -2.822400e+01   6.566971e+01
  -1.469852e+02   8.883138e+01
  -1.215054e+02   2.181089e+00
  -9.857256e+01  -1.530954e+02
  -3.859913e+01  -2.071469e+02
   1.446433e+02  -1.442747e+02
   2.187374e+02   1.916698e+01
   1.063663e+02   1.350042e+02
   4.218686e+01   1.027172e+02
  -4.200224e+01   1.024068e+02
  -6.163898e+01   1.561097e+01
   2.438399e+01  -4.346091e+01
   1.374624e+00  -2.708866e+01
  -9.668539e+01  -1.658267e+01
  -9.202218e+01  -1.022187e+02
  -1.149442e+02  -4.324289e+01
   5.180995e+01  -4.164704e+01
   1.868634e+02  -1.208472e+01
   1.424061e+02   4.575847e+01
   6.782814e+01   8.937269e+01
  -1.294591e+02   2.487315e+01
  -1.358662e+02   2.035401e+01
  -1.865571e+01  -5.016180e+01
   5.861044e+01   1.203391e+01
   5.100668e+01   1.618266e+01
   2.450564e+01   4.464290e+01
   4.706642e+00   1.005795e+02
  -7.459252e+01  -3.316438e+00
  -8.306782e+01  -5.746596e+01
  -7.078230e+01  -9.415995e+01
  -1.159109e+02  -4.623531e+01
  -1.216680e+02  -4.420600e+01
  -2.815696e+01  -1.011725e+02
   3.427278e+01  -1.564572e+02
   1.198098e+02  -1.189503e+02
   1.832347e+02   2.668780e+01
   1.360022e+02   1.189816e+02
  -5.556528e+00   8.529661e+01
  -1.548955e+02   6.450258e+01
  -1.240158e+02   1.772457e+01
   5.177723e+01  -7.185599e+01
   1.619395e+02   3.391980e+01
   6.468609e+01   1.002850e+02
  -9.409132e+01   1.005211e+02
  -2.256248e+02   6.718985e+01
  -1.494418e+02  -7.960973e+00
  -5.681242e+01  -1.224379e+02
   4.047008e+01  -2.757213e+01
  -5.583730e+00   4.471757e+00
  -7.796340e+01   1.913440e+01
  -1.285947e+02  -5.531520e+01
  -6.147887e+01  -4.808705e+01
   4.647992e+01  -1.412334e+02
   1.149714e+02  -6.994607e+01
   1.321837e+02   7.477800e+01
   1.887477e+01   1.458948e+02
  -6.901566e+01   1.791913e+02
  -1.238674e+02  -4.520536e+01
  -5.625481e+01  -1.350174e+02
   8.530670e+01  -1.174959e+02
   2.742865e+01  -6.283532e+01
   5.778743e+01   4.474367e+01
   1.943100e+01  -1.795578e+01
  -4.527443e+01  -4.236921e+01
  -8.884582e-01  -6.243651e+00
   4.632022e+01   9.001262e+01
   6.308169e+00   1.011433e+02
  -6.243127e+01   4.013317e+01
  -1.095129e+02  -3.246190e+01
  -1.077953e+02  -2.867363e+00
  -5.075835e+01  -1.151180e+01
   6.560789e+01  -7.335362e+01
   5.461507e+01  -3.247944e+01
   2.894559e+01   7.987345e+01
  -1.893896e+01  -1.268850e+01
  -2.620760e+01   3.986294e+01
   1.414428e+01   9.160943e+00
   2.230710e+01  -7.169212e+00
  -7.546682e+01   1.373621e+01
  -6.970087e+01  -4.842201e+01
  -4.244779e-01  -1.040305e+02
   4.628630e+01  -1.416458e+02
   1.584885e+02  -1.957257e+00
   1.702954e+02   3.337101e+01
  -3.181828e+00   1.529285e+02
  -7.671064e+01   1.797695e+02
  -1.134486e+02   2.709202e+01
  -6.022069e+01  -4.149108e+01
  -2.629666e+01  -7.689126e+01
   2.017668e+01   4.965279e+00
  -1.660031e+01  -3.288717e+01
  -2.286786e+01  -9.288198e+01
  -1.374480e+01  -6.164646e+01
   1.222208e+02  -8.198783e+01
   5.607910e+01  -5.557398e+00
   8.202636e+01   9.655740e+01
   1.414852e+01   1.224135e+02
  -2.945601e+01   5.662370e+01
  -8.767265e+01  -3.871452e+01
  -6.226794e+01  -7.041424e+01
   5.484781e+01  -4.364258e+01
   1.292079e+02   2.895648e+01
  -5.720783e+00   1.211058e+01
  -5.537526e+01   8.994237e+01
  -4.137529e+01   1.556789e+01
  -2.628631e+01   1.992517e+01
   2.369911e+01   4.352138e+01
   3.221028e+01   7.030017e+00
  -8.386407e+01   9.158827e+01
  -7.047880e+01   5.460278e+01
  -1.846329e+01  -4.084586e+01
  -6.208707e-01  -2.552838e+01
   1.026510e+02  -8.361726e+01
   5.325484e+01  -6.186066e+00
   8.605561e+01   2.911059e+01
  -6.809436e+00   8.174191e+01
  -1.967287e+01   1.080813e+01
  -2.391471e+01  -9.435050e+01
  -1.391850e+01  -5.061729e+01
   5.275283e+01   1.343840e+01
   8.434439e+01  -1.521546e+01
   9.827660e+00  -8.378875e+00
   2.851443e+01  -3.948991e+00
  -6.050344e+00  -2.582233e+01
  -2.699603e+01  -1.762631e+01
   1.135860e+01   7.410370e+01
  -2.635884e+01   4.025470e+00
  -8.319070e+01  -4.604267e+01
   2.611041e+01  -3.118379e+01
   2.997308e+01  -2.717343e+01
   2.666951e+01   3.669947e+01
  -1.005347e+01   1.872479e+01
  -7.812259e+01   2.000137e+01
  -8.668421e+01  -2.095243e+01
  -9.274820e+01  -3.171508e+01
   3.194778e+01  -6.133245e+01
   4.851798e+01   8.178505e+00
   3.871014e+01  -2.950128e+01
  -1.779472e+01   1.313827e+01
  -1.400279e+01   1.789566e+01
   2.703711e+01  -6.260755e+00
   1.079229e+02  -4.854633e+01
