
 $NMID
 id='ANONYMOUS ', fmtdat='(2E16.6)'
 volume=1.0
 tramp=1.0
 $END
  -4.567488e+03  -4.210795e+01
  -2.516256e+03  -2.760270e+03
   8.538645e+02  -2.827443e+03
   2.268976e+03  -8.356083e+02
   9.149705e+02   7.996896e+02
  -8.644067e+02   6.504252e+02
  -9.375396e+02  -4.996805e+02
   3.986594e+01  -1.142588e+03
   9.381049e+02  -8.222439e+02
   1.017712e+03   1.068878e+02
   4.154656e+02   9.152911e+02
  -2.590262e+02   9.472492e+02
  -6.640854e+02   1.021652e+02
  -4.025257e+02  -7.688596e+02
   3.072234e+02  -7.432828e+02
   6.233803e+02   2.719277e+01
   3.287284e+02   7.158945e+02
  -3.998936e+02   6.758897e+02
  -5.525073e+02   5.422055e+01
  -3.988428e+02  -4.321414e+02
  -9.155137e+00  -4.702429e+02
   2.940057e+02  -2.630800e+02
   2.281902e+02   3.406399e+00
  -6.598229e+01   1.081058e+02
  -4.174709e+02  -1.465418e+02
  -1.907971e+02  -4.758762e+02
   4.378923e+02  -4.645744e+02
   9.133551e+02   7.082334e+01
   3.930351e+02   5.961715e+02
  -4.271263e+02   4.661914e+02
  -7.778514e+02  -5.604550e+00
  -4.003708e+02  -5.189768e+02
   3.019611e+02  -5.533209e+02
   5.788828e+02  -1.990775e+02
   4.090584e+02   2.628021e+02
   1.236756e+02   5.358084e+02
  -2.127014e+02   3.352122e+02
  -2.239864e+02  -2.741039e+02
   1.674786e+02  -4.699546e+02
   4.442472e+02  -3.582655e+01
   2.644922e+02   6.632709e+02
  -3.129887e+02   7.462566e+02
  -6.308025e+02  -3.519517e+01
  -2.379324e+02  -5.303628e+02
   3.394987e+02  -3.814892e+02
   4.400326e+02   3.143994e+02
  -5.169899e+01   5.752430e+02
  -5.492095e+02   1.478877e+02
  -6.598444e+02  -3.984134e+02
  -1.790647e+02  -5.975208e+02
   3.627693e+02  -3.049943e+02
   6.613596e+02   1.180283e+02
   3.670816e+02   4.168812e+02
  -1.370794e+02   3.747542e+02
  -5.048100e+02   2.085894e+01
  -2.305395e+02  -2.341663e+02
   1.455346e+02  -1.176763e+02
   1.654482e+02   1.567689e+02
  -1.871863e+02   2.478098e+02
  -3.867025e+02  -3.970440e+01
  -1.299308e+02  -3.401372e+02
   1.876125e+02  -2.376675e+02
   3.420015e+02  -4.735253e+01
   1.702760e+02   6.426913e+01
  -2.492541e+01   2.268903e+02
  -1.628769e+02   3.045700e+02
  -3.573621e+02   2.548827e+02
  -2.807876e+02  -1.210611e+02
  -1.172962e+01  -4.697846e+02
   1.349397e+02  -3.568540e+02
   1.292062e+02  -9.317040e+01
   1.991014e+01   7.060060e+01
   6.730829e+01  -9.277720e+01
   1.852340e+02  -1.286310e+02
   2.798008e+02   1.524798e+01
   1.949578e+02   3.040858e+02
  -1.135905e+02   2.848229e+02
  -2.161320e+02   1.376826e+01
  -2.112580e+02  -2.750134e+02
  -1.948293e+01  -3.106291e+02
   2.706938e+02  -1.192771e+02
   3.412531e+02   2.029884e+02
   1.844786e+02   3.366554e+02
  -1.331406e+02   2.823410e+02
  -2.633855e+02   9.354716e+01
  -1.945270e+02  -4.395879e+01
  -1.024828e+02   6.421524e+01
  -2.098753e+02   7.362482e+01
  -4.427273e+02  -1.812799e+01
  -4.089946e+02  -2.891261e+02
   4.234584e+00  -4.646052e+02
   3.763487e+02  -3.984335e+02
   4.866883e+02  -1.929452e+02
   3.119251e+02   7.278254e+01
   6.712587e+01   3.153471e+02
  -1.504496e+02   1.687433e+02
  -1.530398e+02   5.105154e+01
   1.076460e+02  -1.447802e+02
   1.501008e+02   1.683368e+00
   3.671746e+01   2.282653e+02
  -1.534423e+02   1.999631e+02
  -1.923443e+02  -3.774887e+01
   4.362782e+01  -2.073787e+02
   2.481884e+02   1.724742e+00
   1.342792e+02   2.424803e+02
  -6.388239e+01   3.451251e+02
  -2.934362e+02   1.685724e+02
  -3.769691e+02  -7.004409e+01
  -2.556031e+02  -2.560422e+02
  -5.168671e+01  -2.995833e+02
   1.237241e+02  -2.218967e+02
   1.434977e+02  -4.651332e+01
   1.317787e+01   4.984006e+01
  -1.241515e+02  -1.405201e+01
  -3.842135e+01  -1.311921e+02
   1.475064e+02  -1.112266e+02
   2.325858e+02   2.664874e+01
   4.634762e+01   5.995068e+01
  -1.020937e+02  -1.731416e+00
  -6.755886e+01  -1.256773e+02
   1.255991e+02  -4.762374e+01
   3.487817e+02   8.852276e+00
   2.531894e+02   1.292328e+02
   5.604717e+01   2.679879e+02
  -2.422821e+02   2.858125e+02
  -3.057712e+02   1.088072e+02
  -2.079786e+02  -3.778758e+01
   3.437187e+01  -8.015730e+01
   6.534892e+01   3.859338e+01
  -5.917167e+01   1.192752e+02
  -1.992188e+02   1.331462e+01
  -1.911354e+02  -1.164776e+02
  -6.033822e+01  -2.326226e+02
   1.270342e+02  -1.220543e+02
   1.183765e+02  -4.570482e+01
   3.390705e+01  -3.241625e+00
  -1.874217e+01  -2.275710e+00
  -3.939739e+01  -1.277390e+02
   2.488506e+01  -1.441729e+02
   1.430726e+02  -2.324526e+01
   1.895535e+02   1.571084e+02
   4.685526e+01   2.086164e+02
  -1.637904e+02   1.962618e+02
  -1.800144e+02   4.592881e+00
  -7.562546e+01  -9.468536e+01
   5.215934e+01  -1.253250e+02
   9.334083e+01  -9.713649e+00
   4.849885e+01   7.930311e+01
  -2.914442e+01   2.482158e+01
  -7.135466e+00  -1.001794e+01
   5.062005e+01   4.281757e+01
  -5.069732e+00   5.884818e+01
  -1.219922e+01   1.924468e+02
  -7.981313e+01   1.615990e+02
  -2.858381e+02  -3.720563e+01
  -2.041331e+02  -1.859542e+02
  -2.404202e+01  -2.195802e+02
   1.417769e+02  -2.067104e+02
   1.223811e+02  -2.063659e+01
   5.204310e+01   8.953819e+01
   8.142094e+01   5.339201e+01
   6.671544e+01  -4.862584e+00
   9.873273e+01  -2.511720e+01
   9.530259e+01   5.032082e+01
  -3.076724e+01   8.279103e+01
  -1.053897e+02   6.388099e+01
  -1.264188e+02  -5.941590e+01
   3.867062e+01  -9.574954e+01
   1.252803e+02  -1.410796e+02
   2.143984e+02   6.519127e+01
   1.020460e+02   1.711228e+02
  -1.363121e+02   2.665121e+02
  -2.141224e+02   1.097891e+02
  -2.621822e+02  -1.208742e+02
  -1.400937e+02  -1.935750e+02
   2.892384e+01  -2.068265e+02
   1.323818e+02  -9.413929e+01
   9.777588e+00  -7.455223e-01
   4.099757e+01  -6.225560e+01
   6.375218e+01  -8.776899e+01
   1.490031e+02   3.480455e-01
   1.082510e+02   1.908769e+02
   4.360928e+01   2.051141e+02
  -1.441686e+02   1.710258e+02
  -1.945415e+02  -1.658398e+01
  -1.290374e+02  -1.775985e+02
  -5.910794e+01  -1.325694e+02
   7.510981e+01  -1.068853e+02
   6.551871e+01  -2.624933e+01
   2.809255e+01   3.559128e+01
   3.811577e+01   8.220322e+01
  -7.307949e+00  -3.636155e+01
   5.824677e+01   4.889468e+01
   2.607445e+01   1.094770e+01
  -6.314681e+01   4.923812e+01
  -1.666832e+02   8.590520e+00
  -1.231239e+02  -1.054356e+02
   2.753478e+01  -9.071915e+01
   1.292344e+02  -9.894331e+01
   1.549883e+02  -1.792801e+00
   7.429010e+01   7.324222e+01
  -1.270642e+01   5.115478e+01
  -5.634948e+01  -1.092534e+01
  -2.363865e+01  -3.250275e+01
   3.465820e+01  -7.370844e+01
   4.048191e+01  -1.403503e+01
   7.753725e+01   6.733559e+01
  -4.547576e+00   2.331097e+01
   9.935007e+01   1.805966e+01
   8.910884e+01   1.755935e+01
   3.218351e+01   4.231086e+01
  -4.341271e+01   1.887104e+02
  -9.950107e+01   1.668961e+02
  -1.658591e+02   4.012540e+01
  -1.730734e+02  -6.180657e+01
   1.917599e+01  -1.131002e+02
   1.042232e+02  -4.889951e+01
   9.521702e+01   3.958646e+01
  -9.511729e+01   3.475130e+01
  -1.549664e+02  -3.220800e+01
  -2.266549e+01  -1.562905e+02
   1.254559e+02  -7.190470e+01
   1.723311e+02  -7.548916e+01
   1.645820e+02   3.402673e+01
   6.258091e+01   7.692943e+01
  -5.574654e+01   7.942654e+01
  -7.183008e+01  -2.297116e+01
   2.192576e+01  -5.984375e+01
   1.044897e+02   1.153838e+01
   5.200505e+01   7.023304e+01
  -1.411744e+02   1.428028e+02
  -1.295184e+02   4.055352e+01
  -1.157964e+02  -1.154070e+02
  -2.310782e+01  -2.346661e+02
   2.950141e+01  -1.502068e+02
   7.274313e+01  -3.002613e+01
   4.674774e+01   9.988008e+01
  -2.132672e+01   1.414180e+02
  -1.802672e+01  -3.886586e+01
  -6.783185e+01  -6.612633e+01
   2.074206e+01  -2.096024e+01
  -2.149677e-01   7.049199e+00
   1.462136e+01   1.737228e+01
  -5.313879e+01  -3.237523e+01
  -4.838445e+01  -1.573630e+02
   5.558153e+01  -4.346784e+01
   7.828367e+01   4.665321e+01
   1.096692e+02   7.502532e+01
   4.893269e+01   3.055595e+01
  -2.276675e+01   1.096091e+01
  -6.328775e+01   4.404883e+01
   4.385163e+01  -1.934410e+01
   1.924777e+01  -7.360044e+01
   5.290165e+00  -1.367498e+01
  -1.332997e+01   2.412199e+01
   2.714103e+01   6.037294e+01
   9.710417e+01  -1.081983e+01
   7.383174e+01   3.669876e+01
  -2.533825e+01   6.902230e+01
  -1.102582e+02   1.204750e+02
  -1.958843e+02   3.937594e+01
  -1.432597e+02  -6.170352e+01
  -5.656537e+01  -1.758099e+02
   6.499632e+01  -1.668053e+02
   1.156713e+02  -1.317287e+01
   6.435860e+01   9.870082e+01
   3.731095e+01   9.614309e+00
  -1.121989e+01  -1.279641e+01
   7.766491e+01   3.801902e+01
   3.152719e+01   7.381154e+01
   2.726256e+01   1.060280e+02
  -5.077180e+01   3.500325e+01
  -7.455684e+01  -7.750850e+01
  -2.654851e+01  -4.483433e+01
   2.385094e+01  -1.353783e+02
   1.028549e+02  -8.581476e+00
   9.677386e+01   4.476039e+01
   6.502712e+01   1.357636e+02
  -1.038360e+02   4.305070e+01
  -1.261870e+02  -4.892202e+00
  -1.118987e+01  -7.654923e+01
   6.501995e+00  -5.282453e+01
   1.674776e+01   5.544829e+00
  -3.963099e+01  -4.411745e+01
  -1.055286e+02  -4.221151e+01
   7.373716e+00   1.392846e+00
   9.936650e+01  -6.048600e+01
   1.489120e+02  -6.159987e+01
   3.025110e+01   1.268600e+01
   9.715784e+00   1.422428e+02
  -4.319806e+01   3.732524e+01
  -2.438462e+01  -9.302117e+00
  -3.383022e+01  -7.772409e+01
   5.129969e+01   7.037480e+00
   7.183867e+00   2.711836e+01
   1.578412e+01   5.606464e+01
  -2.091645e+00   6.112573e+01
  -3.476140e+01   1.939955e+01
  -7.736786e+01  -8.504191e-01
  -8.095746e+00  -2.421935e+01
   7.386345e+01  -1.912034e+01
   5.105957e+01  -2.261693e+00
  -1.424173e+01  -1.053207e+02
   3.660153e+01  -8.454926e+01
   6.188826e+01  -5.208275e+01
   2.955187e+01   3.624287e+01
  -3.335476e+01   5.913846e+01
  -5.167486e+01  -1.107279e+01
  -1.235491e+01  -6.578702e+01
  -4.998123e+01  -7.123556e+01
   6.513319e+01  -4.670106e+01
   1.176179e+01   7.008722e+00
   9.031546e+01   1.231293e+01
  -2.678205e+01   2.099083e+01
  -9.231009e+01   3.370971e+01
  -4.384416e+01   3.434586e+01
  -4.577003e+01   6.463288e+00
   2.994508e+01   5.786655e+00
  -1.753968e+01   2.959295e+01
  -4.926880e+01  -9.476955e+00
