
 $NMID
 id='ANONYMOUS ', fmtdat='(2E16.6)'
 volume=1.0
 tramp=1.0
 $END
  -4.190530e+03  -2.211243e+01
  -2.405269e+03  -2.511789e+03
   6.420796e+02  -2.646648e+03
   2.043816e+03  -8.399048e+02
   8.780470e+02   5.890278e+02
  -6.614821e+02   5.409808e+02
  -7.989198e+02  -3.583682e+02
  -2.160655e+01  -1.045772e+03
   7.661272e+02  -6.575981e+02
   8.424149e+02   5.997529e+01
   4.714227e+02   8.337654e+02
  -2.295936e+02   8.577670e+02
  -5.730383e+02   8.539783e+01
  -3.011494e+02  -6.781738e+02
   2.699230e+02  -7.608256e+02
   5.845406e+02  -5.947884e+00
   2.519682e+02   6.548465e+02
  -2.633371e+02   6.292463e+02
  -5.853454e+02   7.561964e+01
  -3.936254e+02  -3.146926e+02
  -2.193291e+01  -4.090701e+02
   2.027819e+02  -1.701910e+02
   2.032258e+02  -8.017267e+01
  -1.150315e+02   7.008389e+01
  -3.388745e+02  -1.737625e+02
  -1.126416e+02  -4.678459e+02
   5.058986e+02  -4.032502e+02
   8.125923e+02   9.815643e+01
   3.948805e+02   5.654991e+02
  -4.032276e+02   4.312474e+02
  -6.993505e+02  -6.829976e+01
  -3.562005e+02  -4.972778e+02
   2.796140e+02  -5.358602e+02
   5.184185e+02  -1.679101e+02
   4.322613e+02   2.496866e+02
   2.613951e+01   4.493785e+02
  -2.038962e+02   2.903933e+02
  -1.408626e+02  -2.001615e+02
   1.978931e+02  -4.336212e+02
   4.229529e+02   5.103403e+01
   2.233296e+02   6.458545e+02
  -3.222263e+02   6.760852e+02
  -5.814784e+02   1.166932e+00
  -1.777211e+02  -5.687825e+02
   2.795467e+02  -2.696834e+02
   3.756596e+02   3.059846e+02
  -1.263872e+02   5.381556e+02
  -5.290156e+02   1.676128e+02
  -5.439455e+02  -4.020113e+02
  -1.626848e+02  -5.301455e+02
   3.539397e+02  -3.089764e+02
   5.829796e+02   1.030927e+02
   3.559264e+02   3.429164e+02
  -1.456760e+02   3.128433e+02
  -4.488052e+02   9.783099e+01
  -2.299522e+02  -1.826911e+02
   1.102213e+02  -8.232055e+01
   1.339914e+02   1.141274e+02
  -1.856226e+02   1.890466e+02
  -3.306704e+02  -1.228255e+02
  -1.285210e+02  -2.956132e+02
   1.715909e+02  -2.425669e+02
   3.929044e+02  -1.083929e+02
   2.024736e+02   6.568925e+01
  -1.055511e+01   1.945697e+02
  -2.192492e+02   2.959601e+02
  -3.626660e+02   1.321436e+02
  -2.331233e+02  -7.787541e+01
  -1.178975e+02  -4.566418e+02
   9.900741e+01  -3.428331e+02
   1.251266e+02  -1.107286e+02
   1.943969e+01   8.791172e+01
   4.129791e+01  -1.146239e+02
   1.798987e+02  -7.979054e+01
   2.792532e+02   5.662432e+01
   1.191840e+02   2.913094e+02
  -8.070969e+01   2.705514e+02
  -2.202682e+02   7.612743e+00
  -1.432154e+02  -2.699976e+02
   6.399244e+01  -2.659678e+02
   2.072082e+02  -4.204888e+01
   4.069801e+02   1.606002e+02
   2.093545e+02   3.573716e+02
  -1.115029e+02   3.111026e+02
  -1.997942e+02   1.860437e+02
  -1.815197e+02   3.576553e+01
  -1.104383e+02   1.822169e+01
  -2.952472e+02   5.955883e+01
  -3.773738e+02   7.858838e+00
  -3.060690e+02  -3.116989e+02
  -2.556154e+01  -4.362441e+02
   3.155307e+02  -3.428599e+02
   4.790496e+02  -1.550031e+02
   2.967839e+02   8.048921e+01
   1.750546e+01   2.619274e+02
  -1.548545e+02   2.369323e+02
  -4.159485e+01   6.385404e+00
   5.843532e+01  -9.894026e+01
   1.590950e+02   2.220897e+00
   2.850594e+01   1.964888e+02
  -1.732930e+02   2.021338e+02
  -1.659231e+02  -3.604988e+01
   5.120912e+00  -1.928300e+02
   1.686124e+02  -6.133438e+01
   1.575331e+02   2.131219e+02
  -4.847262e+01   2.727904e+02
  -1.951103e+02   2.218381e+02
  -3.116848e+02  -9.000841e+01
  -2.817716e+02  -2.071403e+02
  -8.306244e+01  -2.351466e+02
   7.352607e+01  -1.841119e+02
   1.422823e+02  -4.940614e+01
   2.150282e+01   6.531956e+01
  -6.929668e+01  -5.162560e+01
  -4.476656e+01  -1.422364e+02
   9.821465e+01  -6.959455e+01
   1.574507e+02   2.436870e+01
   3.474563e+01   9.529712e+01
  -1.030453e+02  -2.681567e+01
  -6.315817e+01  -5.843485e+01
   2.061726e+02  -6.413910e+01
   2.839533e+02  -9.462069e+00
   2.544781e+02   9.158415e+01
  -1.498826e+00   2.643660e+02
  -1.214441e+02   3.017561e+02
  -2.837522e+02   1.275712e+02
  -1.638480e+02  -1.196725e+02
   2.609970e+01  -1.139663e+02
   1.012646e+02  -6.752645e+01
  -4.491103e+01   1.074591e+02
  -2.269876e+02   7.156224e+01
  -2.692533e+02  -9.692892e+01
  -2.167132e+01  -2.100245e+02
   4.456536e+01  -9.776716e+01
   1.434809e+02  -4.889498e+01
   1.096164e+02   4.338810e+01
  -4.881594e+01   6.813732e+01
  -8.906858e+01  -1.229536e+02
   1.209019e+02  -1.163621e+02
   1.995532e+02  -5.081924e+01
   1.908379e+02   1.427162e+02
   3.077997e+01   2.575762e+02
  -1.199016e+02   1.626907e+02
  -2.001842e+02  -4.588064e+01
  -7.076949e+01  -1.259515e+02
   5.945227e+01  -1.794103e+02
   1.061013e+02  -6.522962e+00
   1.542981e+01  -1.072747e+01
  -1.664202e+01   2.236293e+01
  -1.686463e+01  -3.597676e+01
   7.316756e+01  -1.423196e+01
   8.209417e+01   7.722436e+01
   1.077097e+01   1.635009e+02
  -1.409365e+02   8.854016e+01
  -1.985974e+02   3.760939e+01
  -2.289114e+02  -1.482746e+02
  -2.702151e+01  -2.632890e+02
   9.434902e+01  -1.751113e+02
   1.274593e+02   1.784502e+01
   3.826492e+01   6.618239e+01
   4.564809e+01   2.254878e+01
   7.476775e+01   5.968298e+00
   9.695418e+01  -3.930028e+00
   2.051071e+01   4.408124e+01
  -3.577500e+01   9.305747e+01
  -1.057776e+02   5.922662e+01
  -6.607250e+01  -2.558026e+01
   1.338591e+01  -1.442869e+02
   1.773405e+02  -1.097187e+02
   1.668993e+02   9.315181e+01
   8.021085e+01   2.159591e+02
  -7.250700e+01   2.505486e+02
  -2.618859e+02   7.395015e+01
  -2.583065e+02  -1.030761e+02
  -1.183904e+02  -1.576532e+02
   3.046358e-01  -1.448053e+02
   9.003557e+01  -4.089333e+01
   7.191675e+01  -1.275205e+02
   2.646685e+01  -8.710005e+01
   1.041048e+02  -1.065916e+02
   8.993583e+01   2.849258e+01
   1.018129e+02   1.275347e+02
  -3.645861e+00   2.657884e+02
  -9.066142e+01   1.921748e+02
  -1.907962e+02   3.846863e+01
  -1.465656e+02  -9.001071e+01
  -4.000333e+01  -2.065959e+02
   4.528395e+01  -1.170720e+02
   6.755884e+01  -3.734300e+01
   4.000332e+01   1.827888e+01
   6.947353e+00  -1.019314e+01
   1.484947e+01   1.059026e+01
   3.254844e+01   7.722742e+01
   2.662351e+01   9.077628e+00
  -9.765873e+01   4.093845e+01
  -1.901162e+02   8.586899e+00
  -1.917375e+02  -7.674537e+01
  -6.812081e+00  -1.277930e+02
   1.240251e+02  -7.018091e+01
   1.495675e+02  -7.094543e+01
  -4.370404e+00   9.246781e+01
  -3.759094e+01   6.386011e+01
  -8.090634e+01  -3.655485e+01
  -1.198300e+01  -9.666285e+01
   7.605669e+01  -9.997384e+01
   4.926500e+01   3.264810e+00
   9.810335e+01   4.292903e+01
   4.372352e+01   1.052617e+02
   4.965478e+01   1.653440e-01
   5.247671e+01  -1.091969e+00
   6.145329e+01   5.192839e+01
  -2.431728e+01   1.220103e+02
  -1.444636e+02   1.852762e+02
  -1.542647e+02   8.172145e+00
  -1.677161e+02  -1.288834e+02
  -1.078768e+01  -1.348996e+02
   6.105813e+01   1.254747e+01
   9.025642e+01   5.309067e+00
  -5.343446e+01   5.248617e+01
  -1.105391e+02  -3.535801e+01
  -5.736767e+01  -4.802691e+01
   4.206849e+01  -3.274507e+01
   1.602028e+02  -1.352757e+01
   1.368801e+02   1.139465e+01
   6.536933e+01   8.700842e+01
  -1.334191e+02   4.484931e+01
  -1.066769e+02  -2.762670e+01
   3.850642e+01  -3.632380e+00
   8.952493e+01   3.626158e+01
   4.901999e+01   9.699806e+01
  -9.448183e+01   1.862413e+02
  -1.646753e+02  -2.466503e+00
  -1.564794e+02  -1.141248e+02
  -7.266863e+00  -1.878839e+02
   9.936637e+01  -1.336918e+02
   1.269691e+02   2.901851e+01
   6.807789e+01   7.798337e+01
  -4.992959e+01   1.110118e+02
  -6.744861e+01   1.248589e+01
  -6.442126e+01  -2.205284e+00
  -5.841795e+01  -1.654227e+01
   1.773109e+01   2.475865e+01
  -2.504059e+01  -4.203236e+01
  -3.475339e+01  -1.608083e+01
  -7.371933e+01  -8.654927e+01
   5.658758e+01  -3.201740e+01
   1.824183e+02   8.802485e+01
   1.218027e+02   1.245016e+02
   2.649237e+01   2.963011e+01
  -9.616851e+01   1.399678e+01
  -7.159302e+01  -9.078720e+00
   1.052042e+01   5.287384e+00
   4.995172e+01  -1.615115e+01
   1.233140e+01  -2.886286e+00
   3.494087e+01  -2.810133e+01
  -3.082265e+01   5.825451e+00
   7.496178e+01   5.799708e-01
   1.439319e+02   1.011792e+01
  -2.097388e+00   7.265611e+01
  -1.192476e+02   8.499044e+01
  -1.852431e+02   7.129514e+01
  -2.476441e+02  -4.848907e+01
   2.087253e+01  -1.212683e+02
   4.694583e+01  -7.620408e+01
   9.538901e+01  -6.206618e+01
   8.990959e+01   4.017079e+01
  -2.878543e+01   3.659699e+01
  -4.471741e+01  -3.071822e+01
  -5.251134e+01   1.326078e+01
   2.584099e+01   2.585288e+00
  -1.816722e+01   8.785031e+01
   6.268045e+00   7.574409e+01
  -1.094553e+02  -6.728935e+01
  -6.410656e+01  -1.068764e+01
   3.356221e+01  -1.255381e+02
   8.313033e+01  -2.104486e+01
   1.127058e+02   9.878315e+01
   1.563899e+01   7.335827e+01
  -7.833586e+01   4.666129e+01
  -1.342276e+02  -6.418585e+00
  -5.302533e+01  -5.985029e+01
   7.629007e+00  -7.598663e+01
   5.937872e+01  -4.632247e+01
  -9.631583e+00  -2.947343e+01
  -2.698496e+01  -1.205552e+00
  -3.693677e+01  -4.844718e+01
  -1.237508e+01  -6.950299e+01
   1.395611e+02  -6.946155e+01
   7.126985e+01   3.634417e+01
   3.176564e+01   7.828876e+01
  -7.907541e+01   5.593200e+01
  -5.546382e+01   3.909949e+01
  -1.048670e+01  -4.316420e+01
   5.666066e+01  -4.600810e+01
   4.151224e+01   2.063930e+01
   6.483330e-01   9.767967e+01
  -1.242198e+01   4.791805e+01
  -2.188376e+01  -8.072058e+00
  -4.858487e+01  -6.773707e+00
  -4.587528e+01  -1.606434e+01
   2.183420e+01   1.991287e+01
   1.639220e+01   2.114263e+00
   4.456213e+01  -1.329379e+00
   5.339445e+01  -5.056458e+01
   5.073977e+01   3.386278e+01
  -1.411020e+01   5.699181e+00
   4.611726e+00   1.031579e+02
  -1.567095e+01  -3.223234e-01
  -3.928369e+01  -6.281715e+01
  -6.267074e+00  -4.824239e+01
   5.193487e+01  -6.782953e+01
   7.118993e+01   2.130443e+01
   9.985143e+01   9.024797e+01
  -1.077234e+01   5.256185e+00
  -5.659471e+01  -6.096144e+00
  -3.388079e+01  -8.873260e+00
  -2.441562e+01  -2.443038e+01
   2.754045e+00   2.206436e+01
  -3.000358e+01   1.406381e+01
  -1.148774e+02   7.505763e+01
