
 $NMID
 id='ANONYMOUS ', fmtdat='(2E16.6)'
 volume=1.0
 tramp=1.0
 $END
   4.032500e+03  -4.632238e+01
   2.476404e+03   2.359323e+03
  -4.673795e+02   2.535536e+03
  -1.874734e+03   1.045915e+03
  -9.668838e+02  -4.272587e+02
   4.906990e+02  -5.078101e+02
   7.935992e+02   3.274785e+02
   2.332714e+01   9.464802e+02
  -7.642007e+02   7.899893e+02
  -8.337005e+02  -2.652903e+01
  -4.202852e+02  -8.192967e+02
   2.315426e+02  -8.544391e+02
   5.226171e+02  -9.581343e+01
   3.073163e+02   6.059223e+02
  -2.528163e+02   6.831494e+02
  -5.840036e+02   2.167238e+01
  -2.731836e+02  -6.340730e+02
   3.051410e+02  -6.311272e+02
   6.121616e+02  -1.902552e+02
   4.269015e+02   2.680266e+02
   5.441323e+01   4.291459e+02
  -2.127435e+02   2.754040e+02
  -2.141390e+02   2.041665e+01
   1.207065e+02  -9.022336e+01
   4.014592e+02   1.248289e+02
   1.919857e+02   3.726065e+02
  -4.379225e+02   3.913925e+02
  -7.839544e+02  -6.261095e+01
  -3.832853e+02  -4.578642e+02
   3.687984e+02  -4.450304e+02
   7.174269e+02   5.246604e+01
   2.762049e+02   4.361723e+02
  -2.721975e+02   4.786002e+02
  -5.921606e+02   1.488182e+02
  -3.837936e+02  -2.258618e+02
  -8.020880e+01  -4.278962e+02
   1.375452e+02  -2.129278e+02
   1.555180e+02   2.058738e+02
  -1.436385e+02   3.771063e+02
  -3.858580e+02  -4.944533e+01
  -1.891708e+02  -6.228662e+02
   2.235860e+02  -6.400187e+02
   5.509494e+02  -5.742698e+01
   1.978548e+02   4.687963e+02
  -3.122243e+02   2.615821e+02
  -3.413948e+02  -3.141648e+02
   8.474650e+01  -4.831757e+02
   5.346426e+02  -1.510805e+02
   4.998741e+02   3.964852e+02
   1.630675e+02   5.131797e+02
  -3.646058e+02   3.665599e+02
  -6.537407e+02  -8.735845e+01
  -3.335994e+02  -3.465029e+02
   1.337281e+02  -3.248231e+02
   3.886346e+02  -7.270799e+01
   2.607830e+02   1.278719e+02
  -3.891612e+01   1.249046e+02
  -1.411791e+02  -1.079883e+02
   1.796944e+02  -1.840548e+02
   2.874338e+02   9.532561e+01
   1.788579e+02   2.727664e+02
  -1.625064e+02   2.710007e+02
  -3.134737e+02   7.682385e+01
  -1.935418e+02  -1.098602e+02
   2.786662e+01  -2.061446e+02
   2.225315e+02  -3.029997e+02
   3.086860e+02  -2.000725e+02
   3.300198e+02   1.458576e+02
   3.662087e+01   4.159210e+02
  -4.939039e+01   4.184757e+02
  -1.022449e+02   1.774233e+02
  -8.389304e+01   2.770853e-01
  -7.263324e+01   9.513735e+01
  -1.549674e+02   6.544497e+01
  -2.860660e+02  -1.101103e+02
  -1.492115e+02  -3.258645e+02
   5.692177e+01  -1.756618e+02
   2.011205e+02  -4.522560e+01
   2.180191e+02   1.759188e+02
   4.768414e+00   2.530394e+02
  -2.315250e+02   7.958935e+01
  -3.576121e+02  -1.901309e+02
  -2.058635e+02  -3.015544e+02
   7.265959e+01  -2.758013e+02
   2.443721e+02  -1.645156e+02
   1.124435e+02  -8.873344e+00
   9.452229e+01  -2.012671e+01
   2.553133e+02  -8.491764e+01
   3.619753e+02   6.193990e+01
   2.490286e+02   2.585049e+02
   1.572807e+01   4.630813e+02
  -3.086462e+02   4.078417e+02
  -4.587596e+02   1.692602e+02
  -3.063678e+02  -7.648130e+01
  -6.950547e+01  -3.270753e+02
   1.224972e+02  -2.012652e+02
   1.343289e+01  -1.704290e+01
  -6.738008e+01   1.080798e+02
  -2.141920e+02  -8.451389e+00
  -4.579856e+01  -2.085083e+02
   1.446486e+02  -1.578865e+02
   1.615839e+02   3.202575e+01
   3.792789e+01   1.819159e+02
  -1.832370e+02   3.887936e+01
  -1.648147e+02  -2.750905e+02
   1.001848e+01  -3.096433e+02
   2.633772e+02  -2.078504e+02
   2.921671e+02   6.786818e+00
   2.878736e+02   3.165940e+02
   9.171132e+01   2.219017e+02
  -6.408370e+01   1.825501e+02
  -1.276599e+02  -5.112582e+00
  -6.535730e+00  -5.225639e+01
   7.453549e+01   6.597958e+01
   4.988924e+01   9.766359e+01
  -1.153591e+02   1.060150e+02
  -1.685898e+02  -3.646447e+01
  -8.040861e+01  -1.237621e+02
   6.039538e+01  -2.387042e+01
   5.774952e+01   1.450227e+02
  -1.505783e+02   8.505341e+01
  -2.846003e+02  -2.423339e+01
  -2.650194e+02  -1.030780e+02
  -1.927727e+01  -2.696170e+02
   1.571083e+02  -2.407061e+02
   3.381015e+02  -9.234399e+01
   1.708360e+02   1.839381e+01
  -3.617359e+01   1.018260e+02
  -9.359084e+01  -1.413852e+01
   1.038347e+02  -8.320464e+01
   2.079816e+02  -6.341920e+01
   2.958582e+02   1.126301e+02
   8.510923e+01   2.288289e+02
  -8.757818e+01   9.799168e+01
  -1.808540e+02   5.313185e+01
  -1.436320e+02  -5.176452e+00
   3.244296e+01   2.946574e+01
   8.458566e+01   7.875262e+01
  -7.016313e+01   1.448957e+02
  -2.073550e+02   3.751721e+01
  -2.406563e+02  -1.428841e+02
  -1.096838e+01  -1.518730e+02
   1.627425e+02  -2.071585e+02
   1.916781e+02   5.871295e+01
   1.142831e+02   1.293969e+02
  -4.953261e+01   5.479655e+01
  -1.036071e+02   1.288938e+01
  -2.903810e+01  -1.193598e+01
  -8.809332e+00  -5.558126e+01
  -1.503111e+01   6.877566e+01
  -8.913957e+01  -1.025276e+01
  -9.675629e+01  -5.023423e+01
  -4.685588e+00  -1.934546e+02
   1.451622e+02  -6.185284e+01
   1.840318e+02  -2.051404e+01
   2.331083e+02   1.392068e+02
   4.657297e+01   1.558832e+02
  -8.648554e+01   1.885743e+02
  -1.468455e+02   5.028008e+00
  -6.626610e+01  -3.887231e+01
  -2.275416e+01  -2.465541e+01
  -5.927192e+01   4.163539e+01
  -1.169909e+02   3.675523e+01
  -6.186601e+01  -4.664624e+01
   2.366844e+01  -1.448195e+02
   8.658745e+01  -5.245290e+01
   7.058887e+01   2.789078e+01
  -4.708241e+01   1.295743e+02
  -1.015523e+02   7.284442e+01
  -1.626961e+02  -8.784714e+01
  -1.389055e+02  -2.001429e+02
   1.170124e+02  -2.060567e+02
   2.286435e+02  -9.263525e+01
   2.383404e+02   9.810566e+01
   1.116882e+02   1.759861e+02
  -8.637919e+01   1.427520e+02
  -3.428450e+01   6.387866e+01
  -8.103003e+01   6.104773e+01
  -8.707034e+01   5.037831e+01
  -8.283471e+01   8.700705e+01
  -1.322140e+02   1.092184e+01
  -1.698248e+02  -1.414418e+02
  -4.822030e+01  -2.284883e+02
   2.358545e+01  -1.487986e+02
   2.048865e+02  -3.071268e+01
   1.254135e+02   1.417011e+02
   2.665975e+01   2.030138e+02
  -2.620799e+01   5.684746e+01
  -8.682432e+01   2.538332e+01
  -8.518187e+00   1.103628e+01
   4.314506e+01  -5.140043e+01
  -4.568129e+01  -4.285730e+01
  -1.083479e+02   4.731256e+01
  -9.947531e+01   5.741780e-01
   7.776937e+01  -5.227696e+01
   1.476383e+02   2.019674e+01
   1.885069e+02   1.001798e+01
  -2.272698e+00   9.297362e+01
  -1.263779e+02   1.051138e+02
  -1.217487e+02  -3.741380e+01
  -3.139062e+01  -6.774813e+01
   1.010560e+02  -1.327327e+01
   1.088686e+02   1.304575e+01
   2.983232e+01   7.508798e+01
  -1.086674e+01   8.272432e+01
  -7.011781e+01   1.441430e+01
  -7.989580e+01  -3.960104e+01
  -7.515942e+01  -7.436343e+01
  -8.504772e+01   4.028253e+01
  -8.299204e+01  -4.850771e+01
  -3.242912e+01  -1.005577e+02
   7.603171e+01  -1.654503e+02
   1.098980e+02  -1.582064e+02
   1.488613e+02  -3.066105e+00
   1.151615e+02   1.455074e+02
  -1.630450e+01   1.098321e+02
  -8.957352e+01   5.797709e+01
  -5.050853e+01  -2.386786e+01
   2.519538e+01  -6.129765e+00
   2.009783e+02   4.956635e+01
   5.346124e+01   7.747332e+01
  -4.703080e+01   9.600652e+01
  -1.596004e+02   3.418644e+01
  -1.185219e+02   1.029937e+01
  -5.413597e+01  -1.169852e+02
   2.638688e+01  -2.705341e+01
   4.731089e+01   5.097481e+01
  -4.300400e+01   5.116881e+00
  -1.145916e+02  -5.104335e+01
  -8.530677e+01  -8.838761e+01
   6.960855e+01  -2.002286e+02
   1.711824e+02   4.571169e+00
   1.341554e+02   4.355208e+01
  -5.149185e+00   1.644539e+02
  -9.488704e+01   1.563774e+02
  -1.181015e+02  -5.652862e+01
  -6.372930e+01  -8.986384e+01
  -3.222706e+01  -7.486428e+01
   7.039768e+01  -2.519041e+01
   9.746021e+01   3.247110e+01
   6.998864e+00  -2.210387e+00
  -1.982615e+01  -1.357192e+01
   1.395147e+01   7.627258e+01
   2.414038e+01   8.438303e+01
   6.534569e+01   8.098447e+01
  -3.192485e+01   4.020876e+01
  -1.597063e+02  -1.515418e+01
  -5.887346e+01  -6.835339e+01
  -1.180759e+01  -6.444220e+01
   6.329156e+01  -1.857116e+01
   5.004608e+01  -3.006983e+01
   4.443485e+01   4.249478e+01
  -8.365407e+01   2.161364e+01
   2.405226e+01   4.775474e+01
   4.351223e+00  -5.425203e+01
  -2.009362e+00  -1.935455e+01
  -6.560919e+01   2.627053e+01
  -9.333560e+01  -3.919568e+01
  -4.535823e+00  -8.203275e+01
   1.362792e+02  -9.080669e+01
   2.214959e+02  -5.944274e+01
   1.249897e+02   5.575675e+01
   7.448362e+01   1.745279e+02
  -4.732211e+01   1.687460e+02
  -1.008750e+02  -3.274191e+01
  -6.614555e+01  -4.544090e+01
  -4.488994e+01  -3.376583e+01
  -3.276715e+01   3.420358e+01
  -5.440542e+01  -7.101427e+00
   2.463570e+01  -7.212854e+01
  -6.250348e+01  -4.100722e+01
   1.543643e+01  -5.114350e+01
   1.364081e+01   4.290719e+01
   6.447834e+01   1.212573e+02
   4.288103e+01   1.214610e+02
  -8.841340e+01   9.491013e+01
  -8.875702e+01  -1.084645e+02
  -4.805549e+01  -9.207901e+01
   8.778688e+01  -7.036137e+01
   8.411842e+01   3.200044e+01
   6.410935e+01   2.034658e+01
  -2.910694e+01   5.899161e+01
  -5.905669e+01   1.564950e+01
   5.782556e+01   3.159733e+01
   3.082034e+01  -3.184123e+01
   2.432741e+01   2.925903e+01
  -4.714319e+01   6.032925e+01
  -9.224735e+01   5.988635e+01
  -6.881123e-01  -4.697268e+00
   1.927987e+01  -4.821885e+01
   9.789211e+01  -7.443426e+01
   6.583170e+01  -2.516378e+01
   1.380365e-01   1.572831e+01
  -5.089994e+01   1.783882e+01
  -5.438797e+01   1.602417e+01
  -5.805297e+00  -9.816829e+01
   3.298915e+01  -5.456180e+01
   6.070907e+01   4.471372e+01
   5.248970e+01   3.046046e+01
  -1.571307e+01   3.523728e+01
   6.014561e+00  -3.303398e+00
   3.265066e+01  -2.451461e+01
  -5.552801e+00  -1.324747e+01
  -6.015078e+01   3.791433e+01
  -5.948539e+01  -1.099812e+00
   3.924708e+01  -5.578140e+01
  -4.617315e+01  -3.004066e+01
  -2.951062e+01  -3.300570e+01
   3.791838e+01  -5.937317e+00
   1.404733e+01   2.967256e+01
  -6.164142e+01   1.933598e+01
  -1.345777e+02  -3.827924e+01
  -6.950934e+01  -4.649396e+01
  -2.488790e+00  -1.175851e+01
   2.058843e+01  -4.431502e+01
  -7.921590e+00   9.996256e+00
  -3.636029e+01   3.001423e+01
  -5.344521e+01  -2.461224e-01
   3.441468e+01  -5.286072e+01
   9.722012e+01  -5.628156e+00
