
 $NMID
 id='ANONYMOUS ', fmtdat='(2E16.6)'
 volume=1.0
 tramp=1.0
 $END
  -5.001344e+03   2.714995e+01
  -2.914558e+03  -3.059809e+03
   9.224439e+02  -3.187216e+03
   2.509816e+03  -9.119813e+02
   1.083026e+03   9.032920e+02
  -8.061259e+02   6.838924e+02
  -1.083570e+03  -5.542626e+02
   3.745324e+01  -1.264210e+03
   9.996860e+02  -8.813786e+02
   1.076562e+03   9.868588e+01
   5.476972e+02   1.087512e+03
  -2.976223e+02   1.042210e+03
  -7.160212e+02   8.652746e+01
  -3.965078e+02  -8.651692e+02
   3.092880e+02  -8.507759e+02
   7.141667e+02   1.619373e+01
   3.134031e+02   7.577854e+02
  -3.602126e+02   6.967824e+02
  -7.058183e+02   7.804300e+01
  -4.742428e+02  -4.459723e+02
  -2.938583e+00  -4.927748e+02
   3.018907e+02  -3.193694e+02
   2.390051e+02   1.560529e+01
  -1.253704e+02   1.278206e+02
  -4.324884e+02  -9.551185e+01
  -2.563285e+02  -4.171884e+02
   5.290066e+02  -4.986349e+02
   9.385698e+02   5.308451e+01
   5.261720e+02   6.306769e+02
  -4.251339e+02   6.183728e+02
  -8.326426e+02   2.679778e+00
  -4.254745e+02  -5.311246e+02
   3.568033e+02  -6.170166e+02
   6.637816e+02  -2.358007e+02
   4.401683e+02   2.303421e+02
   1.239667e+02   5.784905e+02
  -3.046220e+02   3.325547e+02
  -2.554502e+02  -2.380822e+02
   1.761034e+02  -5.876824e+02
   4.859901e+02  -3.450799e+01
   3.448394e+02   8.185931e+02
  -3.320269e+02   7.836334e+02
  -7.363038e+02   3.363002e+01
  -3.463278e+02  -7.007312e+02
   3.492127e+02  -3.900852e+02
   4.363729e+02   3.620865e+02
  -4.453235e+01   6.270012e+02
  -6.722176e+02   1.851720e+02
  -6.499370e+02  -4.441863e+02
  -2.058857e+02  -7.414768e+02
   4.390400e+02  -4.356650e+02
   7.465519e+02   1.014849e+02
   4.085793e+02   4.025902e+02
  -2.195314e+02   4.496597e+02
  -5.435634e+02   1.928610e+01
  -2.631717e+02  -2.543353e+02
   1.639985e+02  -1.622810e+02
   1.791981e+02   1.988477e+02
  -1.901725e+02   2.505895e+02
  -3.998191e+02  -1.128785e+02
  -1.533498e+02  -3.218720e+02
   2.082517e+02  -2.879646e+02
   3.855280e+02  -1.384104e+02
   2.080054e+02   1.073759e+02
  -7.136111e+01   2.325971e+02
  -1.535931e+02   3.817478e+02
  -3.662057e+02   2.068655e+02
  -3.232734e+02  -1.710982e+02
  -1.004306e+02  -5.316194e+02
   9.817235e+01  -4.258344e+02
   1.671060e+02  -1.100847e+02
   3.130739e+01   3.700681e+01
  -2.936771e+00  -8.763143e+01
   1.939334e+02  -1.382976e+02
   2.792545e+02   3.601941e+01
   1.521340e+02   3.034476e+02
  -1.071374e+02   3.129783e+02
  -2.363479e+02   5.087197e+01
  -1.870413e+02  -2.754783e+02
  -1.213161e-01  -2.686075e+02
   3.245297e+02  -1.430270e+02
   3.853311e+02   1.620601e+02
   3.141878e+02   3.847372e+02
  -1.509908e+02   3.316949e+02
  -2.220397e+02   1.211751e+02
  -2.045766e+02  -2.683887e+01
  -5.017170e+01   1.891066e+01
  -2.085895e+02   8.121109e+01
  -3.921322e+02  -5.150348e+01
  -4.169912e+02  -3.263243e+02
   2.568598e+01  -5.235509e+02
   3.783645e+02  -4.249574e+02
   5.116545e+02  -1.973526e+02
   3.761034e+02   1.297862e+02
   6.621480e+01   3.170598e+02
  -1.121158e+02   2.625229e+02
  -1.735597e+02   5.679949e+01
   1.293275e+02  -2.053598e+02
   2.193231e+02  -2.939759e+01
   6.617132e+01   2.264562e+02
  -1.618453e+02   2.340654e+02
  -1.727053e+02  -8.699095e+01
   5.973067e+01  -1.946388e+02
   1.799676e+02  -5.937646e+01
   1.506358e+02   2.657171e+02
  -1.455248e+01   3.704474e+02
  -2.814205e+02   2.114506e+02
  -3.671590e+02  -7.937434e+01
  -2.351981e+02  -2.291735e+02
  -9.530062e+01  -3.262804e+02
   1.148969e+02  -1.830323e+02
   2.270809e+02  -4.012517e+01
   7.892321e+01   1.346157e+01
  -7.898552e+01   1.655207e+01
  -1.541613e+01  -1.249685e+02
   1.000203e+02  -6.872048e+01
   2.039744e+02  -8.698710e+00
   6.367357e+01   1.161535e+02
  -8.017295e+01   3.283672e+01
  -1.025982e+02  -5.207779e+01
   1.116675e+02  -4.942658e+01
   3.418747e+02  -3.859918e+01
   3.222857e+02   1.588058e+02
   4.675219e+01   2.424983e+02
  -2.094325e+02   3.442986e+02
  -2.994898e+02   1.706206e+02
  -2.280296e+02  -7.825969e+01
   1.983445e+01  -1.480266e+02
   1.276459e+02  -6.522443e+01
  -1.983886e+01   1.035463e+02
  -2.456968e+02   9.510454e+01
  -2.508549e+02  -4.429988e+01
  -5.706517e+01  -2.065963e+02
   1.222737e+02  -2.050055e+02
   1.353834e+02  -5.502484e+01
   9.967393e+00   8.943187e+01
  -5.108919e+01  -1.733078e+01
  -4.896642e+01  -4.244028e+01
   9.418033e+01  -1.094082e+02
   2.265948e+02  -1.571588e+01
   2.073426e+02   9.618433e+01
   1.114940e+01   1.622517e+02
  -1.474443e+02   2.297274e+02
  -2.087554e+02   8.592918e-01
  -6.239267e+01  -1.087984e+02
   6.610474e+01  -1.989796e+02
   9.939705e+01  -3.640347e+01
   4.724170e+01   1.150408e+01
  -5.355192e+01  -9.337562e+00
  -3.932248e+01  -5.152447e+01
   9.691750e+01   3.668423e+01
   1.132378e+02   3.556004e+01
  -2.775412e+01   1.441891e+02
  -1.716104e+02   1.492672e+02
  -2.764902e+02   8.468789e+01
  -2.025267e+02  -1.649360e+02
  -2.640491e+01  -2.326623e+02
   1.187053e+02  -2.466157e+02
   2.028131e+02  -5.263174e+01
   6.624793e+01   3.151407e+01
   8.434304e+01   5.896968e+01
   1.453149e+01  -2.307179e+01
   1.070841e+02  -2.613046e+01
   4.986194e+01   5.893011e+01
  -5.738963e+01   1.335837e+02
  -1.594370e+02   1.691244e+01
  -9.118575e+01  -2.634083e+01
   1.616731e+01  -1.064923e+02
   1.795294e+02  -1.112397e+02
   1.691399e+02   8.305327e+01
   8.961842e+01   1.881709e+02
  -7.368694e+01   2.480513e+02
  -2.819819e+02   7.377421e+01
  -2.882875e+02  -9.048619e+01
  -9.401158e+01  -1.357834e+02
   6.011675e+01  -9.630551e+01
   5.317126e+01  -1.425486e+02
   7.557363e+01  -1.365436e+02
   1.034191e+02  -8.520847e+01
   6.455589e+01  -1.087760e+02
   1.795734e+02  -2.380332e+01
   1.437432e+02   1.906862e+02
  -5.529483e+00   2.192620e+02
  -1.447286e+02   2.089363e+02
  -1.845572e+02   3.363106e+01
  -1.687916e+02  -1.530866e+02
  -3.415913e+01  -1.527433e+02
   1.519038e+01  -8.545997e+01
   9.038908e+01  -1.012810e+01
  -1.839173e+01   3.322370e+01
  -4.959310e+01   2.012065e+01
   1.412168e+01   2.734181e+01
   1.308778e+02  -5.655508e-01
   4.911341e+01   3.608816e+01
  -6.411809e+01   7.722595e+01
  -1.345305e+02  -5.132707e+01
  -1.281169e+02  -9.358543e+01
  -4.749071e+01  -6.831561e+01
   9.034284e+01  -8.363523e+01
   1.890242e+02   3.919755e+00
   8.655115e+01   6.795127e+01
  -7.494517e+01   2.840342e+01
  -1.371846e+02  -2.921495e+01
  -5.624099e+01  -1.343178e+02
   5.856396e+01  -8.518370e+01
   1.087672e+02   1.340596e+01
   2.619977e+01   7.124997e+01
   5.834676e+01   5.074210e+01
   8.044686e+01   7.076617e+01
   7.727838e+01  -3.613115e+01
   8.455630e+01   8.320255e+01
  -3.487736e+01   1.554506e+02
  -1.413357e+02   1.693671e+02
  -2.251929e+02   2.734815e+01
  -1.143058e+02  -7.308785e+01
   7.664202e+00  -1.214384e+02
   5.838970e+01  -6.859952e+01
   8.849844e+01   3.896353e+01
   9.191583e+00  -1.427988e+01
  -9.774769e+01  -5.804349e+01
  -6.637052e+01  -1.187130e+02
   9.388533e+01  -1.183773e+02
   2.077863e+02  -7.637662e+01
   1.969919e+02   6.144971e+01
   8.345127e+01   1.385410e+02
  -5.833107e+01   1.052067e+02
  -5.506891e+01   7.216629e+00
   5.947901e+01  -2.763483e+01
   8.202933e+01   3.424365e+01
   3.914224e+01   7.880675e+01
  -6.728546e+01   1.350785e+02
  -1.996346e+02   7.524133e+01
  -1.002025e+02  -1.224771e+02
  -3.842607e+01  -2.899381e+02
   1.363390e+02  -1.296587e+02
   1.627664e+02   2.232046e+00
   9.636506e+01   1.355051e+02
  -3.757290e+01   1.365778e+02
  -2.660546e+01  -1.878608e+01
  -7.976098e+00   7.080191e+00
  -1.068029e+01  -2.126260e+01
  -3.490426e+00   4.613479e+01
   3.133117e+00  -1.675298e+01
  -4.528862e+01  -8.945862e+01
   2.622181e+00  -9.520115e+01
   1.029787e+02   2.669104e+01
   1.702262e+02   2.572239e+01
   1.259308e+02   5.469976e+01
   3.520639e+01   1.979092e+01
  -1.365545e+02  -6.945990e+00
  -7.906000e+01   3.017086e-01
  -4.366731e+01   2.252396e+01
   4.220370e+01  -2.493426e+01
   6.322009e+00  -4.262680e+01
  -1.159062e+01   2.403883e+01
  -3.291018e+01   4.761645e+01
   8.936768e+01   1.325056e+00
   1.123155e+02   3.942641e+01
  -9.737439e+00   1.085118e+02
  -1.562864e+02   1.242221e+02
  -1.789008e+02   2.700003e+01
  -1.851184e+02  -9.132353e+01
  -6.837086e+01  -1.340085e+02
   5.435321e+01  -1.839725e+02
   1.172727e+02  -1.069318e+02
   7.668523e+01   3.239630e+01
   4.408927e+01   4.204979e+01
  -4.481868e+01  -1.854524e+01
   2.440593e+00   6.829919e+00
   2.777076e+01   3.730064e+01
  -3.133669e+01   1.298193e+02
  -4.476824e+00   1.121683e+02
  -9.373084e+01   3.282273e+01
  -6.393190e+01  -1.316359e+02
   2.131481e+00  -1.803465e+02
   1.234329e+02  -6.537310e+01
   1.317994e+02   9.189192e+01
   1.723054e+01   3.613863e+01
  -1.516683e+01   1.515375e+01
  -7.715706e+01  -3.134828e+01
   2.282333e+00  -3.839187e+01
   1.906876e+01  -7.766463e+01
   2.732864e+00   1.147280e+01
  -1.081511e+02   2.870841e+01
  -8.859553e+01   2.670750e+01
  -7.888144e+01  -2.179000e+01
   4.526954e+01  -3.687204e+01
   1.250226e+02  -5.868703e+01
   6.414885e+01   4.727904e+01
  -5.109214e+01   2.973438e+01
  -6.306967e+01   5.454306e+01
  -7.545889e+01  -2.970170e+01
  -8.651013e-01  -7.124806e+01
   1.535395e+01  -5.637960e+01
   1.209631e+01  -1.817295e+01
   2.301880e+00   4.000911e+01
  -1.413130e+01   5.091303e+01
  -1.929408e+01  -5.403734e+01
  -1.178656e+01  -6.227884e+01
   6.780156e+00   6.212649e+01
  -3.398421e+01  -4.595545e+00
  -1.581006e+01  -3.398151e+01
  -2.339427e+00  -5.815345e+01
   3.287664e+01  -1.687478e+01
   1.662562e+01   4.454504e+00
   5.358172e+01   5.774354e+01
  -4.474667e+01   2.345901e+01
  -3.934845e+01  -2.912258e+00
  -9.553260e+01  -1.627605e+02
  -6.225246e-01  -4.268175e+01
   1.012789e+02  -3.337670e+01
   1.239854e+02   2.726811e+01
   1.643672e+01   3.195790e+01
  -6.738651e+01   3.659210e+01
  -9.377574e+01  -5.216712e+01
  -2.749730e+01  -2.428236e+01
   2.326489e+01  -5.928704e+00
   2.996431e+01   7.911723e+00
  -4.195032e+01   8.285571e+01
  -7.204274e+01   6.051453e+01
