
 $NMID
 id='ANONYMOUS ', fmtdat='(2E16.6)'
 volume=1.0
 tramp=1.0
 $END
   4.788627e+03  -2.921428e+00
   2.698737e+03   2.906071e+03
  -9.866036e+02   3.035358e+03
  -2.347722e+03   8.334270e+02
  -9.695236e+02  -8.408274e+02
   8.742874e+02  -6.242401e+02
   1.005494e+03   5.469744e+02
  -3.097006e+01   1.181903e+03
  -9.732257e+02   8.050509e+02
  -1.071443e+03  -9.670479e+01
  -4.110312e+02  -9.845104e+02
   2.754150e+02  -9.775544e+02
   6.798776e+02  -9.132790e+01
   3.958179e+02   8.555497e+02
  -3.637202e+02   8.226413e+02
  -6.703882e+02  -6.139190e+01
  -2.791116e+02  -7.244835e+02
   4.212524e+02  -6.330498e+02
   6.233118e+02  -4.906866e+01
   4.076261e+02   4.466165e+02
  -2.533015e+01   4.717571e+02
  -3.371938e+02   2.589109e+02
  -2.318770e+02   8.591734e+00
   1.060745e+02  -9.717943e+01
   4.530946e+02   6.502557e+01
   2.786934e+02   4.998800e+02
  -4.778900e+02   4.702771e+02
  -9.676870e+02  -6.266029e+01
  -4.599031e+02  -6.053972e+02
   4.268126e+02  -5.552887e+02
   8.562504e+02   7.504751e+01
   3.814403e+02   5.080693e+02
  -3.309287e+02   5.614732e+02
  -6.403726e+02   2.022834e+02
  -4.054628e+02  -2.546416e+02
  -8.229090e+01  -5.130061e+02
   2.331426e+02  -3.008078e+02
   2.164542e+02   2.412536e+02
  -1.708064e+02   5.417723e+02
  -4.907666e+02  -1.457181e+01
  -3.013336e+02  -7.901352e+02
   3.828334e+02  -8.346318e+02
   6.839744e+02  -2.933386e+01
   2.283942e+02   6.174895e+02
  -3.136261e+02   3.687320e+02
  -4.330225e+02  -3.782699e+02
   9.550319e+01  -6.081600e+02
   6.203524e+02  -1.603269e+02
   6.295798e+02   4.603618e+02
   1.276157e+02   6.325454e+02
  -4.171421e+02   3.986499e+02
  -6.781555e+02  -6.868683e+01
  -3.812342e+02  -4.533845e+02
   2.374085e+02  -4.414633e+02
   5.179420e+02  -4.200029e+01
   2.275613e+02   2.096006e+02
  -1.528448e+02   8.411570e+01
  -2.013896e+02  -2.068827e+02
   1.458044e+02  -1.399869e+02
   4.051009e+02   9.055783e+01
   1.765775e+02   3.143123e+02
  -1.910505e+02   3.543372e+02
  -3.194990e+02   1.100320e+02
  -2.326335e+02  -1.064097e+02
  -1.535749e+01  -2.097801e+02
   1.741353e+02  -3.312986e+02
   3.707494e+02  -2.508128e+02
   3.442339e+02   1.174775e+02
   6.317416e+01   4.469763e+02
  -1.430325e+02   4.013389e+02
  -1.620973e+02   1.557881e+02
  -3.536656e+01  -3.732445e+01
   2.096523e+01   1.042094e+02
  -2.021880e+02   1.794263e+02
  -3.297093e+02  -7.572625e+01
  -1.687857e+02  -2.810310e+02
   7.149189e+01  -2.409941e+02
   2.223341e+02  -4.807517e+01
   1.936606e+02   2.903991e+02
   7.319299e+00   3.409531e+02
  -2.897174e+02   4.249063e+01
  -4.182431e+02  -1.848849e+02
  -2.301314e+02  -3.776887e+02
   9.943539e+01  -3.111178e+02
   2.562282e+02  -1.052460e+02
   1.525194e+02  -2.814809e+00
   1.001662e+02   2.596413e+00
   2.450134e+02  -8.949467e+01
   3.966884e+02   2.237501e+01
   3.318490e+02   3.157674e+02
   1.594638e+01   4.983023e+02
  -3.519114e+02   3.949504e+02
  -5.010470e+02   2.630651e+02
  -3.241233e+02  -5.421935e+01
  -6.430815e+01  -3.351409e+02
   1.266626e+02  -2.976759e+02
   6.181370e+01  -1.798761e+01
  -8.784267e+01   1.363560e+02
  -2.671053e+02   6.455222e+00
  -7.291539e+01  -1.680450e+02
   1.601812e+02  -2.588643e+02
   2.205318e+02   3.657244e+01
  -5.280267e+01   1.943879e+02
  -2.020455e+02   1.147853e+01
  -2.083024e+02  -3.022539e+02
   4.682349e+00  -3.674879e+02
   1.920592e+02  -2.012214e+02
   3.447006e+02   1.962189e+01
   3.014704e+02   2.569323e+02
   1.123684e+02   2.849844e+02
  -8.883644e+01   1.787921e+02
  -2.098316e+02   6.204216e+01
  -1.267062e+02   3.307711e+01
   3.032004e+01   6.194429e+01
   4.607575e+01   1.709955e+02
  -1.055596e+02   9.400827e+01
  -1.920049e+02  -2.767908e+01
  -5.440854e+01  -6.466883e+01
   3.456092e+01  -3.928353e+01
   4.350417e+01   8.992178e+01
  -1.488497e+02   7.345109e+01
  -2.976625e+02   7.197090e+01
  -2.888269e+02  -1.438493e+02
  -2.658547e+01  -2.667740e+02
   1.899357e+02  -3.338903e+02
   3.137303e+02  -1.517806e+02
   2.089745e+02   8.871446e+01
  -1.536118e+01   1.459708e+02
  -7.121521e+01   2.543090e+01
   4.106920e+01  -8.447920e+01
   2.093632e+02  -8.121645e+01
   2.196565e+02   9.032322e+01
   6.533008e+01   2.655771e+02
  -1.463029e+02   1.640428e+02
  -1.106956e+02   8.339363e+01
  -1.030574e+02  -4.850795e+01
   3.960102e+01  -6.333600e+01
   1.315786e+02   1.086010e+02
  -2.794767e+01   8.585109e+01
  -1.548563e+02   1.969207e+01
  -2.164987e+02  -9.308428e+01
  -2.285144e+01  -2.453149e+02
   1.909750e+02  -1.864893e+02
   2.266538e+02  -1.711434e+01
   4.609788e+01   9.223045e+01
  -4.584588e+01   9.450903e+01
  -1.115224e+02   6.332761e+01
  -7.413462e+01  -3.044863e+01
   4.894882e+01  -1.809671e+01
  -2.712440e+01   3.066520e+01
  -4.577820e+01   7.852670e+00
  -7.479505e+01  -5.543525e+01
  -5.042115e+01  -1.015296e+02
   1.174771e+02  -1.494989e+02
   2.492456e+02  -2.526053e+01
   2.262365e+02   1.526786e+02
   8.613153e+01   2.727937e+02
  -1.425533e+02   1.434175e+02
  -8.070475e+01   7.977338e+01
  -1.141553e+02  -3.038635e+00
   1.373883e+01  -1.626583e+01
  -9.618784e+01   1.927328e+01
  -7.375206e+01   6.798984e+00
  -2.256267e+01  -2.326878e-01
   6.731633e+01  -6.251005e+01
   1.310026e+02  -2.293590e+01
   9.279792e+01   3.241973e+01
   5.276558e+01   1.083781e+02
  -1.561928e+02   7.442693e+01
  -2.076817e+02  -5.378103e+01
  -1.326109e+02  -1.882776e+02
   1.002158e+02  -2.993494e+02
   2.743094e+02  -1.393023e+02
   2.276401e+02   6.561603e+01
   1.399754e+02   1.964344e+02
  -8.386051e+01   1.804529e+02
  -1.196083e+02   6.031616e+01
  -4.911958e+01   4.190822e+01
  -1.106209e+02   7.671572e+01
  -1.058353e+02   4.804980e+01
  -1.423097e+02  -8.880357e+00
  -1.550355e+02  -1.711368e+02
  -1.192227e+02  -2.265514e+02
   1.259768e+02  -1.554589e+02
   2.576459e+02  -1.161736e+01
   1.720143e+02   1.724960e+02
  -1.890946e+00   1.494531e+02
  -5.149757e+01   1.376440e+02
  -2.039039e+01   1.708247e+00
  -8.290010e+00  -7.629271e+01
   3.096240e+01  -5.694595e+01
  -2.509800e+01   2.823715e+01
  -9.460700e+01  -3.698963e+01
  -8.600258e+01  -6.787901e+01
   7.384357e+01  -2.667123e+01
   1.500325e+02   1.110435e+01
   1.754415e+02   5.254352e+00
   6.148686e+00   1.010037e+02
  -6.890490e+01   6.951607e+01
  -1.763724e+02  -3.766412e+01
  -2.459253e+01  -3.510553e+01
   4.803310e+00  -3.814961e+00
   9.681830e+01  -3.790167e+01
   2.914426e+01   6.318163e+01
  -5.456482e+01   8.380212e+01
  -4.841290e+01  -2.137374e-01
  -3.207753e+01  -4.581190e+01
  -3.801904e+01  -1.495313e+01
  -2.960295e+01   4.976763e+01
  -7.483543e-01   3.881690e+01
  -5.771581e+01  -2.190594e+01
   1.135206e+02  -1.114552e+02
   9.772660e+01  -1.324467e+02
   1.360452e+02  -7.096275e+01
   1.582614e+02   9.537235e+01
   5.893453e+01   1.654074e+02
  -5.081453e+01   5.424936e+01
  -1.170317e+02  -7.232563e+00
   3.924556e+01   2.517278e+01
   1.458721e+02   1.290976e+01
   3.589908e+01   1.311114e+02
  -1.243208e+02   1.689257e+02
  -1.796582e+02  -8.417067e+00
  -2.019785e+02  -3.168668e+01
  -4.125256e+01  -1.015283e+02
   8.504041e+01  -4.956137e+01
   5.366391e+01  -3.738932e+01
  -9.353958e+01   4.292833e+01
  -1.301764e+02  -5.060961e+01
  -5.464411e+01  -9.823208e+01
   7.681879e+01  -1.703580e+02
   1.808725e+02  -7.815551e+01
   1.541584e+02   8.224813e+01
  -6.019413e+00   2.357437e+02
  -1.127879e+02   1.126503e+02
  -1.505394e+02   1.927299e+01
  -6.908636e+01  -1.255538e+02
  -1.134815e+01  -1.243495e+02
   5.920751e+01  -2.282265e+01
   3.505525e+01  -1.515837e+01
   4.539051e+01   1.785155e+00
  -1.614184e+01  -7.677711e+01
   4.446812e+01   1.347487e+00
   5.649638e+01   8.142201e+01
   1.005219e+02   1.243074e+02
  -4.526763e+01   6.264111e+01
  -1.339909e+02  -9.186007e+00
  -1.270574e+02  -2.028546e+01
  -8.365586e+01  -2.596726e+01
   7.887241e+01   1.359479e+01
   8.975313e+01  -5.625256e+01
   1.957528e+01  -3.291481e+01
  -4.961167e+01   2.713482e+01
  -2.201544e+01   3.234301e+01
   7.500708e+00   1.407592e+01
   2.166888e+01  -1.308573e+01
  -1.169006e+02   1.118916e+01
  -6.108343e+01  -2.338780e+01
  -3.394468e+00  -7.478111e+01
   1.010584e+02  -1.055145e+02
   1.807692e+02  -8.702748e+01
   1.842722e+02   5.951191e+01
   4.388546e+01   1.989477e+02
  -1.095207e+02   1.200821e+02
  -5.365923e+01   7.592340e+01
  -1.005765e+02  -3.741551e+01
  -5.077494e+01  -3.325825e+01
  -7.420105e+01   5.868485e+00
  -4.827895e+01  -1.613603e+01
  -3.431316e+01  -3.003537e+01
   1.151550e+01  -4.635058e+00
   2.229785e+01  -7.194939e+01
   1.319232e+02  -3.269032e+01
   9.920140e+01   1.696755e+02
   2.997100e+01   1.257179e+02
  -1.023223e+02  -3.478361e+01
  -1.002663e+02  -6.994214e+01
  -3.725529e+01  -9.926327e+01
   9.027789e+01  -7.448658e+01
   8.202302e+01   7.735694e-01
   9.684189e+01   2.141916e+01
  -5.224546e+01   4.065442e+01
  -3.065443e+01   1.085874e+01
   5.431707e+01  -4.888472e+01
   1.216456e+02   3.200862e+00
   6.202595e+01   6.254049e+01
  -5.146510e+01   4.343867e+01
  -1.099261e+02   7.732279e+01
  -1.087514e+02  -8.536066e+00
   3.418393e+01  -7.486375e+01
   3.719036e+01  -3.958044e+01
  -1.811042e+01  -1.969946e+01
  -2.547239e+01   6.559384e+01
  -4.736374e+01   8.591287e+01
  -5.712430e+01  -8.077899e+00
  -4.738980e+00  -4.133154e+01
  -5.506562e+00  -1.432127e+01
   4.503269e+01  -1.522274e+01
   6.331109e+01   4.675838e+01
   3.992788e+01  -4.368605e+01
   1.574798e+01   2.774952e+01
  -2.748213e+01   3.915361e+01
  -2.344379e+01   6.511948e+01
  -5.150419e+01   4.473756e+01
  -5.153664e+01   2.446208e+01
  -6.934348e+01   3.080408e+00
   7.375512e+01  -5.346277e+01
   4.721195e+01   5.930003e+01
   8.697691e+01   5.059576e+01
  -2.038696e+01   5.322327e+01
  -1.093769e+02   5.700539e+01
  -6.458784e+01  -2.995183e+01
  -2.793231e+01  -1.796343e+01
   3.407532e+01  -9.728399e+01
   5.693500e+01   5.237224e+00
   4.653751e+00  -9.210023e+00
  -5.052782e+01   4.529608e+01
  -1.039115e+01  -3.815774e+00
   8.356543e+01  -4.836733e+01
   1.449498e+02  -7.663536e-01
