
 $NMID
 id='ANONYMOUS ', fmtdat='(2E16.6)'
 volume=1.0
 tramp=1.0
 $END
  -4.581531e+03   1.493009e+00
  -2.677002e+03  -2.752282e+03
   8.039381e+02  -2.900773e+03
   2.233272e+03  -8.479065e+02
   9.951154e+02   7.452655e+02
  -7.404687e+02   6.914888e+02
  -9.699480e+02  -4.737435e+02
  -2.933201e+01  -1.136800e+03
   8.965247e+02  -8.095245e+02
   1.003092e+03   4.872440e+01
   4.649380e+02   9.376803e+02
  -2.561014e+02   9.292782e+02
  -7.105394e+02   6.827826e+01
  -3.762592e+02  -7.231096e+02
   2.769233e+02  -7.679143e+02
   6.365332e+02   1.342155e+01
   3.118906e+02   7.047900e+02
  -3.166127e+02   6.726664e+02
  -6.439939e+02   7.359091e+01
  -3.772561e+02  -4.046267e+02
   2.343535e+01  -5.084815e+02
   2.878342e+02  -2.401256e+02
   2.296228e+02   2.121452e+00
  -8.839949e+01   1.371437e+02
  -4.340357e+02  -1.024804e+02
  -2.201654e+02  -4.865308e+02
   4.819007e+02  -4.926681e+02
   8.589386e+02   1.545975e+01
   5.110338e+02   5.637979e+02
  -4.047993e+02   4.924628e+02
  -7.686441e+02   3.624877e+01
  -4.304314e+02  -4.999683e+02
   2.912651e+02  -5.149990e+02
   5.986994e+02  -1.820516e+02
   4.058876e+02   2.353585e+02
   9.101439e+01   5.167326e+02
  -2.546546e+02   2.947483e+02
  -2.091234e+02  -2.431165e+02
   1.530497e+02  -5.048004e+02
   4.756980e+02  -1.022177e+01
   2.738946e+02   6.882719e+02
  -2.944439e+02   7.297806e+02
  -6.788727e+02   6.726168e+01
  -2.921624e+02  -6.050148e+02
   3.023125e+02  -3.592781e+02
   4.583282e+02   3.123294e+02
  -4.786394e+01   6.134825e+02
  -5.380444e+02   1.707068e+02
  -5.947636e+02  -4.772312e+02
  -2.037441e+02  -5.602141e+02
   3.419342e+02  -3.736398e+02
   6.165251e+02   9.081820e+01
   3.508792e+02   4.214116e+02
  -1.912966e+02   4.509798e+02
  -4.784264e+02   1.565947e+01
  -2.302633e+02  -1.939956e+02
   1.394560e+02  -1.276053e+02
   1.588311e+02   1.754963e+02
  -1.706772e+02   2.646322e+02
  -4.009566e+02  -4.737193e+01
  -1.543073e+02  -3.213216e+02
   2.201161e+02  -3.228526e+02
   3.601573e+02  -1.629219e+00
   1.670340e+02   9.169602e+01
  -1.264038e+01   1.999147e+02
  -2.433375e+02   3.234190e+02
  -3.497487e+02   2.319060e+02
  -3.411902e+02  -1.255347e+02
  -8.739115e+01  -4.647662e+02
   6.830442e+01  -4.265445e+02
   1.654506e+02  -9.680349e+01
  -3.911751e+01   2.517709e+01
   1.847793e+01  -7.956474e+01
   1.966757e+02  -1.068086e+02
   3.174325e+02   3.459171e+01
   1.715472e+02   2.331642e+02
   9.377744e+00   3.003236e+02
  -1.702803e+02   2.738858e+01
  -2.723839e+02  -2.212600e+02
  -7.946487e+01  -2.883355e+02
   2.650356e+02  -1.355758e+02
   3.786511e+02   1.650210e+02
   1.979823e+02   3.500141e+02
  -1.317290e+02   2.793605e+02
  -2.115458e+02   1.276592e+02
  -9.348429e+01  -4.421926e+01
  -9.301873e+01   2.863619e+01
  -2.105824e+02   7.212521e+01
  -4.338907e+02   5.600235e+00
  -2.958565e+02  -2.871729e+02
   2.596703e+01  -3.985494e+02
   3.522026e+02  -4.145296e+02
   4.619857e+02  -2.130387e+02
   3.619160e+02   1.294700e+02
   4.578820e+01   3.327410e+02
  -1.518615e+02   2.322216e+02
  -1.250286e+02   5.183427e+01
   1.249043e+02  -8.561141e+01
   2.585340e+02  -1.178727e+01
   7.172572e+01   1.688598e+02
  -1.899255e+02   2.011000e+02
  -2.155183e+02  -3.262554e+01
   3.593791e+01  -2.120601e+02
   2.175925e+02  -8.407494e+01
   1.122963e+02   2.433073e+02
  -3.658840e+01   3.904052e+02
  -2.090586e+02   1.601098e+02
  -3.127253e+02  -1.094378e+02
  -3.493450e+02  -2.032645e+02
  -1.122781e+02  -2.757084e+02
   1.013126e+02  -1.865744e+02
   1.753948e+02  -4.076556e+01
   6.037130e+01   6.857157e+01
  -1.665983e+02  -2.906811e+01
  -9.179150e+01  -1.730885e+02
   7.110756e+01  -7.242181e+01
   1.567574e+02  -4.834580e+00
   7.067792e+01   1.400702e+02
  -6.594071e+01   2.159120e+01
  -5.839890e+01  -5.994173e+01
   5.835793e+01  -1.193609e+02
   3.262347e+02   3.140204e+00
   2.239019e+02   1.434275e+02
   3.855029e+01   2.289042e+02
  -1.476483e+02   2.653456e+02
  -2.727947e+02   1.611423e+02
  -1.950695e+02  -3.825880e+01
   1.434141e+01  -9.124165e+01
   1.225356e+02   4.072200e-01
  -6.554726e+01   5.595040e+01
  -2.307244e+02   6.879355e+01
  -1.955206e+02  -1.185637e+02
  -1.055360e+02  -1.582829e+02
   9.071918e+01  -1.783582e+02
   1.212275e+02  -6.033375e+01
   1.007631e+02   1.107223e+01
  -4.340371e+01   1.352924e+01
  -6.038390e+01  -7.833596e+01
   8.335215e+01  -7.415016e+01
   1.501113e+02   2.009216e+00
   1.931154e+02   1.461800e+02
   2.231647e+01   2.313340e+02
  -1.716923e+02   1.485734e+02
  -2.536266e+02   1.673291e+01
  -6.118766e+01  -7.656680e+01
   3.868542e+01  -1.438047e+02
   9.042474e+01   1.124986e+01
   4.362981e+01   3.830276e+01
  -3.397687e+01   5.333143e+00
   2.408458e+01   2.057534e+01
   2.120936e+01  -1.285747e+01
   9.606511e+01   9.892222e+01
   2.012060e+01   1.079485e+02
  -1.804219e+02   1.210641e+02
  -2.263073e+02   3.094440e+01
  -1.804468e+02  -1.110957e+02
  -9.044158e+01  -2.599002e+02
   6.972044e+01  -2.323178e+02
   1.524289e+02  -6.006527e+01
   4.669380e+01   5.168601e+01
   6.265634e+01   9.018346e+00
   2.438914e+01  -8.264873e+00
   8.047463e+01  -4.441054e+01
   2.670718e+01   3.490019e+01
  -3.876448e+01   5.298319e+01
  -1.595425e+02   3.998765e+01
  -9.136848e+01  -2.550097e+01
   2.141735e-01  -1.064508e+02
   1.197043e+02  -5.078918e+01
   2.307110e+02   5.284800e+01
   7.614561e+01   2.021031e+02
  -1.100943e+02   1.854866e+02
  -2.619355e+02   1.162268e+02
  -2.513582e+02  -1.020708e+02
  -6.475438e+01  -1.682577e+02
  -2.570965e+01  -1.516888e+02
   9.690600e+01  -3.358503e+01
   9.102521e+01  -7.945934e+01
   4.606057e+01  -7.096557e+01
   1.178267e+02  -1.241016e+02
   1.037101e+02   3.993237e+01
   1.105496e+02   1.425296e+02
   5.517836e+01   2.626010e+02
  -1.009281e+02   1.437372e+02
  -1.478256e+02   5.047446e+01
  -1.490340e+02  -1.229949e+02
  -3.417357e+01  -1.620556e+02
   9.460035e+01  -1.249229e+02
   8.759095e+01   2.340513e+01
  -1.700583e+01   9.756907e+01
   1.996261e+01   2.742474e+00
   3.145815e+01   2.427918e+01
   1.582867e+02  -5.873256e+01
   2.249620e+01   1.632183e+01
  -6.836410e+01   1.765088e+01
  -1.247268e+02  -3.128374e+01
  -1.463660e+02  -7.081301e+01
  -2.857360e+01  -6.507558e+01
   1.090601e+02  -1.056237e+02
   1.563132e+02   5.325931e+00
   1.616459e+01  -4.318712e+00
  -6.818463e+01   6.596710e+01
  -6.023722e+01  -2.667663e+01
  -4.250178e+01   1.668463e+00
   8.333287e+01  -7.562148e+01
   6.759196e+01   1.552334e+01
   5.410950e+01   4.641078e+01
   8.909212e+01   6.832939e+01
   5.811277e+01   6.887082e+00
   2.418024e+01  -3.248556e+01
   7.965774e-01  -9.622102e-01
  -2.225593e+01   1.772727e+02
  -1.076058e+02   1.290329e+02
  -1.450037e+02   3.923461e+01
  -1.604510e+02  -3.095844e+01
  -2.751900e+01  -1.371087e+02
   8.567560e+01  -7.433882e+01
  -8.288230e+00  -1.237701e+01
  -4.367230e+01   9.475461e+00
  -1.355087e+02  -8.179227e+00
  -8.543381e+01  -1.009145e+02
   6.042266e+01  -1.497685e+02
   1.913943e+02  -6.013141e+01
   1.704009e+02   9.413548e+01
   3.686745e+01   1.204977e+02
  -3.314533e+01   5.031471e+01
  -3.559040e+01  -1.832919e+01
   3.722581e+01  -1.407266e+01
   7.797092e+01  -7.211438e+00
  -4.961304e+01   7.288886e+01
  -6.991264e+01   1.929949e+02
  -1.389708e+02   4.866235e+01
  -1.303517e+02  -1.257370e+02
  -1.744875e+01  -2.410129e+02
   6.263067e+01  -1.609203e+02
   1.511540e+02  -3.012715e+00
   8.527085e+01   1.585991e+02
  -1.411577e+01   1.360281e+02
  -5.894239e+01  -4.443919e+00
  -2.438853e+01  -4.916480e+01
   6.266186e+00  -4.484781e+01
  -1.572318e+00   5.407446e+01
  -3.472727e+01  -6.083803e+00
  -2.902621e+01  -7.796320e+01
  -9.083625e+01  -7.306964e+01
   5.735803e+01  -3.690790e+01
   1.640378e+02   7.324943e-01
   1.416484e+02   6.684601e+01
   3.612897e+01   5.312146e+01
  -1.020432e+02   2.304313e+01
  -1.723709e+02  -1.642059e+01
  -3.634433e+00  -2.189469e+01
   5.652197e+01  -5.738443e+01
  -8.568896e+00  -7.597663e+01
  -3.579562e+01  -2.967800e+01
   1.369403e+01  -2.134273e+00
   1.296604e+02  -2.449261e+00
   1.347174e+02   2.716271e+01
  -1.365955e+01   4.315429e+01
  -1.231482e+02   1.214921e+02
  -1.736301e+02   1.174480e+01
  -1.422014e+02  -1.145923e+02
   1.306753e+01  -1.869241e+02
   6.589246e+01  -1.126699e+02
   1.707478e+02  -5.594000e+01
   7.813879e+00  -6.152878e+00
   2.139808e+01   6.268455e+00
  -3.088517e+01   1.281396e+01
   1.998474e+01  -3.269372e+01
   1.010858e+02   7.164824e+01
   2.792923e+00   6.140515e+01
  -4.621511e+01   7.054276e+01
  -7.269789e+01   5.410595e-01
  -9.997080e+01  -1.159049e+02
   1.861896e+01  -6.636107e+01
   7.875114e+01  -4.315712e+01
   1.437182e+02   7.725306e+01
   7.351564e+01   7.874414e+01
  -2.432517e+01   8.633552e+01
  -8.747470e+01  -5.121715e+01
  -3.898726e+01  -5.040660e+01
   4.701660e+01  -5.912588e+00
   3.588515e+01  -6.467329e+01
  -2.704985e+01   2.530194e+01
  -4.976777e+01  -4.126284e+01
  -7.002596e+01   1.786239e+01
   7.165660e+01  -1.149754e+02
   1.368717e+02  -2.297544e+01
   6.599963e+01   4.816125e+01
  -6.280386e+01   6.891827e+01
  -3.780695e+01   7.918562e+01
  -6.778498e+01   2.104140e+00
  -1.898736e+01  -6.638853e+01
   3.301950e+01  -5.101555e+01
   6.488020e+00   2.374757e+00
   5.873453e+01   1.797038e+00
  -2.211463e+01   7.053361e+00
  -4.429411e+01  -4.007388e+01
  -1.042678e+02   4.762504e+01
  -2.416976e+01  -3.605776e+01
  -3.806082e+01   3.410641e+01
  -4.510581e+00   3.625367e+01
   3.530938e+01  -2.826744e+01
  -7.378731e+00  -5.751133e+01
   3.231997e+01   8.464577e-01
   4.779402e+01   2.767045e+01
  -8.568649e+00   1.114716e+02
  -8.770431e+00   3.031534e+01
  -5.990056e+01  -2.531357e+01
   5.576196e+00  -5.738384e+01
   7.557773e+01  -7.008191e+01
   6.770260e+01   6.719987e+01
   6.711936e+01   2.183688e+01
  -5.140197e+01   3.301069e+01
  -3.578250e+01   4.223443e+01
  -3.310715e+01   1.808073e+01
   2.353381e+01  -4.896701e+00
   1.041730e+02   7.490772e+00
  -2.551366e+01   9.564908e+01
  -1.554429e+02   5.046270e+01
