
 $NMID
 id='ANONYMOUS ', fmtdat='(2E16.6)'
 volume=1.0
 tramp=1.0
 $END
   4.652116e+03   4.641682e+01
   2.589461e+03   2.825342e+03
  -8.590485e+02   2.908890e+03
  -2.232678e+03   8.245500e+02
  -9.251602e+02  -8.609197e+02
   7.436253e+02  -6.325227e+02
   9.646272e+02   5.475991e+02
  -3.332627e+01   1.198829e+03
  -9.110353e+02   8.185391e+02
  -1.020938e+03  -1.838754e+02
  -4.378108e+02  -9.614354e+02
   3.183660e+02  -9.487399e+02
   6.674893e+02  -8.149174e+01
   3.586677e+02   7.635792e+02
  -3.403262e+02   8.169726e+02
  -6.337570e+02  -1.733577e+01
  -2.111694e+02  -7.497157e+02
   4.055805e+02  -6.142413e+02
   6.118016e+02  -7.232001e+01
   4.056494e+02   3.474005e+02
  -5.449972e+01   4.602309e+02
  -2.365335e+02   2.508527e+02
  -2.288818e+02   2.504820e+01
   1.364864e+02  -1.817776e+02
   4.374179e+02   1.161751e+02
   2.585630e+02   4.948163e+02
  -5.377114e+02   4.716470e+02
  -8.720185e+02  -4.199620e+01
  -4.691582e+02  -6.489520e+02
   3.952313e+02  -4.726684e+02
   7.872162e+02   3.292929e+01
   3.070103e+02   5.279739e+02
  -2.954995e+02   5.196730e+02
  -5.576076e+02   1.852308e+02
  -3.955743e+02  -2.213159e+02
  -1.417875e+02  -5.213617e+02
   2.058079e+02  -2.858952e+02
   2.514400e+02   2.557173e+02
  -2.177480e+02   4.999369e+02
  -4.956123e+02  -2.923008e+01
  -2.980236e+02  -7.595046e+02
   3.515576e+02  -7.151696e+02
   6.652749e+02   8.537170e+01
   2.952891e+02   5.930068e+02
  -3.234529e+02   4.235142e+02
  -4.166106e+02  -3.635392e+02
   4.620059e+01  -6.324035e+02
   6.398761e+02  -1.730448e+02
   6.059672e+02   4.261150e+02
   1.537718e+02   5.872519e+02
  -4.022453e+02   4.177566e+02
  -6.526155e+02  -9.706390e+01
  -3.885655e+02  -4.135790e+02
   1.978257e+02  -4.750512e+02
   4.955125e+02  -7.395491e+01
   2.104646e+02   2.707742e+02
  -1.854431e+02   9.783715e+01
  -1.764772e+02  -2.227084e+02
   2.339578e+02  -2.301162e+02
   3.831283e+02   1.004518e+02
   1.615602e+02   2.858754e+02
  -1.994693e+02   2.018061e+02
  -3.374985e+02   9.446805e+01
  -2.061012e+02  -3.889135e+01
  -2.666339e+01  -1.727221e+02
   2.062472e+02  -3.464195e+02
   3.862175e+02  -2.412391e+02
   3.055985e+02   9.417195e+01
   5.221230e+01   4.860792e+02
  -1.077898e+02   3.752277e+02
  -1.361401e+02   2.446385e+01
   1.738889e+01  -3.514256e+01
  -6.252734e-01   1.008707e+02
  -2.466964e+02   9.933608e+01
  -2.529309e+02  -7.151373e+01
  -2.539991e+02  -3.158303e+02
  -8.138500e-01  -3.010200e+02
   2.356152e+02   2.499327e+01
   2.196254e+02   2.836050e+02
  -3.804012e+01   2.800765e+02
  -3.091627e+02   1.218944e+02
  -4.382955e+02  -1.516773e+02
  -1.629678e+02  -3.402477e+02
   1.075313e+02  -3.005296e+02
   1.797485e+02  -8.049748e+01
   1.608471e+02  -1.275697e+01
   7.111745e+01  -1.733719e+01
   2.247331e+02  -7.696789e+01
   4.069077e+02   6.945840e+01
   3.379341e+02   2.806316e+02
   1.381128e+01   4.787071e+02
  -3.611459e+02   4.092372e+02
  -5.078865e+02   1.866568e+02
  -4.065938e+02  -8.016299e+01
  -4.748518e+01  -3.117339e+02
   1.697851e+02  -2.694906e+02
   8.335733e+01  -2.265450e+00
  -1.285910e+02   1.306779e+02
  -1.773954e+02   7.792882e+01
  -5.653872e+01  -2.155186e+02
   1.856781e+02  -2.274531e+02
   1.869631e+02   2.787711e+01
  -2.130641e+01   2.178705e+02
  -1.818553e+02   4.325553e+01
  -1.618206e+02  -2.683000e+02
   5.955250e+01  -3.478317e+02
   2.308881e+02  -1.520483e+02
   3.573661e+02   4.505654e+01
   3.010799e+02   2.431467e+02
   1.092095e+02   2.483467e+02
  -9.320444e+01   1.758167e+02
  -1.882525e+02   1.012033e+01
  -8.309731e+01  -8.879343e+01
   1.149582e+02   3.326140e+01
   5.226808e+01   1.217447e+02
  -1.540860e+02   1.175992e+02
  -1.892876e+02  -1.528744e+01
   2.614201e+01  -1.031688e+02
   6.669135e+01   1.364520e+00
   3.373329e+01   8.204511e+01
  -1.146471e+02   5.566892e+01
  -2.572381e+02  -1.287019e+00
  -2.859680e+02  -1.502361e+02
  -8.498988e+01  -2.605053e+02
   1.411254e+02  -2.971381e+02
   2.794134e+02  -1.484293e+02
   1.736792e+02   1.196452e+02
  -6.294903e+01   1.252162e+02
  -8.935707e+01   4.125847e+01
   3.919680e+01  -1.122790e+02
   2.280223e+02  -6.296255e+01
   2.468300e+02   1.180859e+02
   2.850353e+01   2.619389e+02
  -9.651907e+01   1.471034e+02
  -1.371782e+02   5.315264e+01
  -8.303430e+00  -5.173574e+01
   4.584089e+01  -6.638067e+01
   1.312293e+01   6.391514e+01
  -1.719993e+01   1.058239e+02
  -1.879041e+02   1.811769e+01
  -2.140417e+02  -8.617702e+01
   1.509510e+01  -1.936060e+02
   1.729059e+02  -2.234226e+02
   1.967160e+02   1.595254e+01
   4.882034e+01   9.355541e+01
  -7.396421e+01   1.461811e+02
  -9.271879e+01   5.106602e+01
  -7.949998e+01  -4.345389e+01
   1.341700e+01  -2.747103e+01
  -6.199726e+01   9.720555e+01
  -1.508039e+02   2.177610e+01
  -3.223709e+01  -9.578382e+01
  -3.541655e+01  -1.709181e+02
   6.328626e+01  -1.582333e+02
   2.378711e+02   3.732366e+01
   2.052682e+02   7.669168e+01
   9.115428e+01   3.059358e+02
  -9.603694e+01   1.745817e+02
  -1.262317e+02   4.735346e+01
  -5.209279e+01  -6.641270e+01
   3.877959e+01  -4.648865e+01
  -3.336700e+01  -2.638412e+01
  -9.836363e+01  -4.199069e+01
  -3.808403e+01  -9.878146e+01
   5.143108e+01  -9.330818e+01
   6.115380e+01  -6.999081e+01
   1.061870e+02   5.216544e+01
  -3.133369e+01   8.075068e+01
  -1.744729e+02   6.502908e+01
  -1.808632e+02  -7.771887e+01
  -1.092905e+02  -1.812900e+02
   1.376182e+02  -2.935009e+02
   1.616755e+02  -9.140824e+01
   3.232688e+02   7.695995e+01
   8.333043e+01   1.176235e+02
  -2.808847e+01   1.512537e+02
  -8.549507e+01   3.774193e+01
  -8.149756e+01   2.503503e+01
  -8.373290e+01   1.021689e+02
  -1.560409e+02   4.169692e+01
  -1.123807e+02  -5.264093e+01
  -1.338546e+02  -1.662706e+02
  -8.238802e+01  -2.338980e+02
   6.319393e+01  -1.832194e+02
   1.556254e+02  -5.818921e+01
   1.708640e+02   1.320631e+02
   2.482379e+01   2.009797e+02
  -5.363669e+01   1.290705e+02
   1.411646e+01   1.734298e+01
   1.450137e+01  -6.676669e+01
   2.880912e+01  -2.289543e+01
  -4.962627e+01  -3.378331e+01
  -6.268371e+01  -6.712498e+01
  -1.205819e+01   4.723915e-01
   8.493782e+01  -6.368396e+01
   2.046605e+02   3.872700e+00
   2.218156e+02   1.058495e+02
   5.760931e+01   8.853415e+01
  -5.223926e+01   4.982040e+00
  -1.955562e+02   4.664540e+00
  -2.597895e+01  -9.960768e+01
   5.871004e+01  -3.041175e+01
   9.260696e+01   1.091014e+01
  -1.760300e+01   1.657917e+01
  -1.173265e+02   3.593929e+01
  -6.146566e+01  -9.985856e+00
  -2.214524e+01  -9.016957e+00
  -1.848434e+01  -3.295839e+01
  -6.768488e+01  -7.593246e+00
  -6.944431e+01  -1.336633e+01
  -2.233897e+01  -6.476721e+01
   5.545772e+01  -1.748750e+02
   6.226192e+01  -1.517217e+02
   1.910236e+02  -5.358540e+01
   6.151425e+01   1.001817e+02
   1.876412e+01   1.183585e+02
  -1.194691e+02   6.651173e+01
  -4.510228e+01  -3.284438e+01
   8.770826e+01   1.769029e+00
   1.252039e+02   5.389633e+01
   7.537099e+01   9.418861e+01
  -3.937141e+01   1.152636e+02
  -2.171953e+02   6.196586e+01
  -2.036348e+02  -9.368154e+01
  -7.169823e+01  -1.340342e+02
   9.372378e+01  -4.973457e+01
   6.032035e+01  -2.917392e+01
  -5.109182e+01   4.409330e+01
  -4.973807e+01  -1.520035e+01
  -2.141353e+00  -9.469285e+01
   9.989105e+01  -1.428371e+02
   1.750196e+02  -8.389156e+01
   7.598512e+01   1.010813e+02
  -4.691515e+01   1.702875e+02
  -6.005238e+01   1.658795e+02
  -9.504594e+01   1.461785e+01
  -9.751015e+01  -1.473975e+02
   2.657035e+01  -1.585980e+02
   8.219262e+01  -2.216492e+01
   8.382371e+01   1.972578e+01
   6.635642e+01  -8.336850e+00
  -1.187979e+01  -3.310799e+01
   6.893122e+01   4.107408e+00
   6.582386e+01   1.051130e+02
   4.660579e+01   1.549910e+02
  -3.089181e+01   7.227925e+01
  -1.749457e+02   6.908154e+00
  -9.434152e+01  -1.926598e+01
   4.097431e+01  -2.689142e+01
   3.709856e+01  -6.756990e+01
   6.505053e+01  -3.110384e+01
   7.156455e+01   2.157795e+01
  -4.090482e+01   4.628343e+01
  -6.367334e+01   6.336128e+01
   4.212556e+01   5.514856e+01
  -2.744164e+01   3.489466e+01
  -1.016493e+02   7.881601e+00
  -1.216258e+02  -1.128625e+02
  -3.643289e+01  -1.294231e+02
   1.116644e+02  -1.243993e+02
   1.999240e+02  -2.072257e+01
   1.669733e+02   1.072394e+02
   2.310801e+01   1.986177e+02
  -1.201165e+02   1.070736e+02
  -8.716611e+01  -1.195421e+01
  -1.089968e+02   5.433874e+01
  -5.333145e+01  -4.633377e+01
  -1.689637e+01   1.161341e+01
  -6.253480e+01   6.916792e+01
  -1.584457e+01  -9.610134e+01
  -4.476885e+01  -6.326464e+01
   1.198935e+01  -6.116588e+01
   6.528334e+01   3.806025e+01
   8.250756e+01   7.686599e+01
   5.605203e+01   8.684328e+01
  -7.453148e+01   5.829675e+01
  -7.091344e+01  -8.592244e+01
  -8.776726e+00  -1.202183e+02
   3.992344e+01  -5.117564e+01
   5.285212e+01   3.705618e+01
   2.404496e+01   7.990756e+01
  -9.070591e+01   4.575521e+01
  -3.756995e+01   3.570190e+01
   4.520376e+01   1.527096e+01
   8.005185e+01  -3.588545e+01
   3.746947e+01   9.014621e+00
  -9.464322e+01   6.834256e+01
  -1.383976e+02   4.143833e+01
  -4.189321e+01  -2.410569e+00
   6.271291e+01  -2.354145e+01
   4.175238e+01  -6.693208e+01
   2.065187e+01  -2.520841e+01
  -7.662495e+00   9.851931e+01
  -3.583528e+01   1.421702e+01
  -9.598931e+00   2.822108e+01
   1.851668e+01  -7.132606e+01
   1.472549e+01  -1.380807e+01
   3.717562e+01   3.632146e+01
   2.942464e+01   1.867208e+01
   9.842041e+01  -2.747161e+01
   3.439061e+01  -3.422515e+00
  -8.112478e+00   3.771474e+01
  -8.500185e+01   5.691415e+01
  -1.469826e+01   2.296407e+01
  -4.198238e+01   8.090900e+00
  -7.275783e+00  -4.844540e+01
  -9.562876e+00  -6.335033e+01
   7.585942e+01  -1.320582e+01
   3.750995e+01   2.322826e+01
   6.070388e+01   9.995050e+00
  -4.334222e+01   3.227590e+01
  -1.136774e+02  -1.084956e+01
  -5.735714e+01  -4.821799e+01
   4.703103e+01  -1.961023e+01
   2.928436e+01   6.030203e-01
   1.677721e+01   1.562873e+00
  -4.803650e+01  -3.175396e+00
  -3.485063e+01  -8.134789e+00
   9.184583e+00  -1.285778e+01
   1.009565e+02  -3.500063e+01
