
 $NMID
 id='ANONYMOUS ', fmtdat='(2E16.6)'
 volume=1.0
 tramp=1.0
 $END
  -4.545272e+03  -1.911373e+01
  -2.645007e+03  -2.724770e+03
   8.369857e+02  -2.895274e+03
   2.211871e+03  -9.050003e+02
   9.396128e+02   7.240474e+02
  -7.167991e+02   7.209257e+02
  -9.781180e+02  -4.094416e+02
   4.388934e+01  -1.085255e+03
   8.918097e+02  -8.183652e+02
   1.015403e+03   8.870068e+01
   4.758130e+02   9.383158e+02
  -3.263494e+02   9.335601e+02
  -6.210602e+02   1.279062e+02
  -4.281314e+02  -7.294823e+02
   2.865947e+02  -7.499362e+02
   7.023207e+02   9.910875e+00
   2.888502e+02   6.768658e+02
  -3.019747e+02   6.132152e+02
  -6.202541e+02   5.577424e+01
  -3.440934e+02  -3.656756e+02
  -8.155130e+01  -4.919750e+02
   2.074146e+02  -2.207005e+02
   2.041590e+02  -1.867577e+01
  -9.424289e+01   7.346143e+01
  -3.722416e+02  -1.068734e+02
  -2.186450e+02  -4.488403e+02
   4.746519e+02  -4.515106e+02
   9.493549e+02   3.706194e+01
   4.891882e+02   5.962879e+02
  -4.023456e+02   5.082537e+02
  -8.136817e+02  -2.796823e+01
  -4.001907e+02  -4.868137e+02
   2.886253e+02  -4.977924e+02
   5.784216e+02  -1.844538e+02
   3.986859e+02   2.039246e+02
   4.386264e+01   4.149078e+02
  -2.796025e+02   2.713370e+02
  -2.304671e+02  -2.442009e+02
   1.828181e+02  -4.253834e+02
   4.330617e+02   4.990446e+01
   2.530284e+02   7.165608e+02
  -3.259151e+02   7.404130e+02
  -6.662962e+02   6.447328e+00
  -2.994038e+02  -5.463062e+02
   2.968629e+02  -3.616363e+02
   4.580345e+02   3.197708e+02
  -1.351489e+02   5.840432e+02
  -5.910468e+02   9.348215e+01
  -5.934941e+02  -3.954914e+02
  -1.610274e+02  -5.926358e+02
   3.870744e+02  -3.714942e+02
   6.312608e+02   2.662881e+01
   3.777978e+02   4.097330e+02
  -1.776546e+02   3.910956e+02
  -4.057426e+02   8.024784e+01
  -2.693647e+02  -1.989852e+02
   1.484982e+02  -1.560724e+02
   1.069481e+02   1.480633e+02
  -1.921053e+02   1.798269e+02
  -3.533224e+02  -1.409873e+02
  -1.565418e+02  -3.429928e+02
   2.258982e+02  -2.278089e+02
   3.070772e+02  -9.342715e+01
   2.225717e+02   8.065935e+01
  -3.074308e+01   2.150724e+02
  -2.551681e+02   3.539754e+02
  -3.889204e+02   2.292013e+02
  -3.060535e+02  -1.331429e+02
  -6.456808e+01  -4.465081e+02
   1.705492e+02  -3.937585e+02
   1.241858e+02  -1.312016e+02
   4.440374e+01   4.121033e+01
   2.281407e+01  -8.194419e+01
   1.960111e+02  -1.443178e+02
   2.854617e+02   5.895574e+01
   2.144501e+02   2.629472e+02
  -1.248402e+02   3.003689e+02
  -2.028743e+02  -1.797650e+01
  -2.325794e+02  -2.524750e+02
  -2.948936e+01  -2.778516e+02
   2.277382e+02  -1.352902e+02
   3.798424e+02   7.937423e+01
   1.819539e+02   3.715136e+02
  -3.833152e+01   3.707798e+02
  -3.014443e+02   1.229202e+02
  -1.344773e+02  -8.092493e+01
  -7.446688e+01  -3.106113e+01
  -1.562692e+02   1.456593e+02
  -4.042038e+02   3.724854e+00
  -2.929580e+02  -2.777497e+02
  -3.212457e+01  -4.886663e+02
   3.440706e+02  -3.845173e+02
   5.135757e+02  -1.852564e+02
   2.940760e+02   6.100505e+01
   7.271884e+01   3.139245e+02
  -1.376400e+02   2.732339e+02
  -9.434256e+01   5.576610e+01
   4.988957e+01  -7.283528e+01
   2.265627e+02   2.493879e+01
   5.905194e+01   1.927865e+02
  -1.723578e+02   2.016314e+02
  -1.495988e+02  -9.490033e+01
  -2.862891e-01  -2.594582e+02
   2.300417e+02  -2.332993e+01
   1.714819e+02   2.430550e+02
  -7.028875e+01   3.708414e+02
  -2.771540e+02   2.210073e+02
  -3.544957e+02  -5.134931e+01
  -2.570640e+02  -2.613200e+02
  -3.516043e+01  -2.201478e+02
   1.346543e+02  -1.608716e+02
   2.303900e+02  -1.315092e+01
   7.428970e+01   4.940227e+01
  -6.090808e+01  -4.552728e+01
  -9.576230e+01  -1.561818e+02
   8.192839e+01  -1.438653e+02
   1.707942e+02  -1.313277e+01
   1.255115e+02   3.806801e+01
  -8.522367e+01  -4.921060e+00
  -1.099829e+02  -1.058009e+02
   1.407225e+02  -1.177059e+02
   2.148826e+02  -1.492630e+01
   2.932357e+02   1.454653e+02
   3.981124e+01   2.704738e+02
  -1.189026e+02   2.636601e+02
  -3.254301e+02   1.339633e+02
  -2.393050e+02   1.938445e+01
   3.690125e+01  -1.526798e+02
   1.819301e+01  -2.919760e+01
  -1.352258e+01   1.011489e+02
  -1.720320e+02   2.966243e+01
  -2.405178e+02  -1.416946e+02
  -5.116021e+01  -1.379142e+02
   3.652608e+01  -1.465744e+02
   1.367335e+02  -3.640688e+01
   9.843536e+01   8.360609e+00
  -1.391308e+01   9.902486e+00
  -5.517771e+01  -7.402449e+01
   6.069262e+01  -1.821795e+02
   1.410765e+02  -4.134671e+01
   2.706625e+02   1.410986e+02
   3.523578e+01   2.029102e+02
  -1.585877e+02   1.353101e+02
  -1.931308e+02  -8.904798e-01
  -5.844758e+00  -1.219998e+02
   7.820672e+01  -1.707018e+02
   9.199382e+01  -3.679724e+01
   5.333538e+01   1.017338e+01
  -2.870191e+00   1.712719e+00
   1.634426e+01  -1.462222e+01
   4.657432e+01   1.578519e+01
   8.770516e+01   1.026890e+02
   3.472193e+01   1.180201e+02
  -8.081597e+01   1.359317e+02
  -2.621707e+02   2.494180e+01
  -1.934000e+02  -1.339475e+02
  -6.788539e+01  -2.299190e+02
   1.351083e+02  -1.625021e+02
   1.990309e+02   4.347634e+00
   5.154755e+01   5.379459e+01
  -1.892089e+01   3.666842e+01
   2.617572e+01   5.323098e+00
   1.162071e+02   3.985240e+01
   8.331977e+01   7.774748e+01
  -6.438985e+01   9.922639e+01
  -8.558923e+01   8.921845e+01
  -5.218491e+01   4.318422e+01
   3.898267e+01  -1.024610e+02
   1.446520e+02  -3.569465e+01
   1.755407e+02   7.400659e+01
   1.377876e+02   2.123268e+02
  -1.276961e+02   2.593830e+02
  -2.608347e+02   1.006674e+02
  -2.947991e+02  -4.325457e+01
  -1.302315e+02  -1.738926e+02
  -4.381634e+00  -1.592335e+02
   7.845023e+01  -2.445097e+01
   5.293432e+01  -9.202887e+01
   1.029696e+02  -1.089550e+02
   8.090110e+01  -8.607136e+01
   9.260509e+01  -4.359506e+00
   1.686810e+02   2.113584e+02
   2.174994e+01   2.460915e+02
  -7.784000e+01   1.833695e+02
  -1.617843e+02   1.688056e+01
  -1.005095e+02  -1.484322e+02
  -3.584605e+01  -2.282032e+02
   5.805132e+01  -6.687720e+01
   8.783638e+01  -3.597428e+01
  -9.623768e+00   5.055651e+01
  -2.658822e+01  -3.391600e+01
   1.548868e+01  -6.172000e+00
   9.824577e+01  -1.396456e+01
   4.638637e+01  -2.216666e+01
  -5.133296e+01   3.033999e+01
  -1.665488e+02   1.101183e+01
  -1.759294e+02   2.473892e+01
  -2.255211e+01  -9.011781e+01
   8.916871e+01  -8.203179e+01
   1.604902e+02  -4.065154e+01
   8.154854e+01  -4.606518e+01
  -8.180956e+01   6.622494e+01
  -7.637036e+01  -3.423047e+01
  -6.040744e+01  -5.985623e+01
   6.673380e+01  -5.048601e+01
   6.675264e+01  -4.792826e+00
   1.847399e+01   1.058741e+02
   6.419695e+00   5.186126e+01
   6.765986e+01   5.228897e+01
   7.902105e+01   1.907839e+01
   1.962951e+00   1.929159e+01
  -2.884362e+01   1.161036e+02
  -8.856499e+01   1.175867e+02
  -1.983064e+02   5.544175e+01
  -9.964997e+01  -2.770530e+01
  -2.044633e+01  -1.184999e+02
   6.084321e+01  -9.700094e+01
  -6.733327e-01   1.197482e+01
  -3.451994e+01   1.725080e+01
  -1.197980e+02  -5.212566e+01
  -5.665603e+01  -9.671537e+01
   8.132126e+01  -9.618206e+01
   1.519785e+02  -8.563109e+01
   1.400725e+02   1.093771e+01
   6.797626e+01   1.088531e+02
  -9.746833e+01   1.044551e+02
  -7.743284e+01   3.437831e+01
   6.245994e+00  -6.281485e+01
   1.244345e+02   5.038312e+01
   1.566232e+00   1.140109e+02
  -1.150921e+02   1.519809e+02
  -1.650822e+02   2.129686e+01
  -9.912912e+01  -1.277060e+02
   1.540125e-01  -2.101723e+02
   1.397119e+02  -1.518908e+02
   1.368374e+02   1.598849e+01
   8.538301e+01   1.110819e+02
  -4.004400e+00   9.399855e+01
  -2.242253e+01  -3.532312e+01
  -2.358342e+01  -7.994681e+01
  -7.492081e+01  -1.327669e+01
  -8.232833e+01   2.608338e+01
   8.460591e+00  -3.415968e+01
  -2.644516e+01  -7.927265e+01
  -3.098595e+01  -8.165231e+01
   5.337652e+01  -1.218325e+01
   1.112305e+02   6.013638e+01
   1.371331e+02   4.329616e+01
   1.317645e+01   4.795319e+01
  -8.083950e+01   4.365288e+01
  -9.593806e+01  -3.463189e+01
  -5.937135e+00   3.081483e+01
   7.398049e+01  -6.886563e+01
   4.201621e+01  -1.263654e+01
  -3.442069e+00  -6.503960e+01
  -2.176468e+01   5.097776e+00
   5.767246e+01  -8.604355e+01
   8.827228e+01   1.310775e+01
  -4.935907e+00   4.997200e+01
  -1.174054e+02   1.186649e+02
  -1.949926e+02   8.420061e+01
  -1.617263e+02  -9.149714e+01
  -1.962324e+01  -1.388560e+02
   1.297384e+02  -1.902935e+02
   1.782361e+02  -5.858480e+00
   6.931996e+01   1.404912e+01
   8.913786e-01   6.662077e+00
  -2.620664e+01  -2.651235e+01
   6.777664e+01  -1.618135e+01
   7.739557e+01   4.865967e+01
   5.992443e+01   1.279116e+02
  -9.647547e+00   4.905488e+01
  -1.151466e+02  -2.590217e+01
  -6.517047e+01  -1.055787e+02
   1.002959e+01  -1.185643e+02
   1.138378e+02  -5.949148e+01
   1.021448e+02   8.185126e+01
  -3.755952e+00   1.441643e+02
  -9.198905e+01   9.562885e+01
  -6.943677e+01  -5.081871e+01
   4.741491e+01  -4.316019e+01
   5.489168e+01  -6.386367e+01
   6.251381e+01  -3.531801e+01
  -5.257158e+01   3.718135e+01
  -8.335635e+01   4.398600e+01
  -1.763098e+01  -1.379940e+01
  -9.055431e+00  -1.362250e+02
   9.216882e+01  -6.437188e+01
   7.030905e+01   2.558099e+01
   6.108464e+00   6.128997e+01
  -8.125043e+01   6.256385e+01
  -2.560768e+01   6.644478e+01
   1.120509e+01  -5.588768e+01
   4.091780e+01  -3.164431e+01
   3.634269e+00   2.442285e+01
   3.356355e+01   6.702795e+01
   2.737576e+01  -5.533452e+00
  -2.070397e+01  -2.422839e+01
  -6.481601e+01  -4.009304e+01
   3.260046e+00  -1.063653e+01
  -1.347208e+01   3.511067e+00
   3.066579e+01  -3.546456e+01
   7.262329e+00  -6.805488e+01
  -1.238522e+01  -9.806506e+01
   8.285656e+01  -4.951877e+01
   3.649169e+01   4.518698e+01
  -4.880114e+01   4.607892e+01
  -5.571978e+01   8.374260e+00
  -7.400114e+01  -7.445614e+01
   4.860250e+01  -8.371174e+01
   7.420651e+01   3.935731e+01
   7.286957e+01   3.603302e+01
   7.844298e+01   4.403217e+01
  -9.038896e+01   5.421396e+01
  -6.413830e+01   2.090648e+01
  -4.856135e+01  -6.057687e+00
   6.921171e+01   1.179458e+01
   1.042279e+01   4.241926e+01
  -9.977461e+01   1.151827e+01
  -8.845111e+01   1.542541e+00
