
 $NMID
 id='ANONYMOUS ', fmtdat='(2E16.6)'
 volume=1.0
 tramp=1.0
 $END
   4.625193e+03   1.602282e+01
   2.587291e+03   2.793308e+03
  -8.457626e+02   2.900506e+03
  -2.307243e+03   8.430344e+02
  -8.486798e+02  -8.390824e+02
   8.014680e+02  -5.732186e+02
   9.358941e+02   5.490025e+02
  -1.790341e+01   1.162604e+03
  -8.943974e+02   8.407416e+02
  -9.519441e+02  -1.433489e+02
  -4.388675e+02  -9.741778e+02
   3.263653e+02  -9.766773e+02
   7.246713e+02  -1.159049e+02
   3.634739e+02   8.024304e+02
  -3.014070e+02   7.651598e+02
  -6.880559e+02  -7.668454e+01
  -2.674015e+02  -7.511526e+02
   3.832966e+02  -6.382700e+02
   6.019438e+02  -8.403839e+01
   3.852796e+02   3.349001e+02
   1.044297e+00   5.047351e+02
  -2.863341e+02   2.823834e+02
  -2.472577e+02  -5.078660e+00
   9.814467e+01  -8.456156e+01
   4.667964e+02   1.221651e+02
   1.801697e+02   4.884487e+02
  -5.111714e+02   4.466613e+02
  -8.965260e+02  -1.004677e+02
  -4.695272e+02  -5.646083e+02
   4.083727e+02  -5.378437e+02
   8.034974e+02   1.827277e+01
   3.656416e+02   5.133278e+02
  -3.010250e+02   5.652038e+02
  -5.906777e+02   2.338333e+02
  -3.962762e+02  -2.357096e+02
  -3.293630e+01  -5.257591e+02
   2.315533e+02  -2.693003e+02
   2.131732e+02   2.611020e+02
  -1.440909e+02   5.110397e+02
  -5.531866e+02  -3.054729e+01
  -2.494778e+02  -7.529326e+02
   3.333115e+02  -7.292160e+02
   7.613074e+02   2.298755e+01
   2.490790e+02   6.000188e+02
  -3.725623e+02   3.082593e+02
  -4.800829e+02  -3.747859e+02
   5.380018e+01  -5.502351e+02
   6.194540e+02  -1.554950e+02
   5.952635e+02   4.084326e+02
   1.595177e+02   6.149639e+02
  -3.937344e+02   3.876996e+02
  -6.901011e+02  -4.459194e+01
  -3.212651e+02  -3.768663e+02
   1.338208e+02  -3.684808e+02
   4.797114e+02  -1.987243e+01
   1.892566e+02   1.999368e+02
  -1.934468e+02   9.288579e+01
  -1.224495e+02  -1.750349e+02
   1.715540e+02  -1.869429e+02
   3.682380e+02   8.870808e+01
   1.310661e+02   3.350391e+02
  -1.941006e+02   2.528054e+02
  -3.347379e+02   6.501312e+01
  -1.995595e+02  -3.448298e+01
   2.757470e+01  -2.049571e+02
   2.614214e+02  -3.770400e+02
   4.066571e+02  -1.932375e+02
   3.117010e+02   1.286616e+02
   5.654894e+01   4.375483e+02
  -2.054178e+02   3.909418e+02
  -1.637369e+02   8.770308e+01
  -9.947039e+00  -3.008121e+01
  -7.309501e+00   1.651678e+02
  -1.618605e+02   1.529763e+02
  -3.511767e+02  -3.927106e+00
  -2.351070e+02  -3.274178e+02
   5.962729e+00  -2.711984e+02
   2.835941e+02  -1.878517e+00
   2.576450e+02   2.730167e+02
  -3.579639e+01   3.311448e+02
  -2.901432e+02   1.596037e+02
  -4.077850e+02  -1.651886e+02
  -2.069718e+02  -3.598828e+02
   1.318060e+02  -3.097093e+02
   2.503866e+02  -6.679387e+01
   1.605385e+02  -6.208651e+01
   9.284896e+01  -3.886471e+01
   2.119794e+02  -1.008793e+02
   4.402994e+02  -3.390059e+01
   3.501681e+02   3.246781e+02
  -2.406702e+01   4.067334e+02
  -3.024815e+02   4.852763e+02
  -4.858022e+02   2.418714e+02
  -3.393967e+02  -1.149596e+02
  -5.585027e+01  -2.616130e+02
   1.544622e+02  -2.865157e+02
   4.238410e+01  -5.625532e+01
  -1.432404e+02   1.565437e+02
  -2.241111e+02  -5.382762e+01
  -7.783737e+01  -2.282012e+02
   1.988883e+02  -1.697524e+02
   2.190461e+02   4.769382e+01
  -3.978716e+01   1.995752e+02
  -1.572183e+02   6.538412e+01
  -1.947961e+02  -2.922572e+02
   7.525932e+01  -3.385251e+02
   2.324370e+02  -1.803917e+02
   3.521657e+02   3.711694e+01
   2.646204e+02   2.307589e+02
   1.011914e+02   2.775358e+02
  -9.396258e+01   8.970338e+01
  -1.950549e+02   3.136206e+01
  -6.418312e+01  -5.313974e+01
   7.262600e+01   7.819467e+01
   2.242306e+01   9.183036e+01
  -1.179226e+02   1.058478e+02
  -1.389084e+02   5.120762e+01
  -7.367486e+01  -8.066549e+01
   7.166020e+01  -6.699520e+01
   6.191513e+01   5.852380e+01
  -6.499900e+01   1.066231e+02
  -2.795412e+02  -7.095778e+00
  -2.720594e+02  -1.485167e+02
  -2.171151e+01  -2.826911e+02
   1.951291e+02  -2.371579e+02
   3.247755e+02  -1.380856e+02
   1.720839e+02   6.745612e+01
  -1.930129e+00   9.042019e+01
  -1.116832e+02   5.713313e+01
   6.658906e+01  -8.018473e+01
   2.216447e+02  -1.323620e+02
   2.430064e+02   1.278354e+02
   5.375237e+01   2.184447e+02
  -8.812837e+01   1.827793e+02
  -1.357473e+02   7.451370e+01
  -9.175596e+01  -1.755260e+01
   1.228070e+01  -2.213023e+01
   5.135836e+01   6.290541e+01
  -2.430104e+01   9.362429e+01
  -2.529492e+02  -1.599608e+01
  -1.939840e+02  -1.198140e+02
  -1.266753e+01  -2.178224e+02
   1.714190e+02  -2.016522e+02
   2.214450e+02   3.861946e+01
   8.142558e+01   1.032701e+02
  -9.048872e-01   1.775828e+02
  -5.001016e+01   3.538604e+01
   1.134803e+01  -6.271087e+01
   6.684019e+01   2.240887e+01
  -1.242347e+01   7.090961e+01
  -9.170880e+01   2.592779e+01
  -8.669342e+01  -7.570845e+01
  -3.872538e+01  -1.086767e+02
   8.815933e+01  -1.225247e+02
   2.584258e+02  -5.935282e+01
   1.940435e+02   1.073689e+02
   4.494001e+01   2.476991e+02
  -9.328325e+01   1.752021e+02
  -1.406458e+02   4.854491e+00
  -1.320509e+02  -5.418284e+01
  -1.877962e+01   1.988526e+01
  -3.714706e+01   1.971271e+01
  -1.240464e+02   3.761299e+01
  -2.765493e+01  -8.004122e+01
   7.051679e+01  -8.889328e+01
   1.008329e+02  -9.240639e+01
   7.599262e+01   2.512155e+01
   3.577002e+00   9.446215e+01
  -1.364775e+02   3.534137e+01
  -1.855650e+02   1.285633e+01
  -1.415217e+02  -1.797735e+02
   1.161684e+02  -1.562234e+02
   3.077351e+02  -1.401263e+02
   2.290204e+02   3.940747e+01
   8.120856e+01   2.296573e+02
  -3.417324e+01   1.086407e+02
  -1.311791e+02   9.245384e+01
  -1.039844e+02   9.337491e+01
  -5.614574e+01   3.470678e+01
  -1.046223e+02   9.486082e+01
  -8.825719e+01   8.354031e+00
  -8.816631e+01  -1.475828e+02
  -3.329993e+01  -2.392412e+02
   9.862409e+01  -1.885319e+02
   2.125010e+02  -4.173494e+01
   8.200650e+01   1.215616e+02
   2.319999e+01   1.546389e+02
  -6.445564e+01   7.434743e+01
  -5.507345e+01   3.034195e+01
  -3.899809e+01   1.110173e+01
   1.309874e+01   3.158945e+00
  -5.135160e+01  -5.769605e+01
  -7.983317e+01  -5.021335e+01
  -3.185693e+01  -3.290552e+01
   5.852757e+01  -8.191393e+01
   1.268373e+02   9.337061e+00
   2.001344e+02   2.216607e+01
  -1.814833e+01   1.289292e+02
  -4.877548e+01   3.440486e+01
  -1.536677e+02   5.378048e+01
  -8.009334e+01  -4.503538e+01
   7.076857e+01  -3.842497e+01
   9.636903e+01  -3.825533e+00
  -1.633570e+01   1.464804e+01
  -1.084814e+02   4.323017e+01
  -3.735578e+01   2.025038e+01
  -5.005054e+01  -8.710671e+01
  -9.556710e+01  -4.988832e+01
  -6.405602e+01  -5.504225e+00
  -5.158124e+01   3.537767e+01
  -5.899019e+01  -8.237321e+01
   5.625629e+01  -1.448300e+02
   1.263965e+02  -1.384683e+02
   1.728297e+02  -3.864559e+01
   1.236193e+02   7.842945e+01
  -5.125435e+01   1.046910e+02
  -9.703185e+01   6.533220e+01
  -9.977937e+01   2.549028e+01
   2.993295e+01  -7.555377e+01
   8.228018e+01   5.590514e+01
   9.823195e+01   1.371619e+02
  -1.301446e+02   1.483369e+02
  -1.621516e+02   5.090834e+01
  -1.138762e+02  -1.025167e+01
  -6.566227e+01  -6.747902e+01
   2.855041e+01  -7.059384e+01
   8.225080e+01  -3.525421e+01
  -2.361881e+01   6.262146e+01
  -2.123626e+01  -2.178720e+01
  -3.108745e+01  -9.360858e+01
   2.921755e+01  -1.025154e+02
   1.117952e+02  -5.456308e+01
   1.155988e+02   1.374228e+02
   1.715413e+01   2.290599e+02
  -9.226406e+01   1.609366e+02
  -1.285674e+02  -6.639771e+01
  -5.700647e+01  -1.421085e+02
  -2.067934e+01  -1.458308e+02
   3.375472e+01  -2.031784e+01
   5.830570e+01   3.913145e+01
   4.906245e+01  -2.899663e+01
   2.906623e+01   1.721484e+00
   3.945215e+01   4.974414e+01
   3.805736e+01   1.126677e+02
   1.410289e+01   9.030801e+01
  -7.846099e+01   5.754486e+01
  -1.551211e+02   4.965179e+01
  -1.091204e+02  -1.205434e+02
   2.319919e+01  -8.380033e+01
   1.116236e+02   6.284546e+00
   1.491900e+02   4.044563e+01
  -3.121165e+01  -2.183692e+01
  -2.599423e+01   3.528151e+01
  -4.861838e+00   7.112536e+00
  -5.777155e+00   1.963086e+01
  -3.159821e+01  -3.970104e+01
  -7.339252e+01   1.062346e+00
  -6.883893e+01  -4.269245e+01
   2.823258e-01  -1.420323e+02
   1.002943e+02  -1.055179e+02
   2.021912e+02  -7.693041e+01
   1.891303e+02   6.282921e+01
   3.458807e+01   1.620293e+02
  -1.483487e+02   2.429089e+02
  -1.211586e+02   3.796259e+01
  -4.309184e+01  -3.870181e+00
   1.325650e-03  -3.964015e+01
   2.602271e+00   6.667557e+01
  -2.209283e+01  -9.536552e+00
  -1.864574e+01  -5.332198e+01
  -3.365029e+01  -1.122225e+02
   1.125639e+01  -8.431040e+01
   5.595480e+01   4.276571e+00
   8.112548e+01   7.443021e+01
  -4.035507e+01   9.025328e+01
  -9.615288e+01   2.344062e+01
  -5.803276e+01  -1.102542e+02
  -2.911722e+01  -7.145199e+01
   1.158432e+02  -3.995835e+01
   8.670760e+01  -8.215904e+00
   5.406081e+01   5.759240e+01
  -5.729839e+01   6.089003e+01
  -1.704509e+01   3.358465e+01
   7.623905e+01   4.169504e+01
   5.519896e+01   1.372149e+01
  -1.187383e+01   1.341254e+01
  -8.902354e+01  -5.238434e+00
  -1.502503e+02   4.509154e+01
  -1.091524e+02   1.681799e+01
   4.298714e+01  -3.392898e+01
   5.283942e+01  -1.075392e+02
   1.024553e+02  -3.982117e+00
  -2.957720e+01   4.239660e+01
  -6.369114e+01   3.282279e+01
   2.636940e+01  -9.366946e+01
  -6.496621e+00  -3.884266e+01
   8.989582e+00  -5.670010e+01
   1.736844e+01   2.088221e+01
   8.396745e+00   1.913295e+00
   4.150778e+00   1.452145e+01
   2.532565e+01  -5.660577e+01
   1.499758e+01  -1.680870e+01
  -8.870631e+01   6.274047e+01
   1.788993e+01   5.440617e+01
  -3.529691e+01   3.282729e+01
  -2.493262e+01  -5.775182e+01
   3.033896e+01  -3.409570e+00
   2.065791e+01  -1.089588e+01
   6.773949e+01   4.469284e+01
   1.315124e+01   2.678556e+01
  -7.804489e+01   2.042427e+01
  -9.492125e+01  -3.453199e+01
  -3.198738e+01  -7.121703e+01
   2.915369e+01  -1.038187e+02
   1.340253e+02  -5.786401e+01
   4.437876e+01  -9.713184e+00
  -1.449037e+01  -1.472276e+01
  -4.424357e+01  -7.118789e+01
   2.965336e+01  -4.738603e+01
   7.546001e+01   2.051522e+01
