
 $NMID
 id='ANONYMOUS ', fmtdat='(2E16.6)'
 volume=1.0
 tramp=1.0
 $END
   4.718440e+03   2.008335e-01
   2.615988e+03   2.846444e+03
  -9.396268e+02   2.985479e+03
  -2.295139e+03   8.525122e+02
  -9.371638e+02  -8.261803e+02
   7.864839e+02  -6.610932e+02
   9.402980e+02   4.959990e+02
  -6.219773e+01   1.136267e+03
  -9.477812e+02   8.428047e+02
  -1.018141e+03  -1.577166e+02
  -4.627325e+02  -9.505165e+02
   3.352479e+02  -9.457407e+02
   6.997967e+02  -8.338441e+01
   4.481652e+02   7.734760e+02
  -3.076182e+02   7.903355e+02
  -6.199279e+02  -1.822167e+01
  -3.012629e+02  -6.914526e+02
   3.622494e+02  -6.800456e+02
   6.358086e+02  -2.381405e+01
   3.730064e+02   4.196505e+02
   1.096150e+01   5.214468e+02
  -3.055172e+02   2.404666e+02
  -2.212036e+02   2.457196e+01
   1.417562e+02  -1.335421e+02
   4.837955e+02   7.028739e+01
   1.873627e+02   4.668343e+02
  -4.561960e+02   4.995392e+02
  -9.249130e+02  -1.346174e+02
  -4.922277e+02  -6.252273e+02
   4.984321e+02  -5.405005e+02
   8.335377e+02   4.822677e+01
   3.452357e+02   5.747015e+02
  -3.391266e+02   5.738567e+02
  -6.075960e+02   2.423501e+02
  -4.492873e+02  -2.862128e+02
  -1.457345e+02  -5.286196e+02
   2.404261e+02  -2.915004e+02
   2.287065e+02   2.323441e+02
  -1.629649e+02   4.390767e+02
  -5.225880e+02   5.351367e+01
  -3.029352e+02  -7.283278e+02
   3.378538e+02  -7.385029e+02
   6.819956e+02   2.395244e+01
   3.111955e+02   6.006726e+02
  -3.530225e+02   3.438522e+02
  -4.129706e+02  -3.580789e+02
   7.091183e+01  -5.811824e+02
   5.774275e+02  -1.860593e+02
   6.110320e+02   3.811527e+02
   1.765158e+02   6.029006e+02
  -4.482118e+02   3.853646e+02
  -6.759937e+02  -1.688377e+02
  -4.151175e+02  -4.168399e+02
   1.368229e+02  -4.241850e+02
   4.972292e+02  -5.422823e+01
   2.730651e+02   2.456844e+02
  -1.105640e+02   8.941503e+01
  -1.688973e+02  -1.906166e+02
   1.893554e+02  -2.668788e+02
   3.759181e+02   9.653943e+01
   1.413183e+02   3.029624e+02
  -2.523565e+02   2.647905e+02
  -3.298678e+02   3.187751e+01
  -2.096654e+02  -8.549285e+01
   9.310393e+01  -2.248302e+02
   2.534902e+02  -3.363561e+02
   3.735425e+02  -2.438140e+02
   3.222621e+02   7.833356e+01
   6.116522e+01   4.921643e+02
  -1.252038e+02   4.000560e+02
  -1.773765e+02   6.482907e+01
  -3.715524e+00  -2.718631e+01
  -2.002981e+01   9.502693e+01
  -1.962022e+02   1.511056e+02
  -3.634291e+02  -4.098001e+01
  -1.982929e+02  -2.842512e+02
   2.606762e+01  -2.937185e+02
   2.234321e+02  -3.634785e+01
   2.028739e+02   2.328311e+02
   1.508410e+01   3.201886e+02
  -2.959130e+02   9.861235e+01
  -3.904535e+02  -1.564340e+02
  -2.168867e+02  -3.696376e+02
   1.723338e+02  -3.373498e+02
   2.906132e+02  -1.361423e+02
   1.608795e+02   3.335663e+01
   1.356619e+02   3.568578e+01
   2.694262e+02  -9.671862e+01
   4.353957e+02   1.024784e+01
   3.586107e+02   2.340662e+02
  -4.496036e+01   4.647702e+02
  -3.425594e+02   4.037514e+02
  -4.593760e+02   2.445520e+02
  -4.035803e+02  -8.779488e+01
   7.111763e+00  -3.101062e+02
   1.453172e+02  -2.641193e+02
   5.778140e+01  -2.602621e+01
  -1.104605e+02   9.988692e+01
  -2.382331e+02  -2.532689e+01
  -3.492419e+01  -2.229695e+02
   1.619454e+02  -2.135046e+02
   2.361056e+02   1.032891e+02
  -4.369687e+01   1.974853e+02
  -2.055499e+02  -1.636808e+00
  -1.862573e+02  -2.996063e+02
   5.321341e+01  -3.432272e+02
   2.566724e+02  -1.992459e+02
   3.505740e+02   1.209793e+02
   2.739911e+02   2.390469e+02
   1.235972e+02   2.218972e+02
  -2.533932e+01   1.687538e+02
  -1.907327e+02   5.312585e+01
  -6.664186e+01  -2.722788e+01
   4.661679e+01  -1.755612e+00
   5.508104e+01   6.681087e+01
  -1.430504e+02   6.966805e+01
  -1.798248e+02  -4.372732e+01
  -4.778452e+01  -6.797732e+01
   7.740179e+01  -2.279486e+01
   3.435916e+01   4.918261e+01
  -1.363176e+02   5.674598e+01
  -2.723820e+02  -1.638796e+01
  -2.704540e+02  -1.384721e+02
  -7.565114e+01  -2.606366e+02
   2.057508e+02  -2.995806e+02
   3.120734e+02  -1.923729e+02
   1.930647e+02   2.359759e+01
  -7.249270e+01   9.855409e+01
  -1.312851e+02   1.098160e+01
   1.994221e+01  -1.103737e+02
   2.066810e+02  -6.536376e+01
   2.659031e+02   4.951738e+01
   1.292143e+02   2.484025e+02
  -1.145613e+02   1.823955e+02
  -2.257195e+02   5.680418e+01
  -7.965245e+01  -7.201740e+01
   5.199317e+01   2.274400e+00
   5.883309e+01   1.053509e+02
  -5.102807e+01   1.615640e+02
  -2.161779e+02   3.839668e+01
  -2.528396e+02  -1.235372e+02
  -5.993785e+01  -2.489499e+02
   1.019266e+02  -1.686964e+02
   1.622991e+02   4.834323e+01
   3.900342e+01   6.677379e+01
  -5.977308e+01   9.276152e+01
  -1.319158e+02   5.156144e+01
  -9.251398e+00  -1.308617e+01
   1.184768e+01   1.915781e+01
  -3.147279e+01  -1.950392e+01
  -1.021336e+02   3.287364e+01
  -8.080126e+01  -8.708527e+01
   5.061909e+00  -1.451741e+02
   1.283707e+02  -1.514107e+02
   2.608522e+02  -2.233406e+01
   2.589440e+02   2.043555e+02
   3.486121e+01   2.528959e+02
  -1.727695e+02   1.708715e+02
  -1.334365e+02   1.368208e+01
  -6.582850e+01  -3.582805e+01
  -2.682354e+01  -8.144579e+01
  -7.373859e+01   1.556112e+01
  -8.512094e+01   2.916850e+01
  -4.103438e+01  -5.865433e+01
   4.435916e+01  -1.452820e+02
   1.229146e+02  -1.779806e+00
   9.075944e+01   7.631490e-01
  -1.194145e+01   1.325336e+02
  -1.071331e+02   4.066359e+01
  -1.929837e+02  -1.190676e+02
  -1.159502e+02  -1.357021e+02
   1.125222e+02  -2.659327e+02
   2.625885e+02  -1.404556e+02
   2.721216e+02   7.230347e+01
   1.089374e+02   1.838657e+02
  -4.319790e+01   1.529665e+02
  -4.592582e+01   7.088695e+01
  -9.293426e+01   5.702161e+01
  -9.696223e+01   1.013307e+02
  -8.529449e+01   6.737567e+01
  -1.342147e+02   2.399421e+01
  -1.173734e+02  -1.737410e+02
  -4.476266e+01  -2.512511e+02
   4.990787e+01  -1.887691e+02
   2.737723e+02  -4.206031e+01
   1.458631e+02   9.202313e+01
   1.457086e+01   1.501430e+02
  -5.158961e+01   6.790676e+01
  -9.325750e+01   2.995495e+01
  -3.452673e+01   3.192248e+00
   8.235086e+00  -7.263042e+01
  -2.794371e+01  -2.031828e+01
  -9.142617e+01  -4.923141e+01
  -4.517747e+01  -1.926152e+01
   1.133017e+02  -4.356649e+01
   1.700750e+02  -2.886225e+00
   1.609885e+02   3.626458e+01
   1.036647e+01   5.443719e+01
  -1.127507e+02   2.365703e+01
  -1.525118e+02  -2.808267e+01
   9.743683e+00  -6.420595e+01
   3.749488e+01  -3.824949e+01
   1.182871e+02   2.009559e+01
  -1.566784e+01   1.944990e+00
  -9.395860e+01   6.058654e+01
  -9.025572e+01  -2.390572e+01
  -7.065164e+01  -8.380921e+01
   1.266029e+01  -4.774086e+01
  -6.194757e+01   1.597348e+01
  -6.952239e+01   7.133471e+00
  -1.923353e+01  -4.449800e+01
   8.837346e+01  -1.388424e+02
   1.732955e+02  -9.912979e+01
   1.802137e+02  -4.330250e+01
   1.497534e+02   8.255285e+01
  -1.023147e+01   1.498878e+02
  -1.071991e+02   2.677264e+01
  -9.108659e+01  -3.759828e+01
   9.112167e+01  -2.878099e+01
   2.084951e+02   3.873574e+01
   9.943776e+01   1.571106e+02
  -1.496606e+02   1.127104e+02
  -2.006455e+02   3.005527e+01
  -1.673878e+02  -2.588887e+01
   3.945086e+00  -6.613529e+01
   4.714559e+01  -7.072564e+01
   3.601201e+01  -9.433460e+00
  -5.762074e+01   1.192392e+01
  -8.469099e+01  -3.867432e+01
  -7.122921e+01  -1.283540e+02
   1.014243e+02  -1.387663e+02
   1.282915e+02  -8.602510e+01
   1.278678e+02   9.704229e+01
  -3.407405e+00   2.185240e+02
  -4.143312e+01   1.064214e+02
  -1.551782e+02  -4.505244e+00
  -5.479204e+01  -1.380807e+02
  -3.093322e+01  -5.825659e+01
   8.985323e+01  -4.676022e+00
   7.153326e+01   6.056389e+01
   4.444408e+00   7.862344e+01
   3.763296e+01   3.883364e+01
   4.140525e+01  -2.212059e+01
   3.841806e+01   1.068485e+02
   6.202159e+01   1.826992e+02
  -2.508803e+01   9.486575e+01
  -1.119989e+02  -5.037521e+01
  -1.255987e+02  -8.450908e+01
   2.656124e+01  -5.526543e+01
   9.751831e+01  -8.197938e+00
   5.918292e+01  -4.862317e+01
   4.698836e+01  -9.873818e+00
  -8.150517e+01   6.214624e+01
  -3.864522e+01   4.903254e+01
   4.602096e+01  -6.496475e+01
   2.839971e+00  -2.855305e+01
  -8.681224e+01   2.589047e+01
  -9.954068e+01   2.239005e+01
  -2.431184e+00  -9.183017e+01
   1.255433e+02  -1.130622e+02
   2.193638e+02  -6.912910e+01
   1.350626e+02   1.352842e+02
   8.306544e+01   1.137094e+02
  -1.127913e+02   1.712785e+02
  -1.250967e+02   8.409818e+01
  -5.149181e+01  -4.967550e+01
  -2.252306e+01  -1.402306e+01
  -5.067292e+00   3.646660e+01
  -2.081314e+00  -4.186773e+01
  -1.300521e+01  -6.279987e+01
  -5.275744e+01  -9.527933e+01
   4.220677e+01  -1.055181e+02
   1.068462e+02   7.415829e+01
   8.960079e+01   1.270118e+02
   5.811373e+01   1.416546e+02
  -9.206628e+01   6.531319e+00
  -6.593564e+01  -4.124451e+01
  -2.403239e+01  -1.200594e+02
   7.860369e+01  -1.076975e+01
   1.334769e+02   7.746441e+01
   2.477957e+01  -1.685192e+01
  -1.877763e+01   8.036902e+01
  -3.997596e+01   7.680177e+00
   2.057039e+01   9.118973e+00
   3.892514e+01   3.203262e+01
   5.442114e+01  -7.175929e+00
  -6.320866e+01   7.606080e+01
  -1.135317e+02   7.598144e+01
  -3.329005e+01  -4.662434e+01
   4.000195e+00  -9.886523e+01
   5.789031e+01  -1.186912e+02
   7.402792e+01  -1.381328e+01
   4.093001e+01   3.354178e+01
  -2.816214e+01   3.879189e+01
   2.016311e+01   4.137206e+00
   2.192124e+01  -5.417574e+01
  -2.575466e+01  -2.884587e+01
   1.646665e+01   4.389435e+01
   3.469620e+01   5.059808e+01
   8.329571e+00   7.010155e+00
  -4.910648e+01  -2.323097e+01
  -7.441885e+01   5.674336e+01
   1.832421e+01   1.023344e+02
   1.501556e+01   5.943318e+01
  -8.847667e+01  -4.051017e+01
  -5.112747e+00  -4.613636e+01
   1.479956e+01  -6.979492e+01
   3.144845e+01  -3.776532e+01
  -1.387199e+01   3.906633e+01
  -1.169500e+01   8.949321e+01
  -6.078847e+01   1.056395e+01
  -6.204001e+01  -4.902780e+01
  -5.355544e+01  -3.494045e+01
   1.098207e+02   6.814937e+01
   7.419079e+01  -3.490226e+01
   9.219670e+00  -1.044038e+01
  -6.658839e+01  -5.968647e+00
  -7.912020e+00  -5.033911e+00
   1.863193e+01  -4.572540e+01
   9.752671e+01  -6.173935e+01
