
 $NMID
 id='ANONYMOUS ', fmtdat='(2E16.6)'
 volume=1.0
 tramp=1.0
 $END
   4.976702e+03  -4.612772e+01
   2.873943e+03   2.968753e+03
  -8.923844e+02   3.171837e+03
  -2.457393e+03   9.412581e+02
  -1.134912e+03  -8.978786e+02
   9.316030e+02  -7.555104e+02
   1.097811e+03   5.116416e+02
  -1.266747e+01   1.260830e+03
  -9.699254e+02   9.255190e+02
  -1.054071e+03  -9.546058e+01
  -4.936712e+02  -1.006732e+03
   3.171008e+02  -1.051371e+03
   7.975364e+02  -1.607190e+02
   4.206297e+02   8.656965e+02
  -3.052408e+02   8.885612e+02
  -7.270622e+02   2.177737e-01
  -2.795048e+02  -7.401855e+02
   3.648813e+02  -7.119838e+02
   6.438189e+02  -9.818951e+01
   4.781584e+02   4.258106e+02
   1.951802e+01   4.924198e+02
  -2.855671e+02   2.950681e+02
  -2.409719e+02  -8.198517e+00
   1.289668e+02  -9.092120e+01
   4.636940e+02   6.511886e+01
   3.020939e+02   4.814949e+02
  -4.693563e+02   5.135951e+02
  -9.405364e+02   3.138778e+01
  -5.517304e+02  -6.477230e+02
   4.099792e+02  -6.400491e+02
   8.258453e+02  -2.730804e+01
   3.919302e+02   5.342082e+02
  -2.850536e+02   6.467088e+02
  -6.606653e+02   2.566632e+02
  -4.355521e+02  -2.411695e+02
  -4.464096e+01  -5.441906e+02
   2.167640e+02  -3.659225e+02
   2.817722e+02   2.672238e+02
  -1.983685e+02   4.686157e+02
  -5.328336e+02  -1.595970e+01
  -3.458699e+02  -7.399501e+02
   3.312372e+02  -8.266769e+02
   7.387410e+02   1.369892e+00
   3.413510e+02   6.645967e+02
  -3.311105e+02   4.036478e+02
  -5.058846e+02  -3.645854e+02
   1.185977e+02  -6.714799e+02
   6.035607e+02  -1.438543e+02
   6.673950e+02   4.603095e+02
   2.125808e+02   6.854813e+02
  -4.624149e+02   3.888991e+02
  -6.925453e+02  -9.907857e+01
  -4.215330e+02  -4.187322e+02
   2.172724e+02  -4.468237e+02
   4.717667e+02  -9.647893e-01
   3.095153e+02   2.332425e+02
  -1.611177e+02   1.062851e+02
  -2.369651e+02  -1.358815e+02
   1.858721e+02  -2.600671e+02
   4.391227e+02   8.617293e+01
   1.484417e+02   3.842744e+02
  -2.140892e+02   2.803197e+02
  -3.540396e+02   6.417364e+01
  -2.130295e+02  -1.095197e+02
   5.670364e+01  -1.559308e+02
   2.050122e+02  -3.599074e+02
   3.574174e+02  -2.338855e+02
   2.989920e+02   1.349077e+02
   1.299846e+02   5.128760e+02
  -1.180119e+02   4.287863e+02
  -1.613531e+02   8.196834e+01
  -5.296301e+01  -4.798870e+01
  -4.162993e+01   6.779388e+01
  -1.275390e+02   1.512550e+02
  -3.675598e+02  -2.789566e+01
  -2.291390e+02  -3.484855e+02
   8.288883e+01  -2.897251e+02
   2.144503e+02   2.112151e+00
   2.502687e+02   2.059254e+02
  -9.093168e+00   3.290213e+02
  -2.648748e+02   1.071445e+02
  -3.907299e+02  -1.377683e+02
  -1.776461e+02  -4.278395e+02
   1.086632e+02  -2.900396e+02
   2.133258e+02  -1.285390e+02
   1.731786e+02   4.628264e+01
   1.396193e+02  -3.957415e+01
   2.155686e+02  -5.468273e+01
   4.605663e+02   1.151544e+02
   3.451285e+02   2.905716e+02
   1.396540e+01   5.008301e+02
  -4.286677e+02   3.905135e+02
  -4.619426e+02   2.035477e+02
  -3.647655e+02  -1.527277e+02
  -1.916788e+01  -3.633553e+02
   1.492771e+02  -3.281782e+02
   9.596776e+01  -7.884475e+01
  -1.459612e+02   1.617010e+02
  -2.147238e+02   6.858954e+00
  -6.315151e+01  -2.481282e+02
   1.517725e+02  -2.068390e+02
   2.252104e+02   4.880720e+01
  -2.004113e+01   2.157376e+02
  -2.873940e+02   6.926712e+01
  -1.884790e+02  -2.672161e+02
   3.222997e+01  -4.096379e+02
   2.429289e+02  -1.790460e+02
   3.292341e+02   1.038832e+02
   3.097849e+02   2.613768e+02
   6.267686e+01   2.822581e+02
  -1.864090e+02   1.758474e+02
  -2.460896e+02   7.212865e+01
  -1.078531e+02  -3.316474e+01
   7.227209e+01   7.456378e+01
   3.945381e+01   9.092428e+01
  -1.300917e+02   1.553585e+02
  -2.060446e+02  -1.800641e+01
  -1.205058e+02  -7.133119e+01
   8.210125e+01   1.868160e+01
   2.108418e+01   1.510466e+01
  -1.539520e+02   1.840627e+01
  -3.040029e+02   2.376133e+01
  -3.177849e+02  -9.105881e+01
  -1.238539e+02  -2.085765e+02
   1.973543e+02  -3.039135e+02
   2.946014e+02  -1.447019e+02
   2.241433e+02   4.880564e+01
   1.824331e+01   1.231317e+02
  -8.597211e+01   2.094823e+01
   3.550609e+00  -1.580211e+02
   2.109177e+02  -4.313977e+01
   2.320882e+02   9.568587e+01
   4.674064e+01   1.875434e+02
  -8.424273e+01   1.863860e+02
  -1.874448e+02   3.978696e+01
  -1.039749e+02  -7.798987e+01
   5.639912e+01   1.280491e+01
   1.059959e+01   9.204808e+01
  -1.122030e+02   9.521787e+01
  -2.064994e+02   2.647361e+01
  -2.310369e+02  -9.994783e+01
  -1.138541e+01  -2.308292e+02
   2.118608e+02  -1.923781e+02
   1.931647e+02  -4.395685e+01
   8.552890e+01   7.971289e+01
  -9.211027e+01   1.378732e+02
  -8.723376e+01   2.597191e+00
  -3.838693e+00  -5.019110e+01
   4.668686e+01  -9.669765e+01
  -3.912067e+00   2.992214e+01
  -8.611040e+01  -1.509830e+01
  -1.072404e+02  -3.048099e+01
  -2.739162e+01  -1.716707e+02
   1.286057e+02  -1.603442e+02
   2.151064e+02   4.005199e+01
   2.182971e+02   1.858991e+02
   4.306483e+01   2.414096e+02
  -1.203348e+02   1.621564e+02
  -1.362376e+02   1.598697e+01
  -4.819249e+01  -4.427254e+01
  -2.951387e+01  -1.209605e+02
   1.887505e+01  -1.853016e+01
  -4.630225e+01   4.062888e+01
  -5.098618e+01  -3.908034e+01
   2.792603e+01  -3.933520e+01
   9.315711e+01  -6.861277e+00
   8.926211e+01   7.523228e+01
   2.861924e+01   2.795759e+01
  -1.196135e+02   7.077181e+01
  -2.307370e+02  -3.357132e+01
  -1.583426e+02  -2.369147e+02
   4.977823e+01  -2.576191e+02
   2.874471e+02  -5.191637e+01
   2.982357e+02   9.039675e+01
   1.164647e+02   1.873467e+02
  -1.351404e+01   1.545409e+02
  -1.148014e+02   8.465480e+01
  -1.127034e+02   7.512346e+01
  -1.194349e+02   8.414817e+01
  -8.965374e+01   5.622081e+01
  -1.599903e+02  -2.679384e+01
  -9.689752e+01  -1.820135e+02
  -2.219208e+01  -2.087321e+02
   9.462101e+01  -2.236209e+02
   2.281383e+02  -4.227352e+00
   1.354812e+02   1.514471e+02
   5.939430e+01   1.979056e+02
  -1.061641e+02   1.175003e+02
  -8.455089e+01   1.968797e+01
  -2.538586e+01  -9.169078e+01
  -4.382156e+01   1.600644e+01
  -4.291942e+01  -1.211895e+00
  -3.894890e+01  -4.553393e+01
  -6.630618e+01  -2.423574e+01
   4.817478e+01  -1.184880e+02
   2.031473e+02   1.054508e+01
   1.389283e+02   9.945296e+01
   4.746073e+01   1.249172e+02
  -9.555131e+01   6.509861e+01
  -2.111897e+02  -8.719294e+00
  -1.035349e+02  -4.024240e+01
   8.127364e+01  -3.688774e+01
   6.013153e-01   4.186900e+01
  -2.138178e+00   1.188748e+01
  -5.547482e+01   1.567823e+01
  -8.882281e+01  -2.882362e+01
  -5.801891e+01  -1.184111e+02
  -3.387453e+01  -7.777292e+01
  -6.184517e+01   2.386884e+01
  -4.937662e+01   2.223169e+00
  -3.950190e+01  -8.706664e+01
   6.130986e+01  -1.510927e+02
   1.201238e+02  -1.219073e+02
   1.715482e+02  -1.028807e-01
   1.638080e+02   1.392176e+02
  -6.365142e+00   1.601951e+02
  -1.241914e+02   5.885088e+01
  -9.013258e+01  -1.898637e+00
   7.526289e+01  -2.125810e+01
   1.947249e+02   1.109235e+01
   8.852455e+01   1.435114e+02
  -1.266557e+02   1.396939e+02
  -1.938384e+02   6.747668e+01
  -1.828279e+02  -6.006349e+01
  -1.865013e+01  -8.713067e+01
   1.418745e+01  -4.812284e+01
   1.070633e+02   3.736456e+00
  -4.311041e+01   4.524382e+01
  -9.507421e+01  -2.504586e+01
  -9.524402e+01  -6.970780e+01
   8.616589e+01  -2.029944e+02
   1.250628e+02  -6.263950e+01
   1.149933e+02   8.397687e+01
   4.988588e+01   2.291692e+02
  -9.257866e+01   1.448937e+02
  -1.422879e+02  -3.030677e+01
  -7.890772e+01  -1.136132e+02
   6.398864e+01  -1.332656e+02
   2.250354e+01   2.598100e+01
   5.479019e+01   1.463722e+01
   2.709896e+01   4.567491e+01
  -1.700648e+01  -5.217895e+01
   9.425362e-01  -1.671756e+01
   2.321297e+01   1.211415e+02
   4.410126e+01   1.348813e+02
  -3.773804e+01   7.261338e+01
  -1.379085e+02  -3.875276e+01
  -1.700232e+02  -9.181074e+01
  -8.719369e+01  -1.371603e+01
   1.043781e+02  -1.416313e+01
   9.244471e+01  -4.692040e+00
   8.652740e+01   7.571195e+00
  -3.491833e+01   3.534668e+01
  -7.695944e+00   1.298790e+01
   5.597429e+01   5.244793e+01
   5.578619e+00  -3.006194e+00
  -8.835987e+01  -3.221345e+01
  -1.335891e+02  -2.892881e+01
   2.968242e+01  -1.022933e+02
   1.493688e+02  -3.485568e+01
   2.096486e+02  -3.665617e+01
   1.443197e+02   4.742074e+01
   2.321003e+01   1.453729e+02
  -1.182710e+02   1.423901e+02
  -1.699471e+02   4.029388e+01
  -6.317096e+01  -6.389498e+01
  -1.622925e+01  -5.825410e+01
  -7.475327e+00   6.518327e+01
  -1.423519e+01  -1.452696e+01
  -2.638869e+01  -4.410482e+01
  -3.155394e+01  -2.112838e+01
  -2.665535e+00  -6.346739e+01
   9.513250e+01  -4.082162e+01
   1.080097e+02   1.398032e+02
   1.931284e+01   1.272111e+02
  -9.494511e+01   3.765764e+01
  -1.254250e+02  -1.196427e+02
  -7.522629e+01  -7.099153e+01
   1.264066e+02  -6.877967e+01
   7.589798e+01  -3.495225e+00
   6.843029e+01   5.342653e+01
   4.938212e+00   7.913099e+01
  -4.294978e+01  -4.709565e+01
  -2.608503e+01  -3.848752e+01
   2.719285e+01  -1.257328e+01
   1.281075e+01   1.887450e+00
  -1.218633e+02   5.614278e+01
  -9.028781e+01   6.021729e+01
  -1.770677e+01  -1.959507e+01
   3.027454e+00  -9.569897e+01
   5.124781e+01  -9.881791e+01
   6.650119e+00  -7.861803e+00
   1.104854e+01   8.787503e+01
  -1.323726e+01   3.522000e+01
  -2.732786e+01  -5.123183e+01
  -5.106448e+01  -4.341741e+01
  -8.137671e-01  -4.424053e+01
   5.156836e+01   5.059322e+01
   5.286525e+00   4.620686e+01
   2.152506e+01   3.025679e+01
  -1.082954e+01   7.462074e+00
  -5.899130e+01   2.510530e+00
  -9.876187e+00   4.815309e+01
  -1.616334e+01   5.541226e+01
  -4.564927e+01  -4.808650e-01
  -5.141383e+01  -4.465579e+01
   2.961509e+01  -5.202254e+01
  -6.611220e+00   9.802337e+00
   7.648239e+01   4.536123e+01
   5.803350e+01   5.187315e+01
  -9.469102e+00   3.850376e+01
  -1.084147e+02  -3.705995e+01
  -7.873829e+01  -4.666278e+01
   6.399396e+01  -3.768187e+01
   4.895294e+01  -1.630779e+01
   4.946936e+00  -3.062731e+00
  -8.339363e+00   1.785421e+01
  -2.197130e+01  -1.010317e+01
   4.463577e+01  -4.563166e+01
   9.759781e+01   2.894549e+01
