
 $NMID
 id='ANONYMOUS ', fmtdat='(2E16.6)'
 volume=1.0
 tramp=1.0
 $END
   4.889733e+03  -5.236798e+01
   2.823448e+03   2.984373e+03
  -8.960481e+02   3.172075e+03
  -2.491441e+03   9.203482e+02
  -1.053900e+03  -8.861346e+02
   8.009787e+02  -6.917051e+02
   1.103306e+03   5.002475e+02
   1.715942e+01   1.272497e+03
  -9.633835e+02   8.215018e+02
  -1.098390e+03  -8.676934e+01
  -5.222720e+02  -1.039481e+03
   2.834747e+02  -1.022631e+03
   7.413093e+02  -1.340156e+02
   4.931762e+02   8.591222e+02
  -3.027206e+02   8.576407e+02
  -6.998379e+02  -5.410251e+01
  -2.882027e+02  -7.940727e+02
   3.194231e+02  -7.249681e+02
   6.813241e+02  -3.818064e+01
   4.394739e+02   4.522167e+02
   4.197430e+01   5.149654e+02
  -3.023518e+02   2.696868e+02
  -2.335439e+02   5.958032e+01
   1.137815e+02  -9.347654e+01
   4.266889e+02   5.290635e+01
   3.489434e+02   5.345603e+02
  -4.420345e+02   4.985813e+02
  -9.947346e+02  -6.027153e+01
  -5.687078e+02  -6.739798e+02
   4.571023e+02  -5.615406e+02
   9.029328e+02  -8.106160e+01
   4.563467e+02   5.317947e+02
  -2.859562e+02   6.458622e+02
  -6.579725e+02   2.025433e+02
  -5.243008e+02  -2.539221e+02
  -1.010331e+02  -5.160259e+02
   2.088281e+02  -3.614406e+02
   2.273904e+02   2.581364e+02
  -1.727471e+02   5.341447e+02
  -5.730375e+02   5.411710e+01
  -2.678432e+02  -7.916262e+02
   3.472140e+02  -7.932987e+02
   7.027821e+02  -5.124706e+01
   3.730388e+02   6.516023e+02
  -3.805989e+02   3.504974e+02
  -4.832785e+02  -3.392209e+02
   7.086885e+01  -6.140833e+02
   6.702660e+02  -1.976239e+02
   6.687970e+02   4.431678e+02
   2.338830e+02   7.229966e+02
  -3.982247e+02   4.063418e+02
  -7.296022e+02  -1.171785e+01
  -4.659852e+02  -4.504626e+02
   1.926192e+02  -4.180809e+02
   5.371083e+02  -3.731860e+01
   2.646252e+02   1.790856e+02
  -1.252050e+02   7.109005e+01
  -2.173584e+02  -1.876569e+02
   1.944946e+02  -2.503230e+02
   4.951452e+02   4.017678e+01
   1.510764e+02   3.633509e+02
  -1.869097e+02   3.138373e+02
  -3.454428e+02   5.601116e+01
  -1.710412e+02  -8.140857e+01
   3.960050e+01  -2.162617e+02
   1.733246e+02  -3.802926e+02
   3.477933e+02  -2.348720e+02
   3.267148e+02   9.266798e+01
   1.514953e+02   4.679291e+02
  -1.311547e+02   4.380948e+02
  -1.559373e+02   1.302353e+02
  -3.179898e+01   2.841155e+00
  -2.929166e+01   5.328646e+01
  -2.155987e+02   1.565162e+02
  -3.161792e+02  -3.593240e+01
  -1.701584e+02  -2.784277e+02
   6.681020e+01  -3.159889e+02
   3.039975e+02  -5.702967e+01
   2.264035e+02   2.911731e+02
  -1.340710e+01   3.057963e+02
  -2.448330e+02   1.209547e+02
  -3.993120e+02  -1.317777e+02
  -1.745099e+02  -3.648954e+02
   9.112288e+01  -3.024328e+02
   2.914618e+02  -1.117457e+02
   1.683394e+02   1.176979e+01
   5.290195e+01  -7.094005e-01
   2.469005e+02  -1.311568e+02
   4.015213e+02   3.500751e+01
   3.689357e+02   3.099850e+02
   5.942059e+01   5.087929e+02
  -3.481912e+02   4.360156e+02
  -5.221297e+02   1.897034e+02
  -3.805849e+02  -1.153003e+02
  -7.108692e+01  -2.820097e+02
   6.680148e+01  -2.771387e+02
   1.010281e+02  -1.625817e+01
  -1.253788e+02   1.569483e+02
  -2.308602e+02  -2.571625e+01
  -6.343476e+01  -1.512447e+02
   1.898029e+02  -2.133522e+02
   2.269671e+02   7.708432e+01
  -3.254132e+00   2.229055e+02
  -2.456428e+02   2.460160e+01
  -1.798281e+02  -2.593677e+02
   7.667413e+01  -4.007109e+02
   2.371373e+02  -1.487046e+02
   2.835248e+02   5.942070e+01
   2.841124e+02   2.380042e+02
   1.268786e+02   3.097258e+02
  -8.812608e+01   1.534259e+02
  -1.971121e+02   3.225056e+01
  -7.375574e+01  -2.778039e+01
   1.859354e+01   2.551548e+00
   1.174271e+02   1.593547e+02
  -1.694508e+02   1.118914e+02
  -1.905829e+02  -9.638367e+00
  -6.119663e+01  -8.700016e+01
   1.137248e+02  -1.311932e+01
   6.584808e+01   1.224931e+02
  -5.894598e+01   7.891619e+01
  -3.241899e+02   5.683772e+01
  -2.705455e+02  -1.543545e+02
  -1.287152e+02  -2.462409e+02
   1.933442e+02  -2.893009e+02
   2.818289e+02  -1.615742e+02
   1.849534e+02   5.072781e+01
  -4.644588e+01   1.528194e+02
  -5.522101e+01   5.110294e+01
   1.647987e+01  -1.606547e+02
   1.862986e+02  -2.209634e+01
   1.892254e+02   8.413958e+01
   1.142707e+02   2.551657e+02
  -1.111540e+02   2.151447e+02
  -1.606468e+02   1.558543e+01
  -1.118914e+02  -5.908720e+01
   1.901538e+01   1.264598e+01
   2.020718e+01   8.059939e+01
  -4.520697e+01   9.580468e+01
  -1.775201e+02   6.480114e+01
  -1.646314e+02  -1.077689e+02
  -2.563199e+01  -2.367904e+02
   1.944751e+02  -2.449031e+02
   1.575008e+02   3.769401e+01
   4.006567e+01   1.659193e+02
  -3.563806e+01   1.036533e+02
  -1.324437e+02   4.733366e+01
  -5.920636e+01  -6.088651e+01
   1.094277e+01   2.584569e+01
   3.259765e+01  -2.194948e+01
  -9.073999e+01   5.927683e+01
  -1.141909e+02  -7.620864e+01
   1.440593e+01  -1.904790e+02
   1.451745e+02  -1.853350e+02
   2.716227e+02  -4.297229e+01
   2.321663e+02   1.165274e+02
   5.666960e+01   2.608901e+02
  -8.684449e+01   1.332011e+02
  -1.424120e+02   6.348528e+01
  -5.334570e+01  -9.406349e+01
  -6.683717e+01  -3.664034e+01
  -3.538652e+01   1.737949e+01
  -1.205014e+02  -8.425263e+00
   1.373421e+01  -5.462294e+01
   6.019615e+01  -5.530901e+01
   5.521424e+01  -5.359717e+01
   2.428515e+01   6.003533e+01
  -8.818143e+00   1.223394e+02
  -1.485843e+02   1.004165e+02
  -2.272599e+02  -4.549075e+01
  -6.623075e+01  -2.302317e+02
   1.024470e+02  -2.924256e+02
   3.053389e+02  -9.799384e+01
   2.794191e+02   8.036993e+01
   7.197905e+01   1.608814e+02
  -7.767119e+01   2.010704e+02
  -7.705627e+01   1.363839e+02
  -1.172441e+02   1.693739e+02
  -8.287696e+01   2.335424e+01
  -6.208974e+01   5.887496e+01
  -1.019892e+02  -5.208129e+01
  -1.614943e+02  -2.138389e+02
   5.712540e+00  -2.883374e+02
   1.609134e+02  -1.471677e+02
   1.864547e+02  -4.645727e+01
   1.518888e+02   1.786181e+02
  -2.632795e+00   1.784465e+02
  -7.476024e+01   8.379881e+01
  -2.855851e+01   2.707544e+01
   2.273917e+01  -4.453144e+01
  -3.313369e+00  -9.930423e+00
  -7.990672e+01  -5.436080e+01
  -8.293161e+01  -3.879445e+01
  -4.863040e+01  -3.741439e+01
   6.755807e+01  -5.081691e+01
   1.514123e+02   3.648390e+01
   1.919520e+02   7.586565e+01
   1.911264e+01   6.967299e+01
  -7.621604e+01   8.517822e+01
  -1.716763e+02  -2.546874e+01
  -4.657606e+01  -5.909207e+01
   3.283893e+01   2.350417e+00
   6.262173e+01  -3.195860e+01
   7.557258e+01   3.512578e+01
  -4.934722e+01   1.069147e+02
  -8.008877e+01   2.376230e+01
  -9.023150e+01  -1.338575e+01
  -3.460589e+01   4.749108e+01
  -6.425438e+01   5.051367e+00
  -8.314965e+01  -2.339213e+00
   1.550749e+01  -1.334089e+02
   3.041170e+01  -1.072141e+02
   9.493557e+01  -1.420850e+02
   1.284461e+02  -5.142154e+00
   9.876444e+01   6.425743e+01
   1.962874e+01   1.178454e+02
  -7.311744e+01   7.645221e+01
  -1.083860e+02   6.216529e-01
   2.873954e+01  -2.996135e+01
   1.384313e+02   1.345430e+01
   1.006453e+02   1.312495e+02
  -1.273225e+02   1.445240e+02
  -2.084309e+02   6.032720e+01
  -2.317859e+02  -2.477168e+01
  -1.352672e+01  -9.459320e+01
   7.891741e+01  -4.339606e+01
   7.737297e+01  -4.968119e+01
  -5.980410e+01   6.389743e+01
  -1.268706e+02  -2.464901e+01
  -6.000234e+01  -1.203291e+02
   7.075124e+01  -1.189865e+02
   1.992957e+02  -7.902522e+01
   1.444937e+02   1.121126e+02
  -1.583276e+01   1.701172e+02
  -8.051411e+01   1.610713e+02
  -1.165264e+02   3.252972e+00
  -7.381188e+01  -9.739399e+01
  -8.280152e-01  -1.625117e+02
  -1.780328e+01  -5.645746e+01
   9.334449e+01   5.303610e+01
  -6.893720e+00   9.247856e+00
  -3.328958e+01   4.893309e+00
   7.581691e+00   5.588627e+01
   5.236218e+01   4.838413e+01
   6.018582e+01   1.105758e+02
  -6.156415e+01   1.746888e+01
  -8.489881e+01  -4.809292e+01
  -1.469133e+02  -1.881328e+01
  -7.887138e+00  -1.883853e+01
   9.325126e+01  -6.731465e+01
   5.794203e+01   2.682311e+01
  -4.271979e+01  -8.408788e+01
  -5.057400e+01  -3.885663e+01
  -2.513740e+01   4.152284e+01
   3.219990e+01   3.523528e+01
  -1.526495e+01   3.044318e+01
  -1.021715e+02  -2.451161e+01
  -1.441192e+02   1.476240e+01
   2.114250e+01  -9.863095e+01
   1.354554e+02  -1.570936e+02
   2.388363e+02  -8.347522e+01
   1.221592e+02   9.719136e+01
  -2.825526e+01   1.229229e+02
  -7.224512e+01   1.223719e+02
  -1.063169e+02   5.870154e+01
  -7.581426e+01   1.649686e+01
  -4.993268e+01  -5.230989e+01
   8.397424e+01   4.618626e+01
   2.358469e+01  -2.164941e+01
  -4.556105e+01  -4.936442e+01
  -7.573687e+01  -1.250457e+02
   6.319312e+01  -8.570831e+01
   1.539203e+02   3.619727e+01
   2.196564e+01   4.908205e+01
  -1.865425e+01   9.691830e+01
  -1.004570e+02  -2.572945e+01
  -1.358990e+02  -8.400174e+01
   5.344797e+00  -1.145104e+02
   6.144498e+01  -7.817784e+01
   1.097488e+02   2.845280e+01
   1.051694e+02   4.152531e+01
  -3.637095e+01   9.332139e+01
  -4.945850e+01   5.332945e+01
   5.452556e+01   3.394862e+01
   5.584608e+01  -5.521727e+01
   3.072783e+01   3.648945e+01
  -6.677013e+01   1.083359e+02
  -1.486958e+02   3.103959e+01
  -6.541484e+01  -1.340336e+01
   5.037143e+01  -1.203015e+02
   5.303521e+01  -5.833768e+01
  -1.162238e+01  -1.601067e+01
  -1.163475e+01   5.098446e+01
  -3.119852e+01   6.055154e+01
   2.569396e+01  -5.151424e+01
  -3.148425e+01  -1.202109e+02
  -4.224302e+01  -3.599798e+01
   2.054312e+01   9.203392e+00
   8.475236e+01   6.155744e+01
   5.481757e+01  -1.774276e+00
   1.165373e-02  -5.658462e+01
  -1.040467e+01  -3.719477e+01
  -3.071630e+01   2.691520e+01
  -4.532125e+01   5.894045e+01
  -2.520877e+01   3.499958e+00
  -3.413050e+01  -7.548755e+01
   8.197900e+00  -7.496956e+01
   4.794972e+01  -3.127867e+01
   9.955710e+01   7.105960e+01
   6.891592e+01   9.091550e+01
  -8.464358e+01   3.600418e+01
  -9.114112e+01  -2.473595e+00
  -5.001011e+01  -2.648865e+01
   1.229219e+01  -7.673598e+01
   6.954590e+01  -3.252674e+01
   2.628356e+01   4.995203e+00
  -1.110740e+02   1.856714e+01
  -3.127022e+01  -1.872753e+01
   8.661327e+01  -3.024765e+01
   1.086019e+02  -4.791798e+00
