
 $NMID
 id='ANONYMOUS ', fmtdat='(2E16.6)'
 volume=1.0
 tramp=1.0
 $END
  -2.704908e+03   1.321281e+02
  -1.662257e+03  -1.556784e+03
   3.073118e+02  -1.738439e+03
   1.298099e+03  -6.373018e+02
   6.192624e+02   3.563208e+02
  -3.503422e+02   4.140986e+02
  -5.911309e+02  -2.068102e+02
  -3.451619e+01  -6.905482e+02
   4.612169e+02  -5.295121e+02
   6.164441e+02   4.769798e+01
   2.820088e+02   5.200680e+02
  -7.819897e+01   5.983268e+02
  -4.117666e+02   8.493515e+01
  -3.116075e+02  -4.090090e+02
   1.177623e+02  -4.691809e+02
   3.438220e+02  -2.656033e+01
   2.282735e+02   4.841496e+02
  -1.615456e+02   3.790449e+02
  -3.410012e+02   1.159482e+02
  -2.192027e+02  -2.349842e+02
   2.360464e+00  -2.320441e+02
   1.331493e+02  -1.803163e+02
   1.130889e+02  -1.625731e+01
  -8.781132e+01  -1.348698e+01
  -2.326389e+02   1.011823e+01
  -1.670777e+02  -2.280721e+02
   2.539336e+02  -2.881409e+02
   4.928778e+02   4.759648e+01
   3.311967e+02   3.631999e+02
  -2.120412e+02   3.069270e+02
  -4.839546e+02   3.048893e+00
  -2.661597e+02  -2.588337e+02
   1.162908e+02  -2.850343e+02
   3.067607e+02  -1.509311e+02
   2.754869e+02   1.455945e+02
   7.412226e+01   3.661088e+02
  -1.016516e+02   1.928940e+02
  -1.259901e+02  -1.014012e+02
   9.649481e+01  -2.758500e+02
   2.503073e+02  -1.127225e+01
   1.980853e+02   3.692014e+02
  -1.395262e+02   4.887975e+02
  -3.712653e+02  -9.672302e+00
  -1.909207e+02  -3.361794e+02
   1.849458e+02  -1.877227e+02
   3.090500e+02   2.195904e+02
   4.005014e+01   2.654267e+02
  -3.819142e+02   1.545715e+02
  -3.719709e+02  -2.045290e+02
  -1.491572e+02  -3.169946e+02
   2.465861e+02  -2.382640e+02
   4.297482e+02   6.562042e+01
   2.614585e+02   2.205260e+02
  -7.542526e+01   2.981160e+02
  -2.260723e+02   5.331307e+01
  -1.565258e+02  -1.524401e+02
   7.361395e+01  -8.704041e+01
   1.168686e+02   8.415255e+01
  -1.020928e+02   1.791036e+02
  -2.578040e+02  -4.987248e+01
  -5.381582e+01  -1.148867e+02
   9.170466e+01  -1.496246e+02
   2.114181e+02  -2.008599e+01
   1.418624e+02   4.295701e+01
  -2.965049e+01   1.355054e+02
  -1.551209e+02   2.199384e+02
  -1.750212e+02   1.439896e+02
  -2.241729e+02  -1.196270e+02
  -8.810203e+01  -2.602748e+02
   3.662252e+01  -2.327783e+02
   1.051419e+02  -7.818710e+01
   4.589513e+01  -1.212165e+01
   2.874663e+01   1.338636e+01
   1.441789e+02  -7.424457e+01
   1.746926e+02   4.752323e+01
   9.948467e+01   1.460681e+02
  -2.482019e+01   1.321959e+02
  -1.434526e+02  -1.006933e+01
  -1.009194e+02  -1.303286e+02
  -1.389993e+01  -1.566448e+02
   1.648759e+02  -6.531993e+01
   1.926157e+02   9.840616e+01
   1.737143e+02   2.193924e+02
   1.145662e+00   2.162330e+02
  -1.530250e+02   8.642254e+01
  -1.756040e+02   1.610046e+01
  -6.000190e+01   1.391207e+01
  -1.158320e+02   7.050703e+01
  -1.832694e+02   2.979073e+00
  -2.300272e+02  -2.002265e+02
   9.894510e+00  -3.020585e+02
   2.172160e+02  -2.112141e+02
   2.904426e+02  -1.515276e+02
   1.541092e+02  -1.169197e+01
   6.989496e+00   1.681478e+02
  -8.682076e+01   9.818108e+01
  -1.901504e+01  -2.651298e+00
   9.464081e+01  -8.565989e+01
   1.363587e+02   7.072671e+00
   3.589906e+01   1.301380e+02
  -7.705506e+01   8.479463e+01
  -1.131541e+02  -2.699084e+00
   7.101876e+01  -1.063116e+02
   1.237495e+02  -4.137831e+01
   8.114531e+01   8.989001e+01
  -5.139201e+00   2.124103e+02
  -1.204782e+02   7.333572e+01
  -1.889621e+02  -5.612663e+01
  -1.825583e+02  -1.390505e+02
  -4.677287e+01  -1.831252e+02
   1.076484e+02  -1.223085e+02
   1.235360e+02  -4.095793e+01
   1.056431e+01  -3.497195e+00
  -4.361171e+01  -3.934999e+01
  -1.400699e+00  -7.335341e+01
   4.273255e+01  -5.636299e+01
   7.553093e+01   3.573279e+01
  -1.609079e+01  -1.507143e+01
  -9.693368e+01   5.078538e+01
  -1.593858e+01  -1.929941e+01
   5.777503e+01  -3.968797e+01
   1.847786e+02   1.589460e+01
   1.318076e+02   1.351879e+02
   2.775001e+01   1.088025e+02
  -1.420474e+02   1.732552e+02
  -1.919175e+02   7.919675e+01
  -1.503875e+02  -2.405795e+01
  -4.401527e+01  -9.193635e+01
   1.720754e+01  -1.100869e+01
   2.421038e+01   7.870999e+00
  -1.716804e+02   5.966778e+01
  -1.200195e+02  -2.893119e+01
  -3.259578e+01  -1.686159e+02
   2.153730e+01  -1.560412e+02
   5.924854e+01   5.134322e+01
   9.783068e+00   1.456729e+01
   3.975328e+01  -8.664758e+01
  -1.285760e+01  -2.966767e+01
   4.867570e+01   1.564848e+01
   1.115546e+02  -7.063623e+01
   1.739646e+02   3.594706e+01
   7.431433e+00   7.911645e+01
  -1.095291e+02   8.147677e+01
  -1.004149e+02   3.540396e+01
  -1.588138e+01  -6.453732e+01
   2.322729e+01  -1.228851e+02
   6.756320e+01   1.470434e+01
  -6.245422e+00   1.202156e+01
  -2.727003e+01  -4.172146e+01
  -7.506936e+00   9.328962e+00
   6.590819e+01   2.004261e+01
   2.342932e+00  -2.158792e+00
   1.909318e+01   1.002929e+02
  -9.960646e+01   8.497452e+01
  -1.650563e+02  -3.840158e+01
  -1.213874e+02  -7.453017e+01
  -2.741447e+01  -1.833254e+02
   1.206427e+01  -6.009952e+01
   3.948614e+01  -5.105578e+01
   8.759309e+01   2.564653e+01
   1.032880e+01   6.678576e+01
   4.221419e+01   8.365807e+00
   6.890293e+01  -2.857623e+00
   9.418566e+00   4.042206e+01
  -1.344983e+01   5.588619e+01
  -1.236163e+02   9.739731e+00
  -8.552713e+01  -3.582207e+01
  -2.585265e+00  -5.289779e+01
   6.668936e+01  -1.105772e+02
   7.096105e+01   2.684405e+01
   8.070484e+01   1.002709e+02
  -1.095718e+01   7.172209e+01
  -1.294209e+02   1.370864e+01
  -1.974910e+02  -2.926351e+00
  -1.156653e+02  -8.077272e+01
  -7.697367e+01  -6.507191e+01
   8.949401e+01  -1.079337e+02
   1.336497e+01  -4.739104e+01
   5.829629e+01  -8.658676e+01
   1.252860e+02  -8.592946e+01
   4.817290e+01   3.007371e+01
   5.352085e+01   8.688738e+01
  -3.849632e+00   1.594798e+02
  -1.044749e+02   1.104827e+02
  -1.142065e+02   1.503425e+01
  -1.089237e+02  -4.040958e+01
  -6.503193e+00  -1.792494e+02
   1.921011e+01  -6.273321e+01
   5.385943e+01  -2.202161e+01
   2.518778e+01   1.861402e+01
   3.827082e+01  -1.979487e+00
  -4.830766e+01   8.732162e+01
   8.887190e+01   3.054859e+01
   2.266442e+01  -2.064949e+01
  -2.972990e+01   3.906348e+01
  -1.061003e+02  -8.994229e+00
  -7.442955e+01   3.215889e+01
  -4.517100e+01  -2.313096e+01
   2.452077e+01  -6.993952e+01
   7.842651e+01   3.906434e+01
   2.100635e+01   3.805958e+01
  -3.601707e+01   2.683059e+01
  -9.756043e+01  -7.289326e+01
  -1.248473e+01  -5.787048e+01
   6.892152e+01  -2.376858e+01
   2.295279e+01  -1.945933e+01
  -3.766200e+00   4.087150e+01
   9.300587e+00  -2.020067e+01
   3.493294e+01  -3.238449e+01
  -1.361538e+01   1.134033e+01
  -4.183849e+01   2.847649e+01
  -1.681947e+01   2.449685e+01
  -7.650611e+01   6.689512e+01
  -9.181433e+01   1.669307e+01
  -2.829184e+01  -3.651985e+00
   4.258858e+01  -9.489897e+01
   4.299995e+01  -8.091302e+01
   3.339223e+00  -3.755462e+01
  -1.056058e+02  -1.501128e+01
  -1.050321e+02  -6.040591e+01
  -5.860841e+01  -8.348853e+01
   3.394226e+01  -2.754818e+01
   1.102583e+02  -6.633175e+01
   5.522796e+01  -1.162342e+01
  -3.864772e+01  -9.562484e+00
  -1.989483e+01   6.063895e+01
  -2.626037e+00   1.399810e+01
  -2.055057e+01  -3.150486e+01
   2.888778e+01  -3.823305e+01
   5.327208e+01   9.163741e+01
  -1.973328e+01   1.272269e+02
  -9.810009e+01   3.853527e+01
  -1.113493e+02  -5.783905e+01
   3.947297e+01  -7.152826e+01
   5.472060e+01  -4.946885e+01
   1.132577e+02   6.352071e+00
   3.408872e+01   6.909027e+01
   1.100168e+01   3.503107e+01
  -2.078365e+01   3.488526e+01
  -4.988915e+01  -4.244006e+01
   1.463560e+00  -2.976696e+01
  -2.975892e+01   3.873612e+01
  -8.300467e+00  -5.038953e+01
  -3.138303e+01  -7.322563e+00
   1.106346e+01  -1.949961e+01
   9.813886e+00  -5.385111e+01
   6.969324e+01  -7.086681e+00
   4.124525e+01   1.166223e+02
   4.890735e+00   1.036219e+02
  -1.924337e+01  -1.671561e+00
  -8.656130e+01  -1.216402e+01
  -1.244366e+01   1.513148e+00
   7.715496e+00   1.259974e+01
   4.273547e+01  -3.695220e+01
  -3.080092e+01   3.343485e+01
   1.813875e+01   5.094858e+01
   5.589735e+01  -6.370797e+00
   1.125630e+02   3.892744e+01
  -3.359327e+01   4.744197e+01
  -8.471403e+01   2.133159e+01
  -1.219728e+02   5.837480e+01
  -1.314535e+02  -7.911016e+01
  -5.018043e+01  -6.053074e+01
   1.089265e+02  -6.997933e+01
   6.479786e+01  -1.406481e-01
   5.993941e+01  -9.455148e+00
   1.006577e+01   7.113819e+01
   2.533086e+01  -3.831738e+01
   3.078888e+01  -6.574365e+01
   6.505829e+00   4.696623e+01
  -4.275115e+00   7.128590e+01
  -6.988328e+00   1.806319e+01
  -4.030001e+01  -4.789202e+01
  -7.185012e+01  -5.507489e+01
  -4.094891e+01  -5.630638e+01
   2.733398e+01  -6.500220e+01
   6.969479e+01   9.456504e+01
   3.641555e+01   9.922550e+01
  -5.316726e+01   4.051943e+01
  -7.932312e+01  -1.643462e+01
  -3.481546e+00  -3.641322e+01
   5.719792e+01  -3.176764e+01
   2.332586e+01  -6.283325e+01
  -1.306398e+01   6.787631e+00
  -6.779524e+00  -1.556255e+00
  -5.613810e+01  -2.641269e+01
   9.541288e+01  -1.171541e+02
   9.242210e+01   4.240089e+00
   2.955968e+01   8.440383e+00
   1.361651e+01   1.164991e+02
  -4.909394e+01   4.441612e+01
  -1.493329e+01   4.748436e+00
  -6.646836e+00  -2.642477e+01
  -1.581694e+01  -3.822915e+01
  -6.709812e+00   2.734048e+01
   1.833014e+01   3.504843e+01
   2.792654e+01   3.112556e+01
  -4.723597e+01   2.091212e+01
  -1.338871e+01   2.482592e+01
   5.183090e+01  -3.432308e+00
   2.521515e+01  -5.411476e+00
  -4.221572e+01   1.704323e+01
   1.418842e+01  -2.007732e+01
   3.981871e+01  -6.696399e+01
   4.262435e+00  -5.267235e+00
  -3.894512e+01   7.970846e+00
   8.280615e+00   2.943077e+01
  -1.445611e+01  -2.585845e+01
   8.709093e+00  -5.634904e+01
  -3.019277e+01  -3.265682e+01
  -7.140195e+00  -4.893427e+01
   6.169957e+01   1.350843e+01
  -1.716488e+01  -5.198279e+01
  -1.519420e+01   4.965356e+00
  -7.748208e+01  -3.007211e+01
  -4.617129e+00   1.138295e+01
   4.859335e+01   1.545925e+01
  -1.806459e+01  -2.703215e+01
   1.802290e+01   3.546326e+00
  -5.066261e+01  -2.969476e+00
