
 $NMID
 id='ANONYMOUS ', fmtdat='(2E16.6)'
 volume=1.0
 tramp=1.0
 $END
  -6.788468e+02   7.085941e+01
  -3.725915e+02  -3.264376e+02
   1.147918e+02  -3.869398e+02
   2.759427e+02  -1.301169e+02
   1.607862e+02   1.552149e+02
  -1.795555e+02   1.157457e+02
  -1.202560e+02  -8.106379e+01
   4.100706e+01  -1.618454e+02
   8.010285e+01  -7.616166e+01
   1.063953e+02  -1.258888e+00
   1.394129e+02   1.650753e+02
  -6.677687e+01   1.106467e+02
  -1.348175e+02   2.751011e+01
  -2.146722e+01  -1.176225e+02
   6.040645e+01  -1.172799e+02
   1.009713e+02   3.295748e+01
   5.056632e+01   1.119709e+02
   1.722474e+01   9.744143e+01
  -8.362849e+01   3.918269e+00
  -2.907327e+01  -6.066292e+01
  -5.019925e+01  -4.587963e+01
   3.836989e+01  -4.064353e+01
   2.120328e+01   2.831298e+01
  -7.313485e+00  -1.269884e+01
  -3.127355e+01   6.754924e+01
   1.495929e+01  -7.511992e+01
   2.129062e+01  -6.075252e+01
   1.095718e+02  -4.818271e+01
   6.937365e+01   4.937358e+01
  -5.317687e+01   9.186580e+01
  -1.474760e+02   4.149946e+01
  -9.409513e+01  -4.372539e+01
   4.121096e+01  -9.009534e+01
   9.680968e+01  -2.453905e+01
   8.526321e+01   7.155960e+01
   5.571919e+01   2.221251e+01
  -8.091513e+01   4.488618e+01
  -2.226877e+01  -2.596436e+01
   3.646317e+00  -1.102948e+02
   9.208904e+01   4.402856e+01
   8.426572e+01   1.406393e+02
  -9.996111e+01   1.283473e+02
  -1.243517e+02  -4.635501e+01
  -4.590121e-01  -1.292329e+02
   4.733915e+01  -3.103495e+01
   9.612824e+01   6.480300e+01
  -2.092245e+01   6.297892e+01
  -1.152508e+02   2.387150e+01
  -1.036536e+02  -4.329243e+01
  -3.796074e+01  -1.406758e+02
   1.469421e+01  -7.702602e+01
   1.300510e+02   1.388550e+01
   7.121558e+01   6.185427e+01
  -3.564258e+00   9.329741e+01
  -4.486376e+01   5.732735e+01
  -6.006244e+01   2.072751e+00
  -3.681924e-01   4.006555e+01
   1.461466e+01  -7.001935e+00
  -7.166610e+00   7.356063e+01
  -4.343476e+01   2.548337e+01
  -5.364048e+01  -1.885928e+01
   7.297771e+01  -2.470986e+01
   4.070500e+00   2.706775e+01
   5.283480e+01   2.718898e+01
   1.716909e+01   1.255939e+01
  -3.463837e+01   4.413388e+01
  -8.909174e+01   3.086918e+01
   3.060619e-01   5.075615e+00
  -3.739582e+01  -7.801226e+01
   1.329651e+01  -1.072460e+02
   1.887309e+01   8.055555e+00
   5.009104e+01  -1.937520e+00
  -7.676277e+00  -1.009327e+01
   4.698227e+01  -3.280248e+01
   6.428258e+01   3.571058e+01
   4.459096e-01   1.922753e+01
  -9.535172e+00   3.214342e+01
   4.426355e+00   3.616594e+01
  -2.875893e+01  -2.671397e+01
   1.431644e+00  -1.250934e+01
   5.515264e+01   1.308794e+01
   1.086486e+02   8.838897e+01
  -1.616445e+00  -1.302917e+01
  -2.006107e+01  -2.316834e+01
  -2.965740e+01  -3.415146e+01
  -3.128188e+01  -2.784943e+01
  -3.414084e+01   5.927480e+01
  -5.062309e+01   8.002121e+01
  -8.105958e+01   1.203601e+01
  -4.781819e+01  -8.874865e+00
  -3.171965e+00  -9.374021e+01
   6.210863e+01  -8.488490e+01
   3.203405e+01  -9.317825e+01
   1.134172e+01   1.615989e+01
   4.169886e+01   4.454614e-01
  -4.747386e+01   1.859901e+01
  -1.651629e+01   1.841439e+01
   5.425928e+01  -8.612720e+01
  -6.159705e+00   4.776274e+01
  -6.682298e-01  -2.888540e+00
   9.638618e+00   2.863756e+01
  -1.722295e+01   1.541218e+00
   3.335555e+01  -3.741062e+01
   8.882183e+00  -6.971803e+01
   2.889611e+01   3.474636e+01
  -4.658663e+00  -1.283448e+01
  -4.370902e+01   2.515147e+01
  -5.102125e+01   2.082592e+01
  -7.784117e+01  -5.549137e+01
   3.658433e+01   1.065505e+01
   1.019721e+01  -3.181349e+01
   3.862905e+01   5.395544e+00
   4.023405e+01   1.238435e+01
  -2.683276e+01  -1.967736e+01
  -7.942267e+01   4.416122e+01
  -3.008825e+01  -3.934243e+01
   8.295225e+01   1.276739e+00
  -2.857949e+01   2.310050e+01
  -2.499253e+01   2.822783e+00
  -5.037670e+00  -4.749589e+01
   3.882004e+01   2.374856e+01
   3.990303e+01   3.707152e+00
   4.502083e+01   1.888173e+01
   6.987893e+01   4.884666e+01
   6.767355e+00   7.069797e+01
  -2.855639e+01  -1.561309e+01
   5.102178e+01  -2.436627e+01
  -7.569314e+01   1.234935e+01
  -9.500915e-01   8.475896e+00
  -5.566535e+01  -3.150907e+01
   4.868141e+00   2.364105e+01
  -4.892563e+01  -5.928779e+00
  -1.211855e+01   7.056209e+00
   4.445684e+01  -9.489654e+00
   2.893534e+01  -1.786616e+01
   1.274913e+01   2.273933e+01
   1.013744e+01   2.088923e+01
   1.146681e+01  -6.533708e+01
  -1.967351e+01  -5.448407e+01
   8.255220e+00  -3.423396e+01
   5.535518e+01   1.681705e+01
   6.075578e+01   2.446251e+01
  -3.220018e+01   3.514027e+01
  -5.362899e+01  -2.559010e+01
   1.018329e+00  -6.554485e+01
  -7.763199e+01  -5.379134e+01
  -1.245524e+01  -4.636331e+00
   5.842114e-01  -1.240010e+01
   2.741859e-01  -1.226453e+01
  -2.063022e+01  -3.856255e+01
  -5.509682e+01  -3.852031e+01
  -4.694006e+01  -3.788994e-01
   3.660899e+01   9.874481e+00
   2.400418e+01   3.190645e+01
  -5.929506e+01   3.882112e+00
  -2.056223e+01  -1.076820e+01
   3.646741e+00  -4.731734e+01
   2.082122e+00   1.635782e+01
   9.221349e+01   2.210389e+01
   1.299649e+01  -5.021060e+01
  -7.019973e+00  -3.471007e+01
  -2.502453e+00   2.535786e+01
   2.704981e+01   2.251369e+01
  -4.797818e+01   5.094109e+01
   5.729930e+00   2.140063e+01
  -4.404725e+01   1.669775e+01
  -7.582956e+00  -5.660218e+01
   2.903232e+01   8.927176e+00
   4.204801e+01   2.240549e+01
  -7.756604e+00  -9.179330e+00
   4.031568e+01   1.145814e+00
  -5.242337e+01   2.260776e+01
  -7.249599e+01   8.378412e+01
   8.353335e-01  -3.172686e+00
  -1.035255e+00  -5.090209e+01
   5.028462e+01  -5.911800e+01
   3.804124e+00  -3.834954e+01
   1.948334e+01  -4.305854e+01
   3.913817e+01   1.776022e+00
  -3.292405e+01   1.186700e+01
  -5.577792e+00  -5.694161e+01
   3.941718e+01   4.212182e+01
   9.569046e+00   5.572764e+01
  -4.164992e+01   4.686285e+01
  -4.277494e+01   1.348457e+01
  -1.558377e+01   1.259644e+01
  -2.774918e+01  -2.731494e+01
  -1.648041e+01   9.194495e+00
   7.563185e+01  -1.016966e+02
  -8.287114e+01  -2.509084e+01
   5.598061e+01  -9.494776e+00
   2.177202e+01   5.459777e+00
   1.492485e+01   2.911969e+00
   5.423047e+00   7.708618e+01
   5.167935e+01   1.249859e+00
  -4.505224e+01  -5.851717e+00
  -2.171408e+01   1.409091e+01
   3.282667e+01  -5.373875e+01
   3.151262e+01   2.579055e+01
   5.251685e+01   1.774062e+01
   1.781759e+01   1.489071e-01
  -1.432373e+01  -1.780551e+01
  -1.489181e+01  -5.905692e+01
   2.789105e+01  -5.747384e+01
  -2.006444e+01   1.894352e+01
   7.356401e+00   8.628464e+01
  -9.447223e+00   7.635738e+01
   3.521523e+01   4.351421e+01
  -3.091372e+01   4.269009e+01
   3.982590e+01  -5.639207e+01
  -1.558716e+01  -2.099983e+01
   7.000587e+00   4.578028e+01
   2.127683e+01   6.790064e+01
   1.087198e+01   1.656955e+01
  -1.586385e+01  -3.515907e+00
  -3.437999e+01  -5.845408e+01
   4.490482e+00  -4.490036e+00
   5.548371e+01   3.273144e+01
  -1.420055e+01   5.672566e+00
  -1.309005e+01   6.266042e+01
  -5.179719e+01  -2.847850e+01
  -1.974170e+00  -4.452515e+00
  -8.893916e+00  -1.800340e+01
   2.583776e+01  -7.192781e+01
   9.097173e+00   3.164348e+01
   3.257894e+00   5.336990e+01
   7.979910e+00   1.496535e+01
  -9.131896e+00  -2.150478e+01
  -1.957864e+01   6.036216e+01
  -4.620105e+01  -2.736040e+01
   3.030342e+00   3.373757e+01
   2.290455e+01  -2.131504e+01
   1.633196e+01  -2.624098e+01
   2.394312e+01  -5.098409e+00
  -2.316747e+01   5.133322e+00
   4.183990e+01  -3.855206e+01
  -5.467391e+00   2.307737e+01
  -3.185106e+01   6.010118e+01
   4.487656e+01   1.882789e+01
  -3.479946e+01   2.740584e+01
  -2.031510e+01  -3.876117e+01
   2.556136e+01   1.007465e+01
  -1.818229e+01   3.304498e+01
   1.346457e+01  -1.478687e+01
  -1.871824e+01   2.662818e+01
   7.508637e+01  -6.114149e+01
   2.649818e+01   4.213269e+01
  -4.112821e+01   1.720272e+01
  -4.244548e+01  -1.093329e+01
  -3.912804e+00  -8.903756e+01
  -1.012928e+01  -1.855583e+01
  -3.069579e+01   6.060091e-01
  -1.780280e+00   1.343040e+01
  -3.093747e+01  -4.623958e+01
  -8.383295e+01   6.694955e+01
   3.508945e+01   4.271276e+01
   1.325994e+01  -2.797028e+00
  -3.147686e+00  -3.125007e+01
  -2.874057e+01  -4.466887e+01
  -5.257978e+01   6.828930e+01
  -3.895502e+01   2.413887e+01
  -1.219120e+01  -8.641704e+01
   4.095719e+01  -5.089131e+01
   8.775267e+00  -1.972920e+01
   3.762359e+01   1.627878e+01
   2.108017e+01   1.704974e+01
  -2.554722e+01   1.473326e+01
   6.372807e+01  -1.252677e+01
   8.273308e-02  -4.890572e+01
   6.792810e+00   1.360225e+01
   1.965613e+01   3.885124e+00
  -5.845986e+00  -3.246560e+00
  -4.799778e+01  -5.052284e+01
  -4.552275e+01  -4.595294e+01
   2.714338e+01  -7.220223e+01
   3.169183e+01  -3.832209e+01
  -1.981058e-01   3.248961e+01
  -2.503305e+01   4.019725e+00
  -1.985365e+01   2.755347e+01
  -5.937170e+01   7.472957e+00
  -3.387997e+01   1.974480e+00
  -3.371947e+01   1.783622e+01
  -3.841397e+00   4.803935e+01
   9.277826e-02  -1.774429e+01
  -1.378585e+01   6.024373e+01
  -2.434584e+01   2.630694e+00
  -3.922878e+01  -9.269238e+00
   3.618250e+00  -3.613696e+01
  -4.276256e+01  -4.214989e+00
   2.115042e+00  -7.450399e+00
   1.456546e+01   1.644400e+00
  -6.564178e+01  -2.796269e-01
  -3.009256e+01   2.335276e+01
  -3.349338e+01   5.230621e+01
  -8.058455e+00   4.609477e+01
   1.054279e+01   1.866301e+01
   3.400996e+01  -5.217697e+01
   3.021026e+01  -1.945313e+01
  -1.634853e+01  -1.637957e+01
  -1.317826e+01   3.346621e+00
  -4.586002e+01  -1.396394e+01
  -4.762934e+01  -1.189582e+01
   1.787667e+01  -1.329043e+01
  -2.027748e+00   2.040877e+01
   3.363626e+01   6.034238e+00
  -3.769680e+01   4.162851e+00
   2.772660e+00  -1.167207e+01
  -5.113687e+00   8.056465e+01
   1.998078e+00  -1.323345e+01
  -3.630837e+01  -3.674015e+01
   4.471289e+01   3.356050e+00
   1.881683e+01   3.803019e+01
   3.958825e+01   1.991772e+01
  -3.151747e+01  -6.428848e+01
   9.705915e+00   3.830793e+01
  -2.901436e+01   1.137206e+01
  -2.799053e+01  -1.018360e+01
   3.409273e+01  -2.565997e+01
   8.972103e+00   3.386638e+01
  -3.601091e+01  -1.858796e+01
