
 $NMID
 id='ANONYMOUS ', fmtdat='(2E16.6)'
 volume=1.0
 tramp=1.0
 $END
   3.593281e+03   7.707444e+01
   2.259927e+03   1.935617e+03
  -2.336641e+02   2.221476e+03
  -1.490139e+03   1.184816e+03
  -9.494916e+02  -2.365196e-01
   1.592121e+02  -2.724835e+02
   5.172702e+02   1.912390e+02
   5.118413e+01   6.474654e+02
  -5.468356e+02   6.147151e+02
  -7.885359e+02  -6.742267e+00
  -3.959785e+02  -6.257100e+02
   1.285346e+02  -7.480277e+02
   4.168914e+02  -1.488647e+02
   2.436531e+02   5.604153e+02
  -2.022288e+02   5.711478e+02
  -4.699364e+02   1.034446e+02
  -3.393389e+02  -5.876744e+02
   2.271213e+02  -6.813516e+02
   5.027000e+02  -2.399621e+02
   3.970960e+02   2.176394e+02
   1.307239e+02   3.762779e+02
  -1.657857e+02   2.174613e+02
  -9.995367e+01   5.643683e+01
   1.703597e+02   5.155724e+01
   3.561842e+02   2.468678e+02
   7.590998e+01   3.938188e+02
  -4.818786e+02   2.597487e+02
  -7.651009e+02  -2.056790e+02
  -2.227548e+02  -4.492538e+02
   3.717301e+02  -3.206978e+02
   5.780840e+02   9.827247e+01
   1.968541e+02   4.074450e+02
  -3.045602e+02   3.965828e+02
  -4.588198e+02   1.263276e+02
  -3.063732e+02  -1.574293e+02
  -6.719347e+01  -3.447521e+02
   9.210619e+01  -1.886931e+02
   4.930823e+01   1.602341e+02
  -1.833029e+02   1.775973e+02
  -2.864112e+02  -9.150464e+01
  -5.557518e+01  -5.682180e+02
   2.794203e+02  -4.911432e+02
   3.995159e+02  -2.384176e+01
   1.413805e+02   3.868627e+02
  -1.693489e+02   1.607212e+02
  -1.739019e+02  -2.874568e+02
   8.809977e+01  -4.869136e+02
   5.526700e+02  -5.465993e+01
   5.069803e+02   3.965971e+02
   1.025606e+02   5.101554e+02
  -3.436863e+02   2.770788e+02
  -5.528373e+02  -5.970582e+01
  -3.681570e+02  -3.518010e+02
   6.472370e+01  -2.373547e+02
   3.480032e+02  -5.633989e+01
   2.135096e+02   2.279711e-01
   1.098984e+01   4.920299e+01
  -9.353065e+01  -7.963192e+01
   1.492122e+02  -5.427036e+01
   2.870413e+02   9.345642e+01
   1.508709e+02   2.095462e+02
  -1.588755e+02   2.378264e+02
  -3.936998e+02   1.246091e+02
  -2.367152e+02  -5.131476e+01
  -1.414967e+01  -3.126958e+02
   2.677019e+02  -3.230607e+02
   4.170685e+02  -1.351934e+02
   2.879584e+02   1.658993e+02
   3.505478e+01   4.361606e+02
  -7.406954e+01   3.009630e+02
  -3.884755e+01   1.786223e+02
  -2.390327e+01   8.082758e+01
  -1.115422e+02   9.675751e+01
  -1.944313e+02   7.077587e+01
  -2.253170e+02  -1.352331e+02
  -3.243182e+01  -2.855918e+02
   8.602066e+01  -2.310174e+02
   2.430023e+02   1.328338e+01
   1.648682e+02   3.036408e+02
   9.927905e+00   2.675009e+02
  -2.322035e+02   8.959068e+01
  -3.053313e+02  -1.972482e+02
  -1.914225e+02  -3.394872e+02
   6.764669e+01  -2.622587e+02
   1.783425e+02  -1.130350e+02
   1.467548e+02   9.071369e+00
   9.353081e+01  -7.078058e+01
   2.179680e+02  -1.009343e+02
   3.944804e+02   6.893382e+01
   3.157257e+02   3.342192e+02
  -7.100675e+01   3.783073e+02
  -3.405928e+02   3.596089e+02
  -5.153302e+02   1.992363e+02
  -2.872105e+02  -1.153310e+02
   1.564711e+01  -2.277502e+02
   9.358373e+01  -2.140241e+02
  -1.454491e+01  -1.008183e+02
  -1.255886e+02   6.507861e+01
  -1.493246e+02  -6.688759e+01
   2.337977e+00  -1.477905e+02
   1.010591e+02  -1.239413e+02
   1.655142e+02   7.090783e+01
  -3.943649e+01   9.759460e+01
  -1.574952e+02   4.449903e+01
  -1.026011e+02  -2.466018e+02
   4.841637e+01  -3.460116e+02
   2.284798e+02  -2.509899e+02
   3.904987e+02   5.184586e+01
   3.016052e+02   3.222075e+02
   4.662759e+01   2.569656e+02
  -1.227509e+02   1.653612e+02
  -1.705629e+02  -2.191881e+01
  -3.661418e+01  -5.759701e+01
   1.105856e+02   4.351332e+01
   5.974839e+00   1.333089e+02
  -1.289398e+02   7.593998e+01
  -1.592645e+02  -3.599633e+01
  -1.371495e+01  -1.043307e+02
   9.935197e+01  -1.437721e+01
   9.622346e+01   7.350843e+01
  -1.185164e+02   1.030012e+02
  -3.338259e+02  -9.470454e+01
  -2.668317e+02  -1.731287e+02
  -4.584383e+01  -3.088896e+02
   2.194917e+02  -2.294860e+02
   2.395319e+02  -1.296321e+02
   1.631361e+02   4.605772e+01
  -7.261346e+01   1.344916e+02
  -3.808254e+01   3.179233e+01
   4.159786e+01  -4.657707e+01
   1.928180e+02  -6.029095e-03
   2.006370e+02   1.476837e+02
   7.749623e+01   2.551278e+02
  -1.040473e+02   1.344661e+02
  -1.211368e+02   1.059755e+00
  -3.524939e+01  -5.717530e+01
   2.657651e+01   4.980152e+01
   6.953301e+01   1.381305e+02
  -1.452802e+02   1.444160e+02
  -2.662759e+02   4.923950e+01
  -2.234515e+02  -9.549091e+01
  -6.330841e+00  -2.221194e+02
   9.082406e+01  -2.319362e+02
   1.367091e+02  -1.142817e+01
   2.816647e+01   4.747156e+01
  -5.360743e+00   6.183490e+01
  -4.392566e+01   6.334634e+01
  -2.162766e+01  -8.224977e+00
   7.127832e+01  -1.290242e+01
  -8.424511e+00  -2.268155e+01
  -5.464777e+01   1.021297e-01
  -1.215386e+02  -5.295204e+01
   1.094974e+01  -1.364663e+02
   1.597980e+02  -1.169411e+02
   2.374497e+02  -2.361871e+00
   2.268363e+02   2.101748e+02
   6.631503e+01   2.324464e+02
  -1.473529e+02   1.475649e+02
  -6.333514e+01   5.319416e+01
   1.285105e+01  -6.216792e+01
  -3.861124e+01   1.257951e+01
   1.772200e+00  -3.950479e+00
  -5.633303e+01   2.077118e+01
  -1.116641e+02  -2.110693e+01
   5.870436e+01  -1.327311e+02
   8.726702e+01  -7.323778e+01
   9.547643e+01   2.229101e+01
  -9.626701e+00   1.534597e+02
  -1.890663e+02   7.988609e+01
  -1.846824e+02  -8.106004e+01
  -1.943693e+01  -2.207609e+02
   1.190007e+02  -2.300375e+02
   3.345558e+02  -5.796051e+01
   2.569378e+02   6.518990e+01
   9.714223e+01   1.756656e+02
  -5.022661e+01   1.328606e+02
  -9.125283e+01   3.507237e+01
  -5.646841e+01   7.981135e+01
  -5.166107e+01   1.318022e+02
  -5.236042e+01   8.803715e+01
  -2.030388e+02  -4.664365e+00
  -1.028775e+02  -1.635831e+02
  -8.760761e+01  -2.290377e+02
   1.126316e+02  -2.151090e+02
   1.895637e+02   4.361890e+01
   1.187150e+02   1.268441e+02
   2.320526e+01   9.459157e+01
  -9.767583e+01   6.989477e+01
  -8.594384e+01   3.328749e+00
   1.041126e+01  -7.488492e+01
  -8.998653e+00  -5.223902e+01
  -3.578157e+01  -5.036708e+01
  -5.445919e+01  -1.419670e+01
  -8.224568e+01  -1.711884e+01
   9.032538e+01  -1.233277e+01
   1.594161e+02   4.246039e+01
   1.123143e+02   6.215627e+01
   1.445504e+01   6.603879e+01
  -1.032891e+02   1.552349e+01
  -1.260067e+02  -1.345789e+01
  -1.245071e+01  -5.860530e+01
   9.693240e+01  -1.202064e+01
   6.978604e+01   7.407812e+00
   7.058460e+00   1.153038e+02
  -1.227730e+01   9.097503e+01
  -8.801234e+01   4.861386e+01
  -1.786042e+01  -3.234416e+01
  -4.489785e+01   3.072240e+01
  -7.163265e+01   2.816690e+01
  -7.042123e+01   3.013265e+01
  -1.240500e+01  -1.572047e+01
   2.022112e+01  -1.582613e+02
   1.493928e+02  -1.326762e+02
   1.325570e+02   1.748006e+01
   1.194452e+02   1.133495e+02
  -1.588565e+01   1.058813e+02
  -9.165483e+01   1.087363e+02
  -2.018813e+01   2.903657e+01
   4.386062e+01  -4.978301e+01
   1.691016e+02   1.077507e+01
   9.621976e+01   9.731734e+01
  -1.033916e+02   1.418977e+02
  -2.498594e+02   1.255407e+01
  -1.612380e+02  -1.277219e+01
  -3.040542e+01  -1.490432e+02
   8.043485e+01  -9.038075e+01
   6.318922e+01  -3.208029e+01
  -1.803985e+01   9.031505e+01
  -1.079133e+02  -9.255937e+00
  -1.031507e+02  -1.045918e+02
   8.591227e+01  -1.414725e+02
   9.315057e+01  -1.116669e+02
   6.914862e+01   6.825551e+01
   4.321837e+01   2.085641e+02
  -5.729643e+01   1.107527e+02
  -9.738656e+01   2.585566e+01
  -2.984819e+00  -1.294761e+02
   3.888076e+01  -1.009014e+02
   7.093910e+01  -5.679096e+00
  -1.350997e+01   2.398993e+01
  -3.489688e+00   2.092761e+00
  -1.036719e+01  -7.364142e+01
   1.664600e+01  -1.107547e+01
   8.784307e+00   1.134798e+02
   5.413263e+01   9.581458e+01
  -1.032342e+02   2.046469e+01
  -1.166974e+02  -2.879880e+01
  -1.317790e+02  -4.840076e+01
  -1.293648e+01  -5.013496e+01
   8.581319e+01  -1.349049e+01
   7.643217e+01  -7.379303e+00
   3.123528e+01   5.328846e+01
  -1.525757e+01   2.244569e+01
   7.444587e+00   1.378133e+01
   2.737962e+01   1.882624e+01
  -6.515571e+01  -4.212664e+01
  -7.070682e+00  -2.761200e+01
  -9.822554e+01  -1.096697e+01
  -2.791687e+01  -8.674181e+01
   1.219792e+02  -1.277399e+02
   1.215263e+02  -6.356636e+01
   1.357804e+02   2.177509e+01
  -6.959201e+00   1.799350e+02
  -1.249452e+02   1.581818e+02
  -1.436373e+02   7.426275e+01
  -1.045009e+02  -2.809685e+01
  -7.299206e+00  -1.003319e+01
  -3.637084e+01  -3.123066e+01
  -2.584165e+01  -1.240831e+00
  -7.113333e+01  -6.294234e+01
  -3.530017e+01  -1.082052e+02
   4.699768e+00  -2.619266e+01
   5.471440e+01   3.586545e+01
   4.517730e+01   1.175067e+02
  -3.021442e+01   7.799435e+01
  -2.723606e+01  -1.282291e+01
  -6.971743e+01  -9.152733e+01
  -6.041859e+00  -3.049140e+01
   6.596007e+01  -3.924419e+01
   1.048384e+02   4.789803e+01
   7.463268e+01   6.162802e+01
  -1.636793e+01   8.711652e+01
  -2.235620e+01  -6.284270e+00
   1.738268e+01  -6.960106e+01
   8.819198e+01  -2.522376e+01
   6.859053e+01   4.359768e+01
  -1.126660e+02   7.186843e+01
  -8.933462e+01   4.047848e+01
  -5.927276e+01  -9.802371e+01
   3.045253e+01  -8.698076e+01
   8.292522e+01  -1.293524e+02
   6.543081e+01   4.136805e+01
  -2.320444e+01   5.599636e+01
  -1.233342e+01   7.301088e+01
  -7.589732e+01  -2.521522e+01
  -5.311771e+01  -5.060630e+01
   3.643272e+01  -3.324725e+01
   1.970559e+01   1.296942e+00
   1.159004e+01   4.630567e+01
   3.673916e+01   3.034438e+01
  -4.220334e+00  -9.685056e+00
  -1.977767e+01  -3.484661e+01
  -2.268188e+01   3.100777e+00
  -4.191615e+01   7.419764e+01
   4.282849e+00   6.531209e+01
  -7.243260e+01  -7.119092e+01
  -9.694815e+00  -9.039246e+01
   2.016779e+01  -5.875387e+01
   2.965658e+01   3.751869e+01
   6.779189e+01   4.416062e+01
  -5.661636e+01   6.479183e+01
  -1.313753e+02  -4.809689e+01
  -5.057574e+01  -3.510843e+01
   4.720405e+01  -6.080164e+01
   6.523567e+01  -6.560264e+01
   1.813485e+01  -5.083500e+01
  -6.279592e+01  -5.806010e+01
  -1.809215e+01   1.863555e+01
   1.797806e+01  -8.095457e+01
   1.149898e+02  -5.645517e+00
