
 $NMID
 id='ANONYMOUS ', fmtdat='(2E16.6)'
 volume=1.0
 tramp=1.0
 $END
  -2.207817e+03   1.067228e+02
  -1.399074e+03  -1.093152e+03
   7.895108e+01  -1.422754e+03
   9.002781e+02  -7.393626e+02
   5.826540e+02  -3.906394e+01
  -8.024202e+01   2.102877e+02
  -3.708449e+02  -1.172148e+02
  -2.341989e+01  -5.046763e+02
   3.278254e+02  -3.732547e+02
   4.985214e+02  -4.999400e+01
   2.562239e+02   3.581052e+02
  -2.093674e+01   4.180343e+02
  -1.840132e+02   1.029257e+02
  -1.890642e+02  -3.155586e+02
   8.506380e+01  -3.664368e+02
   3.023020e+02  -8.959491e+01
   2.212944e+02   2.767294e+02
  -6.599244e+01   3.875785e+02
  -3.015383e+02   1.572035e+02
  -2.277702e+02  -1.411482e+02
  -9.048997e+01  -1.691887e+02
   7.870871e+01  -1.655446e+02
   4.596999e+01   1.332970e+01
  -4.861496e+01  -4.714130e+01
  -2.584553e+02  -1.178964e+02
  -3.964275e+01  -2.581399e+02
   3.045766e+02  -1.420576e+02
   4.308018e+02   6.677310e+01
   1.849537e+02   2.796687e+02
  -1.849760e+02   1.847040e+02
  -3.417607e+02  -8.383781e+01
  -1.375394e+02  -2.525432e+02
   1.307713e+02  -2.105231e+02
   2.673729e+02  -7.123606e+01
   2.025685e+02   1.703860e+02
   2.354415e+01   2.370171e+02
  -1.824638e+01   1.011867e+02
   3.655160e+01  -5.945354e+01
   1.356657e+02  -1.553932e+02
   2.144675e+02   8.243187e+01
   6.889025e+01   3.877585e+02
  -1.324456e+02   3.267849e+02
  -3.030495e+02   1.600878e+01
  -7.750786e+01  -2.481319e+02
   7.484187e+01  -1.028950e+02
   2.029923e+02   1.909208e+02
  -9.860832e+01   2.780935e+02
  -2.951488e+02   7.714528e+01
  -3.547477e+02  -2.722605e+02
  -1.062409e+02  -3.219036e+02
   2.080580e+02  -1.850119e+02
   3.288745e+02   7.355458e+01
   2.498838e+02   1.832704e+02
  -7.284466e+01   1.808388e+02
  -2.317290e+02   6.408751e+01
  -1.649481e+02  -5.311089e+01
   2.252245e+01  -2.610039e+01
   7.964575e+01  -3.131494e+00
  -4.947225e+01   9.455948e+01
  -1.322167e+02   2.076771e+01
  -7.231765e+01  -1.211949e+02
   7.240533e+01  -1.773352e+02
   2.146154e+02  -9.634635e+01
   1.397524e+02   1.045979e+02
   3.454955e+01   1.954632e+02
  -1.750166e+02   1.633472e+02
  -2.371982e+02   1.310521e+02
  -1.469890e+02  -1.027757e+02
  -1.429975e+01  -2.432534e+02
   1.443618e+01  -1.771098e+02
   5.509609e+01  -9.950923e+01
   2.627091e+01  -4.809258e+01
   5.247812e+01  -1.106880e+02
   1.757199e+02  -5.175729e+01
   1.844697e+02   5.041474e+01
   3.629805e+00   1.663396e+02
  -1.243207e+01   1.074136e+02
  -1.342741e+02  -8.268502e+01
  -6.231970e+01  -1.527188e+02
   5.843175e+01  -1.679302e+02
   1.692132e+02  -9.856312e+01
   2.306127e+02   8.238566e+01
   7.855200e+01   1.692554e+02
  -3.648803e+01   1.674779e+02
  -5.741211e+01   7.344274e+01
  -5.968848e+01   7.678213e+01
  -8.034503e+01   7.008022e+01
  -1.508723e+02   3.381569e+01
  -2.027121e+02  -4.491577e+01
  -2.279659e+02  -1.725104e+02
   5.996160e+01  -2.639376e+02
   2.995245e+02  -2.119636e+02
   2.900124e+02  -1.574375e+02
   1.736493e+02   4.051470e+01
   3.986012e+01   1.946803e+02
  -7.565582e+01   1.045701e+02
  -4.578549e+00   2.262200e+01
   7.542807e+01  -1.595108e+01
   1.053796e+02   3.373284e+01
   1.677885e+00   1.307147e+02
  -1.027409e+02   1.406313e+02
  -6.995597e+01  -2.303449e+01
   3.165614e-01  -1.367267e+02
   1.174789e+02  -2.558477e+01
   7.643354e+01   1.611764e+02
  -3.352774e+01   2.204770e+02
  -1.201552e+02   1.294613e+02
  -2.198280e+02  -8.024785e+01
  -1.668971e+02  -1.282709e+02
  -8.820628e+01  -1.938044e+02
   8.926861e+01  -8.925534e+01
   6.252627e+01  -1.606808e+01
   3.615187e+01   8.587414e+01
  -7.821916e+01  -4.998990e+01
  -5.383497e+00  -4.316145e+01
   5.864495e+01  -1.352961e+01
   5.894516e+01   9.314616e+01
  -9.976035e+00   7.244179e+01
  -1.014744e+02   1.864063e+00
   2.358626e+01  -1.935834e+01
   7.618823e+01  -2.892955e+01
   1.837990e+02   6.555673e+01
   1.644392e+02   8.324047e+01
  -2.096208e+01   1.570646e+02
  -5.715847e+01   1.223710e+02
  -1.660039e+02   7.054277e+01
  -6.797063e+01  -4.194336e+00
   7.472684e+01  -5.496894e+01
   9.575953e+00   2.334934e+01
  -1.806311e+01   8.529636e+01
  -1.288881e+02  -1.228536e+01
  -1.429525e+02  -5.103592e+01
   1.034378e+00  -1.372470e+02
   7.691663e+01  -1.067635e+02
   8.390346e+01  -2.261828e+01
   1.998227e+01   1.995958e+01
  -3.584094e+01   1.500696e+01
  -2.762963e+01  -9.401972e+01
   1.108926e+02  -9.815858e+01
   1.899533e+02  -4.138668e+01
   1.571866e+02   8.927138e+01
   3.803079e+01   6.099716e+01
  -8.232741e+01   7.781742e+01
  -1.164193e+02   7.356049e+00
  -1.644371e+01  -5.285245e+01
   8.256364e+01  -6.990748e+01
   1.392406e+00   1.535065e+01
   4.352280e+00   1.113138e+01
  -3.906159e+01   2.114204e+00
   3.107037e+01  -2.453329e+01
   2.532848e+01   6.480272e+00
   7.745353e+01   4.586164e+01
  -2.417841e-01   1.252899e+02
  -1.080639e+02   1.086705e+02
  -1.766535e+02   5.516980e+01
  -1.591002e+02  -5.844137e+01
   3.809821e+01  -1.315555e+02
   1.807368e+01  -1.410676e+02
   8.785500e+01  -8.053081e+00
   1.488097e+01   6.873329e+01
   4.360113e+01   2.281489e+01
   5.781074e+01  -1.718862e+01
   3.568919e+01  -5.788054e+01
   5.162008e+01   4.290800e+01
  -1.120821e+01   8.393726e+01
  -8.448159e+01   2.904273e+01
  -4.453155e+01  -2.784691e+01
   2.113353e+01  -1.239541e+02
   6.604247e+01  -5.108457e+01
   1.490717e+02   1.980840e+01
   8.585076e+00   1.102772e+02
  -3.092769e+01   1.690937e+02
  -1.057066e+02   3.665842e+01
  -1.863262e+02  -2.615547e+01
   2.096898e+01  -8.175440e+01
   1.923180e+01  -4.983226e+01
   1.192460e+02  -5.160858e+01
   8.012485e+01  -6.685777e+01
   7.989361e+01  -1.639048e+01
   6.865806e+01  -8.933454e+01
   7.585950e+00   3.378240e+01
   1.018683e+02   1.065285e+02
   4.075889e+01   1.196077e+02
  -4.563709e+01   1.256759e+02
  -9.895140e+01   2.313206e+00
  -1.521688e+01  -6.222598e+01
  -1.170803e+01  -4.632031e+01
   6.241228e+01  -9.623378e+01
   7.979129e+00  -9.664126e+00
  -5.610118e+00   1.015855e+02
   1.183929e+00   3.364817e+01
   6.184795e+01   2.573579e+01
   6.528885e+01   2.116378e+01
   4.749562e+01   4.876318e+01
  -4.029252e+01   6.505743e+01
  -1.161660e+02   2.394778e+01
  -6.550591e+01  -2.492903e+01
  -5.322521e+01  -3.534402e+01
   5.513931e+01  -1.259847e+01
   9.202557e+01  -2.884753e+01
  -1.699625e+01   1.210267e+01
  -3.449866e+01   5.694071e+01
  -9.958870e+01   2.528261e+01
   2.529146e+00  -6.339685e+01
   2.078637e+01  -1.518569e+01
   3.225321e+01  -2.533489e+01
   2.891076e+01   5.145247e+01
   2.980495e+01   6.985813e+01
   4.702118e+01  -2.543466e+01
   3.376588e+01  -1.562074e+01
   1.215298e+01   8.673768e+01
   1.270488e+01   1.045237e+02
  -2.038113e+01   1.436817e+02
  -1.209985e+02   2.024311e+00
  -7.993243e+01  -3.148068e+00
  -3.519100e+01  -7.557265e+01
   6.825773e+01  -8.627149e+01
   8.923110e+01  -7.400281e+00
  -9.355427e+01   3.706306e+01
  -5.789501e+01  -4.919368e+01
  -2.553003e+01  -2.213741e+01
   4.153269e+01  -9.487879e+01
   1.060021e+02  -5.902295e+00
   7.747904e+01  -1.741581e+00
   4.271067e+00   3.034090e+01
  -2.989057e+01   2.625515e+01
  -2.842816e+01  -2.579146e+01
  -9.304035e+00  -3.011359e+01
   4.471761e+01   5.134363e+01
   2.820654e+01   7.962407e+01
  -1.020138e+02   1.078333e+02
  -1.104229e+02   2.351013e+01
  -5.719549e+01  -9.175232e+01
   5.494724e+01  -1.076709e+02
   6.362789e+01  -1.304967e+02
  -1.039852e+01  -2.057942e+01
  -3.486344e+01   5.272652e+01
   1.905638e+01   5.458468e+01
   2.940849e+00   1.054508e+01
  -7.108252e+01  -6.072180e+01
  -4.219591e+01  -2.331001e+01
  -1.418546e+01   4.108315e+01
  -8.819717e+01  -3.706476e+01
  -7.944947e+00  -8.823154e+01
  -3.658776e+01  -7.214074e+01
   2.346415e+01  -3.672975e+01
   4.765722e+01  -5.279422e+01
   1.239282e+02   1.845320e+01
   6.314531e+01   4.601257e+01
  -1.145345e+01  -1.302428e+01
  -1.724106e+01  -5.043830e+01
  -5.588270e+01  -8.359801e+00
  -9.196223e-01  -5.793172e+01
   7.471876e+01   5.253012e+01
  -1.372885e+01   1.679917e+01
   3.830265e+00   3.362117e+01
   3.650778e+01  -7.420855e+00
   9.854965e+01   4.916373e+01
   2.236673e+01   4.522393e-01
  -5.963269e+01   7.567914e+01
  -1.119194e+02   5.449432e+01
  -1.324582e+02   3.590168e+00
   3.013996e+01  -1.622800e+02
   1.349632e+02  -6.479364e+01
   3.964479e+01  -5.368041e+01
   6.230941e-01   4.337326e+00
  -3.218347e+01   1.108474e+02
  -6.088429e+01   2.387997e+01
  -2.126173e+01   1.521141e+01
  -2.254370e+01   6.601483e+01
   1.922742e+01   4.540759e+01
  -3.570167e+01   6.724279e+01
  -1.198743e+02  -4.007448e+01
  -1.821268e+01  -1.999466e+01
  -2.418860e+01  -6.190880e+01
   5.325007e+01  -4.608819e+01
   7.986561e+01   3.691802e+01
   5.194506e+01   8.211517e+01
  -5.983270e+01   1.991094e+01
  -1.275615e+01   2.172184e+01
  -7.989654e+01  -7.092202e+01
   2.310946e+01  -5.812222e+01
  -8.704433e+00  -9.138361e+01
   2.683691e+00   5.879891e+01
  -7.192240e+01   1.489231e+01
  -9.076544e-01  -1.609402e+01
   4.954726e+01   1.728137e+00
   1.173712e+02  -8.653186e+01
   3.089778e+01  -1.760689e+01
   4.928069e+01   7.473803e+01
   9.266231e+00   8.337798e+01
   1.670892e+01  -1.782366e+00
   6.871376e+01  -2.457175e+01
  -1.946453e+01  -3.842302e+00
   1.384143e+01  -2.308333e+01
   4.356698e+01   3.120953e+01
  -2.642876e+01   2.593216e+00
   2.358598e+01  -4.836713e+00
  -8.244382e+01  -9.207856e+00
   2.954307e+01  -2.812607e+01
   6.151554e+01  -2.285759e+01
  -1.741439e+01  -4.241682e+01
  -3.141343e+01   2.031490e+01
   1.538670e+01  -2.082442e+01
  -2.158647e+01   2.364860e+00
   8.392525e+01   6.515027e+00
  -4.394502e+01   3.869695e+01
  -3.261290e+01   3.529487e+01
  -3.361889e+01  -5.916803e+00
  -4.465401e+01  -2.285093e+01
   5.771714e+01  -5.011942e+01
   8.554151e+01   2.627164e+01
   2.402869e+01  -7.916503e+00
   2.810428e+01   7.416014e+01
  -8.065373e+01   4.580451e+01
  -3.276743e+01   3.588561e+01
   2.443226e+00  -1.179168e+01
  -1.898615e+01  -2.515449e+01
   1.467944e+01   1.231703e+00
  -6.617410e+01   1.691182e+01
