
 $NMID
 id='ANONYMOUS ', fmtdat='(2E16.6)'
 volume=1.0
 tramp=1.0
 $END
  -3.586528e+03   1.473870e+02
  -2.306757e+03  -1.821229e+03
   1.460549e+02  -2.260226e+03
   1.371702e+03  -1.158764e+03
   9.527554e+02   9.808176e+01
  -2.070425e+02   3.295664e+02
  -5.778116e+02  -1.727445e+02
  -8.942041e+01  -7.065584e+02
   5.513290e+02  -6.449749e+02
   6.594258e+02  -1.022958e+02
   4.391789e+02   5.303302e+02
  -3.695864e+01   6.572041e+02
  -4.135131e+02   2.075704e+02
  -2.911283e+02  -4.813624e+02
   1.737806e+02  -6.152131e+02
   4.708034e+02  -1.068398e+02
   2.488486e+02   5.575020e+02
  -2.042320e+02   6.137575e+02
  -4.796735e+02   2.629821e+02
  -4.474483e+02  -1.351035e+02
  -7.709133e+01  -3.817464e+02
   8.872817e+01  -2.681094e+02
   8.360667e+01  -4.677660e+01
  -2.071171e+02  -1.691605e+01
  -3.202403e+02  -1.761459e+02
  -9.755615e+01  -4.344420e+02
   4.301580e+02  -2.667775e+02
   6.829786e+02   9.758375e+01
   3.223199e+02   4.266970e+02
  -3.099038e+02   3.033681e+02
  -6.034387e+02  -7.984037e+01
  -2.557292e+02  -4.037125e+02
   2.903498e+02  -4.151160e+02
   4.412007e+02  -2.036708e+02
   3.755754e+02   1.581782e+02
   1.257152e+02   3.548407e+02
  -7.666636e+01   2.540636e+02
   2.909157e+01  -1.355569e+02
   1.900077e+02  -2.723301e+02
   2.067932e+02   8.814588e+01
   9.861509e+01   5.239609e+02
  -3.086686e+02   5.223392e+02
  -3.950007e+02   7.356713e+00
  -1.270791e+02  -3.688861e+02
   2.497356e+02  -1.917739e+02
   2.397206e+02   3.243758e+02
  -5.951077e+01   4.698986e+02
  -4.769068e+02   8.595260e+01
  -5.500186e+02  -3.650216e+02
  -1.870188e+02  -5.548684e+02
   2.935531e+02  -2.601270e+02
   5.175595e+02   8.182255e+01
   3.630805e+02   3.433883e+02
  -8.604097e+01   2.947944e+02
  -3.445291e+02   5.258593e+01
  -2.190985e+02  -1.123102e+02
  -4.845025e+00  -4.897515e+01
   8.170009e+01   1.410320e+02
  -9.585668e+01   8.501184e+01
  -2.852350e+02  -3.990637e+01
  -1.574421e+02  -2.054774e+02
   1.960317e+02  -2.325748e+02
   3.002839e+02  -1.728377e+02
   2.371757e+02   7.321898e+01
  -1.510948e+01   2.726069e+02
  -2.708288e+02   3.369830e+02
  -3.395489e+02   2.021840e+02
  -2.115772e+02  -1.861476e+02
  -9.237075e+01  -3.516529e+02
   7.507348e+01  -2.656398e+02
   8.226655e+01  -9.621901e+01
   1.203684e+02  -6.287619e+01
   1.038931e+02  -1.168798e+02
   1.741760e+02  -6.879834e+01
   2.608627e+02   4.989260e+01
   1.374494e+02   2.485437e+02
  -8.904736e+01   1.768471e+02
  -1.325413e+02  -4.972784e+00
  -1.912314e+02  -2.638121e+02
  -8.856384e+00  -2.499136e+02
   2.626468e+02  -8.592374e+01
   3.546712e+02   1.685537e+02
   1.591763e+02   3.401139e+02
  -1.103173e+02   2.408142e+02
  -1.828657e+02   1.467235e+02
  -1.636664e+02   9.906172e+01
  -1.712229e+02   2.699817e+01
  -2.515191e+02   7.703976e+01
  -4.195271e+02  -4.431448e+01
  -3.389599e+02  -2.316885e+02
  -2.902596e+00  -4.592040e+02
   3.850726e+02  -3.915975e+02
   4.064634e+02  -1.980721e+02
   3.042145e+02   3.373835e+01
   3.715959e+01   1.719630e+02
  -9.134921e+01   2.411831e+02
   4.167758e+01  -1.418829e+01
   1.182631e+02  -2.940809e+01
   1.271881e+02   1.056628e+01
   1.731769e+01   1.638210e+02
  -1.232094e+02   6.954908e+01
  -9.489717e+01  -6.861699e+01
   2.387362e+01  -1.814815e+02
   2.264450e+02  -1.147549e+01
   1.817108e+02   1.945880e+02
  -9.303094e+00   4.081762e+02
  -2.170042e+02   1.510312e+02
  -3.291660e+02  -1.198205e+01
  -3.119382e+02  -2.332822e+02
  -9.163106e+01  -2.556177e+02
   1.276360e+02  -1.727120e+02
   1.073039e+02   3.625099e+01
   2.654172e+01   7.104286e+01
  -8.881690e+01  -5.326974e+01
  -2.592440e+01  -1.229054e+02
   1.319961e+02  -5.705598e+01
   1.847203e+02  -2.067416e+01
   2.931829e+01   4.140473e+01
  -9.945621e+01   8.425235e+00
  -5.172802e+01  -8.835599e+01
   1.195486e+02  -1.054726e+02
   3.122371e+02   4.865483e+01
   2.722270e+02   1.961076e+02
   3.101600e+01   2.019531e+02
  -1.785822e+02   2.242660e+02
  -2.700885e+02   1.246220e+02
  -1.415191e+02  -2.606221e+01
   8.018169e+00  -5.908744e+01
   1.119631e+02   2.860690e+01
  -1.097203e+02   8.938135e+01
  -1.697245e+02   1.641289e+01
  -2.218919e+02  -1.044150e+02
  -6.816426e+01  -2.122670e+02
   6.864444e+01  -1.099104e+02
   1.124129e+02  -5.120442e+01
   6.150109e+01  -8.316939e-01
  -5.349443e+01  -1.065616e+01
   7.554031e+00  -7.453856e+01
   1.743403e+02  -1.437272e+02
   2.510531e+02  -3.137102e+01
   2.008199e+02   1.250205e+02
   6.574104e+01   1.571277e+02
  -1.985715e+02   1.428275e+02
  -1.990886e+02   3.002314e+01
  -5.378464e+01  -8.553765e+01
   6.526846e+01  -7.567639e+01
   5.307778e+01  -6.296809e+01
  -3.857636e+00   2.727995e+01
  -6.751067e+01  -5.656573e+00
   1.986636e+01  -4.755852e+01
   6.945489e+01  -8.385652e+01
   1.110001e+02   9.091285e+01
   4.103352e+01   1.296247e+02
  -1.266076e+02   1.726553e+02
  -2.401479e+02   2.087272e+01
  -1.966173e+02  -2.049170e+02
   1.067619e+00  -2.312180e+02
   1.123844e+02  -1.437167e+02
   1.302857e+02  -3.710626e+01
   6.495452e+01   4.603725e+01
   2.192202e+01   4.163705e+01
   9.351404e+01   5.421653e-01
   1.159127e+02   2.150162e+01
   7.251105e+01   6.675630e+01
  -3.712935e+01   1.299198e+02
  -8.968038e+01   3.099265e+01
  -5.088889e+01  -2.245145e+01
   5.466793e+00  -8.418487e+01
   9.335369e+01  -9.145964e+01
   2.353689e+02   7.663597e+01
   1.367658e+02   2.015447e+02
  -9.189020e+01   2.648360e+02
  -2.001574e+02   4.357758e+01
  -2.202947e+02  -6.150848e+01
  -1.649656e+02  -2.406607e+02
   2.842763e+01  -1.283759e+02
   1.145489e+02  -7.710074e+01
   5.117537e+01  -6.171232e+01
   3.297968e+01  -1.037960e+02
   4.874491e+01  -7.882313e+01
   1.348667e+02   1.053069e+01
   1.378528e+02   1.287740e+02
   5.082424e+01   2.224266e+02
  -1.479450e+02   1.860501e+02
  -1.592356e+02  -1.585136e+01
  -1.435660e+02  -8.130059e+01
  -1.200093e+02  -1.057541e+02
   1.171340e+02  -9.153539e+01
   5.747820e+01   2.137689e+01
   8.622647e-01  -3.411467e+01
   1.069739e+00   9.426999e+01
   4.323012e+01   5.502260e+00
   8.765679e+01  -1.681344e+01
   5.683720e+01   4.310915e+01
  -9.770783e+01   4.350088e+01
  -1.321451e+02  -4.745667e+01
  -1.613962e+02  -7.676608e+01
   1.602657e+01  -6.891396e+01
   1.262501e+02  -1.494571e+02
   1.314757e+02  -1.220775e+00
   4.925831e+01   4.987958e+01
  -6.331841e+01   7.746009e+01
  -5.360119e+01  -3.447921e+01
  -2.781970e+01  -6.449382e+01
   6.194603e+01  -8.655334e+01
   7.710456e+01   9.107637e+00
   1.617469e+01   5.660601e+01
   6.591485e+01   3.124087e+01
   4.225512e+01   1.105160e+01
   5.220395e+01  -1.066660e+01
   9.248959e+01   6.807293e+00
  -3.058393e+00   8.558249e+01
  -1.509657e+02   1.765735e+02
  -1.625822e+02   2.933906e+01
  -1.099396e+02  -5.004956e+01
  -5.839506e+01  -1.430715e+02
   5.526346e+01  -8.420338e+01
   5.111370e+01   1.370218e+01
  -9.553386e+01   2.887404e+00
  -1.296319e+02  -2.623025e+01
  -1.316173e+02  -9.949775e+01
   8.860700e+01  -9.139803e+01
   2.368194e+02  -3.948380e+01
   1.728994e+02   6.794720e+00
   5.969547e+01   1.145225e+02
  -8.343836e+01   5.560626e+01
  -4.153899e+01  -2.148578e+01
   1.475085e+01  -4.251537e+01
   1.430422e+02  -6.646540e+01
   3.611429e+01   1.066782e+02
  -7.009656e+01   1.249322e+02
  -1.626584e+02   5.871871e+01
  -8.966717e+01  -1.156593e+02
  -1.467960e+00  -1.344173e+02
   1.230404e+02  -1.115012e+02
   1.481850e+02   2.035480e+01
   7.662108e+01   1.091383e+02
   1.515104e+01   1.093402e+02
  -7.321908e+01   3.556136e+01
  -4.534974e+01  -1.763943e+01
  -2.486430e+01  -1.637819e+01
  -1.255682e+01   6.739752e+00
  -4.134449e+01  -2.791170e+01
  -7.116601e+01  -6.425390e+01
  -5.310939e+01  -1.024037e+02
   7.811353e+01  -1.030930e+02
   1.256065e+02   4.342783e+01
   1.423584e+02   2.239577e+01
  -1.789887e+01   3.108594e+01
  -6.623306e+01   7.754702e+01
  -1.235651e+02  -3.946835e+00
  -5.116193e+01   3.594636e+01
   3.513633e+01  -8.920790e+01
   6.465882e+01  -4.569286e+01
  -4.460515e+01   3.022591e+01
   4.339891e+01  -1.058487e+01
   1.004208e+02  -4.974144e+01
   7.860177e+01   7.686423e+01
   3.286065e-02   9.226733e+01
  -7.924784e+01   1.171279e+02
  -2.078629e+02   1.004772e+02
  -1.722051e+02   2.377814e+00
  -4.468413e+01  -1.224122e+02
   5.374594e+01  -1.859652e+02
   1.313008e+02  -1.271874e+02
   7.679397e+01   3.616971e+01
   5.207826e+01   3.493259e+00
  -3.507198e+01   1.333807e+01
   2.579193e+01   4.723700e+01
   2.367842e+01   8.502071e+01
   1.191774e+01   8.735267e+01
   1.294155e+01  -1.086975e+01
  -5.417039e+01  -4.147627e+01
  -7.683453e+01  -5.127897e+01
  -3.915814e+01  -8.178681e+01
   8.541543e+01   1.796341e+01
   6.053352e+01   6.232629e+01
   3.191509e+01   9.988062e+01
  -9.881984e+01  -1.610297e+01
  -8.089033e+01  -3.554635e+00
  -5.462854e+01  -7.544708e+01
   2.440313e+01  -2.533796e+01
   5.037123e+01  -3.683895e+01
  -3.360214e+01   2.072881e+01
  -5.880618e+01   1.038496e+01
  -4.713564e+01  -2.067317e+01
   7.449631e+01  -1.229203e+02
   1.281708e+02  -1.631952e+01
   4.075799e+01  -3.311368e+01
   1.177905e+01   1.218335e+02
  -4.468281e+01   7.770794e+01
  -1.767633e+01   1.613459e+01
  -3.855887e+01  -2.276910e+01
   3.766304e+01  -5.606158e+01
   2.314734e+01   2.803916e+01
   3.501439e+01   1.941243e+01
  -1.046633e+00   1.947132e+01
  -6.014223e+01  -1.206846e+01
  -5.816153e+01   3.071552e+01
  -5.788186e+01  -2.759657e+01
   3.992445e+01   4.389372e+01
  -2.816279e+01   5.020553e+01
   1.795339e+01  -4.942823e+01
   4.642537e+01  -6.119778e+01
   2.455367e+01  -8.027057e+01
   7.535708e+01   3.334394e+01
   5.357083e+00   3.700831e+01
  -9.602063e+01   6.140187e+01
  -8.751217e+01  -4.756443e+01
  -5.251615e+01  -2.458963e+01
   4.544795e+01  -2.995234e+01
   1.263318e+02   3.603755e+01
  -5.337872e+00   7.995316e+01
  -2.193987e+01   3.582173e+01
  -8.308009e+01  -2.598033e+01
  -4.304775e+01   2.426052e+01
   3.847652e+01   4.850268e+00
   3.526696e+01   1.414702e+01
  -1.078730e+01   2.119669e+01
  -5.963592e+01   4.238113e+01
