
 $NMID
 id='ANONYMOUS ', fmtdat='(2E16.6)'
 volume=1.0
 tramp=1.0
 $END
   3.667133e+03   5.061063e+01
   2.119020e+03   2.255286e+03
  -6.201114e+02   2.292737e+03
  -1.802864e+03   6.769576e+02
  -8.162410e+02  -6.379279e+02
   6.043311e+02  -5.419764e+02
   8.162535e+02   4.097277e+02
  -7.834790e+00   9.573763e+02
  -7.419581e+02   6.665694e+02
  -7.984674e+02  -7.637032e+01
  -3.634231e+02  -7.735021e+02
   1.957630e+02  -7.849258e+02
   5.640777e+02  -1.011221e+02
   3.259990e+02   5.803458e+02
  -2.643850e+02   6.125068e+02
  -5.378734e+02  -7.285440e+01
  -1.995840e+02  -6.432598e+02
   3.013488e+02  -5.528283e+02
   5.223948e+02  -7.114993e+01
   3.232926e+02   2.691622e+02
  -2.864368e+01   3.652982e+02
  -1.853670e+02   2.391884e+02
  -1.428933e+02  -1.623680e+00
   1.227577e+02  -8.715809e+01
   3.385417e+02   1.296886e+02
   1.852055e+02   3.814777e+02
  -3.769548e+02   3.767950e+02
  -6.812691e+02  -6.608873e+01
  -3.485421e+02  -4.307795e+02
   3.452505e+02  -4.595990e+02
   5.912585e+02   1.200518e+01
   2.739188e+02   4.406086e+02
  -2.886906e+02   4.057899e+02
  -4.269625e+02   1.512808e+02
  -3.727772e+02  -2.184361e+02
  -4.302349e+01  -3.878310e+02
   1.936459e+02  -2.433808e+02
   1.434034e+02   2.153941e+02
  -1.128627e+02   3.459284e+02
  -4.031394e+02  -3.297155e+01
  -1.550647e+02  -5.806761e+02
   2.258235e+02  -5.467577e+02
   5.189930e+02  -1.480748e+00
   1.681065e+02   4.523826e+02
  -2.072911e+02   2.877053e+02
  -3.387878e+02  -2.756302e+02
   3.022810e-01  -4.815565e+02
   4.571846e+02  -1.140179e+02
   5.153041e+02   3.800294e+02
   9.173459e+01   4.965083e+02
  -3.330928e+02   3.441087e+02
  -5.003615e+02  -2.057347e+01
  -2.842812e+02  -3.048394e+02
   1.303072e+02  -2.761378e+02
   4.241653e+02   1.775590e+01
   2.219212e+02   1.583385e+02
  -1.322640e+02   1.335748e+02
  -9.158746e+01  -1.376670e+02
   1.643758e+02  -1.309453e+02
   2.730100e+02   9.071451e+01
   1.326475e+02   2.200121e+02
  -1.984383e+02   2.533520e+02
  -2.886433e+02   4.544766e+01
  -1.316280e+02  -4.459406e+01
   9.132646e+01  -1.738271e+02
   1.586487e+02  -2.771056e+02
   3.321771e+02  -2.005148e+02
   2.123366e+02   1.553789e+02
   1.143405e+02   3.777070e+02
  -1.547424e+02   3.195435e+02
  -1.184153e+02   6.177400e+01
  -2.722518e+01  -2.910227e+01
  -6.467751e+01   8.680677e+01
  -1.920200e+02   1.208934e+02
  -2.017446e+02  -3.507621e+01
  -1.346118e+02  -2.328739e+02
   4.950509e+01  -1.976102e+02
   1.961693e+02   2.519295e+01
   1.979758e+02   2.054150e+02
   3.784712e+01   2.086460e+02
  -2.577617e+02   1.238349e+02
  -2.999896e+02  -9.370931e+01
  -2.198095e+02  -3.203075e+02
   8.157032e+01  -2.923479e+02
   1.664247e+02  -1.123260e+02
   7.210125e+01  -5.351169e+00
   5.060151e+01  -5.069157e+01
   1.459006e+02  -1.029499e+02
   3.236583e+02   7.770394e+01
   2.741202e+02   2.674282e+02
   2.842321e+00   3.460549e+02
  -2.852711e+02   3.485263e+02
  -3.797119e+02   2.055831e+02
  -2.904985e+02  -1.401207e+02
  -2.342944e+01  -2.258152e+02
   1.046534e+02  -2.198774e+02
   9.499187e+01  -4.881154e+01
  -1.055150e+02   1.051397e+02
  -1.149952e+02   1.267254e+01
  -4.953956e+01  -1.804286e+02
   1.491039e+02  -1.603614e+02
   1.505364e+02   5.153692e+01
   1.463688e+00   1.512012e+02
  -1.368837e+02   4.335521e+01
  -7.173500e+01  -2.186489e+02
   4.041674e+01  -2.585415e+02
   1.967615e+02  -1.916386e+02
   2.894704e+02   6.005496e+01
   2.418800e+02   2.101755e+02
   5.476631e+01   2.001102e+02
  -3.533430e+01   1.286404e+02
  -1.483584e+02  -5.058162e+00
  -7.390712e+01  -1.468579e+01
   7.719612e+01   6.017186e+01
   3.887529e+01   6.049347e+01
  -1.193523e+02   1.034581e+02
  -1.239255e+02  -2.567488e+01
  -4.520910e+01  -5.734298e+01
   7.374476e+01  -6.660976e+01
   5.228351e+01  -7.167440e+00
  -1.019960e+02   3.305621e+01
  -2.052083e+02   6.393429e+01
  -2.348603e+02  -1.151555e+02
  -4.344560e+01  -1.923688e+02
   1.455454e+02  -1.699973e+02
   2.848958e+02  -1.105047e+02
   6.669413e+01   7.099744e+01
  -3.105117e+01   4.857110e+01
  -1.255384e+02  -1.599501e+00
   1.006814e+01  -5.653006e+01
   1.092155e+02   1.177989e+01
   1.320881e+02   6.759910e+01
   5.264132e+01   1.534595e+02
  -8.454809e+01   1.180035e+02
  -9.968432e+01   1.219401e-01
  -5.847571e+01  -7.775519e+01
  -1.279033e+01  -7.473734e+00
   2.757096e+01   7.638327e+01
  -3.220786e+01   9.145838e+01
  -2.140976e+02   2.416738e+01
  -1.754990e+02  -1.335985e+02
  -1.861162e+01  -1.660871e+02
   8.798642e+01  -1.138894e+02
   1.721680e+02   3.885753e+00
   4.753742e+01   9.300853e+01
  -7.924153e+01   1.283056e+02
  -5.056611e+01  -7.228780e+01
  -2.948628e+01  -7.257622e+00
   2.295128e+01  -2.202869e+01
  -7.173769e+00  -3.111182e+00
  -3.484951e+01  -1.781255e+01
  -8.509779e+01  -7.033037e+01
   4.319197e+00  -1.558690e+02
   1.090572e+02  -7.825523e+01
   1.427307e+02  -3.317774e+01
   1.957303e+02   1.008612e+02
   3.482925e+01   2.501029e+02
  -8.977078e+01   1.805646e+02
  -8.832652e+01   2.452405e+01
  -7.225059e+01   5.165602e+01
  -1.299184e+00  -4.715054e+01
  -7.505254e+01   8.707607e+00
   7.957244e-01   6.547753e+00
   2.973577e+00  -2.509319e+01
   6.976358e+01  -9.986902e+01
   1.565741e+02  -9.133581e+01
   7.594275e+01   6.321294e+01
  -2.507681e+01   6.572468e+01
  -1.082236e+02   9.450870e+01
  -1.735607e+02  -6.470532e+01
  -6.089449e+01  -1.544681e+02
   7.050200e+01  -2.119072e+02
   2.121907e+02  -4.888097e+01
   1.802710e+02   9.788165e+01
   5.258065e+01   1.564942e+02
  -6.634186e+00   1.870224e+02
  -1.453347e+02   1.072261e+02
  -9.982705e+01   1.922019e+01
  -3.023208e+01   1.122621e+02
  -9.036740e+01   3.492429e+01
  -6.300717e+01  -9.971410e+00
  -6.621932e+01  -1.405657e+02
  -6.457089e+00  -2.486701e+02
   5.889599e+01  -1.268142e+02
   1.595823e+02   2.746279e+01
   1.265371e+02   1.411072e+02
   2.336771e+01   1.673098e+02
  -6.598753e+01   5.792800e+00
  -7.555935e+01  -3.900311e+01
  -3.687922e+00   2.121695e+01
  -1.447459e+01  -5.442663e+00
  -2.095976e+01  -3.358225e+01
  -6.724621e+01  -3.137721e+01
  -3.595338e+01  -4.672684e+00
   4.134839e+01  -2.061024e+01
   1.125082e+02  -4.382762e+01
   1.147805e+02   7.524835e+01
   4.829027e+01   7.390437e+01
  -8.462731e+01   8.024087e+01
  -1.195055e+02   4.825960e+01
  -1.713604e+01  -5.335824e+01
   1.419589e+00   3.609326e+00
   2.756654e+01  -9.264045e-01
   3.539612e+00   4.214048e+01
  -2.040870e+01   2.265890e+01
  -5.654801e+01  -4.976331e+01
  -1.657964e+01  -6.950191e+01
  -1.529074e+01  -5.348173e+00
  -8.043457e+01  -3.994718e+01
  -6.261313e+01  -1.476763e+01
  -4.606436e+01  -6.722040e+01
   2.658097e+01  -1.315503e+02
   1.035259e+02  -1.576522e+02
   1.290269e+02  -4.271757e+01
   1.140680e+02   6.379472e+01
   7.455956e+00   1.206759e+02
  -4.944865e+01   2.241892e+01
  -9.228581e+01  -3.258558e+01
   6.979760e+01  -9.420794e+01
   1.017136e+02   3.377191e+01
   6.722844e+01   7.927412e+01
  -6.621560e+01   1.110762e+02
  -1.779096e+02   1.906428e+01
  -1.210862e+02  -8.611924e+01
   1.248155e+00  -1.103979e+02
   1.138859e+02  -6.591529e+01
   3.772066e+01   2.105995e+00
  -9.147505e+00   3.187568e+01
  -3.822240e+00   2.928468e+00
   6.862685e+00  -1.386316e+02
   3.512650e+01  -1.256087e+02
   1.764332e+02  -5.616508e+00
   1.170549e+02   6.762924e+01
   1.012131e+01   1.787161e+02
  -5.151754e+01   2.033947e+02
  -7.937425e+01  -4.931951e+01
  -3.260046e+01  -5.487630e+01
   1.562931e+01  -6.388738e+01
   3.007188e+01  -1.489281e+01
   1.104951e+01   1.713341e+01
   3.648936e+01  -4.960087e+01
  -6.225770e+00  -1.220815e+01
   5.975313e+01   1.313020e+01
   4.612780e+01   6.356763e+01
   7.351248e+01   1.249565e+02
  -9.818710e+01   3.763064e+01
  -1.504873e+02  -2.184568e+01
  -8.790027e+01  -6.525819e+01
  -6.215157e+01  -1.434100e+01
   6.618923e+01  -1.085264e+01
   7.415500e+01  -4.865906e+01
  -3.322641e+01   2.129258e+01
   9.371352e+00   4.249195e+01
  -6.065723e-01  -6.769250e+00
   2.452996e+01   5.495034e+01
   5.698260e+00  -5.843549e+01
  -3.641062e+01  -6.316305e+01
  -4.291736e+01  -4.608912e+01
  -1.114775e+00  -6.952194e+01
   1.334468e+02  -8.008902e+01
   1.367721e+02   3.459376e+01
   1.665139e+02   8.556589e+01
   4.895458e+00   1.236355e+02
  -7.207996e+01   9.685791e+01
  -9.452814e+01   2.009207e+01
  -7.365902e+01  -3.736872e+01
   1.781109e+00  -1.497849e+01
   1.783946e+01  -2.899169e+01
  -1.491621e+01  -2.578537e+01
  -3.902776e+01  -2.831995e+01
  -3.379523e+01  -4.364138e+01
   1.142518e+01  -4.968643e+01
   7.170492e+01   1.526815e+01
   6.027008e+01   1.271562e+02
   4.523888e+00   1.069529e+02
  -8.637120e+01   1.367202e+01
  -8.804874e+01  -3.409653e+01
  -3.242906e+01  -1.112010e+02
   4.460776e+01  -5.075330e+01
   8.093562e+01  -2.831508e+01
  -3.178061e+01   6.237225e+01
  -6.699898e+01   1.747588e+01
  -3.317010e+01  -8.003718e-02
   1.299791e+01   1.874554e+01
   7.630942e+01  -1.860415e+01
   1.600907e+01   7.488660e+00
  -3.301509e+01   5.259443e+01
  -1.227621e+02   6.117639e+01
  -3.080600e+01   2.009355e+00
   2.098321e+01  -1.169220e+02
  -1.493680e+01  -8.427118e+01
   2.028001e+01  -3.878770e+01
   1.244975e+01   2.907057e+01
   9.570517e+00   2.288105e+01
  -5.065010e+01  -4.980078e+01
   3.571280e+01  -1.778546e+01
  -7.700845e+00  -6.289929e+01
   4.060821e+01   6.894428e+01
  -4.137929e+01   1.294631e+01
   6.291457e+01  -2.336448e+00
   3.842856e+01  -1.801259e+01
   1.689523e+01  -1.855481e+01
  -3.660653e+00   2.045603e+01
  -5.317328e+01   3.724922e+01
  -2.926501e+01  -5.067953e+01
  -1.298400e+02  -6.243842e+01
   3.137286e+01  -5.509618e+01
   6.607064e+01   4.271291e+01
   4.229029e+01   6.398894e+00
  -3.547113e+00   2.961272e+01
  -2.075707e+01   3.328915e+01
  -5.523616e+01   1.928026e+01
  -1.435449e+01   1.385043e+00
   5.131879e+01  -2.414068e+01
   1.084116e+02   1.809563e+01
   3.553204e-01  -7.591413e+00
  -4.146330e+01   9.280544e-01
  -5.999697e+01  -1.538066e+01
   2.500932e+01  -4.067466e+01
   6.758042e+01  -9.045961e+01
