
 $NMID
 id='ANONYMOUS ', fmtdat='(2E16.6)'
 volume=1.0
 tramp=1.0
 $END
  -4.418013e+03  -2.240976e+01
  -2.688609e+03  -2.538443e+03
   4.952036e+02  -2.847668e+03
   2.063027e+03  -1.126808e+03
   1.127552e+03   4.679168e+02
  -5.073202e+02   5.745854e+02
  -8.392942e+02  -3.959573e+02
   9.441551e+00  -1.048096e+03
   8.043650e+02  -7.709148e+02
   9.278612e+02   6.294362e+01
   4.839381e+02   8.418808e+02
  -1.572634e+02   8.326441e+02
  -6.406593e+02   1.714720e+02
  -4.106776e+02  -6.993959e+02
   2.399082e+02  -7.369663e+02
   6.121753e+02   1.551493e+01
   3.040511e+02   7.414984e+02
  -3.215672e+02   7.058574e+02
  -6.155403e+02   1.225807e+02
  -4.888561e+02  -3.869655e+02
  -1.030112e+02  -4.621678e+02
   2.609639e+02  -2.433545e+02
   2.112391e+02  -1.091340e+02
  -1.585826e+02   6.714915e+01
  -4.363968e+02  -1.923251e+02
  -1.403417e+02  -4.539679e+02
   5.083334e+02  -3.788605e+02
   8.781198e+02   5.895750e+01
   4.195378e+02   5.421262e+02
  -4.215546e+02   4.482432e+02
  -7.135655e+02  -8.501223e+01
  -3.972136e+02  -5.061164e+02
   3.384911e+02  -4.837830e+02
   5.962897e+02  -1.943687e+02
   4.359178e+02   2.015767e+02
   8.834471e+01   4.622803e+02
  -1.389939e+02   3.185446e+02
  -1.160663e+02  -1.903554e+02
   1.891687e+02  -3.524572e+02
   4.499950e+02   5.963515e+01
   2.369859e+02   6.752365e+02
  -3.401962e+02   7.274272e+02
  -5.381028e+02  -1.881607e+01
  -2.722340e+02  -5.128044e+02
   2.629257e+02  -2.561060e+02
   3.519888e+02   3.409296e+02
  -1.019169e+02   5.386428e+02
  -4.933667e+02   6.086310e+01
  -6.549192e+02  -4.555589e+02
  -2.129335e+02  -6.439113e+02
   4.144589e+02  -3.243978e+02
   6.567005e+02   7.176394e+01
   3.746923e+02   3.218559e+02
  -1.222975e+02   3.040907e+02
  -4.051394e+02   7.453297e+01
  -2.534984e+02  -1.988277e+02
   8.147226e+01  -1.086156e+02
   1.488706e+02   1.244181e+02
  -1.694483e+02   1.547462e+02
  -3.911965e+02  -6.619637e+01
  -2.031500e+02  -3.189728e+02
   2.147257e+02  -3.060633e+02
   3.358386e+02  -4.185722e+01
   2.496119e+02   1.107604e+02
  -6.132505e+01   2.622169e+02
  -2.967767e+02   3.784291e+02
  -3.129919e+02   2.544751e+02
  -2.675178e+02  -1.705087e+02
  -1.124465e+02  -4.478078e+02
   8.906578e+01  -3.591026e+02
   1.055677e+02  -1.390544e+02
   8.775908e+01  -6.830449e+01
   8.784443e+01  -1.183767e+02
   2.745229e+02  -1.565555e+02
   3.161985e+02   8.823190e+01
   1.809958e+02   3.024871e+02
  -1.276019e+02   2.386525e+02
  -2.270375e+02   4.874886e+01
  -1.847068e+02  -2.756835e+02
  -1.682671e+01  -2.994961e+02
   3.272834e+02  -1.337041e+02
   3.476508e+02   2.273948e+02
   1.924200e+02   3.715594e+02
  -9.742358e+01   2.992269e+02
  -2.222618e+02   8.467898e+01
  -1.383557e+02   2.763938e+01
  -1.724650e+02   5.015173e+01
  -2.341883e+02   6.066997e+01
  -4.557840e+02  -4.640744e+01
  -3.844069e+02  -3.291899e+02
   1.697540e+01  -4.822759e+02
   4.268044e+02  -4.558190e+02
   5.377289e+02  -2.349287e+02
   3.433293e+02   1.279301e+02
   5.792704e+01   3.245741e+02
  -1.416050e+02   2.770925e+02
  -8.030703e+01   2.900024e+01
   8.157633e+01  -9.020957e+01
   1.968988e+02   6.685188e+01
   4.441935e+01   1.649805e+02
  -1.562924e+02   1.696629e+02
  -2.010592e+02  -2.119543e+01
   1.888063e+01  -1.602426e+02
   1.680760e+02  -1.334282e+01
   1.619181e+02   1.982817e+02
  -6.105401e+01   3.449765e+02
  -2.814931e+02   1.979055e+02
  -3.615251e+02  -3.060458e+01
  -3.027393e+02  -2.460639e+02
  -8.834705e+01  -2.628054e+02
   1.107815e+02  -1.398381e+02
   2.071038e+02  -1.317179e+01
   6.906625e+01   2.597599e+01
  -5.284015e+01  -1.195914e+02
  -3.341407e+00  -1.178432e+02
   1.510594e+02  -1.390451e+02
   2.032693e+02  -1.975575e+01
   2.383357e+01   1.025764e+02
  -1.158508e+02   2.016571e+01
  -1.146913e+02  -6.318392e+01
   1.898027e+02  -1.151345e+02
   2.856510e+02  -1.289630e+01
   2.547214e+02   1.503310e+02
   9.252919e+01   3.001999e+02
  -1.965172e+02   2.384885e+02
  -2.971402e+02   1.553132e+02
  -2.161855e+02  -7.498077e+01
   4.986043e+00  -1.555194e+02
   1.110120e+02  -4.960226e+00
  -3.174182e+01   1.493354e+02
  -1.722871e+02   8.896686e+01
  -2.263199e+02  -1.166350e+02
  -9.174244e+01  -2.215735e+02
   1.122012e+02  -1.262511e+02
   1.563790e+02  -1.344996e+01
   6.264595e+01   1.717516e+01
  -4.511422e+01  -1.889467e+01
  -3.995415e+01  -1.218814e+02
   1.348644e+02  -1.193669e+02
   2.222976e+02  -2.015419e+01
   1.802916e+02   1.526028e+02
  -2.119372e+01   2.318065e+02
  -1.667387e+02   1.630380e+02
  -1.918563e+02   3.773921e+01
  -4.463722e+01  -1.565850e+02
   8.439958e+01  -1.112877e+02
   9.818677e+01  -5.523229e+01
   4.521626e+01  -4.996535e+00
  -3.396627e+01   5.356493e+01
  -6.698963e+01  -2.371046e+01
   1.014651e+02  -6.788414e+00
   1.069443e+02   1.178171e+02
   1.779846e+01   1.695835e+02
  -1.264951e+02   1.806813e+02
  -2.943964e+02   5.056402e+00
  -2.295741e+02  -1.869521e+02
  -7.399545e+01  -2.631397e+02
   1.291297e+02  -1.839948e+02
   1.666456e+02  -2.389305e+01
   1.095831e+02   3.304512e+01
   5.616425e+01   5.051674e+01
   7.335278e+01  -1.230151e+01
   1.051671e+02  -4.826508e+01
   5.613371e+01   5.660279e+01
  -9.884949e+01   5.162111e+01
  -1.786376e+02   1.596939e+01
  -9.269271e+01  -6.336902e+01
  -2.759546e+01  -8.947165e+01
   1.305228e+02  -6.656119e+01
   2.212087e+02   1.223922e+01
   1.210702e+02   2.335556e+02
  -1.231774e+02   2.560311e+02
  -3.571294e+02   7.660863e+01
  -2.549569e+02  -8.394446e+01
  -1.095304e+02  -2.026226e+02
   7.580683e+00  -1.682540e+02
   8.655890e+01  -1.238483e+02
   6.957304e+01  -5.182757e+01
   3.265983e+01  -9.530877e+01
   1.250708e+02  -1.245029e+02
   1.202087e+02   4.153853e+01
   1.150054e+02   1.637380e+02
   6.279150e+01   2.421982e+02
  -1.042179e+02   1.781277e+02
  -1.790567e+02  -3.547312e+01
  -2.246442e+02  -1.328257e+02
   3.884006e+00  -1.708705e+02
   8.908267e+01  -8.891349e+01
   1.122806e+02  -2.396249e+01
   5.373780e+01   3.627951e+01
  -4.157147e+01   4.189577e+01
   4.162391e+01  -9.181044e+00
   5.247796e+01   2.007833e+01
   1.847816e+01   7.367133e+01
  -6.531116e+01   5.988019e+01
  -1.916521e+02  -2.575026e+01
  -1.252764e+02  -7.945744e+01
  -4.107583e+00  -5.347279e+01
   8.919721e+01  -9.601656e+01
   1.584190e+02  -4.327575e+01
   2.149982e+01   2.880099e+01
   4.490528e-01   6.427038e+01
  -1.200112e+02   8.935703e+00
  -5.452021e+00  -3.833091e+01
   8.274160e+01  -5.016187e+01
   4.794998e+01   1.117089e+01
   1.615204e+01   7.972492e+01
   1.083994e+02   1.844128e+01
   5.855631e+01   9.587278e+00
   2.705175e+01   1.819309e+00
   8.126631e+01   1.200830e+02
  -2.499829e+01   1.935793e+02
  -2.169588e+02   1.195048e+02
  -1.975353e+02   5.119122e+01
  -1.429711e+02  -9.194360e+01
  -1.116600e+01  -1.460451e+02
   1.264383e+02  -9.658726e+01
   4.398801e+01   2.616293e+01
  -5.732500e+01   1.953986e+01
  -1.561709e+02  -2.132681e+01
  -5.731619e+01  -9.289955e+01
   6.663390e+01  -1.022817e+02
   2.093911e+02  -8.789253e+01
   2.274370e+02   1.868787e+01
   6.605360e+01   7.197680e+01
  -4.358405e+01   4.551218e+01
  -3.159048e+01   2.814030e+01
   4.737289e+01  -3.006453e+01
   1.270915e+02  -1.701302e+01
   8.853177e+00   1.900481e+02
  -1.204259e+02   1.734827e+02
  -1.832401e+02   6.048132e+01
  -1.109542e+02  -1.205976e+02
  -1.793631e+01  -1.891830e+02
   7.593108e+01  -1.878478e+02
   8.107459e+01   2.909427e+00
   2.649082e+01   1.506194e+02
  -5.062531e+01   1.630633e+02
  -7.323304e+00  -6.825064e+00
  -5.360037e+01  -4.572817e+01
   8.986232e+01  -3.596925e+01
   7.667150e+00   2.242425e+01
  -3.276894e+01  -2.883647e+01
  -3.446939e+00  -1.175829e+02
  -5.520246e+01  -8.644892e+01
   4.705662e+01  -1.118449e+01
   1.619789e+02   4.695944e+01
   1.248960e+02   3.558120e+01
   2.452548e+01   6.341897e+01
  -1.310264e+02   4.040636e+01
  -9.438739e+01   5.768440e+00
  -1.375092e+01  -1.309358e+01
   9.916816e+00  -6.799347e+01
   7.824849e+01  -2.105939e+01
  -3.291207e+01  -1.410405e+01
   1.399532e-01   4.784702e+01
   1.016616e+02   2.827824e+01
   6.868348e+01   2.738346e+01
  -5.049797e+00   5.107685e+01
  -1.812607e+02   1.313798e+02
  -2.156014e+02   4.279345e+01
  -1.614479e+02  -9.738694e+01
  -6.901799e+01  -1.640980e+02
   6.048281e+01  -1.073083e+02
   1.622929e+02  -4.674808e+01
   1.269437e+02   1.733959e+01
   5.198949e+01   6.095348e+01
   1.217297e+01   3.380269e+01
  -1.884348e+01  -5.033181e+00
   7.601991e+01   9.321000e+00
   3.003167e+01   7.330520e+01
  -9.494111e+00   7.465847e+01
  -8.491281e+01  -1.957012e+01
  -9.116706e+01  -1.270936e+02
  -9.474796e+00  -1.319343e+02
   9.964065e+01  -1.057339e+01
   4.030676e+01   1.189349e+02
   5.746080e+01   1.231888e+02
  -6.136120e+01   7.625951e+01
  -6.605721e+01  -2.245264e+01
  -4.895938e+01  -4.001203e+01
   4.170147e+01  -3.658997e+01
   4.102960e+01  -1.838819e+01
  -3.017012e+01   7.179937e+00
  -1.019729e+02   1.437075e+00
  -2.433411e+01  -1.243901e+01
   3.953207e+01  -1.114616e+02
   1.017743e+02  -3.451010e+01
   7.396041e+01  -3.908794e+00
   9.324037e+00   5.743150e+01
  -5.882051e+01   7.346682e+01
   1.282573e+01   9.121688e+00
  -8.711523e+00  -8.397366e+01
  -1.488288e+01  -7.443999e+01
   1.859918e+01  -7.346238e+00
   5.410977e+01   5.885265e+01
  -3.082783e+01   5.800464e+01
  -6.855038e+01   5.265253e+01
  -4.916671e+01  -3.343979e+01
  -5.800370e+01   1.581029e+01
  -5.200148e-01   5.493653e+01
   6.810267e+01   1.108682e+01
  -1.279854e+01  -3.389917e+01
  -4.901720e+00  -5.583115e+01
  -9.330834e+00  -3.320478e+01
   5.843715e+01   4.604211e+01
   5.704991e+00   7.361159e+01
  -3.666340e+01  -6.132349e+00
   4.828067e+01  -7.999143e+01
  -7.684133e+00  -9.721247e+01
   3.265461e+01  -3.614545e+01
   1.177283e+02  -5.820540e+01
   6.700609e+00   5.999247e+01
  -3.451587e+01   6.850075e+01
  -5.238990e+01   1.108324e+01
  -8.034365e+01   6.441040e+01
   6.632725e+00   1.397711e+01
  -3.665176e+01   5.398847e+01
  -9.102032e+01   2.238382e+01
  -1.116030e+02   6.304052e+00
