
 $NMID
 id='ANONYMOUS ', fmtdat='(2E16.6)'
 volume=1.0
 tramp=1.0
 $END
   3.535297e+03   1.002127e+02
   2.099865e+03   2.010296e+03
  -3.171427e+02   2.216893e+03
  -1.511209e+03   1.025996e+03
  -8.848664e+02  -2.156189e+02
   2.240225e+02  -2.950858e+02
   5.030409e+02   2.234600e+02
   4.340542e+01   6.966581e+02
  -5.581174e+02   6.877195e+02
  -7.168062e+02   2.023969e+01
  -4.061555e+02  -5.869062e+02
   8.915333e+01  -7.591951e+02
   4.277112e+02  -1.416534e+02
   3.043265e+02   4.893447e+02
  -1.680164e+02   6.412204e+02
  -4.678457e+02  -1.772464e+00
  -2.419944e+02  -5.278241e+02
   1.369227e+02  -6.021078e+02
   4.964445e+02  -1.709716e+02
   3.734399e+02   2.806599e+02
   3.925343e+01   3.646442e+02
  -1.667751e+02   2.245917e+02
  -7.030567e+01   3.343801e+01
   1.049442e+02  -1.445291e+01
   2.809539e+02   1.869290e+02
   4.386839e+01   4.102789e+02
  -4.104888e+02   2.127177e+02
  -5.868629e+02  -1.021920e+02
  -2.566329e+02  -4.323172e+02
   2.948297e+02  -2.907679e+02
   5.457063e+02   1.319983e+02
   2.489722e+02   3.583672e+02
  -2.755941e+02   4.525540e+02
  -4.723693e+02   1.599937e+02
  -3.927287e+02  -1.711752e+02
  -6.511409e+01  -3.310580e+02
   9.541870e+01  -2.043785e+02
   1.035670e+02   1.028215e+02
  -1.861169e+02   2.440137e+02
  -3.130342e+02  -1.794037e+01
  -1.290329e+02  -5.018188e+02
   2.633682e+02  -5.174652e+02
   4.364376e+02  -2.731496e+01
   1.896748e+02   3.941062e+02
  -2.263530e+02   1.798465e+02
  -2.321378e+02  -3.054430e+02
   1.060884e+02  -4.660739e+02
   4.494796e+02  -8.767235e+01
   5.326652e+02   3.814122e+02
   1.877889e+02   4.722348e+02
  -3.146063e+02   3.157106e+02
  -4.890595e+02  -8.710401e+01
  -3.092725e+02  -3.224016e+02
   6.475421e+01  -2.804233e+02
   3.468675e+02  -5.876595e+01
   2.101544e+02   5.371492e+01
  -1.119170e+02   4.166876e+01
  -1.405998e+02  -5.835500e+01
   1.443350e+02  -1.026278e+02
   2.846181e+02   8.022039e+01
   1.253472e+02   2.329864e+02
  -1.272670e+02   2.152143e+02
  -3.034756e+02   5.519185e+01
  -2.109273e+02  -1.406100e+02
  -7.859860e+01  -2.354398e+02
   2.508802e+02  -3.386725e+02
   2.985303e+02  -1.746983e+02
   2.385276e+02   1.363725e+02
   6.696760e+01   3.721730e+02
  -3.262691e+01   3.127524e+02
  -8.488572e+01   1.282027e+02
  -4.526686e+01   5.957455e+01
  -9.652895e+01   2.861715e+01
  -1.896199e+02   6.485679e+01
  -2.901866e+02  -7.517035e+01
  -1.060744e+02  -1.946045e+02
   7.464815e+01  -1.836650e+02
   2.095698e+02   3.565625e+01
   1.624371e+02   1.860346e+02
  -7.332778e+01   2.481902e+02
  -2.955791e+02   2.958015e+01
  -3.810088e+02  -1.427804e+02
  -1.782608e+02  -2.711644e+02
   9.874593e+01  -2.846841e+02
   2.068647e+02  -1.699578e+02
   1.249790e+02  -1.052245e+02
   1.636350e+02  -6.377930e+01
   2.635991e+02  -6.854364e+01
   3.638295e+02   1.688915e+02
   3.707268e+02   2.864012e+02
  -6.695656e+01   4.676073e+02
  -3.219781e+02   3.730559e+02
  -4.861713e+02   1.965693e+02
  -3.324040e+02  -1.330958e+02
  -3.563587e+01  -2.445873e+02
   8.071535e+01  -2.010633e+02
   3.206098e+01   1.935155e+01
  -7.992702e+01   5.912322e+01
  -1.411918e+02  -7.211841e+01
  -1.818562e+01  -1.574742e+02
   9.416543e+01  -1.035864e+02
   1.580463e+02   3.807087e+01
  -7.736614e+01   9.855211e+01
  -1.470065e+02   8.290536e+00
  -9.034785e+01  -2.417634e+02
   1.054855e+01  -3.280957e+02
   1.933417e+02  -2.339558e+02
   3.502997e+02   1.100604e+02
   2.492470e+02   2.618823e+02
   9.480731e+01   2.717957e+02
  -1.040002e+02   1.113225e+02
  -1.411647e+02   2.794740e+01
   2.969601e+00  -2.627712e+01
   6.116793e+01   3.750381e+01
   1.811704e+01   9.426375e+01
  -1.437904e+02   1.126010e+02
  -1.454844e+02   4.530585e+00
  -3.063108e+01  -9.813083e+01
   5.924542e+01  -4.072994e+01
   5.008848e+01   5.234853e+01
  -1.089778e+02   2.790398e+01
  -3.218082e+02   6.724468e+01
  -2.343058e+02  -1.370816e+02
  -4.973357e+01  -2.464646e+02
   1.566426e+02  -2.282558e+02
   2.218168e+02  -1.670989e+02
   1.512309e+02   6.920008e+01
  -4.354142e+01   6.799006e+01
  -6.005784e+01   7.396732e+00
   3.571851e+01  -1.074092e+02
   1.351004e+02  -5.657101e+01
   1.674937e+02   6.513448e+01
   1.042463e+02   1.683088e+02
  -1.108911e+02   1.113013e+02
  -1.334276e+02   3.186171e+01
  -2.914626e+01   1.016757e+01
   5.037343e+01   2.629904e+01
  -4.167622e+00   9.982239e+01
  -1.152078e+02   8.690143e+01
  -2.459037e+02   5.507109e+01
  -1.720110e+02  -1.241680e+02
  -2.066501e+01  -1.269153e+02
   1.580547e+02  -9.868092e+01
   1.779549e+02  -2.113797e+01
   6.101408e+01   6.169337e+01
  -3.379354e+01   1.668962e+02
  -7.785646e+01   3.055390e+01
   3.241545e+01   3.976985e+00
  -1.277629e+01  -1.861263e+01
  -4.620808e+01   1.649352e+01
  -7.751723e+01  -5.395678e+01
  -1.309262e+02  -1.171859e+02
   1.886515e+01  -2.059204e+02
   1.272913e+02  -1.211245e+02
   2.020756e+02  -2.758924e+01
   1.569574e+02   1.417709e+02
   1.272293e+01   2.482228e+02
  -1.281207e+02   1.715890e+02
  -1.526245e+02   2.755297e+01
  -4.742670e+01  -9.270241e+00
  -1.952946e+01  -2.638689e+01
  -1.129977e+02   7.741525e+00
  -8.124044e+01   1.594982e+01
  -7.373883e+01  -8.429869e+01
   2.352306e+01  -1.516236e+02
   6.889356e+01  -4.100592e-01
   9.954762e+01   3.436054e+01
   4.625827e+01   1.051374e+02
  -1.733915e+02   4.039876e+01
  -1.900431e+02  -1.161366e+02
  -1.254856e+02  -1.756344e+02
   1.143573e+02  -1.652573e+02
   2.850259e+02  -5.889179e+01
   2.183763e+02   5.884872e+01
   1.289853e+02   2.243524e+02
  -1.064877e+01   1.161572e+02
  -8.079789e+01   5.397745e+01
  -5.545707e+01   8.120771e+01
  -8.497423e+00   1.258404e+02
  -3.004735e+01   8.639656e+01
  -1.315565e+02  -2.657447e+01
  -1.016627e+02  -1.021874e+02
  -4.952347e+01  -2.079886e+02
   8.652125e+01  -1.352357e+02
   1.407591e+02   2.409619e+01
   1.188791e+02   1.107806e+02
   2.964250e+01   1.608985e+02
  -5.807584e+01   4.135224e+01
  -9.129053e+01   6.268401e+00
   4.935147e+01  -3.420653e+01
   4.443462e+01   4.797795e+00
  -4.154375e+01  -4.224006e+01
  -9.624317e+01  -5.000595e+01
  -7.007006e+01  -3.092283e+01
   5.105170e+01  -1.511182e+01
   1.386815e+02   2.571069e+01
   1.422103e+02   7.576824e+01
   4.573032e+01   9.398132e+01
  -9.096962e+01   5.646502e+01
  -1.284687e+02  -3.215188e+01
  -4.667392e+01  -2.144726e+01
   4.862010e+01  -2.135524e+01
   6.831161e+01  -8.747480e+00
  -2.052796e+01   1.016104e+02
  -2.272261e+01   3.802578e+01
  -9.016527e+01  -1.203602e+00
  -4.783688e+01  -5.667167e+00
  -4.277158e+01  -1.159119e+02
  -3.606814e+01  -1.395347e+01
  -8.909382e+01  -2.656269e+01
  -2.263008e+01  -5.979066e+01
   4.135945e+01  -1.769164e+02
   1.496881e+02  -1.150664e+02
   2.477952e+02  -1.842138e+01
   1.214717e+02   1.056082e+02
  -2.258726e+00   1.139849e+02
  -9.023983e+01   6.671277e+01
  -5.525149e+01  -3.095217e+00
   6.759296e+01  -4.913281e+01
   1.383289e+02   4.176568e+01
   1.039970e+02   8.078044e+01
  -1.088209e+02   1.192046e+02
  -1.894702e+02   3.085327e+01
  -1.494451e+02  -6.622086e+01
  -7.117375e+01  -8.254276e+01
   5.984801e+01  -3.349047e+01
   2.405891e+01  -3.051102e+01
  -4.779226e+01   9.897938e+01
  -6.750617e+01  -2.108606e+01
   4.078387e+00  -8.840674e+01
   5.594269e+01  -1.258931e+02
   1.442394e+02  -2.358036e+01
   1.451066e+02   1.229753e+02
  -1.155253e+00   1.375126e+02
  -7.759908e+01   1.528258e+02
  -8.270382e+01  -5.421644e+01
  -1.086617e+02  -1.068981e+02
   3.153182e+01  -9.287854e+01
   6.144951e+01  -1.527135e+01
   9.135444e+01   1.964554e+01
   5.405307e+01  -7.368548e-01
   2.404599e+01  -4.044392e+01
   2.248757e+01   3.362470e+01
   4.022114e+01   5.547454e+01
   1.255917e+01   1.104719e+02
  -2.599871e+01   8.256724e+01
  -1.177567e+02  -3.717882e+01
  -1.257240e+02  -4.898339e+01
  -2.764308e+01  -3.847386e+01
   9.762920e+01   8.406400e+00
   1.191126e+02  -8.544619e+00
   1.571379e+01  -2.098706e+01
  -2.888946e+01   2.733460e+01
  -7.211575e+00  -4.997812e+01
   6.285662e+01   3.129771e+01
  -4.011597e+01  -3.724528e+01
  -5.553336e+01   3.067727e+01
  -6.424757e+01  -4.732349e+01
   2.832421e+01  -1.034107e+02
   1.242428e+02  -1.467617e+02
   2.468102e+02  -1.012815e+02
   1.047946e+02   8.609826e+01
   2.892376e+01   2.040447e+02
  -1.118718e+02   1.067981e+02
  -1.137972e+02   4.428720e+01
  -3.283556e+01   3.100416e+01
  -4.226134e+01  -5.752260e+01
  -1.318042e+01  -1.381486e+01
   1.956968e+01   2.910962e+01
  -5.757009e+01  -2.339771e+01
  -1.735393e+01  -1.018304e+02
   1.943318e+01  -3.219940e+01
   7.127869e+01   5.083216e+01
   9.407079e+01   1.029629e+02
   4.091651e+01   1.400145e+02
  -6.348979e+01   6.234289e+01
  -1.027926e+02  -6.375738e+01
  -7.195116e+01  -1.006792e+02
  -9.173150e+00  -9.782952e+01
   1.286567e+02  -1.912255e+01
   6.444075e+01   3.399171e+01
  -3.461947e+01   2.335996e+01
  -7.788256e+01   3.605465e+01
   3.719472e+01   4.544232e+01
   1.150015e+02   7.027430e+00
   4.474796e+01   1.078823e+01
  -7.850784e+01   5.926221e+01
  -4.990248e+01   1.199284e+02
  -5.004326e+01   4.853536e+01
   1.281475e+01  -9.357538e+01
   1.941063e-03  -1.154273e+02
   3.858835e+01  -3.875546e+00
   1.959147e+01   7.298711e+01
  -1.692472e+01   5.004311e+01
  -5.775704e+01  -9.540907e+01
   2.319708e+01  -3.198410e+01
   4.567953e+01  -4.402731e+01
   9.525373e+01  -2.505682e+01
   5.970000e+01   5.076273e+01
   2.433687e+01   1.225941e+01
  -2.649370e+01   2.392008e+01
  -2.558213e+00   6.436514e+00
  -1.593452e+01   5.655857e+01
   6.856548e+00   6.333886e+01
  -6.743996e+01  -1.551816e+01
   3.737390e+00  -4.329423e+01
   3.018465e+01  -9.548016e+01
   5.126822e+00  -4.131812e+01
   7.365613e+01   2.915217e+01
   2.318211e+01   4.342495e+00
  -3.584837e+01   4.148131e+01
  -3.268406e+01  -5.535218e+01
  -7.823933e+01  -9.585545e+01
   6.077046e+01  -2.337772e+01
   8.718274e+01  -1.721812e+01
   1.704343e+00  -5.388779e+01
  -4.602470e+01   2.217993e+01
  -1.818260e+01  -2.657155e+01
   2.560163e+01  -2.348245e+01
   8.271212e+01  -4.645365e+01
