
 $NMID
 id='ANONYMOUS ', fmtdat='(2E16.6)'
 volume=1.0
 tramp=1.0
 $END
  -2.791045e+03   6.172140e+01
  -2.042125e+03  -1.245794e+03
  -4.346265e+02  -1.775596e+03
   7.984630e+02  -1.515042e+03
   9.687925e+02  -5.794306e+02
   3.278099e+02   9.060471e+01
  -2.239811e+02   4.164040e+01
  -5.612437e+01  -3.464987e+02
   2.306588e+02  -4.961780e+02
   4.830114e+02  -2.344048e+02
   4.928096e+02   3.429760e+02
   1.600677e+02   6.235279e+02
  -1.356151e+02   2.237907e+02
  -1.822598e+02  -3.508229e+02
   5.081675e+01  -4.731020e+02
   3.210334e+02  -1.472859e+02
   2.824943e+02   4.556521e+02
   3.355554e+01   6.680328e+02
  -3.832594e+02   3.775114e+02
  -4.851149e+02  -7.157098e+01
  -2.082607e+02  -2.819721e+02
   6.941013e+01  -2.538225e+02
   4.265042e+01  -1.285602e+02
  -2.105792e+02  -1.985330e+02
  -2.477549e+02  -3.657085e+02
   1.169073e+02  -3.157778e+02
   4.937885e+02  -7.394720e+01
   5.668713e+02   2.381941e+02
   1.674218e+02   3.670388e+02
  -3.192363e+02   6.820818e+01
  -4.291571e+02  -1.391348e+02
  -1.838065e+02  -2.245015e+02
   2.381633e+02  -3.222196e+02
   4.062689e+02  -9.642938e+01
   2.766696e+02   1.583208e+02
   1.284975e+02   1.848646e+02
   4.980729e+01   1.007126e+02
   1.247211e+02  -4.341013e+00
   1.970218e+02   1.258322e+01
   9.104183e+01   2.204661e+02
  -5.914175e+01   3.962678e+02
  -2.159901e+02   2.998555e+02
  -1.734826e+02   2.983974e+01
  -7.137339e+00  -1.784679e+02
   1.023214e+02  -8.404633e+01
   9.728031e+01   1.956841e+02
  -1.145049e+02   2.450692e+02
  -3.793344e+02   4.019654e+01
  -4.438705e+02  -3.954046e+02
  -1.816617e+02  -4.907773e+02
   3.202902e+02  -1.979661e+02
   4.781640e+02   5.552418e+01
   3.339809e+02   2.259440e+02
  -1.855322e+00   1.565882e+02
  -2.826364e+02   1.641282e+02
  -2.451155e+02   1.805321e+01
  -4.017801e+01  -1.110054e+01
   1.902877e+01   1.791164e+01
  -1.045916e+02   1.880209e+01
  -1.355413e+02  -1.327176e+01
  -1.511171e+02  -1.308272e+02
   1.348757e+02  -2.410164e+02
   4.078227e+02  -1.632264e+02
   2.879451e+02   4.619537e+01
  -5.151834e+01   3.742942e+02
  -3.360121e+02   4.436197e+02
  -3.997854e+02   1.399405e+02
  -2.078100e+02  -1.994140e+02
   6.610067e+00  -3.378573e+02
   5.873453e+01  -3.042626e+02
  -2.130056e+01  -2.021081e+02
   6.302615e+00  -1.876105e+02
   2.078182e+02  -2.120873e+02
   3.013201e+02  -1.042215e+00
   2.579050e+02   1.645312e+02
   6.688620e+01   2.859592e+02
  -1.463363e+02   1.619180e+02
  -1.559275e+02  -9.573543e+01
  -1.077569e+02  -2.486935e+02
   1.070193e+02  -2.873062e+02
   2.089600e+02   1.008400e+00
   2.583317e+02   1.298096e+02
   1.516225e+02   3.157050e+02
  -1.662717e+01   2.787902e+02
  -1.408005e+02   1.638110e+02
  -1.464662e+02   1.255499e+02
  -1.637122e+02   1.027641e+02
  -3.257058e+02  -2.155810e+01
  -4.631084e+02  -1.283961e+02
  -3.375944e+02  -3.411077e+02
   2.779691e+01  -5.195638e+02
   4.307447e+02  -3.856982e+02
   4.477025e+02  -1.381556e+02
   3.064333e+02   1.303282e+02
   8.612342e+01   2.139071e+02
  -8.531116e+01   1.671040e+02
   2.150644e+01   4.285590e+01
   1.453639e+02  -2.285587e+01
   1.032734e+02   6.338689e+01
   1.992745e+01   1.131084e+02
  -9.598877e+01   6.840282e+01
  -1.090143e+02  -2.490406e+01
   2.460227e+01  -5.882709e+01
   7.726350e+01   2.676189e+01
   2.083726e+02   2.118885e+02
   1.327977e+01   3.945711e+02
  -2.931181e+02   2.422615e+02
  -4.112927e+02  -6.649122e+01
  -2.868004e+02  -2.619933e+02
  -5.865462e+01  -2.345388e+02
   1.316291e+02  -1.356355e+02
   1.643046e+02   5.574919e+01
   5.738410e+01  -1.756306e+01
  -5.236606e+01  -7.647919e+01
   8.475698e+00  -1.193824e+02
   1.108847e+02  -6.956301e+01
   1.346900e+02   6.527184e+01
   3.811164e+00   4.453737e+01
  -1.092102e+02  -4.335505e+01
  -4.100170e+01  -8.341117e+01
   1.854329e+02  -6.229021e+01
   3.325128e+02   6.497214e+01
   2.639235e+02   1.911688e+02
   3.114700e+01   3.611338e+02
  -2.342516e+02   2.664786e+02
  -2.721036e+02   1.109002e+02
  -1.763370e+02  -3.885807e+01
   1.133526e+02  -1.161743e+02
   3.167015e+01   1.042528e+01
  -6.447572e+01   5.391935e+01
  -1.952219e+02   1.380012e+01
  -1.570746e+02  -1.168776e+02
  -5.032652e+01  -1.396069e+02
   8.957095e+01  -1.593211e+02
   1.268307e+02  -5.660633e+01
   3.140657e+01  -3.838986e+00
  -8.992925e+00  -7.919547e+01
  -5.206069e+01  -1.371057e+02
   1.293308e+02  -1.008363e+02
   2.173908e+02   4.361204e+01
   1.912513e+02   1.523382e+02
   1.873563e+01   2.491810e+02
  -2.514529e+02   1.280150e+02
  -1.504557e+02  -2.665019e+01
  -5.223368e+01  -8.919372e+01
   9.713570e+01  -1.365583e+02
   4.592790e+01  -2.393475e+01
  -3.071203e+01   7.017846e+01
  -5.113214e+01   2.566385e+01
   5.851764e+01   3.139368e+01
   1.202835e+02   8.278769e+01
   1.537195e+02   7.173969e+01
  -1.852615e+01   2.354070e+02
  -1.470676e+02   1.564466e+02
  -2.068407e+02   1.994310e+01
  -1.944632e+02  -1.854546e+02
  -1.713162e+01  -2.182547e+02
   7.386827e+01  -1.670739e+02
   1.633528e+02  -5.404249e+01
   6.127855e+01   3.811195e+01
   1.032659e+02   1.803317e+01
   9.568351e+01  -1.770645e+01
   1.009185e+02  -8.215656e+01
   7.990772e+01   1.279182e+02
   1.955150e+01   1.359150e+02
  -1.422429e+02   2.827290e+01
  -1.007598e+02  -1.302108e+01
   2.924050e+01  -1.862512e+02
   1.494983e+02  -1.262791e+02
   1.997877e+02   9.901618e+01
   9.484513e+01   2.790526e+02
  -1.081094e+02   3.242955e+02
  -2.918539e+02   1.232755e+02
  -2.482275e+02  -1.198130e+02
  -1.028175e+02  -1.972545e+02
  -2.177987e+01  -1.906476e+02
   4.938322e+01  -6.535906e+01
   5.583844e+01  -3.208745e+01
   5.496212e+01  -7.279000e+01
   1.054018e+02  -1.163165e+02
   1.770701e+02  -5.136175e+01
   1.136524e+02   1.819325e+02
  -1.814683e+01   2.460579e+02
  -1.205395e+02   1.425270e+02
  -1.407255e+02  -8.728416e+00
  -7.613797e+01  -1.463744e+02
   3.373568e+01  -1.678503e+02
   9.504833e+01  -2.761257e+01
   1.026674e+02  -1.337269e+01
  -3.765790e+01   9.112171e+01
  -3.614987e+01   9.199066e+00
   6.421911e+00   2.138295e+01
   9.323712e+01  -1.302035e+01
   2.479631e+01   9.532137e+01
  -5.186629e+01   4.097635e+01
  -1.939689e+02   1.416177e+00
  -1.432491e+02  -4.668579e+01
  -7.323877e+00  -7.982512e+01
   1.006425e+02  -9.377773e+01
   9.708565e+01  -1.584882e+01
   7.325121e+01   2.985659e+01
  -3.921834e+01   2.081262e+01
  -8.590374e+01  -7.384788e+01
  -2.124204e+01  -1.078843e+02
   1.308103e+01  -9.356431e+01
   6.983111e+00  -1.882994e+01
   5.692446e+01   3.020661e+01
   3.698482e+01   1.548518e+01
   1.218736e+02   2.920035e+00
   6.232937e+01  -2.059585e+01
   3.025521e+01   9.317276e+01
  -6.022549e+01   1.216072e+02
  -1.986252e+02   1.526043e+02
  -2.772648e+02   3.577917e+01
  -8.056104e+01  -1.319594e+02
  -1.677148e+01  -1.851444e+02
   5.075156e+01  -6.797815e+01
   7.610305e+01  -3.027761e+01
  -8.236409e+01   8.335651e+00
  -1.257446e+02  -1.086750e+02
  -8.473720e+01  -1.218484e+02
   1.367811e+02  -1.353611e+02
   1.910687e+02  -2.350817e+01
   1.778715e+02   3.456494e+01
   4.406758e+01   1.093862e+02
  -2.502947e+01   3.431445e+01
  -1.104600e+01   2.657320e+01
   7.502357e+01  -7.187210e+01
   1.415393e+02   5.150165e+01
   2.676090e+01   1.008730e+02
  -7.762204e+01   9.987954e+01
  -1.548049e+02   5.704088e+01
  -1.677289e+02  -4.787771e+01
   1.131644e+01  -1.962097e+02
   1.049866e+02  -1.439143e+02
   7.692069e+01   9.363992e+01
   8.145864e+01   1.636238e+02
  -1.925809e+01   9.631512e+01
  -5.432817e+01   2.092883e+01
  -6.656287e+01  -5.883435e+01
  -3.271810e+01   2.032971e+01
   2.528072e+01  -4.187193e+01
  -1.171719e+01  -3.190485e+01
  -6.138166e+01  -1.760527e+02
  -4.823714e+01  -9.797684e+01
   7.104651e+01  -9.903962e+01
   1.541700e+02  -4.436601e+01
   1.323352e+02   3.623971e+01
   2.423244e+01   2.552814e+01
  -4.623125e+01   5.179591e+00
  -3.368333e+01   4.321028e+01
  -2.425841e+01  -1.415869e+01
  -1.161976e+01  -2.897516e+01
   4.936806e+01  -9.559609e-01
   1.319161e+00   1.557947e+01
   1.583864e+01   4.503825e+01
   5.854225e+01  -4.048033e+01
   6.511362e+01   1.536281e+01
   3.962262e+01   1.185255e+02
  -1.098099e+02   1.324157e+02
  -2.114266e+02   5.731556e+01
  -1.477067e+02   1.672618e+01
   1.170592e+01  -1.381965e+02
   1.226600e+02  -1.401222e+02
   1.175180e+02  -7.134449e+01
   4.538946e+01   2.171335e+00
   4.657406e+01   4.324513e+01
   3.535025e+01  -1.790868e+01
   4.939136e+01   4.672078e+01
   3.566523e+01   4.454342e+01
   6.896736e+01   1.420318e+02
   8.184152e+00   9.310378e+01
  -6.616468e+01  -3.135662e+01
  -1.071083e+02  -1.255159e+02
   4.058226e+01  -1.714739e+02
   8.681675e+01  -4.814225e+01
   1.270948e+02   5.833530e+01
   4.337234e+01   1.111352e+02
  -6.769639e+01   9.708284e+01
  -1.508654e+02  -2.231333e+01
   2.584894e+00  -1.018735e+02
  -4.314560e+01  -4.945089e+01
   4.774352e+01  -5.317282e+01
  -1.638515e+01  -8.270412e+00
  -8.148292e+01   5.316124e+01
  -6.986206e+01   3.278970e+01
   8.194498e+01  -2.836159e+01
   1.728646e+02  -3.970237e+01
   6.036066e+01   7.287313e+01
   1.639552e+01   4.997009e+01
  -7.173477e+01   1.351664e+02
  -7.781773e+01   3.307533e+01
   5.333834e-01  -5.920151e+01
   6.395428e+01  -9.136620e+01
   4.659529e+01   2.816338e+01
  -1.327384e-01   9.491833e+01
  -3.492713e+01   4.016514e+01
  -5.843485e+01   5.659380e+00
  -1.062162e+02  -6.547782e+00
   2.594048e+01   8.384731e+00
   6.690729e+01   4.409009e+01
   3.944828e+01  -9.162853e+00
   2.543493e+01  -6.036905e+01
  -4.473728e+01  -2.434279e+01
  -1.690771e+00  -6.887424e+01
   1.717105e+01   4.448540e+01
   1.654287e+01   2.383121e+01
  -6.400997e+01   2.320681e+01
  -1.107547e+02  -2.821021e+01
  -1.549975e+01  -7.475986e+01
   4.713541e+01  -4.222184e+01
   5.583466e+01   6.348707e+01
   2.820922e+01   7.452619e+01
  -6.087223e+01  -5.838259e+00
  -1.818445e+01   7.097480e+01
   1.935732e+01  -4.272600e+00
   1.220855e+01   2.770815e+01
   6.240275e+01   5.136610e+01
   1.013764e+01   6.707100e+00
  -7.416695e+01   5.043302e+00
