
 $NMID
 id='ANONYMOUS ', fmtdat='(2E16.6)'
 volume=1.0
 tramp=1.0
 $END
   2.854793e+03   8.191148e+01
   2.017800e+03   1.303709e+03
   3.476321e+02   1.836782e+03
  -8.975618e+02   1.507572e+03
  -1.023464e+03   6.179431e+02
  -3.835089e+02  -1.525480e+01
   9.787290e+01  -4.249802e+01
   1.103051e+02   3.829838e+02
  -3.344697e+02   4.831772e+02
  -4.987497e+02   1.397195e+02
  -4.148559e+02  -4.113268e+02
  -1.921037e+02  -6.294206e+02
   1.104233e+02  -1.579863e+02
   1.808610e+02   2.893411e+02
  -3.469474e+01   4.778557e+02
  -3.024428e+02   9.690426e+01
  -3.155918e+02  -4.435238e+02
   1.105376e+01  -6.009639e+02
   4.121008e+02  -3.502077e+02
   5.290710e+02   8.464239e+01
   2.277056e+02   4.051376e+02
  -3.309043e+01   1.570456e+02
  -2.961902e+01   5.462742e+01
   2.294547e+02   2.097039e+02
   2.683724e+02   3.714581e+02
  -1.138075e+02   3.883828e+02
  -5.048194e+02   4.253219e+01
  -5.606316e+02  -2.669413e+02
  -1.191322e+02  -2.598702e+02
   2.848204e+02  -1.326974e+02
   4.717769e+02   1.775907e+02
   1.209727e+02   3.121879e+02
  -3.066933e+02   2.803695e+02
  -4.151879e+02   8.414491e+01
  -3.465081e+02  -1.858850e+02
  -4.323920e+01  -2.413454e+02
  -1.591140e+01  -1.567004e+02
  -1.142502e+02   5.652107e+01
  -2.088710e+02   7.206512e+01
  -1.655336e+02  -1.674525e+02
   5.848547e+01  -4.668303e+02
   2.274132e+02  -3.792890e+02
   2.123719e+02   2.563372e+01
   5.727830e+01   1.965237e+02
  -5.775018e+01   1.851985e+01
  -5.078463e+01  -3.000897e+02
   1.587337e+02  -3.397948e+02
   3.754514e+02  -1.422645e+01
   5.029709e+02   3.814727e+02
   2.145028e+02   5.027104e+02
  -2.786723e+02   2.283459e+02
  -4.665199e+02  -5.902506e+01
  -3.038281e+02  -1.927650e+02
   1.880398e+00  -1.734353e+02
   2.573467e+02  -1.190550e+02
   2.333187e+02  -4.588821e+01
   3.502021e+01  -9.954715e+00
   2.828563e+00   4.084924e+01
   1.214076e+02   4.126352e+01
   2.143316e+02   8.628604e+01
   1.244349e+02   1.136479e+02
  -1.672769e+02   2.749573e+02
  -3.224677e+02   1.931011e+02
  -2.731258e+02  -9.563477e+01
   3.540036e+01  -4.151398e+02
   3.649803e+02  -4.210543e+02
   4.655286e+02  -1.257588e+02
   2.080395e+02   2.016015e+02
   3.581178e+00   3.857194e+02
   3.190289e+01   3.274446e+02
   8.570508e+01   2.137073e+02
  -3.470573e+01   1.142409e+02
  -1.853135e+02   1.843210e+02
  -2.974996e+02   6.974689e+01
  -3.025314e+02  -1.425206e+02
  -7.622833e+01  -2.636093e+02
   1.265955e+02  -1.473873e+02
   1.967630e+02   1.115175e+02
   1.071414e+02   3.072088e+02
  -1.092850e+02   2.691441e+02
  -3.211848e+02   6.639788e+01
  -2.521185e+02  -2.169011e+02
  -1.746777e+02  -2.489485e+02
   1.066468e+02  -2.683136e+02
   1.370057e+02  -1.483855e+02
   1.835970e+02  -1.443334e+02
   1.312755e+02  -7.381610e+01
   3.526763e+02  -1.288839e+01
   4.695429e+02   1.008771e+02
   2.288254e+02   2.995056e+02
  -6.763134e+01   4.181085e+02
  -3.987245e+02   3.794599e+02
  -4.800649e+02   1.440016e+02
  -3.230124e+02  -1.108551e+02
  -6.655536e+01  -1.946597e+02
   9.467388e+01  -1.737038e+02
  -1.344634e+01  -1.985476e+01
  -1.413139e+02  -3.858029e+01
  -1.049669e+02  -8.034652e+01
   2.278310e+00  -1.563062e+02
   5.004549e+01  -5.711714e+01
   4.565327e+01   9.797214e+01
  -5.812772e+01   8.811550e+01
  -1.255169e+02   2.848648e+01
  -1.557920e+02  -2.320588e+02
   8.754043e+01  -3.108652e+02
   3.077030e+02  -1.740165e+02
   3.897515e+02   6.747192e+01
   2.904864e+02   3.311496e+02
   5.599594e+01   2.966981e+02
  -1.621158e+02   1.142624e+02
  -1.248007e+02  -1.309612e+01
  -2.354126e+01  -2.112255e+01
   5.924322e+01   6.530692e+01
   1.089446e+00   1.215433e+02
  -1.516156e+02   7.583250e+01
  -1.527351e+02  -4.477099e+01
  -6.776065e+01  -4.705688e+01
   7.486233e+01   1.805242e+01
   4.492398e+01   1.040109e+02
  -1.843372e+02   9.123908e+01
  -3.380721e+02  -3.938786e+01
  -2.822230e+02  -2.309721e+02
   3.379951e+00  -3.311827e+02
   1.940984e+02  -2.233009e+02
   2.622872e+02  -8.053733e+01
   1.526310e+02   6.055946e+01
  -8.372127e+01   1.013300e+02
  -6.280931e+01   1.923323e+01
   5.360275e+01  -8.448154e+01
   2.297023e+02  -4.014257e+01
   2.194242e+02   1.076489e+02
   6.557204e+01   2.505072e+02
  -9.500426e+01   1.173683e+02
  -6.813266e+01  -5.192818e+00
  -5.350454e+01  -4.396447e+01
   3.218770e+01   8.347777e+01
   2.325795e+01   6.338006e+01
  -1.219534e+02   1.386706e+02
  -2.408901e+02  -8.981803e+00
  -1.974107e+02  -1.500640e+02
  -1.273540e+01  -1.971516e+02
   2.070016e+02  -1.109481e+02
   2.188359e+02  -4.813969e+01
   2.411927e+01   9.988065e+01
  -8.905918e+01   3.310328e+01
  -1.869795e+01   5.528725e+01
   1.013042e+01  -1.549812e+01
   7.406230e+01   4.537739e-01
  -7.758769e+00   1.393066e+01
  -8.721733e+01  -7.318578e-01
  -7.602638e+01  -3.410545e+01
  -9.286940e+00  -1.282920e+02
   1.356843e+02  -2.105258e+02
   2.705555e+02   5.542736e+01
   1.804187e+02   1.765955e+02
   4.245224e+00   2.425611e+02
  -9.215606e+01   1.711631e+02
  -1.298249e+02   4.962198e+01
  -5.867668e+01  -1.049070e+01
  -2.153204e+01  -1.202538e+01
  -6.214986e+01   1.321765e+00
  -1.073116e+02  -1.025141e+01
  -9.654148e+01  -1.022534e+02
   9.997292e+00  -1.109879e+02
   1.654140e+02  -6.357823e+01
   1.469953e+02   5.531889e+01
  -2.249504e+01   1.396568e+02
  -2.017619e+02   7.103585e+01
  -2.094616e+02  -7.058651e+01
  -9.873896e+01  -2.447867e+02
   1.435246e+02  -2.929547e+02
   2.313027e+02  -1.195817e+02
   2.798327e+02   1.066989e+02
   8.971508e+01   1.843332e+02
  -4.583454e+01   1.313347e+02
  -6.789224e+01   7.164640e+01
  -3.399747e+01   7.670776e+01
  -7.209575e+01   1.149711e+02
  -1.163424e+02   9.948794e+01
  -1.912750e+02  -5.522393e+01
  -9.289938e+01  -1.646112e+02
  -8.437125e+00  -2.285126e+02
   9.057896e+01  -1.378242e+02
   1.341319e+02  -4.308972e+00
   1.203477e+02   1.498641e+02
   4.006453e+01   1.273292e+02
  -3.481922e+01   1.586598e+02
  -5.356869e+01  -1.985558e+01
   3.935322e+01  -7.061649e+01
   4.993927e+01   1.240330e+01
  -5.537491e+01  -9.405388e+01
  -1.165532e+02  -2.382855e+01
  -6.630141e+01  -5.957788e+01
   9.944096e+01  -1.178625e+00
   1.738491e+02   1.003273e+01
   1.163030e+02   1.029790e+02
  -1.345947e+01   8.988657e+01
  -1.288148e+02   7.037278e+01
  -1.715409e+02  -2.539279e+00
  -4.064511e+01  -8.236755e+01
   8.510630e+01  -2.471146e+01
   6.818975e+01  -1.804123e+01
   9.684005e+01   1.294731e+02
  -3.229781e+01   7.341843e+01
  -6.613855e+01  -1.255978e+01
  -1.896378e+01  -5.606880e+01
  -9.253436e+01  -6.956005e+01
  -5.954952e+01  -3.035684e+01
  -5.722184e+01   1.319890e+01
  -3.694719e+01  -6.392918e+01
   3.048011e+01  -2.015107e+02
   1.428661e+02  -1.847127e+02
   2.201942e+02  -4.865896e+01
   1.839751e+02   1.409867e+02
  -5.881427e+01   1.389005e+02
  -1.037178e+02   7.501771e+01
  -8.189037e+01  -6.053780e+01
   5.533630e+01  -1.465740e+01
   1.775247e+02   2.484066e+01
   8.107254e+01   1.478127e+02
  -1.032567e+02   1.262216e+02
  -2.185356e+02   9.176371e+01
  -1.770039e+02  -5.270219e+01
  -2.347624e+01  -1.231029e+02
   3.769402e+01  -1.335393e+02
   6.023163e+01   1.431952e+01
  -9.171919e+01  -1.385905e+01
  -1.484623e+02   8.255145e+01
  -3.227875e+01  -6.243680e+01
   4.716876e+01  -1.213702e+02
   1.932158e+02  -1.261882e+02
   1.177704e+02   6.726318e+01
   1.732117e+01   1.560945e+02
  -2.135361e+01   1.243916e+02
  -5.277179e+01  -6.257536e+01
  -7.950091e+01  -6.324628e+01
   4.955579e+01  -1.197157e+02
   7.194746e+01  -6.964298e+00
   1.122321e+02   4.390660e+01
  -1.923222e+01   2.353941e+00
  -3.754823e+01  -9.770243e+00
   5.767579e+01  -1.798927e+01
   5.926070e+01   7.123082e+01
  -1.615076e+01   8.861264e+01
  -1.015853e+02   5.222305e+01
  -1.571350e+02  -6.876263e+00
  -1.563643e+02  -1.019333e+02
  -5.651680e+01  -8.571423e+01
   4.718087e+01  -3.895771e+01
   1.004121e+02   1.544187e+01
  -1.695252e+01   8.262135e+00
  -3.811760e+01   7.776813e+01
  -3.611822e+01  -1.239290e+01
   2.894292e+01  -1.389929e+01
  -5.674417e+01  -9.059997e+00
  -6.741778e+01  -1.324897e+01
  -1.113753e+02  -4.874745e+01
  -5.433829e+01  -9.337083e+01
   8.490028e+01  -1.342863e+02
   1.753729e+02  -6.594618e+01
   1.204032e+02   4.129194e+01
  -9.687534e+00   1.825358e+02
  -2.862352e+01   1.504277e+02
  -1.573110e+02   2.187210e+01
  -7.617069e+01   2.168113e+01
  -4.522689e+01  -2.097850e+01
   4.662269e+01  -4.217719e+01
  -4.029913e+01  -1.486966e+01
  -6.943520e-01  -4.671100e+01
  -1.090671e+01  -8.240846e+01
   7.058693e+01  -8.183743e+01
   4.672014e+01  -6.806032e+00
   9.026576e+01   9.377805e+01
   7.994782e+00   9.822525e+01
  -1.253741e+02   8.641500e+01
  -6.770199e+01  -8.045192e+01
  -5.112799e+01  -1.686076e+02
   5.566187e+01  -1.076886e+02
   1.525113e+02  -2.840235e+01
   3.268903e+01   6.005996e+01
  -7.523933e+01   8.600046e+01
  -3.546717e+01   1.012454e+01
  -2.266243e+01   3.338904e+01
   2.070842e+02   3.892938e+01
   4.962874e+00  -4.436580e+01
  -7.572895e+01   8.074003e+01
  -1.710847e+02   5.360545e+01
  -7.344192e+01   2.025783e+01
   4.158304e+01  -1.063636e+02
   8.732792e+01  -1.088359e+02
   3.452343e+01  -1.727494e+01
   4.974833e+01   8.502018e+01
   1.598707e+01   6.636243e+01
  -6.251755e-01   2.375074e+01
  -1.872834e+01  -7.311312e+01
  -6.349213e+00  -5.012182e+01
   4.105362e+01  -5.221460e+00
   5.011014e+01   4.311490e+01
   4.078307e+00   2.066179e+01
  -6.677207e+01  -2.915111e+01
  -6.387357e+01  -3.638383e+01
  -1.032327e+01  -4.292995e-01
   4.025648e+01   7.683072e+01
  -1.716961e+01   3.979175e+01
  -2.955436e+01  -1.138485e+00
  -4.654775e+00  -8.475770e+01
   2.227940e+01  -1.531768e+01
   6.470622e+01  -8.639485e+00
   4.276917e+01   9.804887e+00
  -4.546235e+01   5.194904e+01
  -1.250214e+02  -6.542482e+00
  -7.765901e+00  -5.739625e+01
  -2.152739e+01  -7.695246e+01
   7.864041e+01  -3.229319e+01
   6.811507e+01  -1.185662e+01
  -6.428253e+01  -2.397749e+01
   4.938231e+00   1.539464e+01
  -2.408470e+01   1.652875e+00
   8.310206e+01  -1.586344e+01
