
 $NMID
 id='ANONYMOUS ', fmtdat='(2E16.6)'
 volume=1.0
 tramp=1.0
 $END
  -3.304914e+03   1.518006e+02
  -2.225134e+03  -1.713267e+03
   6.463651e+01  -2.148618e+03
   1.359395e+03  -1.193707e+03
   9.747615e+02  -6.044589e+00
  -1.189158e+02   2.846987e+02
  -5.357100e+02  -7.352902e+01
  -1.145635e+02  -6.930823e+02
   4.552404e+02  -6.750280e+02
   7.386031e+02  -3.938419e+01
   4.439810e+02   5.286017e+02
  -2.603758e+01   7.267095e+02
  -3.330676e+02   1.585724e+02
  -2.254328e+02  -4.671114e+02
   1.212478e+02  -6.242120e+02
   4.316196e+02  -7.208465e+01
   2.570584e+02   5.129892e+02
  -1.334486e+02   6.368070e+02
  -4.848341e+02   2.915118e+02
  -4.722232e+02  -2.751156e+02
  -1.407936e+02  -3.512399e+02
   1.837375e+02  -2.364738e+02
   9.753358e+01  -8.719469e+01
  -1.912450e+02  -7.404875e+00
  -2.244814e+02  -2.902437e+02
  -2.655502e+01  -3.393715e+02
   4.380236e+02  -1.369661e+02
   6.626383e+02   1.524823e+02
   2.774072e+02   3.866676e+02
  -3.741314e+02   2.556608e+02
  -4.993560e+02  -7.375494e+01
  -2.496351e+02  -3.883403e+02
   2.273564e+02  -3.525201e+02
   5.064589e+02  -1.554564e+02
   3.214856e+02   1.508051e+02
   5.554644e+01   3.181756e+02
  -3.430033e+01   2.373966e+02
   2.125482e+01  -1.421823e+02
   1.653547e+02  -1.693366e+02
   2.671290e+02   1.221457e+02
   2.976659e+01   5.326998e+02
  -2.514468e+02   5.088239e+02
  -3.429552e+02   5.599026e+01
  -9.836245e+01  -3.699262e+02
   1.777910e+02  -2.097053e+02
   2.023830e+02   2.757764e+02
  -1.154514e+02   3.963752e+02
  -4.483818e+02   1.181616e+02
  -4.712318e+02  -3.804743e+02
  -1.527398e+02  -4.986846e+02
   3.033917e+02  -2.560281e+02
   5.382851e+02   3.043693e+01
   2.855133e+02   2.479846e+02
  -3.333075e+01   2.712038e+02
  -3.153212e+02   2.813353e+01
  -2.147734e+02  -3.793267e+01
   3.071911e+01  -6.171100e+01
   8.305213e+01   8.991729e+01
  -8.004816e+01   6.528875e+01
  -2.446030e+02  -7.009655e+01
  -1.019191e+02  -1.945406e+02
   1.384003e+02  -2.528505e+02
   3.479600e+02  -1.648802e+02
   2.653273e+02   7.641038e+01
  -1.868707e+01   3.068442e+02
  -2.476616e+02   3.463552e+02
  -2.882526e+02   1.372857e+02
  -1.950159e+02  -1.198850e+02
  -4.304520e+01  -3.438716e+02
   2.935408e+01  -2.864770e+02
   5.193481e+01  -1.522005e+02
   1.949162e+01  -8.908244e+01
   5.722433e+01  -1.053626e+02
   2.654182e+02  -6.245465e+01
   2.215061e+02   1.065764e+02
   9.499967e+01   2.369330e+02
  -1.088626e+02   1.834639e+02
  -2.046261e+02  -3.544246e+01
  -8.690024e+01  -2.402912e+02
   1.913549e+00  -2.370778e+02
   2.174125e+02  -1.064267e+02
   3.561492e+02   1.879664e+02
   1.987150e+02   3.283443e+02
  -1.273310e+02   2.588466e+02
  -1.454242e+02   1.234257e+02
  -1.902570e+02   6.994188e+01
  -1.058688e+02   9.216203e+01
  -2.051581e+02   2.612241e+01
  -4.135871e+02  -2.894290e+01
  -3.343547e+02  -3.471964e+02
  -7.258534e+00  -3.866680e+02
   3.762631e+02  -3.529982e+02
   4.833903e+02  -1.394793e+02
   1.929100e+02   5.387869e+01
   7.343923e+01   2.901410e+02
  -1.082406e+02   2.388725e+02
   1.109117e+01   3.514479e+01
   9.805533e+01  -3.642684e+01
   1.449894e+02   3.576102e+01
   2.267421e+01   7.006659e+01
  -1.325023e+02   8.235738e+01
  -1.623096e+02  -2.111732e+01
   2.993747e+01  -1.406329e+02
   1.815275e+02   2.826398e+00
   1.353975e+02   2.357208e+02
  -1.427514e+01   3.277017e+02
  -2.552825e+02   1.326297e+02
  -3.120951e+02  -6.705441e+01
  -2.783200e+02  -2.264889e+02
  -8.687891e+01  -3.083618e+02
   9.003486e+01  -1.432728e+02
   1.204023e+02  -3.352496e+01
   6.965252e+01  -4.561079e+00
  -6.951064e+01  -7.784569e+01
  -1.448203e+01  -9.749693e+01
   1.129354e+02  -3.893896e+01
   1.839765e+02   1.960771e+01
   4.630892e+01   7.090399e+01
  -5.933995e+01   2.937626e+01
  -2.451605e+01  -7.303431e+01
   1.220888e+02  -1.155220e+02
   3.153774e+02   1.763571e+01
   2.288895e+02   1.718508e+02
  -1.095165e+01   2.642106e+02
  -1.522852e+02   2.192557e+02
  -2.662820e+02   9.473354e+01
  -1.407500e+02  -4.400079e+01
   1.112176e-01  -6.892895e+01
   1.023778e+02   3.648843e+01
  -2.596230e+01   7.715918e+01
  -2.055836e+02   9.078315e+01
  -1.923707e+02  -1.412675e+02
  -7.368795e+01  -1.393289e+02
   8.038049e+01  -1.833935e+02
   9.615667e+01  -2.450553e+01
   1.022743e+02   4.183592e+01
  -4.633745e+01  -8.114196e+01
  -4.741445e+01  -9.495729e+01
   7.458604e+01  -1.231979e+02
   1.753612e+02  -3.643112e+01
   1.837092e+02   1.569013e+02
  -1.164491e+00   2.441177e+02
  -1.542473e+02   1.213538e+02
  -1.868884e+02   6.637930e+01
  -8.489293e+00  -1.359542e+02
   4.193315e+01  -6.021653e+01
   6.219560e+01   1.223343e+01
   5.209731e+01  -1.870996e+01
  -7.307063e+01   2.126739e+01
   3.629720e+01  -9.982303e+00
   8.855290e+01   5.340250e+01
   8.818869e+01   6.327034e+01
   3.498901e+01   1.779000e+02
  -1.267724e+02   1.869156e+02
  -1.742290e+02   2.004530e+01
  -2.084920e+02  -1.420825e+02
   3.172920e+01  -1.977111e+02
   9.744513e+01  -1.458799e+02
   9.528833e+01  -7.868567e+01
   1.088098e+02   4.529715e+01
   1.025328e+02   5.859980e+01
   2.141535e+01   2.305998e+01
   1.217116e+02   2.555023e+01
   5.408201e+01   3.385149e+01
  -1.077577e+01   8.348131e+01
  -9.893947e+01  -5.487525e+00
  -1.286899e+02  -2.434712e+01
   4.079666e+01  -1.029396e+02
   1.874374e+02  -1.230093e+02
   2.213289e+02   8.424995e+01
   9.557038e+01   1.805541e+02
  -1.222232e+02   2.231205e+02
  -2.816953e+02   3.761107e+01
  -2.069132e+02  -1.097065e+02
  -1.302885e+02  -2.186612e+02
   7.029500e+01  -6.471676e+01
   9.082654e+01  -1.246613e+02
   7.035013e+01  -7.734551e+01
   4.116354e+01  -1.373648e+02
   9.806512e+01  -4.080517e+01
   1.380586e+02   3.884224e+01
   1.266589e+02   1.467994e+02
   2.931329e+01   2.065816e+02
  -1.120777e+02   1.837463e+02
  -1.730812e+02  -2.252608e+01
  -1.359552e+02  -1.440120e+02
  -2.093350e+01  -1.678082e+02
   5.516969e+01  -7.600056e+01
   8.112048e+01  -3.912088e+01
  -1.675001e+01   1.459126e+02
  -6.740741e+01   3.472318e+01
  -4.714453e+00  -2.561658e+01
   8.579358e+01   6.079510e+01
   8.718670e+01   3.455784e-01
  -5.646768e+01   3.262551e+01
  -1.569966e+02   7.061226e+01
  -1.501149e+02  -3.601836e+01
  -3.041811e+01  -6.821188e+01
   8.254370e+01  -5.202510e+01
   1.340843e+02  -4.760795e+01
   5.302672e+01   3.154923e+01
  -7.356462e+01   6.962763e+01
  -5.704327e+01  -5.463134e+00
  -6.586296e+01  -4.177932e+01
   9.003547e+01  -1.622613e+02
   6.618153e+01   2.006474e+00
   3.355672e+01   8.190675e+01
   4.773885e+01   5.993145e+01
   1.086578e+02  -7.661690e-01
   6.537069e+01   1.928326e+01
   1.140304e+02   1.061347e+02
  -6.250610e+01   1.563620e+02
  -1.230686e+02   1.732941e+02
  -1.708439e+02   1.358896e+02
  -1.522358e+02  -1.692020e+02
   5.949167e+00  -8.722388e+01
   1.157307e+02  -3.691603e+01
   5.724249e+01   3.588462e+01
  -5.020541e+01   1.585987e+01
  -1.539153e+02  -6.225810e+00
  -6.232565e+01  -1.069514e+02
   1.094570e+02  -1.074863e+02
   1.557073e+02  -3.598540e+01
   1.657194e+02   5.185362e+01
   1.185334e+01   8.551084e+01
  -2.649620e+01   4.226968e+01
  -4.788190e+01   2.902750e+01
   1.782019e+01  -2.071132e+01
   9.646151e+01   1.532540e+01
   3.387967e+01   8.557189e+01
  -1.504752e+02   1.701867e+02
  -2.071320e+02   1.090919e+02
  -8.798243e+01  -1.019976e+02
  -1.543297e+01  -1.664660e+02
   5.941990e+01  -1.661396e+02
   1.231775e+02   2.821982e+01
  -2.061794e+01   1.353857e+02
   7.536339e+00   1.565699e+02
  -4.355948e+01  -2.990974e+01
  -9.742313e+00  -3.400719e+01
   4.637744e+00  -4.398723e+01
   2.293016e+00  -7.746862e-01
  -4.528426e+01   1.766344e+01
  -3.261077e+01  -4.381904e+01
  -6.467559e+01  -1.158986e+02
   4.417696e+01  -7.229586e+01
   1.394242e+02   8.013876e+01
   1.294889e+02   1.042029e+02
   3.031593e+01   7.009995e+01
  -1.207563e+02  -6.866640e+00
  -1.158802e+02   3.077050e+01
  -2.360407e+01  -1.635531e+01
  -2.033505e+01   4.551981e+01
   5.515072e+01   6.244874e+00
   3.560298e+01  -2.491964e+01
  -7.275602e+01  -3.364696e+01
   8.279117e+01  -7.960362e+01
   1.213630e+02   3.189903e+01
  -1.452795e+01   1.558237e+02
  -1.275033e+02   1.346066e+02
  -2.034335e+02   7.370988e+01
  -1.589021e+02  -7.764756e+01
  -6.003587e+01  -1.733420e+02
   6.723595e+01  -1.520003e+02
   1.045755e+02  -9.731887e+01
   6.907464e+01   9.948646e+00
   1.595968e+01   5.105407e+01
   2.542350e+01   4.049265e+00
   2.212934e+01  -8.919264e+00
   5.372298e+01   7.516899e+01
   5.081292e+01   9.560118e+01
  -3.249141e+01   3.190047e+01
  -5.931745e+01  -3.781601e+01
  -8.962596e+01  -9.858002e+01
  -6.179461e+00  -7.480796e+01
   6.351850e+01  -9.082746e+00
   1.512943e+02   7.443836e+01
   5.276578e+01   9.857200e+01
  -5.307941e+01   6.674801e+01
  -1.635896e+02  -6.803364e+00
   3.320714e+01  -7.270100e+01
  -4.315900e+00  -2.361706e+01
   4.997333e+01  -3.238348e+01
  -4.143849e+01  -5.559522e+01
  -2.415207e+01  -3.480169e+01
  -3.468670e+01  -2.659018e+01
   7.244631e+01  -9.870023e+00
   1.496241e+02   3.247274e+01
   6.988855e+01   1.964170e+01
  -4.038103e+01   7.699970e+01
  -7.755123e+01   9.687220e+01
  -9.516836e+01  -3.982179e+00
   3.321086e+00  -2.741737e+00
  -1.224131e+00  -5.256450e+01
  -8.112096e+00   5.972301e+01
  -7.086107e+00   3.925973e+01
   1.795934e+01   9.024652e+01
  -4.728946e+01  -2.359873e+00
  -5.753359e+01   1.622668e+01
   2.711007e+01   2.929838e+01
  -1.478018e+01  -6.425052e+00
   3.269015e+00   4.356574e+01
  -4.492330e+01   8.820752e+00
   2.150157e+01  -6.987114e+01
  -5.287921e-01   1.386153e+01
   4.764573e+01   4.698786e+01
   2.556145e+01   9.089277e+01
  -1.087269e+02  -6.806318e+01
   1.099790e+01  -3.142456e+01
   2.048549e+01  -7.772736e+01
   7.974279e+01  -6.756869e+01
   7.876937e+01   7.862780e+00
   8.263821e+00   4.736296e+01
   2.816430e+01   8.689693e+01
  -5.740055e+01   2.129214e+01
  -6.191188e+01   4.527756e+01
  -3.918721e+01   6.463184e+01
   5.463960e+01  -1.894181e+01
  -6.165800e+01   5.098654e+01
  -1.219678e+02  -4.769249e+00
