
 $NMID
 id='ANONYMOUS ', fmtdat='(2E16.6)'
 volume=1.0
 tramp=1.0
 $END
  -3.445828e+03   1.427029e+01
  -2.268418e+03  -1.840405e+03
   8.123529e+01  -2.253237e+03
   1.422534e+03  -1.253661e+03
   9.826999e+02  -3.240724e+01
  -8.277966e+01   2.903883e+02
  -4.491871e+02  -1.633605e+02
  -4.264195e+01  -7.284043e+02
   5.409366e+02  -6.482996e+02
   7.724332e+02  -8.293634e+01
   4.344397e+02   5.297677e+02
  -2.185218e+01   7.315943e+02
  -3.804582e+02   2.331549e+02
  -2.561685e+02  -4.885755e+02
   1.848630e+02  -5.843270e+02
   4.648742e+02  -7.688132e+01
   2.969182e+02   4.767270e+02
  -1.584331e+02   6.368985e+02
  -5.087071e+02   2.822742e+02
  -4.468438e+02  -2.228947e+02
  -9.502621e+01  -3.685682e+02
   1.605641e+02  -3.020955e+02
   5.978408e+01  -7.927486e+01
  -1.742293e+02  -7.459992e+01
  -2.947705e+02  -2.921252e+02
  -8.194004e+01  -4.131479e+02
   4.075793e+02  -2.625763e+02
   6.937259e+02   1.501989e+02
   2.826812e+02   3.667244e+02
  -3.485220e+02   2.024682e+02
  -5.568691e+02  -1.480986e+02
  -2.347493e+02  -4.032770e+02
   2.846084e+02  -3.622032e+02
   4.785558e+02  -1.337434e+02
   3.582377e+02   1.230318e+02
   7.957549e+01   3.245850e+02
  -7.075513e+01   2.518652e+02
  -2.801880e+01  -7.519884e+01
   1.729470e+02  -2.212753e+02
   2.812577e+02   1.026123e+02
   7.943919e+01   5.896759e+02
  -2.538624e+02   4.828442e+02
  -3.811286e+02   7.356147e+01
  -1.454556e+02  -3.721260e+02
   1.335172e+02  -2.164481e+02
   2.031397e+02   2.567710e+02
  -7.526556e+01   4.380683e+02
  -4.365969e+02   6.932764e+01
  -5.408373e+02  -3.645115e+02
  -1.944768e+02  -5.049987e+02
   3.063162e+02  -3.053489e+02
   5.615676e+02   5.541586e+01
   3.860071e+02   2.765124e+02
  -6.111988e+01   2.665055e+02
  -3.510502e+02   6.818471e+01
  -2.573677e+02  -2.482638e+01
   2.056377e+01  -7.988695e+01
   6.989058e+01   6.819153e+01
  -1.230649e+02   7.858380e+01
  -2.944744e+02  -6.602537e+01
  -1.360868e+02  -1.981868e+02
   1.146726e+02  -2.589712e+02
   3.160697e+02  -1.587003e+02
   2.700464e+02   1.447737e+02
  -3.542243e+01   3.749412e+02
  -2.955050e+02   3.055586e+02
  -3.458362e+02   1.582258e+02
  -2.561105e+02  -1.441823e+02
  -6.436671e+01  -3.158549e+02
   7.840057e+01  -2.962785e+02
   6.512037e+01  -1.742593e+02
  -8.730126e-01  -8.176720e+01
   1.466577e+02  -1.616046e+02
   2.709221e+02  -7.228232e+01
   2.420179e+02   9.031371e+01
   1.497315e+02   2.583999e+02
  -7.906115e+01   2.509689e+02
  -1.756489e+02  -3.970271e+00
  -1.406171e+02  -2.169055e+02
   3.789218e+01  -2.529334e+02
   2.639838e+02  -3.792682e+01
   3.145622e+02   1.952127e+02
   1.256275e+02   2.854605e+02
  -7.362186e+01   2.635466e+02
  -1.966996e+02   1.736235e+02
  -1.959079e+02   6.214252e+01
  -1.664541e+02   4.746590e+01
  -2.654292e+02   3.907754e+00
  -3.862114e+02  -1.050909e+02
  -3.235320e+02  -2.903236e+02
  -3.252113e-01  -4.163703e+02
   4.135243e+02  -3.886577e+02
   4.537106e+02  -2.047738e+02
   2.882207e+02   1.112937e+02
   3.149166e+01   2.261901e+02
  -8.805360e+01   1.958788e+02
  -2.937526e+01   8.514746e+00
   1.378452e+02  -5.848219e+01
   1.798134e+02   7.676605e+00
  -2.622482e+01   2.362126e+02
  -1.175722e+02   9.588652e+01
  -6.334331e+01  -7.891019e+01
  -8.388419e+00  -1.433481e+02
   2.096333e+02  -2.277288e+01
   1.475480e+02   2.352269e+02
  -3.517311e+01   3.335075e+02
  -2.187822e+02   2.072411e+02
  -3.342124e+02  -3.249614e+01
  -3.249686e+02  -2.463190e+02
  -5.193065e+01  -2.975543e+02
   7.593881e+01  -1.832370e+02
   2.224069e+02  -2.706112e+01
   7.176120e+01  -2.200369e+01
  -7.123053e+01  -7.437479e+01
  -4.292350e+01  -8.804420e+01
   8.272355e+01  -4.837733e+01
   1.872353e+02   5.297725e+01
   5.333501e+01   5.528242e+01
  -5.822335e+01  -2.549991e+01
  -3.275070e+01   1.383509e+01
   1.346524e+02  -6.778642e+01
   2.909235e+02   5.714512e+01
   2.699787e+02   2.009201e+02
   4.962516e+01   2.173687e+02
  -1.888011e+02   2.632424e+02
  -2.621381e+02   1.067952e+02
  -1.356419e+02  -2.189601e+01
   4.855661e+01  -8.647606e+01
   1.298541e+01   4.289055e+01
  -6.621574e+01   8.747788e+01
  -2.062078e+02  -4.227305e+00
  -1.747427e+02  -7.236752e+01
  -4.170589e+01  -2.436687e+02
   6.853452e+01  -1.432994e+02
   1.677715e+02   5.270065e+00
   4.819093e+01   8.389637e+00
  -1.111973e+01  -1.460033e+01
  -6.761501e+00  -1.656582e+02
   6.647187e+01  -1.149981e+02
   2.525122e+02  -7.214565e+01
   2.153461e+02   1.240902e+02
  -2.467477e+01   1.677457e+02
  -2.130595e+02   1.606088e+02
  -1.496353e+02   4.616204e+01
  -7.348233e+01  -1.658636e+02
   1.133357e+02  -1.023453e+02
   5.249379e+01   4.427771e+01
   1.479470e+01  -2.235267e+00
  -4.133847e+01   1.078361e+01
   2.065267e+00  -3.571100e+01
   1.072383e+02   2.944363e+01
   9.003588e+01   1.005589e+01
   2.625543e+01   1.975396e+02
  -1.526409e+02   1.640676e+02
  -2.464323e+02   2.707035e+01
  -2.428068e+02  -1.470687e+02
  -9.297593e+01  -2.134839e+02
   1.107247e+02  -1.270473e+02
   1.007125e+02  -3.322161e+00
   1.214330e+02   6.598435e+01
   1.469587e+00   4.777165e+00
   8.501217e+01  -7.334778e+00
   7.087051e+01  -3.573995e+01
   1.135647e+02   9.175944e+01
  -5.665016e-01   1.150439e+02
  -1.121846e+02   2.605602e+01
  -6.003563e+01  -4.135736e+01
   5.878034e+01  -2.070328e+02
   9.315438e+01  -1.488808e+02
   2.234358e+02   6.491734e+01
   8.518603e+01   1.892223e+02
  -1.111059e+02   2.342201e+02
  -2.064474e+02   1.161944e+02
  -2.536130e+02  -6.645137e+01
  -1.101708e+02  -1.568309e+02
   3.705609e+01  -1.471345e+02
   9.830449e+01  -8.485623e+01
   6.729540e+01  -5.754982e+01
   9.425885e+00  -1.268068e+02
   9.669498e+01  -9.696281e+01
   1.103374e+02   4.036280e+01
   1.147040e+02   9.349277e+01
   2.644306e+01   2.236797e+02
  -6.584638e+01   1.780556e+02
  -9.892112e+01  -2.830653e+01
  -1.185453e+02  -1.191339e+02
   1.474136e+01  -1.833799e+02
   6.466794e+01  -6.901649e+01
   6.626127e+01   3.243955e+01
   4.951281e+01   4.001357e+01
  -2.343619e+01   3.944387e+01
   1.593032e+01   8.768618e+00
   1.120887e+02  -1.183833e+01
   3.101738e+01   7.345680e+01
  -4.614167e+01   3.626325e+00
  -1.228481e+02   5.502648e+01
  -1.478738e+02  -7.232385e+01
   5.101006e+01  -1.185146e+02
   1.157617e+02  -1.216391e+02
   1.461821e+02   1.537766e+01
   6.072224e+01   4.015281e+01
  -7.932152e+01   3.790445e+01
  -1.038421e+02  -3.245066e+01
  -1.053370e+01  -6.573702e+01
   5.348070e+01  -8.725062e+01
   9.338200e+01  -1.049381e+01
   1.062880e+02   3.319582e+01
   3.989482e+01   6.821078e+01
   4.410041e+01  -2.367090e+01
   7.711935e+01  -4.573219e+01
   2.513959e+01   8.407307e+01
  -2.006892e+01   1.648264e+02
  -8.998820e+01   1.483737e+02
  -1.686849e+02   8.330646e-01
  -1.723867e+02  -9.789297e+01
   2.162400e+01  -1.490662e+02
   1.068611e+02  -9.754596e+01
   4.769787e+01   1.201875e+01
  -7.631804e+01   1.763007e+01
  -8.442572e+01  -2.657675e+01
  -9.280622e+01  -1.306947e+02
   8.004833e+01  -6.955824e+01
   1.514430e+02  -6.816426e+01
   1.714603e+02   6.151839e+01
   2.724916e+01   2.874814e+01
  -3.849121e+01   3.979765e+01
   4.138483e+00  -2.269762e+01
   6.123911e+01  -2.092615e+01
   8.283884e+01  -1.513813e+01
   7.089946e+01   8.551038e+01
  -1.041584e+02   1.439550e+02
  -1.215959e+02   7.167720e+01
  -1.076164e+02  -3.524555e+01
   1.373315e+01  -2.443084e+02
   6.300749e+01  -1.886544e+02
   1.115278e+02  -1.018415e+01
   4.574694e+01   9.967164e+01
  -4.275213e+01   9.861324e+01
  -6.153365e+01   6.615504e+01
   1.632491e+01  -2.240282e+01
   1.148291e+01  -1.947253e+01
   7.171843e+00   1.723822e+01
  -6.061057e+01  -6.643063e+00
  -7.162276e+01  -1.029753e+02
  -3.731904e+01  -1.130836e+02
   7.484416e+01  -5.965133e+01
   1.048528e+02   5.205030e+01
   9.978655e+01   6.404255e+01
  -1.716156e+01   2.794853e+01
  -8.657022e+01   2.626528e+01
  -1.192375e+02  -5.223969e+01
  -1.960948e+01   2.014944e+01
   4.505595e+00  -3.445405e+01
   7.907723e+00  -3.905618e+01
  -3.897321e+01  -1.458209e+01
  -3.369656e-01   4.404793e+01
   6.554633e+01  -8.290074e+00
   7.862248e+01  -1.283553e+00
   1.254397e+01   1.149559e+02
  -8.634419e+01   9.046936e+01
  -1.856913e+02   7.315938e+00
  -2.235387e+02  -6.548102e+01
   1.691582e+00  -1.629060e+02
   1.461598e+02  -1.584587e+02
   9.836705e+01  -3.820889e+01
   1.177495e+02  -3.725252e+01
   4.094711e+01   2.438990e+01
   1.489911e+01  -2.989095e+01
   3.508097e+01   1.465271e+01
   2.524782e+01  -1.567694e+01
   5.495802e+01   5.984350e+01
  -8.441985e+01   1.306111e+02
  -8.604998e+01  -2.492900e+01
  -7.261586e+01  -1.081141e+02
   2.149992e+01  -1.466901e+02
   7.523751e+01  -6.837506e+01
   4.931397e+01   7.541732e+01
   6.963352e+01   5.035657e+01
  -6.433030e+01   7.631537e+01
  -1.170558e+02   5.563682e+01
  -6.775562e+01  -1.078907e+02
   1.946999e+01  -1.400085e+01
   3.744009e+01  -3.870849e+01
  -4.112885e+01   2.115119e+01
  -3.499967e+01  -2.441570e+01
   1.075317e+01  -3.992352e+01
   9.436528e+00  -4.122934e+01
   9.149669e+01   4.442104e+01
   1.079012e+02  -4.602594e+01
  -3.042594e+01   1.320090e+02
  -7.617983e+01   1.236613e+02
  -3.547640e+01   8.547085e+01
  -3.444734e+01  -7.841596e+01
   5.582377e+01  -3.712566e+01
   4.993785e+00  -1.935095e+01
   4.971183e+01   4.882694e+01
   3.452760e+01   2.363931e+01
  -3.047301e+01  -9.375393e+00
  -6.431559e+01  -4.901742e+01
  -9.796349e+00   1.550232e+01
   9.847574e+00  -2.222285e+01
  -6.052030e+00   3.540115e+01
   2.255324e+01  -5.692606e+01
  -8.323707e+00   6.535435e+01
   3.853176e+01  -2.726055e+01
   6.297514e+01   3.002333e-01
  -3.329389e+01   4.645734e+01
  -4.452950e+01   5.313770e+01
  -8.785666e+01  -2.621519e+00
   2.822874e+01  -3.626519e+01
   7.278105e+01  -2.525034e+01
   7.617199e+01   1.500855e+01
  -2.569496e+01   2.752272e+01
  -3.853254e+01   4.275183e+01
  -5.823464e+01   3.348051e+01
   7.501256e+00   3.818667e+01
   4.509498e+00  -8.972793e-01
   7.446755e+01   1.503165e+01
  -8.054713e+01   3.020174e+01
  -1.255355e+02   4.574598e+01
