
 $NMID
 id='ANONYMOUS ', fmtdat='(2E16.6)'
 volume=1.0
 tramp=1.0
 $END
   1.945161e+03  -3.887927e+00
   1.341773e+03   9.830646e+02
   8.279156e+01   1.247259e+03
  -6.635655e+02   8.653734e+02
  -7.039777e+02   2.717304e+02
  -1.570979e+02  -6.724146e+01
   1.656876e+02   3.798387e+01
   3.551268e+01   3.169452e+02
  -2.870638e+02   3.421171e+02
  -3.836681e+02   1.131422e+02
  -2.599262e+02  -2.875672e+02
  -3.893576e+01  -4.151665e+02
   1.365456e+02  -1.868766e+02
   1.205542e+02   2.691364e+02
  -6.501790e+01   3.179221e+02
  -2.235034e+02   3.504352e+01
  -1.683726e+02  -3.320180e+02
   7.417570e+01  -3.573398e+02
   2.553207e+02  -1.890612e+02
   2.884398e+02   7.627385e+01
   1.348264e+02   2.318840e+02
  -5.524702e+01   1.586315e+02
  -1.018901e+01   8.177778e+01
   1.158944e+02   4.848576e+01
   1.156591e+02   1.570266e+02
  -5.566636e+01   2.648674e+02
  -3.107712e+02   7.807995e+01
  -4.160025e+02  -1.480837e+02
  -1.526828e+02  -2.107047e+02
   3.110040e+02  -9.765206e+01
   3.256467e+02   6.761815e+01
   6.863762e+01   2.644730e+02
  -1.591846e+02   2.470006e+02
  -3.055355e+02   5.744949e+01
  -2.496096e+02  -1.480716e+02
  -8.852229e+01  -2.356837e+02
   2.659543e+01  -2.257988e+02
  -1.482751e+01   7.912717e+01
  -1.308107e+02   7.864609e+01
  -1.205398e+02  -1.033494e+02
  -5.669405e-01  -2.702701e+02
   1.312751e+02  -2.647106e+02
   1.772322e+02   5.183899e+00
   1.161643e+02   1.385438e+02
  -7.333463e+01   8.022532e+01
  -5.764478e+01  -1.477644e+02
   5.527559e+01  -2.448099e+02
   2.353433e+02  -4.584005e+01
   3.040458e+02   2.649277e+02
   9.033544e+01   3.628625e+02
  -1.701475e+02   2.485698e+02
  -3.224788e+02  -2.294353e+01
  -2.279884e+02  -1.220584e+02
   4.287260e+01  -1.295183e+02
   1.386852e+02  -7.188309e+01
   1.549975e+02  -2.049741e+01
  -8.735994e-01  -3.538210e+01
  -9.657997e+00   1.040876e+01
   4.499771e+01   3.015553e+00
   1.610307e+02   1.115347e+01
   5.932299e+01   9.195649e+01
  -7.823261e+01   1.472240e+02
  -2.255246e+02   8.930479e+01
  -2.471241e+02  -5.421114e+01
   2.896885e+01  -2.186856e+02
   2.077037e+02  -3.028563e+02
   2.868070e+02  -7.537343e+01
   1.455478e+02   5.958311e+01
  -2.790963e+01   2.267787e+02
  -1.546105e+01   2.342580e+02
   7.701893e+01   6.691735e+01
  -3.547950e+01   8.973387e+01
  -1.217668e+02   5.596824e+01
  -1.890623e+02  -4.188544e+00
  -1.987620e+02  -9.451380e+01
   1.912333e+01  -1.360279e+02
   6.714020e+01  -1.566892e+02
   9.840869e+01   4.995115e+01
   1.698928e+02   1.220396e+02
  -5.246663e+01   6.508171e+01
  -1.751128e+02   2.927187e+01
  -1.902383e+02  -7.308403e+01
  -1.197732e+02  -2.370448e+02
   5.526811e+00  -1.917942e+02
   7.338521e+01  -9.779461e+01
   1.447301e+02  -5.943292e+01
   1.202920e+02  -5.024875e+01
   1.915451e+02  -4.467210e+01
   3.054919e+02   5.040790e+01
   2.068378e+02   1.647780e+02
  -8.014796e+00   2.739689e+02
  -3.080662e+02   2.717856e+02
  -3.389764e+02   8.971752e+01
  -2.127097e+02  -8.793987e+01
  -2.522292e+01  -1.387646e+02
   1.161053e+02  -9.801633e+01
   4.506849e+01  -2.027411e+01
  -1.172274e+02   2.439898e+01
  -8.451191e+01  -5.748483e+01
  -7.366519e+00  -8.677425e+01
   1.019857e+02  -6.304874e+01
   7.373941e+01   1.233713e+02
  -2.243161e+01   7.447335e+01
  -8.034864e+01  -1.571278e+01
  -1.180620e+02  -1.254044e+02
   5.927266e+01  -2.106759e+02
   1.254765e+02  -1.382921e+02
   2.043128e+02   4.930099e+01
   2.230896e+02   1.926807e+02
   5.414942e+01   2.425940e+02
  -9.816093e+01   1.088331e+02
  -1.281093e+02  -3.934216e+01
  -3.003710e+01   9.120443e+00
   2.148312e+01  -2.023477e+01
  -2.909777e+01   7.135982e+01
  -3.883564e+01   6.875785e+01
  -9.308142e+01  -4.750414e+00
  -3.595354e+01  -1.743923e+01
   3.811595e+01   4.343233e+01
   4.453674e+01   8.337639e+01
  -1.278896e+02   1.376048e+02
  -2.336842e+02  -3.945371e+00
  -1.483354e+02  -1.004407e+02
   2.503943e+01  -1.896278e+02
   1.508346e+02  -1.931853e+02
   1.639885e+02  -6.940089e+01
   1.092001e+02   1.014676e+02
  -1.966084e+01   1.239902e+01
  -5.321262e+01  -4.038416e+01
  -7.160897e+01  -3.065185e+01
   1.158909e+02   6.336246e+00
   1.308426e+02   8.328508e+01
   5.140348e+01   8.885682e+01
  -1.026622e+02   8.947468e+01
  -3.263414e+01  -4.690116e+01
   2.566688e+01  -4.884370e+01
   9.036527e+01   5.607160e+00
   6.298966e+00   8.561821e+01
  -7.917159e+01   5.802891e+01
  -1.004670e+02   2.334504e+01
  -1.131277e+02  -1.144697e+02
   5.032146e+01  -1.652446e+02
   7.611561e+01  -1.318865e+02
   1.068716e+02  -3.906800e+01
   4.236230e+01   8.734448e+01
  -5.264757e+01   6.137017e+01
  -4.656653e+01   3.070839e+01
   2.143184e+01  -2.995403e+01
   6.513207e+00  -4.922450e+01
  -2.402426e+01   8.799777e+01
  -8.739385e+01   4.438037e+01
  -1.023892e+02  -5.352265e+01
  -4.598555e+01  -1.345956e+02
   1.228353e+02  -9.367041e+01
   1.317185e+02  -3.678049e+01
   8.397027e+01   1.231396e+02
   2.290793e+01   1.565222e+02
  -3.654832e+01   1.092433e+02
  -9.332856e+01  -5.305759e+01
  -6.473359e+01  -3.264332e+01
  -2.474290e+01   6.234919e+00
  -2.400617e+01  -3.538393e+01
  -6.515981e+01  -8.923686e-01
  -6.253104e+00  -5.144768e+01
   2.057041e+01  -7.737823e+01
   1.641269e+02  -7.928511e+01
   5.778796e+01   2.785783e+01
   3.202769e+01   1.614179e+02
  -1.076878e+02   9.120714e+01
  -1.678079e+02  -1.741603e+01
  -5.849161e+01  -1.569291e+02
   6.556418e+01  -1.403911e+02
   2.081057e+02   1.375229e+01
   2.320016e+02   6.452164e+01
   1.254609e+02   9.356704e+01
  -9.590766e+00   9.244599e+01
  -6.993784e+01   8.086357e+01
  -2.693080e+01   4.219359e+01
  -8.291618e+01   1.261700e+02
  -6.042437e+01   7.449846e+01
  -6.556090e+01  -4.518216e+00
  -6.933870e+01  -9.618695e+01
  -1.331572e+01  -1.393053e+02
   7.566893e+01  -1.080646e+02
   1.049535e+02   2.041236e+01
   1.087767e+02   1.046718e+02
  -2.334981e+00   1.470302e+02
  -6.903390e+01   6.131064e+01
  -8.413021e+01  -1.548766e+01
  -4.402137e+01  -9.516317e+00
  -6.092461e+00  -4.132323e+01
  -2.230770e+01  -2.780324e+01
  -6.729576e+01  -1.728368e+01
  -6.124014e+01  -4.433038e+01
   1.534015e+01  -2.552310e+01
   1.241119e+02   2.185061e+00
   9.529528e+00   8.323392e+01
  -3.406570e+01   3.727926e+01
  -9.600439e+01   1.562860e+01
  -6.970658e+01  -7.672336e+01
  -8.652807e+01  -9.572326e+01
   5.532441e+01  -4.354169e+00
   2.636766e+01   5.739339e+01
  -2.444597e+01   4.675848e+01
  -8.978613e+01   3.175969e+01
   8.929673e+00   5.718697e+01
  -5.845492e+01  -3.436519e+01
  -3.086355e+01  -7.474552e+01
  -8.933973e+01  -5.376005e+01
  -4.337450e+01   1.169481e+01
  -5.444032e+01  -1.233557e+02
   2.624432e+01  -7.654850e+01
   5.055871e+01  -1.273287e+02
   1.102519e+02  -3.093258e+01
   8.643397e+01   3.891758e+01
   7.556690e-01   8.179879e+01
  -9.919704e+01   8.653544e+01
   6.650208e+00   2.922569e+01
   6.231614e+01  -4.554952e+01
   1.303328e+02   1.542971e+01
   2.068095e+01   8.174603e+01
  -2.952952e+01   7.238563e+01
  -1.037478e+02  -4.207479e+00
  -1.241679e+02  -7.307489e+01
   5.360883e+01  -6.103524e+01
   4.738074e+01  -7.511586e+01
   5.443925e+01  -3.662451e+01
   6.815935e+00   4.097563e+01
  -6.512164e+01  -3.693838e+01
  -5.122933e+01  -1.245583e+02
   9.853730e+01  -1.132560e+02
   1.113621e+02  -2.378425e+01
   1.034813e+02   7.502251e+01
   2.491186e+01   1.278560e+02
  -4.755739e+01   4.973050e+01
  -8.369590e+01   3.069221e+01
  -9.364702e+01  -1.146361e+02
  -4.927073e+01  -1.010874e+02
   5.358404e+01   3.202835e+01
   3.837832e+01   5.450009e+01
  -4.772673e+01   5.052010e+00
   2.221863e+01   2.371644e+00
   7.004700e+01  -5.548029e+00
   8.294235e+01   9.647387e+01
   8.571732e+00   5.483162e+01
  -3.913159e+01  -1.595086e+01
  -8.005376e+01   1.019665e+01
  -7.166938e+01  -4.623716e+01
   4.628253e+01  -7.051858e+01
   7.544432e+01  -5.666670e+01
   5.000167e+01  -9.738691e+00
   2.054383e+01   2.306129e+01
  -1.173855e+01   1.021156e+01
  -2.848828e+01   3.793263e+01
   4.996174e+01   6.319695e+00
   1.311052e+01  -4.491670e+01
  -6.459087e+01  -4.756979e+00
  -1.087461e+02  -5.686900e-01
  -2.154659e+01  -4.023736e+01
   1.010391e+02  -9.426232e+01
   1.505125e+02  -9.602061e+01
   1.118793e+02   9.766829e+00
   1.784423e+01   1.104201e+02
  -5.414911e+01   1.245376e+02
  -3.330512e+01   5.776247e+01
  -2.925036e+01  -9.377664e+00
  -7.758633e+01  -4.045599e+01
  -5.700698e-01  -8.643190e+00
  -1.571356e+00   2.915743e+01
   8.971673e+00  -9.640287e+01
  -2.974156e+01  -4.963910e+01
   4.226847e+00  -5.400251e+00
   7.600900e+01   1.253938e-01
   5.970411e+01   6.772079e+01
  -1.096787e+01   3.646502e+01
  -4.430191e+01   3.800187e+01
  -2.007411e+01  -6.729426e+01
   2.331237e+01  -1.290874e+02
   4.474250e+01  -7.147923e+01
   8.384743e+01   1.137490e+01
  -1.611522e+01   3.797631e+01
  -2.992844e+01   5.606628e+01
  -8.761865e+00   5.566968e+01
   1.718647e+01  -2.027862e+01
  -6.458770e+00  -2.102059e-01
   1.391667e+00   3.029614e+00
  -1.281153e+02   4.310540e+01
  -9.123590e+01   3.046125e+01
  -6.058030e+01   3.317615e+00
  -1.082656e+01  -8.685261e+00
   3.427181e+01  -3.030613e+01
   4.490213e+01  -2.293028e+01
  -1.023069e+01   5.860710e+01
   9.725413e+00   9.412336e+01
  -3.806731e+01  -3.290817e+01
  -1.185317e+02  -7.045214e+01
   1.388808e+01  -3.718636e+01
  -1.467781e+01  -2.163570e+01
   8.681438e+00  -3.498835e+00
   1.886813e+01  -2.947707e+00
  -2.891044e+01  -1.496560e+01
  -9.622811e+00  -1.785963e+01
   3.465897e+01   3.775147e+01
  -4.606360e+01   1.192610e+00
   1.194663e+01   1.362010e+01
   6.244504e+00   2.839608e+01
   4.691162e+00  -3.091134e+01
   7.335504e+01  -1.225257e+01
   3.849553e+01   7.597845e+01
   1.796622e+01   1.685801e+01
  -4.108271e+01   5.257048e+01
   7.227188e+00   6.364446e+01
  -1.239300e+01  -2.450518e+01
  -3.498222e+00   8.093944e+00
   4.714255e+01   3.461272e+00
  -4.307464e+00   2.994523e+00
  -2.747732e+01  -3.546397e+01
  -2.115811e+01  -1.462147e+01
   2.437372e+01  -9.937696e+01
   4.331121e+01   2.312869e+01
