
 $NMID
 id='ANONYMOUS ', fmtdat='(2E16.6)'
 volume=1.0
 tramp=1.0
 $END
  -7.655963e+02   1.629771e+01
  -4.247269e+02  -4.543937e+02
   9.188612e+01  -4.500407e+02
   4.521170e+02  -1.624683e+02
   2.533137e+02   8.956716e+01
  -1.245974e+02   9.269205e+01
  -7.590646e+01  -6.318054e+01
  -3.971950e+01  -1.744506e+02
   1.153794e+02  -1.540065e+02
   1.749706e+02  -2.601178e+01
   8.877690e+01   1.749723e+02
  -7.055968e+00   1.595616e+02
  -1.027806e+02  -3.249449e+01
  -7.534252e+01  -5.966728e+01
   6.898328e+01  -1.053778e+02
   1.041169e+02   5.630974e+01
   6.940454e+01   1.326292e+02
  -4.973969e+01   9.711294e+01
  -1.101941e+02   5.606705e+00
  -6.458595e+01  -1.419181e+02
  -2.196977e+01  -5.874260e+01
   2.429657e+01  -8.944634e+01
   5.535846e+01  -2.760148e+01
  -4.480670e+00   5.274550e+01
  -7.252647e+01  -1.289755e+00
  -4.130466e+01  -8.048652e+01
   7.159523e+01  -3.708278e+01
   1.396676e+02   2.736198e+01
   8.824168e+01   8.697480e+01
  -9.990875e+01   5.758457e+01
  -1.282226e+02   1.417309e+01
  -8.455000e+01  -6.394385e+01
   8.533887e+01  -5.223734e+01
   9.190912e+01  -7.740012e+01
   7.421629e+01   1.036212e+02
  -1.008284e+01   1.131766e+02
  -6.007112e+01   1.187190e+02
  -5.829085e+01  -3.260730e+01
   5.730300e+01  -5.814957e+01
   6.061914e+01   2.035129e+00
   3.208951e+01   1.646143e+02
  -1.907955e+01   1.135988e+02
  -1.183870e+02   3.604537e+01
  -4.081843e+01  -1.018799e+02
   4.872968e+01  -3.335617e+01
   6.894871e+01   7.002205e+01
  -5.108586e+00   8.450145e+01
  -1.456965e+02   5.012868e+01
  -6.086613e+01  -1.423433e+01
  -1.514472e+01  -1.119277e+02
   7.760829e+01  -8.801354e+01
   7.897490e+01   8.670796e+00
   1.025703e+02   8.336559e+01
  -7.071945e+01   7.306000e+01
  -4.464712e+01   1.867480e+01
  -2.017148e+01  -6.646848e+00
   4.127320e+01  -2.399243e+01
   7.664896e+01  -5.768881e+00
  -8.080525e-01   1.872535e+01
  -4.566036e+01  -3.864905e+00
  -3.359287e+01  -3.491619e+01
   5.122121e+01  -2.014774e+01
   9.053035e+01  -1.064231e+01
   5.822301e+01  -2.522835e+01
  -1.143156e+01   1.035413e+01
  -3.757272e+01   1.822422e+01
  -7.346140e+01  -3.544499e+01
  -7.708873e+01  -3.143408e+01
   3.597595e+01  -9.581771e+01
  -7.184671e+00  -6.112955e+01
   2.642078e+01   6.361126e+00
   8.206299e+01   6.034740e+01
  -3.722812e+01   1.680959e+01
   4.851052e+01  -4.169139e+01
   2.425885e+01  -3.016233e+01
   7.926080e+00   2.908505e+01
  -4.052691e+01   8.564141e+01
  -1.893933e+01   5.038890e+01
  -1.933179e+01  -2.777967e+01
   7.526992e+00  -2.311056e+01
   4.322836e+00   9.798991e+00
   9.135051e+01   6.846577e+01
   3.385412e+01   3.805120e+01
  -1.266532e+01   6.452682e+01
  -1.223247e+01  -1.365905e+01
   1.092644e+00  -8.958176e+01
  -1.654281e+01  -3.306628e+01
  -2.096262e+01   6.256668e+01
  -4.173757e+01  -1.521545e+01
  -7.364291e+01  -3.969041e+01
  -6.189258e+01  -1.615830e+02
   9.046331e+01  -6.459893e+01
   1.099376e+02  -4.455217e+01
   9.264122e+01   2.484005e+01
  -1.830932e+01   6.486672e+01
  -5.345319e+01   3.373029e+01
  -5.136430e+00   1.242660e+01
   2.172061e+01  -2.917257e+01
   2.746228e+01   3.065562e+01
  -6.934061e+00  -1.090457e+01
  -4.480889e+01   4.694265e+01
   1.831224e+01  -2.073717e+01
  -2.745498e+01  -3.132418e+01
   5.556543e+00   5.249508e+00
   2.715602e+01   1.211946e+02
  -1.368777e+01   5.848870e+01
  -3.703157e+01   8.952539e+01
  -5.500358e+01  -1.163400e+01
  -9.783725e+01  -3.659986e+01
  -5.285191e+01  -9.944000e+01
   5.925033e+01   1.206415e+01
   1.406737e+01  -9.342550e+01
   4.032652e+00  -1.635650e+01
  -1.273558e+01  -3.511341e+01
   5.659140e+01  -1.391116e+01
   9.319053e+00  -6.546117e+01
  -1.992205e+01  -1.486963e+01
   4.578559e+00   2.975756e+01
  -3.897238e+01   4.471610e+01
  -1.656037e+01  -8.939429e+00
  -1.281462e+01  -1.898125e+01
   9.729765e+01   2.069508e+01
   4.806222e+01  -6.675540e+00
   4.695796e-01  -2.522573e+00
  -2.898360e+01   4.455926e+01
  -4.773334e+01  -9.829333e+00
  -4.524690e+01   2.270207e+00
   4.499029e+01  -5.000838e+00
  -3.109002e+01   1.112992e+01
   1.939417e+01   6.747040e+01
  -3.072896e+01  -2.125056e+01
  -4.574714e+01  -1.269274e+01
  -5.224158e+01  -8.904357e+00
   3.300511e-01  -1.288151e+01
   4.044247e+01  -5.298571e+01
  -6.209859e+00  -1.132136e+01
  -1.672076e+01  -4.212062e+00
  -2.775819e+01  -1.086229e+01
   3.514943e+01  -1.305394e+01
   4.849392e+01  -3.465523e+01
   4.482627e+01  -1.605219e+01
  -6.339945e+01   5.525574e+01
  -2.301720e+00   3.079050e+01
   2.914001e+00   6.618970e-01
  -2.997240e+01   7.291142e+00
   3.756749e+01   1.968983e+01
   5.511311e+01  -2.494832e+01
  -2.276374e+00  -1.725056e+01
   3.784032e+01   2.620970e+01
   1.370103e+01   3.027487e+01
   1.220052e+01   2.921666e+00
  -1.924479e+01   1.577895e+00
  -1.889290e+01  -2.632022e+01
  -1.917366e+01  -2.919430e+01
  -5.133191e+01  -2.122900e+01
  -2.160980e+01  -4.143633e+01
   1.732578e+00   1.002643e+01
   6.665503e+01  -2.762082e+01
   1.286543e+01   5.413710e+01
   6.833010e+01  -3.617478e+01
   7.512775e+00   1.439317e+01
   2.070317e-01   2.483998e+01
  -1.481862e+01   6.857720e+00
   3.473624e+01   1.210169e+01
  -2.925027e+01   4.050713e+01
   8.295979e+01  -1.944364e+01
   4.425494e+00   1.934433e+01
  -1.367475e+01  -2.895826e+01
   8.956324e+01   2.461527e+01
   3.863240e+01  -3.461616e-01
   5.655357e+01   2.447594e+01
  -5.733696e+00   9.588784e+01
  -7.320125e+01   2.043362e+01
  -4.358423e+01  -2.401369e+01
  -2.294134e+01  -8.235549e+00
  -7.698237e+00  -8.993312e+01
   6.345170e+01   2.443358e+01
   5.914197e+00   1.792292e+01
   1.783666e+01   1.345563e+01
  -8.380387e+00  -5.858796e+01
   2.790000e+01   1.270487e+01
   7.313068e+00   1.980515e+01
   4.459354e+01   9.457613e+01
  -6.448347e+01   5.576415e+01
  -3.486294e+01  -1.097596e+01
  -1.285817e+01  -4.392259e+00
  -1.227807e+01  -4.670654e+01
  -2.620383e+01  -6.962971e+01
   4.444996e+00   3.420520e+01
   6.416005e-01  -7.736935e+00
  -7.117696e+01   1.529528e+01
  -5.221550e+01  -2.788488e+00
  -1.504616e+01   1.561722e+01
   2.486609e+00   1.240157e+01
   3.794968e+01   3.656258e+00
  -8.305110e+01  -2.044253e+00
  -2.701367e+01   8.841299e+00
   1.050825e+01  -5.650447e+01
   1.155391e+01  -3.022615e+01
   2.288991e+01  -3.596059e+01
   1.173437e+01  -1.738273e+01
  -2.008846e+01   8.675276e+00
  -4.034273e+01  -4.880084e+01
  -1.276629e+01  -3.087731e+01
   8.027313e-01   2.813855e+01
   4.067481e+00   3.482201e+01
   1.158344e+01   2.542670e+01
   1.689005e+01   1.312761e+01
   4.224384e+00   8.763669e+01
  -1.734835e+01  -3.186494e+01
   5.390772e+01   5.007348e+01
  -8.754878e+01  -1.774185e+01
  -6.517683e+00  -1.192978e+01
  -4.222467e+00   1.743291e+01
  -2.596002e+01  -5.285627e+01
  -4.700305e+01   1.191828e+01
   3.185806e+01  -8.384178e-01
  -4.979985e+00   1.287221e+00
   1.725609e+00   3.265753e+01
   3.874108e+01  -3.772850e+01
  -4.688453e+01   4.409583e-01
   3.168536e+01  -9.610054e+00
   6.007096e+01  -6.068932e+01
   3.884153e+01   4.212639e+01
  -4.049342e+01  -2.652953e+01
  -5.030003e+01   1.282557e+01
  -5.005349e+01   1.637476e+01
   1.419866e+01   2.231099e+01
  -6.512309e+01   1.829152e+00
  -7.199148e+00  -6.557053e+00
  -4.207290e+01  -2.213034e+01
  -4.254708e+01   3.897951e+01
   4.323910e+00  -1.472690e+01
  -7.062347e+00  -5.024447e+01
  -1.082739e+01   9.031854e-01
   6.934723e+00  -8.326627e+00
   3.892082e+01  -2.605442e+01
   6.454764e+01   2.478774e+01
  -1.401781e+01   4.254384e+01
   1.202510e+01   2.495243e+01
   2.395438e+00  -2.667093e+01
   5.499826e+01   3.423807e+01
  -4.334541e+01   7.029781e+00
   7.542616e+00  -3.429598e+01
  -2.301813e+01   1.932516e+01
   2.818148e+01   1.933411e+01
   3.527734e+01   3.071425e+01
   3.274386e+01  -4.653903e+00
   9.045930e+00   4.172864e+00
  -3.234076e+01   7.756864e+00
  -4.353816e+01   1.714443e+01
  -2.747092e+01   2.775448e+01
   3.896443e+01   3.118499e+00
  -2.166993e+00   1.246257e+01
   8.198671e+01   1.789555e+01
   2.653292e+01   1.197980e+01
   2.337786e+00  -6.070205e+00
   2.705964e+01  -2.489208e+01
   4.299017e+00   1.203130e+01
   2.418853e+01   2.552954e+01
  -3.774656e+00   5.243071e+00
  -2.984420e+01   1.760704e+01
  -4.198189e+01  -4.747739e+00
   3.069523e+01   1.294357e+01
   1.234684e+01  -2.597220e+01
   2.174552e+01  -1.637061e+01
   4.310545e+01   1.538729e-01
   1.758356e+01   4.563288e+01
  -5.781391e+01   1.482053e+00
   2.434199e+01   4.455816e+01
   3.120953e+01  -1.479675e+01
   3.108967e+01   2.622160e+01
   4.567580e+00  -2.518964e+01
  -2.924477e+01  -3.338547e+01
  -2.137889e+01   1.281974e+01
   9.316939e+00  -3.902334e+01
   5.660869e+01  -4.968214e+01
   1.776134e+01   2.359932e+01
  -2.626954e+01  -5.741928e+00
   1.207519e+01  -3.011313e+01
  -1.319265e+01  -1.791323e+01
   4.996485e+01  -1.239883e+01
  -1.636005e+01   4.362110e+01
   3.312655e+01   1.083355e+01
  -4.349510e+00  -3.871477e+00
   1.995332e+01   6.608461e+01
   1.604227e+01  -3.541649e+01
   2.892231e+01  -2.780453e+00
   2.957871e+01  -4.106077e+00
  -3.522359e+00   2.913242e+01
   2.485748e+01   1.353790e+01
  -1.909352e+01   3.682438e+01
   3.460352e+01   3.305047e+01
   4.596308e+01  -2.091336e+01
   8.294893e+00   6.570625e+00
   2.862162e+01  -6.469433e+00
  -1.274553e+01   1.509434e+01
  -1.198156e+01  -2.133097e+01
   8.197911e+00   2.373328e+01
   2.140651e+01  -4.028426e+01
   4.304907e+01  -7.066070e+00
   5.961684e+01   4.638849e+01
  -4.193627e+01  -6.055392e+00
   3.466400e+00  -4.833304e+01
   1.133589e+01   3.775467e+01
   1.991826e+01  -3.027933e+01
   4.693219e+01   1.343889e+01
  -1.558033e+01   5.723625e+01
  -1.267654e+01  -2.385765e+01
  -4.278549e+01   5.054971e+00
   4.066405e+01   4.430450e+01
   1.367574e+00  -1.770399e+01
   5.233742e+01   1.072099e+00
   6.825200e+00   4.145072e+00
  -4.813396e+01   3.193552e+01
   1.415055e+01   1.314321e+01
   2.000545e+01  -2.761615e+01
   3.150935e+01   2.872247e+01
  -4.418443e+01   4.292069e+00
  -2.145274e+01   1.569357e+01
