
 $NMID
 id='ANONYMOUS ', fmtdat='(2E16.6)'
 volume=1.0
 tramp=1.0
 $END
   4.365072e+03  -1.491990e+02
   2.536772e+03   2.537882e+03
  -7.333921e+02   2.797934e+03
  -2.129218e+03   8.776449e+02
  -9.583845e+02  -7.016092e+02
   6.601585e+02  -5.611627e+02
   8.927143e+02   5.048231e+02
  -2.798964e+01   1.036261e+03
  -7.922378e+02   8.349466e+02
  -9.507784e+02  -1.082904e+02
  -4.830685e+02  -8.581066e+02
   2.381589e+02  -8.863079e+02
   6.629966e+02  -1.711834e+02
   3.988404e+02   7.232265e+02
  -2.555864e+02   7.631651e+02
  -6.685863e+02   3.336807e+01
  -2.908197e+02  -6.356477e+02
   3.560082e+02  -6.070590e+02
   5.883292e+02  -8.478975e+01
   4.020749e+02   3.066960e+02
   2.518288e+01   4.306259e+02
  -2.393779e+02   2.721585e+02
  -2.085494e+02   6.326623e+01
   7.817502e+01  -3.699143e+01
   4.516419e+02   8.026505e+01
   2.004058e+02   4.303516e+02
  -4.381718e+02   4.252019e+02
  -8.787696e+02  -1.766765e+01
  -4.624120e+02  -5.808961e+02
   4.038154e+02  -5.445021e+02
   7.922321e+02   2.035584e+01
   3.604843e+02   4.573996e+02
  -2.810104e+02   5.187498e+02
  -5.053379e+02   2.310597e+02
  -4.174127e+02  -2.092486e+02
  -7.379189e+01  -4.335365e+02
   1.965569e+02  -3.389831e+02
   1.583947e+02   1.641418e+02
  -1.060866e+02   4.347392e+02
  -4.704139e+02   2.301827e+01
  -2.777976e+02  -7.010566e+02
   2.589150e+02  -7.137414e+02
   6.124240e+02   1.622766e+01
   3.131569e+02   5.536033e+02
  -2.782011e+02   3.640201e+02
  -4.027917e+02  -3.410036e+02
   4.331878e+01  -5.112593e+02
   5.155802e+02  -1.828893e+02
   6.242025e+02   3.895353e+02
   1.373756e+02   5.800641e+02
  -4.050043e+02   3.673115e+02
  -6.170428e+02  -7.899815e+01
  -3.499807e+02  -3.721565e+02
   1.304438e+02  -3.760718e+02
   3.943953e+02  -1.020955e+02
   2.510978e+02   2.220864e+02
  -9.674443e+01   1.307988e+02
  -1.587863e+02  -1.476060e+02
   1.824243e+02  -2.002785e+02
   3.391718e+02   9.526619e+01
   1.269873e+02   2.882895e+02
  -1.792453e+02   2.083296e+02
  -3.031233e+02   1.086338e+02
  -1.485363e+02  -4.573504e+01
  -2.359115e+00  -1.858719e+02
   2.024414e+02  -2.895583e+02
   3.515783e+02  -2.189124e+02
   3.037892e+02   1.036757e+02
   8.478820e+01   4.708286e+02
  -1.053660e+02   3.907575e+02
  -1.166445e+02   6.905440e+01
  -3.121565e+01  -2.179916e+01
  -1.466541e+01   9.510732e+01
  -2.133066e+02   1.473983e+02
  -2.951760e+02  -2.951936e+00
  -1.336291e+02  -3.069519e+02
   6.943941e+01  -1.740333e+02
   2.228035e+02  -3.185968e+01
   1.985548e+02   2.058603e+02
  -3.991860e+00   2.908903e+02
  -2.699880e+02   1.670054e+02
  -3.372278e+02  -1.529543e+02
  -1.888532e+02  -3.170604e+02
   7.263330e+01  -3.059913e+02
   1.814053e+02  -1.119449e+02
   1.141582e+02  -7.646748e+00
   8.175218e+01   1.420579e+01
   2.666620e+02  -7.472207e+01
   3.293698e+02   5.345550e+00
   2.813094e+02   3.307247e+02
   9.886376e+00   4.279125e+02
  -3.291079e+02   4.035016e+02
  -5.079839e+02   2.188108e+02
  -3.740665e+02  -8.962110e+01
  -7.321396e+01  -2.741717e+02
   1.152162e+02  -2.501504e+02
   8.778765e+01  -8.769881e+01
  -8.528564e+01   9.540357e+01
  -1.997292e+02   6.235131e+01
  -6.077996e+01  -2.071340e+02
   1.794814e+02  -1.450656e+02
   2.023913e+02   5.580216e+01
  -1.501043e+01   1.622526e+02
  -2.128518e+02   2.689895e+01
  -1.371503e+02  -2.069253e+02
   4.437397e+01  -3.666305e+02
   1.545636e+02  -2.242524e+02
   3.220703e+02   5.189904e+01
   2.629578e+02   2.337305e+02
   7.719602e+01   2.903340e+02
  -1.163625e+02   1.915211e+02
  -2.018535e+02   1.660443e-01
  -4.546424e+01  -5.443585e+00
   7.221954e+00   1.326943e+01
   2.046173e+01   1.378028e+02
  -1.006902e+02   1.065424e+02
  -1.396622e+02  -2.971001e+01
  -9.023036e+01  -6.973989e+01
   3.524747e+01  -8.834615e+00
   8.563634e+01   6.410215e+01
  -1.054114e+02   7.843493e+01
  -2.775482e+02   6.254400e+01
  -2.548750e+02  -9.408442e+01
  -1.999428e+01  -1.916930e+02
   1.840365e+02  -2.970049e+02
   3.231706e+02  -1.809719e+02
   2.177787e+02   4.058762e+01
  -3.829669e+01   1.389503e+02
  -1.146984e+02  -1.226857e+00
   6.702811e+00  -1.173067e+02
   2.200815e+02  -6.346616e+01
   2.565724e+02   1.215257e+02
   9.511464e+01   1.426007e+02
  -7.303606e+01   1.608157e+02
  -9.479224e+01   2.523993e+01
  -6.876405e+01  -3.794537e+01
  -6.788246e+00  -8.266317e+00
   8.744317e+01   8.011536e+01
  -8.686190e+01   1.422290e+02
  -2.161366e+02   1.890321e+01
  -1.956525e+02  -1.428056e+02
  -1.994185e+01  -2.341517e+02
   2.161344e+02  -1.835305e+02
   1.846980e+02  -5.082580e+01
   3.096020e+01   1.480358e+02
  -8.336558e+01   1.046591e+02
  -8.659769e+01   3.532543e+01
   5.841902e+00   7.907338e+00
  -1.311126e+01  -4.113707e+01
  -1.045388e+01   3.184692e+01
  -5.699675e+01  -4.566136e+01
  -9.922470e+01  -6.915300e+01
   5.836924e+01  -1.349539e+02
   1.664045e+02  -1.620445e+02
   2.425649e+02  -7.494893e+01
   2.180683e+02   1.023560e+02
   2.439543e+01   2.417145e+02
  -5.834702e+01   2.466527e+02
  -8.663299e+01   5.527699e+01
  -4.409230e+01  -4.687237e+01
  -2.382385e+01  -1.589782e+01
  -5.406248e+01   1.634298e+01
  -3.231607e+01  -3.167524e+01
  -5.565916e+01  -4.119370e+01
  -3.681550e+01  -1.297460e+02
   1.030127e+02  -3.330035e+01
   5.519006e+01  -4.380443e+01
   8.588927e+01   7.512770e+01
  -1.128670e+02   5.483860e+01
  -1.894865e+02  -8.055335e+00
  -1.444311e+02  -1.812919e+02
   1.218204e+02  -2.220835e+02
   2.506538e+02  -1.214183e+02
   2.179410e+02   2.305208e+01
   8.255616e+01   1.719527e+02
  -5.831356e+01   2.078276e+02
  -1.427236e+02   1.294034e+02
  -1.124549e+02   7.380389e+01
  -6.064239e+01   6.623948e+01
  -2.001290e+01   1.773505e+01
  -1.523948e+02  -2.804717e+01
  -5.242680e+01  -1.377537e+02
  -9.318488e+01  -1.885695e+02
   4.542460e+01  -1.738518e+02
   1.940759e+02  -4.672417e+01
   1.317575e+02   8.557714e+01
   1.676967e+01   1.319168e+02
  -1.014423e+02   5.432885e+01
  -4.755863e+01  -7.411220e+00
  -3.878363e+01  -8.834071e+01
  -1.526733e+01  -1.540148e+01
  -3.388402e+01  -3.720486e+01
  -1.079463e+01  -1.851209e+01
  -5.083440e+01  -8.901477e+01
   6.192227e+01  -6.577132e+01
   2.062327e+02  -7.208079e+00
   1.809507e+02   1.817703e+01
   1.659323e+01   8.740890e+01
  -8.666133e+01   5.833373e+01
  -1.703774e+02  -4.997790e+00
  -6.284695e+01  -4.793457e+01
   7.650223e+01  -8.598050e+01
   1.887216e+01  -5.845421e+01
   5.887641e+01   4.781300e+01
  -9.557846e+01   5.969486e+01
  -8.945995e+01   1.603732e+01
  -4.346479e+01  -5.956629e+01
   4.330195e+00  -3.301704e+01
  -6.053754e+01  -5.896638e+01
  -3.593941e+01  -1.181474e+01
  -8.302619e+01  -1.390843e+01
   7.537606e-01  -1.206160e+02
   9.772995e+01  -1.462573e+02
   1.486079e+02  -7.250196e+01
   1.308949e+02   7.293785e+01
   1.964400e+01   9.011747e+01
  -1.889660e+01   4.807217e+01
  -9.458886e+01  -6.144963e+01
   8.158113e+01  -7.509044e+01
   1.815907e+02   5.266669e+00
   2.334825e+01   1.149054e+02
  -5.807476e+01   6.167611e+01
  -2.151204e+02   6.767775e+01
  -1.184051e+02  -4.216979e+01
  -6.267736e+01  -3.666448e+01
   4.285193e+01  -3.214589e+01
   2.076564e+01  -1.440742e+01
  -9.428581e+01   5.870050e+01
  -1.026854e+02  -4.521410e+00
  -5.563484e+01  -9.343246e+01
   4.063489e+01  -1.311838e+02
   1.437443e+02  -8.101991e+01
   1.479614e+02   7.048437e+01
   5.043558e+01   2.286570e+02
  -7.511904e+01   1.724790e+02
  -1.379889e+02  -5.978796e+00
  -2.289648e+01  -1.148257e+02
  -2.127233e+01  -1.292643e+02
   1.737352e+01  -3.437766e+01
   8.870283e+01   7.359580e+00
   7.368678e+01   3.041234e+01
  -2.190080e+01  -3.652739e+01
   3.480671e+01  -6.371765e+01
   6.383278e+01   5.148423e+01
   3.549178e+01   1.140029e+01
  -5.258987e+01   3.912436e+01
  -8.002005e+01  -1.249714e+01
  -8.473830e+01  -7.126487e+01
   2.118060e+01  -1.102968e+01
   3.466835e+01  -2.758721e+01
   9.579340e+01  -1.552484e+01
   4.572851e+01   2.389175e+01
   5.311867e+00   2.735921e+00
   1.345111e+01   3.432194e+00
   8.362091e+00   4.112695e+01
   3.695260e+01  -9.721066e+00
  -5.671983e+01  -2.266323e+01
  -1.031646e+02   4.538163e+01
   2.008628e+01  -1.614723e+02
   1.371176e+02  -1.395190e+02
   1.557858e+02  -4.538436e+01
   1.740131e+02   8.979422e+01
   2.005648e+01   1.642110e+02
  -9.922224e+01   1.587112e+02
  -1.361168e+02   4.128592e+01
  -9.127367e+01  -8.755133e+00
  -3.315496e+01  -7.346281e+01
   2.831180e+01   6.526742e+00
   7.588537e+00  -6.156530e+01
  -1.614567e+01   3.315254e+00
  -4.956069e+00  -5.493284e+01
   8.340753e+01  -1.031840e+02
   2.633261e+01   5.319968e+01
   1.602237e+02   6.643299e+01
   2.054682e+01   1.227186e+02
  -3.491615e+01  -9.736656e+00
  -6.991315e+01  -5.163754e+01
  -4.402287e+01  -1.512298e+02
   2.888697e+01  -2.811524e+01
   1.232270e+02   1.670651e+01
   3.116253e+01   5.293095e+01
  -3.930938e+01   3.262710e+01
  -3.330247e+01   1.007930e+01
   3.913011e+01   7.919014e+00
  -1.913934e+01  -4.457127e+01
   1.005422e+01   8.018989e+01
  -7.616779e+01   5.977493e+01
  -1.350219e+02   5.752942e+01
  -1.192592e+02  -4.314897e+01
  -4.368349e+00  -1.018617e+02
   2.460381e+01  -1.011843e+02
   1.545438e+01   3.408280e+00
  -1.255229e+00   2.310819e+01
   5.366773e+00   7.586198e+01
  -4.391417e+01  -6.857740e+01
  -4.317962e+01   4.287376e+00
   3.011609e+01  -5.848321e+00
   4.940195e+01   6.613506e+00
   5.948427e+01   4.830858e-01
   2.678652e+01  -1.194086e+00
  -7.487523e+00  -1.255381e+01
  -4.214630e+01   4.181504e+01
   1.523060e+01   2.535367e+01
  -2.562782e+01   7.102175e+01
  -2.350385e+01   2.377532e+01
  -2.659886e+01  -4.462230e+01
   4.662779e+01  -4.781348e+01
   7.107979e+01  -9.543466e+00
   3.781122e+01   2.317738e+01
   4.877707e+01   7.202366e+01
  -7.897942e+01   4.658912e+01
  -1.090001e+02  -1.545150e+01
  -4.812942e+01  -4.899839e+01
   2.188443e+01  -2.714885e+01
   4.841412e+01  -5.002557e+01
   3.178784e+01   6.949933e+01
  -6.512532e+00   2.940057e+00
  -6.792207e+00  -2.067425e+01
   5.606254e+01  -2.250247e+01
   8.580005e+01  -4.638053e+01
