
 $NMID
 id='ANONYMOUS ', fmtdat='(2E16.6)'
 volume=1.0
 tramp=1.0
 $END
  -1.033302e+03  -7.461213e+01
  -6.746431e+02  -5.437394e+02
  -8.736361e+01  -6.724486e+02
   3.767317e+02  -5.819187e+02
   4.637753e+02  -2.579641e+02
   1.190861e+02  -1.180456e+01
  -4.735229e+01   3.302506e+01
  -3.400305e+01  -6.373203e+01
   1.172226e+02  -1.996663e+02
   2.060591e+02  -5.777016e+01
   2.320306e+02   1.874423e+02
   1.490628e+01   2.542179e+02
  -7.164851e+00   5.424332e+01
  -6.367725e+01  -9.312845e+01
   3.725682e+00  -1.827312e+02
   9.677119e+01  -7.312905e+01
   1.112637e+02   1.513779e+02
  -5.860385e+01   2.689868e+02
  -1.820448e+02   9.777906e+01
  -1.524250e+02  -9.033542e+01
  -2.644227e+01  -1.237794e+02
   4.634830e+01  -1.054177e+02
   2.514003e+00  -9.937451e+00
  -4.702930e+01  -8.185167e+01
  -5.431120e+01  -1.773344e+02
   7.160651e+01  -1.570752e+02
   1.848979e+02   1.406854e+01
   1.829892e+02   1.080868e+02
   3.480305e+01   6.131711e+01
  -1.367630e+02   3.481035e+01
  -1.826428e+02  -7.537163e+01
   4.054589e+00  -1.395306e+02
   1.277985e+02  -1.306851e+02
   1.780205e+02   2.681652e+01
   8.083440e+01   7.519187e+01
   2.259325e+01   9.757692e+01
  -1.880795e+01   4.103670e+01
   4.634557e+01  -3.650514e+01
   6.620257e+01   4.958229e+01
   6.254431e+00   9.239040e+01
  -1.188318e+02   1.724425e+02
  -6.844286e+01   8.986493e+01
  -6.519890e+01  -5.484351e+01
  -6.142445e+00  -7.223227e+01
  -3.559342e+01  -1.302966e+01
   3.192958e+01   9.350851e+01
  -5.992943e+01   1.141226e+02
  -1.478908e+02   4.232401e+01
  -1.499776e+02  -1.681665e+02
  -1.476174e+01  -1.629482e+02
   1.418608e+02  -3.546262e+01
   1.683745e+02   6.083026e+01
   6.777168e+01   1.068207e+02
   4.230394e+01   6.672895e+00
  -9.405014e+01   3.941923e+01
  -7.859934e+01  -5.135176e+01
  -9.080740e+01   6.917063e+01
  -1.470521e+01  -5.030053e+00
  -6.826292e+01  -1.373656e+01
  -9.272408e+01  -1.226507e+01
  -9.271022e+01  -3.177606e+01
   1.123216e+02  -5.013022e+01
   1.468810e+02  -2.861447e+01
   1.148683e+02   4.621241e+01
   7.964763e+00   1.902193e+02
  -1.132933e+02   1.410485e+02
  -1.361500e+02   4.814513e+01
  -1.105550e+02  -9.480913e+01
  -2.218292e+01  -1.422878e+02
  -1.207874e+01  -1.165465e+02
   2.602410e+01  -6.220759e+01
   2.918559e+01  -2.500456e+01
   1.083875e+02  -7.604629e+01
   8.285238e+01  -2.464109e+00
   1.275521e+02   9.353390e+01
  -1.363110e+01   1.437895e+02
  -9.893444e+01   4.245887e+01
  -8.290534e+01  -9.720351e+00
  -2.303835e+00  -1.168090e+02
   5.809670e+01  -1.351570e+02
   8.853868e+01   1.517084e+01
   1.281719e+02   7.260103e+01
   7.538663e+01   1.204578e+02
  -2.946843e+01   5.987766e+01
  -4.062030e+01   3.012573e+00
  -8.685774e+01   3.849293e+01
  -5.750396e+01   3.757851e+01
  -1.062715e+02  -1.563758e+00
  -1.314408e+02  -2.631997e+01
  -5.859371e+01  -1.740951e+02
   5.897342e+01  -1.858090e+02
   1.763814e+02  -1.440652e+02
   2.479845e+02  -4.119293e+01
   1.418193e+02   5.976271e+01
  -1.324109e+01   8.600922e+01
  -5.865329e+01   5.941490e+01
   3.167002e+01   2.701886e+01
   8.597032e+01   2.809942e+01
  -1.579057e+01   8.283725e+01
  -1.158077e+00   6.426101e+01
  -7.475767e+01   1.696416e-01
   1.998685e+01  -2.784735e+01
   5.639819e+00  -5.908341e+01
   8.186792e+01   3.928218e+01
   2.281304e+01   6.876537e+01
   8.901555e+00   2.319818e+02
  -1.106272e+02   4.259401e+01
  -1.619346e+02  -1.128187e+01
  -1.220955e+02  -1.690754e+02
   2.045965e+00  -1.000613e+02
   4.216445e+01  -3.632293e+01
   5.925689e+01  -6.452467e+01
   3.624674e+01   3.053788e+01
   3.132126e+00  -3.660912e+01
   8.892986e+00  -3.747187e+01
   3.092892e+01  -2.089254e+01
   6.867896e+01  -4.704855e-01
   7.600711e+01   5.980579e+01
   2.032501e+01  -5.687728e+01
   1.220827e+00  -3.567304e+00
   6.392308e+01   2.179180e+00
   1.469418e+02   1.970509e+01
   1.115707e+02   1.538905e+02
  -1.889038e+01   1.348174e+02
  -1.238541e+02   7.599541e+01
  -3.129141e+01   3.890048e+01
  -3.252154e+01   2.140151e+01
   2.383330e+01  -6.969034e+01
   8.591052e+01  -3.187435e+01
   6.100381e+01   5.182879e+01
  -4.331486e+01   1.137613e+01
  -3.562446e+01  -4.752333e+01
   7.402252e+00  -5.065782e+01
   4.262287e+01  -5.262585e+01
   2.188371e+01  -1.518736e+01
   7.834297e+00  -1.395186e+01
   9.281132e+00  -4.972524e+01
  -2.620872e+01  -1.067572e+02
   5.151664e+01  -3.294274e+01
   6.603147e+01  -1.992265e+00
   6.721500e+01   1.086933e+02
  -5.341009e+01   3.208297e+01
  -9.463955e+01   3.803677e+01
  -6.286300e+01  -1.249630e+01
  -5.485167e+01  -7.049971e+01
   5.012444e+01  -2.848166e+01
   9.236592e+00   4.873653e+01
  -3.864304e+01   1.694938e+01
  -3.604173e+00   2.151361e+01
  -3.337682e+01   9.771260e+00
   5.083628e+01  -6.329862e+01
   1.231611e+02   3.265623e+01
  -3.512491e+01   5.660116e+01
  -1.176541e+02   6.970847e+01
  -6.433711e+01   1.654844e+01
  -1.336529e+02  -1.032785e+02
  -2.088020e+01  -7.603481e+01
   7.533660e+00  -5.103829e+01
   6.945276e+01   1.726043e+01
   1.717009e+01  -3.426026e+01
   1.189764e+01  -7.347043e+00
   4.804881e+01  -3.669429e+01
   6.123957e+01   6.134446e+00
  -1.406225e+01   2.809410e+01
  -2.389096e+01   7.372754e+01
  -7.453890e+01   6.693796e+01
  -2.023887e+01  -2.417929e+01
   3.340135e+01  -5.417034e+01
   5.615973e+01   5.719631e-01
   8.584140e+01   5.466298e+01
  -3.391390e+01   1.091584e+02
  -1.457486e+02   6.121024e+01
  -1.467523e+02   1.736513e+01
  -1.089094e+02  -6.768806e+01
  -3.366907e+01  -9.608469e+01
   4.987743e+01  -8.304215e+01
   1.323531e+02  -6.828887e+00
   3.478100e+01  -8.170385e+01
   7.482903e+01  -4.036889e+01
   3.751253e+01  -1.820282e+01
   3.946166e+01   8.803313e-02
   4.657918e+00   7.325725e+01
   8.243109e+00   8.903446e+01
  -3.563897e+01   5.829569e+01
  -4.648345e+01  -2.056589e+01
  -4.742142e-01  -3.357076e+01
   1.718062e+01  -1.777475e+01
   4.995061e+01   6.445710e+00
  -7.551823e+00   4.238262e+01
  -8.226290e+00   4.406484e+01
   1.979033e+01  -1.555979e+00
   1.586205e+01   2.736026e+01
   3.429647e+01   9.538292e+01
   1.373062e+01   6.530179e+01
  -4.236423e+01  -2.001320e+01
  -8.905039e+01  -2.408114e+01
  -4.730851e+01  -5.174837e+01
   5.676760e+01  -7.379866e+01
  -9.631110e+00  -1.385207e+01
   1.168330e+02  -1.119410e+01
  -1.044948e+01   3.723574e+01
  -1.707472e+01  -9.565255e+00
  -3.717132e+01   5.173662e+01
   1.025581e+01  -6.529366e+01
   5.992760e+01  -2.430367e+01
   5.036183e+01   3.837172e+01
   4.097481e+01   1.081018e+02
  -6.622467e+01   5.292427e+01
   3.880876e+01   6.061101e+01
  -4.087190e+00  -3.034161e+01
   2.543248e+01   6.446729e+01
  -3.138079e+00   4.010701e+01
  -1.297786e+02   3.548934e+01
  -7.705951e+00  -8.373061e+00
  -1.862494e+01  -4.501568e+01
   2.152493e+00  -5.836337e+01
   6.625339e+01  -3.863915e+00
   3.593790e+01   4.112711e+00
  -7.714903e+00   1.917839e+01
  -2.256465e+01  -4.825204e+01
  -2.267803e+01  -9.732882e+01
   2.086349e+01  -1.423525e+01
   5.980678e+01   8.759426e+00
   3.729962e+01   1.777535e+01
   1.125947e+01   1.139255e+02
  -2.391592e+01  -8.524293e+00
  -4.314504e+01  -6.582272e-01
   1.032734e+01  -2.884088e+01
   4.730917e+01   5.604726e+01
   5.834612e+01   8.990801e+01
  -3.022438e+01   7.418303e+01
   1.031204e+00  -2.380347e+01
  -1.922208e+01  -1.477378e+01
  -5.087903e-01  -7.040909e+01
   3.316323e+01  -3.721593e+01
   1.312296e+01   9.919518e+00
   3.314449e+01   6.533090e+01
   8.197421e+00   1.988921e+01
  -2.970785e+01  -9.661312e-01
  -2.544398e+01   1.797478e+01
   1.713503e+01  -2.230471e+00
   4.608277e+01  -1.923844e-01
  -2.098362e+01  -7.860911e+00
   3.143421e+00  -1.483865e+01
   4.769375e+01  -8.397074e+01
  -3.271010e+01  -4.420331e+01
   6.524905e+01   4.377967e+01
   4.107740e+01   7.030151e+01
  -2.091752e+01   4.736956e+01
  -1.721711e+01   2.287493e+01
  -6.299152e+01  -3.381018e+00
  -4.934421e+01  -4.155139e+01
   4.786537e+01   4.574861e+01
   3.805653e+01  -2.441793e+01
  -1.368167e+01   3.246272e+01
  -1.199487e+01  -1.306695e+01
  -5.665085e+00   1.636335e+01
   5.101759e+01  -1.225164e+01
  -2.540403e+00   3.237626e+01
  -4.594911e+01   3.426135e+01
  -8.387696e+01  -7.312116e+00
  -4.336414e+01  -8.927323e+01
  -2.782556e+01  -9.706479e+01
   6.064232e+01  -5.789684e+01
   8.512421e+01  -1.815756e+01
   9.532457e+00  -4.060369e+01
   3.200408e+01  -2.347600e+01
   1.519212e+01  -4.150788e+01
   1.179580e+01   1.083619e+01
   6.405124e+01   3.965705e+01
  -4.381181e+00   6.383130e+01
  -3.261551e+01  -3.086792e+01
  -4.146498e+01  -1.702025e+01
  -1.695392e+01  -3.129371e+01
   1.906334e+01  -2.753101e+01
   5.953825e+01  -1.381307e+01
   3.249025e+01  -1.674070e+01
   5.480700e+00   6.981188e+01
  -2.171531e+01   4.789399e+01
  -1.043122e+02  -5.997668e+01
  -2.401278e+01  -2.578006e+01
   1.035890e+01  -2.515105e+00
  -2.914351e+01  -7.389996e+01
  -7.772042e+01  -2.927633e+01
   8.752525e+00  -4.213762e+01
   3.312302e+00  -7.955221e+01
   1.307471e+01   3.478387e+01
   4.520357e-02  -2.099762e+01
   2.276518e+01   4.602221e+01
  -2.960267e+00   4.056837e+01
  -3.964302e+01   2.465584e+01
  -1.680944e+01   3.672576e+01
  -3.756915e+00  -1.994068e-01
   6.887040e+01   4.833775e+00
   1.508730e+01  -2.902331e+01
   5.087554e+01  -2.946680e+01
  -3.710331e+01   5.389162e+01
   2.797384e+01  -2.927896e+01
  -3.345291e-01  -8.139820e+00
   1.518166e+00  -5.838756e+00
   1.772754e+01  -7.066426e+00
  -2.288998e+01  -1.945653e+01
  -4.931961e+01   5.677620e+00
   4.304614e+01  -5.217425e+01
   1.113733e+01  -6.168171e+01
  -1.781867e+00  -1.289026e+01
   2.975040e+01   4.464900e+01
   2.135591e+01   4.082318e+01
   1.231104e+01   4.903816e+00
   1.689262e+01  -3.240332e+01
   7.270611e+01  -1.899058e+01
   1.163831e+02   5.891701e+01
   3.941663e+01   5.192993e+01
  -4.797699e+01   2.029005e+01
  -2.846388e+01   2.184216e+01
  -2.698320e+01   6.558854e+01
   2.047233e+01   2.911377e+01
   2.265604e+01  -6.635428e+00
  -2.502123e+01   3.451635e+01
   6.244039e+00   6.705167e+01
