
 $NMID
 id='ANONYMOUS ', fmtdat='(2E16.6)'
 volume=1.0
 tramp=1.0
 $END
  -2.780031e+03  -1.643591e+02
  -1.844334e+03  -1.401795e+03
  -5.704443e+01  -1.746522e+03
   9.948674e+02  -1.154160e+03
   8.876953e+02  -3.094065e+02
   1.580875e+02   1.170542e+02
  -2.763106e+02  -5.177674e+01
  -3.388453e+01  -4.158394e+02
   3.728592e+02  -4.844754e+02
   5.450542e+02  -8.602248e+01
   3.954498e+02   4.031620e+02
   7.264559e+01   5.745468e+02
  -2.350201e+02   1.751908e+02
  -1.717537e+02  -3.241793e+02
   5.158305e+01  -5.093887e+02
   3.167171e+02  -9.413363e+01
   2.932903e+02   4.763822e+02
  -6.006372e+01   6.344275e+02
  -3.970803e+02   2.374020e+02
  -4.017958e+02  -1.288813e+02
  -1.369452e+02  -3.243847e+02
   8.358078e+01  -2.058102e+02
   2.089334e+01  -1.206340e+02
  -2.166128e+02  -9.072400e+01
  -2.167570e+02  -3.037209e+02
   9.300245e+01  -3.368170e+02
   4.378954e+02  -6.262099e+01
   5.126365e+02   2.408712e+02
   2.112888e+02   3.752147e+02
  -3.069803e+02   1.361306e+02
  -4.170726e+02  -1.690324e+02
  -1.055339e+02  -3.802615e+02
   2.372396e+02  -2.605054e+02
   3.909398e+02  -1.237027e+02
   2.602020e+02   1.267836e+02
   1.083633e+02   3.120663e+02
  -1.802097e+01   1.971334e+02
   1.090414e+02  -4.789539e+01
   1.759341e+02  -1.014215e+02
   1.347352e+02   1.997953e+02
  -1.007424e+01   3.805464e+02
  -2.192698e+02   3.734006e+02
  -2.494599e+02   2.158979e+01
  -1.134284e+02  -1.754317e+02
   7.645704e+01  -9.934709e+01
   1.160103e+02   2.396170e+02
  -1.362978e+02   2.956117e+02
  -4.108815e+02  -4.620819e+01
  -4.120817e+02  -3.677108e+02
  -1.518527e+02  -4.048713e+02
   2.901069e+02  -2.286243e+02
   4.357742e+02   8.203057e+01
   2.733660e+02   1.920237e+02
  -2.651808e+01   2.414197e+02
  -1.965922e+02   1.252743e+02
  -1.783271e+02   2.906721e+01
  -7.097962e+01   3.430456e+00
   1.381973e+01  -3.257256e+01
  -1.081134e+02   2.500895e+01
  -2.151666e+02  -4.545520e+01
  -1.454775e+02  -1.565734e+02
   1.461231e+02  -2.375687e+02
   3.238054e+02  -1.336889e+02
   3.002904e+02   7.362175e+01
   6.427794e+00   3.074435e+02
  -3.022741e+02   3.383424e+02
  -3.906241e+02   1.345642e+02
  -1.179534e+02  -2.060304e+02
   6.030118e+00  -3.259802e+02
   6.146427e-01  -2.965730e+02
   8.562347e+00  -1.488420e+02
   6.120394e+01  -1.185120e+02
   1.333504e+02  -7.187742e+01
   2.092922e+02  -2.548298e+01
   1.754561e+02   1.485655e+02
   7.785896e+01   2.235029e+02
  -6.964990e+01   1.961041e+02
  -1.832905e+02  -3.555964e+01
  -7.939312e+01  -1.470191e+02
   4.667075e+01  -1.977402e+02
   1.902927e+02  -9.110481e+01
   2.360585e+02   2.008699e+02
   9.100209e+01   2.633708e+02
  -5.250484e+01   2.147372e+02
  -1.555901e+02   1.172175e+02
  -1.037984e+02   4.670947e+01
  -1.548740e+02   7.120050e+01
  -2.695535e+02   1.581416e+01
  -3.933159e+02  -1.397406e+02
  -2.839664e+02  -3.036525e+02
   3.076416e+01  -4.196293e+02
   4.156067e+02  -3.438901e+02
   4.316631e+02  -1.627431e+02
   2.690584e+02   1.093661e+02
  -1.236994e+01   2.484881e+02
  -7.009132e+01   1.036410e+02
   2.122904e+01   1.946589e+01
   1.437321e+02  -5.016891e+01
   1.083703e+02   9.579584e+01
   1.061006e+01   1.975970e+02
  -1.218368e+02   8.696004e+01
  -1.457496e+02  -7.707248e+01
   1.436914e+01  -8.874772e+01
   9.959270e+01  -1.107807e+01
   1.777335e+02   2.839972e+02
  -3.668951e+01   3.502810e+02
  -2.223223e+02   2.011710e+02
  -3.208208e+02  -6.400237e+01
  -2.077771e+02  -2.671992e+02
  -5.109231e+01  -2.528698e+02
   1.034471e+02  -4.905249e+01
   8.264114e+01   2.450364e+01
  -2.215853e+01   6.676575e+00
  -4.335695e+01  -1.204180e+02
   1.964863e+01  -9.322536e+01
   1.223531e+02  -3.326018e+01
   1.981799e+02   8.019294e+01
  -6.248128e+00   3.675705e+01
  -1.004467e+02   1.581066e+01
   3.109939e+00  -4.800282e+01
   1.296951e+02  -6.693178e+01
   3.498210e+02   4.867801e+00
   2.436245e+02   1.967428e+02
  -2.097881e+01   2.705523e+02
  -1.830282e+02   2.027993e+02
  -2.542774e+02   3.802652e+01
  -7.562086e+01  -8.063357e+01
   6.718532e+00  -7.984780e+01
   6.535427e+01   5.956221e+01
  -7.976468e+01   1.141867e+02
  -1.710522e+02   8.962391e+00
  -1.858426e+02  -1.172756e+02
  -2.943412e+01  -1.604935e+02
   8.217369e+01  -1.297777e+02
   1.056990e+02   5.082130e+01
   3.522819e+01   1.450931e+01
  -6.558051e+01  -5.649486e+01
  -1.011944e+02  -1.482558e+02
   1.168856e+02  -1.334767e+02
   2.090397e+02   1.049095e+01
   1.648932e+02   1.455314e+02
  -5.978351e+01   1.395399e+02
  -1.792431e+02   1.743775e+02
  -1.356513e+02   3.007766e+01
  -7.777525e+01  -1.010646e+02
   8.064107e+01  -6.850551e+01
   1.408145e+01  -1.402390e+01
  -3.171455e+01   7.036298e+01
  -1.947674e+01  -3.604019e+01
   6.843554e+00  -1.066833e+01
   7.091960e+01   1.859531e+01
   4.542539e+01   9.960051e+01
  -1.077373e+01   1.377490e+02
  -1.219778e+02   1.775708e+02
  -2.199576e+02  -1.219102e+01
  -1.510541e+02  -1.263510e+02
  -8.052699e+00  -2.285122e+02
   4.394282e+01  -1.600308e+02
   1.009854e+02  -2.724556e+01
   5.554287e+01   5.526066e+01
   1.542589e+01   5.091561e+01
   3.250507e+01   1.632399e+01
   8.285385e+01  -4.915200e+00
   6.097707e+01   2.973498e+01
  -6.024263e+01   1.053175e+02
  -1.149457e+02   1.232090e+02
  -8.932787e+01  -7.312215e+01
  -3.784976e+01  -1.070867e+02
   1.841199e+02  -6.179406e+01
   2.135869e+02   4.888934e+01
   5.111588e+01   2.022478e+02
  -9.015171e+01   2.025093e+02
  -2.493162e+02  -1.427560e+01
  -1.909355e+02  -7.808416e+01
  -3.400374e+01  -1.757653e+02
   5.792494e+01  -1.734353e+02
   4.687176e+01  -7.119726e+01
   8.198069e+00  -2.594153e+01
   4.095346e+01  -8.521804e+01
   8.264384e+01  -6.503847e+01
   1.208244e+02  -3.175899e+01
   9.427138e+01   1.606956e+02
  -4.474584e-01   2.013027e+02
  -8.410199e+01   1.452219e+02
  -1.742487e+02  -1.745592e+01
  -1.057794e+02  -1.091713e+02
   1.186052e+01  -1.602636e+02
   1.059768e+02  -2.861474e+01
   1.936931e+01   5.011865e+01
  -2.913955e+01   7.604581e+01
  -1.312584e+01   3.466751e+01
   9.792372e+00   4.564074e+00
   1.271541e+02   2.762514e+01
   8.452370e+01   2.658433e+01
  -3.406195e+01   3.700346e+01
  -1.109130e+02   2.404727e+00
  -1.068168e+02  -9.180171e+01
   3.258845e+01  -1.119914e+02
   1.190209e+02  -6.386894e+01
   2.079772e+02  -7.749085e+00
  -2.881193e+01   8.017120e+01
  -1.664188e+01  -1.158820e+01
  -7.712877e+01  -5.207812e+01
   9.149190e+00  -4.850310e+01
  -3.248929e+01  -4.429960e+01
   1.046379e+02  -6.609767e+00
   1.056331e+01   3.482619e+01
   1.658199e+01   3.996151e+01
   9.744708e+01  -1.378415e+01
   4.137473e+01  -2.710735e+01
   8.430541e+01   7.788243e+01
   7.936490e+00   1.346646e+02
  -1.150322e+02   1.191442e+02
  -2.059887e+02   8.115233e+00
  -1.174028e+02  -2.542929e+01
   8.961078e+00  -1.129247e+02
   1.117796e+02  -4.679612e+01
   7.154189e+01   1.181357e+01
  -5.880536e+01   4.168870e+01
  -1.743726e+02  -3.643864e+01
  -9.607740e+01  -1.106220e+02
   8.278943e+01  -1.378644e+02
   1.925134e+02  -1.628448e+01
   2.011557e+02   8.579715e+01
   4.996701e+01   3.766777e+01
  -4.626173e+01   1.219444e+01
  -9.499413e+01   1.652040e+01
  -1.962500e+01  -4.194832e+01
   1.906492e+02  -8.744609e+00
  -3.179278e+01   8.606303e+01
  -9.646760e+01   1.484797e+02
  -1.757766e+02   5.986208e+01
  -3.583869e+01  -5.370783e+01
   3.149514e+01  -1.920721e+02
   9.613234e+01  -1.132602e+02
   1.469675e+02   1.369264e+01
   5.621159e+01   6.713462e+01
  -5.397408e+01   1.238686e+02
   1.654838e+01  -1.292300e+01
  -7.692309e+01   8.887168e+00
   2.426845e+01   2.636683e+01
  -8.169291e+00   1.790542e+01
  -6.840936e+01  -1.111850e+01
  -7.988099e+01  -6.934406e+01
  -5.636333e+01  -4.650368e+01
   3.339206e+01  -5.815446e+01
   1.148814e+02   7.196727e+01
   1.171094e+02   9.367154e+01
  -1.140924e+01   7.396955e+01
  -8.441535e+01   4.231282e+01
  -3.978308e+01   2.461402e+01
  -1.706327e+01   2.548300e+01
  -2.406242e+01   2.025258e+01
  -5.156026e-01   1.012686e+01
   1.463378e+01   2.519275e+01
   5.650597e+00   3.549089e+01
   8.085919e+01  -3.710855e+01
   1.217724e+02   6.453625e+01
   2.205235e+01   8.425513e+01
  -2.642839e+01   1.044710e+02
  -1.967616e+02   7.776862e+01
  -1.814286e+02  -5.991564e+01
  -3.043097e+01  -1.309826e+02
   7.344617e+01  -1.374763e+02
   8.608082e+01   3.311027e+00
   2.872780e+01  -1.165817e+01
   2.132570e+01   3.251392e+01
   9.208549e+00  -5.149968e+00
  -8.742014e+01   5.775281e+00
  -1.020869e+01   3.482502e+01
   2.926253e+00   7.094927e+01
  -3.762496e+01   4.861424e+01
  -1.004370e+02  -3.938231e+01
  -9.408854e+01  -8.628216e+01
   3.490000e+00  -4.699600e+01
   5.048123e+01  -5.112851e+01
   8.003850e+01   4.243047e+01
   5.173338e+01   1.042162e+02
  -1.428770e+02   3.038858e+01
  -9.315848e+01  -1.087690e+01
  -2.855094e+01  -2.425278e+01
  -2.225952e+01  -3.735073e+01
   8.368526e+01  -3.942807e+01
  -5.587957e-01  -2.080709e+01
   2.036173e+01   1.126303e+01
   1.849195e+01   3.559772e+00
   5.228292e+01  -1.037639e+02
   4.651029e+01  -4.379367e+01
   1.220291e+02   1.789591e+01
   1.825334e+01   7.919997e+01
  -6.839368e+01   3.156683e+01
  -3.390994e+01   8.369359e+00
  -4.948979e+01  -6.503974e+00
   1.558176e+01   1.664264e+01
   2.670431e+01  -5.312318e+00
  -8.735624e+00   2.417587e+01
   3.823185e+01   1.969876e+01
  -1.796684e+01   2.225579e+01
  -7.507550e+01  -3.416605e+01
   1.684287e+00  -3.578775e+01
   4.233561e+00   2.768581e+01
   1.040469e+01  -3.630347e+01
   1.267017e+01  -4.899914e+01
   1.917277e+01  -7.087033e+01
   2.341782e+01   1.778506e+01
   1.188341e+01   2.998562e+01
   2.474039e+01   4.974857e+01
  -7.570577e+01   6.648420e+00
  -5.677119e+01  -5.375466e+00
  -1.298747e+01   2.521056e+00
   7.255918e+01  -5.504898e+01
   8.487244e+01   1.555111e+01
   4.073042e+01   4.152970e+01
  -4.702499e+01   6.316432e+01
  -1.132004e+01  -1.035275e+01
  -4.500277e+01   2.984063e+01
  -9.830005e+00   9.054336e+01
   2.852799e+01  -9.510311e+01
  -3.470628e+01   5.114109e+01
  -1.212472e+02   3.446297e+01
