
 $NMID
 id='ANONYMOUS ', fmtdat='(2E16.6)'
 volume=1.0
 tramp=1.0
 $END
   2.543658e+02  -1.645297e+02
   2.489740e+02   6.115594e+01
   9.835973e+01   1.503038e+02
  -9.071602e+01   1.428237e+02
  -8.998283e+00  -1.909121e+01
   2.354221e+01  -3.202856e+01
   7.321828e+01   1.375000e+01
   1.606377e+01   1.193074e+02
  -4.385045e+01   8.236871e+01
  -7.217749e+01   2.170940e+01
  -6.679931e+01  -2.410831e+01
  -5.514578e+01  -7.366715e+01
   2.997047e+01  -2.079637e+01
   4.930608e+01   2.058167e+01
  -4.271687e+00   5.545177e+01
  -1.737493e+01   1.364941e+01
  -4.230765e+00  -3.979033e+01
  -2.597666e+01  -5.645356e+01
   1.546507e+01  -1.977067e+01
   4.602479e+01  -2.910528e+01
   3.162132e+01   3.782695e+01
  -2.116386e+01   9.516525e+00
   2.847223e+01   3.501409e+01
   1.558052e+01  -3.015875e+01
   2.366835e+01  -4.220784e+01
   3.254945e+01   2.272250e+01
   1.206046e+01   2.282271e+01
  -3.251908e+01   1.823830e+01
  -2.529704e+01  -4.323950e+01
   4.733423e+01  -9.112673e+01
   8.988413e-01   2.267280e+01
   5.038369e+01  -1.303525e+01
   5.062521e+01   9.308523e+01
   9.072950e+00   1.518043e+01
   4.434891e+00   7.314291e+01
   4.103060e+01  -8.402709e+01
   1.955193e+01  -3.137047e+00
   6.821453e+01   4.569101e+01
  -6.794327e+01  -1.069628e+01
   1.181848e+01   1.063882e+01
  -6.010660e+01  -7.053372e+01
   7.284026e+00  -3.586533e+01
   4.551876e+01  -7.735526e+01
   6.620680e+01   1.709366e+00
   2.997307e+01   4.956144e+01
  -7.253879e+00   1.696122e+00
   2.682794e+01  -2.790262e+01
   2.032624e+01  -6.317446e+01
   8.876894e+01   5.290634e+00
  -4.238309e+00   4.693386e+01
  -1.951753e+01   6.925093e+01
  -7.053355e+01   4.685102e+01
  -3.709244e+01   2.710345e+01
   6.523640e+01  -6.005792e+01
   1.995637e+01   1.685780e+01
  -1.582402e+00  -1.460451e+01
  -3.566598e+01   8.147638e+00
  -2.734599e+01  -3.347150e+01
   1.476455e+01  -2.720892e+01
   4.708603e+00   1.514585e+01
   7.460835e+01  -3.355394e+00
  -4.395289e+01   7.723057e-01
   7.292758e+00   2.789411e+01
  -7.793432e+01  -5.263834e+01
   6.137662e+00  -1.463729e+01
  -6.105641e+01  -7.273285e+01
   2.173105e+01  -5.137901e+01
   4.550241e+01  -2.578116e+01
   3.064316e+01   4.066509e+01
  -7.538868e+00   1.202073e+01
   6.861040e+00  -1.218478e+01
   1.257146e+01   3.895337e+01
   1.857932e+01   1.712129e+01
   3.421857e+01  -2.396341e+01
   4.202420e+01   3.719734e+00
  -7.850883e+01  -3.493967e+00
  -1.366708e+01   2.893396e+01
   6.091910e+01   3.314114e+01
   5.887463e+01   3.478402e+01
   3.381752e+01  -1.722641e+01
   1.228239e+00   4.069234e+01
  -3.698892e+01  -2.446612e+01
  -3.246152e+01  -3.456817e+00
   7.496747e+01   1.581181e+00
   2.736392e+01   2.783149e-01
   5.891098e+00  -2.127937e+01
   2.577616e+01   2.853652e+01
   3.080258e+01  -5.002418e+01
   4.221023e+01  -2.897590e+01
  -5.197957e+00  -4.456895e+01
   1.512144e+00   2.471973e+01
  -4.267569e+01   5.444998e+01
   3.728086e+00   8.352498e+01
   2.733473e+00   6.924684e+00
  -1.247437e+01  -4.317768e+01
   3.349105e+01  -1.458191e+01
  -3.058613e+00   5.126353e+00
   1.637654e+00   3.419599e+01
  -4.482067e+01  -3.022291e+01
  -1.713967e+01  -1.308849e+01
  -1.684278e+01   2.933113e+01
   1.845563e+01   2.990729e+01
  -9.140284e+00  -2.647346e+01
  -5.455697e+01   2.387298e+01
   1.267244e+01   1.031793e+01
  -1.588571e+01   8.500621e+00
   4.256529e+01   2.260656e+01
   2.893424e+01   1.677190e+01
   1.187650e+01   9.176136e+01
   1.037860e+01  -7.325913e+00
  -2.703615e+01   2.652119e+01
   2.805172e+01   1.588679e+01
  -2.361008e+00  -6.026571e+01
   7.121410e+00  -2.215816e+01
   1.204825e+01  -2.844372e+01
  -1.068901e+01   1.965997e+00
   1.915254e+01   1.110861e+00
   1.099738e+01  -2.762676e+01
  -3.719405e+01  -1.829493e+01
   3.652227e+01   2.269728e+01
  -8.244176e+01   3.782539e+01
  -5.802019e+01   3.609297e+01
   8.517394e+00   1.175642e+01
   2.331864e+01  -1.017026e+01
  -7.353651e+01  -6.089530e+01
   2.281015e+01  -3.797405e+01
   2.605102e+01  -5.778981e+01
  -6.557359e+00  -1.843525e+01
  -1.492467e+01   6.303498e+01
  -4.480678e+01  -5.059425e+01
  -4.026193e-01   1.430415e+01
   7.133203e+01   5.130323e+00
   1.065626e+01   4.771963e+01
   4.216372e+01  -8.699907e+00
  -8.880304e-01   4.729927e+00
   6.891775e+01  -1.700960e+01
  -9.888107e+00   1.463079e+01
   1.864747e+01   2.844155e+01
  -3.094059e+01   2.436622e+01
  -6.404772e+01  -2.416002e+01
  -1.999415e+01   3.498938e+01
  -3.551865e+01  -4.348886e+00
   6.782655e+00  -4.410247e+01
   2.755662e+01  -7.165198e+01
   1.930460e+01   2.756537e+01
   3.253047e+01  -1.694945e+01
   1.040844e+01  -3.754172e+01
   1.122469e+00   5.254520e+01
  -4.565031e+00  -2.022499e+01
   2.300693e+01  -8.428923e+00
   2.651405e+01  -5.957680e+01
  -6.955910e+01   3.723700e+01
   1.593671e+01   6.156178e+01
  -4.330222e+01   4.187332e+01
  -2.206648e+01  -3.113737e+01
   9.162929e+00   2.402992e+01
   1.014128e+01   1.261945e+01
   1.412108e+01   9.729829e+00
  -2.034415e+01  -2.582870e+00
   3.004599e+01  -8.981459e-01
   6.398199e+01  -2.059513e+00
   2.902369e+01  -4.277643e+00
   1.169328e+01  -5.544923e+01
   1.250360e+01  -8.019414e+00
   1.293760e+01   6.410625e+00
  -2.853746e+01  -3.376139e+01
  -2.401974e+01   2.917040e+00
   2.187532e+01   3.251479e+01
   2.596308e+01  -7.410134e+01
  -3.569599e+01   4.486237e+01
  -1.284967e+01  -4.765392e+01
  -8.005560e+01  -3.020512e+01
  -2.697320e+01   5.485260e+01
   4.043410e+01  -7.933621e+00
   2.576970e+01   4.356900e+00
   2.964789e+01   1.798245e+01
   2.567060e+01   2.911872e+01
  -4.803493e+00  -6.840601e+00
  -3.720694e+01   2.495354e+01
   4.725497e+01  -3.894120e+00
  -5.239114e+01   5.096911e+00
  -6.652524e+00  -5.422283e+01
  -2.180027e+01  -9.528023e+00
  -1.516022e+01  -5.885290e+01
   2.563896e+01  -1.208335e+01
  -4.113754e+01  -2.749172e+01
   2.152429e+01  -2.333245e+00
   9.426070e+00   6.293061e+00
  -1.592417e-01   1.749406e+01
   2.151748e+01   5.207505e+00
  -3.987120e+00  -6.841406e+00
  -5.996531e+00   2.557775e+00
  -1.453837e+01  -2.452572e+01
  -4.048108e+01  -3.718068e+01
   5.977480e+00  -3.951295e+00
   5.799374e+01   8.008922e+00
   1.967076e+00   1.999468e+00
   4.292062e+01   1.807305e+01
  -5.621915e+00   6.480471e+01
  -2.726036e+01  -5.897959e+01
  -1.873547e+01   1.326102e+01
   2.796353e+01  -3.597134e+01
   2.899629e+01   7.210143e+00
   4.181123e+00   2.485957e+01
  -1.371165e+01  -4.112453e+01
  -4.921314e+01   4.923668e+01
  -6.144120e+00  -1.950727e+01
  -6.810462e+01   1.866445e+01
  -3.326686e+01  -5.050136e+00
   1.171927e+01  -3.015958e+01
  -1.810891e+01  -5.088068e+01
  -4.496882e+01  -8.096946e+00
   3.297214e+01  -9.611683e+00
   2.311603e+01  -3.061143e+01
   4.874755e+00  -1.756863e+01
   4.426760e+01  -5.015892e+01
   2.228979e+01   8.251785e+00
  -1.393376e+01   2.564890e+01
  -1.840244e+01   1.568618e+01
  -1.044011e+01   5.245081e+00
   8.874970e+00   4.044182e+01
  -8.292055e+00  -6.391028e+00
  -1.948427e+01   3.321725e+01
  -3.075723e+01  -1.848882e+01
   1.021347e+01   4.289560e+01
   4.259015e+01  -5.572582e+00
   2.243937e+01  -7.915638e+01
   2.800491e+01  -1.399351e+01
  -2.942797e+01  -4.031146e+01
  -1.876206e+01  -7.332102e+01
   1.084271e+01  -5.859343e+01
   4.989503e+01   2.830896e+00
   1.084845e+01  -2.179252e+01
   6.527662e+00  -2.679593e+00
  -1.799107e+00  -1.061070e+01
   1.018367e+01   2.080700e+01
   3.781501e+01   2.054285e+01
   5.446906e+01   1.618752e+01
   3.973904e+01   6.302050e+00
  -1.492968e+01   3.621317e+01
  -2.924587e+01  -3.443680e+01
   1.516139e+01   7.241415e+00
   6.256365e+00  -8.993636e+00
  -2.570651e+01   3.479875e+01
   4.522158e+01  -1.150318e+01
  -4.391555e+01   1.596384e+01
  -6.718905e+00   2.409051e+01
  -5.964321e+00   4.782112e+01
  -5.801420e+01  -2.786797e+01
   3.062453e+00  -5.327638e+00
  -4.416643e+00   2.212871e+01
  -4.178135e+01  -1.872391e+01
  -1.280902e+01  -7.359466e+00
  -1.075586e+01   4.181957e+01
  -1.176532e+01   3.277025e+01
   3.234027e+01   1.724222e+01
   3.460369e+01   1.064488e+01
   1.935082e+00   3.508953e+01
  -4.396537e+01   3.572419e+01
   3.803199e+01  -1.553209e+01
   4.984201e+01  -6.529592e+00
  -1.478478e+01  -1.864249e+01
   1.441705e+01  -4.984164e+01
  -2.692318e+01   3.931104e+01
   4.547160e+00   1.484009e+01
  -3.603699e+01   5.428383e+01
   7.938754e+01   3.547360e+01
   1.933035e+00   3.213622e+01
   6.203625e+01  -5.112016e+01
  -5.046574e+01   2.933575e+01
  -2.819474e-01   2.058935e+01
  -2.057576e+01   1.452531e+01
   5.613991e+01  -2.602099e+01
  -5.370279e+00   2.181207e+01
   1.490468e+01  -2.488418e+00
  -8.252261e+01   1.560571e+01
  -1.666806e+01   3.093844e+01
   1.827112e+01   4.064994e+00
   9.627263e+00  -8.133997e+00
  -5.183333e+00   4.171067e+01
  -6.791076e+00  -9.394346e+00
   1.467289e+00   9.092848e+00
  -1.421103e+00  -8.459318e-01
   4.180263e+01   5.306682e+01
   1.836886e+01  -4.875766e+01
  -3.596932e+01   4.106736e+01
   3.601560e+01   2.941933e+01
  -5.833854e+01  -3.187290e+00
  -3.471796e+01   6.016645e+01
   2.602702e+01   9.600339e+00
  -2.976824e+01  -3.515213e+01
   2.861354e+01  -4.712388e+01
  -3.030366e+00  -1.618507e+01
  -5.241036e-02  -1.692500e+01
   2.009649e+01   1.449255e+01
  -1.104162e+01  -3.847278e+01
  -1.583010e+01   1.407119e+00
   6.283395e+01  -3.885226e+01
   3.383812e+01   3.586581e+01
  -1.388981e+01  -1.101722e+01
  -1.982272e+01  -1.386338e+01
  -8.771999e+00  -1.957089e+01
   4.073147e+01   6.404242e+01
   1.992844e+01  -7.191771e+00
  -1.669049e+01   4.116593e+00
  -8.458881e+01   1.269820e+01
   4.605324e+01  -5.602249e+01
   4.713574e+01  -7.988498e+00
   5.825273e+00  -5.256207e+01
  -4.424101e+01  -2.905604e+01
  -4.454825e+01  -2.705894e+01
  -1.865751e+01  -5.659362e+00
  -6.408307e+01   9.570225e+00
   2.707786e+01  -5.900952e+00
   4.168407e+01  -1.478166e+01
   2.370639e+01  -5.060111e+00
  -2.771402e+00   6.394808e+01
   1.944926e+01   9.736104e+00
  -3.579884e+01  -3.531802e+01
   2.376603e+01   5.892070e+01
