
 $NMID
 id='ANONYMOUS ', fmtdat='(2E16.6)'
 volume=1.0
 tramp=1.0
 $END
  -5.757078e+07  -1.218156e+06
  -3.354752e+07  -3.660414e+07
   8.753362e+06  -3.872258e+07
   2.842932e+07  -1.397698e+07
   1.633789e+07   7.768469e+06
  -3.729939e+06   9.331706e+06
  -9.819249e+06  -1.652577e+06
  -2.401375e+06  -9.938500e+06
   6.525266e+06  -9.105738e+06
   9.758946e+06  -1.674720e+06
   6.960038e+06   6.396702e+06
   7.117206e+05   8.680498e+06
  -4.088863e+06   2.763380e+06
  -2.608227e+06  -5.415281e+06
   3.891950e+06  -6.415805e+06
   7.902805e+06   1.587568e+06
   4.246467e+06   1.043161e+07
  -4.109321e+06   1.186255e+07
  -1.040697e+07   5.808292e+06
  -1.102398e+07  -2.273832e+06
  -6.695259e+06  -7.817683e+06
  -5.311550e+05  -8.978954e+06
   3.261126e+06  -6.169398e+06
   2.139410e+06  -2.526094e+06
  -1.070205e+06  -1.918373e+06
  -3.623082e+05  -4.110173e+06
   5.365572e+06  -4.480548e+06
   9.737942e+06  -5.345529e+05
   7.137448e+06   4.220672e+06
   3.060496e+05   5.215152e+06
  -3.723645e+06   2.724602e+06
  -2.599614e+06   1.337086e+05
   3.747680e+05  -9.324138e+05
   2.126490e+06  -6.311107e+05
   2.261420e+06   1.281058e+06
   8.301693e+05   3.936451e+06
  -1.848251e+06   3.959933e+06
  -3.431402e+06  -1.090661e+05
  -1.792909e+06  -3.802924e+06
   8.991327e+05  -2.084008e+06
   4.708315e+05   2.407838e+06
  -2.445058e+06   2.261678e+06
  -2.373994e+06  -3.291949e+06
   2.688298e+06  -6.134416e+06
   7.191579e+06  -7.887412e+05
   5.069371e+06   7.234202e+06
  -2.189886e+06   8.651812e+06
  -7.616240e+06   2.311340e+06
  -6.904301e+06  -4.594586e+06
  -1.711149e+06  -6.050182e+06
   3.513322e+06  -2.617344e+06
   5.177574e+06   1.629685e+06
   2.301021e+06   3.519158e+06
  -2.512430e+06   2.127324e+06
  -4.543093e+06  -1.050392e+06
  -1.883050e+06  -2.798315e+06
   1.775959e+06  -1.347289e+06
   1.701115e+06   1.050166e+06
  -1.386951e+06   8.144879e+05
  -2.399132e+06  -1.928697e+06
   8.522326e+05  -3.489558e+06
   4.830419e+06  -1.751059e+06
   5.321916e+06   1.567457e+06
   2.222674e+06   4.099920e+06
  -1.876065e+06   5.309791e+06
  -5.052848e+06   4.875384e+06
  -6.270317e+06   1.745655e+06
  -4.652628e+06  -3.228018e+06
  -9.187785e+05  -6.239649e+06
   1.951666e+06  -4.729742e+06
   1.778545e+06  -1.099952e+06
   5.215646e+04   3.197233e+05
  -1.684857e+05  -1.035233e+06
   1.548766e+06  -1.912740e+06
   2.854064e+06  -3.497906e+05
   2.114183e+06   1.868430e+06
   1.157702e+05   2.143746e+06
  -1.496063e+06   2.637636e+05
  -1.679549e+06  -2.009227e+06
  -3.271602e+04  -2.926691e+06
   2.780345e+06  -1.693276e+06
   4.539449e+06   1.194208e+06
   3.262710e+06   3.845911e+06
  -8.902597e+04   4.326456e+06
  -2.383400e+06   2.743601e+06
  -2.308906e+06   1.093694e+06
  -1.850555e+06   6.247838e+05
  -2.930343e+06   4.320279e+05
  -4.327762e+06  -7.994846e+05
  -3.458335e+06  -2.780991e+06
  -1.142083e+05  -4.112027e+06
   3.194904e+06  -3.890474e+06
   4.161564e+06  -2.148630e+06
   2.683774e+06   3.869424e+05
   3.268319e+05   2.243850e+06
  -1.077321e+06   1.970191e+06
  -5.766603e+05  -2.368351e+04
   1.079504e+06  -1.321660e+06
   1.919770e+06  -3.942151e+05
   9.360048e+05   1.225511e+06
  -5.030795e+05   1.119016e+06
  -3.960335e+05  -3.797101e+05
   1.086102e+06  -6.245298e+05
   1.794115e+06   1.392584e+06
   5.063503e+05   3.501176e+06
  -1.694465e+06   3.286123e+06
  -3.115694e+06   9.588739e+05
  -3.199572e+06  -1.491839e+06
  -2.193440e+06  -2.704591e+06
  -4.423771e+05  -2.554918e+06
   1.224055e+06  -1.461055e+06
   1.571146e+06  -2.410199e+05
   4.920587e+05   4.667528e+04
  -3.539963e+05  -7.535505e+05
   4.368661e+05  -1.347091e+06
   1.935614e+06  -5.620495e+05
   2.031862e+06   9.241501e+05
   3.586366e+05   1.431391e+06
  -1.178023e+06   5.559650e+05
  -8.655854e+05  -4.529980e+05
   8.509262e+05  -4.756296e+05
   2.130028e+06   3.584436e+05
   1.683710e+06   1.339825e+06
  -2.676561e+05   1.920094e+06
  -2.294715e+06   1.618182e+06
  -2.763602e+06   2.571843e+05
  -1.209854e+06  -1.284178e+06
   9.437027e+05  -1.516239e+06
   1.588667e+06  -1.788560e+05
   2.050600e+05   1.101660e+06
  -1.528330e+06   7.349490e+05
  -1.709130e+06  -8.009822e+05
  -3.054979e+05  -1.648302e+06
   1.107314e+06  -9.397883e+05
   1.237244e+06   3.453991e+05
   2.154370e+05   7.847150e+05
  -8.111087e+05   4.073590e+04
  -7.391517e+05  -1.064938e+06
   5.767110e+05  -1.432513e+06
   2.014290e+06  -5.478145e+05
   2.042707e+06   1.055522e+06
   3.759957e+05   2.083980e+06
  -1.458471e+06   1.636546e+06
  -1.729794e+06   1.915009e+05
  -4.860188e+05  -8.737631e+05
   6.664365e+05  -7.923011e+05
   6.203620e+05  -8.110818e+04
  -1.224753e+05   3.292421e+05
  -4.607108e+05   1.877366e+05
  -8.222540e+04  -4.176736e+04
   4.555077e+05   1.248247e+05
   4.900530e+05   6.997919e+05
  -2.357298e+05   1.183643e+06
  -1.392835e+06   8.811715e+05
  -2.080613e+06  -4.266034e+05
  -1.460675e+06  -1.952751e+06
   2.215407e+05  -2.415730e+06
   1.608414e+06  -1.388344e+06
   1.662163e+06   1.397295e+05
   8.306130e+05   8.679826e+05
   3.234812e+05   6.022453e+05
   5.120206e+05   2.014821e+05
   6.510075e+05   3.375612e+05
   8.509623e+04   7.854380e+05
  -8.868560e+05   8.883914e+05
  -1.436725e+06   3.054152e+05
  -1.026345e+06  -7.115881e+05
   2.601228e+05  -1.427195e+06
   1.715076e+06  -1.048855e+06
   2.233202e+06   4.919761e+05
   1.109359e+06   2.102749e+06
  -1.041666e+06   2.354872e+06
  -2.556868e+06   9.988937e+05
  -2.326399e+06  -6.882933e+05
  -9.148664e+05  -1.329227e+06
   2.169789e+05  -9.068687e+05
   3.585043e+05  -4.889273e+05
   4.239780e+04  -7.713631e+05
   9.661980e+04  -1.338198e+06
   6.873815e+05  -1.302471e+06
   1.309233e+06  -3.168632e+05
   1.342309e+06   1.082753e+06
   5.568457e+05   1.895156e+06
  -6.209796e+05   1.437172e+06
  -1.280778e+06  -9.494975e+03
  -7.972139e+05  -1.294553e+06
   4.143146e+05  -1.389479e+06
   1.177400e+06  -3.706665e+05
   7.984798e+05   7.360437e+05
  -1.581651e+05   1.085783e+06
  -5.681851e+05   7.645232e+05
  -9.421587e+04   3.981035e+05
   4.413735e+05   3.315050e+05
   6.437274e+04   3.818346e+05
  -1.158606e+06   1.992625e+05
  -2.075538e+06  -3.489349e+05
  -1.611145e+06  -1.051270e+06
   6.637972e+04  -1.442804e+06
   1.617675e+06  -1.135745e+06
   1.835342e+06  -2.558435e+05
   8.152791e+05   5.204304e+05
  -2.775091e+05   5.774157e+05
  -5.150719e+05   1.887439e+04
  -3.291931e+04  -4.408167e+05
   4.356705e+05  -2.665423e+05
   4.852724e+05   3.427221e+05
   2.772378e+05   7.241932e+05
   1.170128e+05   4.846459e+05
   1.298755e+05  -8.034461e+04
   2.563368e+05  -2.789403e+05
   2.701169e+05   2.336669e+05
  -1.281485e+05   9.823787e+05
  -9.020719e+05   1.069984e+06
  -1.393825e+06   1.820339e+05
  -8.799425e+05  -9.221402e+05
   4.215697e+05  -1.161659e+06
   1.280908e+06  -3.561449e+05
   7.405908e+05   5.660347e+05
  -7.071207e+05   6.413805e+05
  -1.572975e+06  -1.074838e+05
  -9.699887e+05  -8.605677e+05
   5.030402e+05  -9.603199e+05
   1.481232e+06  -4.436377e+05
   1.203716e+06   2.040006e+05
   1.221791e+05   5.040449e+05
  -6.490870e+05   2.553159e+05
  -3.906600e+05  -3.048634e+05
   5.753439e+05  -5.405895e+05
   1.192677e+06   5.773348e+04
   7.044380e+05   1.176029e+06
  -5.559505e+05   1.726013e+06
  -1.471815e+06   9.166848e+05
  -1.264637e+06  -7.416495e+05
  -2.160655e+05  -1.785502e+06
   7.310562e+05  -1.280935e+06
   9.149635e+05   1.914289e+05
   4.133829e+05   1.187721e+06
  -2.395461e+05   9.474421e+05
  -5.668220e+05   7.216858e+04
  -4.483031e+05  -3.663360e+05
  -1.433854e+05  -1.242403e+05
  -5.519974e+04   8.635995e+04
  -3.093646e+05  -3.175805e+05
  -5.237724e+05  -9.737345e+05
  -1.682928e+05  -1.065464e+06
   7.434827e+05  -3.846052e+05
   1.471730e+06   4.566748e+05
   1.256156e+06   8.248011e+05
   1.832323e+05   7.025553e+05
  -8.275472e+05   4.320309e+05
  -9.718373e+05   1.797837e+05
  -3.784609e+05  -7.076191e+04
   1.350966e+05  -2.314471e+05
   6.087836e+04  -1.838092e+05
  -2.375287e+05  -6.817422e+04
  -6.486574e+04  -1.337226e+05
   6.282992e+05  -2.622490e+05
   1.055149e+06  -7.383446e+03
   4.879408e+05   7.056525e+05
  -8.041564e+05   1.215846e+06
  -1.724052e+06   7.956207e+05
  -1.465487e+06  -4.068790e+05
  -3.059365e+05  -1.403504e+06
   7.657037e+05  -1.397048e+06
   1.051988e+06  -5.749465e+05
   6.588394e+05   2.048680e+05
   1.533305e+05   3.615703e+05
  -4.369433e+04   9.443912e+04
   8.771645e+04   8.469636e+03
   2.867282e+05   3.728058e+05
   2.426751e+05   8.050905e+05
  -1.657104e+05   6.926261e+05
  -6.825992e+05  -8.652065e+04
  -7.805897e+05  -9.244012e+05
  -1.700545e+05  -1.044899e+06
   7.365131e+05  -2.989250e+05
   1.067027e+06   6.769015e+05
   3.893921e+05   1.094460e+06
  -7.044986e+05   7.186499e+05
  -1.143495e+06  -5.097799e+04
  -5.585909e+05  -6.353785e+05
   2.866136e+05  -7.174630e+05
   4.066463e+05  -3.770334e+05
  -2.176312e+05   1.358649e+04
  -6.433799e+05   5.628205e+04
  -1.621468e+05  -3.155019e+05
   8.175168e+05  -6.885624e+05
   1.279797e+06  -5.297534e+05
   7.962368e+05   1.994191e+05
  -8.296040e+04   8.878362e+05
  -5.733060e+05   8.760071e+05
  -4.630315e+05   1.875842e+05
  -8.227169e+04  -4.691527e+05
   2.298435e+05  -4.606769e+05
   3.593283e+05   1.107828e+05
   2.697679e+05   5.749249e+05
  -4.236016e+04   4.596586e+05
  -3.970038e+05  -2.467816e+04
  -4.892163e+05  -2.974552e+05
  -2.418975e+05  -1.123731e+05
   4.853607e+04   1.774635e+05
   7.538446e+04   9.313412e+04
  -6.546419e+04  -3.419501e+05
  -1.590062e+04  -5.987298e+05
   3.062778e+05  -2.865169e+05
   5.157958e+05   3.417801e+05
   2.268858e+05   6.521338e+05
  -3.904275e+05   3.421687e+05
  -6.976335e+05  -2.503069e+05
  -2.845951e+05  -5.608205e+05
   5.133352e+05  -3.797219e+05
   9.096243e+05   4.768089e+04
   4.981618e+05   3.709794e+05
  -2.914922e+05   4.322042e+05
  -6.513655e+05   2.701141e+05
  -2.779447e+05   2.422329e+04
   3.144396e+05  -1.081754e+05
   4.024523e+05   1.645684e+04
  -1.295133e+05   2.785159e+05
  -6.921614e+05   2.968797e+05
