
 $NMID
 id='ANONYMOUS ', fmtdat='(2E16.6)'
 volume=1.0
 tramp=1.0
 $END
  -3.474860e+03  -1.837085e+02
  -1.939216e+03  -2.280407e+03
   7.591682e+02  -2.255471e+03
   1.835839e+03  -6.437188e+02
   7.321107e+02   6.817224e+02
  -6.282185e+02   5.201746e+02
  -7.504820e+02  -4.097831e+02
   4.893782e+01  -9.687772e+02
   7.708566e+02  -6.539212e+02
   8.256917e+02   1.561116e+02
   3.406769e+02   7.923108e+02
  -3.152561e+02   7.585693e+02
  -5.856223e+02   4.533488e+01
  -2.868412e+02  -6.777011e+02
   3.199589e+02  -6.454685e+02
   5.448560e+02   2.877823e+01
   2.212666e+02   6.193051e+02
  -2.973198e+02   5.521791e+02
  -5.201354e+02   8.618781e+01
  -3.465832e+02  -3.073513e+02
  -1.950810e+00  -3.872363e+02
   2.328386e+02  -2.263643e+02
   1.881999e+02   2.220105e+01
  -1.155220e+02   1.032096e+02
  -3.769894e+02  -1.248395e+02
  -1.570012e+02  -4.160144e+02
   4.384547e+02  -3.586601e+02
   7.477819e+02   1.214734e+02
   3.483210e+02   5.264499e+02
  -3.884326e+02   4.331860e+02
  -6.567861e+02  -6.792776e+01
  -2.949024e+02  -4.605299e+02
   2.695978e+02  -4.609108e+02
   5.214011e+02  -1.538641e+02
   3.813848e+02   2.390692e+02
   4.185880e+01   4.310997e+02
  -2.029105e+02   2.236527e+02
  -1.327571e+02  -2.355854e+02
   1.960706e+02  -3.802885e+02
   4.110335e+02   5.189727e+01
   1.632340e+02   6.165042e+02
  -3.428309e+02   5.930615e+02
  -5.396939e+02  -3.931749e+01
  -1.673426e+02  -5.076709e+02
   3.176365e+02  -2.837028e+02
   3.648408e+02   2.941616e+02
  -7.179965e+01   4.888378e+02
  -4.922287e+02   1.322257e+02
  -5.298611e+02  -3.752130e+02
  -1.323014e+02  -5.335000e+02
   3.687474e+02  -3.068308e+02
   5.576446e+02   9.258484e+01
   3.092753e+02   3.605717e+02
  -1.486839e+02   3.240764e+02
  -3.866399e+02   6.718177e+00
  -1.759221e+02  -2.030429e+02
   1.363985e+02  -8.924974e+01
   1.230790e+02   1.559786e+02
  -1.646244e+02   1.672342e+02
  -3.053996e+02  -6.865300e+01
  -1.121390e+02  -2.669656e+02
   1.817852e+02  -2.297803e+02
   2.923588e+02  -8.023949e+01
   1.941676e+02   7.810467e+01
  -2.208783e+00   2.128871e+02
  -1.949373e+02   2.949890e+02
  -3.086604e+02   1.822039e+02
  -2.595882e+02  -1.425757e+02
  -6.090652e+01  -3.966777e+02
   1.171541e+02  -3.249614e+02
   1.142250e+02  -7.644217e+01
   1.426060e+01   1.351889e+01
   3.062424e+01  -8.940348e+01
   1.731505e+02  -1.179705e+02
   2.565623e+02   5.547817e+01
   1.422488e+02   2.504136e+02
  -7.468778e+01   2.414459e+02
  -2.273325e+02   1.654216e+01
  -1.936868e+02  -2.215127e+02
   8.708632e+00  -2.794819e+02
   2.507557e+02  -1.163735e+02
   3.292219e+02   1.555746e+02
   1.602570e+02   3.206712e+02
  -9.998617e+01   2.744851e+02
  -2.086412e+02   9.953675e+01
  -1.351039e+02   2.841773e+00
  -9.403733e+01   3.292434e+01
  -2.088776e+02   5.260196e+01
  -3.473364e+02  -6.452986e+01
  -2.892599e+02  -2.548375e+02
   2.771337e+00  -3.993023e+02
   3.190310e+02  -3.718538e+02
   4.453452e+02  -1.650481e+02
   3.099766e+02   1.058791e+02
   3.856950e+01   2.794770e+02
  -1.312215e+02   2.155156e+02
  -8.172859e+01   1.167675e+01
   1.001033e+02  -9.509425e+01
   1.678177e+02   1.810903e+01
   3.157450e+01   1.772556e+02
  -1.528882e+02   1.308492e+02
  -1.461935e+02  -6.771266e+01
   3.282447e+01  -1.729473e+02
   1.753658e+02  -2.273392e+01
   1.351148e+02   2.210531e+02
  -3.616484e+01   3.034207e+02
  -2.054770e+02   1.720806e+02
  -2.884441e+02  -4.804946e+01
  -2.444610e+02  -2.118086e+02
  -6.553306e+01  -2.434029e+02
   1.131295e+02  -1.471014e+02
   1.559466e+02  -3.085294e+00
   3.981576e+01   4.252470e+01
  -6.852290e+01  -3.237479e+01
  -2.329039e+01  -1.142319e+02
   1.141585e+02  -8.896412e+01
   1.579860e+02   1.707879e+01
   4.390744e+01   6.997030e+01
  -7.668668e+01   1.704960e+01
  -5.374446e+01  -7.329605e+01
   1.013025e+02  -8.887484e+01
   2.451931e+02  -1.105658e+01
   2.398649e+02   1.238399e+02
   6.118411e+01   2.329526e+02
  -1.581910e+02   2.375010e+02
  -2.518600e+02   1.064643e+02
  -1.503062e+02  -5.683598e+01
   2.413698e+01  -1.004429e+02
   8.278663e+01  -2.164348e+00
  -2.986148e+01   9.406592e+01
  -1.728195e+02   4.969616e+01
  -1.830458e+02  -9.625696e+01
  -5.292461e+01  -1.841285e+02
   8.681065e+01  -1.385823e+02
   1.278886e+02  -2.099805e+01
   5.823659e+01   4.194650e+01
  -3.040515e+01   5.777443e+00
  -3.650194e+01  -7.816539e+01
   6.312905e+01  -1.066165e+02
   1.754227e+02  -2.735003e+01
   1.677750e+02   1.138084e+02
   1.814868e+01   1.980021e+02
  -1.453411e+02   1.425230e+02
  -1.702677e+02  -3.515811e+00
  -5.524548e+01  -1.048111e+02
   6.214088e+01  -9.546649e+01
   7.308316e+01  -2.125987e+01
   1.519798e+01   2.700795e+01
  -2.078222e+01   1.859417e+01
   4.657555e+00  -8.353881e+00
   6.004411e+01   4.043728e+00
   7.884876e+01   6.889491e+01
   1.670118e+01   1.385839e+02
  -1.110549e+02   1.375916e+02
  -2.097931e+02   2.384532e+01
  -1.790623e+02  -1.369918e+02
  -3.047140e+01  -2.144936e+02
   1.055558e+02  -1.474541e+02
   1.240789e+02  -1.913811e+01
   5.997551e+01   5.284453e+01
   2.113132e+01   3.065985e+01
   4.457656e+01  -1.409053e+01
   7.126113e+01  -4.819451e+00
   3.887074e+01   4.597151e+01
  -3.725918e+01   7.716320e+01
  -8.901271e+01   4.849815e+01
  -7.585167e+01  -3.001679e+01
   8.669410e+00  -9.724105e+01
   1.219256e+02  -7.871721e+01
   1.735177e+02   4.011141e+01
   9.065901e+01   1.758068e+02
  -9.248738e+01   2.062709e+02
  -2.382966e+02   9.233315e+01
  -2.301758e+02  -7.496101e+01
  -9.381154e+01  -1.595956e+02
   3.454525e+01  -1.314676e+02
   7.962815e+01  -7.259536e+01
   6.401366e+01  -5.940573e+01
   5.372226e+01  -8.169960e+01
   8.233426e+01  -6.673083e+01
   1.142659e+02   1.767601e+01
   1.038391e+02   1.327444e+02
   2.343779e+01   1.956960e+02
  -8.777991e+01   1.461442e+02
  -1.538882e+02   1.325298e+01
  -1.178949e+02  -1.116164e+02
  -1.239186e+01  -1.411622e+02
   6.566592e+01  -7.760292e+01
   6.020308e+01   3.887914e+00
   5.476172e+00   4.138155e+01
  -9.950831e+00   3.226521e+01
   2.951027e+01   1.508995e+01
   6.671787e+01   2.215557e+01
   3.490209e+01   3.583305e+01
  -5.942431e+01   3.398102e+01
  -1.371365e+02   1.502318e+00
  -1.245400e+02  -4.906382e+01
  -1.197789e+01  -8.375614e+01
   1.061622e+02  -6.659897e+01
   1.298114e+02  -8.539006e+00
   4.577421e+01   4.229313e+01
  -4.757245e+01   3.616321e+01
  -6.734392e+01  -1.625606e+01
  -9.926589e+00  -5.935655e+01
   4.549368e+01  -5.105653e+01
   5.433064e+01   3.986188e+00
   3.849896e+01   4.516046e+01
   3.695895e+01   3.873265e+01
   4.873790e+01   2.693429e+00
   5.239861e+01  -1.498179e+00
   3.195022e+01   5.753723e+01
  -2.478499e+01   1.289659e+02
  -1.032394e+02   1.260839e+02
  -1.478246e+02   3.292086e+01
  -1.121880e+02  -7.923904e+01
  -8.834273e+00  -1.138553e+02
   7.530650e+01  -5.742062e+01
   5.283701e+01   1.265077e+01
  -4.927159e+01   1.933118e+01
  -1.177407e+02  -3.622885e+01
  -7.144861e+01  -9.418429e+01
   6.544883e+01  -1.032105e+02
   1.627037e+02  -5.015266e+01
   1.473262e+02   3.030127e+01
   3.508770e+01   7.676415e+01
  -5.375400e+01   6.167211e+01
  -4.315681e+01   3.727985e+00
   3.550949e+01  -2.687669e+01
   7.997889e+01   2.070424e+01
   2.849471e+01   1.075043e+02
  -8.292418e+01   1.339180e+02
  -1.479032e+02   4.899556e+01
  -1.081703e+02  -9.425815e+01
  -1.083157e+01  -1.773738e+02
   7.819728e+01  -1.250892e+02
   9.707792e+01   6.200823e+00
   5.789565e+01   1.042170e+02
  -1.899440e+00   9.600405e+01
  -4.264895e+01   2.025586e+01
  -4.349767e+01  -2.692337e+01
  -1.908812e+01  -6.943572e+00
  -3.945831e+00   2.020572e+01
  -2.249614e+01  -8.340925e+00
  -4.984248e+01  -7.534411e+01
  -3.591230e+01  -9.873708e+01
   4.599963e+01  -4.395730e+01
   1.214949e+02   3.619693e+01
   1.078634e+02   6.812414e+01
   1.204960e+01   4.795374e+01
  -7.523330e+01   1.970704e+01
  -7.558551e+01   2.787743e+00
  -1.063704e+01  -8.235327e+00
   3.401983e+01  -1.732993e+01
   1.500155e+01  -1.232305e+01
  -1.670298e+01   1.689684e+00
   5.203746e+00   6.425763e+00
   6.203886e+01   5.258548e+00
   7.805323e+01   2.406981e+01
   9.622281e+00   6.828269e+01
  -1.010877e+02   9.573211e+01
  -1.589144e+02   5.367331e+01
  -1.239174e+02  -5.348270e+01
  -2.215549e+01  -1.374200e+02
   6.782023e+01  -1.306794e+02
   9.460310e+01  -5.267290e+01
   6.843011e+01   1.967959e+01
   2.498550e+01   3.491063e+01
   1.556370e+00   7.528362e+00
   8.720675e+00   1.034416e+00
   2.686631e+01   4.115570e+01
   1.819349e+01   8.296406e+01
  -2.716608e+01   6.599762e+01
  -7.060324e+01  -1.743246e+01
  -6.489283e+01  -9.789828e+01
  -1.580778e+00  -9.950653e+01
   7.351669e+01  -1.932111e+01
   8.976451e+01   6.715180e+01
   2.800887e+01   9.076651e+01
  -5.793942e+01   5.030021e+01
  -8.493213e+01  -8.402303e+00
  -3.609451e+01  -4.290753e+01
   2.635620e+01  -4.560943e+01
   2.704910e+01  -2.492547e+01
  -2.581918e+01  -8.114980e-01
  -5.929208e+01   6.362841e+00
  -1.533392e+01  -2.104444e+01
   6.528401e+01  -5.577601e+01
   1.016222e+02  -5.161349e+01
   5.850547e+01   9.767257e+00
  -1.278558e+01   6.994204e+01
  -4.760129e+01   6.673331e+01
  -3.092790e+01   4.824599e+00
   2.144079e+00  -4.817676e+01
   2.544209e+01  -3.688820e+01
   3.100363e+01   1.834158e+01
   1.931301e+01   5.082802e+01
  -4.406362e+00   2.937621e+01
  -2.813644e+01  -8.759122e+00
  -3.394163e+01  -2.028563e+01
  -1.833932e+01  -2.464397e+00
   7.270827e-01   1.260160e+01
   6.988462e+00  -1.053537e+00
   4.218529e+00  -3.012765e+01
   1.183269e+01  -3.756909e+01
   2.389541e+01  -8.852441e+00
   2.657200e+01   3.606353e+01
   9.902989e-01   4.891978e+01
  -3.814634e+01   1.794763e+01
  -5.028130e+01  -3.213934e+01
  -1.324656e+01  -5.372400e+01
   4.764222e+01  -3.051563e+01
   7.756234e+01   1.172600e+01
   4.202242e+01   3.859768e+01
  -2.394002e+01   3.819970e+01
  -5.405962e+01   2.009519e+01
  -2.018433e+01   3.696757e+00
   2.997657e+01   2.546132e+00
   2.863166e+01   1.544539e+01
  -2.682576e+01   2.855842e+01
  -7.728317e+01   1.445527e+01
