
 $NMID
 id='ANONYMOUS ', fmtdat='(2E16.6)'
 volume=1.0
 tramp=1.0
 $END
  -3.590879e+03   1.246328e+01
  -2.189373e+03  -1.852699e+03
   2.133909e+02  -2.121156e+03
   1.454663e+03  -1.059019e+03
   9.235796e+02   1.004129e+02
  -1.864594e+02   2.854029e+02
  -5.099500e+02  -1.761321e+02
  -6.737417e+01  -6.950714e+02
   5.369527e+02  -6.380711e+02
   7.242955e+02  -4.121811e+01
   4.363797e+02   6.162217e+02
  -8.532097e+01   7.147446e+02
  -4.087551e+02   1.790147e+02
  -2.948499e+02  -5.053111e+02
   1.516949e+02  -6.102285e+02
   4.707464e+02  -8.707884e+01
   2.946571e+02   5.257630e+02
  -1.664120e+02   6.089863e+02
  -4.927079e+02   2.232545e+02
  -4.192428e+02  -2.059116e+02
  -9.386323e+01  -3.915490e+02
   1.597992e+02  -2.487932e+02
   1.187016e+02  -5.492519e+01
  -1.415927e+02  -3.386400e+01
  -3.020397e+02  -2.340877e+02
  -5.328529e+01  -3.767814e+02
   4.388464e+02  -2.412856e+02
   6.597496e+02   1.492552e+02
   3.128999e+02   4.043961e+02
  -3.067917e+02   2.949628e+02
  -5.660724e+02  -9.438287e+01
  -2.551672e+02  -3.892884e+02
   2.516132e+02  -4.056512e+02
   4.996602e+02  -1.746168e+02
   3.673425e+02   1.752109e+02
   8.732288e+01   3.560150e+02
  -7.795839e+01   2.214873e+02
  -2.906797e+01  -1.177387e+02
   1.675052e+02  -2.346846e+02
   2.664012e+02   9.387058e+01
   6.877977e+01   5.156484e+02
  -2.824273e+02   5.053568e+02
  -4.003155e+02  -1.202886e+00
  -1.440825e+02  -3.903679e+02
   1.988263e+02  -2.377262e+02
   2.364118e+02   2.494905e+02
  -7.652629e+01   4.182154e+02
  -4.644511e+02   1.098382e+02
  -5.044434e+02  -3.404656e+02
  -1.628647e+02  -5.022838e+02
   3.131986e+02  -2.958896e+02
   5.385574e+02   5.895408e+01
   3.450854e+02   2.833958e+02
  -8.014728e+01   2.475372e+02
  -3.253933e+02   6.590367e+01
  -2.166847e+02  -9.403919e+01
   3.664731e+01  -5.581850e+01
   8.602690e+01   7.932577e+01
  -1.132557e+02   1.058956e+02
  -2.655579e+02  -5.185585e+01
  -1.364438e+02  -2.312419e+02
   1.627363e+02  -2.508915e+02
   3.318175e+02  -1.116526e+02
   2.457450e+02   9.538377e+01
  -1.552168e+01   2.857701e+02
  -2.528771e+02   3.363447e+02
  -3.399751e+02   1.633910e+02
  -2.425700e+02  -1.430336e+02
  -6.754911e+01  -3.556537e+02
   4.748862e+01  -3.297810e+02
   5.424414e+01  -1.553818e+02
   4.136518e+01  -6.400253e+01
   1.033121e+02  -9.644790e+01
   2.169149e+02  -7.130084e+01
   2.369109e+02   9.208815e+01
   1.097399e+02   2.559924e+02
  -8.358517e+01   2.138794e+02
  -2.011054e+02  -1.666836e+01
  -1.611848e+02  -2.408558e+02
   3.390819e+01  -2.572923e+02
   2.432672e+02  -7.899991e+01
   3.131223e+02   1.585173e+02
   1.727257e+02   2.857842e+02
  -5.365549e+01   2.618537e+02
  -1.723368e+02   1.477249e+02
  -1.446142e+02   7.102444e+01
  -1.352184e+02   6.767107e+01
  -2.608613e+02   4.369477e+01
  -3.856781e+02  -9.212920e+01
  -3.096612e+02  -2.846828e+02
   1.141408e+01  -4.236534e+02
   3.491328e+02  -3.954170e+02
   4.684556e+02  -1.908677e+02
   3.010723e+02   8.919302e+01
   4.152286e+01   2.601927e+02
  -9.989191e+01   2.189739e+02
  -3.408956e+01   3.921601e+01
   1.081936e+02  -5.542731e+01
   1.487242e+02   2.513704e+01
   2.866927e+01   1.606031e+02
  -1.341634e+02   1.322778e+02
  -1.351336e+02  -4.814015e+01
   1.772222e+01  -1.490351e+02
   1.610828e+02  -1.402549e+01
   1.534379e+02   2.259091e+02
  -1.713301e+01   3.269755e+02
  -2.230797e+02   1.956539e+02
  -3.349051e+02  -5.049718e+01
  -2.719465e+02  -2.377287e+02
  -6.644840e+01  -2.633179e+02
   1.162102e+02  -1.418916e+02
   1.487523e+02  -1.094659e+01
   3.817954e+01   2.057453e+01
  -5.631964e+01  -5.129134e+01
  -6.754488e+00  -1.157449e+02
   1.198546e+02  -8.061654e+01
   1.526964e+02   1.831261e+01
   3.873513e+01   5.898161e+01
  -7.858851e+01  -3.681658e-01
  -4.189340e+01  -8.080692e+01
   1.363195e+02  -8.342649e+01
   2.815836e+02   5.344400e+00
   2.502558e+02   1.448714e+02
   4.137455e+01   2.540350e+02
  -1.909484e+02   2.445286e+02
  -2.676387e+02   1.056713e+02
  -1.447152e+02  -4.953144e+01
   2.281458e+01  -8.567606e+01
   6.938542e+01   9.920393e-01
  -4.215465e+01   8.809583e+01
  -1.767426e+02   4.310310e+01
  -1.876704e+02  -9.861112e+01
  -6.300402e+01  -1.861538e+02
   8.300462e+01  -1.360005e+02
   1.218308e+02  -2.068695e+01
   5.035198e+01   3.364774e+01
  -3.467715e+01  -1.416717e+01
  -3.089259e+01  -9.749132e+01
   8.365850e+01  -1.129228e+02
   1.965319e+02  -1.918534e+01
   1.804449e+02   1.231402e+02
   1.997623e+01   2.050601e+02
  -1.487782e+02   1.541223e+02
  -1.759380e+02   1.116636e+01
  -6.022497e+01  -9.787452e+01
   6.095036e+01  -9.945038e+01
   7.255321e+01  -2.727044e+01
   7.843169e+00   2.612998e+01
  -3.120199e+01   1.223652e+01
   8.234625e+00  -1.954513e+01
   8.062404e+01  -1.895657e-01
   9.881473e+01   8.184804e+01
   1.538746e+01   1.642459e+02
  -1.299691e+02   1.501247e+02
  -2.271978e+02   2.036936e+01
  -1.904090e+02  -1.478962e+02
  -3.928144e+01  -2.227232e+02
   9.987737e+01  -1.580145e+02
   1.294661e+02  -2.978842e+01
   7.280131e+01   4.743443e+01
   2.990257e+01   3.052096e+01
   4.969665e+01  -1.877899e+01
   8.188568e+01  -9.623442e+00
   5.423477e+01   5.424204e+01
  -3.556348e+01   9.785074e+01
  -1.118304e+02   6.384224e+01
  -1.001650e+02  -3.980814e+01
   1.326980e+01  -1.227649e+02
   1.537102e+02  -8.853307e+01
   2.018120e+02   5.357751e+01
   9.084816e+01   2.006536e+02
  -1.123943e+02   2.188589e+02
  -2.588962e+02   8.959151e+01
  -2.402759e+02  -7.934415e+01
  -1.001807e+02  -1.586593e+02
   3.415359e+01  -1.353343e+02
   8.251732e+01  -8.081185e+01
   6.733176e+01  -6.926240e+01
   5.664344e+01  -9.223509e+01
   8.610230e+01  -7.926131e+01
   1.274574e+02   1.519955e+01
   1.182836e+02   1.494478e+02
   3.070768e+01   2.220715e+02
  -9.615641e+01   1.656925e+02
  -1.682221e+02   1.449647e+01
  -1.298394e+02  -1.211811e+02
  -1.613890e+01  -1.522844e+02
   7.058551e+01  -8.158742e+01
   6.441171e+01   1.111022e+01
   1.520829e-02   5.082017e+01
  -2.799289e+01   3.691011e+01
   2.433713e+01   1.165723e+01
   7.938042e+01   1.650049e+01
   4.825428e+01   3.648151e+01
  -6.935748e+01   3.830268e+01
  -1.652347e+02   5.908637e-01
  -1.393061e+02  -5.902788e+01
  -3.638957e+00  -9.320728e+01
   1.259893e+02  -7.092246e+01
   1.376286e+02  -8.867297e+00
   4.219039e+01   4.419717e+01
  -5.406144e+01   4.210514e+01
  -7.145133e+01  -1.549724e+01
  -1.609771e+01  -6.954785e+01
   4.561691e+01  -6.236242e+01
   6.520339e+01  -1.456148e+00
   5.241597e+01   4.968092e+01
   4.135146e+01   4.128085e+01
   5.219454e+01  -4.159925e+00
   6.402255e+01  -4.666600e+00
   4.688896e+01   6.813690e+01
  -1.987038e+01   1.482205e+02
  -1.184465e+02   1.474144e+02
  -1.725956e+02   3.700910e+01
  -1.259996e+02  -8.821088e+01
  -4.720790e+00  -1.271568e+02
   8.617737e+01  -6.442028e+01
   5.845595e+01   1.313948e+01
  -6.229234e+01   2.228191e+01
  -1.357379e+02  -3.902549e+01
  -7.713843e+01  -1.089777e+02
   8.165322e+01  -1.101620e+02
   1.864459e+02  -5.126857e+01
   1.538045e+02   3.196597e+01
   3.135450e+01   7.889729e+01
  -6.112900e+01   6.051698e+01
  -4.517767e+01  -8.668280e-01
   4.074840e+01  -2.946757e+01
   8.931079e+01   1.771848e+01
   3.509333e+01   1.100911e+02
  -7.863933e+01   1.518550e+02
  -1.506716e+02   6.628980e+01
  -1.212750e+02  -8.700488e+01
  -2.090969e+01  -1.823116e+02
   7.189839e+01  -1.375728e+02
   1.004024e+02   5.137193e+00
   6.019191e+01   1.126796e+02
  -3.756120e+00   9.879776e+01
  -4.666501e+01   1.706046e+01
  -4.638141e+01  -2.991164e+01
  -1.767506e+01  -9.020285e+00
  -5.263151e+00   1.852928e+01
  -2.768440e+01  -1.777081e+01
  -5.807960e+01  -8.485315e+01
  -3.686639e+01  -1.032517e+02
   5.120715e+01  -4.508712e+01
   1.330874e+02   3.278421e+01
   1.190072e+02   6.590631e+01
   1.597209e+01   5.222794e+01
  -7.583117e+01   2.512370e+01
  -8.113434e+01   6.092827e+00
  -1.578359e+01  -1.313336e+01
   3.496442e+01  -1.988007e+01
   1.919867e+01  -1.120450e+01
  -1.541887e+01   3.515333e+00
   3.734494e+00   4.176591e+00
   6.582221e+01  -1.817370e+00
   9.075579e+01   2.255644e+01
   2.013510e+01   7.696436e+01
  -9.977594e+01   1.145173e+02
  -1.786557e+02   7.024452e+01
  -1.492933e+02  -4.845643e+01
  -3.696598e+01  -1.511817e+02
   7.237333e+01  -1.534129e+02
   1.075717e+02  -6.507514e+01
   7.455115e+01   1.786345e+01
   2.575792e+01   3.570674e+01
   1.300307e+00   9.942648e+00
   1.263008e+01   4.655796e+00
   3.025744e+01   4.554215e+01
   2.160135e+01   8.591358e+01
  -2.469247e+01   6.990387e+01
  -7.522138e+01  -1.215529e+01
  -7.945113e+01  -9.585770e+01
  -1.526856e+01  -1.058584e+02
   7.485717e+01  -3.234292e+01
   1.039388e+02   6.040207e+01
   3.994341e+01   9.687424e+01
  -5.986073e+01   6.230333e+01
  -9.698185e+01  -3.636574e+00
  -4.278711e+01  -5.087813e+01
   3.080864e+01  -5.534758e+01
   3.501077e+01  -2.710085e+01
  -2.716671e+01   5.583840e+00
  -6.677956e+01   9.198314e+00
  -1.979581e+01  -2.563097e+01
   7.402336e+01  -6.383672e+01
   1.138435e+02  -5.175484e+01
   6.536939e+01   1.626034e+01
  -1.421655e+01   8.057444e+01
  -5.257820e+01   7.732184e+01
  -3.948318e+01   1.100493e+01
  -6.351030e+00  -5.099997e+01
   2.221876e+01  -4.643981e+01
   3.535884e+01   9.835164e+00
   2.972870e+01   5.132728e+01
   2.006396e+00   3.820519e+01
  -3.090079e+01  -3.813681e+00
  -4.135506e+01  -2.220169e+01
  -2.001726e+01  -3.189921e+00
   2.698991e+00   1.656848e+01
   8.580447e+00   5.001728e+00
  -1.067069e+00  -3.050616e+01
   4.013732e+00  -4.583157e+01
   2.739619e+01  -1.890265e+01
   3.754770e+01   3.499530e+01
   9.470384e+00   5.527641e+01
  -3.937764e+01   2.404570e+01
  -5.943045e+01  -2.958851e+01
  -2.005139e+01  -5.791840e+01
   4.993830e+01  -3.663415e+01
   8.565432e+01   7.493355e+00
   4.972229e+01   3.882806e+01
  -2.424824e+01   4.347483e+01
  -5.974638e+01   2.805689e+01
  -2.558607e+01   5.843491e+00
   2.919180e+01  -3.516486e+00
   3.316489e+01   8.486758e+00
  -2.401626e+01   2.808623e+01
  -7.988916e+01   2.089053e+01
