
 $NMID
 id='ANONYMOUS ', fmtdat='(2E16.6)'
 volume=1.0
 tramp=1.0
 $END
   3.761616e+03   7.172333e+01
   2.414500e+03   2.118812e+03
  -2.582190e+02   2.504585e+03
  -1.715968e+03   1.296847e+03
  -1.124298e+03  -1.462780e+02
   1.489496e+02  -4.743883e+02
   6.304131e+02   1.469090e+02
   9.601152e+01   8.009146e+02
  -6.460703e+02   7.365739e+02
  -8.450996e+02   1.812168e+01
  -4.842811e+02  -7.091388e+02
   1.192964e+02  -8.059157e+02
   4.914284e+02  -1.688316e+02
   3.098358e+02   5.686153e+02
  -2.193752e+02   6.613510e+02
  -5.258307e+02   4.583883e+01
  -3.311168e+02  -6.223850e+02
   2.233806e+02  -7.111807e+02
   5.847012e+02  -2.523555e+02
   5.035363e+02   2.819585e+02
   1.112662e+02   4.372888e+02
  -1.901534e+02   2.880402e+02
  -1.379868e+02   5.916741e+01
   1.735889e+02   2.856937e+01
   3.414745e+02   2.316977e+02
   6.118345e+01   4.016932e+02
  -4.951479e+02   2.570964e+02
  -7.417594e+02  -1.584940e+02
  -3.228567e+02  -4.511818e+02
   3.797944e+02  -3.316287e+02
   6.300269e+02   9.206458e+01
   2.613186e+02   4.378004e+02
  -2.980578e+02   4.544180e+02
  -5.440271e+02   1.404748e+02
  -3.884771e+02  -2.357856e+02
  -7.113986e+01  -4.225692e+02
   1.096796e+02  -2.400427e+02
   4.872891e+01   1.460886e+02
  -1.924749e+02   2.689732e+02
  -3.147897e+02  -1.046169e+02
  -9.845047e+01  -6.019317e+02
   3.253846e+02  -5.574248e+02
   4.715561e+02   2.227723e+00
   1.795607e+02   4.205764e+02
  -2.281889e+02   1.934547e+02
  -2.751777e+02  -3.134621e+02
   1.094338e+02  -4.834958e+02
   5.102810e+02  -9.161089e+01
   5.630013e+02   4.413185e+02
   1.538203e+02   6.014020e+02
  -3.775508e+02   3.263886e+02
  -6.139954e+02  -9.150440e+01
  -3.825991e+02  -3.434638e+02
   1.107354e+02  -3.138528e+02
   3.664232e+02  -7.846216e+01
   2.500678e+02   1.021686e+02
  -4.040095e+01   6.491808e+01
  -9.677358e+01  -8.629836e+01
   1.255637e+02  -1.079129e+02
   2.886268e+02   6.239239e+01
   1.373523e+02   2.451631e+02
  -1.893763e+02   2.741175e+02
  -3.829487e+02   1.203919e+02
  -2.621891e+02  -1.301006e+02
   4.589088e+01  -3.387075e+02
   3.077265e+02  -3.735666e+02
   3.970685e+02  -1.698217e+02
   2.654090e+02   1.940924e+02
   5.452856e+01   4.259512e+02
  -9.065125e+01   3.527356e+02
  -7.132368e+01   1.458233e+02
  -3.179840e+01   6.437332e+01
  -1.181061e+02   1.175825e+02
  -2.560842e+02   7.819216e+01
  -2.808608e+02  -1.202883e+02
  -1.153006e+02  -2.916859e+02
   1.058715e+02  -2.238896e+02
   2.231011e+02   3.844121e+01
   1.532201e+02   2.683862e+02
  -4.564775e+01   2.854820e+02
  -2.803783e+02   8.230420e+01
  -3.564305e+02  -1.946908e+02
  -1.894881e+02  -3.554775e+02
   8.222061e+01  -3.092973e+02
   2.210066e+02  -1.519244e+02
   1.791395e+02  -4.940180e+01
   1.540997e+02  -5.091110e+01
   2.878916e+02  -3.481593e+01
   4.355673e+02   1.095034e+02
   3.403418e+02   3.400108e+02
  -4.034982e+01   4.808469e+02
  -4.186394e+02   4.257177e+02
  -5.320960e+02   1.753678e+02
  -3.354854e+02  -1.189540e+02
  -3.010241e+01  -2.883961e+02
   1.216586e+02  -2.285585e+02
   5.072470e+01  -4.220346e+01
  -1.150449e+02   5.839446e+01
  -1.569131e+02  -3.455382e+01
  -1.853873e+01  -1.705793e+02
   1.412986e+02  -1.383381e+02
   1.459774e+02   6.140245e+01
  -2.794050e+01   1.660817e+02
  -1.882779e+02   1.481910e+01
  -1.660096e+02  -2.596138e+02
   3.746513e+01  -3.752376e+02
   2.690424e+02  -2.131366e+02
   3.753963e+02   8.073373e+01
   2.917747e+02   2.825079e+02
   6.545234e+01   2.873042e+02
  -1.411732e+02   1.555888e+02
  -1.737072e+02   6.716116e+00
  -4.174134e+01  -2.557001e+01
   6.229270e+01   6.310209e+01
   5.732735e+00   1.311448e+02
  -1.381042e+02   8.047108e+01
  -1.728885e+02  -3.250176e+01
  -4.300603e+01  -7.092890e+01
   8.776833e+01   4.698328e+00
   4.390732e+01   9.927139e+01
  -1.515306e+02   9.335046e+01
  -3.131586e+02  -2.186867e+01
  -2.760668e+02  -1.866476e+02
  -3.304832e+01  -2.901388e+02
   2.295498e+02  -2.587615e+02
   3.046449e+02  -9.450155e+01
   1.612832e+02   6.833966e+01
  -3.595966e+01   1.008934e+02
  -8.054839e+01  -3.575802e+00
   5.297903e+01  -9.281269e+01
   2.060581e+02  -3.197009e+01
   2.061053e+02   1.208431e+02
   5.755830e+01   2.121353e+02
  -1.045830e+02   1.532694e+02
  -1.441465e+02   1.941320e+01
  -5.760863e+01  -4.525732e+01
   4.138020e+01   1.541934e+01
   2.884130e+01   1.169111e+02
  -1.021329e+02   1.289403e+02
  -2.277036e+02   1.396990e+01
  -1.978748e+02  -1.558386e+02
  -9.228875e+00  -2.367740e+02
   1.804716e+02  -1.634215e+02
   2.020731e+02   1.676720e+00
   6.368479e+01   1.152747e+02
  -7.107615e+01   1.053383e+02
  -8.367186e+01   2.514959e+01
  -5.745678e+00  -2.708160e+01
   3.946748e+01  -9.350300e+00
  -9.369363e+00   2.568830e+01
  -9.366532e+01  -7.750677e-01
  -1.102958e+02  -1.021636e+02
  -8.505548e+00  -1.902034e+02
   1.596460e+02  -1.665398e+02
   2.645098e+02  -9.760292e+00
   2.107205e+02   1.815033e+02
   3.226970e+01   2.599764e+02
  -1.226362e+02   1.758623e+02
  -1.506289e+02   2.749322e+01
  -8.144358e+01  -5.664052e+01
  -3.441578e+01  -3.579226e+01
  -5.792707e+01   1.401741e+01
  -9.276077e+01   1.498024e+00
  -5.520938e+01  -6.445631e+01
   4.925236e+01  -1.129911e+02
   1.332284e+02  -6.599312e+01
   1.118266e+02   5.318467e+01
  -2.451832e+01   1.377983e+02
  -1.768122e+02   9.009277e+01
  -2.218510e+02  -7.831209e+01
  -8.826499e+01  -2.366134e+02
   1.449088e+02  -2.401703e+02
   3.018014e+02  -8.265725e+01
   2.732733e+02   1.072439e+02
   1.070270e+02   1.938347e+02
  -4.749224e+01   1.564157e+02
  -1.022501e+02   9.100142e+01
  -8.165320e+01   7.772906e+01
  -6.792328e+01   1.007805e+02
  -1.052992e+02   8.164087e+01
  -1.461646e+02  -2.499891e+01
  -1.272181e+02  -1.676517e+02
  -2.003141e+01  -2.442261e+02
   1.176004e+02  -1.818302e+02
   1.911950e+02  -1.118508e+01
   1.377029e+02   1.455869e+02
   5.739029e+00   1.780392e+02
  -8.645824e+01   8.930116e+01
  -7.084054e+01  -1.411292e+01
   2.706052e+00  -5.644234e+01
   2.263013e+01  -3.653665e+01
  -3.185089e+01  -1.778076e+01
  -8.791521e+01  -2.807449e+01
  -4.948240e+01  -5.074315e+01
   7.941650e+01  -4.267994e+01
   1.842318e+02   7.779931e+00
   1.567688e+02   7.549761e+01
   2.327499e+00   1.092781e+02
  -1.437792e+02   7.686934e+01
  -1.604276e+02  -1.047224e+00
  -4.799928e+01  -6.225727e+01
   6.801183e+01  -4.769266e+01
   8.406610e+01   2.514534e+01
   1.613668e+01   8.568692e+01
  -5.755695e+01   7.180581e+01
  -7.586070e+01  -2.790102e+00
  -5.975786e+01  -5.946938e+01
  -5.175552e+01  -5.078000e+01
  -6.270976e+01  -4.937370e+00
  -6.993623e+01  -8.276976e+00
  -4.357620e+01  -8.644317e+01
   4.048505e+01  -1.714952e+02
   1.430145e+02  -1.522787e+02
   2.004152e+02  -2.447194e+01
   1.407387e+02   1.132685e+02
  -5.768233e-02   1.460544e+02
  -1.037452e+02   6.886174e+01
  -6.690932e+01  -1.702411e+01
   6.203766e+01  -2.198385e+01
   1.452827e+02   5.223701e+01
   7.411509e+01   1.168684e+02
  -9.111563e+01   1.204798e+02
  -2.052212e+02   4.409749e+01
  -1.733420e+02  -4.978246e+01
  -3.634563e+01  -9.571858e+01
   6.660334e+01  -6.973449e+01
   5.149539e+01   1.139178e+00
  -4.700130e+01   3.046865e+01
  -1.028060e+02  -2.656848e+01
  -3.666364e+01  -1.315477e+02
   9.706968e+01  -1.698088e+02
   1.805319e+02  -7.038005e+01
   1.364027e+02   1.104294e+02
   4.339660e+00   2.102713e+02
  -1.015024e+02   1.477218e+02
  -1.163303e+02  -2.167167e+01
  -5.456790e+01  -1.373418e+02
   2.227126e+01  -1.128429e+02
   5.898186e+01  -1.390091e+01
   5.012981e+01   3.857565e+01
   2.024465e+01   7.402427e+00
   6.741232e+00  -2.019800e+01
   3.168931e+01   2.065500e+01
   6.113705e+01   9.994370e+01
   3.283470e+01   1.195815e+02
  -6.487411e+01   4.985127e+01
  -1.511928e+02  -4.430760e+01
  -1.333056e+02  -8.101118e+01
  -1.638402e+01  -6.240131e+01
   9.049872e+01  -2.673246e+01
   9.180683e+01  -4.139202e-01
   1.421619e+01   1.314900e+01
  -4.173101e+01   2.033464e+01
  -1.932283e+01   1.009648e+01
   1.858882e+01  -2.877579e+00
  -4.506517e+00  -4.413401e+00
  -7.467149e+01  -3.313776e+00
  -1.018760e+02  -3.136166e+01
  -2.056335e+01  -9.116241e+01
   1.226932e+02  -1.259188e+02
   2.085358e+02  -6.211561e+01
   1.663514e+02   6.928373e+01
   3.262437e+01   1.732121e+02
  -8.939938e+01   1.638085e+02
  -1.277012e+02   6.703354e+01
  -8.829186e+01  -2.459415e+01
  -2.929721e+01  -4.504864e+01
  -1.968659e+00  -1.369216e+01
  -1.244938e+01  -6.861415e+00
  -3.039083e+01  -5.186830e+01
  -1.442021e+01  -1.011100e+02
   3.569076e+01  -8.115643e+01
   8.777450e+01   1.923530e+01
   8.472434e+01   1.181462e+02
   7.331579e+00   1.255092e+02
  -8.879743e+01   3.059604e+01
  -1.159316e+02  -8.106145e+01
  -3.998381e+01  -1.178602e+02
   7.593491e+01  -6.912862e+01
   1.160159e+02   1.224425e+01
   4.844609e+01   6.454463e+01
  -3.972058e+01   6.617562e+01
  -4.247844e+01   3.090214e+01
   3.091294e+01  -6.223630e+00
   7.605842e+01  -8.468434e+00
   1.710960e+01   3.223457e+01
  -8.979724e+01   7.098539e+01
  -1.326135e+02   5.044079e+01
  -7.570322e+01  -2.359432e+01
   1.880010e+01  -9.288567e+01
   6.634761e+01  -8.680333e+01
   5.053840e+01  -9.492749e+00
   2.922431e+00   5.900583e+01
  -3.213510e+01   4.971909e+01
  -4.168730e+01  -1.697291e+01
  -2.588277e+01  -6.353084e+01
   6.851823e+00  -4.374180e+01
   3.810033e+01   8.264453e+00
   4.174339e+01   3.100062e+01
   2.017829e+01   5.235266e+00
  -1.943956e+00  -2.255439e+01
  -4.056192e+00  -8.128447e+00
   2.910692e+00   3.737502e+01
  -6.831029e+00   5.768762e+01
  -3.136722e+01   2.174709e+01
  -4.355009e+01  -4.211109e+01
  -9.932146e+00  -6.874885e+01
   4.776819e+01  -2.762142e+01
   6.992620e+01   4.125828e+01
   2.085554e+01   6.968680e+01
  -6.410201e+01   3.927383e+01
  -1.039949e+02  -1.617119e+01
  -5.541592e+01  -5.111808e+01
   3.439789e+01  -5.018947e+01
   7.436622e+01  -2.809567e+01
   3.162688e+01  -4.931932e+00
  -3.377314e+01   3.595202e+00
  -3.751193e+01  -9.607885e+00
   2.754265e+01  -3.050795e+01
   8.971900e+01  -2.183033e+01
