
 $NMID
 id='ANONYMOUS ', fmtdat='(2E16.6)'
 volume=1.0
 tramp=1.0
 $END
   4.272906e+03   1.975656e+02
   2.392076e+03   2.662333e+03
  -7.772771e+02   2.737859e+03
  -2.114439e+03   8.917854e+02
  -8.868820e+02  -6.805154e+02
   7.642305e+02  -5.536487e+02
   8.966047e+02   4.981457e+02
  -9.255905e+01   1.120641e+03
  -9.099738e+02   7.353751e+02
  -9.571363e+02  -1.801570e+02
  -3.902642e+02  -9.321487e+02
   3.241806e+02  -8.825912e+02
   6.549488e+02  -5.386904e+01
   3.499285e+02   7.846419e+02
  -3.084928e+02   7.567774e+02
  -6.008436e+02  -1.651958e+01
  -2.553883e+02  -7.143864e+02
   3.323308e+02  -6.233618e+02
   5.856679e+02  -7.114647e+01
   3.632167e+02   3.656740e+02
  -1.692181e+00   4.400981e+02
  -2.523195e+02   2.431244e+02
  -2.179943e+02  -1.686344e+01
   1.249493e+02  -1.134111e+02
   4.418742e+02   1.190310e+02
   2.074696e+02   4.563319e+02
  -4.788763e+02   4.291413e+02
  -8.779628e+02  -8.261654e+01
  -4.540688e+02  -5.532593e+02
   4.104950e+02  -4.933140e+02
   7.726551e+02   5.676619e+01
   3.526023e+02   5.172216e+02
  -3.130014e+02   5.346256e+02
  -6.143470e+02   1.982009e+02
  -4.452503e+02  -2.454921e+02
  -6.539302e+01  -4.764354e+02
   2.142039e+02  -2.671841e+02
   1.691999e+02   2.445778e+02
  -1.952066e+02   4.374948e+02
  -4.700077e+02  -3.505297e+01
  -2.293301e+02  -6.983193e+02
   3.455958e+02  -7.090190e+02
   6.226237e+02   1.832342e+01
   2.324232e+02   5.834307e+02
  -3.291778e+02   3.438986e+02
  -4.034585e+02  -3.340219e+02
   8.798787e+01  -5.620047e+02
   5.827199e+02  -1.531019e+02
   6.085820e+02   4.087319e+02
   1.439119e+02   6.019972e+02
  -4.121470e+02   3.461592e+02
  -6.413421e+02  -1.108774e+02
  -3.578692e+02  -4.084522e+02
   1.960588e+02  -3.539349e+02
   4.537636e+02  -1.350271e+01
   2.129453e+02   2.272761e+02
  -1.460353e+02   9.458527e+01
  -1.459788e+02  -1.773757e+02
   1.765887e+02  -2.040792e+02
   3.506527e+02   8.341304e+01
   1.294935e+02   3.096686e+02
  -2.185002e+02   2.581143e+02
  -3.309459e+02   6.153844e+01
  -1.934596e+02  -9.855643e+01
   2.224732e+01  -2.406310e+02
   2.171926e+02  -3.309448e+02
   3.380197e+02  -2.094165e+02
   2.888344e+02   1.343275e+02
   8.251658e+01   4.177495e+02
  -1.054903e+02   3.633859e+02
  -1.025956e+02   9.840584e+01
  -4.333508e+00  -7.585734e+00
  -2.728905e+01   9.803909e+01
  -1.975296e+02   1.417362e+02
  -2.819694e+02  -5.099049e+01
  -1.599193e+02  -2.773201e+02
   7.856314e+01  -2.638616e+02
   2.385706e+02  -1.176101e+01
   2.010463e+02   2.495164e+02
  -1.896363e+01   3.040832e+02
  -2.740574e+02   1.140536e+02
  -3.609094e+02  -1.733042e+02
  -1.789607e+02  -3.580823e+02
   1.054091e+02  -3.111860e+02
   2.382435e+02  -1.129330e+02
   1.505132e+02   6.712355e+00
   9.325035e+01  -3.088821e+01
   2.262371e+02  -7.137262e+01
   3.912798e+02   4.577380e+01
   3.358926e+02   2.821971e+02
   7.333856e+00   4.489050e+02
  -3.635140e+02   4.159926e+02
  -4.917218e+02   1.941192e+02
  -3.356386e+02  -1.027482e+02
  -4.509332e+01  -2.996876e+02
   1.408777e+02  -2.462675e+02
   8.238797e+01  -1.411192e+01
  -1.161145e+02   1.168074e+02
  -2.030238e+02  -7.767173e+00
  -5.871012e+01  -2.060672e+02
   1.730028e+02  -1.799548e+02
   1.895520e+02   6.080980e+01
  -1.214229e+01   1.995863e+02
  -1.975700e+02   4.099354e+01
  -1.710005e+02  -2.394617e+02
   2.600975e+01  -3.413648e+02
   2.326419e+02  -1.911702e+02
   3.238684e+02   5.568021e+01
   2.642607e+02   2.354049e+02
   8.089900e+01   2.680171e+02
  -1.162898e+02   1.581868e+02
  -1.763690e+02   1.196182e+01
  -5.467938e+01  -4.435019e+01
   7.302714e+01   3.231505e+01
   3.218017e+01   1.275711e+02
  -1.234499e+02   1.027197e+02
  -1.794083e+02  -1.912711e+01
  -5.735904e+01  -7.988512e+01
   8.447404e+01  -2.005200e+01
   5.991291e+01   6.991199e+01
  -1.226766e+02   8.451410e+01
  -2.772525e+02   1.261869e+00
  -2.598982e+02  -1.298306e+02
  -6.275127e+01  -2.522282e+02
   1.801551e+02  -2.654672e+02
   2.844047e+02  -1.311426e+02
   1.682594e+02   5.637558e+01
  -2.697516e+01   1.171402e+02
  -9.334864e+01   1.092859e+01
   3.311481e+01  -1.084407e+02
   1.964356e+02  -6.502613e+01
   2.073264e+02   9.993443e+01
   6.615226e+01   2.076186e+02
  -9.693662e+01   1.573712e+02
  -1.411006e+02   2.864352e+01
  -6.861560e+01  -4.396880e+01
   2.850244e+01  -8.372749e+00
   4.112027e+01   7.769273e+01
  -6.642425e+01   1.125733e+02
  -1.915966e+02   3.404216e+01
  -1.916424e+02  -1.153663e+02
  -2.296755e+01  -2.171628e+02
   1.650877e+02  -1.660401e+02
   1.949357e+02  -3.310387e+00
   6.315339e+01   1.201091e+02
  -7.150646e+01   1.140697e+02
  -8.712239e+01   2.905570e+01
  -1.957540e+01  -2.966200e+01
   2.011663e+01  -2.252361e+01
  -1.043519e+01   3.287760e+00
  -6.810235e+01  -1.092677e+01
  -8.543605e+01  -7.905832e+01
  -1.718485e+01  -1.511031e+02
   1.174237e+02  -1.494291e+02
   2.256749e+02  -3.267340e+01
   2.022611e+02   1.429235e+02
   4.545888e+01   2.328706e+02
  -1.107280e+02   1.683722e+02
  -1.403570e+02   2.444899e+01
  -6.910031e+01  -6.113986e+01
  -2.272308e+01  -3.474759e+01
  -4.692950e+01   1.999271e+01
  -7.704404e+01   9.712665e+00
  -4.130875e+01  -4.795930e+01
   4.015608e+01  -8.277208e+01
   9.656241e+01  -5.441839e+01
   8.290322e+01   3.112526e+01
  -9.564522e+00   1.075890e+02
  -1.364493e+02   9.188590e+01
  -1.943290e+02  -4.426126e+01
  -1.005240e+02  -1.958999e+02
   1.008212e+02  -2.252836e+02
   2.595641e+02  -9.902396e+01
   2.467692e+02   8.045259e+01
   1.015863e+02   1.755873e+02
  -4.290230e+01   1.415812e+02
  -8.935437e+01   7.523858e+01
  -7.167989e+01   6.222911e+01
  -6.007143e+01   8.911315e+01
  -8.857904e+01   7.270285e+01
  -1.283085e+02  -2.179971e+01
  -1.163992e+02  -1.526264e+02
  -2.869575e+01  -2.217326e+02
   9.503046e+01  -1.689143e+02
   1.718744e+02  -1.898383e+01
   1.366248e+02   1.188702e+02
   2.067518e+01   1.555193e+02
  -6.321059e+01   8.694653e+01
  -5.881444e+01  -6.773046e-01
  -4.738473e+00  -4.061050e+01
   1.083915e+01  -3.322294e+01
  -3.618648e+01  -1.356083e+01
  -7.827507e+01  -2.118223e+01
  -4.557307e+01  -3.758693e+01
   6.409675e+01  -3.711289e+01
   1.554655e+02  -5.916776e+00
   1.381681e+02   4.714013e+01
   1.279657e+01   8.648624e+01
  -1.188679e+02   7.484493e+01
  -1.385855e+02   1.662365e+01
  -4.435247e+01  -3.697982e+01
   5.449151e+01  -3.702974e+01
   6.883568e+01   1.769251e+01
   6.087743e+00   6.389271e+01
  -5.171263e+01   5.299851e+01
  -5.809941e+01  -3.409459e+00
  -4.100737e+01  -4.548691e+01
  -4.109958e+01  -3.713028e+01
  -5.738040e+01   6.408789e-01
  -6.341053e+01   3.293247e+00
  -3.808697e+01  -6.171495e+01
   2.398660e+01  -1.391766e+02
   1.107731e+02  -1.402342e+02
   1.591975e+02  -3.746295e+01
   1.201130e+02   8.480028e+01
   5.947751e+00   1.234153e+02
  -8.314982e+01   6.035497e+01
  -5.524093e+01  -1.455723e+01
   6.129630e+01  -2.488552e+01
   1.383751e+02   3.905901e+01
   8.175507e+01   1.064249e+02
  -7.742995e+01   1.124594e+02
  -1.816353e+02   5.352270e+01
  -1.559959e+02  -3.051773e+01
  -3.689019e+01  -8.116060e+01
   5.717151e+01  -6.718155e+01
   4.672765e+01  -7.047924e+00
  -3.752754e+01   2.398471e+01
  -8.690944e+01  -2.121513e+01
  -2.828191e+01  -1.119708e+02
   8.668237e+01  -1.461449e+02
   1.566643e+02  -5.791874e+01
   1.186480e+02   9.627286e+01
   7.853788e+00   1.901753e+02
  -8.380294e+01   1.391200e+02
  -1.033157e+02  -5.860649e+00
  -6.282031e+01  -1.157270e+02
  -1.116721e+00  -1.061293e+02
   4.503302e+01  -2.257703e+01
   5.102385e+01   3.002029e+01
   2.462570e+01   8.714244e+00
   5.707550e+00  -2.060331e+01
   2.332758e+01   1.415069e+01
   5.640318e+01   8.406399e+01
   3.858481e+01   1.054932e+02
  -4.919794e+01   4.428601e+01
  -1.337844e+02  -3.837287e+01
  -1.245737e+02  -6.803070e+01
  -1.582348e+01  -4.959259e+01
   8.295504e+01  -2.306975e+01
   8.471583e+01  -8.493074e+00
   9.885884e+00   8.239759e+00
  -3.883970e+01   2.129575e+01
  -1.637624e+01   1.544134e+01
   2.001257e+01  -1.898108e+00
  -3.016048e+00  -8.875826e+00
  -6.814924e+01  -5.769629e+00
  -8.694085e+01  -2.241164e+01
  -8.719715e+00  -7.601499e+01
   1.138501e+02  -1.063432e+02
   1.804722e+02  -5.631326e+01
   1.361945e+02   6.522047e+01
   2.169699e+01   1.563506e+02
  -7.931944e+01   1.471870e+02
  -1.099157e+02   5.873247e+01
  -7.776602e+01  -2.240591e+01
  -2.342377e+01  -3.617978e+01
   3.233112e+00  -8.437841e+00
  -1.196408e+01  -2.479284e+00
  -3.335914e+01  -4.608692e+01
  -2.145397e+01  -8.816424e+01
   2.834650e+01  -6.954674e+01
   7.722714e+01   1.869182e+01
   7.464833e+01   1.039127e+02
   3.970219e+00   1.049253e+02
  -8.048719e+01   1.969482e+01
  -9.823101e+01  -7.458210e+01
  -2.984080e+01  -9.949995e+01
   6.353675e+01  -5.465457e+01
   9.418807e+01   7.906079e+00
   3.912727e+01   4.627301e+01
  -2.875005e+01   4.974109e+01
  -2.810081e+01   2.933044e+01
   3.304519e+01  -6.422103e-01
   6.561055e+01  -7.927411e+00
   1.536458e+01   2.423899e+01
  -7.495860e+01   6.674907e+01
  -1.098179e+02   5.916080e+01
  -6.028007e+01  -1.264801e+01
   1.365892e+01  -8.113191e+01
   4.783969e+01  -7.569038e+01
   3.166283e+01  -5.368300e+00
   1.160294e+00   5.299431e+01
  -2.277437e+01   3.997625e+01
  -3.259831e+01  -1.914124e+01
  -2.420438e+01  -5.213986e+01
   2.677212e+00  -3.033763e+01
   3.073722e+01   9.403793e+00
   3.797543e+01   1.986471e+01
   1.947961e+01   7.599148e-01
   8.945137e-02  -1.388597e+01
  -7.204465e+00   4.879595e+00
  -6.864818e+00   3.682337e+01
  -1.459970e+01   4.249076e+01
  -2.966696e+01   5.900023e+00
  -2.876616e+01  -4.478905e+01
   3.255536e+00  -5.607842e+01
   4.469250e+01  -1.800415e+01
   5.483223e+01   3.824299e+01
   1.277361e+01   6.067834e+01
  -5.449537e+01   3.514227e+01
  -8.672496e+01  -1.227724e+01
  -4.760944e+01  -4.278110e+01
   2.808489e+01  -4.146208e+01
   6.273444e+01  -2.086610e+01
   2.396464e+01  -2.422525e+00
  -3.605021e+01   4.435741e-01
  -3.711301e+01  -1.433665e+01
   2.916940e+01  -3.113597e+01
   8.669431e+01  -1.843208e+01
