
 $NMID
 id='ANONYMOUS ', fmtdat='(2E16.6)'
 volume=1.0
 tramp=1.0
 $END
   2.887279e+03  -2.454026e+01
   2.064414e+03   1.379709e+03
   3.850131e+02   1.850397e+03
  -8.273782e+02   1.422444e+03
  -9.347202e+02   5.625022e+02
  -2.880490e+02  -2.005557e+01
   1.632060e+02  -9.274417e+00
   5.742371e+01   3.792949e+02
  -3.062342e+02   5.168299e+02
  -5.398683e+02   1.490854e+02
  -4.269782e+02  -3.649982e+02
  -1.110271e+02  -5.410634e+02
   1.859479e+02  -2.087247e+02
   2.034353e+02   2.890391e+02
  -4.797535e+01   4.671729e+02
  -3.375903e+02   1.144508e+02
  -3.378040e+02  -3.845307e+02
   3.807826e+00  -6.124146e+02
   3.751595e+02  -3.630170e+02
   4.655180e+02   6.999748e+01
   1.933349e+02   3.144944e+02
  -5.913007e+01   2.352117e+02
  -1.534637e+01   6.602054e+01
   2.222304e+02   1.317575e+02
   2.479706e+02   3.305704e+02
  -7.329141e+01   3.587790e+02
  -4.943751e+02   8.828582e+01
  -5.329549e+02  -2.477007e+02
  -1.307493e+02  -3.284783e+02
   3.410920e+02  -1.058358e+02
   4.484372e+02   1.891384e+02
   1.341370e+02   3.401222e+02
  -2.600450e+02   2.939886e+02
  -4.222696e+02   9.682986e+01
  -2.937561e+02  -1.366370e+02
  -9.903148e+01  -2.548121e+02
  -3.181801e+01  -1.455043e+02
  -1.139317e+02   6.204959e+01
  -1.904773e+02   7.360489e+01
  -1.331850e+02  -2.007702e+02
   6.774507e+01  -4.561455e+02
   2.391973e+02  -3.465281e+02
   2.341206e+02   1.828784e+01
   4.532368e+01   2.215980e+02
  -1.377903e+02   4.741889e+01
  -1.189301e+02  -2.707339e+02
   1.334805e+02  -3.428160e+02
   4.181414e+02  -3.133950e+01
   4.762359e+02   3.461659e+02
   1.790344e+02   4.594404e+02
  -2.472705e+02   2.523808e+02
  -4.790025e+02  -3.333994e+01
  -3.345966e+02  -1.936288e+02
  -9.031328e+00  -1.909500e+02
   2.103759e+02  -8.749973e+01
   1.868618e+02  -3.806287e+01
   4.845308e+01  -1.673759e+01
   8.948636e-01  -1.799525e+01
   8.988611e+01  -5.981854e+00
   1.733025e+02   4.701591e+01
   1.025535e+02   1.570945e+02
  -1.223278e+02   2.432441e+02
  -3.295416e+02   1.811906e+02
  -2.877465e+02  -7.087515e+01
  -1.643866e+01  -3.417576e+02
   2.836338e+02  -3.987514e+02
   3.806727e+02  -1.702911e+02
   2.354741e+02   1.694556e+02
   5.336025e+01   3.475477e+02
  -1.576968e+01   2.909636e+02
   1.883977e+01   1.781256e+02
  -2.257669e+01   1.515608e+02
  -1.660574e+02   1.488308e+02
  -2.780221e+02   4.166839e+01
  -2.411956e+02  -1.454246e+02
  -7.190616e+01  -2.558092e+02
   1.087921e+02  -1.707000e+02
   1.812400e+02   5.956292e+01
   1.180463e+02   2.463222e+02
  -5.703483e+01   2.356566e+02
  -2.428174e+02   4.978061e+01
  -2.965497e+02  -1.726022e+02
  -1.696946e+02  -2.816211e+02
   3.436038e+01  -2.555685e+02
   1.373106e+02  -1.719942e+02
   1.410454e+02  -1.190641e+02
   1.674615e+02  -9.388275e+01
   3.043712e+02  -3.533295e+01
   4.292458e+02   9.838140e+01
   3.249688e+02   2.979176e+02
  -2.007824e+01   4.436662e+02
  -3.808265e+02   4.138383e+02
  -4.700312e+02   1.830097e+02
  -2.718203e+02  -9.521526e+01
  -1.345535e+01  -2.393476e+02
   7.638542e+01  -1.837433e+02
  -1.327491e+01  -2.690702e+01
  -1.283787e+02   3.256714e+01
  -1.219931e+02  -4.639494e+01
  -2.816245e+00  -1.373152e+02
   1.014057e+02  -8.523476e+01
   8.507803e+01   4.682167e+01
  -3.230341e+01   1.095671e+02
  -1.523286e+02  -1.022591e+01
  -1.573759e+02  -2.325024e+02
   3.605771e+00  -3.464975e+02
   2.389645e+02  -2.229512e+02
   3.774628e+02   4.817651e+01
   2.986632e+02   2.641498e+02
   5.836561e+01   2.776215e+02
  -1.323896e+02   1.385709e+02
  -1.422897e+02   2.626762e+00
  -2.391548e+01  -5.610837e+00
   5.024608e+01   7.314214e+01
  -1.459433e+01   1.174384e+02
  -1.282935e+02   6.262351e+01
  -1.373243e+02  -2.942557e+01
  -2.044419e+01  -5.214977e+01
   8.867233e+01   1.576977e+01
   3.841920e+01   1.031365e+02
  -1.555060e+02   1.074895e+02
  -3.190991e+02  -9.284477e+00
  -2.725560e+02  -1.767972e+02
  -2.828321e+01  -2.751746e+02
   2.124251e+02  -2.397141e+02
   2.609976e+02  -9.006111e+01
   1.268158e+02   4.464638e+01
  -3.200744e+01   6.757830e+01
  -5.429488e+01  -1.413458e+01
   6.078772e+01  -7.729592e+01
   1.809668e+02  -2.983932e+01
   1.832443e+02   1.013193e+02
   5.688276e+01   1.810728e+02
  -8.253157e+01   1.295497e+02
  -1.187244e+02   1.130689e+01
  -3.554304e+01  -3.811933e+01
   5.526459e+01   3.002010e+01
   3.103650e+01   1.272939e+02
  -1.037424e+02   1.336228e+02
  -2.198576e+02   1.585405e+01
  -1.877692e+02  -1.344607e+02
  -1.661637e+01  -2.090669e+02
   1.452769e+02  -1.506936e+02
   1.665393e+02  -1.717829e+01
   5.498087e+01   8.540712e+01
  -5.616241e+01   8.979494e+01
  -6.491399e+01   2.458841e+01
   5.074513e+00  -2.470662e+01
   4.401011e+01  -4.389464e+00
  -9.095103e+00   3.608366e+01
  -9.801205e+01   1.270114e+01
  -1.207895e+02  -9.351587e+01
  -1.909203e+01  -1.885844e+02
   1.490890e+02  -1.671817e+02
   2.516221e+02  -1.155783e+01
   2.016125e+02   1.626566e+02
   4.354260e+01   2.304273e+02
  -9.385473e+01   1.588310e+02
  -1.247810e+02   3.657693e+01
  -7.532436e+01  -3.507853e+01
  -3.586627e+01  -2.172075e+01
  -5.773591e+01   1.982961e+01
  -9.462660e+01   1.506465e+01
  -6.914614e+01  -5.858010e+01
   3.098913e+01  -1.203380e+02
   1.295418e+02  -8.542046e+01
   1.232444e+02   4.090121e+01
  -1.073852e+01   1.424930e+02
  -1.723291e+02   1.026122e+02
  -2.156940e+02  -6.221623e+01
  -8.704164e+01  -2.169700e+02
   1.336453e+02  -2.286762e+02
   2.786731e+02  -8.326696e+01
   2.508449e+02   9.448856e+01
   9.506235e+01   1.723348e+02
  -4.476889e+01   1.379148e+02
  -8.811705e+01   8.128389e+01
  -6.529444e+01   7.037490e+01
  -5.230341e+01   9.909499e+01
  -8.954286e+01   8.980559e+01
  -1.379298e+02  -1.059622e+01
  -1.308842e+02  -1.579107e+02
  -3.331777e+01  -2.342671e+02
   1.010718e+02  -1.751960e+02
   1.739418e+02  -1.229134e+01
   1.271380e+02   1.307568e+02
   9.952315e+00   1.584923e+02
  -7.883062e+01   7.877901e+01
  -6.531281e+01  -2.279062e+01
   4.653314e+00  -6.289507e+01
   3.465879e+01  -3.927034e+01
  -2.347434e+01  -1.180151e+01
  -8.511822e+01  -1.295318e+01
  -5.082613e+01  -3.877957e+01
   7.612031e+01  -4.557963e+01
   1.812932e+02  -1.319796e+00
   1.509238e+02   6.829031e+01
  -2.828218e+00   1.077444e+02
  -1.412297e+02   8.127096e+01
  -1.508311e+02   4.485792e+00
  -4.843209e+01  -5.861992e+01
   5.987928e+01  -5.085457e+01
   8.452840e+01   1.566730e+01
   2.861954e+01   7.820961e+01
  -3.980892e+01   7.234067e+01
  -7.258454e+01   9.671476e+00
  -7.189792e+01  -5.001175e+01
  -5.734473e+01  -4.501257e+01
  -5.451101e+01  -2.159218e+00
  -6.554559e+01  -6.867063e-01
  -5.142936e+01  -7.729314e+01
   1.803231e+01  -1.670505e+02
   1.276916e+02  -1.627651e+02
   1.947102e+02  -4.457738e+01
   1.448693e+02   9.459182e+01
   9.045129e+00   1.404088e+02
  -9.248863e+01   8.009665e+01
  -6.590751e+01  -5.332342e+00
   5.763085e+01  -2.175481e+01
   1.373207e+02   3.420908e+01
   6.731330e+01   1.063090e+02
  -8.227692e+01   1.135905e+02
  -1.932172e+02   5.020161e+01
  -1.585829e+02  -4.082541e+01
  -2.792699e+01  -8.875437e+01
   6.968718e+01  -6.147565e+01
   4.965341e+01   5.362220e+00
  -4.217422e+01   3.631333e+01
  -9.586132e+01  -1.407832e+01
  -4.735905e+01  -1.147024e+02
   6.751411e+01  -1.593365e+02
   1.498152e+02  -7.990057e+01
   1.297545e+02   8.066627e+01
   2.761225e+01   1.886184e+02
  -7.155332e+01   1.381996e+02
  -1.053809e+02  -8.780127e+00
  -5.476871e+01  -1.186270e+02
   1.811173e+01  -1.020063e+02
   5.650064e+01  -1.316481e+01
   4.329734e+01   3.207118e+01
   1.156971e+01   9.445559e+00
   5.678008e+00  -1.608291e+01
   3.562847e+01   2.260126e+01
   6.111285e+01   8.917321e+01
   2.886307e+01   1.044961e+02
  -5.995686e+01   4.347149e+01
  -1.352224e+02  -3.434464e+01
  -1.217103e+02  -6.756479e+01
  -2.164632e+01  -5.849743e+01
   7.563785e+01  -3.306884e+01
   8.759841e+01  -1.122233e+01
   2.511790e+01   9.514815e+00
  -2.950139e+01   2.167785e+01
  -1.991901e+01   1.092187e+01
   1.250174e+01  -4.107671e+00
   2.838165e+00  -2.670569e+00
  -5.801503e+01   8.492632e+00
  -9.442815e+01  -1.388967e+01
  -3.146847e+01  -8.029937e+01
   9.659718e+01  -1.247627e+02
   1.814435e+02  -7.991138e+01
   1.580910e+02   4.613235e+01
   4.412159e+01   1.548174e+02
  -6.880254e+01   1.596840e+02
  -1.106154e+02   7.341241e+01
  -8.093530e+01  -1.540950e+01
  -3.100659e+01  -3.752901e+01
  -6.488733e+00  -1.253684e+01
  -1.632108e+01  -7.466203e+00
  -3.017425e+01  -5.103331e+01
  -2.026160e+01  -9.362018e+01
   2.464333e+01  -7.476169e+01
   7.812044e+01   8.473519e+00
   8.783995e+01   9.420780e+01
   2.680916e+01   1.095161e+02
  -6.945580e+01   4.306697e+01
  -1.137508e+02  -5.204627e+01
  -5.254891e+01  -1.035740e+02
   5.961747e+01  -7.498447e+01
   1.099635e+02  -1.398823e+00
   5.428190e+01   6.039150e+01
  -3.183356e+01   7.033433e+01
  -4.516545e+01   3.222175e+01
   2.100195e+01  -9.986047e+00
   6.933163e+01  -1.282108e+01
   2.272871e+01   2.618068e+01
  -7.564148e+01   7.098987e+01
  -1.225356e+02   5.966411e+01
  -7.705721e+01  -1.481856e+01
   5.968901e+00  -8.801255e+01
   5.584699e+01  -9.005708e+01
   4.793500e+01  -2.058740e+01
   1.398910e+01   5.003493e+01
  -2.103026e+01   5.332564e+01
  -3.887342e+01  -5.061349e+00
  -3.433180e+01  -5.371665e+01
  -4.009382e+00  -4.527316e+01
   3.438052e+01  -4.628024e-01
   4.595735e+01   2.362757e+01
   2.271134e+01   5.197267e+00
  -6.370269e+00  -2.152177e+01
  -7.514413e+00  -1.394263e+01
   1.030848e+01   2.826052e+01
   1.048726e+01   5.504079e+01
  -2.277237e+01   3.061105e+01
  -4.862804e+01  -2.425074e+01
  -2.580059e+01  -5.714733e+01
   3.428040e+01  -3.187243e+01
   6.738703e+01   2.430414e+01
   2.518455e+01   5.736242e+01
  -5.580527e+01   4.116736e+01
  -9.660296e+01  -3.757082e+00
  -5.532321e+01  -4.012681e+01
   2.598501e+01  -4.939499e+01
   6.570487e+01  -3.439271e+01
   3.133219e+01  -1.025699e+01
  -2.560419e+01   6.347556e+00
  -3.344135e+01  -8.747725e-01
   1.780995e+01  -2.315562e+01
   7.004172e+01  -2.501749e+01
