
 $NMID
 id='ANONYMOUS ', fmtdat='(2E16.6)'
 volume=1.0
 tramp=1.0
 $END
   2.359780e+03   1.940830e+02
   1.597128e+03   1.041594e+03
   2.450878e+02   1.444485e+03
  -7.133202e+02   1.153524e+03
  -6.795950e+02   4.767562e+02
  -1.872922e+02   5.697148e+01
   8.135473e+01   6.602960e+01
  -2.761687e+01   3.420267e+02
  -3.285522e+02   4.000261e+02
  -4.494622e+02   9.454713e+01
  -3.124412e+02  -3.576830e+02
  -3.769789e+01  -4.615877e+02
   1.466570e+02  -1.224124e+02
   9.959936e+01   3.092520e+02
  -1.249905e+02   3.780520e+02
  -3.093559e+02   6.021723e+01
  -2.394981e+02  -3.791540e+02
   3.737765e+01  -5.305939e+02
   3.491027e+02  -2.971363e+02
   3.902110e+02   9.194379e+01
   1.535212e+02   2.810166e+02
  -6.966963e+01   1.822559e+02
  -1.905882e+01   7.438785e+01
   2.001165e+02   1.449096e+02
   2.203848e+02   3.280331e+02
  -9.093733e+01   3.393173e+02
  -4.630679e+02   7.570145e+01
  -4.659952e+02  -2.342498e+02
  -1.157696e+02  -3.042165e+02
   3.136849e+02  -8.776560e+01
   3.757679e+02   1.885713e+02
   9.015346e+01   3.191868e+02
  -2.652415e+02   2.625035e+02
  -3.876332e+02   8.323766e+01
  -2.327189e+02  -1.355107e+02
  -3.477553e+01  -2.253539e+02
   6.960857e+00  -9.376120e+01
  -1.302400e+02   8.319786e+01
  -2.318703e+02   5.163268e+01
  -1.325800e+02  -2.267657e+02
   1.168119e+02  -4.309139e+02
   2.587709e+02  -2.933070e+02
   2.173898e+02   6.824594e+01
   2.518303e+01   2.595317e+02
  -1.139327e+02   7.337002e+01
  -6.836580e+01  -2.688650e+02
   1.552666e+02  -3.115668e+02
   3.989808e+02   6.117481e+00
   3.923293e+02   3.487711e+02
   1.099905e+02   4.327885e+02
  -2.630145e+02   2.003333e+02
  -4.226273e+02  -7.293683e+01
  -2.541303e+02  -1.894485e+02
   2.824160e+01  -1.296117e+02
   2.025104e+02  -5.128334e+01
   1.472694e+02  -1.836778e+01
   2.487604e+01  -3.841325e+01
  -4.728144e+00  -3.726326e+01
   9.536778e+01  -8.848606e+00
   1.688013e+02   5.095216e+01
   9.383928e+01   1.487927e+02
  -1.263569e+02   2.061995e+02
  -3.098090e+02   1.292038e+02
  -2.767880e+02  -9.920491e+01
  -3.886486e+00  -3.427935e+02
   2.916829e+02  -3.701299e+02
   3.707475e+02  -1.373453e+02
   2.131533e+02   1.613839e+02
   2.760941e+01   2.929928e+02
  -1.526936e+01   2.404565e+02
   1.979700e+01   1.495918e+02
  -1.198147e+01   1.367423e+02
  -1.468231e+02   1.332653e+02
  -2.658361e+02   3.216517e+01
  -2.208379e+02  -1.489721e+02
  -4.808193e+01  -2.577828e+02
   1.200111e+02  -1.635086e+02
   1.786479e+02   6.707134e+01
   1.027287e+02   2.445125e+02
  -7.294770e+01   2.191237e+02
  -2.269507e+02   2.986440e+01
  -2.494406e+02  -1.700583e+02
  -1.250652e+02  -2.526578e+02
   3.652095e+01  -2.127424e+02
   1.194639e+02  -1.397281e+02
   1.109996e+02  -9.689262e+01
   1.406803e+02  -8.816702e+01
   2.769586e+02  -3.477760e+01
   3.898973e+02   1.000663e+02
   2.897504e+02   2.883420e+02
  -3.015628e+01   4.044161e+02
  -3.569113e+02   3.569631e+02
  -4.367800e+02   1.326753e+02
  -2.463629e+02  -1.155848e+02
   7.348755e+00  -2.228089e+02
   9.591547e+01  -1.419581e+02
  -5.603271e+00  -1.686894e+01
  -1.171805e+02   1.385179e+01
  -9.637548e+01  -6.533874e+01
   2.387971e+01  -1.179773e+02
   1.139717e+02  -5.742619e+01
   7.143312e+01   6.987806e+01
  -5.188587e+01   1.076894e+02
  -1.423246e+02  -1.537441e+01
  -1.233917e+02  -2.136799e+02
   2.518917e+01  -3.136495e+02
   2.234899e+02  -2.007974e+02
   3.319727e+02   5.320066e+01
   2.553294e+02   2.610486e+02
   4.481801e+01   2.737994e+02
  -1.247273e+02   1.225639e+02
  -1.294354e+02  -8.232241e+00
  -1.769429e+01  -1.242177e+01
   4.463087e+01   6.974746e+01
  -2.250233e+01   1.082829e+02
  -1.268803e+02   4.260157e+01
  -1.284720e+02  -4.747825e+01
  -1.230037e+01  -5.559028e+01
   8.578392e+01   2.892117e+01
   3.293060e+01   1.038541e+02
  -1.437793e+02   8.933427e+01
  -2.826853e+02  -2.754879e+01
  -2.309369e+02  -1.749518e+02
  -9.768352e+00  -2.494323e+02
   2.004591e+02  -1.999909e+02
   2.364255e+02  -6.169610e+01
   1.086102e+02   5.151034e+01
  -3.855412e+01   5.695836e+01
  -4.999618e+01  -2.419643e+01
   6.558234e+01  -7.401559e+01
   1.723595e+02  -1.373714e+01
   1.551284e+02   1.075473e+02
   3.183966e+01   1.696998e+02
  -8.804181e+01   1.117566e+02
  -1.066293e+02   1.778270e+00
  -2.771150e+01  -4.113397e+01
   5.232440e+01   2.386196e+01
   2.523929e+01   1.151516e+02
  -1.010416e+02   1.185124e+02
  -2.056215e+02   6.702259e+00
  -1.641467e+02  -1.329029e+02
   3.621713e-01  -1.907935e+02
   1.465657e+02  -1.271467e+02
   1.536893e+02  -3.243619e+00
   4.107787e+01   8.310887e+01
  -6.123099e+01   7.662507e+01
  -6.297592e+01   1.231416e+01
   6.884861e+00  -3.093627e+01
   4.760843e+01  -8.137412e+00
   7.265769e-01   3.375485e+01
  -8.557191e+01   1.209583e+01
  -1.068581e+02  -8.351071e+01
  -1.012772e+01  -1.706619e+02
   1.422566e+02  -1.432233e+02
   2.266325e+02   2.614602e+00
   1.681153e+02   1.584676e+02
   2.223161e+01   2.085113e+02
  -9.840329e+01   1.374670e+02
  -1.165059e+02   2.288461e+01
  -6.427462e+01  -3.808138e+01
  -2.844918e+01  -2.193665e+01
  -5.035469e+01   1.574100e+01
  -8.495098e+01   9.003309e+00
  -6.417661e+01  -5.470086e+01
   2.907215e+01  -1.050283e+02
   1.195073e+02  -7.100938e+01
   1.126176e+02   4.157630e+01
  -1.266854e+01   1.289157e+02
  -1.625266e+02   8.925572e+01
  -1.979948e+02  -7.053458e+01
  -6.885312e+01  -2.091459e+02
   1.313288e+02  -2.034689e+02
   2.511078e+02  -5.870059e+01
   2.145017e+02   9.567597e+01
   7.943431e+01   1.557505e+02
  -4.281416e+01   1.229361e+02
  -8.095188e+01   6.607204e+01
  -6.089196e+01   5.667188e+01
  -4.934479e+01   8.695509e+01
  -8.229062e+01   7.458627e+01
  -1.231159e+02  -1.731279e+01
  -1.094659e+02  -1.436343e+02
  -1.727014e+01  -2.067712e+02
   9.777351e+01  -1.459290e+02
   1.578410e+02  -2.242142e+00
   1.133278e+02   1.215269e+02
  -1.458073e+00   1.443413e+02
  -7.993027e+01   7.357413e+01
  -6.992331e+01  -1.923814e+01
   3.798093e+00  -5.932910e+01
   3.646839e+01  -4.069509e+01
  -1.478405e+01  -8.725261e+00
  -7.782155e+01  -9.191938e+00
  -5.036595e+01  -3.986708e+01
   7.126366e+01  -4.694900e+01
   1.696153e+02  -6.215771e+00
   1.375669e+02   6.601289e+01
  -6.101329e+00   1.044278e+02
  -1.278891e+02   7.323848e+01
  -1.346577e+02   9.970845e-01
  -4.145462e+01  -5.160918e+01
   5.528296e+01  -4.358367e+01
   7.444339e+01   1.766366e+01
   2.314311e+01   6.989120e+01
  -3.881469e+01   6.305189e+01
  -6.535871e+01   4.223977e+00
  -5.794024e+01  -4.731939e+01
  -4.072061e+01  -3.873584e+01
  -4.712655e+01  -9.753902e-01
  -6.089577e+01   2.393849e+00
  -4.793362e+01  -6.396066e+01
   2.007462e+01  -1.431041e+02
   1.175219e+02  -1.425782e+02
   1.727009e+02  -3.755038e+01
   1.254624e+02   8.827038e+01
   1.513986e+00   1.276376e+02
  -8.629990e+01   6.789155e+01
  -6.177717e+01  -1.029426e+01
   5.234477e+01  -2.256630e+01
   1.192484e+02   3.649971e+01
   6.605018e+01   1.001598e+02
  -7.715661e+01   9.720644e+01
  -1.711155e+02   3.088044e+01
  -1.380950e+02  -4.531346e+01
  -2.168640e+01  -7.906765e+01
   6.427698e+01  -4.949223e+01
   4.778972e+01   8.813808e+00
  -3.704368e+01   3.268120e+01
  -8.749794e+01  -1.531922e+01
  -4.285474e+01  -1.052749e+02
   6.430995e+01  -1.419938e+02
   1.373656e+02  -6.707722e+01
   1.141202e+02   7.979357e+01
   1.395303e+01   1.735341e+02
  -7.901522e+01   1.233128e+02
  -9.855960e+01  -1.635574e+01
  -4.297770e+01  -1.136268e+02
   2.328044e+01  -9.301390e+01
   5.348622e+01  -8.388631e+00
   3.430327e+01   3.505094e+01
   8.036848e+00   1.090392e+01
   7.102603e+00  -1.658144e+01
   3.602725e+01   1.695432e+01
   5.283834e+01   8.158162e+01
   2.052642e+01   9.658507e+01
  -5.474052e+01   4.065645e+01
  -1.206892e+02  -3.268641e+01
  -1.081204e+02  -6.870610e+01
  -1.834841e+01  -5.573398e+01
   7.292679e+01  -2.409399e+01
   8.122147e+01  -1.843703e+00
   2.001423e+01   1.602310e+01
  -3.072788e+01   1.909922e+01
  -2.275484e+01   1.076615e+01
   1.024390e+01  -2.939369e+00
   2.099531e-01  -3.576986e+00
  -5.569139e+01   1.665268e+00
  -8.505118e+01  -1.821574e+01
  -2.754400e+01  -6.946664e+01
   9.001654e+01  -1.086244e+02
   1.717213e+02  -6.406978e+01
   1.449191e+02   4.659228e+01
   3.486063e+01   1.424551e+02
  -7.109530e+01   1.449755e+02
  -1.063265e+02   6.507405e+01
  -7.368484e+01  -1.711951e+01
  -2.586705e+01  -3.763795e+01
  -4.543239e+00  -1.414292e+01
  -1.392433e+01  -6.993125e+00
  -2.660929e+01  -4.459587e+01
  -1.561111e+01  -8.539075e+01
   2.611062e+01  -6.654845e+01
   7.090292e+01   1.080646e+01
   7.550232e+01   8.845734e+01
   1.921703e+01   9.938347e+01
  -6.408741e+01   3.387358e+01
  -9.585337e+01  -5.221435e+01
  -4.164784e+01  -9.193217e+01
   5.385977e+01  -6.361015e+01
   9.503174e+01   1.248483e+00
   4.647605e+01   5.235781e+01
  -2.963675e+01   5.921367e+01
  -3.987647e+01   2.850121e+01
   1.920484e+01  -6.454961e+00
   6.110503e+01  -8.719586e+00
   2.123563e+01   2.667343e+01
  -7.059287e+01   5.759282e+01
  -1.116775e+02   4.416366e+01
  -6.835719e+01  -1.831971e+01
   1.091149e+01  -7.695784e+01
   5.342433e+01  -7.760506e+01
   4.376574e+01  -1.738400e+01
   8.990877e+00   4.486644e+01
  -1.861073e+01   4.578171e+01
  -3.227060e+01  -5.984424e+00
  -2.699541e+01  -4.950453e+01
  -1.039718e+00  -3.874791e+01
   3.092514e+01   4.665585e+00
   4.014306e+01   2.674828e+01
   1.889220e+01   5.264945e+00
  -6.951674e+00  -2.130601e+01
  -1.004611e+01  -1.371769e+01
   7.969477e+00   2.359423e+01
   1.065881e+01   4.579261e+01
  -1.767284e+01   2.659980e+01
  -3.898280e+01  -2.295714e+01
  -1.933037e+01  -4.948938e+01
   3.271946e+01  -2.524329e+01
   5.939562e+01   2.305554e+01
   2.255230e+01   5.187212e+01
  -5.000449e+01   3.592600e+01
  -8.463123e+01  -5.328601e+00
  -4.770329e+01  -3.789042e+01
   2.229216e+01  -4.267848e+01
   5.559415e+01  -2.772207e+01
   2.817253e+01  -7.009605e+00
  -1.870478e+01   4.250449e+00
  -2.528551e+01  -2.584050e+00
   1.844188e+01  -1.877301e+01
   6.392130e+01  -1.704015e+01
