
 $NMID
 id='ANONYMOUS ', fmtdat='(2E16.6)'
 volume=1.0
 tramp=1.0
 $END
  -2.410103e+03  -3.119660e+02
  -1.618474e+03  -1.297850e+03
  -3.231249e+01  -1.535424e+03
   8.601738e+02  -1.025543e+03
   6.963316e+02  -3.962997e+02
   1.833116e+02   6.886580e+00
  -1.350163e+02  -8.459559e+01
   1.433923e+01  -3.530110e+02
   3.659209e+02  -4.276615e+02
   5.156162e+02  -6.556839e+01
   3.446634e+02   4.307229e+02
   6.268038e+00   5.246439e+02
  -2.136928e+02   1.282969e+02
  -1.312793e+02  -3.545404e+02
   1.341406e+02  -4.299551e+02
   3.348542e+02  -5.727908e+01
   2.445227e+02   4.253415e+02
  -8.353982e+01   5.499875e+02
  -3.947564e+02   2.691107e+02
  -3.951963e+02  -1.316152e+02
  -1.383028e+02  -2.938758e+02
   8.819834e+01  -1.870262e+02
   1.420912e+01  -7.394003e+01
  -2.270492e+02  -1.284781e+02
  -2.654067e+02  -3.312239e+02
   7.391644e+01  -3.592804e+02
   4.846094e+02  -1.180953e+02
   5.185337e+02   2.226433e+02
   1.393171e+02   3.127454e+02
  -3.231357e+02   1.151102e+02
  -4.098097e+02  -1.831262e+02
  -1.063052e+02  -3.403595e+02
   2.756246e+02  -2.907591e+02
   4.025601e+02  -6.960711e+01
   2.444052e+02   1.782236e+02
   2.465219e+01   2.585394e+02
  -3.469498e+01   9.606978e+01
   1.027446e+02  -1.099799e+02
   2.259838e+02  -8.466586e+01
   1.560208e+02   2.141519e+02
  -8.975031e+01   4.534620e+02
  -2.641330e+02   3.124105e+02
  -2.375684e+02  -7.773603e+01
  -4.406050e+01  -2.652280e+02
   1.106958e+02  -6.738256e+01
   8.159509e+01   2.858548e+02
  -1.589267e+02   3.283111e+02
  -4.074173e+02   1.079107e+01
  -3.851430e+02  -3.691729e+02
  -1.027181e+02  -4.557562e+02
   2.935615e+02  -2.159012e+02
   4.595707e+02   9.127693e+01
   2.700778e+02   2.293408e+02
  -5.641611e+01   1.688544e+02
  -2.334748e+02   5.195961e+01
  -1.611717e+02   2.421401e+00
  -1.065561e+01   2.235849e+01
   1.400974e+01   3.241578e+01
  -9.219514e+01   1.724572e+01
  -1.781133e+02  -6.292256e+01
  -9.159864e+01  -1.575400e+02
   1.480316e+02  -2.101883e+02
   3.241358e+02  -1.139007e+02
   2.674579e+02   1.192379e+02
  -1.552256e+01   3.489979e+02
  -3.073845e+02   3.593888e+02
  -3.755111e+02   1.163124e+02
  -2.078924e+02  -1.837912e+02
  -1.958882e+01  -3.102251e+02
   3.484669e+01  -2.367246e+02
  -6.343366e+00  -1.449797e+02
   1.713301e+01  -1.214400e+02
   1.481969e+02  -1.312215e+02
   2.649452e+02  -4.040994e+01
   2.232777e+02   1.566687e+02
   4.626197e+01   2.696372e+02
  -1.337621e+02   1.667582e+02
  -1.852264e+02  -7.541518e+01
  -9.317351e+01  -2.534795e+02
   8.350236e+01  -2.250181e+02
   2.395292e+02  -2.386994e+01
   2.606322e+02   1.891037e+02
   1.222421e+02   2.737331e+02
  -5.740043e+01   2.197038e+02
  -1.438220e+02   1.306272e+02
  -1.249618e+02   8.339897e+01
  -1.414101e+02   8.334136e+01
  -2.767266e+02   3.017682e+01
  -3.874109e+02  -1.176141e+02
  -2.818308e+02  -3.077683e+02
   4.956185e+01  -4.135554e+02
   3.853019e+02  -3.450943e+02
   4.567102e+02  -1.190913e+02
   2.495291e+02   1.291900e+02
  -1.405294e+01   2.390721e+02
  -1.139710e+02   1.563569e+02
  -4.420290e+00   1.653941e+01
   1.195834e+02  -2.821433e+01
   1.080157e+02   5.957157e+01
  -2.208009e+01   1.251506e+02
  -1.086396e+02   7.142079e+01
  -7.979271e+01  -6.743464e+01
   5.147598e+01  -1.112535e+02
   1.533042e+02   2.074757e+01
   1.244767e+02   2.341292e+02
  -4.571775e+01   3.217058e+02
  -2.488884e+02   1.934977e+02
  -3.398084e+02  -7.528627e+01
  -2.436079e+02  -2.809882e+02
  -3.134220e+01  -2.802186e+02
   1.377746e+02  -1.188141e+02
   1.342163e+02   2.122069e+01
   1.953791e+01   2.308353e+01
  -4.520193e+01  -7.007814e+01
   2.328903e+01  -1.110496e+02
   1.296593e+02  -4.333663e+01
   1.329553e+02   5.130900e+01
   1.406645e+01   5.740990e+01
  -8.556151e+01  -2.672401e+01
  -3.209413e+01  -1.046143e+02
   1.538329e+02  -8.366837e+01
   2.901403e+02   3.653237e+01
   2.315579e+02   1.862621e+02
   2.848188e+00   2.601691e+02
  -2.175290e+02   2.010762e+02
  -2.501537e+02   5.530502e+01
  -1.137085e+02  -6.296311e+01
   3.599367e+01  -6.547479e+01
   4.948577e+01   1.854985e+01
  -6.576062e+01   7.392567e+01
  -1.711050e+02   1.211053e+01
  -1.527358e+02  -1.172169e+02
  -2.928449e+01  -1.794544e+02
   9.386949e+01  -1.138765e+02
   1.126761e+02   1.511181e+00
   2.914232e+01   4.619786e+01
  -4.975464e+01  -2.423091e+01
  -2.070673e+01  -1.178138e+02
   1.079683e+02  -1.171253e+02
   2.097632e+02   1.971477e+00
   1.640970e+02   1.442873e+02
  -6.848505e+00   1.970925e+02
  -1.566316e+02   1.251877e+02
  -1.584950e+02  -2.652709e+00
  -3.987437e+01  -8.895067e+01
   6.578877e+01  -7.574333e+01
   6.372149e+01  -1.078126e+01
  -7.801402e+00   2.858935e+01
  -4.554307e+01   4.552321e+00
   4.429038e+00  -2.999393e+01
   8.886467e+01  -4.449475e+00
   1.019212e+02   9.249450e+01
   2.823252e+00   1.738293e+02
  -1.508173e+02   1.393435e+02
  -2.309535e+02  -1.065086e+01
  -1.703819e+02  -1.687937e+02
  -1.477625e+01  -2.176765e+02
   1.114350e+02  -1.425030e+02
   1.268753e+02  -1.956470e+01
   6.664115e+01   4.699843e+01
   2.845115e+01   2.932181e+01
   5.220627e+01  -1.214676e+01
   8.680469e+01  -4.260136e+00
   5.735565e+01   5.891511e+01
  -3.909401e+01   1.062635e+02
  -1.261429e+02   6.633834e+01
  -1.104880e+02  -4.924638e+01
   2.084768e+01  -1.334899e+02
   1.679365e+02  -8.304040e+01
   1.981922e+02   8.025786e+01
   6.377460e+01   2.173196e+02
  -1.421443e+02   2.020212e+02
  -2.625640e+02   5.152137e+01
  -2.177497e+02  -1.104570e+02
  -7.197141e+01  -1.688683e+02
   5.282771e+01  -1.238835e+02
   8.684113e+01  -6.091298e+01
   6.349876e+01  -5.526377e+01
   5.460365e+01  -8.545448e+01
   9.025389e+01  -7.209214e+01
   1.308979e+02   2.643800e+01
   1.054943e+02   1.572876e+02
   3.952295e+00   2.167223e+02
  -1.123713e+02   1.441099e+02
  -1.625645e+02  -7.683194e+00
  -1.079169e+02  -1.318139e+02
   7.499056e+00  -1.492539e+02
   8.502174e+01  -6.646097e+01
   6.578597e+01   2.558152e+01
  -8.466255e+00   5.975952e+01
  -3.794000e+01   3.531470e+01
   1.606703e+01   5.112768e+00
   7.872476e+01   1.490357e+01
   4.840985e+01   4.357064e+01
  -7.630797e+01   4.313548e+01
  -1.737385e+02  -7.933778e+00
  -1.329319e+02  -7.410097e+01
   1.461617e+01  -1.028803e+02
   1.355464e+02  -6.517365e+01
   1.343341e+02   6.642315e+00
   3.585554e+01   5.382713e+01
  -5.784467e+01   4.130083e+01
  -7.328392e+01  -2.228604e+01
  -1.817831e+01  -7.380788e+01
   4.357893e+01  -6.233808e+01
   6.920041e+01   4.547159e-01
   5.813625e+01   5.235876e+01
   3.973265e+01   4.387482e+01
   4.787853e+01   2.433832e+00
   6.214552e+01   8.364275e-01
   4.616839e+01   7.133751e+01
  -2.731769e+01   1.446057e+02
  -1.279313e+02   1.344129e+02
  -1.751927e+02   2.239838e+01
  -1.191968e+02  -9.742745e+01
   8.481225e+00  -1.289370e+02
   9.337542e+01  -6.267598e+01
   6.058628e+01   1.364228e+01
  -5.275401e+01   2.221845e+01
  -1.199396e+02  -4.116560e+01
  -6.343492e+01  -1.039498e+02
   8.265286e+01  -9.464908e+01
   1.756294e+02  -2.522099e+01
   1.366984e+02   5.381662e+01
   2.072171e+01   8.171833e+01
  -6.458362e+01   4.686215e+01
  -4.545744e+01  -1.071321e+01
   3.941710e+01  -3.044092e+01
   8.646276e+01   2.264906e+01
   3.488844e+01   1.099901e+02
  -7.846444e+01   1.401141e+02
  -1.485451e+02   5.656873e+01
  -1.106375e+02  -9.190926e+01
  -4.995150e+00  -1.801038e+02
   8.814462e+01  -1.243925e+02
   9.993803e+01   2.263012e+01
   4.081617e+01   1.202262e+02
  -2.462896e+01   9.854930e+01
  -5.195948e+01   1.043056e+01
  -3.755227e+01  -3.478343e+01
  -1.086769e+01  -8.311573e+00
  -9.187140e+00   1.763914e+01
  -3.619693e+01  -1.868255e+01
  -5.422329e+01  -8.576117e+01
  -1.839775e+01  -9.920822e+01
   6.007305e+01  -4.029355e+01
   1.255790e+02   3.892093e+01
   1.115387e+02   7.206762e+01
   1.513608e+01   5.681184e+01
  -7.464990e+01   2.250887e+01
  -8.209372e+01  -3.041723e-01
  -1.837560e+01  -1.563643e+01
   3.275665e+01  -1.754284e+01
   2.251193e+01  -9.992408e+00
  -1.083818e+01   3.258365e+00
  -7.216128e-01   3.357284e+00
   5.806694e+01   1.269753e+00
   8.492737e+01   2.208436e+01
   2.096510e+01   7.338864e+01
  -1.003577e+02   1.038478e+02
  -1.798451e+02   5.339774e+01
  -1.404553e+02  -5.795430e+01
  -2.132756e+01  -1.509720e+02
   8.408605e+01  -1.444106e+02
   1.123557e+02  -5.732569e+01
   7.353258e+01   2.540628e+01
   2.359757e+01   3.997621e+01
   2.840843e+00   1.393757e+01
   1.487866e+01   8.317149e+00
   2.547037e+01   4.849202e+01
   1.224050e+01   8.960628e+01
  -3.046628e+01   6.724678e+01
  -7.320793e+01  -1.603404e+01
  -7.349991e+01  -9.459529e+01
  -1.136955e+01  -1.009206e+02
   6.947212e+01  -2.906348e+01
   9.654296e+01   6.227303e+01
   3.466767e+01   9.683757e+01
  -5.957625e+01   6.110062e+01
  -9.806506e+01  -6.977474e+00
  -4.547675e+01  -5.656925e+01
   3.116819e+01  -5.941323e+01
   3.953286e+01  -2.841399e+01
  -1.889719e+01   4.279820e+00
  -6.078943e+01   5.538940e+00
  -1.784849e+01  -2.740272e+01
   7.425545e+01  -5.604091e+01
   1.142933e+02  -4.085421e+01
   6.750009e+01   2.294980e+01
  -1.544321e+01   7.923448e+01
  -6.000972e+01   7.402410e+01
  -4.643408e+01   1.022710e+01
  -6.530348e+00  -4.832388e+01
   2.279887e+01  -4.519064e+01
   3.260408e+01   9.224998e+00
   2.402756e+01   5.019506e+01
  -2.194333e+00   3.890899e+01
  -3.021631e+01  -5.757367e+00
  -3.817444e+01  -2.632200e+01
  -1.921726e+01  -5.803532e+00
   5.865280e+00   2.163316e+01
   8.486775e+00   1.392286e+01
  -7.474946e+00  -2.376884e+01
  -7.826489e+00  -4.897288e+01
   2.006220e+01  -2.762701e+01
   3.900324e+01   2.624082e+01
   1.577805e+01   5.157747e+01
  -3.736327e+01   2.389158e+01
  -5.958814e+01  -2.902468e+01
  -1.818144e+01  -5.553817e+01
   5.411060e+01  -3.583909e+01
   8.650287e+01   8.912519e+00
   4.668815e+01   4.153659e+01
  -2.579042e+01   4.486711e+01
  -5.961954e+01   2.704873e+01
  -2.915141e+01   6.269349e+00
   2.061279e+01  -4.599442e+00
   2.870222e+01   3.999023e+00
  -2.063295e+01   2.101137e+01
  -6.879115e+01   1.665662e+01
