
 $NMID
 id='ANONYMOUS ', fmtdat='(2E16.6)'
 volume=1.0
 tramp=1.0
 $END
   6.126710e+02   1.998662e+02
   3.805323e+02   2.837707e+02
   1.352118e+01   2.933403e+02
  -1.863654e+02   2.213050e+02
  -1.600996e+02   7.165227e+01
  -1.587611e+01   2.479680e+01
   5.145059e+01   1.915779e+01
   2.431665e+01   6.700635e+01
  -2.161032e+01   7.344192e+01
  -6.091244e+01   1.899364e+01
  -3.960995e+01  -3.583533e+01
  -2.308475e+01  -4.373576e+01
   5.886545e+00  -1.556134e+01
   7.725610e+00   3.125219e+01
   9.869060e+00   5.324601e+01
   3.014077e+00   3.021590e+01
  -1.523644e+01  -7.414578e+00
   5.849373e+00  -4.439346e+01
   1.928536e+01  -3.952705e+01
   2.641343e+01   4.986888e+00
   1.128052e+01   3.426862e+01
  -3.463623e+00   5.194024e+01
  -1.005634e+01   3.059471e+01
  -1.234095e+01   2.329353e+01
  -5.707231e+00   7.733560e+00
   4.314123e+00  -2.446009e+01
   8.723632e+00  -2.254474e+01
  -3.939105e+01  -7.039186e+00
  -2.552559e+01   1.400629e+01
  -7.999402e+00   1.010693e+01
   3.070935e+01  -1.152296e+01
   3.381351e+01  -1.020034e+01
   6.248022e+00   9.066329e+00
  -3.138931e+01   5.491324e+00
  -4.024879e+01   9.772579e+00
  -3.316574e+01  -2.572029e+01
  -3.076724e+01  -5.302598e+01
   3.424776e+00  -2.965270e+01
   3.481425e+01   1.952142e+01
   1.571650e+01   2.173581e+01
  -1.125535e+01  -1.890029e+01
  -9.577305e+00  -4.864710e+01
   1.854502e+01  -4.254539e+01
   4.167748e+01  -1.950867e+01
   1.337366e+01   1.847328e+00
  -9.935192e+00   1.004776e+01
  -3.618536e+00   5.383103e-01
  -3.288751e+00   1.635639e+01
   3.472356e+01   1.187560e+01
   2.138897e+01   1.040663e+01
   5.474716e+00   1.050116e+01
  -1.643323e+01   8.184642e+00
  -2.587655e+01   6.658264e+00
  -1.364436e+01   7.649934e+00
   2.118854e+01  -9.188113e+00
   2.820225e+01   4.227548e-01
   1.665045e+01   1.650275e+01
  -5.387193e+00   9.982780e+00
  -1.155156e+01   2.110849e+00
   4.664287e+00   2.240145e+00
   4.703573e+00   3.945454e+00
  -3.759953e+00  -2.345189e+00
  -8.305814e+00  -3.088583e+00
   2.822889e+00   1.176307e+01
   2.451107e+01   1.761842e+01
   1.129029e+01   2.184722e+00
   2.594155e+00  -2.498939e+01
   2.120422e+00  -2.286130e+01
   1.207009e+01   1.742126e+01
   2.315908e+01   5.163210e+01
   1.435497e+01   5.177527e+01
  -1.225187e+01   2.275158e+01
  -2.226625e+01  -7.709355e+00
  -1.966944e+01  -2.111602e+01
  -3.116437e+00  -8.741533e+00
  -2.019973e+00   1.375708e+00
  -4.509385e+00   1.228020e+01
  -8.285602e+00   1.278486e+01
  -6.770085e+00   8.990309e+00
  -5.204701e-01   5.162402e+00
  -9.000661e+00  -3.450994e+00
  -1.815061e+01  -1.592718e+01
  -1.209153e+01  -2.498569e+01
  -1.604909e+00  -2.269206e+01
   1.409690e+01  -1.338761e+01
   2.418506e+01   2.093269e+00
   3.094191e+01   1.050504e+01
   2.366571e+01   1.781472e+01
   1.491601e+01   8.749236e+00
   5.569840e+00   7.536741e+00
  -7.193039e+00   9.241907e+00
  -2.145771e+01   1.121173e+01
  -1.950282e+01   1.966365e+01
  -6.802486e+00   1.957055e+01
  -2.945332e+00   2.604002e+00
  -5.889581e+00  -1.800189e+01
  -6.711270e+00  -1.800570e+01
  -1.669022e+01  -4.367070e+00
  -1.264189e+01   8.092361e-01
  -2.368668e+00  -1.139961e+01
   1.071500e+01  -8.716781e+00
   1.418605e+01  -3.830235e-01
   4.013542e+00   6.810338e+00
  -5.521680e+00  -1.050117e+01
  -4.236900e-02  -2.086635e+01
   1.019732e+01  -1.296724e+01
   1.268036e+01   8.079564e+00
   6.793432e+00   1.308498e+01
   9.962305e+00   1.979567e+00
   7.274813e+00  -2.574522e-01
   3.484362e+00   7.198170e+00
  -1.095344e+01   8.013132e+00
  -8.838702e+00   5.634879e+00
  -3.193384e+00  -8.032698e-01
   1.212095e+00  -1.932795e-01
  -1.074202e+00   4.057905e+00
  -6.100294e+00   4.778202e+00
  -4.043147e+00   8.360312e+00
  -5.540578e+00   7.212069e+00
  -1.164034e+01  -3.059863e+00
  -2.113748e+01  -2.143695e+01
  -1.503198e+01  -2.621340e+01
  -3.657748e+00  -1.758019e+01
   1.212330e+01  -7.948777e+00
   2.518490e+01  -4.133625e+00
   2.978920e+01  -5.107862e+00
   1.307267e+01  -4.262149e+00
  -2.841241e+00   2.480350e+00
  -4.195480e+00   6.865514e+00
   3.630602e+00   5.505707e+00
   9.656770e+00   4.709321e+00
   1.207951e+01   1.150660e+00
   5.916520e+00   2.244700e+00
  -1.325857e+00   6.159229e+00
  -2.949918e+00   8.068820e+00
  -2.803542e+00   9.241619e+00
  -2.480370e+00   4.599815e+00
  -3.999994e+00  -1.568136e+00
  -5.057534e+00  -4.006557e+00
  -7.558168e+00  -7.561518e-01
  -8.209521e+00  -1.177853e+00
   2.565352e+00  -7.135999e+00
   1.144326e+01  -1.234196e+01
   1.012006e+01  -7.062418e+00
   3.507644e+00   1.374720e+00
  -1.784647e-01   6.615270e+00
   6.875837e-01   5.013903e+00
   4.882478e-01   5.615454e+00
  -1.815794e+00   2.460547e+00
  -4.606566e+00  -1.520100e+00
  -6.724708e+00  -5.680421e+00
   9.791477e-01  -7.649302e+00
   4.575636e+00  -6.716379e+00
   5.096718e+00  -2.268782e+00
   3.077087e+00   1.167421e+00
   5.943878e-01   2.531891e+00
  -2.963813e-01   4.686281e+00
  -1.279260e+00   4.716052e+00
  -1.872964e+00   3.286513e+00
  -2.374178e+00  -2.931217e-01
  -5.030549e+00  -2.229315e+00
  -4.413290e+00  -3.231076e+00
  -5.820159e+00  -4.118829e+00
   1.676857e+00  -5.820911e+00
   1.056020e+01  -3.530995e+00
   1.078818e+01   5.568983e+00
   6.695473e-01   7.704204e+00
  -7.476588e+00   3.133167e+00
  -8.919100e+00  -6.378543e+00
  -3.272825e+00  -8.550658e+00
   2.289687e+00  -4.598302e+00
   3.897142e+00   4.197187e-01
   6.368517e+00   3.066893e+00
   7.865214e+00   7.966031e+00
   5.325488e+00   5.884008e+00
  -9.377001e-01   5.092396e+00
  -8.554613e+00   5.044440e+00
  -9.597900e+00   7.676933e+00
  -1.066464e+01   5.339544e+00
  -6.629997e+00  -9.674415e-01
  -1.005169e+00  -8.459473e+00
   9.049582e-01  -1.095789e+01
  -5.472419e-01  -5.589409e+00
  -5.916117e-01  -2.216187e+00
   6.311674e-01  -7.634342e-01
   2.338742e-01   1.194307e+00
  -1.242051e+00   1.030182e+00
   2.652285e+00   3.514627e+00
   5.492022e+00   3.851766e+00
   2.732124e+00   1.697643e+00
  -3.035617e+00   2.480942e-01
  -6.946381e+00  -5.641056e+00
  -8.452497e+00  -4.789734e+00
  -3.487049e+00   8.481276e-02
   2.395091e+00   3.563465e+00
   8.121953e+00   3.542778e+00
   7.167043e+00  -1.901393e+00
   4.831357e-01  -9.602012e+00
  -7.209578e+00  -7.631534e+00
  -6.128213e+00   8.138938e-01
   2.184997e+00   7.036937e+00
   6.191775e+00   5.602651e+00
   1.400588e+00   9.919861e-01
  -4.031699e+00  -8.389274e-03
  -4.676658e+00   2.896065e+00
  -2.428847e+00  -4.381472e-01
   4.112412e-01  -4.343512e+00
  -5.149493e+00  -6.284819e+00
  -8.668202e+00  -4.743181e+00
  -7.011841e+00  -2.579674e+00
   1.940973e+00  -3.591562e+00
   7.765204e+00  -5.974270e+00
   1.177848e+01  -4.473836e+00
   8.163474e+00   2.267776e+00
   1.276757e+00   4.594813e+00
  -5.382523e+00   6.099169e-01
  -5.399883e+00  -2.804638e+00
   1.579967e+00  -5.177541e-01
   6.662378e+00   5.877408e+00
   9.312976e+00   8.754986e+00
   3.961401e-01   2.762523e+00
  -9.209281e+00   7.112420e+00
  -1.168615e+01   2.932027e+00
  -1.244085e+01   4.976202e+00
  -4.337991e+00  -7.632659e-01
  -1.648660e+00  -3.325653e+00
  -5.107261e-01  -5.678887e+00
  -1.832620e+00  -2.613787e+00
  -2.914951e+00  -1.452399e+00
   1.973167e-01  -1.747280e+00
   7.833819e+00  -4.260641e+00
   7.887392e+00  -2.061962e+00
   3.356766e+00   7.084183e+00
  -2.204351e+00   9.763063e+00
  -5.537049e+00   9.049172e+00
  -2.121180e+00  -1.138826e+00
  -1.398669e+00  -7.453987e+00
  -9.174179e-01  -7.506724e+00
   1.484133e+00  -2.051804e+00
   5.109905e+00  -4.174572e-01
   4.436928e+00  -9.203804e-01
  -1.043469e+00   2.237515e+00
  -3.340904e+00   6.441687e+00
   2.748180e-02   8.369329e+00
   3.217521e+00   2.789022e+00
   3.013841e+00  -3.881335e+00
  -5.091034e+00  -4.368441e+00
  -8.605900e+00  -1.385994e+00
  -3.432111e+00   3.661346e+00
   4.146408e+00   8.775336e-01
   2.102775e+00  -2.319416e+00
  -2.573047e+00  -3.154669e+00
  -2.072764e+00  -3.662936e-01
   3.673196e+00   2.550782e+00
   4.541969e+00   1.149091e+00
  -1.666678e+00  -1.717233e+00
  -6.760673e+00  -1.577707e+00
  -5.805511e+00  -3.103121e+00
   4.366046e-01  -2.893008e+00
   9.975513e+00  -3.471038e+00
   1.354388e+01   3.005834e+00
   9.636186e+00   6.464101e+00
  -9.861317e-01   8.074938e+00
  -9.519470e+00   7.869392e+00
  -1.134422e+01   2.358992e+00
  -4.765980e+00  -9.951326e-01
   2.133487e+00  -3.575700e-01
   2.327071e+00   6.583375e-01
   5.288983e-02  -1.946120e+00
  -7.949693e-01  -4.583167e+00
  -3.142918e-01  -3.591467e+00
   1.691993e+00  -2.888891e+00
   4.165894e+00   1.755108e+00
   3.996590e+00   7.645096e+00
   9.927162e-01   7.186228e+00
  -3.195066e+00   1.746518e-01
  -4.066783e+00  -5.080105e+00
   1.316166e-01  -6.028359e+00
   4.820212e+00  -5.256994e-01
   3.992984e+00   3.897082e+00
  -2.025121e+00   3.437847e+00
  -6.856007e+00   1.419257e+00
  -3.405751e+00   2.352469e-01
   4.101913e+00  -1.087692e+00
   5.950295e+00  -3.295879e+00
  -7.416861e-01  -5.922013e-01
  -5.120037e+00  -2.280977e-01
  -4.297851e+00   1.729333e+00
  -5.728940e-01   2.145320e+00
   2.021102e+00  -3.761502e+00
   2.823794e+00  -7.450081e+00
   3.285512e+00  -1.264774e+00
   4.581362e-01   3.450360e+00
  -1.066852e+00   2.995653e+00
  -3.082522e+00   5.634112e-02
  -3.165941e+00  -1.199052e+00
  -2.208440e+00  -1.747652e+00
   1.150214e+00  -1.322521e+00
   2.030423e+00  -6.742195e-01
   3.086323e+00   4.076928e-01
   1.150681e+00   1.504416e+00
  -9.124367e-03   2.022362e+00
  -2.694130e+00   2.507808e+00
  -4.123903e+00   2.819919e+00
  -3.058394e+00  -2.100688e+00
   1.103459e-01  -6.219500e+00
   4.140417e+00  -6.373200e+00
   3.534150e+00   1.888466e-01
   1.410200e+00   5.322975e+00
  -2.338673e+00   2.820082e+00
  -3.157994e+00  -2.433769e+00
  -3.220225e+00  -5.374229e+00
  -3.940705e-01  -2.798516e+00
   3.398719e+00   6.321031e-01
   5.287697e+00   1.437377e+00
   2.089385e+00   4.017575e-02
  -3.626370e+00   4.516279e-02
  -4.253542e+00   3.174705e-01
   1.475593e+00   1.358625e-01
   5.994215e+00  -4.243774e-01
