
 $NMID
 id='ANONYMOUS ', fmtdat='(2E16.6)'
 volume=1.0
 tramp=1.0
 $END
  -6.011610e+02   3.835550e+02
  -6.807067e+02  -8.612621e+01
  -3.440222e+02  -4.243530e+02
   9.140941e+01  -4.807770e+02
   2.166094e+02  -2.417739e+02
   1.194233e+02   1.208072e+01
  -2.613160e+01   1.146438e+02
  -9.939944e+01  -9.597676e+00
  -5.753931e+01  -1.227312e+02
   3.349187e+01  -1.171990e+02
   8.264846e+01  -1.529407e+01
   1.189990e+02   7.613860e+01
   2.852684e+01   9.120590e+01
  -7.938034e+01   1.496869e+01
  -1.026959e+02  -7.586239e+01
  -1.235111e+01  -8.207830e+01
   8.110619e+01  -3.344833e+01
   7.509788e+01   4.489928e+01
   7.228711e+00   7.681643e+01
  -4.853869e+01   3.775392e+01
  -4.797130e+01  -2.543574e+01
  -2.910784e+01  -5.776271e+01
   1.710843e+01  -5.380739e+01
   2.412176e+01  -1.848659e+01
   3.202187e+00   6.281171e+00
  -3.250228e+01   3.387660e+00
  -6.251844e+00  -1.792973e+01
   6.576749e+01  -3.230930e+01
   6.016811e+01  -2.312180e+01
   2.534065e+01   1.129178e+01
  -3.552335e+01   4.664499e+01
  -6.332874e+01   3.298289e+01
  -3.811726e+01  -1.879635e+01
   2.444386e+01  -6.419316e+01
   5.611355e+01  -6.900915e+01
   7.052283e+01   5.143513e+00
   5.230849e+01   5.657662e+01
  -8.409607e+00   3.959048e+01
  -4.168090e+01  -4.222795e+01
   9.824081e+00  -4.620402e+01
   7.333512e+01   3.782589e+01
   4.841060e+01   8.857538e+01
  -2.343551e+01   5.645372e+01
  -5.804317e+01  -6.519641e+00
  -2.024761e+01  -3.656641e+01
   2.412980e+01  -5.657222e+00
   4.505854e+01   2.709087e+01
   8.113377e+00   2.709512e+01
  -5.759319e+01   2.965274e+01
  -6.542539e+01   5.893908e-01
  -3.839940e+01  -3.089442e+01
   3.116566e+01  -5.329560e+01
   6.762980e+01  -3.773995e+01
   3.725993e+01   5.559757e+00
  -2.516402e+01   4.516147e+01
  -5.242170e+01   7.616650e+00
  -2.338214e+01  -2.754198e+01
   1.759202e+01  -2.224019e+01
   5.764603e+00   8.431471e+00
  -2.001945e+01   2.016742e+01
  -2.918686e+01   4.188306e+00
  -1.590469e+01  -2.575340e+01
   7.347494e+00  -2.995889e+01
   9.036692e+00  -4.620184e+01
   1.864712e+01  -2.147156e+01
   2.771762e+01   2.376038e+01
   1.192896e+01   7.740108e+01
  -2.715263e+01   5.745277e+01
  -5.492573e+01  -1.735446e+01
  -5.440564e+01  -6.604704e+01
  -1.902966e+01  -6.430296e+01
   1.489701e+01  -3.541732e+01
   2.640071e+01  -7.540348e-01
   1.719703e+01   4.755922e+00
   8.227216e+00  -9.260258e+00
   2.072478e+01  -5.133386e+00
   2.255116e+01   4.787740e-01
   9.770686e+00   3.621609e+00
  -9.277720e+00   3.969156e-01
  -2.316715e+01  -6.597011e+00
   1.901458e+00  -1.939464e+01
   3.393688e+01  -1.995185e+01
   4.682549e+01   4.480040e+00
   3.415634e+01   2.629136e+01
   4.193695e+00   3.778268e+01
  -1.966709e+01   2.547633e+01
  -2.344934e+01   3.842055e+00
  -1.947311e+01  -5.869165e+00
  -2.754762e+01   9.580819e+00
  -3.780331e+01   1.055187e+01
  -2.847082e+01  -7.987446e+00
  -5.104671e+00  -4.692965e+01
   2.423637e+01  -6.959588e+01
   2.907832e+01  -4.199126e+01
   2.520036e+01   1.639884e+00
   1.822027e+01   3.786345e+01
   6.878041e+00   2.981870e+01
   1.381595e+01  -1.925179e+00
   1.142234e+01  -1.617038e+01
   9.068828e+00   1.390153e+00
  -2.670511e+00   1.178836e+01
  -9.707864e+00   8.083639e+00
  -1.019196e+01  -8.754782e+00
   6.344618e+00  -9.974063e+00
   2.850985e+01   4.134117e+00
   3.018529e+01   2.595374e+01
   7.292260e+00   3.177156e+01
  -2.205679e+01   2.317100e+01
  -4.172061e+01   1.264711e+01
  -4.179070e+01  -8.605401e+00
  -1.433724e+01  -1.969878e+01
   1.526432e+01  -2.245871e+01
   1.846400e+01  -1.154715e+01
   6.060124e-01  -1.559499e+00
  -1.150063e+01  -8.861843e-01
  -2.417051e+00  -1.205105e+01
   1.400231e+01  -1.475609e+01
   1.443492e+01  -7.516469e+00
   1.652158e+00   3.146132e+00
  -4.352341e+00   3.943355e+00
   1.425127e+01  -2.887423e-01
   3.535831e+01  -6.039807e+00
   3.335891e+01   5.834424e-01
   1.459080e+01   1.603759e+01
  -1.087045e+01   3.031467e+01
  -2.248074e+01   3.243781e+01
  -1.344311e+01   2.141814e+01
  -6.540935e+00  -2.318053e-01
   2.887005e+00  -9.977414e+00
   1.038508e+00  -2.949686e+00
  -1.064744e+01   7.725553e+00
  -2.397006e+01   7.277819e+00
  -2.420256e+01  -4.274651e+00
  -4.777019e+00  -1.569023e+01
   1.072859e+01  -1.513253e+01
   9.718255e+00  -7.907256e+00
   1.318534e+00  -2.932788e+00
  -8.287696e+00  -1.519527e-01
  -7.573349e+00  -4.951678e+00
   8.308875e+00  -1.378400e+01
   2.493946e+01  -1.118563e+01
   2.072169e+01   6.993554e+00
   9.179205e-01   2.506545e+01
  -1.391669e+01   2.358254e+01
  -1.358621e+01   3.693408e+00
  -6.563411e+00  -1.435730e+01
   1.622658e+00  -1.419321e+01
   2.155381e+00  -5.070772e+00
   3.303016e+00   1.829122e+00
   5.019365e+00   3.249736e+00
   6.617778e+00   1.648306e+00
   7.400477e+00   3.745099e+00
   9.914492e+00   1.161792e+01
   3.585096e+00   1.860995e+01
  -1.106575e+01   2.192044e+01
  -2.580137e+01   1.174644e+01
  -2.696535e+01  -7.370337e+00
  -1.288179e+01  -2.112890e+01
   4.556576e-01  -2.025359e+01
   6.884146e+00  -9.298452e+00
   8.156141e+00  -3.475707e+00
   7.622482e+00  -2.430556e+00
   8.224914e+00  -4.660365e+00
   4.709233e+00  -1.673560e+00
   6.830121e-01   7.381465e+00
  -2.956624e+00   1.179209e+01
  -5.739300e+00   5.860201e+00
  -4.691212e+00  -4.203867e+00
   1.437525e+00  -1.283034e+01
   1.432449e+01  -1.052168e+01
   2.137551e+01   2.181820e+00
   1.188428e+01   1.728293e+01
  -1.056858e+01   2.816464e+01
  -2.732761e+01   1.907251e+01
  -2.855639e+01   2.261025e+00
  -1.103863e+01  -1.293356e+01
   3.215126e+00  -1.653118e+01
   6.156439e+00  -1.177530e+01
   4.363194e+00  -1.203122e+01
  -5.201515e-01  -1.146108e+01
   5.682918e+00  -7.090044e+00
   1.973450e+01   5.807681e+00
   2.296230e+01   1.503374e+01
   1.319115e+01   2.295870e+01
  -5.643098e+00   2.035203e+01
  -1.877707e+01   7.626870e+00
  -1.792344e+01  -8.798085e+00
  -9.933996e+00  -1.626955e+01
  -1.272797e+00  -1.183600e+01
   1.612542e+00  -1.102010e+00
   2.225600e+00   4.819361e+00
   7.905765e+00   2.776999e+00
   1.254243e+01  -5.980886e+00
   1.019485e+01  -4.852804e+00
   1.186184e+00   2.695293e+00
  -1.265461e+01   1.286931e+01
  -2.048348e+01   1.048440e+01
  -1.139581e+01   9.066542e-01
   4.660823e+00  -8.991799e+00
   1.094309e+01  -1.220819e+01
   9.623119e+00  -6.491852e+00
  -1.049759e-01   2.480765e+00
  -6.462117e+00   6.786817e+00
  -6.496473e+00  -5.962839e-01
  -4.869272e-01  -7.222470e+00
   3.173174e+00  -8.056636e+00
   7.914834e+00  -1.503679e+00
   1.128058e+01   2.293321e+00
   1.289725e+01   1.875935e+00
   9.968008e+00  -2.486911e-01
   3.693065e+00   3.374521e+00
   1.259712e+00   1.062951e+01
   1.711734e+00   2.042717e+01
  -9.116833e+00   1.694501e+01
  -1.555608e+01   5.012036e+00
  -1.084799e+01  -6.185490e+00
  -9.068655e-01  -8.674593e+00
   2.419324e+00  -6.004308e+00
  -2.461991e+00  -1.971399e-01
  -1.257736e+01  -6.976991e-01
  -4.698390e+00  -1.714839e+00
   4.484583e-01  -1.150556e+01
   1.369852e+01  -1.419934e+01
   1.938283e+01  -1.311862e+01
   1.200538e+01   2.949164e+00
   1.266667e+00   1.242329e+01
  -5.006265e+00   8.633583e+00
  -2.496870e+00  -1.831347e+00
   7.393254e+00  -7.626157e+00
   1.382601e+01  -1.826368e+00
   6.868451e+00   1.730175e+01
  -7.954977e+00   2.199131e+01
  -1.883462e+01   6.415532e+00
  -1.599721e+01  -1.180608e+01
  -4.669324e+00  -2.370564e+01
   7.939236e+00  -1.110390e+01
   1.454029e+01   5.026724e+00
   9.872764e+00   9.753795e+00
  -1.386129e-01   6.339763e+00
  -9.542847e+00   2.760625e+00
  -5.305327e+00   1.265507e+00
   2.597210e+00   1.486552e+00
   4.274934e+00  -1.427143e+00
  -8.734185e+00  -5.075029e+00
  -1.513363e+01  -4.326718e+00
  -7.987606e+00  -2.501157e+00
   9.412519e+00  -5.833266e+00
   1.739970e+01  -1.028523e+01
   1.109449e+01  -6.800292e+00
  -1.522241e+00   6.468393e+00
  -4.766535e+00   1.544389e+01
  -1.292953e+00   6.993284e+00
   1.767498e+00  -4.237802e+00
  -3.506767e+00  -5.921237e+00
  -5.137801e+00   6.188181e-01
   3.854138e-01   3.598099e+00
   7.827908e+00  -2.208466e+00
   1.169330e+01  -5.849168e+00
   5.006787e+00   2.790887e+00
  -4.295112e+00   1.717038e+01
  -1.217794e+01   2.030209e+01
  -1.700606e+01   8.373850e+00
  -1.756793e+01  -1.091306e+01
  -6.529946e+00  -2.001696e+01
   6.845373e+00  -1.475349e+01
   1.082369e+01  -6.949719e+00
   5.282564e+00  -1.731104e+00
  -1.294425e+00  -9.723826e-01
  -8.368231e-01   2.025729e+00
   5.903458e+00   5.120321e+00
   9.209903e+00   4.753192e+00
   6.648227e+00   6.653127e+00
  -5.230975e+00   6.698132e+00
  -1.641098e+01  -1.349278e+00
  -1.448516e+01  -8.800470e+00
  -2.398638e-01  -9.655603e+00
   1.302891e+01  -3.977199e+00
   1.271049e+01   4.507688e+00
   1.126940e+00   7.861410e+00
  -8.640409e+00   6.201857e+00
  -6.260970e+00   3.058736e-01
  -3.021766e-01  -6.260155e+00
   9.874882e-01  -6.715573e+00
  -4.499748e+00   1.356115e+00
  -8.316541e+00   7.958772e+00
  -5.092290e+00   1.656261e+00
   1.529823e+00  -1.293445e+01
   3.866776e+00  -2.045611e+01
   7.537078e+00  -1.051796e+01
   7.394655e+00   6.785862e+00
   6.213311e+00   1.561510e+01
  -1.217619e+00   7.973347e+00
  -7.751713e+00  -3.511698e+00
  -4.405814e+00  -7.453199e+00
   4.984758e+00  -3.468756e+00
   1.140802e+01   2.578860e+00
   6.468928e+00   5.192512e+00
  -3.243808e+00   5.730510e+00
  -7.891478e+00   3.951874e+00
  -4.657115e+00   2.293483e-01
   1.064671e+00  -2.407245e+00
   1.217748e+00  -1.865883e+00
  -1.233054e+00  -1.836760e+00
  -2.473511e+00  -2.813927e+00
   1.900530e+00  -2.809521e-01
   4.220556e+00   1.676386e-01
   3.976154e+00   3.508899e+00
  -2.118485e-01   3.959249e+00
  -5.210309e+00   1.563034e+00
  -4.710990e+00  -2.822956e+00
   2.804334e-01  -4.134647e+00
   6.920397e+00  -2.733054e+00
   7.383229e+00  -1.199852e+00
   1.663744e+00   2.363605e+00
  -4.733290e+00   5.184863e+00
  -4.757192e+00   4.584871e+00
   3.279422e+00  -9.581886e-01
   5.815560e+00  -3.587535e+00
   1.560638e+00   8.397799e-01
  -4.493258e+00   9.002177e+00
