
 $NMID
 id='ANONYMOUS ', fmtdat='(2E16.6)'
 volume=1.0
 tramp=1.0
 $END
  -4.607746e+03   1.972407e+02
  -2.652487e+03  -2.761350e+03
   8.262000e+02  -2.912070e+03
   2.186968e+03  -9.036760e+02
   9.490245e+02   7.467058e+02
  -6.857133e+02   6.402630e+02
  -9.426156e+02  -4.464569e+02
  -2.722247e+01  -1.122136e+03
   8.453174e+02  -8.240139e+02
   9.739022e+02   7.502979e+01
   4.756100e+02   8.873243e+02
  -2.504434e+02   9.335211e+02
  -6.654526e+02   1.322559e+02
  -3.875204e+02  -7.578751e+02
   2.958048e+02  -7.943837e+02
   6.727143e+02   2.785758e+00
   3.038814e+02   7.117684e+02
  -3.140394e+02   6.729077e+02
  -5.870300e+02   1.098535e+02
  -4.018658e+02  -3.478567e+02
  -2.962673e+01  -4.434365e+02
   2.509886e+02  -2.596753e+02
   2.400318e+02  -9.278760e+00
  -1.085078e+02   9.643319e+01
  -4.370236e+02  -1.000773e+02
  -2.345612e+02  -4.640046e+02
   4.770203e+02  -4.673063e+02
   8.809589e+02   5.381334e+01
   4.745099e+02   5.926663e+02
  -3.893296e+02   5.496633e+02
  -7.660636e+02   1.288504e+00
  -3.731357e+02  -4.981654e+02
   2.745527e+02  -5.617292e+02
   5.747057e+02  -2.430993e+02
   4.356639e+02   2.369180e+02
   7.917679e+01   5.027625e+02
  -2.231449e+02   2.941113e+02
  -2.037312e+02  -2.412849e+02
   1.821791e+02  -4.767777e+02
   4.974437e+02   1.053475e+01
   2.810773e+02   7.243880e+02
  -3.409753e+02   7.487904e+02
  -6.541211e+02   9.027081e+00
  -3.057360e+02  -5.990216e+02
   2.837590e+02  -3.719790e+02
   4.154827e+02   3.168883e+02
  -4.359935e+01   5.805877e+02
  -5.921999e+02   1.687503e+02
  -6.382818e+02  -3.990150e+02
  -1.903312e+02  -6.020460e+02
   3.820399e+02  -3.723929e+02
   6.472679e+02   5.177850e+01
   3.889317e+02   3.840235e+02
  -1.745318e+02   3.684420e+02
  -4.582753e+02   6.042508e+01
  -2.467402e+02  -2.039619e+02
   1.399090e+02  -1.138132e+02
   1.716150e+02   1.694665e+02
  -1.624531e+02   2.203696e+02
  -3.743487e+02  -4.907934e+01
  -1.628005e+02  -3.132261e+02
   2.010477e+02  -2.800315e+02
   3.367527e+02  -8.808056e+01
   2.053881e+02   7.986179e+01
   3.413989e+00   2.271078e+02
  -2.068462e+02   3.497953e+02
  -3.220377e+02   2.480027e+02
  -3.100341e+02  -1.288087e+02
  -1.074026e+02  -4.528151e+02
   1.085081e+02  -3.961672e+02
   1.273954e+02  -1.054491e+02
   3.214350e+01   2.134407e+01
   3.534744e+01  -9.324816e+01
   1.898120e+02  -1.510215e+02
   2.928587e+02   3.824911e+01
   1.843898e+02   2.789617e+02
  -5.567305e+01   2.767164e+02
  -2.330868e+02   3.277177e+01
  -2.196156e+02  -2.295207e+02
  -5.216479e+00  -3.048416e+02
   2.702407e+02  -1.395318e+02
   3.860688e+02   1.514166e+02
   2.091524e+02   3.503453e+02
  -9.500635e+01   3.237135e+02
  -2.346145e+02   1.341198e+02
  -1.546371e+02   5.197262e+00
  -8.721305e+01   3.709025e+01
  -2.182930e+02   8.436840e+01
  -4.016247e+02  -3.478307e+01
  -3.508519e+02  -2.664345e+02
  -2.919787e+01  -4.476942e+02
   3.364497e+02  -4.440502e+02
   4.837203e+02  -2.323482e+02
   3.542906e+02   8.517783e+01
   7.560778e+01   3.090181e+02
  -1.322004e+02   2.622576e+02
  -9.655565e+01   1.816144e+01
   1.059301e+02  -1.258909e+02
   2.102860e+02  -7.071406e+00
   6.808795e+01   2.066594e+02
  -1.590229e+02   1.969645e+02
  -1.962519e+02  -5.327754e+01
   6.173272e+00  -2.047543e+02
   2.023968e+02  -5.220608e+01
   1.821128e+02   2.406534e+02
  -1.590053e+01   3.639302e+02
  -2.247703e+02   2.142543e+02
  -3.350642e+02  -3.970344e+01
  -3.024606e+02  -2.243365e+02
  -1.244757e+02  -2.629104e+02
   1.038959e+02  -1.727050e+02
   1.809635e+02  -3.091444e+01
   6.138134e+01   3.194502e+01
  -7.810564e+01  -3.463192e+01
  -3.950818e+01  -1.306607e+02
   1.253559e+02  -1.136019e+02
   1.851695e+02   5.581346e+00
   6.028565e+01   7.768579e+01
  -8.884160e+01   2.566476e+01
  -6.804389e+01  -7.143862e+01
   1.121248e+02  -1.046354e+02
   2.867095e+02  -2.572237e+01
   2.787851e+02   1.185222e+02
   8.155677e+01   2.522613e+02
  -1.663773e+02   2.691288e+02
  -2.770603e+02   1.378440e+02
  -1.769767e+02  -4.603511e+01
   1.900267e+01  -1.154885e+02
   9.743528e+01  -9.271752e+00
  -2.254856e+01   1.109387e+02
  -1.969342e+02   7.723267e+01
  -2.277275e+02  -9.557991e+01
  -8.282706e+01  -2.153088e+02
   8.916086e+01  -1.740604e+02
   1.493747e+02  -3.849978e+01
   7.556395e+01   4.152681e+01
  -2.905015e+01   8.558289e+00
  -4.524155e+01  -8.187770e+01
   6.477759e+01  -1.234927e+02
   1.994024e+02  -4.420791e+01
   2.036034e+02   1.174368e+02
   3.436761e+01   2.257684e+02
  -1.605972e+02   1.750931e+02
  -2.019866e+02   9.475443e+00
  -7.381807e+01  -1.215941e+02
   6.537453e+01  -1.193935e+02
   8.612517e+01  -3.194688e+01
   2.220274e+01   2.910057e+01
  -1.956601e+01   2.007139e+01
   7.858549e+00  -1.031982e+01
   6.908044e+01   1.631914e+00
   9.240235e+01   7.415798e+01
   2.400338e+01   1.582776e+02
  -1.177186e+02   1.643731e+02
  -2.331022e+02   4.038032e+01
  -2.127269e+02  -1.422579e+02
  -5.425415e+01  -2.418987e+02
   1.018488e+02  -1.769791e+02
   1.347948e+02  -3.023302e+01
   7.178107e+01   5.639382e+01
   2.700552e+01   3.600159e+01
   5.008330e+01  -1.529438e+01
   7.584819e+01  -1.343734e+01
   4.350368e+01   4.633057e+01
  -3.543859e+01   8.906527e+01
  -9.572789e+01   6.102953e+01
  -8.707523e+01  -2.946900e+01
   4.109504e+00  -1.103415e+02
   1.351271e+02  -9.382263e+01
   2.022787e+02   3.818149e+01
   1.139841e+02   1.984594e+02
  -9.222696e+01   2.396568e+02
  -2.639827e+02   1.110179e+02
  -2.650890e+02  -7.505920e+01
  -1.210273e+02  -1.752602e+02
   3.051324e+01  -1.532170e+02
   8.990480e+01  -8.988456e+01
   7.500556e+01  -7.228829e+01
   6.251204e+01  -9.268499e+01
   9.007530e+01  -7.919578e+01
   1.310106e+02   1.421672e+01
   1.250003e+02   1.469919e+02
   3.821818e+01   2.247285e+02
  -9.222695e+01   1.769150e+02
  -1.789340e+02   2.908190e+01
  -1.454450e+02  -1.168076e+02
  -2.644869e+01  -1.610439e+02
   6.686760e+01  -9.840727e+01
   6.240841e+01  -4.164083e+00
   8.352961e+00   4.069887e+01
  -7.362664e+00   3.441826e+01
   4.060416e+01   1.636290e+01
   8.119245e+01   2.037160e+01
   4.559430e+01   3.763807e+01
  -6.028133e+01   4.260753e+01
  -1.545450e+02   1.446714e+01
  -1.450480e+02  -4.349886e+01
  -2.216839e+01  -8.800809e+01
   1.124700e+02  -8.454140e+01
   1.421988e+02  -2.165716e+01
   5.216878e+01   4.027294e+01
  -5.712074e+01   4.275610e+01
  -7.534383e+01  -1.461750e+01
  -1.207554e+01  -6.815063e+01
   5.355982e+01  -5.911660e+01
   6.375738e+01  -8.771222e-01
   4.614828e+01   4.792099e+01
   3.993798e+01   3.687133e+01
   5.318213e+01  -2.555809e+00
   6.377760e+01  -6.773281e+00
   4.167665e+01   6.236501e+01
  -1.808655e+01   1.460295e+02
  -1.055100e+02   1.471014e+02
  -1.631160e+02   4.323994e+01
  -1.313447e+02  -8.500201e+01
  -1.866463e+01  -1.282921e+02
   8.102036e+01  -6.879307e+01
   6.472452e+01   1.364489e+01
  -5.469872e+01   2.774726e+01
  -1.391912e+02  -3.454910e+01
  -8.488701e+01  -1.109965e+02
   7.053138e+01  -1.186846e+02
   1.858703e+02  -6.329764e+01
   1.642853e+02   2.831458e+01
   4.219154e+01   8.802342e+01
  -6.149430e+01   7.349419e+01
  -5.205733e+01   8.913779e+00
   3.510944e+01  -2.917442e+01
   9.081019e+01   1.869771e+01
   3.694521e+01   1.155138e+02
  -8.464590e+01   1.561821e+02
  -1.683639e+02   6.649629e+01
  -1.339870e+02  -9.705480e+01
  -1.600090e+01  -1.978506e+02
   7.762166e+01  -1.488422e+02
   1.054139e+02   2.788920e+00
   6.667981e+01   1.131121e+02
   2.751710e+00   1.061774e+02
  -4.582482e+01   2.228164e+01
  -5.209777e+01  -2.797140e+01
  -2.536596e+01  -8.180888e+00
  -3.558589e+00   2.227038e+01
  -2.177076e+01  -1.311814e+01
  -5.870281e+01  -8.480978e+01
  -4.581445e+01  -1.095590e+02
   4.552815e+01  -5.148839e+01
   1.406707e+02   2.752527e+01
   1.315686e+02   6.497847e+01
   1.684111e+01   5.167863e+01
  -9.015555e+01   2.520605e+01
  -8.945887e+01   1.072234e+01
  -1.083703e+01  -8.343364e+00
   3.817003e+01  -2.588640e+01
   1.566543e+01  -2.232498e+01
  -1.920781e+01  -5.262747e-02
   6.173924e+00   8.247345e+00
   7.505713e+01   2.256336e+00
   9.107193e+01   2.231592e+01
   1.190983e+01   8.053823e+01
  -1.128114e+02   1.166784e+02
  -1.819048e+02   6.488193e+01
  -1.466961e+02  -6.285665e+01
  -3.396686e+01  -1.654124e+02
   7.291351e+01  -1.569847e+02
   1.132539e+02  -6.342924e+01
   8.510140e+01   2.111725e+01
   2.828978e+01   3.727435e+01
  -1.586777e+00   9.213096e+00
   1.004343e+01   1.206007e+00
   3.538849e+01   4.171559e+01
   2.531124e+01   9.036091e+01
  -2.846708e+01   7.526605e+01
  -8.461638e+01  -1.553809e+01
  -8.075777e+01  -1.073259e+02
  -5.534759e+00  -1.139009e+02
   8.531123e+01  -2.537057e+01
   1.077429e+02   7.337538e+01
   3.374281e+01   1.020400e+02
  -6.492723e+01   5.771464e+01
  -9.800270e+01  -7.698202e+00
  -4.155239e+01  -4.712013e+01
   2.784827e+01  -5.056938e+01
   2.703319e+01  -2.947876e+01
  -3.603469e+01   1.140127e+00
  -6.983142e+01   6.368701e+00
  -1.671964e+01  -2.650337e+01
   7.531818e+01  -7.271786e+01
   1.146858e+02  -6.562665e+01
   6.537166e+01   7.652118e+00
  -9.037519e+00   8.203846e+01
  -4.730355e+01   8.098928e+01
  -3.593849e+01   4.052808e+00
  -1.044061e+00  -5.597957e+01
   2.615803e+01  -4.104387e+01
   3.677873e+01   1.981600e+01
   2.587861e+01   5.523434e+01
  -4.400402e+00   3.310932e+01
  -3.484671e+01  -8.019891e+00
  -3.979885e+01  -2.019408e+01
  -1.969858e+01  -5.625254e-01
   1.254287e+00   1.441123e+01
   6.101662e+00  -2.648844e+00
   4.308296e+00  -3.604187e+01
   1.353720e+01  -4.382905e+01
   3.474835e+01  -8.687652e+00
   3.269931e+01   4.295370e+01
   6.462997e-01   5.954017e+01
  -4.421701e+01   2.118721e+01
  -5.886756e+01  -3.699414e+01
  -1.807527e+01  -6.247611e+01
   5.286888e+01  -3.591162e+01
   8.766610e+01   1.189398e+01
   5.037816e+01   4.183014e+01
  -2.685290e+01   4.087517e+01
  -6.300409e+01   2.151056e+01
  -2.223484e+01   3.920295e+00
   3.652294e+01   2.565160e+00
   3.765300e+01   1.660987e+01
  -2.829476e+01   3.294766e+01
  -8.781110e+01   2.330659e+01
