
 $NMID
 id='ANONYMOUS ', fmtdat='(2E16.6)'
 volume=1.0
 tramp=1.0
 $END
  -2.656244e+03  -4.560247e+01
  -1.739138e+03  -1.396270e+03
  -1.200713e+01  -1.786843e+03
   1.108425e+03  -9.885075e+02
   7.108319e+02   4.170205e+00
  -1.594358e+02   2.861462e+02
  -4.386306e+02  -1.498590e+02
  -8.242825e+01  -5.748379e+02
   3.878306e+02  -5.239582e+02
   5.493547e+02  -5.350971e+01
   3.561624e+02   4.572975e+02
  -1.814395e+01   5.650506e+02
  -3.062006e+02   1.236621e+02
  -2.458536e+02  -4.011710e+02
   9.091438e+01  -4.860538e+02
   3.220302e+02  -6.026692e+01
   2.280264e+02   3.909469e+02
  -1.170123e+02   4.445303e+02
  -3.522003e+02   1.678809e+02
  -2.928730e+02  -1.596590e+02
  -7.395292e+01  -2.741856e+02
   1.060820e+02  -1.988752e+02
   1.020161e+02  -5.204781e+01
  -8.896209e+01  -8.594478e+00
  -2.492622e+02  -1.132651e+02
  -8.985050e+01  -2.602028e+02
   3.020634e+02  -2.134746e+02
   5.248228e+02   3.331979e+01
   2.690716e+02   2.630881e+02
  -2.067681e+02   2.463226e+02
  -4.178472e+02  -6.005176e+00
  -2.146523e+02  -2.417967e+02
   1.577301e+02  -2.945808e+02
   3.486249e+02  -1.553344e+02
   2.796821e+02   8.346711e+01
   9.999754e+01   2.673617e+02
  -5.324403e+01   1.965466e+02
  -5.732532e+01  -8.999904e+01
   9.397086e+01  -2.189983e+02
   2.140131e+02   1.882003e+01
   1.357929e+02   3.979563e+02
  -1.378228e+02   4.354263e+02
  -3.097793e+02   5.520515e+01
  -1.602768e+02  -2.883513e+02
   1.273851e+02  -1.857593e+02
   2.019768e+02   1.788661e+02
  -4.559608e+01   3.162503e+02
  -3.266876e+02   9.129577e+01
  -4.139589e+02  -2.363715e+02
  -1.454567e+02  -3.657842e+02
   2.165553e+02  -2.396548e+02
   3.993997e+02   2.608919e+01
   2.679486e+02   2.076229e+02
  -5.701147e+01   2.253168e+02
  -2.724000e+02   5.742194e+01
  -1.831145e+02  -8.284925e+01
   3.252771e+01  -5.443433e+01
   7.695708e+01   6.359438e+01
  -8.849154e+01   8.383606e+01
  -1.981537e+02  -4.001758e+01
  -9.238779e+01  -1.534034e+02
   1.122195e+02  -1.606900e+02
   2.165537e+02  -7.654220e+01
   1.494861e+02   3.654043e+01
  -7.734698e+00   1.738507e+02
  -1.541483e+02   2.537821e+02
  -2.441905e+02   1.684209e+02
  -2.042748e+02  -7.684087e+01
  -7.918738e+01  -2.859395e+02
   3.015459e+01  -2.850548e+02
   5.475752e+01  -1.401293e+02
   3.332336e+01  -4.173316e+01
   6.970126e+01  -5.624089e+01
   1.501675e+02  -6.354136e+01
   1.777100e+02   4.920966e+01
   9.850912e+01   1.701602e+02
  -3.719584e+01   1.560676e+02
  -1.325839e+02   1.162576e+00
  -1.179857e+02  -1.543123e+02
   9.660303e-01  -1.890577e+02
   1.636890e+02  -7.133021e+01
   2.307889e+02   1.033712e+02
   1.406882e+02   2.255170e+02
  -3.089751e+01   2.083374e+02
  -1.350702e+02   1.095704e+02
  -1.136468e+02   3.423019e+01
  -9.808477e+01   3.211923e+01
  -1.714859e+02   3.071019e+01
  -2.639063e+02  -3.357088e+01
  -2.243242e+02  -1.779160e+02
  -1.508448e+01  -2.928949e+02
   2.353405e+02  -2.897655e+02
   3.241516e+02  -1.491234e+02
   2.111406e+02   4.686928e+01
   3.218248e+01   1.832804e+02
  -6.195734e+01   1.613275e+02
  -2.369493e+01   2.601952e+01
   8.130785e+01  -6.069002e+01
   1.188847e+02   3.768432e+00
   3.512921e+01   1.217674e+02
  -9.394887e+01   1.104093e+02
  -1.053263e+02  -2.717422e+01
   2.612891e+00  -1.058009e+02
   1.151008e+02  -1.243521e+01
   1.146040e+02   1.597821e+02
  -2.836192e+00   2.356710e+02
  -1.531236e+02   1.457007e+02
  -2.386856e+02  -2.674093e+01
  -2.047289e+02  -1.603843e+02
  -7.289928e+01  -1.883965e+02
   7.407530e+01  -1.149259e+02
   1.165588e+02  -1.815260e+01
   4.316584e+01   1.395125e+01
  -3.869966e+01  -2.921116e+01
  -1.592672e+01  -7.755269e+01
   7.880956e+01  -6.243706e+01
   1.115477e+02   5.736542e+00
   3.591460e+01   4.115677e+01
  -5.161923e+01   1.197126e+00
  -3.284342e+01  -5.228970e+01
   9.144324e+01  -5.480787e+01
   2.004717e+02   9.133489e+00
   1.845756e+02   9.861518e+01
   4.233942e+01   1.729554e+02
  -1.221360e+02   1.773536e+02
  -1.899346e+02   1.001392e+02
  -1.177732e+02  -1.400276e+01
   9.533099e+00  -6.661211e+01
   5.379539e+01  -1.146569e+01
  -2.764540e+01   6.272386e+01
  -1.355193e+02   4.292549e+01
  -1.449702e+02  -5.644199e+01
  -5.298021e+01  -1.307684e+02
   5.287630e+01  -1.085515e+02
   8.659615e+01  -2.903106e+01
   4.115355e+01   1.949416e+01
  -2.276954e+01  -7.164720e+00
  -2.301598e+01  -6.191602e+01
   5.465440e+01  -8.075831e+01
   1.373868e+02  -2.581000e+01
   1.351556e+02   7.453403e+01
   2.295560e+01   1.453535e+02
  -1.012672e+02   1.194757e+02
  -1.244603e+02   1.652577e+01
  -4.504905e+01  -6.721701e+01
   3.801104e+01  -7.291185e+01
   4.792141e+01  -2.320013e+01
   5.255388e+00   1.455440e+01
  -1.781519e+01   9.093930e+00
   9.395305e+00  -9.596130e+00
   5.392514e+01   3.177631e+00
   6.842699e+01   5.729315e+01
   1.702990e+01   1.129395e+02
  -8.127843e+01   1.123324e+02
  -1.593701e+02   2.620861e+01
  -1.446888e+02  -9.334229e+01
  -4.170092e+01  -1.553349e+02
   6.629039e+01  -1.181769e+02
   8.999724e+01  -2.705819e+01
   4.934426e+01   2.929363e+01
   2.210894e+01   1.640051e+01
   3.857680e+01  -1.428491e+01
   6.195765e+01  -5.485053e+00
   3.500212e+01   3.753365e+01
  -2.986965e+01   6.811568e+01
  -7.775334e+01   4.268116e+01
  -6.607834e+01  -2.490800e+01
   7.976218e+00  -8.301644e+01
   1.014113e+02  -6.876773e+01
   1.415720e+02   3.414374e+01
   7.459461e+01   1.416865e+02
  -6.812500e+01   1.594577e+02
  -1.822547e+02   7.227746e+01
  -1.806775e+02  -5.040176e+01
  -8.086821e+01  -1.163480e+02
   2.333874e+01  -1.005559e+02
   5.969651e+01  -6.153841e+01
   5.145067e+01  -5.502652e+01
   4.020080e+01  -6.848253e+01
   5.948487e+01  -5.538245e+01
   8.821959e+01   1.162075e+01
   8.407495e+01   1.012585e+02
   2.558635e+01   1.528095e+02
  -5.703322e+01   1.168290e+02
  -1.113876e+02   1.802468e+01
  -9.196190e+01  -7.649034e+01
  -1.642554e+01  -1.032258e+02
   4.123718e+01  -5.945286e+01
   3.717962e+01   1.078643e+00
   3.311029e-01   3.087998e+01
  -7.576742e+00   2.551894e+01
   2.302581e+01   9.677157e+00
   5.735172e+01   1.219013e+01
   3.282534e+01   2.352204e+01
  -4.724049e+01   2.648348e+01
  -1.138998e+02   5.047768e+00
  -9.999566e+01  -3.199497e+01
  -8.925321e+00  -5.884900e+01
   8.451194e+01  -5.621773e+01
   1.014869e+02  -1.723633e+01
   3.744876e+01   2.451484e+01
  -3.637526e+01   3.063592e+01
  -5.425743e+01  -7.600035e+00
  -1.183191e+01  -4.653405e+01
   3.273065e+01  -4.484976e+01
   4.428670e+01  -2.864254e+00
   3.528960e+01   3.051282e+01
   3.590439e+01   2.604018e+01
   4.634801e+01   4.484005e-01
   4.789856e+01   1.499540e+00
   2.689965e+01   4.812670e+01
  -1.836081e+01   1.036048e+02
  -7.742382e+01   1.041680e+02
  -1.131846e+02   3.295858e+01
  -8.978398e+01  -5.528406e+01
  -8.774548e+00  -8.783255e+01
   5.582952e+01  -5.153945e+01
   3.955997e+01   2.183415e+00
  -3.517211e+01   1.660102e+01
  -9.209972e+01  -1.660039e+01
  -5.694439e+01  -6.226933e+01
   4.862131e+01  -8.123421e+01
   1.234598e+02  -4.452698e+01
   1.142501e+02   1.446968e+01
   3.049436e+01   5.476110e+01
  -3.511946e+01   4.608205e+01
  -3.311820e+01   6.608076e+00
   2.333615e+01  -1.840649e+01
   6.175941e+01   8.852809e+00
   3.118690e+01   7.733982e+01
  -4.738856e+01   1.064810e+02
  -1.070495e+02   5.352196e+01
  -9.464792e+01  -5.845111e+01
  -1.747087e+01  -1.374080e+02
   5.468595e+01  -1.040898e+02
   7.143894e+01   2.053754e-01
   4.689028e+01   7.937300e+01
   1.369501e+00   7.739829e+01
  -3.428776e+01   1.769775e+01
  -3.812407e+01  -2.159477e+01
  -1.640946e+01  -6.383910e+00
  -2.778197e+00   1.086757e+01
  -1.634973e+01  -1.178957e+01
  -3.909974e+01  -5.760395e+01
  -2.823581e+01  -6.983793e+01
   2.969194e+01  -3.010775e+01
   8.916129e+01   1.927571e+01
   8.767316e+01   4.050168e+01
   1.904673e+01   3.001931e+01
  -5.427024e+01   2.035890e+01
  -5.969549e+01   1.131259e+01
  -9.587399e+00  -3.292455e+00
   2.326784e+01  -1.754722e+01
   1.242645e+01  -1.329726e+01
  -1.255361e+01   3.041679e+00
   1.678023e+00   7.903469e+00
   4.644550e+01  -7.192962e-02
   6.307278e+01   7.652101e+00
   1.392085e+01   5.038298e+01
  -7.019865e+01   8.233656e+01
  -1.253279e+02   5.222807e+01
  -1.061506e+02  -3.424020e+01
  -2.911448e+01  -1.094903e+02
   4.947885e+01  -1.139623e+02
   8.002059e+01  -5.417820e+01
   6.018305e+01   8.791889e+00
   2.067285e+01   2.561427e+01
  -5.547259e-01   9.618456e+00
   8.583588e+00   4.705948e+00
   2.588313e+01   3.062641e+01
   1.971158e+01   6.322658e+01
  -1.487695e+01   5.265649e+01
  -5.542647e+01  -5.639730e+00
  -6.079484e+01  -6.710197e+01
  -1.472545e+01  -7.620947e+01
   5.088234e+01  -2.282504e+01
   7.556996e+01   4.264790e+01
   2.961263e+01   6.928987e+01
  -4.124698e+01   4.579900e+01
  -7.149361e+01  -1.444064e+00
  -3.320918e+01  -3.530191e+01
   1.961761e+01  -4.190142e+01
   2.365940e+01  -2.458416e+01
  -1.929914e+01   2.734105e+00
  -4.550347e+01   1.187444e+01
  -1.213177e+01  -1.375311e+01
   4.890239e+01  -4.948131e+01
   7.685017e+01  -5.097197e+01
   4.705731e+01   1.924352e-01
  -2.580195e+00   5.830078e+01
  -3.332907e+01   6.252397e+01
  -2.665534e+01   1.072003e+01
  -6.515810e+00  -3.720770e+01
   1.224995e+01  -3.470853e+01
   2.586055e+01   6.383437e+00
   2.350480e+01   3.431789e+01
   2.469131e+00   2.412896e+01
  -2.262166e+01  -3.123932e+00
  -3.174340e+01  -1.331148e+01
  -1.748060e+01  -1.859240e+00
   3.079408e+00   1.023335e+01
   7.178640e+00  -5.802370e-02
   4.902312e-01  -2.546990e+01
   3.878452e+00  -3.421254e+01
   1.948693e+01  -9.273440e+00
   2.742167e+01   2.871888e+01
   6.067907e+00   4.211259e+01
  -2.926686e+01   1.840698e+01
  -4.395857e+01  -2.214488e+01
  -1.424599e+01  -4.184224e+01
   3.792977e+01  -2.599878e+01
   6.436077e+01   6.445809e+00
   3.670146e+01   2.870894e+01
  -1.888002e+01   3.096456e+01
  -4.462154e+01   2.008854e+01
  -1.955931e+01   5.208921e+00
   2.230533e+01  -3.446683e+00
   2.555903e+01   3.416991e+00
  -1.728034e+01   1.970789e+01
  -5.673664e+01   1.888293e+01
