
 $NMID
 id='ANONYMOUS ', fmtdat='(2E16.6)'
 volume=1.0
 tramp=1.0
 $END
   1.748345e+03   1.727322e+02
   1.157089e+03   8.765611e+02
  -1.570457e+01   9.991111e+02
  -6.535607e+02   6.355755e+02
  -4.562874e+02   1.537078e+02
  -7.022510e-01  -3.326495e+01
   1.552243e+02   9.002986e+01
  -5.416544e+00   2.745451e+02
  -2.196854e+02   2.815271e+02
  -3.265407e+02   5.978110e+00
  -1.941481e+02  -3.019396e+02
   2.286967e+00  -3.409158e+02
   1.431833e+02  -4.930311e+01
   9.311912e+01   2.563496e+02
  -6.352906e+01   2.846392e+02
  -1.772897e+02   9.989158e+00
  -1.229216e+02  -2.605751e+02
   9.093092e+01  -3.022634e+02
   2.493540e+02  -1.033936e+02
   2.106362e+02   1.161245e+02
   4.692356e+01   1.868667e+02
  -8.770377e+01   1.155752e+02
  -5.009749e+01   4.711358e+01
   1.188647e+02   7.500447e+01
   1.723144e+02   1.703397e+02
  -1.495020e+01   2.097759e+02
  -2.602951e+02   8.345656e+01
  -3.459386e+02  -1.038590e+02
  -9.451869e+01  -1.864275e+02
   1.752855e+02  -1.031444e+02
   2.677659e+02   7.931859e+01
   7.396466e+01   1.797133e+02
  -1.640222e+02   1.617751e+02
  -2.373880e+02   5.923967e+01
  -1.335263e+02  -7.213094e+01
  -1.458945e+01  -1.606303e+02
   2.218457e+01  -7.770555e+01
  -3.244769e+01   5.959444e+01
  -1.142351e+02   9.340358e+01
  -1.150066e+02  -7.547186e+01
  -1.157686e+01  -2.689285e+02
   1.376497e+02  -2.396965e+02
   1.711728e+02   1.268518e+01
   5.248739e+01   1.845851e+02
  -8.653165e+01   6.751432e+01
  -7.745010e+01  -1.685191e+02
   7.658275e+01  -1.907386e+02
   2.198294e+02   7.403951e+00
   2.389921e+02   2.082937e+02
   5.206225e+01   2.512291e+02
  -1.775474e+02   1.148851e+02
  -2.690612e+02  -6.965626e+01
  -1.548259e+02  -1.367747e+02
   5.416812e+01  -1.155521e+02
   1.638804e+02  -2.506533e+01
   1.138362e+02   1.479665e+01
  -6.390871e+00  -1.301614e+00
  -1.446683e+01  -3.068384e+01
   6.850007e+01  -2.055946e+01
   1.184926e+02   4.408413e+01
   4.300342e+01   1.000718e+02
  -9.098469e+01   1.181235e+02
  -1.825994e+02   6.127686e+01
  -1.194355e+02  -5.141004e+01
   3.195002e+01  -1.556215e+02
   1.655096e+02  -1.857755e+02
   1.813196e+02  -8.479169e+01
   1.036996e+02   8.362977e+01
   1.397585e+01   1.847475e+02
  -2.552368e+01   1.731863e+02
  -1.261829e+01   9.497151e+01
  -1.826519e+01   5.548095e+01
  -8.282912e+01   5.558210e+01
  -1.386453e+02   1.715362e+01
  -1.167708e+02  -8.030780e+01
  -2.995095e+01  -1.400942e+02
   6.015732e+01  -9.008047e+01
   9.952603e+01   3.849140e+01
   5.637173e+01   1.388421e+02
  -3.152284e+01   1.237898e+02
  -1.272696e+02   1.734083e+01
  -1.481367e+02  -9.748805e+01
  -7.700765e+01  -1.512253e+02
   3.412724e+01  -1.234427e+02
   8.737298e+01  -6.766602e+01
   6.843692e+01  -3.571356e+01
   7.272952e+01  -3.334614e+01
   1.446316e+02  -1.462884e+01
   2.110992e+02   6.095019e+01
   1.586644e+02   1.675300e+02
  -3.533438e+01   2.217647e+02
  -2.228008e+02   1.807705e+02
  -2.506944e+02   6.569971e+01
  -1.296246e+02  -6.467212e+01
   1.059586e+01  -1.281062e+02
   4.950818e+01  -9.613627e+01
  -7.460480e+00  -2.039626e+01
  -7.906544e+01   1.455822e+01
  -6.508663e+01  -2.463215e+01
   1.003443e+01  -7.697003e+01
   7.551549e+01  -5.031608e+01
   5.533545e+01   3.733856e+01
  -2.416304e+01   6.865136e+01
  -8.460586e+01  -1.113337e+01
  -6.818387e+01  -1.310623e+02
   1.683352e+01  -1.747565e+02
   1.305801e+02  -1.003696e+02
   1.878564e+02   4.385611e+01
   1.409508e+02   1.456930e+02
   2.702218e+01   1.443325e+02
  -7.269295e+01   6.970610e+01
  -8.096495e+01  -3.392173e+00
  -1.621579e+01  -2.981294e+00
   2.611466e+01   3.891222e+01
  -8.851336e+00   5.697559e+01
  -7.195387e+01   2.708163e+01
  -7.868627e+01  -2.150047e+01
  -1.210914e+01  -2.788512e+01
   4.482649e+01   1.683718e+01
   1.581182e+01   5.008803e+01
  -9.038680e+01   3.509977e+01
  -1.619366e+02  -2.592365e+01
  -1.289931e+02  -1.039108e+02
   1.441561e+00  -1.418487e+02
   1.270075e+02  -1.172350e+02
   1.520580e+02  -4.773017e+01
   6.726118e+01   2.759880e+01
  -2.196898e+01   4.009157e+01
  -3.528646e+01  -4.762313e+00
   3.504440e+01  -4.061962e+01
   1.037629e+02  -8.779555e+00
   9.782347e+01   5.962714e+01
   2.208262e+01   9.882279e+01
  -4.961304e+01   6.730391e+01
  -6.380364e+01   7.945868e+00
  -1.901367e+01  -1.759990e+01
   2.492522e+01   1.490675e+01
   1.153621e+01   6.047401e+01
  -5.917219e+01   5.551385e+01
  -1.149260e+02  -2.906917e+00
  -8.924222e+01  -7.869499e+01
   8.734937e+00  -1.073186e+02
   9.243503e+01  -7.232498e+01
   9.104850e+01   1.712045e+00
   2.102392e+01   5.207867e+01
  -3.778617e+01   4.950914e+01
  -3.630125e+01   1.034829e+01
   9.522065e-01  -1.305853e+01
   1.846168e+01  -5.576002e+00
  -6.075084e+00   1.117592e+01
  -4.740410e+01  -5.152405e+00
  -5.306408e+01  -5.196982e+01
  -1.500699e+00  -9.331615e+01
   7.903543e+01  -7.623731e+01
   1.250832e+02   2.451439e+00
   9.453610e+01   8.520808e+01
   1.231982e+01   1.162088e+02
  -5.790343e+01   7.918355e+01
  -6.551673e+01   1.089243e+01
  -3.436257e+01  -2.700409e+01
  -1.529645e+01  -1.680874e+01
  -2.619094e+01   5.520638e+00
  -4.436133e+01   2.425093e+00
  -2.545264e+01  -2.930414e+01
   2.595822e+01  -5.430093e+01
   6.658203e+01  -3.037296e+01
   5.366730e+01   2.903905e+01
  -1.655115e+01   6.985843e+01
  -9.271632e+01   4.280086e+01
  -1.062076e+02  -4.569047e+01
  -3.536027e+01  -1.180129e+02
   7.165364e+01  -1.124647e+02
   1.397773e+02  -3.738938e+01
   1.228278e+02   5.371789e+01
   4.183434e+01   8.808973e+01
  -2.888847e+01   6.648844e+01
  -5.058758e+01   3.234351e+01
  -3.606574e+01   3.246171e+01
  -3.120113e+01   4.883727e+01
  -4.782198e+01   3.791650e+01
  -6.561220e+01  -1.693996e+01
  -5.558815e+01  -8.604562e+01
  -8.835177e+00  -1.197730e+02
   5.528035e+01  -7.946596e+01
   8.545389e+01   3.035288e+00
   5.582007e+01   7.182575e+01
  -6.379345e+00   8.062084e+01
  -4.500182e+01   3.696498e+01
  -2.926250e+01  -1.206813e+01
   6.115761e+00  -2.906513e+01
   1.212350e+01  -1.667988e+01
  -1.540783e+01  -7.738115e+00
  -4.433718e+01  -1.348352e+01
  -2.473706e+01  -2.121617e+01
   4.107041e+01  -1.847267e+01
   9.398160e+01   5.920284e+00
   7.215925e+01   3.533718e+01
  -4.545738e+00   4.713979e+01
  -7.314943e+01   3.180215e+01
  -7.356136e+01  -1.759479e+00
  -1.971997e+01  -2.515702e+01
   3.218075e+01  -2.096456e+01
   4.076848e+01   1.087867e+01
   7.294244e+00   3.691159e+01
  -2.502828e+01   3.277286e+01
  -3.443075e+01   3.085787e-01
  -2.822875e+01  -2.561153e+01
  -2.459435e+01  -2.357800e+01
  -3.100718e+01  -2.232153e+00
  -3.578684e+01  -3.570391e+00
  -1.961692e+01  -3.798017e+01
   1.734068e+01  -7.578305e+01
   6.904669e+01  -7.070262e+01
   9.441339e+01  -1.156593e+01
   6.376089e+01   5.172521e+01
  -4.127913e+00   6.671115e+01
  -4.972498e+01   3.254897e+01
  -2.893144e+01  -6.875405e+00
   3.118639e+01  -9.443432e+00
   6.982184e+01   2.312487e+01
   3.298587e+01   5.385241e+01
  -4.761381e+01   5.988365e+01
  -9.988921e+01   2.172237e+01
  -8.227400e+01  -2.065977e+01
  -1.611940e+01  -4.580976e+01
   3.254342e+01  -3.158038e+01
   2.532271e+01  -1.357290e+00
  -2.189402e+01   1.411753e+01
  -4.639338e+01  -1.040553e+01
  -1.832386e+01  -5.978154e+01
   4.125710e+01  -7.843697e+01
   8.204827e+01  -3.646549e+01
   6.481866e+01   4.822288e+01
   7.985654e+00   1.050322e+02
  -4.385035e+01   7.497370e+01
  -5.375119e+01  -6.629775e+00
  -2.884468e+01  -6.484095e+01
   9.215375e+00  -5.636414e+01
   2.811821e+01  -8.012223e+00
   2.635000e+01   1.770579e+01
   1.011948e+01   4.120357e+00
   3.456554e+00  -7.114601e+00
   1.445856e+01   1.489424e+01
   2.580406e+01   5.293690e+01
   1.308851e+01   5.683113e+01
  -2.941640e+01   1.694362e+01
  -6.778227e+01  -2.521228e+01
  -6.243590e+01  -3.902003e+01
  -1.008495e+01  -2.489024e+01
   4.052825e+01  -9.277113e+00
   4.305717e+01  -2.539372e+00
   6.093537e+00   5.433220e+00
  -1.760437e+01   1.114264e+01
  -7.768335e+00   7.584306e+00
   7.747011e+00  -1.352486e+00
  -4.043380e+00  -4.630213e+00
  -3.788845e+01  -2.825638e+00
  -5.000783e+01  -1.258089e+01
  -1.093701e+01  -4.390894e+01
   6.101236e+01  -6.134211e+01
   1.031879e+02  -2.951264e+01
   7.890311e+01   3.508573e+01
   1.189893e+01   8.327239e+01
  -4.770151e+01   7.938712e+01
  -6.211353e+01   3.144274e+01
  -4.043244e+01  -1.095746e+01
  -1.146623e+01  -1.835930e+01
  -3.791749e-01  -6.132088e+00
  -8.076859e+00  -6.740069e+00
  -1.833377e+01  -2.807992e+01
  -7.686686e+00  -4.833872e+01
   1.638352e+01  -3.500858e+01
   3.948304e+01   8.766706e+00
   4.008680e+01   5.077162e+01
   5.648398e+00   5.482561e+01
  -3.779966e+01   1.465429e+01
  -5.279505e+01  -3.368162e+01
  -1.680091e+01  -5.318182e+01
   3.511927e+01  -3.222878e+01
   5.334727e+01   7.182618e+00
   2.088247e+01   3.281861e+01
  -2.001342e+01   3.256163e+01
  -2.016086e+01   1.480981e+01
   1.495776e+01  -2.745816e+00
   3.518266e+01  -2.381528e+00
   6.472825e+00   1.717296e+01
  -4.091056e+01   3.328642e+01
  -6.094833e+01   2.705973e+01
  -3.405738e+01  -9.615903e+00
   8.375132e+00  -4.278371e+01
   2.892291e+01  -3.982629e+01
   1.977989e+01  -5.822743e+00
   2.664650e+00   2.469517e+01
  -1.068653e+01   2.322650e+01
  -1.755103e+01  -4.354147e+00
  -1.511166e+01  -2.565845e+01
  -1.000914e+00  -1.970438e+01
   1.615161e+01   1.728583e+00
   2.159459e+01   1.098937e+01
   1.179002e+01   1.450752e+00
  -1.417630e+00  -1.017794e+01
  -2.687935e+00  -3.842412e+00
   1.896726e+00   1.624398e+01
  -5.743464e-01   2.715621e+01
  -1.269815e+01   8.466492e+00
  -1.976857e+01  -1.842440e+01
  -6.378622e+00  -3.005844e+01
   2.026516e+01  -1.278969e+01
   3.170184e+01   1.672741e+01
   1.005586e+01   3.099915e+01
  -3.081283e+01   1.811377e+01
  -4.894826e+01  -7.872644e+00
  -2.411696e+01  -2.425180e+01
   1.778232e+01  -2.328437e+01
   3.536768e+01  -1.242637e+01
   1.527431e+01  -2.380028e+00
  -1.564650e+01   9.549325e-01
  -1.733828e+01  -4.607831e+00
   1.489297e+01  -1.221933e+01
   4.342799e+01  -8.709841e+00
