
 $NMID
 id='ANONYMOUS ', fmtdat='(2E16.6)'
 volume=1.0
 tramp=1.0
 $END
  -2.882136e+03   5.913017e+01
  -1.762494e+03  -1.513302e+03
   3.488255e+02  -1.607074e+03
   1.253390e+03  -6.214248e+02
   5.896581e+02   2.441478e+02
  -3.335513e+02   2.579769e+02
  -4.780658e+02  -2.451883e+02
   2.090017e+01  -5.763190e+02
   4.691819e+02  -4.568014e+02
   5.642918e+02   2.624851e+01
   2.813082e+02   5.025854e+02
  -9.960509e+01   5.403585e+02
  -3.327542e+02   8.907359e+01
  -2.111663e+02  -4.048246e+02
   1.405802e+02  -4.611640e+02
   3.525792e+02  -1.148087e+01
   1.994761e+02   4.073217e+02
  -1.581471e+02   4.236290e+02
  -3.538788e+02   1.065333e+02
  -2.810910e+02  -1.888978e+02
  -5.018053e+01  -2.681501e+02
   1.428230e+02  -1.677805e+02
   1.341037e+02  -2.655686e+01
  -9.870437e+01   8.540746e+00
  -2.719780e+02  -1.170625e+02
  -1.008241e+02  -2.820947e+02
   2.964474e+02  -2.295475e+02
   5.162857e+02   6.491013e+01
   2.333423e+02   3.316685e+02
  -2.335886e+02   2.671595e+02
  -4.593728e+02  -3.958511e+01
  -1.994632e+02  -2.927407e+02
   1.756499e+02  -3.198902e+02
   3.402379e+02  -1.346508e+02
   2.509158e+02   1.256406e+02
   4.682972e+01   2.949141e+02
  -1.079076e+02   1.749869e+02
  -8.284575e+01  -1.199080e+02
   1.176968e+02  -2.599728e+02
   2.765888e+02   2.702417e+01
   1.520324e+02   4.388810e+02
  -1.847589e+02   4.497112e+02
  -3.534103e+02   1.418177e+01
  -1.578974e+02  -3.187834e+02
   1.521256e+02  -1.659063e+02
   2.048911e+02   2.195870e+02
  -5.527212e+01   3.399793e+02
  -3.308395e+02   7.430214e+01
  -3.652875e+02  -2.672559e+02
  -1.112649e+02  -3.651769e+02
   2.238484e+02  -2.094054e+02
   3.963836e+02   4.264185e+01
   2.308719e+02   2.095131e+02
  -9.435884e+01   2.135746e+02
  -2.644125e+02   3.346599e+01
  -1.438993e+02  -8.136787e+01
   7.092602e+01  -4.637241e+01
   8.230807e+01   8.304650e+01
  -9.256934e+01   1.005090e+02
  -2.131078e+02  -3.816894e+01
  -9.015215e+01  -1.712948e+02
   1.197594e+02  -1.714590e+02
   2.218495e+02  -7.024996e+01
   1.478932e+02   4.809282e+01
   4.222014e+00   1.577975e+02
  -1.477614e+02   2.325053e+02
  -2.120643e+02   1.522846e+02
  -1.776471e+02  -8.751790e+01
  -4.330138e+01  -2.705094e+02
   6.737352e+01  -2.345158e+02
   5.455419e+01  -7.768480e+01
   9.997853e+00  -1.926769e+01
   4.786786e+01  -7.494572e+01
   1.511125e+02  -7.878431e+01
   1.823993e+02   4.553952e+01
   9.480836e+01   1.765685e+02
  -5.063855e+01   1.554466e+02
  -1.373452e+02  -4.903092e-01
  -1.177856e+02  -1.539733e+02
   9.506121e+00  -1.818152e+02
   1.704993e+02  -7.029536e+01
   2.314821e+02   1.034946e+02
   1.228709e+02   2.138724e+02
  -5.734557e+01   1.937236e+02
  -1.412396e+02   8.459422e+01
  -9.319370e+01   1.439114e+01
  -6.035647e+01   2.800686e+01
  -1.491199e+02   3.431938e+01
  -2.653032e+02  -4.463692e+01
  -2.293458e+02  -1.828675e+02
  -3.955223e+00  -2.771373e+02
   2.296390e+02  -2.546883e+02
   3.039696e+02  -1.317308e+02
   2.033498e+02   5.470361e+01
   2.751430e+01   1.798435e+02
  -7.324657e+01   1.503186e+02
  -2.900302e+01   1.685839e+01
   8.404407e+01  -5.218270e+01
   1.117478e+02   1.187041e+01
   1.400846e+01   1.178526e+02
  -9.825258e+01   9.961582e+01
  -1.031167e+02  -4.246131e+01
   1.699042e+01  -1.132764e+02
   1.186239e+02  -1.205157e+01
   1.051829e+02   1.567379e+02
  -1.159822e+01   2.230859e+02
  -1.445255e+02   1.314701e+02
  -2.234380e+02  -2.963127e+01
  -1.903577e+02  -1.530201e+02
  -6.497531e+01  -1.736522e+02
   8.008025e+01  -1.069084e+02
   1.161336e+02  -1.337095e+01
   3.096473e+01   1.691294e+01
  -4.789382e+01  -2.801596e+01
  -1.701697e+01  -8.051021e+01
   8.152931e+01  -6.363288e+01
   1.158282e+02   7.525135e+00
   3.578621e+01   4.122662e+01
  -5.599205e+01   6.442165e+00
  -3.800117e+01  -5.076063e+01
   8.563981e+01  -6.120109e+01
   1.953299e+02   3.508254e+00
   1.785085e+02   9.979142e+01
   3.393118e+01   1.753377e+02
  -1.377710e+02   1.712848e+02
  -1.956861e+02   7.962487e+01
  -1.085609e+02  -3.649956e+01
   1.984886e+01  -7.127567e+01
   5.952664e+01  -3.696660e+00
  -2.251679e+01   6.327383e+01
  -1.261039e+02   3.272204e+01
  -1.395244e+02  -6.632513e+01
  -4.815684e+01  -1.345470e+02
   5.970520e+01  -1.003173e+02
   9.128392e+01  -1.462934e+01
   4.021751e+01   2.859958e+01
  -2.500212e+01  -2.601012e+00
  -2.768077e+01  -6.087873e+01
   4.837005e+01  -7.660713e+01
   1.331679e+02  -1.862470e+01
   1.281365e+02   8.203068e+01
   1.429583e+01   1.401343e+02
  -1.075208e+02   1.084124e+02
  -1.272870e+02   1.165744e+01
  -4.510215e+01  -7.038662e+01
   3.980148e+01  -7.403358e+01
   5.175468e+01  -2.017574e+01
   9.421018e+00   1.888181e+01
  -1.846394e+01   1.221151e+01
   2.506095e+00  -1.015168e+01
   5.073868e+01  -1.370009e+00
   6.408293e+01   5.049901e+01
   1.347826e+01   1.064866e+02
  -8.238953e+01   1.029076e+02
  -1.533679e+02   2.005458e+01
  -1.331799e+02  -9.316871e+01
  -3.270663e+01  -1.506921e+02
   6.233348e+01  -1.123663e+02
   8.571878e+01  -2.365112e+01
   5.038312e+01   3.333468e+01
   2.018583e+01   2.727229e+01
   2.678371e+01  -1.990817e+00
   4.626121e+01  -6.577710e+00
   2.926040e+01   2.746361e+01
  -2.112835e+01   5.816324e+01
  -6.560233e+01   4.009096e+01
  -6.130770e+01  -2.037041e+01
   4.690097e+00  -7.596508e+01
   9.443132e+01  -6.238133e+01
   1.340772e+02   3.049128e+01
   6.749379e+01   1.327836e+02
  -6.874602e+01   1.521474e+02
  -1.723936e+02   6.583985e+01
  -1.643393e+02  -5.560978e+01
  -6.947234e+01  -1.161442e+02
   2.571670e+01  -9.891093e+01
   6.332324e+01  -5.342295e+01
   5.109028e+01  -4.052390e+01
   4.378913e+01  -5.559064e+01
   5.781257e+01  -4.941688e+01
   8.246507e+01   8.747129e+00
   8.041407e+01   9.770997e+01
   2.682600e+01   1.492331e+02
  -5.889131e+01   1.159227e+02
  -1.146397e+02   1.740537e+01
  -9.093814e+01  -7.782306e+01
  -1.270726e+01  -1.023069e+02
   4.649878e+01  -5.930264e+01
   4.048653e+01   7.841360e-01
   2.881287e+00   2.977428e+01
  -9.003645e+00   2.168670e+01
   2.273208e+01   1.148635e+01
   5.362328e+01   1.336115e+01
   3.175596e+01   2.163608e+01
  -3.856037e+01   2.383724e+01
  -1.038191e+02   6.540523e+00
  -9.545792e+01  -3.375972e+01
  -1.031276e+01  -6.161040e+01
   8.088829e+01  -5.277767e+01
   9.696070e+01  -8.539656e+00
   3.740691e+01   2.939186e+01
  -3.407331e+01   2.742805e+01
  -5.019530e+01  -9.669957e+00
  -1.248283e+01  -4.354602e+01
   2.974967e+01  -3.891645e+01
   4.107867e+01  -9.773671e-01
   3.380041e+01   3.136739e+01
   2.853290e+01   2.625441e+01
   3.593964e+01   2.670237e+00
   4.129981e+01  -4.749389e-01
   2.722991e+01   3.911361e+01
  -1.506945e+01   9.053734e+01
  -7.508916e+01   9.340267e+01
  -1.122298e+02   2.961192e+01
  -8.525127e+01  -5.372695e+01
  -6.966117e+00  -8.190586e+01
   5.406763e+01  -4.438209e+01
   3.916157e+01   6.798256e+00
  -3.519505e+01   1.338829e+01
  -8.736537e+01  -2.750778e+01
  -4.389022e+01  -6.814156e+01
   5.190503e+01  -7.637001e+01
   1.229594e+02  -3.634831e+01
   1.108565e+02   1.942322e+01
   3.053064e+01   6.019930e+01
  -3.827603e+01   4.951625e+01
  -3.499742e+01   8.197152e+00
   2.383684e+01  -1.867240e+01
   5.979949e+01   1.197710e+01
   2.779943e+01   7.682114e+01
  -5.243142e+01   1.017990e+02
  -1.049870e+02   4.696571e+01
  -8.301674e+01  -5.838041e+01
  -1.359301e+01  -1.274532e+02
   4.671916e+01  -9.416548e+01
   6.729897e+01   1.696919e+00
   4.344910e+01   7.269383e+01
  -5.766685e-01   6.977381e+01
  -3.141964e+01   1.516916e+01
  -3.658270e+01  -1.929253e+01
  -1.572655e+01  -6.771902e+00
  -4.229183e-01   1.125839e+01
  -1.324399e+01  -9.351676e+00
  -3.930463e+01  -5.560095e+01
  -2.965373e+01  -6.622465e+01
   3.002291e+01  -2.956769e+01
   8.976661e+01   1.800947e+01
   8.560549e+01   4.187526e+01
   1.337119e+01   3.424571e+01
  -5.385148e+01   1.711677e+01
  -5.602789e+01   7.686324e+00
  -1.062002e+01  -5.790962e+00
   2.277186e+01  -1.608397e+01
   9.517686e+00  -1.362159e+01
  -1.093760e+01   6.407989e-01
   2.647799e+00   6.301911e+00
   4.655100e+01   7.128675e-01
   6.126782e+01   1.486220e+01
   1.434446e+01   5.227823e+01
  -7.020347e+01   7.649670e+01
  -1.232505e+02   4.058178e+01
  -9.932188e+01  -4.174763e+01
  -2.073683e+01  -1.048383e+02
   5.365973e+01  -9.841858e+01
   7.450258e+01  -3.824877e+01
   5.111500e+01   1.362530e+01
   1.519032e+01   2.219604e+01
  -5.489801e-01   5.185645e+00
   8.489047e+00   2.286411e+00
   2.244185e+01   2.985424e+01
   1.394871e+01   6.110577e+01
  -1.966590e+01   4.769525e+01
  -5.226472e+01  -1.010420e+01
  -5.041353e+01  -6.657579e+01
  -5.748591e+00  -7.080612e+01
   4.944926e+01  -1.801528e+01
   6.795996e+01   4.267404e+01
   2.448112e+01   6.348516e+01
  -4.005092e+01   3.810126e+01
  -6.397459e+01  -4.896447e+00
  -2.747313e+01  -3.285917e+01
   2.013457e+01  -3.533908e+01
   2.224286e+01  -1.865200e+01
  -2.062683e+01   8.655588e-01
  -4.588849e+01   5.289853e+00
  -1.233094e+01  -1.627623e+01
   4.766479e+01  -4.298919e+01
   7.433525e+01  -3.987731e+01
   4.578654e+01   5.794949e+00
  -6.462517e+00   5.447493e+01
  -3.398769e+01   5.470754e+01
  -2.713355e+01   7.426482e+00
  -2.732797e+00  -3.365003e+01
   1.573456e+01  -2.901479e+01
   2.395952e+01   8.483836e+00
   1.850842e+01   3.425941e+01
   5.416672e-01   2.474102e+01
  -2.215194e+01  -1.867144e+00
  -2.731362e+01  -1.475758e+01
  -1.460157e+01  -4.037109e+00
   2.968507e+00   8.867412e+00
   4.246328e+00   1.836850e+00
  -2.367410e-01  -1.982394e+01
   2.236772e+00  -3.063806e+01
   1.804693e+01  -7.713296e+00
   2.259868e+01   2.328302e+01
   4.399699e+00   3.626266e+01
  -2.564306e+01   1.513962e+01
  -3.841996e+01  -2.074356e+01
  -1.467512e+01  -3.730643e+01
   3.262065e+01  -2.445268e+01
   5.770697e+01   3.977217e+00
   3.316431e+01   2.520676e+01
  -1.718448e+01   2.683385e+01
  -4.104653e+01   1.505858e+01
  -1.556814e+01   3.361723e+00
   2.316680e+01   2.710280e-01
   2.410350e+01   1.027990e+01
  -1.920373e+01   1.924016e+01
  -5.897468e+01   1.141816e+01
