
 $NMID
 id='ANONYMOUS ', fmtdat='(2E16.6)'
 volume=1.0
 tramp=1.0
 $END
   3.626304e+03   1.744753e+01
   2.218978e+03   1.970829e+03
  -2.120178e+02   2.338052e+03
  -1.494074e+03   1.208120e+03
  -1.014236e+03   1.231396e+01
   7.256489e+01  -3.273240e+02
   4.614651e+02   1.673539e+02
   1.361612e+01   6.568162e+02
  -5.691430e+02   6.183298e+02
  -7.168078e+02   1.150539e+01
  -4.362864e+02  -6.198402e+02
   6.504290e+01  -7.096067e+02
   3.823729e+02  -1.440725e+02
   2.548939e+02   5.025540e+02
  -1.901807e+02   5.850528e+02
  -4.585887e+02   2.764973e+01
  -2.811681e+02  -5.824928e+02
   2.208040e+02  -6.606598e+02
   5.619535e+02  -2.248901e+02
   4.535309e+02   2.615896e+02
   9.142332e+01   4.042055e+02
  -1.738734e+02   2.490411e+02
  -1.011887e+02   7.483999e+01
   1.889055e+02   8.108743e+01
   3.011614e+02   2.756823e+02
  -1.834326e+01   3.893690e+02
  -5.086750e+02   1.938614e+02
  -6.417956e+02  -2.002272e+02
  -2.207572e+02  -4.076527e+02
   3.697955e+02  -2.395115e+02
   5.322203e+02   1.605837e+02
   1.728260e+02   4.107498e+02
  -3.125101e+02   3.790163e+02
  -4.763065e+02   1.205867e+02
  -3.169811e+02  -2.025321e+02
  -4.854648e+01  -3.534914e+02
   8.083565e+01  -1.894055e+02
   3.507910e+00   1.306081e+02
  -1.849298e+02   2.079484e+02
  -2.411890e+02  -1.291982e+02
  -4.720992e+01  -5.190632e+02
   2.541163e+02  -4.568852e+02
   3.604507e+02   2.844068e+01
   1.276702e+02   3.689138e+02
  -1.739170e+02   1.488910e+02
  -1.927757e+02  -3.071414e+02
   1.477292e+02  -4.114347e+02
   4.717802e+02  -3.952481e+01
   4.682490e+02   4.218337e+02
   1.017629e+02   5.282097e+02
  -3.584622e+02   2.715394e+02
  -5.524463e+02  -1.052721e+02
  -3.288373e+02  -3.088083e+02
   9.356367e+01  -2.527339e+02
   3.310925e+02  -6.326481e+01
   2.179823e+02   6.703845e+01
  -2.854568e+01   3.509082e+01
  -5.979844e+01  -8.183477e+01
   1.241747e+02  -7.570464e+01
   2.526605e+02   7.601332e+01
   1.067325e+02   2.234598e+02
  -1.932177e+02   2.329950e+02
  -3.491734e+02   8.757969e+01
  -2.335965e+02  -1.329984e+02
   5.907875e+01  -3.190178e+02
   3.187023e+02  -3.460619e+02
   3.998119e+02  -1.322447e+02
   2.488497e+02   1.961455e+02
   3.900674e+01   3.942180e+02
  -8.205147e+01   3.301914e+02
  -6.577077e+01   1.578417e+02
  -4.098434e+01   7.468462e+01
  -1.292454e+02   1.090502e+02
  -2.538339e+02   5.788834e+01
  -2.465459e+02  -1.392895e+02
  -7.469409e+01  -2.856914e+02
   1.188545e+02  -2.008843e+02
   2.056414e+02   5.687727e+01
   1.239947e+02   2.754023e+02
  -6.882921e+01   2.673574e+02
  -2.667920e+02   4.702152e+01
  -3.071618e+02  -2.072366e+02
  -1.464932e+02  -3.302866e+02
   8.375678e+01  -2.655497e+02
   1.927653e+02  -1.320225e+02
   1.509018e+02  -5.798195e+01
   1.475869e+02  -6.353762e+01
   2.830327e+02  -2.872792e+01
   4.174978e+02   1.257833e+02
   2.988684e+02   3.423452e+02
  -6.916940e+01   4.564102e+02
  -4.249796e+02   3.692220e+02
  -4.979783e+02   1.188199e+02
  -2.818256e+02  -1.433794e+02
   1.809502e+00  -2.715277e+02
   1.268119e+02  -1.998258e+02
   3.391711e+01  -2.658116e+01
  -1.148609e+02   5.504755e+01
  -1.454877e+02  -4.042667e+01
  -7.341248e+00  -1.601666e+02
   1.314280e+02  -1.201486e+02
   1.200424e+02   6.372472e+01
  -4.177173e+01   1.450392e+02
  -1.786368e+02  -1.006549e+01
  -1.360516e+02  -2.673844e+02
   6.231734e+01  -3.581974e+02
   2.768454e+02  -1.891206e+02
   3.588125e+02   1.027015e+02
   2.563033e+02   3.004979e+02
   4.265393e+01   2.874283e+02
  -1.406474e+02   1.321757e+02
  -1.532005e+02  -1.309077e+01
  -3.228338e+01  -2.397049e+01
   5.472317e+01   6.636389e+01
  -1.023394e+01   1.219708e+02
  -1.374201e+02   6.335097e+01
  -1.534807e+02  -3.889645e+01
  -2.580728e+01  -6.774310e+01
   8.752214e+01   1.943490e+01
   3.480544e+01   1.009174e+02
  -1.583196e+02   8.262858e+01
  -3.037791e+02  -4.480996e+01
  -2.451000e+02  -1.988256e+02
  -9.238635e+00  -2.732453e+02
   2.275894e+02  -2.230244e+02
   2.875003e+02  -7.345037e+01
   1.410684e+02   6.483666e+01
  -3.747045e+01   8.342172e+01
  -6.800248e+01  -1.464341e+01
   6.566160e+01  -8.739688e+01
   2.031694e+02  -2.226400e+01
   1.844526e+02   1.294123e+02
   3.365322e+01   2.056950e+02
  -1.057718e+02   1.317895e+02
  -1.255679e+02   4.086614e+00
  -4.035264e+01  -4.693681e+01
   4.209259e+01   2.304700e+01
   1.592874e+01   1.156713e+02
  -1.135788e+02   1.162485e+02
  -2.192027e+02  -3.805013e+00
  -1.754307e+02  -1.573776e+02
   9.145212e+00  -2.213412e+02
   1.763841e+02  -1.436812e+02
   1.809341e+02   9.619531e+00
   4.864635e+01   1.091094e+02
  -7.373047e+01   9.294639e+01
  -7.586421e+01   1.388126e+01
  -9.509648e-04  -2.999540e+01
   4.066598e+01  -6.108372e+00
  -1.146898e+01   2.480920e+01
  -8.922656e+01  -7.598969e+00
  -1.002493e+02  -1.046738e+02
   4.507802e+00  -1.790701e+02
   1.601735e+02  -1.429351e+02
   2.481287e+02   1.428873e+01
   1.839848e+02   1.842014e+02
   1.228445e+01   2.422319e+02
  -1.272481e+02   1.577149e+02
  -1.409923e+02   1.457650e+01
  -6.922519e+01  -6.159727e+01
  -2.623277e+01  -3.749852e+01
  -5.295311e+01   1.513198e+01
  -9.081312e+01   3.338232e+00
  -5.383435e+01  -6.383106e+01
   5.068059e+01  -1.087862e+02
   1.327634e+02  -5.775084e+01
   1.064876e+02   5.902010e+01
  -2.933874e+01   1.366672e+02
  -1.759749e+02   7.880685e+01
  -2.067057e+02  -9.128512e+01
  -7.216685e+01  -2.356726e+02
   1.497622e+02  -2.241223e+02
   2.883319e+02  -6.033366e+01
   2.486255e+02   1.198501e+02
   8.498361e+01   1.896292e+02
  -5.595814e+01   1.410574e+02
  -9.919967e+01   7.034283e+01
  -7.573937e+01   6.055151e+01
  -6.580409e+01   9.200782e+01
  -1.039211e+02   7.507691e+01
  -1.409794e+02  -3.196911e+01
  -1.095397e+02  -1.722100e+02
   1.072144e-01  -2.377421e+02
   1.257263e+02  -1.603402e+02
   1.777416e+02   7.183737e+00
   1.145550e+02   1.427686e+02
  -8.834013e+00   1.597015e+02
  -9.017045e+01   7.374910e+01
  -6.548336e+01  -2.360177e+01
   1.080071e+01  -5.857134e+01
   3.139951e+01  -3.393539e+01
  -2.416403e+01  -1.077950e+01
  -8.284559e+01  -2.511780e+01
  -4.521453e+01  -4.847399e+01
   8.270245e+01  -3.714500e+01
   1.764732e+02   2.251120e+01
   1.367825e+02   8.687361e+01
  -1.449953e+01   1.058749e+02
  -1.464821e+02   6.105342e+01
  -1.499015e+02  -1.446044e+01
  -3.890264e+01  -6.264544e+01
   6.456232e+01  -4.104235e+01
   7.932627e+01   2.721672e+01
   1.085793e+01   8.094999e+01
  -5.487255e+01   6.345526e+01
  -7.168044e+01  -6.688494e+00
  -5.223168e+01  -5.618804e+01
  -4.278730e+01  -4.334866e+01
  -6.016622e+01  -7.050272e-01
  -7.176027e+01  -7.039100e+00
  -4.368462e+01  -8.225821e+01
   4.117939e+01  -1.583709e+02
   1.415786e+02  -1.379984e+02
   1.857375e+02  -1.669640e+01
   1.229684e+02   1.108987e+02
  -1.117937e+01   1.375427e+02
  -1.024768e+02   6.095972e+01
  -6.299987e+01  -2.120048e+01
   5.965087e+01  -2.107300e+01
   1.326602e+02   4.868739e+01
   6.763197e+01   1.116729e+02
  -9.029097e+01   1.052983e+02
  -1.906593e+02   3.006111e+01
  -1.524291e+02  -5.595587e+01
  -2.393926e+01  -8.788663e+01
   6.641692e+01  -5.477538e+01
   4.624816e+01   7.082658e+00
  -4.286301e+01   2.908987e+01
  -9.326684e+01  -2.885834e+01
  -3.379063e+01  -1.230643e+02
   9.502254e+01  -1.542315e+02
   1.723736e+02  -5.975879e+01
   1.291039e+02   1.069781e+02
   6.223362e+00   1.991377e+02
  -1.009804e+02   1.344698e+02
  -1.071461e+02  -2.357307e+01
  -4.423787e+01  -1.270325e+02
   2.245931e+01  -1.031958e+02
   5.271391e+01  -1.058171e+01
   4.253567e+01   3.866698e+01
   1.446086e+01   8.870217e+00
   9.124356e+00  -1.844141e+01
   3.331381e+01   2.249247e+01
   5.346531e+01   9.584526e+01
   2.110935e+01   1.115242e+02
  -6.353437e+01   4.203879e+01
  -1.348309e+02  -4.852978e+01
  -1.192845e+02  -8.403195e+01
  -1.059341e+01  -5.926885e+01
   8.682334e+01  -1.926567e+01
   8.961125e+01   4.700282e+00
   1.398373e+01   1.645097e+01
  -3.978474e+01   2.187968e+01
  -2.157910e+01   1.097620e+01
   1.549961e+01  -5.647433e+00
  -1.605477e+00  -7.885403e+00
  -6.858394e+01  -3.380801e+00
  -9.491733e+01  -2.628474e+01
  -1.481199e+01  -8.880841e+01
   1.236645e+02  -1.184295e+02
   2.017159e+02  -5.291746e+01
   1.517270e+02   7.713387e+01
   2.018150e+01   1.710020e+02
  -9.547999e+01   1.551222e+02
  -1.258276e+02   5.678464e+01
  -8.176998e+01  -2.977982e+01
  -2.335302e+01  -4.387750e+01
   1.284543e+00  -1.436664e+01
  -1.348686e+01  -8.097499e+00
  -2.834893e+01  -5.020266e+01
  -1.318189e+01  -9.263487e+01
   3.696833e+01  -7.168956e+01
   8.116923e+01   1.974127e+01
   7.612038e+01   1.087761e+02
   2.871487e+00   1.154304e+02
  -8.360055e+01   2.749390e+01
  -1.041062e+02  -7.673452e+01
  -2.887667e+01  -1.106866e+02
   7.317436e+01  -6.169154e+01
   1.070527e+02   1.692618e+01
   4.205782e+01   6.424730e+01
  -3.903000e+01   6.069037e+01
  -4.041338e+01   2.622457e+01
   2.645880e+01  -2.483164e+00
   6.839721e+01  -3.183896e-01
   1.453723e+01   3.337010e+01
  -8.619192e+01   6.299067e+01
  -1.286948e+02   4.360069e+01
  -7.044628e+01  -2.415199e+01
   2.152497e+01  -8.600971e+01
   6.656844e+01  -7.739258e+01
   4.633322e+01  -6.694766e+00
   3.159754e+00   5.450413e+01
  -2.866068e+01   4.580026e+01
  -3.731502e+01  -1.551110e+01
  -2.307018e+01  -5.723104e+01
   6.967664e+00  -3.852035e+01
   3.485078e+01   1.053807e+01
   4.046043e+01   3.000912e+01
   1.987839e+01   4.470168e+00
  -1.817730e+00  -2.190163e+01
  -5.815890e+00  -8.706546e+00
   2.985104e+00   3.372119e+01
  -4.530318e+00   5.435501e+01
  -2.986421e+01   2.377680e+01
  -4.225331e+01  -3.810793e+01
  -9.863137e+00  -6.279660e+01
   4.337976e+01  -2.606212e+01
   6.178783e+01   3.736944e+01
   1.639167e+01   6.407689e+01
  -6.198536e+01   3.634119e+01
  -9.556158e+01  -1.702429e+01
  -4.933755e+01  -4.999448e+01
   3.306687e+01  -4.716236e+01
   6.742206e+01  -2.483069e+01
   2.881636e+01  -3.252782e+00
  -2.988217e+01   2.281993e+00
  -3.394929e+01  -1.024049e+01
   2.824309e+01  -2.741682e+01
   8.352049e+01  -1.569502e+01
