
 $NMID
 id='ANONYMOUS ', fmtdat='(2E16.6)'
 volume=1.0
 tramp=1.0
 $END
   4.974870e+03   9.399024e+01
   2.776895e+03   3.077473e+03
  -9.626505e+02   3.077490e+03
  -2.572662e+03   8.918780e+02
  -1.168135e+03  -8.865826e+02
   7.346994e+02  -8.235842e+02
   1.078689e+03   4.244621e+02
   4.971203e+01   1.201353e+03
  -9.221374e+02   9.149172e+02
  -1.069866e+03  -1.215570e+02
  -5.117472e+02  -9.933564e+02
   3.062545e+02  -1.034516e+03
   7.759878e+02  -1.477691e+02
   4.846894e+02   7.860115e+02
  -2.879955e+02   8.452967e+02
  -6.834392e+02   9.405124e+00
  -3.134617e+02  -7.647230e+02
   3.898012e+02  -7.207603e+02
   6.831832e+02  -1.042416e+02
   4.372317e+02   4.215751e+02
  -5.135704e+00   5.100470e+02
  -2.946241e+02   3.146926e+02
  -2.500498e+02   1.317490e+01
   9.780611e+01  -1.261994e+02
   4.305807e+02   8.797135e+01
   2.200842e+02   4.484558e+02
  -4.801528e+02   4.446441e+02
  -9.284933e+02  -7.841607e+01
  -4.953321e+02  -5.917320e+02
   4.046701e+02  -5.546523e+02
   8.065134e+02   6.430969e+00
   4.082310e+02   5.113666e+02
  -2.697246e+02   5.805429e+02
  -6.042814e+02   2.193981e+02
  -4.771838e+02  -2.638594e+02
  -8.971150e+01  -5.379386e+02
   2.279247e+02  -3.473672e+02
   2.345904e+02   2.258168e+02
  -1.441796e+02   4.985987e+02
  -4.895700e+02   3.002829e+01
  -2.949261e+02  -6.991220e+02
   3.208596e+02  -7.474800e+02
   6.614679e+02  -2.793230e+01
   2.956501e+02   5.851684e+02
  -3.206938e+02   3.608623e+02
  -4.560582e+02  -3.257049e+02
   3.661961e+01  -6.017973e+02
   5.748439e+02  -1.860589e+02
   6.407120e+02   4.233154e+02
   1.918061e+02   6.491931e+02
  -4.157137e+02   4.064307e+02
  -6.958970e+02  -5.063150e+01
  -4.323703e+02  -4.213331e+02
   1.395030e+02  -4.521373e+02
   4.788909e+02  -9.532488e+01
   2.807174e+02   2.180720e+02
  -1.222078e+02   1.447388e+02
  -1.669578e+02  -1.438558e+02
   1.662861e+02  -2.097744e+02
   3.748591e+02   7.237253e+01
   1.674802e+02   3.186557e+02
  -2.098962e+02   2.853689e+02
  -3.408095e+02   7.808535e+01
  -2.047384e+02  -8.659960e+01
   2.695706e+01  -2.265334e+02
   2.181817e+02  -3.166996e+02
   3.654030e+02  -2.113865e+02
   3.204317e+02   1.614881e+02
   7.419953e+01   4.835507e+02
  -1.602636e+02   4.019592e+02
  -1.554617e+02   1.073347e+02
  -3.432253e+01  -3.710449e+01
  -3.217419e+01   7.500386e+01
  -1.913468e+02   1.382369e+02
  -2.921563e+02  -3.225123e+01
  -1.788031e+02  -2.656066e+02
   5.735574e+01  -2.703195e+02
   2.275583e+02  -3.605753e+01
   2.114591e+02   2.295468e+02
   8.297141e+00   3.125009e+02
  -2.718974e+02   1.423171e+02
  -3.928845e+02  -1.636391e+02
  -2.133604e+02  -3.824169e+02
   1.108150e+02  -3.407842e+02
   2.626763e+02  -1.274331e+02
   1.765078e+02   8.979586e+00
   9.668749e+01  -2.056542e+01
   2.254914e+02  -5.770093e+01
   4.027766e+02   6.151006e+01
   3.445497e+02   2.929722e+02
   1.006686e+00   4.647633e+02
  -3.693159e+02   4.335336e+02
  -5.241355e+02   2.147651e+02
  -3.792531e+02  -9.743753e+01
  -7.800104e+01  -3.218792e+02
   1.410019e+02  -2.824432e+02
   1.057767e+02  -4.213079e+01
  -1.024099e+02   1.182415e+02
  -2.104189e+02  -6.243700e+00
  -6.023206e+01  -2.184898e+02
   1.842299e+02  -1.995537e+02
   2.098313e+02   6.057029e+01
  -9.210902e+00   2.195872e+02
  -2.090650e+02   4.971334e+01
  -1.727165e+02  -2.591117e+02
   4.270098e+01  -3.690662e+02
   2.445962e+02  -1.971082e+02
   3.322860e+02   7.380640e+01
   2.821511e+02   2.489137e+02
   9.352264e+01   2.714972e+02
  -1.176538e+02   1.721526e+02
  -1.955819e+02   2.549373e+01
  -7.060273e+01  -4.197574e+01
   7.165822e+01   3.212786e+01
   3.926452e+01   1.287618e+02
  -1.241471e+02   1.070055e+02
  -1.913245e+02  -9.650129e+00
  -6.903414e+01  -7.972927e+01
   7.807116e+01  -2.754244e+01
   6.214053e+01   7.077018e+01
  -1.142262e+02   8.900264e+01
  -2.814568e+02   8.931422e+00
  -2.773545e+02  -1.292760e+02
  -7.751457e+01  -2.624326e+02
   1.821727e+02  -2.837526e+02
   2.945053e+02  -1.400933e+02
   1.878127e+02   6.081894e+01
  -1.813593e+01   1.285784e+02
  -9.902186e+01   1.676297e+01
   2.416895e+01  -1.086414e+02
   2.017868e+02  -7.013849e+01
   2.273851e+02   1.067170e+02
   7.795429e+01   2.220341e+02
  -9.881487e+01   1.733965e+02
  -1.565196e+02   3.374139e+01
  -8.200936e+01  -4.552667e+01
   1.971072e+01  -1.251647e+01
   3.791411e+01   7.812858e+01
  -6.896021e+01   1.129005e+02
  -1.996790e+02   3.115113e+01
  -2.000105e+02  -1.274433e+02
  -2.789720e+01  -2.323747e+02
   1.752888e+02  -1.782125e+02
   2.117215e+02  -5.529953e+00
   7.410975e+01   1.268779e+02
  -7.062337e+01   1.226060e+02
  -9.269401e+01   3.552576e+01
  -2.633700e+01  -2.780560e+01
   1.826150e+01  -2.268301e+01
  -1.043848e+01   2.796713e+00
  -6.980819e+01  -1.073684e+01
  -8.751084e+01  -8.302551e+01
  -1.610813e+01  -1.578881e+02
   1.270659e+02  -1.555861e+02
   2.392592e+02  -2.974681e+01
   2.099875e+02   1.538996e+02
   4.498692e+01   2.492750e+02
  -1.141435e+02   1.814415e+02
  -1.468041e+02   2.943330e+01
  -7.748583e+01  -6.207824e+01
  -3.040984e+01  -4.096903e+01
  -5.133784e+01   1.284992e+01
  -8.113709e+01   3.667211e+00
  -4.033141e+01  -5.194091e+01
   4.797580e+01  -8.708412e+01
   1.061408e+02  -4.933163e+01
   8.489949e+01   4.074972e+01
  -1.501170e+01   1.082996e+02
  -1.395276e+02   8.081332e+01
  -1.951014e+02  -5.257248e+01
  -1.027796e+02  -2.002169e+02
   1.037295e+02  -2.288026e+02
   2.695670e+02  -9.798132e+01
   2.655926e+02   8.260289e+01
   1.178931e+02   1.802318e+02
  -3.605687e+01   1.539664e+02
  -9.770593e+01   8.658762e+01
  -8.462936e+01   7.052410e+01
  -7.191748e+01   9.120008e+01
  -9.697821e+01   7.346878e+01
  -1.298951e+02  -2.347184e+01
  -1.171240e+02  -1.546901e+02
  -3.070879e+01  -2.291435e+02
   9.986234e+01  -1.793960e+02
   1.844799e+02  -2.410201e+01
   1.456616e+02   1.273278e+02
   2.172393e+01   1.695280e+02
  -7.185445e+01   9.867353e+01
  -6.452473e+01   4.609067e+00
  -4.137696e+00  -4.016134e+01
   1.044857e+01  -3.259430e+01
  -3.869158e+01  -1.789155e+01
  -8.459732e+01  -2.523930e+01
  -4.562984e+01  -3.933223e+01
   6.422734e+01  -3.650564e+01
   1.574581e+02  -4.020615e-01
   1.437033e+02   5.367998e+01
   1.650971e+01   8.878627e+01
  -1.224655e+02   7.342407e+01
  -1.491592e+02   1.127660e+01
  -4.702556e+01  -4.439718e+01
   6.433782e+01  -3.817035e+01
   7.924450e+01   2.397073e+01
   4.676018e+00   7.427243e+01
  -6.180776e+01   6.054481e+01
  -6.715518e+01  -4.910293e+00
  -4.431850e+01  -5.561100e+01
  -4.425431e+01  -4.607071e+01
  -6.182607e+01  -1.481191e+00
  -6.436588e+01  -1.108964e+00
  -3.063772e+01  -6.978343e+01
   3.960830e+01  -1.482393e+02
   1.185793e+02  -1.407284e+02
   1.636862e+02  -2.828521e+01
   1.229948e+02   9.843952e+01
   5.122455e+00   1.312238e+02
  -8.905699e+01   6.127708e+01
  -5.831243e+01  -1.829963e+01
   6.262707e+01  -1.879704e+01
   1.381513e+02   4.938517e+01
   7.438381e+01   1.063306e+02
  -8.215951e+01   1.066130e+02
  -1.888849e+02   4.811837e+01
  -1.633203e+02  -3.439898e+01
  -4.014218e+01  -8.526992e+01
   5.842120e+01  -7.156821e+01
   4.844075e+01  -9.110269e+00
  -4.028240e+01   2.591262e+01
  -9.236311e+01  -2.549789e+01
  -2.986447e+01  -1.275102e+02
   1.013736e+02  -1.588534e+02
   1.790924e+02  -6.211490e+01
   1.320061e+02   1.094361e+02
   6.239162e+00   2.126057e+02
  -9.546755e+01   1.531764e+02
  -1.136357e+02  -7.726033e+00
  -6.472623e+01  -1.230440e+02
   1.132298e+00  -1.107384e+02
   4.510885e+01  -2.296323e+01
   5.538371e+01   3.118362e+01
   2.895159e+01   6.807783e+00
   6.908591e+00  -2.201636e+01
   2.024804e+01   1.548672e+01
   5.714218e+01   9.021745e+01
   4.515720e+01   1.131506e+02
  -4.728257e+01   4.958196e+01
  -1.461064e+02  -4.131878e+01
  -1.392293e+02  -7.582566e+01
  -1.856834e+01  -5.448674e+01
   9.116250e+01  -2.182901e+01
   9.172154e+01  -3.963230e+00
   1.081581e+01   8.040123e+00
  -4.085607e+01   2.230356e+01
  -1.442120e+01   1.830642e+01
   2.072078e+01  -1.116300e+00
  -8.523560e+00  -8.935708e+00
  -7.903113e+01  -5.348795e+00
  -9.490298e+01  -2.845982e+01
  -6.096758e+00  -8.537815e+01
   1.263587e+02  -1.182821e+02
   1.939682e+02  -6.161121e+01
   1.458222e+02   7.203323e+01
   2.401371e+01   1.697856e+02
  -8.192920e+01   1.549398e+02
  -1.183186e+02   5.802264e+01
  -8.303362e+01  -2.474903e+01
  -2.652644e+01  -3.785284e+01
   4.035383e+00  -1.015345e+01
  -8.893596e+00  -5.021428e+00
  -3.013414e+01  -4.772066e+01
  -2.141991e+01  -9.532876e+01
   3.200133e+01  -7.412777e+01
   8.414596e+01   2.055394e+01
   7.900839e+01   1.166625e+02
  -3.540216e-01   1.202871e+02
  -8.953356e+01   2.182749e+01
  -1.066415e+02  -8.606055e+01
  -2.891217e+01  -1.106190e+02
   7.313250e+01  -5.560120e+01
   1.013501e+02   1.629544e+01
   3.809934e+01   5.464765e+01
  -3.680569e+01   5.148070e+01
  -3.197749e+01   2.582835e+01
   3.740143e+01  -3.381770e-01
   7.316336e+01  -6.073614e+00
   1.350409e+01   2.709658e+01
  -8.324050e+01   6.834608e+01
  -1.211907e+02   5.855703e+01
  -6.651999e+01  -1.349278e+01
   1.740660e+01  -8.644998e+01
   5.629545e+01  -8.139208e+01
   3.863687e+01  -3.446786e+00
  -8.119197e-01   5.931752e+01
  -2.968890e+01   4.270241e+01
  -3.727256e+01  -2.273985e+01
  -2.175295e+01  -5.813124e+01
   7.599174e+00  -3.379385e+01
   3.560193e+01   1.177915e+01
   3.968887e+01   2.509816e+01
   2.129527e+01   2.949311e+00
   8.889655e-01  -1.349642e+01
  -6.123292e+00   6.475665e+00
  -9.384512e+00   4.018048e+01
  -2.333518e+01   4.810875e+01
  -3.445545e+01   7.081281e+00
  -3.124254e+01  -4.997133e+01
   4.383350e+00  -6.515130e+01
   4.677861e+01  -2.079582e+01
   5.725907e+01   4.260224e+01
   1.363666e+01   6.548468e+01
  -5.590158e+01   3.385523e+01
  -9.097982e+01  -1.603351e+01
  -5.011308e+01  -4.571480e+01
   2.951368e+01  -4.251205e+01
   6.592909e+01  -2.163972e+01
   2.444805e+01  -4.311862e+00
  -3.946880e+01  -4.172708e+00
  -4.022460e+01  -1.970614e+01
   3.210343e+01  -3.477629e+01
   9.771063e+01  -1.856326e+01
