
 $NMID
 id='ANONYMOUS ', fmtdat='(2E16.6)'
 volume=1.0
 tramp=1.0
 $END
  -4.869583e+03  -2.172006e+02
  -2.528994e+03  -3.215903e+03
   1.248148e+03  -3.036400e+03
   2.660664e+03  -6.455984e+02
   1.013075e+03   1.110453e+03
  -9.156554e+02   7.673075e+02
  -1.112882e+03  -6.012505e+02
   5.210612e+01  -1.287200e+03
   1.035129e+03  -8.496554e+02
   1.068183e+03   2.116403e+02
   4.221743e+02   1.035905e+03
  -3.956695e+02   1.003533e+03
  -7.814466e+02   7.066000e+01
  -4.171124e+02  -8.527478e+02
   3.738019e+02  -8.274158e+02
   6.874788e+02   4.610575e+01
   2.264988e+02   7.988979e+02
  -4.549881e+02   6.544672e+02
  -6.709267e+02   1.811863e+00
  -3.658877e+02  -4.633016e+02
   6.490314e+01  -4.847199e+02
   3.263364e+02  -2.619224e+02
   2.697804e+02   1.632404e+01
  -1.128209e+02   1.374051e+02
  -4.506497e+02  -9.280834e+01
  -2.289523e+02  -4.564663e+02
   4.828353e+02  -4.543103e+02
   9.183400e+02   9.161983e+01
   4.834232e+02   6.353896e+02
  -4.431569e+02   5.713574e+02
  -8.259321e+02  -4.966461e+01
  -3.858081e+02  -5.595005e+02
   3.153754e+02  -5.820729e+02
   6.102101e+02  -1.835072e+02
   4.454642e+02   3.120163e+02
   4.198175e+01   5.495063e+02
  -2.752721e+02   3.060151e+02
  -2.365619e+02  -2.756811e+02
   1.946700e+02  -5.201726e+02
   5.322745e+02   3.807360e-01
   2.774746e+02   7.508391e+02
  -3.962942e+02   7.623770e+02
  -7.079800e+02  -2.823401e+01
  -2.724605e+02  -6.529863e+02
   3.437453e+02  -3.628282e+02
   4.432175e+02   3.581268e+02
  -6.860068e+01   6.057379e+02
  -5.925372e+02   1.512643e+02
  -5.991559e+02  -4.511344e+02
  -1.387980e+02  -6.360495e+02
   4.359810e+02  -3.661874e+02
   6.728378e+02   9.509301e+01
   3.811765e+02   4.476027e+02
  -2.014146e+02   4.303477e+02
  -4.941129e+02   4.572609e+01
  -2.463771e+02  -2.547896e+02
   1.700972e+02  -1.378022e+02
   1.786822e+02   1.835725e+02
  -1.871327e+02   2.348722e+02
  -3.766191e+02  -9.027082e+01
  -1.346885e+02  -3.317039e+02
   2.352566e+02  -2.569222e+02
   3.257969e+02  -3.470573e+01
   1.720556e+02   1.035627e+02
  -4.178826e+01   2.049794e+02
  -2.099149e+02   3.023981e+02
  -3.431185e+02   1.974162e+02
  -3.080503e+02  -1.616788e+02
  -6.691466e+01  -4.798548e+02
   1.730792e+02  -3.954452e+02
   1.662215e+02  -8.434908e+01
   2.193128e+01   5.635795e+01
   1.643686e+01  -7.509269e+01
   1.888768e+02  -1.438236e+02
   2.943523e+02   3.827533e+01
   1.699105e+02   2.787011e+02
  -7.117555e+01   2.705477e+02
  -2.367053e+02   2.575682e+01
  -2.070277e+02  -2.352638e+02
   2.914689e+00  -3.045679e+02
   2.672289e+02  -1.303555e+02
   3.760026e+02   1.702951e+02
   1.906784e+02   3.711215e+02
  -1.257465e+02   3.228787e+02
  -2.611656e+02   1.032839e+02
  -1.664531e+02  -2.657112e+01
  -8.565077e+01   1.739915e+01
  -2.208747e+02   6.627361e+01
  -3.944812e+02  -6.904268e+01
  -3.244400e+02  -2.973963e+02
   8.935125e+00  -4.464214e+02
   3.650949e+02  -4.065662e+02
   5.069714e+02  -1.949922e+02
   3.644847e+02   1.048345e+02
   6.721442e+01   3.238368e+02
  -1.553529e+02   2.752853e+02
  -1.184788e+02   2.896140e+01
   1.010004e+02  -1.282671e+02
   2.221997e+02   3.979852e-01
   6.358649e+01   2.212297e+02
  -1.824904e+02   1.987555e+02
  -2.149244e+02  -6.591498e+01
   1.426701e+01  -2.222940e+02
   2.119821e+02  -4.392915e+01
   1.593509e+02   2.625451e+02
  -5.956194e+01   3.554048e+02
  -2.436422e+02   1.742266e+02
  -3.122084e+02  -8.774949e+01
  -2.572785e+02  -2.503129e+02
  -8.500681e+01  -2.607267e+02
   1.173323e+02  -1.630471e+02
   1.916169e+02  -1.755643e+01
   6.525852e+01   4.349331e+01
  -7.510149e+01  -3.091500e+01
  -3.588386e+01  -1.289930e+02
   1.262252e+02  -1.043589e+02
   1.909832e+02   1.605030e+01
   6.908476e+01   8.392329e+01
  -7.837622e+01   2.811899e+01
  -5.874654e+01  -6.679821e+01
   1.153614e+02  -7.921112e+01
   2.688812e+02   2.916890e+00
   2.535177e+02   1.332704e+02
   6.117141e+01   2.505526e+02
  -1.809840e+02   2.586038e+02
  -2.874179e+02   1.204383e+02
  -1.812149e+02  -6.665484e+01
   2.394105e+01  -1.225884e+02
   1.010471e+02  -7.010991e+00
  -2.404326e+01   1.106574e+02
  -1.976200e+02   6.123118e+01
  -2.167317e+02  -1.138554e+02
  -6.639608e+01  -2.204034e+02
   1.030470e+02  -1.622589e+02
   1.560961e+02  -2.530181e+01
   8.094590e+01   4.739705e+01
  -1.826119e+01   1.191096e+01
  -3.573064e+01  -7.320233e+01
   6.704952e+01  -1.042615e+02
   1.932043e+02  -2.399673e+01
   1.879254e+02   1.302473e+02
   1.743560e+01   2.259931e+02
  -1.771744e+02   1.660110e+02
  -2.078572e+02  -6.882169e+00
  -6.708115e+01  -1.282686e+02
   7.619586e+01  -1.148633e+02
   9.342940e+01  -2.700412e+01
   2.533056e+01   2.813220e+01
  -1.664315e+01   2.082409e+01
   1.018826e+01  -7.973338e-01
   6.380337e+01   1.587262e+01
   7.586411e+01   8.047468e+01
   6.948462e+00   1.490133e+02
  -1.259545e+02   1.425874e+02
  -2.283554e+02   2.058752e+01
  -1.963450e+02  -1.565634e+02
  -3.333032e+01  -2.435462e+02
   1.191489e+02  -1.724689e+02
   1.438473e+02  -1.969427e+01
   6.992581e+01   6.485174e+01
   2.599597e+01   4.406492e+01
   5.059593e+01  -1.031565e+01
   7.536321e+01  -1.180787e-01
   3.414831e+01   4.802907e+01
  -4.733261e+01   7.699001e+01
  -9.651002e+01   4.403642e+01
  -7.598784e+01  -3.713943e+01
   1.368289e+01  -9.994689e+01
   1.320905e+02  -7.492629e+01
   1.855440e+02   5.082948e+01
   9.611895e+01   1.944793e+02
  -1.059737e+02   2.184013e+02
  -2.652846e+02   8.489959e+01
  -2.550515e+02  -9.509816e+01
  -1.066838e+02  -1.831385e+02
   4.284411e+01  -1.490914e+02
   9.826934e+01  -7.885109e+01
   8.319576e+01  -6.104652e+01
   7.040382e+01  -8.102037e+01
   9.586454e+01  -6.723814e+01
   1.263988e+02   2.799449e+01
   1.078936e+02   1.570908e+02
   1.583339e+01   2.231435e+02
  -1.076157e+02   1.658527e+02
  -1.760362e+02   1.366180e+01
  -1.301976e+02  -1.234911e+02
  -1.439387e+01  -1.578515e+02
   6.635433e+01  -9.092877e+01
   5.907218e+01  -4.306736e+00
   5.925865e+00   3.765911e+01
  -7.454661e+00   3.212186e+01
   3.577909e+01   2.205467e+01
   7.280146e+01   3.126952e+01
   3.839481e+01   4.209474e+01
  -6.237092e+01   3.252497e+01
  -1.499380e+02  -8.721848e+00
  -1.365669e+02  -5.634334e+01
  -1.377220e+01  -8.474035e+01
   1.158424e+02  -6.545401e+01
   1.391568e+02  -9.226415e+00
   4.313537e+01   3.918092e+01
  -6.044815e+01   3.101750e+01
  -7.135224e+01  -2.597208e+01
   1.286930e+00  -6.604060e+01
   6.214689e+01  -4.963538e+01
   6.055188e+01   9.460434e+00
   3.396571e+01   5.238017e+01
   3.385549e+01   4.107980e+01
   6.091742e+01   3.954908e-01
   6.582682e+01   3.298587e+00
   2.733547e+01   6.921156e+01
  -4.543334e+01   1.378610e+02
  -1.184393e+02   1.237499e+02
  -1.548192e+02   1.618026e+01
  -1.092086e+02  -9.710562e+01
   3.437251e-01  -1.224610e+02
   8.651096e+01  -5.239111e+01
   5.745083e+01   1.957096e+01
  -5.720796e+01   1.835332e+01
  -1.309295e+02  -5.234320e+01
  -7.335890e+01  -1.094015e+02
   8.160613e+01  -1.031072e+02
   1.872137e+02  -3.838555e+01
   1.544653e+02   4.441270e+01
   3.195866e+01   8.593818e+01
  -6.192561e+01   6.219892e+01
  -4.591958e+01   3.818113e+00
   4.175328e+01  -2.180765e+01
   8.859935e+01   2.944229e+01
   2.254231e+01   1.248699e+02
  -1.046489e+02   1.500228e+02
  -1.763614e+02   4.827252e+01
  -1.203214e+02  -1.127439e+02
   4.673463e+00  -2.035763e+02
   9.517904e+01  -1.402787e+02
   1.034221e+02   1.269450e+01
   5.289736e+01   1.176165e+02
  -2.676805e+00   1.009155e+02
  -4.237920e+01   1.742586e+01
  -4.981341e+01  -3.301191e+01
  -2.809653e+01  -8.496125e+00
  -5.380186e+00   2.046286e+01
  -1.761354e+01  -1.658113e+01
  -4.837398e+01  -9.236483e+01
  -3.672738e+01  -1.143577e+02
   4.898595e+01  -4.749144e+01
   1.399601e+02   4.327244e+01
   1.271107e+02   7.824825e+01
   1.216414e+01   5.245004e+01
  -9.128321e+01   1.551489e+01
  -8.893394e+01  -7.219024e-01
  -8.545212e+00  -9.000914e+00
   4.184028e+01  -1.972505e+01
   1.364598e+01  -1.767489e+01
  -2.353380e+01  -2.922925e-01
   5.489790e+00   5.864794e+00
   7.560467e+01   6.561432e+00
   8.804730e+01   2.873620e+01
  -1.801994e+00   8.132539e+01
  -1.294499e+02   1.058562e+02
  -1.818748e+02   4.697778e+01
  -1.277214e+02  -7.751778e+01
  -1.332574e+01  -1.622005e+02
   8.123855e+01  -1.397305e+02
   1.100693e+02  -4.626625e+01
   7.771232e+01   2.744873e+01
   2.356132e+01   3.485844e+01
  -5.149577e+00   6.467933e+00
   6.477804e+00   3.319971e+00
   3.026451e+01   4.583470e+01
   1.982835e+01   9.128390e+01
  -3.296266e+01   6.902025e+01
  -8.080511e+01  -2.393115e+01
  -6.926855e+01  -1.121228e+02
   7.532893e+00  -1.114872e+02
   8.733857e+01  -1.506782e+01
   9.394301e+01   8.610437e+01
   2.015977e+01   1.039403e+02
  -7.010738e+01   4.545914e+01
  -9.124128e+01  -2.089620e+01
  -3.118025e+01  -4.949206e+01
   3.403443e+01  -4.340425e+01
   2.583762e+01  -2.190529e+01
  -3.579902e+01  -2.450943e+00
  -6.686385e+01   1.423279e+00
  -9.477725e+00  -2.687176e+01
   8.150388e+01  -6.262886e+01
   1.127646e+02  -5.087172e+01
   5.846224e+01   1.498151e+01
  -2.013979e+01   7.859038e+01
  -5.288491e+01   7.129303e+01
  -3.549789e+01  -8.496020e-01
   4.618751e+00  -5.670241e+01
   3.108220e+01  -3.777624e+01
   3.533901e+01   2.479243e+01
   1.992441e+01   5.642116e+01
  -8.042788e+00   2.979577e+01
  -3.183613e+01  -1.338775e+01
  -3.496533e+01  -2.303402e+01
  -1.899391e+01  -4.109429e-01
  -3.154963e+00   1.312039e+01
   4.229447e+00  -8.056279e+00
   9.751443e+00  -3.990802e+01
   2.581098e+01  -4.205101e+01
   3.539385e+01  -1.070365e+00
   2.371824e+01   5.222253e+01
  -1.310898e+01   6.024941e+01
  -4.863895e+01   1.388273e+01
  -5.108704e+01  -4.693566e+01
  -7.481654e+00  -6.360220e+01
   5.562251e+01  -2.725677e+01
   8.358139e+01   2.219912e+01
   4.434736e+01   4.605107e+01
  -2.903121e+01   3.744514e+01
  -6.134103e+01   1.587524e+01
  -2.090966e+01   2.821850e+00
   3.850032e+01   7.967618e+00
   3.624582e+01   2.271871e+01
  -3.488404e+01   3.145261e+01
  -9.496288e+01   1.210564e+01
