
 $NMID
 id='ANONYMOUS ', fmtdat='(2E16.6)'
 volume=1.0
 tramp=1.0
 $END
  -3.378645e+03  -5.996451e+01
  -2.008686e+03  -1.925981e+03
   3.585760e+02  -2.025678e+03
   1.390678e+03  -7.782594e+02
   7.155360e+02   2.448080e+02
  -3.169258e+02   3.018481e+02
  -5.545912e+02  -2.846488e+02
  -2.621319e+01  -7.052795e+02
   5.511688e+02  -5.909991e+02
   6.759718e+02  -6.287805e+00
   3.737334e+02   5.975030e+02
  -1.044070e+02   6.663950e+02
  -4.077773e+02   1.392887e+02
  -2.809387e+02  -4.868892e+02
   1.540872e+02  -5.454408e+02
   4.315309e+02  -3.316096e+01
   2.215560e+02   4.940559e+02
  -1.955101e+02   5.114893e+02
  -4.339493e+02   1.207255e+02
  -3.234590e+02  -2.396374e+02
  -5.007473e+01  -3.320987e+02
   1.600224e+02  -1.959862e+02
   1.228326e+02  -2.436563e+01
  -1.291068e+02   1.154661e+01
  -3.075163e+02  -1.477228e+02
  -9.080479e+01  -3.205945e+02
   3.863089e+02  -2.258171e+02
   5.989530e+02   1.190260e+02
   2.742790e+02   3.937458e+02
  -3.020770e+02   2.742985e+02
  -5.409765e+02  -8.181562e+01
  -2.239608e+02  -3.619682e+02
   2.167211e+02  -3.539865e+02
   4.049928e+02  -1.233577e+02
   2.992258e+02   1.799828e+02
   6.422391e+01   3.279264e+02
  -8.835985e+01   1.937947e+02
  -5.357866e+01  -1.318355e+02
   1.536101e+02  -2.601551e+02
   2.860886e+02   7.746417e+01
   9.687785e+01   5.215680e+02
  -2.677756e+02   5.159522e+02
  -4.126608e+02   4.405840e+00
  -1.614656e+02  -3.644997e+02
   1.871058e+02  -1.961099e+02
   2.279751e+02   2.448459e+02
  -7.072104e+01   3.800275e+02
  -4.147769e+02   8.015674e+01
  -4.133728e+02  -3.306546e+02
  -1.196592e+02  -4.389562e+02
   2.764066e+02  -2.357414e+02
   4.621546e+02   5.999009e+01
   2.883842e+02   2.657928e+02
  -7.061394e+01   2.331021e+02
  -2.896908e+02   5.197382e+01
  -1.724487e+02  -9.148952e+01
   4.560813e+01  -5.585577e+01
   8.082292e+01   7.995707e+01
  -1.017885e+02   9.678318e+01
  -2.236836e+02  -5.223621e+01
  -1.081860e+02  -2.068103e+02
   1.578828e+02  -2.059126e+02
   2.857923e+02  -6.802443e+01
   1.907232e+02   8.424677e+01
  -2.042378e+01   2.228852e+02
  -2.237516e+02   2.759282e+02
  -2.982692e+02   1.409129e+02
  -2.100051e+02  -1.257849e+02
  -3.414558e+01  -3.273590e+02
   6.295033e+01  -2.946980e+02
   5.867601e+01  -1.284303e+02
   2.970925e+01  -4.170754e+01
   7.668292e+01  -7.286950e+01
   1.745512e+02  -7.287271e+01
   2.022155e+02   6.686800e+01
   9.856991e+01   2.084704e+02
  -6.032577e+01   1.761933e+02
  -1.616872e+02  -1.217884e+01
  -1.369822e+02  -1.907353e+02
   2.153617e+01  -2.250269e+02
   2.107879e+02  -7.490897e+01
   2.801190e+02   1.473535e+02
   1.433886e+02   2.763809e+02
  -6.755705e+01   2.374090e+02
  -1.670583e+02   1.030602e+02
  -1.258141e+02   2.965621e+01
  -1.045013e+02   4.492287e+01
  -2.108743e+02   4.542143e+01
  -3.296670e+02  -7.165846e+01
  -2.634210e+02  -2.445357e+02
   1.057870e+01  -3.568565e+02
   3.080388e+02  -3.173668e+02
   4.084385e+02  -1.472429e+02
   2.591880e+02   8.258727e+01
   2.787632e+01   2.237579e+02
  -9.272028e+01   1.883433e+02
  -3.889601e+01   3.556226e+01
   9.827001e+01  -4.908381e+01
   1.321718e+02   2.487864e+01
   1.627853e+01   1.340387e+02
  -1.150879e+02   1.021392e+02
  -1.160780e+02  -4.778097e+01
   2.199156e+01  -1.299792e+02
   1.428109e+02  -9.259060e+00
   1.191600e+02   1.953425e+02
  -3.042959e+01   2.754429e+02
  -1.933794e+02   1.545387e+02
  -2.717763e+02  -5.999894e+01
  -2.116271e+02  -2.036494e+02
  -4.929182e+01  -2.093572e+02
   1.028353e+02  -1.106465e+02
   1.243860e+02  -7.539447e+00
   3.533909e+01   1.418046e+01
  -4.402309e+01  -4.478447e+01
  -4.113442e+00  -9.627011e+01
   1.028991e+02  -6.301191e+01
   1.338337e+02   1.980117e+01
   3.730822e+01   5.176780e+01
  -6.450990e+01   4.411455e+00
  -3.657056e+01  -6.760498e+01
   1.104245e+02  -6.880653e+01
   2.372334e+02   1.550297e+01
   1.997007e+02   1.371865e+02
   2.587894e+01   2.086632e+02
  -1.603373e+02   1.838982e+02
  -2.233733e+02   8.227387e+01
  -1.224415e+02  -3.888736e+01
   2.469034e+01  -7.184539e+01
   6.413535e+01  -1.279237e+00
  -3.190875e+01   6.788371e+01
  -1.481397e+02   3.316837e+01
  -1.576585e+02  -8.755862e+01
  -4.604656e+01  -1.589644e+02
   7.699812e+01  -1.144881e+02
   1.080625e+02  -1.199059e+01
   4.527681e+01   3.152862e+01
  -2.668533e+01  -8.104867e+00
  -2.259754e+01  -7.674516e+01
   7.010228e+01  -9.001440e+01
   1.672376e+02  -1.424057e+01
   1.494245e+02   1.061424e+02
   9.147089e+00   1.708061e+02
  -1.336681e+02   1.249457e+02
  -1.499316e+02   5.286321e+00
  -4.491739e+01  -8.494804e+01
   5.638887e+01  -8.291630e+01
   6.409771e+01  -1.931856e+01
   7.361969e+00   2.121446e+01
  -2.220625e+01   1.089581e+01
   9.186343e+00  -1.104516e+01
   6.263647e+01   7.653279e+00
   6.945237e+01   7.310557e+01
   6.956763e-01   1.333766e+02
  -1.143802e+02   1.153879e+02
  -1.881353e+02   5.998630e+00
  -1.539143e+02  -1.298914e+02
  -2.661970e+01  -1.890113e+02
   8.594525e+01  -1.337831e+02
   1.056690e+02  -2.334440e+01
   5.733057e+01   4.001001e+01
   2.718600e+01   2.775951e+01
   4.851118e+01  -8.218173e+00
   6.859614e+01  -4.923747e+00
   3.887650e+01   4.147568e+01
  -3.451755e+01   7.360271e+01
  -8.979846e+01   4.555922e+01
  -7.513978e+01  -3.348799e+01
   1.484101e+01  -9.370983e+01
   1.251358e+02  -6.588919e+01
   1.645710e+02   5.062328e+01
   7.164791e+01   1.695833e+02
  -1.001387e+02   1.787191e+02
  -2.197083e+02   6.637580e+01
  -1.965076e+02  -7.679691e+01
  -7.637839e+01  -1.383982e+02
   3.450112e+01  -1.111412e+02
   7.218727e+01  -6.291600e+01
   5.710584e+01  -5.531154e+01
   5.069228e+01  -7.032526e+01
   7.233105e+01  -5.780067e+01
   1.022576e+02   1.894274e+01
   9.203489e+01   1.258997e+02
   2.056503e+01   1.850092e+02
  -8.418459e+01   1.381359e+02
  -1.405995e+02   1.041101e+01
  -1.036979e+02  -1.018238e+02
  -9.129775e+00  -1.266771e+02
   5.861249e+01  -6.862349e+01
   4.905916e+01   6.333884e+00
  -5.290674e-01   3.890448e+01
  -1.720210e+01   2.948036e+01
   2.645580e+01   1.209592e+01
   6.674699e+01   1.685753e+01
   3.880218e+01   3.190651e+01
  -5.333942e+01   3.002600e+01
  -1.329937e+02  -3.330025e+00
  -1.132207e+02  -4.977367e+01
  -4.663988e+00  -7.628132e+01
   1.025981e+02  -5.759313e+01
   1.155900e+02  -9.816132e-01
   3.579007e+01   3.899291e+01
  -4.750706e+01   3.298863e+01
  -6.245962e+01  -1.626314e+01
  -1.155878e+01  -5.893233e+01
   4.163293e+01  -4.920767e+01
   5.208693e+01   2.123261e+00
   3.722535e+01   4.322542e+01
   3.167737e+01   3.506581e+01
   4.659853e+01   4.597801e+00
   5.458012e+01   3.879356e+00
   2.884204e+01   5.835326e+01
  -3.088133e+01   1.168885e+02
  -1.067264e+02   1.081591e+02
  -1.413552e+02   1.802419e+01
  -9.849648e+01  -7.751657e+01
   2.277821e-01  -1.028187e+02
   7.197668e+01  -5.146047e+01
   5.094671e+01   5.749134e+00
  -4.284525e+01   8.677117e+00
  -1.000635e+02  -4.148349e+01
  -5.335656e+01  -9.108772e+01
   7.042915e+01  -8.206422e+01
   1.550973e+02  -3.147987e+01
   1.268860e+02   4.077697e+01
   2.482098e+01   7.355726e+01
  -5.369805e+01   5.219314e+01
  -3.961721e+01   1.992098e+00
   3.116749e+01  -2.264738e+01
   7.340426e+01   2.097738e+01
   2.906177e+01   9.496495e+01
  -7.105570e+01   1.244405e+02
  -1.314325e+02   5.080301e+01
  -9.972187e+01  -7.695653e+01
  -1.202433e+01  -1.560638e+02
   6.689551e+01  -1.114527e+02
   8.225586e+01   7.635006e+00
   4.529805e+01   9.348247e+01
  -6.983711e+00   8.059995e+01
  -3.737143e+01   1.274261e+01
  -3.496843e+01  -2.356631e+01
  -1.544666e+01  -5.233113e+00
  -3.524846e+00   1.615356e+01
  -2.091130e+01  -1.750930e+01
  -4.325018e+01  -7.505528e+01
  -2.499444e+01  -8.762339e+01
   4.340438e+01  -3.284488e+01
   1.066144e+02   3.408099e+01
   9.993689e+01   5.634251e+01
   1.586263e+01   4.322902e+01
  -6.817999e+01   1.881494e+01
  -7.311182e+01   4.795504e+00
  -1.512142e+01  -7.225790e+00
   2.844091e+01  -1.666808e+01
   1.588578e+01  -1.380318e+01
  -1.463659e+01   2.232046e+00
   2.471072e+00   7.328041e+00
   5.224565e+01   3.728299e+00
   7.119146e+01   2.094187e+01
   9.145664e+00   6.475393e+01
  -9.033718e+01   8.940018e+01
  -1.450812e+02   4.691340e+01
  -1.152016e+02  -5.312546e+01
  -2.099363e+01  -1.293248e+02
   6.475813e+01  -1.217106e+02
   9.238222e+01  -4.854308e+01
   6.437125e+01   1.647357e+01
   2.030544e+01   2.881805e+01
  -2.727182e-01   9.585408e+00
   9.059071e+00   5.373290e+00
   2.283798e+01   3.746073e+01
   1.529605e+01   7.123193e+01
  -2.544376e+01   5.522299e+01
  -6.228731e+01  -1.615804e+01
  -5.625949e+01  -8.573629e+01
  -4.221206e+00  -8.687848e+01
   6.145364e+01  -1.867821e+01
   8.003462e+01   5.937490e+01
   2.619239e+01   8.275576e+01
  -5.314252e+01   4.337372e+01
  -7.942832e+01  -1.309972e+01
  -3.107168e+01  -4.389994e+01
   2.786267e+01  -4.300327e+01
   3.008096e+01  -2.191168e+01
  -2.305854e+01   1.120175e+00
  -5.143894e+01   5.611401e+00
  -1.087844e+01  -1.705570e+01
   6.238365e+01  -4.774796e+01
   9.370115e+01  -4.243614e+01
   5.155720e+01   1.057079e+01
  -1.407387e+01   6.646007e+01
  -4.644655e+01   6.310367e+01
  -3.415650e+01   5.056290e+00
  -2.223104e+00  -4.431157e+01
   2.208013e+01  -3.744688e+01
   3.073407e+01   1.209644e+01
   2.185219e+01   4.511034e+01
  -2.755104e+00   2.998203e+01
  -2.677449e+01  -6.558636e+00
  -3.306279e+01  -2.008880e+01
  -1.554589e+01  -4.201276e+00
   1.515879e+00   1.366091e+01
   2.295978e+00   2.998420e+00
  -6.653410e-01  -2.797007e+01
   7.213228e+00  -4.011113e+01
   2.571850e+01  -1.142742e+01
   2.702590e+01   3.370606e+01
   1.415402e+00   4.827866e+01
  -3.515901e+01   1.530601e+01
  -4.633338e+01  -3.135393e+01
  -1.050882e+01  -5.018961e+01
   4.782315e+01  -2.636293e+01
   7.570663e+01   1.308604e+01
   4.079704e+01   3.681937e+01
  -2.315567e+01   3.469836e+01
  -5.301907e+01   1.921476e+01
  -2.172928e+01   4.912252e+00
   2.560631e+01   9.604806e-01
   2.861058e+01   9.362187e+00
  -2.273251e+01   2.340961e+01
  -6.915175e+01   1.556329e+01
