
 $NMID
 id='ANONYMOUS ', fmtdat='(2E16.6)'
 volume=1.0
 tramp=1.0
 $END
   4.541210e+03  -5.173885e+01
   2.606179e+03   2.825551e+03
  -9.296738e+02   3.022350e+03
  -2.434792e+03   9.484114e+02
  -1.138499e+03  -8.549563e+02
   7.153217e+02  -8.201690e+02
   1.059838e+03   3.790909e+02
   7.635572e+01   1.196856e+03
  -9.114980e+02   9.190386e+02
  -1.074236e+03  -1.004502e+02
  -5.193691e+02  -9.988002e+02
   3.060671e+02  -1.040570e+03
   7.559406e+02  -1.874395e+02
   4.795000e+02   7.753454e+02
  -2.805780e+02   8.360212e+02
  -7.056028e+02   1.511405e+01
  -3.094287e+02  -7.756403e+02
   3.792950e+02  -7.141890e+02
   6.817758e+02  -8.137682e+01
   4.312175e+02   4.161294e+02
   2.418660e+00   5.003240e+02
  -2.892164e+02   2.848146e+02
  -2.557477e+02   4.909237e+00
   9.180321e+01  -1.288648e+02
   4.284529e+02   7.543484e+01
   2.443515e+02   4.276720e+02
  -4.493971e+02   4.507386e+02
  -8.982616e+02  -4.775023e+01
  -5.096016e+02  -5.812416e+02
   3.823752e+02  -5.537830e+02
   7.998779e+02  -9.324348e+00
   4.131454e+02   5.083888e+02
  -2.665651e+02   5.680068e+02
  -6.041147e+02   2.105039e+02
  -4.733523e+02  -2.679703e+02
  -9.042100e+01  -5.205181e+02
   2.248306e+02  -3.231386e+02
   2.331712e+02   2.187759e+02
  -1.327071e+02   4.964143e+02
  -4.866571e+02   3.815257e+01
  -2.863019e+02  -7.052094e+02
   3.422567e+02  -7.746933e+02
   6.864552e+02  -3.347533e+01
   3.032327e+02   6.156673e+02
  -3.268694e+02   4.090922e+02
  -4.622086e+02  -2.870758e+02
   2.080580e+01  -5.808628e+02
   5.886701e+02  -1.971999e+02
   6.307280e+02   4.088604e+02
   1.873241e+02   6.306987e+02
  -4.010596e+02   3.920966e+02
  -6.713163e+02  -5.245950e+01
  -4.263163e+02  -4.147037e+02
   1.346759e+02  -4.041984e+02
   4.690681e+02  -8.446998e+01
   2.638121e+02   2.384764e+02
  -1.333866e+02   1.524584e+02
  -1.847712e+02  -1.510274e+02
   1.487337e+02  -2.302675e+02
   3.779011e+02   4.937826e+01
   1.738824e+02   3.212458e+02
  -2.159047e+02   2.932359e+02
  -3.661814e+02   6.922161e+01
  -2.159186e+02  -1.069433e+02
   2.685512e+01  -2.492875e+02
   2.294043e+02  -3.252353e+02
   3.546220e+02  -2.147622e+02
   3.133420e+02   1.482978e+02
   8.404196e+01   4.614260e+02
  -1.387944e+02   4.022300e+02
  -1.494881e+02   1.100159e+02
  -3.864849e+01  -3.545273e+01
  -3.149465e+01   6.852252e+01
  -1.749053e+02   1.426565e+02
  -2.751992e+02  -2.452540e+01
  -1.819207e+02  -2.573618e+02
   5.248675e+01  -2.719595e+02
   2.331061e+02  -3.436230e+01
   2.205122e+02   2.321035e+02
   3.703429e+00   3.107336e+02
  -2.731453e+02   1.407794e+02
  -3.903112e+02  -1.611548e+02
  -2.091514e+02  -3.721538e+02
   1.034439e+02  -3.320138e+02
   2.479962e+02  -1.246416e+02
   1.685306e+02   1.403158e+00
   9.980301e+01  -2.836215e+01
   2.250563e+02  -7.463488e+01
   3.943442e+02   4.668042e+01
   3.400128e+02   2.777557e+02
   1.506547e+01   4.492595e+02
  -3.449829e+02   4.268499e+02
  -4.986545e+02   2.216985e+02
  -3.642465e+02  -8.711865e+01
  -7.600204e+01  -3.055967e+02
   1.260630e+02  -2.722006e+02
   9.791631e+01  -4.299501e+01
  -9.885396e+01   1.136424e+02
  -2.069487e+02   5.230322e+00
  -7.091613e+01  -1.997810e+02
   1.594677e+02  -1.899602e+02
   1.911725e+02   4.601972e+01
  -1.130555e+00   2.018787e+02
  -1.979676e+02   4.612588e+01
  -1.702443e+02  -2.491820e+02
   3.934589e+01  -3.598479e+02
   2.420994e+02  -1.943445e+02
   3.294153e+02   7.356735e+01
   2.692947e+02   2.478889e+02
   8.634738e+01   2.634799e+02
  -1.130563e+02   1.615838e+02
  -1.839649e+02   2.576475e+01
  -6.999009e+01  -3.716237e+01
   7.080105e+01   3.055468e+01
   3.953466e+01   1.236606e+02
  -1.219173e+02   1.096747e+02
  -1.893147e+02  -1.885612e+00
  -7.181040e+01  -7.011269e+01
   7.490644e+01  -2.558281e+01
   5.504604e+01   6.644028e+01
  -1.265671e+02   8.227265e+01
  -2.858354e+02  -5.273870e+00
  -2.601253e+02  -1.399129e+02
  -6.216851e+01  -2.554480e+02
   1.807916e+02  -2.704062e+02
   2.901828e+02  -1.414008e+02
   1.860912e+02   5.040366e+01
  -1.480598e+01   1.217597e+02
  -9.677535e+01   1.849293e+01
   2.196860e+01  -1.049407e+02
   1.937880e+02  -7.086191e+01
   2.236742e+02   1.007958e+02
   7.612277e+01   2.157883e+02
  -9.568077e+01   1.679471e+02
  -1.495811e+02   3.495997e+01
  -7.697768e+01  -3.754345e+01
   1.801811e+01  -5.627230e+00
   3.273225e+01   7.665774e+01
  -7.015453e+01   1.095127e+02
  -1.955745e+02   3.144203e+01
  -1.956163e+02  -1.230882e+02
  -2.983926e+01  -2.255282e+02
   1.659461e+02  -1.763875e+02
   2.049978e+02  -9.540207e+00
   7.423121e+01   1.191990e+02
  -6.653958e+01   1.174572e+02
  -8.857413e+01   3.365311e+01
  -2.454862e+01  -2.304260e+01
   1.605534e+01  -1.649574e+01
  -1.258870e+01   5.803735e+00
  -6.968676e+01  -1.455795e+01
  -8.162773e+01  -8.477390e+01
  -1.159525e+01  -1.537892e+02
   1.244447e+02  -1.482772e+02
   2.310155e+02  -2.869666e+01
   2.073976e+02   1.462611e+02
   4.905216e+01   2.414860e+02
  -1.079896e+02   1.811342e+02
  -1.418729e+02   3.312723e+01
  -7.574240e+01  -5.601802e+01
  -3.097165e+01  -3.897608e+01
  -5.654414e+01   1.397292e+01
  -7.858603e+01   3.462493e+00
  -3.901144e+01  -5.070265e+01
   4.533354e+01  -8.138066e+01
   9.889950e+01  -4.805021e+01
   7.801427e+01   3.536401e+01
  -1.675098e+01   1.013707e+02
  -1.382103e+02   7.884095e+01
  -1.948198e+02  -4.942088e+01
  -1.046977e+02  -1.956137e+02
   9.959034e+01  -2.280197e+02
   2.646572e+02  -1.018601e+02
   2.571486e+02   7.802327e+01
   1.141034e+02   1.707050e+02
  -3.218742e+01   1.481642e+02
  -9.016611e+01   8.731347e+01
  -8.037113e+01   7.191133e+01
  -7.052858e+01   8.954656e+01
  -9.371405e+01   7.173040e+01
  -1.265041e+02  -2.082183e+01
  -1.168770e+02  -1.499677e+02
  -3.268769e+01  -2.224276e+02
   9.531469e+01  -1.737219e+02
   1.738552e+02  -2.396863e+01
   1.368122e+02   1.202755e+02
   1.880221e+01   1.594000e+02
  -6.555444e+01   8.938494e+01
  -5.963553e+01   2.205023e+00
  -5.990338e+00  -3.795479e+01
   9.259366e+00  -3.801269e+01
  -3.553772e+01  -2.488958e+01
  -7.410535e+01  -2.641498e+01
  -4.270122e+01  -3.741151e+01
   6.354552e+01  -3.231507e+01
   1.536202e+02   1.106523e+00
   1.385060e+02   4.912595e+01
   1.474052e+01   8.725499e+01
  -1.182082e+02   7.433183e+01
  -1.422528e+02   1.364290e+01
  -4.537062e+01  -4.171876e+01
   6.041803e+01  -4.011007e+01
   7.549029e+01   1.913600e+01
   6.054597e+00   7.220619e+01
  -5.844101e+01   6.076887e+01
  -6.281710e+01  -4.407111e+00
  -3.922029e+01  -5.534692e+01
  -3.870753e+01  -4.667459e+01
  -6.027001e+01  -1.771665e+00
  -6.192233e+01  -1.229176e+00
  -2.907792e+01  -6.933556e+01
   3.915479e+01  -1.428911e+02
   1.182522e+02  -1.340656e+02
   1.613724e+02  -2.323205e+01
   1.208439e+02   9.293522e+01
   6.928650e+00   1.258387e+02
  -8.630686e+01   5.954998e+01
  -6.363077e+01  -1.503043e+01
   5.341990e+01  -2.088228e+01
   1.322089e+02   4.429278e+01
   8.137439e+01   1.076553e+02
  -7.694367e+01   1.089736e+02
  -1.886756e+02   4.859336e+01
  -1.606632e+02  -3.637076e+01
  -3.643104e+01  -8.500013e+01
   6.298382e+01  -6.783493e+01
   4.842087e+01  -5.005850e+00
  -3.917999e+01   2.752237e+01
  -9.138334e+01  -2.450547e+01
  -3.279561e+01  -1.194543e+02
   9.485428e+01  -1.559716e+02
   1.709263e+02  -6.031325e+01
   1.276602e+02   1.039634e+02
   1.588912e+01   2.003578e+02
  -8.407360e+01   1.460412e+02
  -1.034784e+02  -4.898840e+00
  -6.523311e+01  -1.148467e+02
  -5.428394e+00  -1.020701e+02
   4.171958e+01  -2.136004e+01
   5.174122e+01   2.634219e+01
   2.800973e+01   6.685040e+00
   3.389363e+00  -1.985973e+01
   1.852675e+01   1.597180e+01
   5.526728e+01   8.700158e+01
   4.312454e+01   1.087491e+02
  -4.717439e+01   4.732848e+01
  -1.427912e+02  -3.782200e+01
  -1.314732e+02  -7.210727e+01
  -1.516487e+01  -5.225346e+01
   9.234494e+01  -2.315377e+01
   9.085832e+01  -5.219755e+00
   1.126415e+01   1.012176e+01
  -3.977308e+01   2.195479e+01
  -1.394082e+01   1.924682e+01
   2.121448e+01  -2.190944e+00
  -8.615521e+00  -8.235810e+00
  -7.660780e+01  -4.490039e+00
  -8.981285e+01  -2.798279e+01
  -3.598441e+00  -8.500534e+01
   1.264104e+02  -1.179023e+02
   1.869929e+02  -5.681650e+01
   1.425766e+02   7.394672e+01
   2.529570e+01   1.687233e+02
  -8.099466e+01   1.524181e+02
  -1.169123e+02   5.617371e+01
  -8.370586e+01  -2.227545e+01
  -2.612131e+01  -3.579254e+01
   2.017475e+00  -9.552956e+00
  -9.644091e+00  -4.890396e+00
  -3.247110e+01  -4.800500e+01
  -2.209319e+01  -8.985031e+01
   3.225583e+01  -7.181923e+01
   8.228743e+01   1.995940e+01
   7.377686e+01   1.127367e+02
  -9.951717e-01   1.144644e+02
  -8.685528e+01   2.145982e+01
  -1.035889e+02  -8.209671e+01
  -2.854923e+01  -1.079871e+02
   7.096069e+01  -5.390296e+01
   9.855546e+01   1.642157e+01
   3.649356e+01   5.188678e+01
  -3.448644e+01   4.894187e+01
  -3.161336e+01   2.494782e+01
   3.461236e+01  -6.576292e-01
   6.934920e+01  -4.301861e+00
   1.518426e+01   2.654541e+01
  -7.746718e+01   6.482038e+01
  -1.171048e+02   5.566246e+01
  -6.342869e+01  -1.473823e+01
   1.829056e+01  -8.134010e+01
   5.543788e+01  -7.530914e+01
   3.795757e+01  -1.244884e+00
  -4.579423e-01   5.703080e+01
  -3.051409e+01   4.155777e+01
  -3.780928e+01  -2.099061e+01
  -2.486562e+01  -5.798785e+01
   6.111254e+00  -3.515098e+01
   3.505004e+01   1.038635e+01
   4.022118e+01   2.513967e+01
   1.928612e+01   3.840781e+00
   3.381840e-01  -1.462691e+01
  -3.989532e+00   2.575413e+00
  -5.877230e+00   3.903366e+01
  -1.998636e+01   4.661289e+01
  -3.711886e+01   6.269623e+00
  -3.101739e+01  -5.000227e+01
   5.111714e+00  -6.339832e+01
   4.886187e+01  -1.883892e+01
   5.914997e+01   4.273023e+01
   1.370395e+01   6.602076e+01
  -5.669310e+01   3.260349e+01
  -9.165264e+01  -1.694025e+01
  -5.089529e+01  -4.533260e+01
   2.855461e+01  -4.034572e+01
   6.482692e+01  -1.937837e+01
   2.414577e+01  -3.578050e+00
  -3.889724e+01  -3.118151e+00
  -3.838570e+01  -1.928769e+01
   3.150869e+01  -3.535832e+01
   9.391585e+01  -2.149844e+01
