
 $NMID
 id='ANONYMOUS ', fmtdat='(2E16.6)'
 volume=1.0
 tramp=1.0
 $END
  -4.303193e+03  -2.202001e+01
  -2.444390e+03  -2.759677e+03
   8.799659e+02  -2.789018e+03
   2.314537e+03  -7.927758e+02
   1.006519e+03   8.526347e+02
  -7.266051e+02   6.873884e+02
  -9.738434e+02  -4.574302e+02
  -4.064000e+00  -1.172246e+03
   9.088750e+02  -8.251201e+02
   1.013799e+03   1.422967e+02
   4.553916e+02   9.543201e+02
  -3.347939e+02   9.716651e+02
  -7.250906e+02   1.308018e+02
  -4.110770e+02  -7.707166e+02
   3.261037e+02  -7.852919e+02
   6.577158e+02   1.593428e+01
   2.638258e+02   7.451419e+02
  -3.926722e+02   6.581114e+02
  -6.467997e+02   6.265966e+01
  -3.921587e+02  -3.971179e+02
   1.827041e+01  -4.727947e+02
   2.863421e+02  -2.738687e+02
   2.544856e+02  -2.585190e+00
  -8.267498e+01   1.093277e+02
  -3.998761e+02  -9.764745e+01
  -2.128998e+02  -4.252060e+02
   4.325915e+02  -4.113126e+02
   8.477468e+02   8.395585e+01
   4.593317e+02   5.642564e+02
  -3.761275e+02   5.137484e+02
  -7.532382e+02  -3.549398e+01
  -3.756907e+02  -5.066777e+02
   2.805668e+02  -5.336624e+02
   6.040187e+02  -2.011565e+02
   4.526037e+02   2.557605e+02
   6.839954e+01   5.117342e+02
  -2.374463e+02   3.120741e+02
  -2.141919e+02  -2.287478e+02
   1.566029e+02  -4.756971e+02
   4.697930e+02  -7.030787e+00
   2.465798e+02   6.929879e+02
  -3.660877e+02   7.204340e+02
  -6.472625e+02  -9.962505e+00
  -2.492504e+02  -6.093682e+02
   3.333283e+02  -3.759207e+02
   4.271898e+02   3.164758e+02
  -5.546685e+01   5.775092e+02
  -5.766412e+02   1.772089e+02
  -6.110335e+02  -4.091495e+02
  -1.714122e+02  -6.100085e+02
   4.096900e+02  -3.658786e+02
   6.404514e+02   7.882508e+01
   3.830439e+02   4.147719e+02
  -1.638708e+02   3.760925e+02
  -4.608798e+02   4.712419e+01
  -2.505399e+02  -2.386937e+02
   1.376604e+02  -1.274078e+02
   1.584300e+02   1.660270e+02
  -1.687454e+02   2.144240e+02
  -3.699478e+02  -7.689258e+01
  -1.405449e+02  -3.143804e+02
   2.192489e+02  -2.689421e+02
   3.467334e+02  -5.764395e+01
   1.983863e+02   1.009939e+02
  -3.728059e+01   2.321027e+02
  -2.280926e+02   3.130188e+02
  -3.425097e+02   2.063304e+02
  -2.922175e+02  -1.466209e+02
  -7.187805e+01  -4.498373e+02
   1.436333e+02  -3.821800e+02
   1.432641e+02  -1.033206e+02
   3.545768e+01   2.830572e+01
   3.376265e+01  -7.151134e+01
   1.807580e+02  -1.276158e+02
   2.721790e+02   4.201252e+01
   1.656214e+02   2.589966e+02
  -5.873328e+01   2.639406e+02
  -2.299819e+02   2.877694e+01
  -2.088791e+02  -2.298423e+02
   5.598712e+00  -3.050437e+02
   2.687850e+02  -1.313901e+02
   3.697558e+02   1.644086e+02
   1.959591e+02   3.642354e+02
  -1.105343e+02   3.193780e+02
  -2.507727e+02   1.204622e+02
  -1.668081e+02  -9.531238e+00
  -9.766992e+01   1.237032e+01
  -2.141726e+02   5.677671e+01
  -3.712549e+02  -5.898580e+01
  -3.256554e+02  -2.751614e+02
  -6.795095e+00  -4.425961e+02
   3.526557e+02  -4.125957e+02
   4.918618e+02  -1.979871e+02
   3.455932e+02   9.565075e+01
   6.267116e+01   2.967498e+02
  -1.373350e+02   2.588355e+02
  -9.495780e+01   3.217637e+01
   1.060132e+02  -1.107359e+02
   2.046387e+02   5.808729e+00
   6.195439e+01   2.063022e+02
  -1.703626e+02   1.947355e+02
  -1.953724e+02  -5.402547e+01
   7.482968e+00  -1.988191e+02
   1.934777e+02  -4.171296e+01
   1.523005e+02   2.439738e+02
  -5.060161e+01   3.451368e+02
  -2.367930e+02   1.793149e+02
  -3.128147e+02  -7.861018e+01
  -2.580858e+02  -2.383516e+02
  -8.811282e+01  -2.623136e+02
   1.160284e+02  -1.649187e+02
   1.887060e+02  -2.477285e+01
   6.871920e+01   3.932467e+01
  -6.939496e+01  -2.682066e+01
  -3.876833e+01  -1.189105e+02
   1.198812e+02  -1.058827e+02
   1.854340e+02   6.563375e+00
   6.923767e+01   7.613291e+01
  -7.167933e+01   2.504530e+01
  -5.553253e+01  -6.174348e+01
   1.132086e+02  -7.689387e+01
   2.622058e+02   1.067974e+01
   2.494565e+02   1.340209e+02
   5.836712e+01   2.462948e+02
  -1.786479e+02   2.616125e+02
  -2.842701e+02   1.251205e+02
  -1.780782e+02  -6.180992e+01
   1.931148e+01  -1.213964e+02
   9.727688e+01  -1.420332e+01
  -2.221571e+01   1.069211e+02
  -1.899389e+02   6.708666e+01
  -2.151107e+02  -9.789006e+01
  -6.807140e+01  -2.097423e+02
   9.589027e+01  -1.611946e+02
   1.463968e+02  -3.000591e+01
   7.345574e+01   4.193459e+01
  -1.990795e+01   5.293407e+00
  -3.190672e+01  -7.662598e+01
   7.035096e+01  -1.056521e+02
   1.908563e+02  -2.359588e+01
   1.850252e+02   1.258369e+02
   1.914910e+01   2.184754e+02
  -1.690371e+02   1.637764e+02
  -1.990028e+02   5.715783e-02
  -6.881881e+01  -1.187040e+02
   6.953501e+01  -1.115954e+02
   8.797023e+01  -3.121329e+01
   2.346820e+01   2.308928e+01
  -1.668514e+01   1.840703e+01
   1.155897e+01  -4.325038e+00
   6.844408e+01   1.218719e+01
   8.157668e+01   8.162705e+01
   9.656082e+00   1.496639e+02
  -1.225068e+02   1.449833e+02
  -2.231761e+02   2.650939e+01
  -1.937742e+02  -1.454739e+02
  -4.014873e+01  -2.351140e+02
   1.084058e+02  -1.698478e+02
   1.381910e+02  -2.479915e+01
   7.192502e+01   5.939945e+01
   2.752806e+01   4.148355e+01
   4.846609e+01  -1.142076e+01
   7.238731e+01  -2.585955e+00
   3.518300e+01   4.863687e+01
  -4.694164e+01   7.771587e+01
  -9.687811e+01   4.674130e+01
  -7.571903e+01  -3.390739e+01
   1.681073e+01  -9.970618e+01
   1.322553e+02  -7.691145e+01
   1.847912e+02   4.902497e+01
   9.735270e+01   1.921813e+02
  -1.015608e+02   2.209224e+02
  -2.617805e+02   9.226087e+01
  -2.544970e+02  -8.885298e+01
  -1.113378e+02  -1.757481e+02
   3.934571e+01  -1.473091e+02
   9.676484e+01  -8.559641e+01
   8.446962e+01  -7.152862e+01
   7.141919e+01  -8.638498e+01
   9.468143e+01  -6.701112e+01
   1.240879e+02   2.535140e+01
   1.099642e+02   1.496548e+02
   2.175750e+01   2.163343e+02
  -9.973852e+01   1.650856e+02
  -1.727414e+02   1.722423e+01
  -1.319782e+02  -1.219290e+02
  -1.421711e+01  -1.582333e+02
   6.707832e+01  -8.727962e+01
   5.854872e+01   1.174484e+00
   3.506485e+00   4.036919e+01
  -1.070136e+01   3.542198e+01
   3.335840e+01   1.947006e+01
   7.350480e+01   2.559855e+01
   4.062091e+01   3.832445e+01
  -6.130584e+01   3.272632e+01
  -1.508865e+02  -1.210221e+00
  -1.365223e+02  -5.052520e+01
  -1.512452e+01  -8.482878e+01
   1.171784e+02  -6.735404e+01
   1.398796e+02  -9.450955e+00
   4.426475e+01   4.366192e+01
  -6.125531e+01   3.796536e+01
  -7.423016e+01  -2.077515e+01
  -4.514470e+00  -7.012329e+01
   5.797247e+01  -5.658577e+01
   6.238237e+01   6.231017e+00
   3.896049e+01   5.177624e+01
   3.947008e+01   4.449280e+01
   6.038884e+01   2.963063e+00
   6.070347e+01   3.581862e+00
   2.987876e+01   6.862615e+01
  -4.175374e+01   1.408739e+02
  -1.155571e+02   1.308204e+02
  -1.560972e+02   2.593383e+01
  -1.173939e+02  -9.040257e+01
  -8.873653e+00  -1.233028e+02
   8.344573e+01  -5.872117e+01
   6.116770e+01   1.790692e+01
  -5.243531e+01   2.279934e+01
  -1.348171e+02  -4.023371e+01
  -8.198375e+01  -1.049066e+02
   7.892147e+01  -1.092646e+02
   1.893517e+02  -4.630309e+01
   1.580580e+02   3.737841e+01
   3.289531e+01   8.210066e+01
  -5.993463e+01   6.271851e+01
  -4.337340e+01   3.046455e+00
   4.033392e+01  -2.513516e+01
   8.813771e+01   2.689720e+01
   2.715995e+01   1.198603e+02
  -9.720572e+01   1.506987e+02
  -1.670083e+02   5.401381e+01
  -1.198966e+02  -1.049886e+02
  -9.302480e+00  -1.921626e+02
   8.299102e+01  -1.396693e+02
   1.001515e+02   7.400563e+00
   6.004156e+01   1.122139e+02
   3.477325e+00   9.791377e+01
  -4.093650e+01   1.985428e+01
  -5.019138e+01  -2.799068e+01
  -2.671770e+01  -5.503275e+00
  -4.748009e+00   2.092809e+01
  -1.876846e+01  -1.497426e+01
  -5.132517e+01  -8.645554e+01
  -3.842343e+01  -1.069265e+02
   4.666530e+01  -4.455390e+01
   1.364778e+02   4.019117e+01
   1.248055e+02   7.410718e+01
   1.345220e+01   4.951832e+01
  -8.655738e+01   1.960931e+01
  -8.589615e+01   2.961745e+00
  -1.125347e+01  -1.093565e+01
   3.981407e+01  -2.101574e+01
   1.363322e+01  -1.563041e+01
  -2.096932e+01   1.086367e+00
   6.391591e+00   5.236483e+00
   7.481731e+01   1.434701e+00
   8.924347e+01   2.681338e+01
   5.641728e+00   8.124121e+01
  -1.175293e+02   1.110056e+02
  -1.800217e+02   5.438393e+01
  -1.352415e+02  -7.000442e+01
  -2.262001e+01  -1.603601e+02
   7.795142e+01  -1.422155e+02
   1.101042e+02  -5.214162e+01
   7.757156e+01   2.544512e+01
   2.454660e+01   3.565317e+01
  -2.083671e+00   7.698591e+00
   1.027714e+01   2.871688e+00
   3.305779e+01   4.650308e+01
   2.059573e+01   8.900514e+01
  -3.249655e+01   7.029813e+01
  -8.053958e+01  -1.906431e+01
  -7.303594e+01  -1.069562e+02
   1.518952e+00  -1.113709e+02
   8.541482e+01  -2.061631e+01
   1.000071e+02   7.890852e+01
   2.639999e+01   1.033730e+02
  -6.819440e+01   5.224673e+01
  -9.325804e+01  -1.400021e+01
  -3.552770e+01  -4.929386e+01
   3.305716e+01  -4.777943e+01
   2.975831e+01  -2.486231e+01
  -3.375836e+01  -3.755794e-01
  -6.731895e+01   4.281497e+00
  -1.538737e+01  -2.503421e+01
   7.668842e+01  -6.144465e+01
   1.098858e+02  -5.383899e+01
   6.035839e+01   1.334820e+01
  -1.735878e+01   7.831640e+01
  -5.222408e+01   7.306072e+01
  -3.526839e+01   2.029063e+00
   2.790097e+00  -5.479158e+01
   2.946714e+01  -3.793498e+01
   3.529632e+01   2.261740e+01
   2.098282e+01   5.522608e+01
  -6.848925e+00   3.135993e+01
  -3.307856e+01  -1.025429e+01
  -3.670470e+01  -2.225015e+01
  -1.973016e+01  -1.424342e+00
  -1.947658e+00   1.328355e+01
   3.542121e+00  -5.581906e+00
   6.628308e+00  -3.927326e+01
   2.188318e+01  -4.351432e+01
   3.486248e+01  -4.725526e+00
   2.873160e+01   4.734620e+01
  -5.960193e+00   5.949968e+01
  -4.725084e+01   1.834418e+01
  -5.422007e+01  -4.217733e+01
  -1.179778e+01  -6.351087e+01
   5.428657e+01  -3.041673e+01
   8.451552e+01   1.813659e+01
   4.616251e+01   4.442279e+01
  -2.903514e+01   3.959040e+01
  -6.318323e+01   1.898212e+01
  -2.378212e+01   2.169856e+00
   3.662474e+01   2.204233e+00
   3.645253e+01   1.785103e+01
  -3.072562e+01   3.165979e+01
  -9.076713e+01   1.598351e+01
