
 $NMID
 id='ANONYMOUS ', fmtdat='(2E16.6)'
 volume=1.0
 tramp=1.0
 $END
   3.701336e+03  -2.107741e+02
   2.576648e+03   2.013185e+03
  -2.763988e+02   2.594368e+03
  -1.888895e+03   1.134645e+03
  -1.149722e+03  -4.605952e+02
   3.592415e+02  -6.603598e+02
   8.180695e+02   1.712742e+02
   1.632895e+02   8.734318e+02
  -6.173272e+02   7.844682e+02
  -8.518902e+02   4.583640e+01
  -5.255600e+02  -7.025860e+02
   1.009704e+02  -8.102524e+02
   5.526759e+02  -1.823257e+02
   4.059923e+02   5.620562e+02
  -1.781496e+02   6.982113e+02
  -5.560532e+02   5.353506e+01
  -3.377875e+02  -5.941230e+02
   2.423786e+02  -6.581440e+02
   5.694009e+02  -1.954218e+02
   4.479875e+02   2.826660e+02
   8.600532e+01   4.085591e+02
  -1.853231e+02   2.855502e+02
  -1.600623e+02   7.603236e+01
   1.028489e+02  -1.986104e+01
   3.351012e+02   9.913114e+01
   1.629262e+02   3.399997e+02
  -3.758753e+02   3.449417e+02
  -7.355968e+02  -1.014569e+01
  -4.066578e+02  -4.252197e+02
   2.849267e+02  -4.295988e+02
   6.327817e+02  -2.826378e+01
   3.239424e+02   3.854744e+02
  -2.100666e+02   4.838789e+02
  -4.762957e+02   2.113130e+02
  -3.800182e+02  -1.752066e+02
  -1.085059e+02  -4.194762e+02
   1.115910e+02  -2.794440e+02
   1.274745e+02   1.263855e+02
  -9.354709e+01   3.391537e+02
  -3.350203e+02   1.781419e+01
  -2.342460e+02  -5.228368e+02
   2.082749e+02  -6.082519e+02
   5.036130e+02  -9.069462e+01
   2.780834e+02   4.069568e+02
  -1.972907e+02   2.687512e+02
  -3.361382e+02  -2.352758e+02
   1.668789e+01  -4.574329e+02
   4.585986e+02  -1.281782e+02
   5.468625e+02   3.350403e+02
   1.800833e+02   5.212026e+02
  -3.233358e+02   3.453332e+02
  -5.811731e+02  -2.154594e+01
  -3.852763e+02  -3.165082e+02
   8.094955e+01  -3.339253e+02
   3.685313e+02  -1.109023e+02
   2.354774e+02   1.131989e+02
  -7.057824e+01   1.007172e+02
  -1.359780e+02  -1.076379e+02
   1.156805e+02  -1.707106e+02
   3.202258e+02   2.018355e+01
   1.704180e+02   2.485430e+02
  -1.646000e+02   2.730948e+02
  -3.230866e+02   1.119843e+02
  -2.049413e+02  -9.020152e+01
   3.784138e+01  -2.493983e+02
   2.174102e+02  -3.013148e+02
   3.006256e+02  -1.769006e+02
   2.486525e+02   1.268807e+02
   8.468486e+01   3.821459e+02
  -8.211731e+01   3.570362e+02
  -9.859542e+01   1.383191e+02
  -4.412646e+01   1.846968e+01
  -6.811487e+01   7.746377e+01
  -1.914754e+02   9.663258e+01
  -2.445396e+02  -5.512817e+01
  -1.390842e+02  -2.353294e+02
   5.980950e+01  -2.240338e+02
   1.978406e+02  -1.190986e+01
   1.774085e+02   2.136638e+02
   6.330924e-01   2.594466e+02
  -2.306154e+02   1.090864e+02
  -3.304708e+02  -1.345794e+02
  -1.917010e+02  -3.078554e+02
   5.796672e+01  -2.945295e+02
   1.941679e+02  -1.451154e+02
   1.543736e+02  -3.216043e+01
   1.147321e+02  -3.726032e+01
   2.273876e+02  -5.743220e+01
   3.805520e+02   4.281008e+01
   3.187017e+02   2.564120e+02
   6.816093e+00   4.164939e+02
  -3.219177e+02   3.936651e+02
  -4.440394e+02   1.904139e+02
  -3.082637e+02  -7.168697e+01
  -6.237215e+01  -2.559710e+02
   8.969633e+01  -2.298776e+02
   6.737989e+01  -4.785282e+01
  -7.112310e+01   8.197854e+01
  -1.511936e+02   7.710730e+00
  -5.262315e+01  -1.539241e+02
   1.169342e+02  -1.588293e+02
   1.551645e+02   2.865347e+01
   4.932047e+00   1.649580e+02
  -1.631068e+02   4.112693e+01
  -1.592187e+02  -2.177840e+02
   1.150682e+01  -3.235417e+02
   2.126567e+02  -1.902688e+02
   3.101355e+02   5.090112e+01
   2.634668e+02   2.143416e+02
   8.040642e+01   2.354542e+02
  -9.732204e+01   1.462927e+02
  -1.469215e+02   2.788236e+01
  -4.704281e+01  -2.220428e+01
   5.767889e+01   3.539086e+01
   2.448801e+01   1.071484e+02
  -1.067766e+02   8.864637e+01
  -1.548608e+02  -6.640078e+00
  -4.947338e+01  -5.844559e+01
   7.009404e+01  -8.676536e+00
   4.556445e+01   7.474882e+01
  -1.166458e+02   8.368587e+01
  -2.558732e+02   3.963040e+00
  -2.440719e+02  -1.262994e+02
  -5.918475e+01  -2.364703e+02
   1.623698e+02  -2.411962e+02
   2.536553e+02  -1.141194e+02
   1.567767e+02   4.403460e+01
  -1.509076e+01   9.591662e+01
  -7.601059e+01   1.138613e+01
   2.936283e+01  -8.653750e+01
   1.705759e+02  -5.739998e+01
   1.931572e+02   8.288760e+01
   7.038205e+01   1.840646e+02
  -7.561313e+01   1.511150e+02
  -1.243046e+02   3.657887e+01
  -6.134821e+01  -3.491201e+01
   2.663017e+01   7.298310e-01
   2.871832e+01   8.278172e+01
  -7.391820e+01   1.091640e+02
  -1.858654e+02   3.293140e+01
  -1.773747e+02  -1.093263e+02
  -2.604261e+01  -2.015738e+02
   1.417037e+02  -1.560471e+02
   1.770882e+02  -1.632747e+01
   6.718776e+01   9.943340e+01
  -5.303047e+01   1.023191e+02
  -7.354271e+01   3.121858e+01
  -1.362159e+01  -2.025041e+01
   2.359055e+01  -1.044086e+01
  -9.728483e+00   1.577816e+01
  -7.430255e+01  -4.712642e+00
  -9.162181e+01  -7.992335e+01
  -1.752483e+01  -1.533448e+02
   1.176434e+02  -1.465203e+02
   2.196835e+02  -2.760208e+01
   1.918349e+02   1.371829e+02
   4.686643e+01   2.220471e+02
  -9.809424e+01   1.628497e+02
  -1.306909e+02   3.100183e+01
  -7.425530e+01  -5.115052e+01
  -2.844013e+01  -3.446543e+01
  -4.630935e+01   9.284601e+00
  -7.654100e+01   6.002748e+00
  -4.610160e+01  -5.071823e+01
   3.800875e+01  -9.090188e+01
   1.038492e+02  -5.508856e+01
   8.913049e+01   3.878912e+01
  -1.293017e+01   1.122294e+02
  -1.392671e+02   8.761636e+01
  -1.903428e+02  -4.777556e+01
  -9.555339e+01  -1.924817e+02
   9.324148e+01  -2.171709e+02
   2.455416e+02  -9.685308e+01
   2.400710e+02   6.799818e+01
   1.076901e+02   1.541101e+02
  -2.718046e+01   1.362798e+02
  -8.044815e+01   8.280933e+01
  -6.826611e+01   7.065426e+01
  -5.797929e+01   9.064746e+01
  -8.719040e+01   7.376900e+01
  -1.243318e+02  -1.725616e+01
  -1.153178e+02  -1.416221e+02
  -3.352649e+01  -2.095129e+02
   8.700748e+01  -1.621083e+02
   1.628946e+02  -2.416292e+01
   1.305795e+02   1.106111e+02
   2.070782e+01   1.454786e+02
  -6.524073e+01   8.344998e+01
  -5.830419e+01  -3.238065e+00
  -3.209608e+00  -4.101570e+01
   1.364547e+01  -2.728533e+01
  -3.243114e+01  -1.241446e+01
  -7.617377e+01  -1.917071e+01
  -4.444915e+01  -3.538456e+01
   5.913404e+01  -3.634361e+01
   1.447594e+02  -7.941632e+00
   1.311296e+02   4.262321e+01
   1.557772e+01   7.932598e+01
  -1.093769e+02   7.127692e+01
  -1.325929e+02   1.612737e+01
  -4.500828e+01  -3.965805e+01
   5.616199e+01  -4.015534e+01
   7.141916e+01   1.508796e+01
   1.138549e+01   7.006541e+01
  -4.989119e+01   6.234043e+01
  -6.457444e+01  -2.941359e-01
  -4.944779e+01  -5.020141e+01
  -4.343144e+01  -4.118393e+01
  -5.094504e+01   9.734947e-01
  -5.941333e+01   5.268119e+00
  -3.798393e+01  -6.314405e+01
   2.236700e+01  -1.407698e+02
   1.051564e+02  -1.382311e+02
   1.570155e+02  -3.803495e+01
   1.208829e+02   8.475757e+01
   7.582183e+00   1.200430e+02
  -8.358943e+01   6.043498e+01
  -5.813785e+01  -1.490355e+01
   5.622326e+01  -2.399647e+01
   1.357405e+02   3.374829e+01
   7.650553e+01   9.595674e+01
  -6.694729e+01   1.121255e+02
  -1.748772e+02   6.016257e+01
  -1.550151e+02  -2.202038e+01
  -3.966844e+01  -7.861732e+01
   5.228023e+01  -6.836380e+01
   4.592533e+01  -6.534031e+00
  -3.715713e+01   2.956127e+01
  -8.771423e+01  -1.702677e+01
  -3.620113e+01  -1.090729e+02
   7.800971e+01  -1.497494e+02
   1.503021e+02  -6.755968e+01
   1.197827e+02   8.683582e+01
   1.238930e+01   1.769062e+02
  -7.569883e+01   1.326366e+02
  -9.452360e+01  -7.994856e+00
  -5.532501e+01  -1.125113e+02
   6.268159e+00  -9.933390e+01
   4.540846e+01  -1.651339e+01
   4.849903e+01   3.059340e+01
   2.129907e+01   7.226466e+00
   2.963939e+00  -1.899689e+01
   2.341862e+01   1.183117e+01
   5.897421e+01   8.104517e+01
   4.150551e+01   9.821149e+01
  -4.336645e+01   4.500707e+01
  -1.307561e+02  -3.003582e+01
  -1.222845e+02  -6.112225e+01
  -2.048916e+01  -4.870313e+01
   7.849225e+01  -2.906892e+01
   8.015038e+01  -7.776305e+00
   1.102558e+01   1.011746e+01
  -3.379570e+01   2.238209e+01
  -1.529231e+01   1.309936e+01
   1.741973e+01  -5.061699e+00
  -5.857536e+00  -6.225721e+00
  -6.724465e+01   5.489352e-01
  -8.893975e+01  -2.175117e+01
  -1.624494e+01  -8.049445e+01
   1.060957e+02  -1.156198e+02
   1.745220e+02  -6.250332e+01
   1.409015e+02   5.803518e+01
   3.300300e+01   1.488341e+02
  -6.813802e+01   1.430180e+02
  -1.037878e+02   6.150432e+01
  -7.547269e+01  -1.610504e+01
  -2.488526e+01  -3.566473e+01
   7.220532e-01  -1.035313e+01
  -9.450912e+00  -3.973910e+00
  -3.001425e+01  -3.949519e+01
  -2.013184e+01  -8.104616e+01
   2.639645e+01  -6.894424e+01
   7.760514e+01   1.373347e+01
   7.768587e+01   1.006407e+02
   9.079963e+00   1.089245e+02
  -7.650262e+01   2.904760e+01
  -1.003788e+02  -6.473329e+01
  -3.498791e+01  -9.706296e+01
   6.124367e+01  -5.773184e+01
   9.432977e+01   7.780715e+00
   3.844138e+01   5.045483e+01
  -3.190990e+01   5.275807e+01
  -3.256358e+01   2.422231e+01
   3.016251e+01  -5.712822e+00
   6.508645e+01  -1.036837e+01
   1.450091e+01   2.529284e+01
  -7.148174e+01   6.497713e+01
  -1.091546e+02   5.436925e+01
  -6.182895e+01  -1.448939e+01
   1.319791e+01  -7.882492e+01
   5.172831e+01  -7.542908e+01
   3.993443e+01  -7.867823e+00
   5.963868e+00   5.190805e+01
  -2.342576e+01   4.344869e+01
  -3.687872e+01  -1.391924e+01
  -2.675694e+01  -5.094747e+01
   3.247892e+00  -3.322059e+01
   3.212274e+01   7.168271e+00
   3.639877e+01   2.211539e+01
   1.744501e+01   2.683364e+00
  -9.176201e-01  -1.528654e+01
  -3.211946e+00  -8.664391e-01
  -1.405559e+00   3.474625e+01
  -1.133544e+01   4.871721e+01
  -3.019934e+01   1.401437e+01
  -3.738946e+01  -3.845244e+01
  -8.206993e+00  -5.948285e+01
   3.864811e+01  -2.561643e+01
   5.860042e+01   3.071953e+01
   2.051862e+01   5.733319e+01
  -5.033961e+01   3.589183e+01
  -8.626180e+01  -9.474531e+00
  -4.783986e+01  -4.121369e+01
   2.762015e+01  -4.145676e+01
   6.155091e+01  -2.358677e+01
   2.392498e+01  -3.559916e+00
  -3.304885e+01   2.184134e+00
  -3.463254e+01  -1.202819e+01
   2.539943e+01  -3.161390e+01
   8.052219e+01  -2.294805e+01
