
 $NMID
 id='ANONYMOUS ', fmtdat='(2E16.6)'
 volume=1.0
 tramp=1.0
 $END
   4.477196e+03   1.010724e+02
   2.536640e+03   2.783477e+03
  -8.410007e+02   2.808353e+03
  -2.300963e+03   8.351851e+02
  -9.395818e+02  -7.920977e+02
   7.990342e+02  -6.168830e+02
   9.849269e+02   5.403720e+02
  -9.051708e+01   1.179839e+03
  -9.814238e+02   8.161654e+02
  -1.030566e+03  -1.668656e+02
  -4.435988e+02  -9.934685e+02
   3.145644e+02  -9.733024e+02
   7.164608e+02  -9.298325e+01
   4.195806e+02   7.943609e+02
  -2.935794e+02   8.007372e+02
  -6.205308e+02  -3.835153e+01
  -2.524883e+02  -7.631237e+02
   3.963177e+02  -6.576424e+02
   6.470626e+02  -4.381805e+01
   3.902447e+02   4.359932e+02
  -1.367512e+01   4.863270e+02
  -2.926672e+02   2.716127e+02
  -2.448424e+02  -2.537132e+00
   1.370254e+02  -1.022064e+02
   4.602968e+02   1.298287e+02
   2.000040e+02   4.831510e+02
  -5.212139e+02   4.519182e+02
  -9.333352e+02  -9.305954e+01
  -4.524145e+02  -6.100985e+02
   4.471331e+02  -5.452822e+02
   8.096055e+02   4.742544e+01
   3.569365e+02   5.451761e+02
  -3.268339e+02   5.703835e+02
  -5.999398e+02   1.747072e+02
  -4.248796e+02  -2.867772e+02
  -5.397164e+01  -5.178623e+02
   2.253277e+02  -2.816077e+02
   1.968894e+02   2.592393e+02
  -1.838806e+02   4.646461e+02
  -4.920697e+02  -2.697104e+01
  -2.719873e+02  -7.380075e+02
   3.597997e+02  -7.344092e+02
   6.630543e+02   2.015967e+01
   2.658386e+02   6.042135e+02
  -3.260473e+02   3.175597e+02
  -4.205453e+02  -3.593839e+02
   8.272319e+01  -5.873079e+02
   5.790560e+02  -1.351912e+02
   6.205531e+02   4.408348e+02
   1.605783e+02   6.309346e+02
  -4.206377e+02   3.707271e+02
  -6.729203e+02  -9.381480e+01
  -3.910126e+02  -4.351101e+02
   1.668862e+02  -4.105676e+02
   4.777187e+02  -5.750348e+01
   2.530177e+02   2.205165e+02
  -1.415190e+02   1.229964e+02
  -1.498713e+02  -1.777403e+02
   1.866610e+02  -2.198799e+02
   3.835009e+02   9.189490e+01
   1.360210e+02   3.334084e+02
  -2.333685e+02   2.739427e+02
  -3.465498e+02   4.499931e+01
  -1.830860e+02  -1.086864e+02
   4.987998e+01  -2.284524e+02
   2.345469e+02  -3.150525e+02
   3.447473e+02  -2.033762e+02
   2.844752e+02   1.538375e+02
   6.877269e+01   4.666605e+02
  -1.317324e+02   3.863551e+02
  -1.223098e+02   1.030216e+02
  -1.618469e+01  -2.187013e+01
  -3.973018e+01   1.013163e+02
  -2.158597e+02   1.420865e+02
  -3.019787e+02  -5.985322e+01
  -1.672275e+02  -2.917328e+02
   8.230344e+01  -2.656438e+02
   2.454165e+02  -6.888115e+00
   2.083110e+02   2.522356e+02
  -1.457212e+01   3.088251e+02
  -2.835757e+02   1.216682e+02
  -3.827468e+02  -1.789091e+02
  -1.913267e+02  -3.781035e+02
   1.182989e+02  -3.233339e+02
   2.482200e+02  -1.102029e+02
   1.568332e+02   1.288902e+01
   9.452756e+01  -4.355131e+01
   2.465858e+02  -8.682382e+01
   4.236981e+02   5.974700e+01
   3.421612e+02   3.114808e+02
  -1.538297e+01   4.669304e+02
  -3.805245e+02   4.192980e+02
  -5.033463e+02   2.043373e+02
  -3.530882e+02  -1.043433e+02
  -6.047405e+01  -3.211278e+02
   1.469660e+02  -2.757573e+02
   1.054382e+02  -3.111322e+01
  -9.879912e+01   1.304436e+02
  -2.149697e+02   1.315154e+01
  -7.013435e+01  -2.079103e+02
   1.637185e+02  -1.909949e+02
   2.034659e+02   6.199617e+01
  -1.131195e+01   2.153930e+02
  -2.128017e+02   4.193736e+01
  -1.778502e+02  -2.663967e+02
   4.070504e+01  -3.686606e+02
   2.533604e+02  -1.913130e+02
   3.404560e+02   8.059184e+01
   2.740388e+02   2.566330e+02
   8.624999e+01   2.708121e+02
  -1.243883e+02   1.643666e+02
  -1.929714e+02   2.058625e+01
  -5.806261e+01  -3.925713e+01
   7.936506e+01   3.675456e+01
   3.384522e+01   1.349666e+02
  -1.311275e+02   1.083189e+02
  -1.908300e+02  -1.433415e+01
  -6.248530e+01  -7.866427e+01
   8.592004e+01  -2.242395e+01
   5.819040e+01   7.504765e+01
  -1.316711e+02   8.902797e+01
  -2.927080e+02  -1.065463e+00
  -2.712574e+02  -1.480251e+02
  -5.940455e+01  -2.677497e+02
   1.939927e+02  -2.773583e+02
   2.988045e+02  -1.334258e+02
   1.784696e+02   5.448148e+01
  -2.557274e+01   1.183951e+02
  -9.812111e+01   6.641083e+00
   3.225115e+01  -1.119804e+02
   2.077942e+02  -6.381094e+01
   2.276270e+02   1.131323e+02
   7.289883e+01   2.245165e+02
  -1.026534e+02   1.634651e+02
  -1.553608e+02   2.578754e+01
  -7.674232e+01  -4.678897e+01
   2.337230e+01  -5.455817e+00
   3.543858e+01   8.274295e+01
  -7.476565e+01   1.120163e+02
  -2.018532e+02   2.459407e+01
  -1.957081e+02  -1.310101e+02
  -2.048238e+01  -2.299439e+02
   1.763847e+02  -1.740546e+02
   2.076602e+02  -5.143208e+00
   7.058096e+01   1.252656e+02
  -6.976769e+01   1.173913e+02
  -8.814451e+01   2.887081e+01
  -2.188649e+01  -2.749033e+01
   1.960689e+01  -1.932098e+01
  -1.367729e+01   4.865491e+00
  -7.426778e+01  -1.485157e+01
  -8.588360e+01  -8.751322e+01
  -1.170657e+01  -1.593433e+02
   1.296759e+02  -1.537699e+02
   2.388143e+02  -2.592218e+01
   2.075532e+02   1.533624e+02
   4.096765e+01   2.469834e+02
  -1.177837e+02   1.772431e+02
  -1.441063e+02   2.256642e+01
  -7.029798e+01  -6.689553e+01
  -2.346397e+01  -4.136186e+01
  -4.872330e+01   1.564823e+01
  -7.950296e+01   8.459516e+00
  -3.988837e+01  -4.982535e+01
   4.634372e+01  -8.840592e+01
   1.039592e+02  -5.207322e+01
   8.452445e+01   3.965320e+01
  -1.616057e+01   1.112693e+02
  -1.454228e+02   8.397709e+01
  -2.010225e+02  -5.244299e+01
  -1.012589e+02  -2.040746e+02
   1.098633e+02  -2.326359e+02
   2.735508e+02  -1.012080e+02
   2.605294e+02   8.971161e+01
   1.092175e+02   1.886718e+02
  -4.329545e+01   1.542355e+02
  -9.917822e+01   8.218809e+01
  -8.420253e+01   6.282963e+01
  -7.046820e+01   8.657697e+01
  -9.464936e+01   7.330341e+01
  -1.323301e+02  -2.512846e+01
  -1.190889e+02  -1.599470e+02
  -2.930185e+01  -2.326937e+02
   1.044141e+02  -1.754932e+02
   1.835174e+02  -1.749522e+01
   1.372241e+02   1.271603e+02
   1.600312e+01   1.638014e+02
  -6.904142e+01   9.082127e+01
  -5.805380e+01  -1.340239e+00
  -4.492871e+00  -4.285472e+01
   9.155241e+00  -2.984688e+01
  -3.763558e+01  -1.469095e+01
  -7.858336e+01  -2.508883e+01
  -4.396296e+01  -4.194239e+01
   6.165884e+01  -3.797705e+01
   1.573413e+02  -3.886771e+00
   1.458486e+02   5.315130e+01
   1.403561e+01   9.214431e+01
  -1.266182e+02   7.687152e+01
  -1.494295e+02   1.293336e+01
  -4.614903e+01  -4.145876e+01
   6.419815e+01  -3.643587e+01
   7.790798e+01   2.076929e+01
   1.799700e+00   7.052157e+01
  -6.120142e+01   5.843125e+01
  -6.278130e+01  -5.122469e+00
  -3.951741e+01  -5.286038e+01
  -4.308246e+01  -4.115919e+01
  -6.647108e+01   2.257558e+00
  -7.106568e+01   1.415112e+00
  -3.521251e+01  -7.069626e+01
   3.695415e+01  -1.499594e+02
   1.148786e+02  -1.405011e+02
   1.619525e+02  -2.632698e+01
   1.205356e+02   9.684284e+01
   3.365088e+00   1.276212e+02
  -9.107864e+01   5.571895e+01
  -5.906748e+01  -2.205556e+01
   6.070050e+01  -2.347728e+01
   1.386547e+02   4.846271e+01
   7.546165e+01   1.081231e+02
  -7.954251e+01   1.129099e+02
  -1.884870e+02   4.970940e+01
  -1.631475e+02  -3.293603e+01
  -3.767320e+01  -8.702253e+01
   6.136397e+01  -6.945253e+01
   4.941092e+01  -7.151096e+00
  -4.158737e+01   2.731140e+01
  -9.125044e+01  -2.658127e+01
  -2.773435e+01  -1.270075e+02
   1.042364e+02  -1.559764e+02
   1.777238e+02  -5.576134e+01
   1.250933e+02   1.109883e+02
   3.609396e+00   2.076299e+02
  -9.200905e+01   1.434852e+02
  -1.071418e+02  -1.210061e+01
  -5.852193e+01  -1.235296e+02
   2.417776e+00  -1.057839e+02
   4.607073e+01  -1.843709e+01
   5.566649e+01   3.234808e+01
   2.958175e+01   7.739631e+00
   4.747191e+00  -2.055332e+01
   1.859373e+01   1.685125e+01
   5.377363e+01   9.216335e+01
   3.969413e+01   1.129001e+02
  -5.336306e+01   4.472326e+01
  -1.438025e+02  -4.726559e+01
  -1.297271e+02  -8.173872e+01
  -1.009999e+01  -5.402320e+01
   9.489077e+01  -1.922577e+01
   9.023404e+01  -3.764306e+00
   7.602804e+00   9.561708e+00
  -4.211631e+01   2.349367e+01
  -1.319397e+01   1.816298e+01
   2.334355e+01  -2.821873e+00
  -6.486396e+00  -8.968190e+00
  -8.015796e+01  -5.564080e+00
  -9.215032e+01  -2.626803e+01
  -1.499094e-01  -8.651585e+01
   1.331148e+02  -1.163452e+02
   1.915334e+02  -5.016797e+01
   1.343108e+02   8.018861e+01
   1.432948e+01   1.714718e+02
  -8.758831e+01   1.477468e+02
  -1.161690e+02   4.948388e+01
  -8.103115e+01  -2.854641e+01
  -2.319208e+01  -3.677293e+01
   5.885705e+00  -7.922912e+00
  -8.391412e+00  -4.572018e+00
  -3.162603e+01  -4.759735e+01
  -2.347705e+01  -9.374908e+01
   3.051510e+01  -7.113593e+01
   8.236790e+01   2.437640e+01
   7.667186e+01   1.132790e+02
  -2.419645e-01   1.132557e+02
  -8.748467e+01   1.909247e+01
  -1.043022e+02  -8.558383e+01
  -2.721340e+01  -1.074183e+02
   7.170311e+01  -5.318059e+01
   1.007518e+02   1.724046e+01
   3.710561e+01   5.350780e+01
  -3.608959e+01   5.130739e+01
  -3.140618e+01   2.464133e+01
   3.614295e+01  -1.004132e+00
   7.116005e+01  -3.995339e+00
   1.130692e+01   2.859760e+01
  -8.660741e+01   6.435203e+01
  -1.178002e+02   5.039175e+01
  -5.995191e+01  -1.804045e+01
   2.111872e+01  -8.292959e+01
   5.492529e+01  -7.395798e+01
   3.621277e+01  -1.031874e+00
  -2.804387e+00   5.771388e+01
  -3.032259e+01   3.936032e+01
  -3.763334e+01  -2.425046e+01
  -2.250293e+01  -5.680515e+01
   6.678105e+00  -3.165731e+01
   3.258978e+01   1.205790e+01
   3.437549e+01   2.113637e+01
   1.885946e+01  -1.091126e+00
   2.045167e+00  -1.421278e+01
  -3.469640e+00   7.691287e+00
  -9.269857e+00   4.128161e+01
  -2.279326e+01   4.601381e+01
  -3.434743e+01   2.770327e+00
  -2.887347e+01  -5.166811e+01
   6.497369e+00  -6.268751e+01
   4.771600e+01  -1.783692e+01
   5.518144e+01   4.544171e+01
   1.106085e+01   6.577676e+01
  -5.762457e+01   3.328605e+01
  -9.193673e+01  -1.953480e+01
  -4.921574e+01  -4.764237e+01
   3.083910e+01  -4.086448e+01
   6.628184e+01  -1.974931e+01
   2.386259e+01  -4.203302e+00
  -3.986794e+01  -3.377254e+00
  -3.846750e+01  -1.875930e+01
   3.473411e+01  -3.387147e+01
   9.703843e+01  -1.718635e+01
