
 $NMID
 id='ANONYMOUS ', fmtdat='(2E16.6)'
 volume=1.0
 tramp=1.0
 $END
   4.548144e+03   2.996540e+02
   2.284871e+03   2.807269e+03
  -9.955796e+02   2.696686e+03
  -2.164503e+03   7.240394e+02
  -8.025646e+02  -7.692298e+02
   8.057388e+02  -5.377318e+02
   9.278502e+02   5.567057e+02
  -8.434188e+01   1.134648e+03
  -9.078524e+02   7.553761e+02
  -9.413219e+02  -1.617082e+02
  -4.047623e+02  -9.075492e+02
   3.048547e+02  -8.685580e+02
   6.512357e+02  -6.047687e+01
   3.407419e+02   7.591438e+02
  -3.266325e+02   7.316297e+02
  -6.112520e+02  -3.461449e+01
  -2.322950e+02  -6.989253e+02
   3.492332e+02  -5.872339e+02
   5.787560e+02  -3.341618e+01
   3.382368e+02   3.656978e+02
  -1.481326e+01   4.202534e+02
  -2.524550e+02   2.406112e+02
  -2.190188e+02  -9.856386e+00
   1.015010e+02  -1.117884e+02
   4.163066e+02   1.195918e+02
   2.208553e+02   4.541163e+02
  -4.503366e+02   4.483409e+02
  -8.645388e+02  -9.196070e+01
  -4.549889e+02  -5.856813e+02
   4.050604e+02  -5.022333e+02
   7.760237e+02   7.114628e+01
   3.545283e+02   5.186100e+02
  -3.071149e+02   5.242002e+02
  -6.018263e+02   1.984926e+02
  -4.311766e+02  -2.401528e+02
  -4.552149e+01  -4.896553e+02
   2.391072e+02  -2.866413e+02
   1.930748e+02   2.321637e+02
  -1.803350e+02   4.527391e+02
  -4.656973e+02  -2.717319e+01
  -2.087522e+02  -7.071137e+02
   3.814231e+02  -6.989124e+02
   6.382828e+02   5.450992e+01
   2.234379e+02   6.166538e+02
  -3.306238e+02   3.468225e+02
  -3.913073e+02  -3.539139e+02
   9.227075e+01  -5.712826e+02
   5.822743e+02  -1.452115e+02
   5.805608e+02   4.231528e+02
   1.365636e+02   5.940943e+02
  -3.993240e+02   3.314895e+02
  -6.188626e+02  -1.058610e+02
  -3.513025e+02  -3.982239e+02
   1.829034e+02  -3.621165e+02
   4.497204e+02  -2.038483e+01
   2.211906e+02   2.179267e+02
  -1.461635e+02   8.715078e+01
  -1.373611e+02  -1.797280e+02
   1.879015e+02  -1.828165e+02
   3.603385e+02   1.087714e+02
   1.263113e+02   3.232557e+02
  -2.234922e+02   2.447356e+02
  -3.247909e+02   5.031177e+01
  -1.941892e+02  -8.399611e+01
   8.433420e+00  -2.078108e+02
   1.949922e+02  -3.280448e+02
   3.348105e+02  -2.189949e+02
   2.984257e+02   1.312592e+02
   7.514241e+01   4.273551e+02
  -1.344803e+02   3.650934e+02
  -1.309415e+02   7.927875e+01
  -1.202356e+01  -3.642566e+01
  -1.650283e+01   9.052558e+01
  -1.797789e+02   1.516019e+02
  -2.823978e+02  -4.023456e+01
  -1.645232e+02  -2.740219e+02
   7.182519e+01  -2.739598e+02
   2.379398e+02  -2.261846e+01
   2.021173e+02   2.378706e+02
  -1.450186e+01   2.963406e+02
  -2.657090e+02   1.167192e+02
  -3.493740e+02  -1.676823e+02
  -1.736413e+02  -3.455400e+02
   1.125892e+02  -3.016744e+02
   2.383912e+02  -1.086738e+02
   1.504769e+02   1.199355e+01
   8.517252e+01  -2.445095e+01
   2.103202e+02  -6.529170e+01
   3.747347e+02   5.154282e+01
   3.304226e+02   2.859288e+02
   4.518586e+00   4.431377e+02
  -3.604808e+02   4.011879e+02
  -4.944472e+02   1.768810e+02
  -3.401581e+02  -1.099015e+02
  -5.170183e+01  -2.905507e+02
   1.469335e+02  -2.448267e+02
   9.015813e+01  -2.022674e+01
  -1.112094e+02   1.031604e+02
  -1.958907e+02  -1.441666e+01
  -4.081811e+01  -1.971122e+02
   1.727258e+02  -1.693438e+02
   1.789911e+02   6.972672e+01
  -2.494133e+01   1.965916e+02
  -1.987904e+02   3.599780e+01
  -1.542898e+02  -2.375948e+02
   4.169198e+01  -3.330411e+02
   2.240161e+02  -1.826679e+02
   3.047505e+02   5.530115e+01
   2.623075e+02   2.349556e+02
   9.471470e+01   2.640513e+02
  -1.123349e+02   1.620741e+02
  -1.793164e+02   1.499475e+01
  -6.095467e+01  -4.061548e+01
   7.046927e+01   3.402698e+01
   3.169341e+01   1.268115e+02
  -1.258524e+02   1.000340e+02
  -1.796679e+02  -1.840716e+01
  -5.717788e+01  -7.688721e+01
   8.162334e+01  -1.481444e+01
   5.662514e+01   7.068064e+01
  -1.181520e+02   8.275183e+01
  -2.682933e+02  -1.679658e-01
  -2.504592e+02  -1.383197e+02
  -5.622406e+01  -2.509520e+02
   1.789377e+02  -2.578380e+02
   2.808811e+02  -1.202616e+02
   1.729286e+02   5.762619e+01
  -2.225138e+01   1.140485e+02
  -9.162276e+01   1.043906e+01
   2.641428e+01  -1.020664e+02
   1.838777e+02  -5.946172e+01
   2.011588e+02   1.039647e+02
   6.121656e+01   2.065229e+02
  -9.798031e+01   1.521758e+02
  -1.403802e+02   2.338948e+01
  -6.929211e+01  -4.584801e+01
   2.712790e+01  -9.558013e+00
   3.878980e+01   7.757483e+01
  -6.460730e+01   1.119110e+02
  -1.894334e+02   3.218758e+01
  -1.873322e+02  -1.193924e+02
  -2.120892e+01  -2.143526e+02
   1.615116e+02  -1.609686e+02
   1.934364e+02   1.213170e-01
   6.460266e+01   1.177872e+02
  -7.065795e+01   1.110244e+02
  -8.939766e+01   2.809273e+01
  -2.314671e+01  -2.955354e+01
   2.180290e+01  -2.380937e+01
  -4.429580e+00   6.298132e+00
  -6.107634e+01  -5.892695e+00
  -8.200885e+01  -7.174725e+01
  -1.596729e+01  -1.475876e+02
   1.180496e+02  -1.462510e+02
   2.254066e+02  -2.742423e+01
   1.942959e+02   1.478879e+02
   3.478948e+01   2.339561e+02
  -1.108124e+02   1.638492e+02
  -1.360985e+02   2.232055e+01
  -6.716843e+01  -5.794024e+01
  -2.548372e+01  -3.587509e+01
  -5.331919e+01   1.227490e+01
  -7.493084e+01   3.836167e+00
  -3.798646e+01  -4.759870e+01
   4.014710e+01  -7.912431e+01
   9.398264e+01  -5.119093e+01
   7.987840e+01   3.046122e+01
  -1.026982e+01   1.031041e+02
  -1.328556e+02   8.566051e+01
  -1.915495e+02  -4.610238e+01
  -9.956797e+01  -1.950237e+02
   1.015639e+02  -2.235713e+02
   2.593262e+02  -9.062210e+01
   2.468021e+02   8.686152e+01
   1.039498e+02   1.715103e+02
  -3.743229e+01   1.413341e+02
  -8.803975e+01   8.113675e+01
  -7.887050e+01   6.895004e+01
  -7.074450e+01   8.782240e+01
  -9.444345e+01   6.964362e+01
  -1.251632e+02  -2.664746e+01
  -1.083080e+02  -1.561662e+02
  -1.991421e+01  -2.255667e+02
   1.030269e+02  -1.686102e+02
   1.750175e+02  -1.794866e+01
   1.368985e+02   1.216051e+02
   2.056049e+01   1.569362e+02
  -6.513563e+01   9.060871e+01
  -6.180911e+01   1.657436e+00
  -9.211972e+00  -4.051238e+01
   7.345058e+00  -3.780719e+01
  -3.238835e+01  -2.079894e+01
  -7.178909e+01  -2.504092e+01
  -4.415386e+01  -3.886327e+01
   5.928902e+01  -3.840088e+01
   1.539996e+02  -3.828173e+00
   1.426049e+02   5.046440e+01
   1.941326e+01   9.036578e+01
  -1.139100e+02   7.654533e+01
  -1.412456e+02   1.349422e+01
  -5.064915e+01  -4.079380e+01
   5.433643e+01  -3.680580e+01
   7.119762e+01   2.183560e+01
   4.829977e+00   6.358414e+01
  -5.587445e+01   5.267422e+01
  -5.910841e+01  -2.823606e+00
  -3.960315e+01  -4.725289e+01
  -3.712104e+01  -4.326230e+01
  -5.381823e+01  -4.545803e+00
  -6.172179e+01   2.071043e+00
  -3.715341e+01  -5.958812e+01
   2.387267e+01  -1.356084e+02
   1.094550e+02  -1.378363e+02
   1.585511e+02  -3.449979e+01
   1.184699e+02   8.637073e+01
   8.340155e+00   1.195404e+02
  -8.121009e+01   5.754270e+01
  -5.890390e+01  -1.405839e+01
   5.496871e+01  -1.840706e+01
   1.308400e+02   4.528638e+01
   7.811493e+01   1.072627e+02
  -8.053627e+01   1.069085e+02
  -1.841266e+02   4.319920e+01
  -1.550549e+02  -4.005102e+01
  -3.261525e+01  -8.473060e+01
   6.148646e+01  -6.466962e+01
   4.881068e+01  -3.906147e+00
  -3.842465e+01   2.736098e+01
  -8.693450e+01  -2.264664e+01
  -2.926203e+01  -1.175001e+02
   8.748332e+01  -1.477675e+02
   1.582025e+02  -5.563840e+01
   1.160351e+02   9.739005e+01
   3.321590e+00   1.914901e+02
  -8.624178e+01   1.358394e+02
  -1.014287e+02  -9.193932e+00
  -5.750143e+01  -1.167592e+02
   4.578866e+00  -1.043972e+02
   4.557041e+01  -1.947184e+01
   4.976715e+01   3.057865e+01
   2.618392e+01   9.552859e+00
   4.570510e+00  -2.067311e+01
   1.972924e+01   1.136014e+01
   5.256210e+01   8.380424e+01
   3.955513e+01   1.090626e+02
  -4.515005e+01   4.732210e+01
  -1.349568e+02  -3.730738e+01
  -1.266272e+02  -7.116139e+01
  -1.761739e+01  -4.964490e+01
   8.368390e+01  -2.276383e+01
   8.410677e+01  -6.236071e+00
   9.850583e+00   8.034324e+00
  -3.665576e+01   1.946767e+01
  -1.277815e+01   1.724353e+01
   2.061391e+01   1.117478e+00
  -5.393728e+00  -7.877493e+00
  -6.879238e+01  -5.642422e+00
  -8.413242e+01  -2.514180e+01
  -9.159545e+00  -7.657434e+01
   1.061645e+02  -1.080157e+02
   1.731650e+02  -5.067505e+01
   1.338458e+02   6.868434e+01
   2.412111e+01   1.535383e+02
  -7.511143e+01   1.388211e+02
  -1.066470e+02   5.188347e+01
  -7.553792e+01  -2.265240e+01
  -2.352338e+01  -3.162963e+01
   2.039710e+00  -4.884585e+00
  -1.134021e+01  -2.147359e-01
  -3.458488e+01  -4.244358e+01
  -2.266877e+01  -8.582768e+01
   2.836454e+01  -6.846340e+01
   7.792302e+01   1.747846e+01
   7.132154e+01   1.036812e+02
  -4.496163e-01   1.059375e+02
  -8.122194e+01   2.100186e+01
  -9.679536e+01  -7.323113e+01
  -2.781516e+01  -9.815851e+01
   6.372287e+01  -5.190961e+01
   9.214114e+01   1.056381e+01
   3.716603e+01   4.686836e+01
  -3.012856e+01   4.896739e+01
  -2.904949e+01   2.795511e+01
   3.282619e+01   1.640117e+00
   6.566641e+01  -5.637449e+00
   1.429760e+01   2.278102e+01
  -7.489971e+01   6.133489e+01
  -1.081910e+02   5.660958e+01
  -5.836587e+01  -1.210820e+01
   1.532706e+01  -7.892227e+01
   4.988856e+01  -7.481909e+01
   3.481475e+01  -3.840255e+00
   6.981870e-01   5.527706e+01
  -2.509164e+01   4.168321e+01
  -3.505220e+01  -1.899731e+01
  -2.549896e+01  -5.435563e+01
   3.736843e+00  -3.153156e+01
   3.180539e+01   1.002075e+01
   3.819879e+01   2.118884e+01
   1.890317e+01   6.979670e-01
  -9.098034e-01  -1.229265e+01
  -9.429899e+00   5.182243e+00
  -9.127759e+00   3.434374e+01
  -1.842495e+01   3.779814e+01
  -2.890292e+01   4.462198e+00
  -2.304570e+01  -4.432206e+01
   7.237231e+00  -5.490947e+01
   4.382376e+01  -1.695845e+01
   5.144034e+01   3.842577e+01
   1.128453e+01   6.110556e+01
  -5.208069e+01   3.287593e+01
  -8.002350e+01  -1.495584e+01
  -4.438359e+01  -4.290493e+01
   2.626833e+01  -3.695548e+01
   5.874795e+01  -1.727678e+01
   2.105062e+01  -2.476920e+00
  -3.608811e+01  -3.677126e+00
  -3.602460e+01  -1.643649e+01
   3.055384e+01  -2.931834e+01
   8.852422e+01  -1.722128e+01
