
 $NMID
 id='ANONYMOUS ', fmtdat='(2E16.6)'
 volume=1.0
 tramp=1.0
 $END
  -2.856071e+03  -2.139491e+02
  -1.819317e+03  -1.767027e+03
   8.676443e+01  -1.937064e+03
   1.159777e+03  -9.800409e+02
   8.207558e+02  -4.685767e+01
  -5.301149e+01   2.029520e+02
  -3.881248e+02  -1.754059e+02
  -3.066527e+01  -5.628135e+02
   4.832264e+02  -5.105837e+02
   6.093899e+02  -2.681765e+01
   3.495370e+02   5.152625e+02
  -6.119670e+01   5.915311e+02
  -3.248203e+02   1.141308e+02
  -2.079223e+02  -4.448267e+02
   1.495946e+02  -4.987669e+02
   3.983544e+02  -4.787457e+01
   2.356142e+02   4.681462e+02
  -1.624354e+02   5.272903e+02
  -4.266144e+02   1.772858e+02
  -3.630049e+02  -1.957159e+02
  -8.972525e+01  -3.279091e+02
   1.203527e+02  -2.153825e+02
   9.282320e+01  -6.723874e+01
  -1.419059e+02  -6.322375e+01
  -2.640902e+02  -2.053602e+02
  -2.836493e+01  -3.059599e+02
   4.023707e+02  -1.728785e+02
   5.704652e+02   1.659337e+02
   2.342362e+02   3.483800e+02
  -3.060139e+02   1.988351e+02
  -4.842663e+02  -1.299189e+02
  -1.830668e+02  -3.487760e+02
   2.395463e+02  -3.284572e+02
   4.122073e+02  -1.214008e+02
   2.836343e+02   1.602177e+02
   6.306394e+01   3.020209e+02
  -7.046056e+01   1.777965e+02
   1.251257e+01  -1.042888e+02
   1.779583e+02  -1.800697e+02
   2.150662e+02   1.216419e+02
   1.744729e+01   4.741840e+02
  -2.424187e+02   4.169087e+02
  -3.350784e+02  -1.177960e+01
  -1.291325e+02  -3.132330e+02
   1.344269e+02  -1.421928e+02
   1.708822e+02   2.566759e+02
  -1.033914e+02   3.598232e+02
  -4.113222e+02   6.254712e+01
  -4.214846e+02  -3.296728e+02
  -1.271732e+02  -4.435134e+02
   2.757124e+02  -2.293510e+02
   4.648830e+02   7.320743e+01
   2.953945e+02   2.459653e+02
  -5.586591e+01   1.925487e+02
  -2.726141e+02   5.013683e+01
  -1.830598e+02  -4.819163e+01
   2.092793e+01  -2.504601e+01
   6.177720e+01   7.410566e+01
  -9.686995e+01   6.637416e+01
  -2.099425e+02  -6.210598e+01
  -1.016215e+02  -1.868948e+02
   1.526994e+02  -1.901791e+02
   2.864585e+02  -8.160295e+01
   2.034372e+02   9.193753e+01
  -2.878418e+01   2.574337e+02
  -2.550675e+02   2.946138e+02
  -3.249306e+02   1.370376e+02
  -2.116433e+02  -1.379440e+02
  -4.040608e+01  -3.113007e+02
   4.728371e+01  -2.761129e+02
   3.846611e+01  -1.336024e+02
   2.949375e+01  -7.048766e+01
   1.005475e+02  -9.193922e+01
   1.967344e+02  -5.195515e+01
   2.031773e+02   9.901745e+01
   7.655113e+01   2.219485e+02
  -8.236112e+01   1.720849e+02
  -1.661666e+02  -3.014597e+01
  -1.200774e+02  -2.104181e+02
   4.814551e+01  -2.244349e+02
   2.203023e+02  -5.088560e+01
   2.663646e+02   1.636118e+02
   1.322353e+02   2.693819e+02
  -5.690051e+01   2.324613e+02
  -1.534089e+02   1.236260e+02
  -1.259609e+02   6.028753e+01
  -1.266867e+02   5.488280e+01
  -2.427766e+02   3.123535e+01
  -3.566600e+02  -9.779850e+01
  -2.612001e+02  -2.748537e+02
   3.268847e+01  -3.815938e+02
   3.396157e+02  -3.354195e+02
   4.218287e+02  -1.359427e+02
   2.515049e+02   9.229282e+01
   1.099261e+01   2.233957e+02
  -1.051949e+02   1.815290e+02
  -2.645234e+01   2.807520e+01
   1.071918e+02  -4.077557e+01
   1.281085e+02   3.652695e+01
   4.721377e+00   1.306825e+02
  -1.113155e+02   8.906589e+01
  -1.010648e+02  -5.754887e+01
   3.615401e+01  -1.192372e+02
   1.451614e+02   7.063746e+00
   1.173268e+02   2.185338e+02
  -3.484946e+01   2.914531e+02
  -2.124808e+02   1.677320e+02
  -2.965687e+02  -6.155425e+01
  -2.339198e+02  -2.378356e+02
  -4.926811e+01  -2.425652e+02
   1.153907e+02  -1.210461e+02
   1.345831e+02   4.672019e+00
   3.395464e+01   1.661449e+01
  -4.305978e+01  -5.569764e+01
   6.900190e+00  -1.026471e+02
   1.127839e+02  -5.396853e+01
   1.284124e+02   3.583058e+01
   2.575168e+01   5.637583e+01
  -7.233708e+01  -9.874361e+00
  -3.288761e+01  -7.977817e+01
   1.249555e+02  -7.254964e+01
   2.508036e+02   2.381247e+01
   2.082459e+02   1.447619e+02
   1.350946e+01   2.157577e+02
  -1.788525e+02   1.824415e+02
  -2.236904e+02   6.835438e+01
  -1.148241e+02  -4.104168e+01
   2.675557e+01  -6.487590e+01
   5.546512e+01   2.986631e+00
  -4.432764e+01   6.181221e+01
  -1.537652e+02   2.243793e+01
  -1.554294e+02  -9.048858e+01
  -4.339988e+01  -1.619600e+02
   8.295824e+01  -1.163661e+02
   1.123985e+02  -1.158866e+01
   4.129849e+01   3.555843e+01
  -3.457776e+01  -1.542055e+01
  -2.168787e+01  -9.265751e+01
   8.217041e+01  -9.900925e+01
   1.800440e+02  -7.821768e+00
   1.518623e+02   1.203565e+02
   1.407027e+00   1.786779e+02
  -1.391237e+02   1.216778e+02
  -1.523821e+02  -2.179190e+00
  -4.184707e+01  -8.947262e+01
   6.210474e+01  -8.266976e+01
   6.581518e+01  -1.834322e+01
   2.306014e+00   2.190529e+01
  -2.919222e+01   7.551922e+00
   1.072562e+01  -1.695342e+01
   7.440357e+01   5.404048e+00
   8.370886e+01   8.053420e+01
   1.985068e+00   1.487055e+02
  -1.291257e+02   1.250353e+02
  -2.070221e+02  -7.934427e-01
  -1.605034e+02  -1.468821e+02
  -2.174585e+01  -1.991478e+02
   9.649663e+01  -1.292219e+02
   1.115940e+02  -1.596411e+01
   5.569572e+01   4.260783e+01
   2.246921e+01   2.117653e+01
   4.909000e+01  -1.764881e+01
   7.608489e+01  -4.793464e+00
   4.542385e+01   5.027440e+01
  -3.893562e+01   8.448295e+01
  -1.050095e+02   4.895200e+01
  -8.580251e+01  -4.222481e+01
   2.175328e+01  -1.084893e+02
   1.446908e+02  -6.727362e+01
   1.743887e+02   6.326974e+01
   6.395402e+01   1.843552e+02
  -1.174827e+02   1.832210e+02
  -2.324317e+02   5.149999e+01
  -1.973454e+02  -9.406410e+01
  -6.956537e+01  -1.455400e+02
   4.540848e+01  -1.074454e+02
   7.653749e+01  -5.257497e+01
   5.644779e+01  -5.380215e+01
   4.914739e+01  -7.941251e+01
   7.848118e+01  -6.525885e+01
   1.118957e+02   2.176232e+01
   9.309736e+01   1.410409e+02
   9.780153e+00   2.005945e+02
  -9.758969e+01   1.406993e+02
  -1.473058e+02   1.427727e+00
  -1.017713e+02  -1.141493e+02
  -2.052014e+00  -1.333533e+02
   6.349227e+01  -6.653722e+01
   4.926729e+01   1.350583e+01
  -5.268346e+00   4.237927e+01
  -2.224818e+01   2.416054e+01
   2.499181e+01   9.578049e+00
   6.987848e+01   1.849947e+01
   4.200012e+01   3.746058e+01
  -5.995290e+01   3.355145e+01
  -1.447492e+02  -6.220028e+00
  -1.218543e+02  -5.607747e+01
  -1.180189e+00  -8.167150e+01
   1.128763e+02  -5.779474e+01
   1.247160e+02  -1.785734e+00
   3.880621e+01   4.347301e+01
  -5.285639e+01   3.454593e+01
  -6.526875e+01  -1.831358e+01
  -1.251458e+01  -6.274641e+01
   4.340549e+01  -5.357454e+01
   5.860441e+01   8.184595e-01
   4.889252e+01   4.574844e+01
   4.113005e+01   4.034142e+01
   5.031149e+01   5.619400e+00
   5.744685e+01   3.315287e+00
   3.488338e+01   6.295532e+01
  -2.763047e+01   1.278903e+02
  -1.143649e+02   1.184667e+02
  -1.556993e+02   2.090563e+01
  -1.073325e+02  -8.466581e+01
   3.414425e+00  -1.099387e+02
   8.050602e+01  -5.429667e+01
   5.425839e+01   7.105336e+00
  -5.107166e+01   1.142143e+01
  -1.170293e+02  -4.216990e+01
  -6.211051e+01  -9.686301e+01
   7.776377e+01  -8.677926e+01
   1.695605e+02  -2.966280e+01
   1.323455e+02   4.504091e+01
   1.945879e+01   7.602051e+01
  -6.209026e+01   5.093374e+01
  -4.386353e+01  -3.814042e+00
   3.443683e+01  -2.602095e+01
   7.811887e+01   1.859456e+01
   2.921416e+01   9.786448e+01
  -7.524469e+01   1.316232e+02
  -1.379088e+02   5.479645e+01
  -1.044160e+02  -8.329046e+01
  -5.631651e+00  -1.660005e+02
   7.936599e+01  -1.199020e+02
   9.152041e+01   1.062861e+01
   4.515394e+01   1.053493e+02
  -1.259962e+01   8.959732e+01
  -4.405062e+01   1.274325e+01
  -3.682159e+01  -2.777340e+01
  -1.479453e+01  -6.199438e+00
  -6.671776e+00   1.755913e+01
  -2.432391e+01  -1.922241e+01
  -4.515855e+01  -7.960218e+01
  -2.335766e+01  -9.366837e+01
   4.785499e+01  -3.671761e+01
   1.162930e+02   3.843166e+01
   1.062253e+02   6.429165e+01
   1.432624e+01   4.781512e+01
  -7.181545e+01   1.852476e+01
  -7.484858e+01   1.913250e+00
  -1.393826e+01  -8.264426e+00
   2.926987e+01  -1.768696e+01
   1.722835e+01  -1.345363e+01
  -1.221627e+01  -1.273980e+00
   1.677563e+00   4.976209e+00
   5.779222e+01   3.309336e+00
   7.947431e+01   2.235093e+01
   1.637543e+01   6.790349e+01
  -9.158707e+01   9.197716e+01
  -1.572350e+02   4.669298e+01
  -1.219397e+02  -5.475363e+01
  -2.022162e+01  -1.326142e+02
   7.013463e+01  -1.242025e+02
   9.489907e+01  -4.965168e+01
   6.338455e+01   1.721283e+01
   2.094407e+01   3.146146e+01
   2.228488e+00   9.421565e+00
   1.152017e+01   7.285474e+00
   2.143373e+01   4.101799e+01
   1.073102e+01   7.547609e+01
  -2.740462e+01   5.839913e+01
  -6.627318e+01  -1.570258e+01
  -6.344591e+01  -9.009529e+01
  -6.831239e+00  -9.277772e+01
   6.527109e+01  -2.334300e+01
   8.670111e+01   5.931903e+01
   2.936835e+01   8.682024e+01
  -5.485966e+01   5.069255e+01
  -8.493087e+01  -8.909086e+00
  -3.555625e+01  -4.743992e+01
   2.975905e+01  -4.815506e+01
   3.245470e+01  -2.251266e+01
  -2.329777e+01   2.340251e+00
  -5.470081e+01   4.637768e+00
  -1.231242e+01  -2.221292e+01
   7.055774e+01  -5.053764e+01
   1.019174e+02  -3.833163e+01
   5.563792e+01   1.613856e+01
  -1.445160e+01   7.071099e+01
  -5.001873e+01   6.605376e+01
  -3.641422e+01   8.937411e+00
  -4.816043e+00  -4.427678e+01
   2.091356e+01  -4.038111e+01
   3.167250e+01   9.964700e+00
   2.508001e+01   4.716067e+01
  -1.728448e+00   3.557572e+01
  -2.891414e+01  -5.048473e+00
  -3.610013e+01  -2.294399e+01
  -1.751106e+01  -4.304625e+00
   3.093315e+00   1.678945e+01
   7.288473e+00   5.398663e+00
  -4.673561e-01  -2.987295e+01
   3.642420e+00  -4.620037e+01
   2.565716e+01  -1.782511e+01
   3.404982e+01   3.342255e+01
   9.253960e+00   5.125151e+01
  -3.521626e+01   1.976620e+01
  -5.156505e+01  -2.964631e+01
  -1.419524e+01  -5.138239e+01
   4.899500e+01  -2.904791e+01
   7.735948e+01   1.177904e+01
   3.952443e+01   3.714363e+01
  -2.678121e+01   3.573708e+01
  -5.594071e+01   1.915925e+01
  -2.348414e+01   4.193386e+00
   2.463051e+01  -2.026570e+00
   2.861305e+01   5.956858e+00
  -1.954031e+01   1.950972e+01
  -6.572115e+01   1.512447e+01
