
 $NMID
 id='ANONYMOUS ', fmtdat='(2E16.6)'
 volume=1.0
 tramp=1.0
 $END
  -4.419984e+03   1.893374e+02
  -2.711135e+03  -2.666811e+03
   7.751632e+02  -2.917658e+03
   2.316725e+03  -9.219175e+02
   1.002831e+03   7.539606e+02
  -7.887312e+02   6.495589e+02
  -1.011381e+03  -4.910708e+02
   2.035593e+01  -1.208401e+03
   9.276113e+02  -8.597264e+02
   1.047119e+03   1.204337e+02
   4.851978e+02   9.548308e+02
  -2.806515e+02   9.863627e+02
  -7.103938e+02   1.277442e+02
  -4.275565e+02  -7.864996e+02
   2.705870e+02  -8.347853e+02
   6.536686e+02   6.519213e+00
   3.083217e+02   7.426093e+02
  -3.478614e+02   6.896442e+02
  -6.266641e+02   9.585568e+01
  -4.121946e+02  -3.799064e+02
  -1.076147e+01  -4.663535e+02
   2.605399e+02  -2.758601e+02
   2.447276e+02  -5.606988e+00
  -9.658205e+01   9.596196e+01
  -4.351898e+02  -9.347516e+01
  -2.353819e+02  -4.600527e+02
   4.638676e+02  -4.610933e+02
   9.012521e+02   4.074823e+01
   4.851725e+02   5.821945e+02
  -3.858967e+02   5.609508e+02
  -8.017062e+02  -4.366253e-02
  -3.967464e+02  -5.154943e+02
   2.917904e+02  -5.806307e+02
   6.059461e+02  -2.407131e+02
   4.501130e+02   2.317648e+02
   8.593987e+01   5.058612e+02
  -2.217019e+02   3.123807e+02
  -2.125163e+02  -2.222450e+02
   1.536331e+02  -4.728654e+02
   4.869938e+02  -1.664145e+01
   3.055386e+02   7.048076e+02
  -3.207469e+02   7.613179e+02
  -6.608020e+02   3.850064e+01
  -2.959618e+02  -5.935533e+02
   3.042329e+02  -3.765491e+02
   4.230316e+02   3.159970e+02
  -6.040237e+01   5.985217e+02
  -5.782551e+02   1.707623e+02
  -6.508543e+02  -4.088003e+02
  -1.911820e+02  -6.287699e+02
   3.956270e+02  -3.949551e+02
   6.798328e+02   6.850549e+01
   4.160125e+02   4.127761e+02
  -1.680555e+02   4.082722e+02
  -4.940156e+02   6.668702e+01
  -2.922187e+02  -2.194157e+02
   1.288511e+02  -1.335829e+02
   1.807267e+02   1.696631e+02
  -1.606072e+02   2.209594e+02
  -3.785028e+02  -6.048632e+01
  -1.581023e+02  -3.223127e+02
   2.148858e+02  -2.904523e+02
   3.558775e+02  -7.648906e+01
   2.057742e+02   1.073571e+02
  -3.841247e+01   2.394430e+02
  -2.320356e+02   3.398585e+02
  -3.270564e+02   2.339988e+02
  -3.012225e+02  -1.309584e+02
  -1.029534e+02  -4.635602e+02
   9.339010e+01  -4.092245e+02
   1.254475e+02  -1.288038e+02
   3.163832e+01   1.422930e+01
   3.761542e+01  -9.311703e+01
   1.892225e+02  -1.393475e+02
   2.930284e+02   3.886912e+01
   1.823330e+02   2.682088e+02
  -5.769430e+01   2.725492e+02
  -2.389362e+02   2.482067e+01
  -2.211203e+02  -2.434612e+02
  -3.376525e+00  -3.115227e+02
   2.794177e+02  -1.376543e+02
   3.918252e+02   1.619034e+02
   2.095394e+02   3.681492e+02
  -1.030379e+02   3.311936e+02
  -2.418798e+02   1.326272e+02
  -1.605716e+02   4.490526e+00
  -9.724167e+01   3.679260e+01
  -2.371258e+02   7.445690e+01
  -4.115804e+02  -4.977978e+01
  -3.491301e+02  -2.874399e+02
  -5.662579e+00  -4.559946e+02
   3.721299e+02  -4.342697e+02
   5.028277e+02  -2.187411e+02
   3.528485e+02   9.391808e+01
   6.610269e+01   3.168814e+02
  -1.328483e+02   2.773553e+02
  -9.173978e+01   3.240345e+01
   1.107475e+02  -1.274553e+02
   2.112003e+02  -8.763228e+00
   6.881666e+01   2.113083e+02
  -1.626387e+02   1.975753e+02
  -1.968992e+02  -5.947436e+01
   9.448230e+00  -2.098044e+02
   2.079433e+02  -4.144560e+01
   1.841000e+02   2.566676e+02
  -2.297441e+01   3.633210e+02
  -2.358025e+02   2.002567e+02
  -3.380214e+02  -5.959616e+01
  -2.858715e+02  -2.339880e+02
  -1.055641e+02  -2.613375e+02
   1.115617e+02  -1.690645e+02
   1.863118e+02  -2.617238e+01
   6.423939e+01   3.708819e+01
  -7.460899e+01  -3.155278e+01
  -3.990050e+01  -1.310942e+02
   1.226669e+02  -1.135906e+02
   1.896641e+02   1.197908e+00
   6.639094e+01   7.511669e+01
  -8.573489e+01   2.479883e+01
  -6.345383e+01  -7.356513e+01
   1.280696e+02  -1.015801e+02
   3.000519e+02  -1.808462e+01
   2.857505e+02   1.332015e+02
   7.621845e+01   2.669445e+02
  -1.830703e+02   2.903302e+02
  -2.905636e+02   1.478784e+02
  -1.811681e+02  -4.836086e+01
   2.008352e+01  -1.212613e+02
   9.672724e+01  -1.239121e+01
  -2.627454e+01   1.107648e+02
  -2.030411e+02   7.241228e+01
  -2.271967e+02  -1.025346e+02
  -8.174721e+01  -2.164854e+02
   9.374813e+01  -1.664762e+02
   1.516947e+02  -3.253127e+01
   7.798323e+01   4.412243e+01
  -2.579596e+01   7.343942e+00
  -3.932534e+01  -8.041864e+01
   6.746294e+01  -1.155056e+02
   1.963559e+02  -3.343743e+01
   2.001375e+02   1.218196e+02
   3.027777e+01   2.269317e+02
  -1.665074e+02   1.772963e+02
  -2.042340e+02   1.270759e+01
  -7.356547e+01  -1.190426e+02
   6.583252e+01  -1.190476e+02
   8.567592e+01  -3.596214e+01
   2.061237e+01   2.522249e+01
  -1.924463e+01   2.067206e+01
   1.020300e+01  -5.206783e+00
   7.250739e+01   1.185305e+01
   8.992449e+01   8.358637e+01
   1.764926e+01   1.606411e+02
  -1.261141e+02   1.601260e+02
  -2.416379e+02   3.386976e+01
  -2.153416e+02  -1.499879e+02
  -5.158109e+01  -2.491157e+02
   1.113057e+02  -1.824948e+02
   1.433635e+02  -3.055693e+01
   7.544472e+01   5.820101e+01
   2.897544e+01   3.669940e+01
   5.263624e+01  -1.288440e+01
   8.092327e+01  -8.071365e+00
   4.316172e+01   5.162950e+01
  -4.082583e+01   9.143822e+01
  -1.044615e+02   5.835148e+01
  -8.831429e+01  -3.338954e+01
   1.235778e+01  -1.125597e+02
   1.427117e+02  -9.064624e+01
   2.025603e+02   4.518446e+01
   1.066234e+02   2.029212e+02
  -1.007776e+02   2.416552e+02
  -2.713861e+02   1.124508e+02
  -2.679152e+02  -7.990347e+01
  -1.184205e+02  -1.804881e+02
   3.457072e+01  -1.501470e+02
   8.919314e+01  -8.988697e+01
   7.757574e+01  -7.559324e+01
   6.522839e+01  -9.574109e+01
   9.456457e+01  -7.880077e+01
   1.328322e+02   1.879734e+01
   1.257138e+02   1.548316e+02
   3.418531e+01   2.309006e+02
  -9.919197e+01   1.803417e+02
  -1.821328e+02   2.378436e+01
  -1.413044e+02  -1.257654e+02
  -2.283805e+01  -1.655364e+02
   6.768484e+01  -9.476002e+01
   5.926526e+01   6.367348e-01
   7.005858e+00   4.119048e+01
  -4.087800e+00   3.016084e+01
   3.898700e+01   1.723844e+01
   8.200169e+01   2.654024e+01
   4.490553e+01   4.033299e+01
  -6.514202e+01   3.873058e+01
  -1.636793e+02   7.756997e+00
  -1.515553e+02  -4.747239e+01
  -2.122895e+01  -9.061371e+01
   1.177652e+02  -8.239519e+01
   1.446534e+02  -1.992369e+01
   5.008702e+01   4.176677e+01
  -5.979553e+01   3.908887e+01
  -7.766839e+01  -1.775899e+01
  -8.381623e+00  -7.088389e+01
   5.483771e+01  -5.978392e+01
   6.330333e+01   2.187420e+00
   4.428370e+01   4.950704e+01
   4.697154e+01   3.821783e+01
   6.455305e+01  -1.298148e+00
   6.997431e+01   1.674955e-01
   3.943305e+01   7.184132e+01
  -3.024894e+01   1.520097e+02
  -1.157270e+02   1.465607e+02
  -1.678489e+02   3.936165e+01
  -1.297770e+02  -9.254012e+01
  -1.012613e+01  -1.318645e+02
   8.885496e+01  -6.470041e+01
   5.970947e+01   1.861783e+01
  -6.148511e+01   2.554577e+01
  -1.456568e+02  -4.174669e+01
  -7.635814e+01  -1.108447e+02
   7.872275e+01  -1.212392e+02
   1.921636e+02  -6.049545e+01
   1.694096e+02   2.809653e+01
   4.247400e+01   8.645080e+01
  -5.706188e+01   7.541554e+01
  -4.582475e+01   1.077443e+01
   4.051257e+01  -2.702406e+01
   9.192020e+01   2.178804e+01
   3.096738e+01   1.200425e+02
  -9.307115e+01   1.602910e+02
  -1.681327e+02   6.663796e+01
  -1.294686e+02  -1.015797e+02
  -1.039813e+01  -1.975550e+02
   8.205902e+01  -1.461651e+02
   1.042490e+02   4.874434e+00
   6.557874e+01   1.172294e+02
   1.984709e+00   1.059651e+02
  -4.493794e+01   2.034728e+01
  -5.463937e+01  -2.881329e+01
  -2.831228e+01  -5.895972e+00
  -3.771125e+00   1.989332e+01
  -1.947915e+01  -1.617051e+01
  -5.937279e+01  -8.901282e+01
  -4.668655e+01  -1.104878e+02
   4.909610e+01  -4.857195e+01
   1.421990e+02   3.708560e+01
   1.303850e+02   6.977573e+01
   1.457993e+01   5.145517e+01
  -9.045214e+01   2.409338e+01
  -8.754935e+01   6.718920e+00
  -8.434189e+00  -8.541307e+00
   4.006037e+01  -2.263002e+01
   1.353931e+01  -1.535190e+01
  -2.256530e+01   3.710199e+00
   5.497391e+00   8.625594e+00
   7.524546e+01   1.291080e+00
   9.010521e+01   2.251590e+01
   6.022579e+00   8.148210e+01
  -1.255430e+02   1.134629e+02
  -1.846633e+02   5.989252e+01
  -1.367071e+02  -6.579001e+01
  -2.332232e+01  -1.642139e+02
   7.751655e+01  -1.529952e+02
   1.121080e+02  -6.046151e+01
   8.176025e+01   2.109543e+01
   2.752511e+01   3.557643e+01
  -1.895782e+00   9.252689e+00
   8.775826e+00   4.229625e+00
   3.466672e+01   4.536432e+01
   2.403970e+01   9.175028e+01
  -2.731612e+01   7.422582e+01
  -8.364977e+01  -1.820752e+01
  -7.974268e+01  -1.094170e+02
  -4.699127e+00  -1.136611e+02
   8.521695e+01  -2.420622e+01
   1.073694e+02   7.682229e+01
   3.334787e+01   1.065527e+02
  -6.764225e+01   5.844985e+01
  -1.000693e+02  -1.078591e+01
  -3.981750e+01  -5.123859e+01
   3.217750e+01  -5.257923e+01
   2.849597e+01  -2.687960e+01
  -3.469288e+01   2.383254e+00
  -6.963165e+01   8.081094e+00
  -1.395421e+01  -2.641491e+01
   7.752076e+01  -6.876555e+01
   1.130229e+02  -6.169333e+01
   6.446415e+01   1.067604e+01
  -1.047950e+01   8.379289e+01
  -5.140089e+01   8.125788e+01
  -3.608180e+01   6.458801e+00
  -1.915598e+00  -5.653765e+01
   2.657894e+01  -4.334366e+01
   3.745264e+01   1.924936e+01
   2.650520e+01   5.384964e+01
  -3.135446e+00   3.188143e+01
  -3.166030e+01  -8.578511e+00
  -3.751155e+01  -1.931402e+01
  -2.109935e+01   1.125375e+00
  -1.282241e-02   1.508283e+01
   5.541917e+00  -3.579657e+00
   6.597458e+00  -3.833890e+01
   1.659388e+01  -4.539932e+01
   3.127335e+01  -4.229945e+00
   3.060689e+01   4.676021e+01
  -2.776369e+00   6.121188e+01
  -4.445165e+01   2.019071e+01
  -5.695690e+01  -4.141254e+01
  -1.443068e+01  -6.410606e+01
   5.565022e+01  -3.466949e+01
   9.209699e+01   1.512179e+01
   5.065288e+01   4.418102e+01
  -2.996604e+01   4.359572e+01
  -6.678926e+01   2.481670e+01
  -2.408450e+01   5.758791e+00
   4.040959e+01   1.497315e-02
   4.061774e+01   1.497963e+01
  -3.089969e+01   3.486955e+01
  -9.490149e+01   2.538979e+01
