
 $NMID
 id='ANONYMOUS ', fmtdat='(2E16.6)'
 volume=1.0
 tramp=1.0
 $END
  -4.031450e+03  -1.136315e+02
  -2.352117e+03  -2.633279e+03
   8.109274e+02  -2.595565e+03
   2.023925e+03  -8.010745e+02
   8.537603e+02   6.238367e+02
  -6.540882e+02   5.321536e+02
  -8.511472e+02  -4.471137e+02
   4.457220e+01  -1.010119e+03
   8.320313e+02  -7.303888e+02
   9.055736e+02   1.160479e+02
   4.321612e+02   8.519155e+02
  -2.570018e+02   8.817297e+02
  -6.459076e+02   1.082705e+02
  -3.736060e+02  -7.205233e+02
   2.855205e+02  -7.406511e+02
   6.108832e+02   8.607015e+00
   2.458769e+02   6.775365e+02
  -3.411126e+02   6.153818e+02
  -5.717083e+02   6.176363e+01
  -3.438200e+02  -3.590068e+02
  -2.028497e-01  -4.128291e+02
   2.230217e+02  -2.308772e+02
   1.897157e+02  -1.916732e+01
  -1.085583e+02   8.107698e+01
  -3.827036e+02  -1.087836e+02
  -1.781425e+02  -4.012724e+02
   4.639779e+02  -3.838315e+02
   8.104842e+02   9.442788e+01
   4.009964e+02   5.259731e+02
  -3.999810e+02   4.476301e+02
  -7.115395e+02  -4.991910e+01
  -3.209222e+02  -4.655631e+02
   2.781755e+02  -4.813519e+02
   5.337756e+02  -1.679110e+02
   3.998406e+02   2.367901e+02
   5.743241e+01   4.477166e+02
  -2.057068e+02   2.608927e+02
  -1.578025e+02  -2.141203e+02
   1.737574e+02  -4.166826e+02
   4.386967e+02   4.047589e+01
   2.314507e+02   6.764773e+02
  -3.225200e+02   6.905111e+02
  -5.965824e+02  -4.639239e+00
  -2.481587e+02  -5.228248e+02
   2.930634e+02  -3.026301e+02
   3.814198e+02   3.069773e+02
  -6.278346e+01   5.116865e+02
  -5.235524e+02   1.383108e+02
  -5.465316e+02  -3.979040e+02
  -1.519100e+02  -5.661148e+02
   3.789464e+02  -3.141598e+02
   6.142466e+02   1.002874e+02
   3.575118e+02   3.924808e+02
  -1.576512e+02   3.716288e+02
  -4.384693e+02   4.643009e+01
  -2.447816e+02  -1.988494e+02
   1.072193e+02  -1.149482e+02
   1.434724e+02   1.337973e+02
  -1.576848e+02   1.712438e+02
  -3.297579e+02  -6.687460e+01
  -1.436893e+02  -2.839210e+02
   2.089775e+02  -2.467342e+02
   3.205992e+02  -6.750488e+01
   1.818449e+02   8.652956e+01
  -2.899485e+01   2.075916e+02
  -2.186472e+02   3.060717e+02
  -3.371451e+02   2.055203e+02
  -2.885040e+02  -1.349145e+02
  -7.979188e+01  -4.238610e+02
   1.171991e+02  -3.772702e+02
   1.334194e+02  -1.178419e+02
   3.198868e+01   1.647393e+01
   4.271126e+01  -7.513094e+01
   1.779085e+02  -1.250680e+02
   2.650483e+02   4.079011e+01
   1.517608e+02   2.506498e+02
  -6.453540e+01   2.479866e+02
  -2.096533e+02   1.645095e+01
  -1.859215e+02  -2.233500e+02
   8.070685e+00  -2.825257e+02
   2.502686e+02  -1.066221e+02
   3.396703e+02   1.709384e+02
   1.696155e+02   3.386253e+02
  -1.031208e+02   2.798703e+02
  -2.164038e+02   1.027189e+02
  -1.352997e+02   2.731777e+00
  -8.435380e+01   3.510454e+01
  -2.197290e+02   6.209403e+01
  -3.952920e+02  -6.343213e+01
  -3.198609e+02  -2.755873e+02
   4.953529e+00  -4.164974e+02
   3.397772e+02  -3.897897e+02
   4.671245e+02  -1.874696e+02
   3.156580e+02   9.417696e+01
   4.761845e+01   2.855470e+02
  -1.278893e+02   2.390452e+02
  -7.744644e+01   2.473121e+01
   1.053843e+02  -1.104154e+02
   1.866041e+02   5.300632e+00
   4.617291e+01   1.922916e+02
  -1.617302e+02   1.708980e+02
  -1.725057e+02  -5.724453e+01
   1.663503e+01  -1.864334e+02
   1.859719e+02  -3.388466e+01
   1.576564e+02   2.371915e+02
  -2.717676e+01   3.369600e+02
  -2.175204e+02   1.846194e+02
  -3.101103e+02  -6.310410e+01
  -2.647081e+02  -2.311661e+02
  -8.904181e+01  -2.579544e+02
   1.080698e+02  -1.494235e+02
   1.692313e+02  -1.706509e+01
   5.827560e+01   3.468819e+01
  -6.500075e+01  -3.704241e+01
  -2.703314e+01  -1.168353e+02
   1.164412e+02  -9.458675e+01
   1.668822e+02   1.216839e+01
   5.324276e+01   7.027350e+01
  -7.895590e+01   1.820682e+01
  -5.700445e+01  -7.156519e+01
   1.100816e+02  -8.633718e+01
   2.675320e+02  -3.566040e+00
   2.569162e+02   1.308904e+02
   5.853576e+01   2.423055e+02
  -1.742608e+02   2.468436e+02
  -2.706085e+02   1.186701e+02
  -1.606164e+02  -5.438141e+01
   2.240890e+01  -1.074150e+02
   8.799594e+01  -8.641848e+00
  -3.297866e+01   9.651669e+01
  -1.863898e+02   5.587559e+01
  -2.007846e+02  -1.000936e+02
  -5.848492e+01  -2.018190e+02
   9.932801e+01  -1.497167e+02
   1.435428e+02  -2.137556e+01
   6.592675e+01   4.527616e+01
  -2.601585e+01   5.922178e+00
  -3.645434e+01  -7.541905e+01
   6.645494e+01  -1.044660e+02
   1.849608e+02  -2.214502e+01
   1.785328e+02   1.195164e+02
   1.793794e+01   2.051145e+02
  -1.577592e+02   1.497373e+02
  -1.857507e+02   3.131810e+00
  -6.133204e+01  -1.100627e+02
   6.356907e+01  -1.054017e+02
   7.988625e+01  -2.963725e+01
   2.170330e+01   2.347377e+01
  -1.585947e+01   1.841855e+01
   8.890819e+00  -3.189007e+00
   6.129242e+01   1.045790e+01
   7.852443e+01   7.464582e+01
   1.196396e+01   1.437079e+02
  -1.197153e+02   1.403816e+02
  -2.196406e+02   1.988693e+01
  -1.894032e+02  -1.453081e+02
  -3.487176e+01  -2.247231e+02
   1.044819e+02  -1.580629e+02
   1.298897e+02  -2.284116e+01
   6.687309e+01   5.494941e+01
   2.661742e+01   3.702166e+01
   4.996904e+01  -9.680384e+00
   7.231485e+01  -4.998250e+00
   3.735041e+01   4.521841e+01
  -3.913303e+01   7.994838e+01
  -9.299818e+01   5.021152e+01
  -7.801466e+01  -3.274833e+01
   1.192361e+01  -1.000107e+02
   1.306063e+02  -8.058179e+01
   1.822978e+02   4.501824e+01
   9.504372e+01   1.869131e+02
  -9.845813e+01   2.181772e+02
  -2.516040e+02   9.151814e+01
  -2.467590e+02  -8.599556e+01
  -1.046711e+02  -1.728774e+02
   3.997487e+01  -1.409276e+02
   9.531812e+01  -7.677853e+01
   7.613673e+01  -6.463650e+01
   6.072406e+01  -8.317468e+01
   8.384010e+01  -6.709449e+01
   1.195237e+02   2.181185e+01
   1.103728e+02   1.445538e+02
   2.786021e+01   2.129213e+02
  -9.375124e+01   1.622722e+02
  -1.662860e+02   1.952587e+01
  -1.288368e+02  -1.159746e+02
  -1.822913e+01  -1.521906e+02
   6.243551e+01  -8.680208e+01
   5.708363e+01   6.740042e-01
   5.171758e+00   4.059204e+01
  -8.553495e+00   3.440211e+01
   3.577954e+01   1.709030e+01
   7.334864e+01   2.180553e+01
   3.944495e+01   3.692980e+01
  -5.901680e+01   3.196791e+01
  -1.457395e+02  -1.543185e+00
  -1.313444e+02  -4.969519e+01
  -1.729225e+01  -8.137010e+01
   1.101165e+02  -6.666933e+01
   1.375854e+02  -1.435244e+01
   4.980012e+01   3.761997e+01
  -5.471983e+01   3.460337e+01
  -7.230322e+01  -1.957152e+01
  -7.947940e+00  -6.376601e+01
   5.332676e+01  -5.171327e+01
   6.030646e+01   4.138426e+00
   4.242927e+01   4.739581e+01
   4.168959e+01   4.092306e+01
   5.766406e+01   6.817472e+00
   6.060482e+01   5.073765e+00
   2.906348e+01   6.391978e+01
  -3.266391e+01   1.358574e+02
  -1.100113e+02   1.291212e+02
  -1.540891e+02   2.998865e+01
  -1.125408e+02  -8.837018e+01
  -2.864155e+00  -1.189679e+02
   7.984254e+01  -5.503425e+01
   5.615650e+01   1.584529e+01
  -5.591329e+01   1.892106e+01
  -1.258479e+02  -4.033661e+01
  -7.560387e+01  -1.014678e+02
   7.414386e+01  -1.002438e+02
   1.789366e+02  -3.999645e+01
   1.507269e+02   4.189673e+01
   3.274989e+01   8.403771e+01
  -6.287304e+01   6.517574e+01
  -5.149683e+01   4.651261e+00
   3.582622e+01  -2.528635e+01
   8.477952e+01   2.244728e+01
   3.048940e+01   1.144270e+02
  -8.865682e+01   1.420899e+02
  -1.611998e+02   5.519335e+01
  -1.181052e+02  -9.527109e+01
  -5.699805e+00  -1.874204e+02
   8.348268e+01  -1.327134e+02
   9.620035e+01   7.473964e+00
   5.038004e+01   1.096385e+02
  -6.853760e+00   9.636126e+01
  -4.165244e+01   1.744539e+01
  -4.567781e+01  -3.008328e+01
  -2.466285e+01  -8.127958e+00
  -3.708357e+00   1.901242e+01
  -1.612060e+01  -1.603961e+01
  -4.671632e+01  -8.314760e+01
  -3.586989e+01  -1.036109e+02
   4.538192e+01  -4.130729e+01
   1.260359e+02   4.024537e+01
   1.179891e+02   7.242982e+01
   1.365840e+01   4.877331e+01
  -8.462602e+01   1.994443e+01
  -8.504489e+01   6.131391e+00
  -1.291198e+01  -4.615366e+00
   3.518285e+01  -2.075113e+01
   1.434677e+01  -1.835998e+01
  -1.871280e+01  -9.799444e-01
   4.678934e+00   8.571085e+00
   6.877889e+01   6.983969e+00
   8.671355e+01   2.591435e+01
   6.834059e+00   7.869199e+01
  -1.172508e+02   1.055479e+02
  -1.803039e+02   4.852153e+01
  -1.326514e+02  -6.872184e+01
  -1.772527e+01  -1.544255e+02
   8.043020e+01  -1.382220e+02
   1.098286e+02  -5.279253e+01
   7.495755e+01   2.369217e+01
   2.334674e+01   3.658625e+01
  -2.818359e+00   8.935159e+00
   9.978067e+00   2.506194e+00
   3.039005e+01   4.391495e+01
   1.959556e+01   8.623987e+01
  -2.830714e+01   6.677587e+01
  -7.458200e+01  -2.010825e+01
  -6.905854e+01  -1.039181e+02
  -1.020789e+00  -1.027374e+02
   7.699020e+01  -1.876510e+01
   9.408478e+01   7.091956e+01
   2.743511e+01   9.436558e+01
  -6.258445e+01   4.970498e+01
  -8.914877e+01  -1.109368e+01
  -3.454223e+01  -4.570258e+01
   2.950188e+01  -4.644418e+01
   2.793997e+01  -2.487136e+01
  -3.268956e+01  -1.862058e+00
  -6.453779e+01   2.661957e+00
  -1.404147e+01  -2.515942e+01
   7.404848e+01  -6.042972e+01
   1.088422e+02  -5.154792e+01
   6.005305e+01   1.201352e+01
  -1.698923e+01   7.573008e+01
  -5.185418e+01   7.061141e+01
  -3.404295e+01   2.781774e+00
   1.592589e+00  -5.082271e+01
   2.463274e+01  -3.816293e+01
   3.175100e+01   1.706882e+01
   2.238293e+01   4.871332e+01
  -1.734906e+00   2.957837e+01
  -2.857471e+01  -8.649531e+00
  -3.680117e+01  -1.997888e+01
  -2.176663e+01   2.099664e-01
  -1.020281e+00   1.365203e+01
   7.800632e+00  -2.787015e+00
   7.308302e+00  -3.616344e+01
   1.643712e+01  -4.333352e+01
   3.157862e+01  -8.708378e+00
   2.879565e+01   4.343162e+01
   1.338551e-01   5.720154e+01
  -4.053768e+01   1.845214e+01
  -5.171298e+01  -3.677551e+01
  -1.242283e+01  -5.655166e+01
   5.115592e+01  -2.696970e+01
   8.171815e+01   1.712411e+01
   4.408165e+01   3.973990e+01
  -2.833093e+01   3.589405e+01
  -6.125621e+01   1.813697e+01
  -2.254913e+01   4.183822e+00
   3.427063e+01   2.939104e+00
   3.608371e+01   1.466944e+01
  -2.891596e+01   2.879831e+01
  -8.583098e+01   1.724578e+01
