
 $NMID
 id='ANONYMOUS ', fmtdat='(2E16.6)'
 volume=1.0
 tramp=1.0
 $END
   4.145032e+03  -1.426964e+02
   2.588822e+03   2.390026e+03
  -5.057138e+02   2.519684e+03
  -1.800772e+03   9.217089e+02
  -8.556058e+02  -3.619730e+02
   4.977928e+02  -3.598347e+02
   6.615085e+02   3.642037e+02
  -5.840133e+01   8.679251e+02
  -7.140751e+02   6.693642e+02
  -8.102403e+02  -4.753614e+01
  -4.018396e+02  -7.105704e+02
   1.607990e+02  -7.581955e+02
   4.948361e+02  -1.313409e+02
   3.027147e+02   5.985479e+02
  -2.211942e+02   6.354805e+02
  -5.361526e+02   6.832150e+00
  -2.522941e+02  -6.025324e+02
   2.525006e+02  -5.975132e+02
   5.258643e+02  -1.279911e+02
   3.782406e+02   2.860288e+02
   4.090647e+01   3.965913e+02
  -2.074388e+02   2.195846e+02
  -1.486014e+02   1.426150e+00
   1.503132e+02  -2.386382e+01
   3.586592e+02   2.002844e+02
   1.085999e+02   4.321327e+02
  -4.870555e+02   3.269638e+02
  -7.575277e+02  -1.408466e+02
  -3.203299e+02  -5.115019e+02
   3.973198e+02  -3.762665e+02
   6.514873e+02   9.978619e+01
   2.708457e+02   4.551904e+02
  -2.933163e+02   4.446634e+02
  -5.451963e+02   1.688992e+02
  -3.791828e+02  -2.033546e+02
  -5.066414e+01  -3.972444e+02
   1.610967e+02  -2.287737e+02
   9.795697e+01   1.825384e+02
  -1.814404e+02   3.427739e+02
  -3.834232e+02  -7.437429e+01
  -1.731233e+02  -6.105045e+02
   2.870970e+02  -5.899920e+02
   4.874923e+02   1.752263e+01
   1.752703e+02   4.682916e+02
  -2.530052e+02   2.520097e+02
  -2.900806e+02  -3.142498e+02
   9.685110e+01  -4.901330e+02
   5.149239e+02  -9.772659e+01
   5.331170e+02   3.893725e+02
   1.431546e+02   5.310905e+02
  -3.450065e+02   2.974688e+02
  -5.620162e+02  -5.184544e+01
  -3.361183e+02  -3.139807e+02
   1.284549e+02  -2.868409e+02
   3.712434e+02  -7.276028e+01
   2.203107e+02   1.270260e+02
  -7.455896e+01   6.547744e+01
  -9.754100e+01  -1.074831e+02
   1.536098e+02  -1.358166e+02
   2.985602e+02   6.346524e+01
   1.241226e+02   2.563637e+02
  -1.826482e+02   2.433873e+02
  -3.137438e+02   9.164075e+01
  -2.089232e+02  -8.301010e+01
   1.330848e+01  -2.306777e+02
   2.125510e+02  -3.349973e+02
   3.319384e+02  -2.147260e+02
   2.779996e+02   1.323294e+02
   8.464326e+01   4.014032e+02
  -8.613590e+01   3.611276e+02
  -9.163582e+01   1.255814e+02
  -3.749447e+01   2.424985e+01
  -7.643245e+01   9.167077e+01
  -2.051282e+02   9.342501e+01
  -2.518108e+02  -6.651597e+01
  -1.294598e+02  -2.553010e+02
   7.773014e+01  -2.306020e+02
   2.091950e+02   7.688690e+00
   1.709427e+02   2.398343e+02
  -2.841721e+01   2.703839e+02
  -2.581282e+02   9.398822e+01
  -3.410520e+02  -1.653893e+02
  -1.743977e+02  -3.154004e+02
   8.676882e+01  -2.786847e+02
   1.985884e+02  -1.300668e+02
   1.397728e+02  -3.991471e+01
   1.049227e+02  -5.476265e+01
   2.360110e+02  -6.490139e+01
   3.984337e+02   5.262334e+01
   3.314306e+02   2.666312e+02
   4.329033e+00   4.232968e+02
  -3.419914e+02   4.120352e+02
  -4.699143e+02   2.033062e+02
  -3.125357e+02  -9.029538e+01
  -4.521191e+01  -2.706470e+02
   1.106470e+02  -2.233209e+02
   5.124979e+01  -2.016783e+01
  -1.158906e+02   9.023278e+01
  -1.747542e+02  -1.658903e+01
  -4.055207e+01  -1.758664e+02
   1.392591e+02  -1.507771e+02
   1.498300e+02   5.874254e+01
  -2.120578e+01   1.720781e+02
  -1.821464e+02   2.638483e+01
  -1.660491e+02  -2.289344e+02
   1.304324e+01  -3.393881e+02
   2.167647e+02  -1.977145e+02
   3.246059e+02   4.910902e+01
   2.738151e+02   2.273514e+02
   9.366432e+01   2.553055e+02
  -1.113636e+02   1.509099e+02
  -1.659935e+02   1.927561e+01
  -4.800319e+01  -2.473137e+01
   6.584181e+01   4.578378e+01
   1.892597e+01   1.223731e+02
  -1.248046e+02   9.178870e+01
  -1.672923e+02  -1.399446e+01
  -4.654631e+01  -6.739053e+01
   8.311141e+01  -9.894645e+00
   5.265631e+01   7.926076e+01
  -1.274453e+02   9.420972e+01
  -2.823831e+02   1.688912e+00
  -2.615214e+02  -1.410886e+02
  -5.364808e+01  -2.546038e+02
   1.834767e+02  -2.496938e+02
   2.687304e+02  -1.154767e+02
   1.501506e+02   5.176018e+01
  -2.476078e+01   9.590285e+01
  -7.571404e+01  -1.380087e+00
   4.433784e+01  -9.723688e+01
   1.922458e+02  -5.317698e+01
   2.025611e+02   1.015011e+02
   6.409559e+01   2.035263e+02
  -9.461701e+01   1.519403e+02
  -1.385246e+02   2.400223e+01
  -6.236399e+01  -4.375913e+01
   3.331715e+01   8.070415e-01
   3.647558e+01   8.663107e+01
  -7.203406e+01   1.116716e+02
  -1.917163e+02   2.369218e+01
  -1.851189e+02  -1.215349e+02
  -2.133953e+01  -2.079722e+02
   1.553526e+02  -1.545408e+02
   1.817010e+02  -1.069558e+01
   6.182912e+01   1.041284e+02
  -6.401874e+01   1.051298e+02
  -7.770564e+01   2.996375e+01
  -1.200677e+01  -2.701448e+01
   2.865730e+01  -1.494117e+01
  -4.826143e+00   1.684685e+01
  -7.359048e+01   1.408803e+00
  -9.316302e+01  -7.758071e+01
  -1.729784e+01  -1.579204e+02
   1.233949e+02  -1.515510e+02
   2.234659e+02  -2.491869e+01
   1.904820e+02   1.443318e+02
   4.062179e+01   2.244039e+02
  -9.628762e+01   1.571900e+02
  -1.267520e+02   2.708955e+01
  -7.085572e+01  -4.847699e+01
  -3.006454e+01  -3.363872e+01
  -4.913171e+01   1.098419e+01
  -7.442831e+01   5.554653e+00
  -4.381007e+01  -4.902238e+01
   3.518994e+01  -8.936390e+01
   1.009683e+02  -6.026216e+01
   8.912513e+01   3.215760e+01
  -8.633933e+00   1.104984e+02
  -1.381275e+02   8.522936e+01
  -1.897499e+02  -4.828918e+01
  -9.461090e+01  -1.919478e+02
   1.026527e+02  -2.218251e+02
   2.548444e+02  -9.589971e+01
   2.448694e+02   7.553463e+01
   1.063103e+02   1.618787e+02
  -3.184614e+01   1.378127e+02
  -8.489804e+01   8.165779e+01
  -6.954209e+01   6.800558e+01
  -6.127328e+01   8.543668e+01
  -8.661469e+01   7.222868e+01
  -1.214123e+02  -1.562444e+01
  -1.156643e+02  -1.413954e+02
  -3.006438e+01  -2.113131e+02
   9.220579e+01  -1.654312e+02
   1.669255e+02  -2.126335e+01
   1.310428e+02   1.157085e+02
   1.827484e+01   1.520983e+02
  -6.518301e+01   8.567303e+01
  -6.114998e+01  -3.824742e+00
  -4.009425e+00  -4.489354e+01
   1.498640e+01  -3.636517e+01
  -3.162077e+01  -1.571846e+01
  -7.720956e+01  -1.638901e+01
  -4.568555e+01  -3.646169e+01
   6.139222e+01  -3.727556e+01
   1.547349e+02  -3.971792e+00
   1.390888e+02   5.128047e+01
   1.180370e+01   8.932964e+01
  -1.194684e+02   7.413461e+01
  -1.400039e+02   1.373272e+01
  -4.819955e+01  -4.069804e+01
   5.633281e+01  -3.730215e+01
   7.107213e+01   1.634810e+01
   1.188539e+01   6.545997e+01
  -4.932309e+01   5.534500e+01
  -6.213958e+01  -1.767046e+00
  -4.977043e+01  -4.660752e+01
  -4.200266e+01  -3.932549e+01
  -5.205766e+01   1.087130e+00
  -6.112956e+01   1.419592e+00
  -3.954206e+01  -6.585129e+01
   2.476324e+01  -1.414204e+02
   1.110612e+02  -1.398928e+02
   1.623021e+02  -3.674101e+01
   1.217457e+02   8.744080e+01
   6.239056e+00   1.233499e+02
  -8.129031e+01   6.047947e+01
  -5.459509e+01  -1.372919e+01
   6.301940e+01  -2.018437e+01
   1.340654e+02   4.076911e+01
   7.465988e+01   1.043813e+02
  -7.492852e+01   1.096248e+02
  -1.803690e+02   5.539296e+01
  -1.539716e+02  -2.487439e+01
  -3.659272e+01  -7.967212e+01
   5.797198e+01  -6.775106e+01
   4.675120e+01  -6.584479e+00
  -3.622925e+01   2.741645e+01
  -8.705959e+01  -2.063202e+01
  -3.517118e+01  -1.090813e+02
   7.881121e+01  -1.478694e+02
   1.523107e+02  -6.177766e+01
   1.209403e+02   9.113318e+01
   1.720401e+01   1.816781e+02
  -7.571420e+01   1.363385e+02
  -1.000293e+02  -7.150110e+00
  -5.712645e+01  -1.133500e+02
   3.383443e+00  -9.824831e+01
   4.714399e+01  -1.755833e+01
   4.610397e+01   2.841694e+01
   1.863465e+01   6.898524e+00
   2.524906e+00  -1.878155e+01
   2.546119e+01   1.546381e+01
   5.935477e+01   8.396939e+01
   4.313583e+01   1.029990e+02
  -4.932446e+01   4.326265e+01
  -1.325219e+02  -3.209871e+01
  -1.194514e+02  -6.791234e+01
  -1.366085e+01  -4.987661e+01
   8.338662e+01  -2.505878e+01
   8.420131e+01  -1.050767e+01
   1.355748e+01   7.510027e+00
  -3.600513e+01   2.262131e+01
  -1.622660e+01   1.663287e+01
   1.890683e+01  -1.684185e+00
  -3.140724e+00  -7.784276e+00
  -6.917067e+01  -1.289561e+00
  -9.009448e+01  -1.975725e+01
  -1.493297e+01  -7.762484e+01
   1.081418e+02  -1.164187e+02
   1.784310e+02  -6.543314e+01
   1.395035e+02   5.725419e+01
   2.845396e+01   1.535526e+02
  -7.330104e+01   1.464286e+02
  -1.092167e+02   5.609287e+01
  -7.544895e+01  -2.405486e+01
  -2.370132e+01  -3.643098e+01
   2.072499e+00  -8.347517e+00
  -1.048975e+01  -3.369859e+00
  -3.196450e+01  -4.410772e+01
  -2.215555e+01  -8.591861e+01
   2.680287e+01  -6.831947e+01
   7.833642e+01   1.673582e+01
   7.835764e+01   1.011649e+02
   9.561591e+00   1.060601e+02
  -7.638195e+01   2.589799e+01
  -1.004151e+02  -6.608983e+01
  -3.566662e+01  -9.504524e+01
   5.957071e+01  -5.546542e+01
   9.295824e+01   7.032875e+00
   4.048942e+01   4.624103e+01
  -2.666052e+01   4.996166e+01
  -2.849765e+01   2.747082e+01
   3.046738e+01  -2.820200e-01
   6.559134e+01  -4.458824e+00
   1.850494e+01   2.596140e+01
  -7.325443e+01   6.611038e+01
  -1.124827e+02   5.968895e+01
  -6.568562e+01  -1.110917e+01
   1.222794e+01  -7.949902e+01
   4.841796e+01  -7.699695e+01
   3.599242e+01  -7.384353e+00
   2.610182e+00   5.111877e+01
  -2.164909e+01   4.120368e+01
  -3.233805e+01  -1.367763e+01
  -2.740398e+01  -4.852378e+01
  -1.649787e+00  -3.219278e+01
   2.966948e+01   5.691911e+00
   4.018634e+01   1.937859e+01
   1.997423e+01   6.779416e-01
  -2.798071e+00  -1.648885e+01
  -8.171338e+00  -1.220531e+00
  -2.792913e+00   3.342403e+01
  -1.015404e+01   4.440157e+01
  -2.884639e+01   1.311209e+01
  -3.091606e+01  -3.812053e+01
  -4.288178e+00  -5.656569e+01
   3.900621e+01  -2.043830e+01
   5.449494e+01   3.322080e+01
   1.692724e+01   5.595317e+01
  -5.137268e+01   3.154420e+01
  -8.561048e+01  -1.148042e+01
  -4.779204e+01  -3.876868e+01
   2.701584e+01  -3.989647e+01
   6.143458e+01  -2.313088e+01
   2.297893e+01  -5.230748e+00
  -3.450753e+01  -1.112045e+00
  -3.407502e+01  -1.314056e+01
   2.725635e+01  -2.629310e+01
   8.008031e+01  -1.555200e+01
