
 $NMID
 id='ANONYMOUS ', fmtdat='(2E16.6)'
 volume=1.0
 tramp=1.0
 $END
  -4.904474e+03  -2.148930e+02
  -2.730309e+03  -3.140886e+03
   9.972409e+02  -3.030461e+03
   2.439119e+03  -7.941652e+02
   9.642455e+02   9.001917e+02
  -8.742219e+02   6.986353e+02
  -1.045440e+03  -5.580580e+02
   9.149012e+01  -1.247781e+03
   1.007060e+03  -8.243643e+02
   1.074860e+03   1.978279e+02
   4.485730e+02   1.040133e+03
  -3.482374e+02   1.006468e+03
  -7.700034e+02   7.610475e+01
  -4.342713e+02  -8.520522e+02
   3.348508e+02  -8.374464e+02
   6.853158e+02   6.983164e+01
   2.596588e+02   7.954424e+02
  -4.261962e+02   6.614525e+02
  -6.541923e+02   2.995857e+01
  -3.925183e+02  -4.321745e+02
   2.188983e+01  -4.908188e+02
   3.007514e+02  -2.864903e+02
   2.683816e+02   1.010046e+01
  -1.308377e+02   1.503809e+02
  -5.007587e+02  -9.016564e+01
  -2.599335e+02  -5.113154e+02
   5.104980e+02  -5.435822e+02
   9.979230e+02   3.718715e+01
   4.995695e+02   6.638773e+02
  -4.525366e+02   6.014898e+02
  -8.629163e+02  -3.717219e+01
  -3.757397e+02  -5.686291e+02
   3.344668e+02  -5.924072e+02
   6.314117e+02  -2.060762e+02
   4.470889e+02   2.807255e+02
   5.697128e+01   5.516301e+02
  -2.655006e+02   3.134388e+02
  -2.370167e+02  -2.671586e+02
   1.807128e+02  -5.213043e+02
   5.354669e+02  -1.082251e+01
   3.084513e+02   7.626777e+02
  -3.703405e+02   8.073454e+02
  -7.086027e+02  -4.415295e+00
  -3.156841e+02  -6.507798e+02
   3.568253e+02  -3.689210e+02
   4.739691e+02   3.729843e+02
  -6.786995e+01   6.325727e+02
  -6.199348e+02   1.601354e+02
  -6.555063e+02  -4.491966e+02
  -1.597101e+02  -6.611834e+02
   4.371363e+02  -3.899856e+02
   7.031556e+02   9.336618e+01
   4.047296e+02   4.505947e+02
  -1.787707e+02   4.168382e+02
  -5.066325e+02   5.118158e+01
  -2.454825e+02  -2.390159e+02
   1.627775e+02  -1.275144e+02
   1.717719e+02   2.092722e+02
  -1.978259e+02   2.396209e+02
  -4.089128e+02  -8.710833e+01
  -1.479277e+02  -3.496676e+02
   2.457587e+02  -2.864937e+02
   3.609908e+02  -6.045542e+01
   1.815379e+02   1.044419e+02
  -5.142989e+01   2.389522e+02
  -2.390392e+02   3.273765e+02
  -3.387763e+02   2.236340e+02
  -3.018019e+02  -1.539722e+02
  -7.454731e+01  -4.770399e+02
   1.360491e+02  -4.094605e+02
   1.467710e+02  -1.050970e+02
   2.497544e+01   3.483180e+01
   2.834626e+01  -8.903172e+01
   2.033185e+02  -1.566421e+02
   3.102394e+02   5.180336e+01
   1.867755e+02   2.992113e+02
  -7.496083e+01   2.916074e+02
  -2.616962e+02   2.052163e+01
  -2.322341e+02  -2.621918e+02
   6.720089e+00  -3.306281e+02
   2.993815e+02  -1.344690e+02
   3.984467e+02   1.884500e+02
   1.952887e+02   3.988706e+02
  -1.268614e+02   3.339536e+02
  -2.628609e+02   1.105075e+02
  -1.556691e+02  -2.398135e+01
  -8.716312e+01   3.118535e+01
  -2.378197e+02   8.094359e+01
  -4.239130e+02  -5.191392e+01
  -3.509197e+02  -3.112114e+02
   1.179811e+01  -4.760717e+02
   3.836548e+02  -4.275136e+02
   5.043796e+02  -2.104243e+02
   3.533170e+02   1.041590e+02
   6.165546e+01   3.233549e+02
  -1.425998e+02   2.751234e+02
  -1.017229e+02   2.291550e+01
   1.075825e+02  -1.356533e+02
   2.199774e+02  -1.155912e+01
   6.871320e+01   2.182369e+02
  -1.751493e+02   1.955566e+02
  -2.102781e+02  -6.484665e+01
   1.221410e+01  -2.210706e+02
   2.175040e+02  -4.361002e+01
   1.754146e+02   2.695148e+02
  -4.705414e+01   3.752179e+02
  -2.521044e+02   1.969097e+02
  -3.443410e+02  -7.619855e+01
  -2.875947e+02  -2.557953e+02
  -9.662944e+01  -2.770023e+02
   1.243812e+02  -1.726611e+02
   1.994294e+02  -2.170728e+01
   6.677994e+01   3.845105e+01
  -8.201048e+01  -3.452521e+01
  -4.076486e+01  -1.355463e+02
   1.327880e+02  -1.131970e+02
   1.960131e+02   9.976283e+00
   6.790187e+01   8.525480e+01
  -8.856117e+01   3.092963e+01
  -6.233989e+01  -7.017421e+01
   1.284037e+02  -9.170800e+01
   2.900776e+02  -1.819048e+00
   2.691452e+02   1.440513e+02
   6.160238e+01   2.638204e+02
  -1.974771e+02   2.706411e+02
  -3.101098e+02   1.314289e+02
  -1.866121e+02  -6.408393e+01
   3.014249e+01  -1.284347e+02
   1.079205e+02  -7.542679e+00
  -2.680355e+01   1.202874e+02
  -2.135523e+02   7.322998e+01
  -2.359780e+02  -1.103948e+02
  -7.803016e+01  -2.284308e+02
   1.016514e+02  -1.756123e+02
   1.536854e+02  -3.139803e+01
   7.985985e+01   4.737869e+01
  -2.440531e+01   9.369004e+00
  -3.717344e+01  -8.024255e+01
   7.235198e+01  -1.170586e+02
   2.040351e+02  -3.429485e+01
   2.002631e+02   1.253220e+02
   2.154169e+01   2.345728e+02
  -1.789000e+02   1.789935e+02
  -2.120894e+02   4.086666e+00
  -7.284015e+01  -1.311178e+02
   7.068394e+01  -1.258084e+02
   9.088374e+01  -3.203295e+01
   2.559310e+01   2.797520e+01
  -1.905595e+01   2.211839e+01
   1.219611e+01  -4.146714e+00
   6.940775e+01   1.476870e+01
   8.703023e+01   8.305880e+01
   1.656632e+01   1.560999e+02
  -1.246626e+02   1.530461e+02
  -2.392925e+02   2.991399e+01
  -2.112360e+02  -1.514078e+02
  -4.188400e+01  -2.499938e+02
   1.212130e+02  -1.808366e+02
   1.457303e+02  -2.374690e+01
   7.235610e+01   6.804151e+01
   2.387934e+01   4.368214e+01
   4.820590e+01  -1.004987e+01
   7.687439e+01  -1.011686e+01
   3.835120e+01   4.702794e+01
  -4.272374e+01   8.705334e+01
  -9.859499e+01   5.254116e+01
  -8.226200e+01  -3.624341e+01
   1.323712e+01  -1.110144e+02
   1.438543e+02  -8.759923e+01
   2.039708e+02   5.364513e+01
   1.064568e+02   2.116676e+02
  -1.089909e+02   2.424349e+02
  -2.779734e+02   1.052110e+02
  -2.698776e+02  -9.204483e+01
  -1.156552e+02  -1.918641e+02
   4.345459e+01  -1.587571e+02
   1.033834e+02  -8.953397e+01
   8.986009e+01  -7.082297e+01
   7.654581e+01  -8.928243e+01
   9.851321e+01  -7.074486e+01
   1.310681e+02   2.802838e+01
   1.190418e+02   1.610594e+02
   2.947551e+01   2.356051e+02
  -1.029081e+02   1.805664e+02
  -1.857656e+02   2.236638e+01
  -1.445213e+02  -1.284003e+02
  -2.044091e+01  -1.672041e+02
   6.976488e+01  -9.705825e+01
   5.757435e+01  -3.644050e+00
   7.353444e+00   4.062838e+01
  -4.885327e+00   3.000475e+01
   4.221050e+01   1.885727e+01
   7.752403e+01   2.940453e+01
   4.088634e+01   4.036562e+01
  -6.423331e+01   3.558371e+01
  -1.544327e+02  -4.697257e-01
  -1.417371e+02  -5.283773e+01
  -1.449096e+01  -9.265983e+01
   1.293206e+02  -7.944199e+01
   1.543565e+02  -1.160420e+01
   4.967403e+01   4.768238e+01
  -6.562886e+01   4.122793e+01
  -7.863349e+01  -1.815601e+01
  -3.275114e+00  -7.056107e+01
   6.050169e+01  -5.626415e+01
   6.239154e+01   5.022532e+00
   3.789913e+01   5.389078e+01
   4.118552e+01   4.296574e+01
   6.159997e+01   1.041382e+00
   6.715055e+01  -2.440194e+00
   3.271319e+01   6.568495e+01
  -3.594671e+01   1.484519e+02
  -1.161984e+02   1.430027e+02
  -1.624975e+02   2.826215e+01
  -1.215760e+02  -9.718153e+01
  -4.363260e+00  -1.291603e+02
   8.816170e+01  -5.848572e+01
   6.028617e+01   2.336391e+01
  -5.864955e+01   2.463067e+01
  -1.411941e+02  -4.530194e+01
  -7.451556e+01  -1.124017e+02
   8.262966e+01  -1.165696e+02
   1.958965e+02  -5.449177e+01
   1.700112e+02   3.463620e+01
   4.080738e+01   9.047835e+01
  -6.042135e+01   7.427530e+01
  -5.034574e+01   1.131035e+01
   4.077114e+01  -2.540099e+01
   9.176662e+01   2.860279e+01
   2.892692e+01   1.257067e+02
  -1.077242e+02   1.565910e+02
  -1.813833e+02   5.795219e+01
  -1.301180e+02  -1.121575e+02
  -9.740109e+00  -2.080867e+02
   9.072235e+01  -1.528445e+02
   1.083084e+02   5.875374e+00
   6.721652e+01   1.216739e+02
   3.098440e+00   1.117389e+02
  -4.646367e+01   2.226169e+01
  -5.848442e+01  -3.273590e+01
  -2.941451e+01  -8.205459e+00
  -4.050293e+00   2.197370e+01
  -1.925318e+01  -1.678777e+01
  -5.431768e+01  -9.563677e+01
  -4.175799e+01  -1.158130e+02
   5.360308e+01  -4.485258e+01
   1.468729e+02   4.747061e+01
   1.362576e+02   8.092992e+01
   1.258651e+01   5.415547e+01
  -9.625751e+01   2.100131e+01
  -9.064712e+01   6.821702e+00
  -8.025783e+00  -8.342019e+00
   4.105322e+01  -2.482262e+01
   1.087835e+01  -1.928928e+01
  -2.531432e+01   2.268749e+00
   6.918090e+00   9.339689e+00
   8.114138e+01   5.481747e+00
   9.468850e+01   2.829083e+01
   1.320272e+00   8.598500e+01
  -1.323099e+02   1.169977e+02
  -1.994484e+02   5.462105e+01
  -1.445045e+02  -7.734145e+01
  -2.067256e+01  -1.739205e+02
   8.728933e+01  -1.579747e+02
   1.210456e+02  -5.776072e+01
   8.363229e+01   2.612903e+01
   2.330276e+01   3.935374e+01
  -6.006427e+00   9.230963e+00
   9.002220e+00   2.368946e+00
   3.356077e+01   4.593373e+01
   2.444054e+01   9.392300e+01
  -3.175304e+01   7.400076e+01
  -8.540712e+01  -2.202142e+01
  -7.861752e+01  -1.156407e+02
   1.844596e+00  -1.163554e+02
   8.900720e+01  -1.965063e+01
   1.066708e+02   8.420561e+01
   2.740236e+01   1.083571e+02
  -7.345991e+01   5.333741e+01
  -1.003580e+02  -1.737469e+01
  -3.584529e+01  -5.303114e+01
   3.653833e+01  -4.929268e+01
   3.137086e+01  -2.470574e+01
  -3.976635e+01   2.737924e-01
  -7.342536e+01   4.135963e+00
  -1.252758e+01  -2.703366e+01
   8.347484e+01  -6.537540e+01
   1.178055e+02  -5.766243e+01
   6.203402e+01   1.147815e+01
  -1.906134e+01   8.458296e+01
  -5.575998e+01   7.710236e+01
  -3.562108e+01   6.835159e-01
   2.263922e+00  -5.859636e+01
   3.008444e+01  -3.971349e+01
   3.757164e+01   2.402340e+01
   2.286007e+01   5.653624e+01
  -7.185110e+00   3.063329e+01
  -3.438357e+01  -1.218558e+01
  -3.737064e+01  -2.294266e+01
  -1.993203e+01  -1.628185e+00
  -6.226492e-01   1.335484e+01
   5.361071e+00  -6.667707e+00
   1.038263e+01  -4.068434e+01
   2.573649e+01  -4.541793e+01
   3.757964e+01   1.131824e+00
   2.773679e+01   5.369565e+01
  -1.197375e+01   6.397063e+01
  -4.983259e+01   1.640129e+01
  -5.467447e+01  -4.709841e+01
  -8.300497e+00  -6.630176e+01
   5.939586e+01  -3.297173e+01
   9.141253e+01   2.120666e+01
   4.701992e+01   4.814274e+01
  -3.241335e+01   4.074790e+01
  -6.776716e+01   1.862410e+01
  -2.296999e+01   2.441078e+00
   4.179372e+01   3.718519e+00
   3.855602e+01   2.103504e+01
  -3.703214e+01   3.530570e+01
  -1.007742e+02   1.498611e+01
