
 $NMID
 id='ANONYMOUS ', fmtdat='(2E16.6)'
 volume=1.0
 tramp=1.0
 $END
  -3.288227e+03   9.180582e+00
  -1.975618e+03  -1.810159e+03
   1.314833e+02  -2.010558e+03
   1.202394e+03  -1.122184e+03
   8.744585e+02  -1.582750e+02
  -1.293990e+01   1.142276e+02
  -3.091768e+02  -1.746143e+02
   3.892468e+01  -5.203388e+02
   4.723419e+02  -4.713128e+02
   5.517734e+02  -2.247163e+01
   3.201232e+02   4.537940e+02
  -2.333501e+01   5.389768e+02
  -2.323654e+02   1.080376e+02
  -1.550908e+02  -4.166860e+02
   1.514285e+02  -4.732503e+02
   3.697518e+02  -5.050968e+01
   2.243074e+02   4.617899e+02
  -1.347290e+02   5.582388e+02
  -4.229450e+02   2.272753e+02
  -3.716091e+02  -1.644130e+02
  -9.270299e+01  -3.162134e+02
   1.066438e+02  -1.896198e+02
   4.587005e+01  -4.499218e+01
  -1.948035e+02  -1.207709e+02
  -2.571610e+02  -3.108288e+02
   4.698596e+01  -3.615702e+02
   4.846960e+02  -1.370049e+02
   5.647667e+02   2.333331e+02
   1.800438e+02   3.645355e+02
  -3.679835e+02   1.734439e+02
  -4.789156e+02  -1.731460e+02
  -1.435279e+02  -3.765800e+02
   2.956099e+02  -3.223774e+02
   4.390095e+02  -1.090227e+02
   2.696347e+02   1.626558e+02
   3.574218e+01   2.681278e+02
  -2.767810e+01   1.201551e+02
   7.831184e+01  -1.266252e+02
   2.326735e+02  -1.424008e+02
   2.167914e+02   1.952418e+02
  -1.676329e+01   5.222882e+02
  -2.779799e+02   4.099486e+02
  -3.126158e+02  -4.976898e+01
  -8.319359e+01  -3.275899e+02
   1.488650e+02  -1.204648e+02
   1.375331e+02   2.899088e+02
  -1.469502e+02   3.711248e+02
  -4.417938e+02   2.879271e+01
  -4.402685e+02  -3.768310e+02
  -1.115945e+02  -4.532047e+02
   2.941111e+02  -2.141858e+02
   4.544912e+02   9.556093e+01
   2.795846e+02   2.438076e+02
  -7.875423e+01   1.732388e+02
  -2.712021e+02   4.486301e+01
  -2.040320e+02  -3.597977e+01
  -1.301086e+01  -3.099650e+00
   2.144000e+01   5.084882e+01
  -1.123233e+02   3.536644e+01
  -2.050952e+02  -7.647574e+01
  -9.931226e+01  -1.960686e+02
   1.564655e+02  -2.181359e+02
   3.189948e+02  -1.064713e+02
   2.495236e+02   8.892075e+01
  -2.359960e+01   2.887699e+02
  -2.783812e+02   3.477998e+02
  -3.579594e+02   1.626530e+02
  -2.299474e+02  -1.448630e+02
  -4.898173e+01  -3.332252e+02
   2.825028e+01  -2.812595e+02
   2.607178e+00  -1.461983e+02
   1.689042e+01  -9.876708e+01
   1.265546e+02  -1.228653e+02
   2.402714e+02  -5.801860e+01
   2.227280e+02   1.136671e+02
   7.055720e+01   2.542111e+02
  -1.016646e+02   1.812208e+02
  -1.800549e+02  -5.372658e+01
  -1.139435e+02  -2.497029e+02
   6.749481e+01  -2.394085e+02
   2.428827e+02  -4.590057e+01
   2.819522e+02   1.773088e+02
   1.399471e+02   2.799475e+02
  -5.645846e+01   2.336802e+02
  -1.443897e+02   1.333862e+02
  -1.199077e+02   8.209537e+01
  -1.310656e+02   8.250560e+01
  -2.665859e+02   4.732640e+01
  -3.955350e+02  -9.749712e+01
  -2.901988e+02  -2.934879e+02
   3.506359e+01  -4.182191e+02
   3.527391e+02  -3.661373e+02
   4.379169e+02  -1.476792e+02
   2.552416e+02   1.035162e+02
   8.296922e+00   2.336534e+02
  -9.849588e+01   1.675581e+02
  -7.832956e+00   1.450092e+01
   1.290676e+02  -4.861148e+01
   1.328773e+02   4.436257e+01
   2.450228e+00   1.446447e+02
  -1.142677e+02   9.560915e+01
  -1.015185e+02  -6.384320e+01
   4.166938e+01  -1.266181e+02
   1.546618e+02   8.424962e+00
   1.271877e+02   2.241746e+02
  -3.157250e+01   3.181295e+02
  -2.263946e+02   1.870719e+02
  -3.259809e+02  -6.254245e+01
  -2.566190e+02  -2.529572e+02
  -5.368358e+01  -2.589494e+02
   1.265629e+02  -1.258978e+02
   1.408158e+02   4.456271e+00
   2.575813e+01   1.556825e+01
  -5.191230e+01  -6.712653e+01
   8.159123e+00  -1.161101e+02
   1.256154e+02  -6.016910e+01
   1.350863e+02   3.412110e+01
   2.083619e+01   5.795662e+01
  -8.722483e+01  -1.472380e+01
  -3.909441e+01  -9.510412e+01
   1.378585e+02  -9.006079e+01
   2.865487e+02   1.701126e+01
   2.465210e+02   1.630553e+02
   2.411011e+01   2.547587e+02
  -2.019912e+02   2.176844e+02
  -2.512072e+02   7.656811e+01
  -1.218738e+02  -4.984287e+01
   3.618228e+01  -6.937667e+01
   5.860450e+01   1.715765e+01
  -6.492954e+01   7.813311e+01
  -1.853119e+02   2.340032e+01
  -1.732865e+02  -1.085735e+02
  -3.788456e+01  -1.799499e+02
   9.676219e+01  -1.227939e+02
   1.185714e+02  -7.366246e+00
   3.623491e+01   3.565380e+01
  -4.475551e+01  -2.263394e+01
  -2.687041e+01  -1.086454e+02
   9.471520e+01  -1.149123e+02
   2.016020e+02  -7.823519e+00
   1.694656e+02   1.338620e+02
   1.863660e+00   1.971141e+02
  -1.483999e+02   1.343116e+02
  -1.586885e+02   1.350415e+00
  -4.345116e+01  -9.039020e+01
   6.303092e+01  -8.326045e+01
   6.411635e+01  -1.603446e+01
  -2.798520e+00   2.646887e+01
  -3.941219e+01   7.936085e+00
   5.902500e+00  -2.893418e+01
   8.430628e+01  -6.572713e+00
   1.038882e+02   8.465130e+01
   1.243672e+01   1.680315e+02
  -1.377735e+02   1.459668e+02
  -2.285622e+02   5.170480e+00
  -1.769944e+02  -1.567114e+02
  -2.417305e+01  -2.149597e+02
   1.018593e+02  -1.376772e+02
   1.165081e+02  -1.805697e+01
   5.914675e+01   4.325849e+01
   2.700038e+01   2.243788e+01
   5.278905e+01  -2.054507e+01
   8.411288e+01  -9.262363e+00
   5.582970e+01   5.386068e+01
  -3.441298e+01   1.038042e+02
  -1.148205e+02   6.795172e+01
  -1.030759e+02  -4.054373e+01
   1.416796e+01  -1.258109e+02
   1.553822e+02  -8.399175e+01
   1.949631e+02   6.683580e+01
   7.425427e+01   2.075856e+02
  -1.292465e+02   2.099999e+02
  -2.635147e+02   6.556878e+01
  -2.348616e+02  -9.877655e+01
  -8.899626e+01  -1.654353e+02
   4.137334e+01  -1.285848e+02
   8.646999e+01  -7.699432e+01
   6.751955e+01  -6.899702e+01
   5.947045e+01  -9.196469e+01
   8.707366e+01  -7.373662e+01
   1.260422e+02   2.175722e+01
   1.104310e+02   1.479044e+02
   2.002499e+01   2.105448e+02
  -9.886590e+01   1.525171e+02
  -1.614368e+02   5.609722e+00
  -1.158761e+02  -1.222361e+02
  -6.339131e+00  -1.453154e+02
   7.135506e+01  -7.472163e+01
   6.012257e+01   1.369378e+01
  -3.540087e+00   5.072766e+01
  -2.398744e+01   3.297193e+01
   2.686672e+01   8.467303e+00
   7.871213e+01   1.589879e+01
   4.546497e+01   3.967591e+01
  -6.896087e+01   3.690771e+01
  -1.594571e+02  -6.427621e+00
  -1.305145e+02  -6.411351e+01
   2.407249e+00  -9.165717e+01
   1.278089e+02  -6.570199e+01
   1.388093e+02  -2.000027e+00
   4.291574e+01   4.713866e+01
  -5.682727e+01   3.883558e+01
  -7.340362e+01  -1.698016e+01
  -1.769747e+01  -6.660820e+01
   4.475281e+01  -6.099878e+01
   6.492902e+01  -2.600433e+00
   5.453314e+01   4.771553e+01
   4.182622e+01   4.130577e+01
   5.127370e+01   8.252324e-01
   6.664223e+01   4.505431e-01
   4.880228e+01   7.009634e+01
  -2.430676e+01   1.514762e+02
  -1.254727e+02   1.429912e+02
  -1.748952e+02   3.397675e+01
  -1.242283e+02  -9.315606e+01
  -7.372408e-01  -1.291186e+02
   8.650641e+01  -6.452133e+01
   5.651290e+01   1.204283e+01
  -5.852526e+01   1.884147e+01
  -1.295673e+02  -4.323415e+01
  -7.000760e+01  -1.070640e+02
   8.443043e+01  -1.020535e+02
   1.853882e+02  -3.676924e+01
   1.514637e+02   4.551717e+01
   2.460379e+01   8.231627e+01
  -6.721981e+01   5.472859e+01
  -4.756223e+01  -5.710673e+00
   3.801089e+01  -2.851159e+01
   8.797877e+01   2.049132e+01
   3.521432e+01   1.062326e+02
  -7.540641e+01   1.436586e+02
  -1.462156e+02   6.489088e+01
  -1.160971e+02  -8.360153e+01
  -1.283265e+01  -1.738232e+02
   7.896571e+01  -1.306223e+02
   9.649761e+01   1.127031e+01
   4.732258e+01   1.144843e+02
  -1.594019e+01   9.689540e+01
  -4.964827e+01   1.268185e+01
  -3.936673e+01  -3.419248e+01
  -1.321210e+01  -9.360700e+00
  -5.979782e+00   1.869074e+01
  -3.001178e+01  -1.716723e+01
  -5.405275e+01  -8.709645e+01
  -2.937133e+01  -1.033159e+02
   5.389999e+01  -4.189809e+01
   1.248058e+02   3.631279e+01
   1.087983e+02   6.874911e+01
   1.525593e+01   4.825255e+01
  -7.472114e+01   1.961146e+01
  -8.031596e+01   3.887676e+00
  -1.626747e+01  -9.722621e+00
   3.373774e+01  -2.047371e+01
   2.018266e+01  -1.427336e+01
  -1.274305e+01   1.767318e+00
   1.367886e+00   5.475094e+00
   6.295970e+01  -3.938304e-01
   8.929648e+01   2.130170e+01
   2.210225e+01   7.794553e+01
  -9.948494e+01   1.127001e+02
  -1.785960e+02   6.413146e+01
  -1.462660e+02  -5.332337e+01
  -3.087810e+01  -1.475424e+02
   7.424565e+01  -1.451086e+02
   1.081743e+02  -6.234187e+01
   7.287355e+01   1.892509e+01
   2.482942e+01   3.604766e+01
   2.979504e+00   1.148670e+01
   1.453110e+01   6.686045e+00
   2.857640e+01   4.415271e+01
   1.733084e+01   8.544595e+01
  -2.680610e+01   6.756221e+01
  -7.359874e+01  -1.430212e+01
  -7.712929e+01  -9.323291e+01
  -1.591090e+01  -1.018026e+02
   6.869587e+01  -2.984340e+01
   9.854857e+01   5.867408e+01
   3.876901e+01   9.268970e+01
  -5.710311e+01   6.085333e+01
  -9.739029e+01  -2.838616e+00
  -4.613189e+01  -5.077938e+01
   2.931956e+01  -5.821058e+01
   3.620370e+01  -2.937408e+01
  -2.399023e+01   3.851671e+00
  -6.522266e+01   6.029162e+00
  -1.866215e+01  -2.705847e+01
   7.445073e+01  -6.376802e+01
   1.187323e+02  -5.083942e+01
   6.886651e+01   1.451271e+01
  -1.146056e+01   7.883614e+01
  -5.333868e+01   7.838454e+01
  -4.252478e+01   1.321993e+01
  -7.272870e+00  -4.723456e+01
   1.970560e+01  -4.556977e+01
   3.214573e+01   7.905545e+00
   2.756294e+01   4.721949e+01
   2.871311e+00   3.661312e+01
  -3.015727e+01  -3.769164e+00
  -4.038784e+01  -2.338959e+01
  -2.096213e+01  -4.563436e+00
   4.429907e+00   1.897033e+01
   9.948768e+00   9.182793e+00
  -1.657412e+00  -2.822354e+01
   2.218550e-01  -4.752878e+01
   2.277025e+01  -2.293891e+01
   3.513584e+01   3.132443e+01
   1.120680e+01   5.367861e+01
  -3.661537e+01   2.217096e+01
  -5.470561e+01  -3.123983e+01
  -1.600426e+01  -5.496336e+01
   5.353187e+01  -3.234652e+01
   8.630667e+01   1.220800e+01
   4.784202e+01   3.935671e+01
  -2.587682e+01   4.132522e+01
  -5.821949e+01   2.638021e+01
  -2.452761e+01   7.549161e+00
   2.519199e+01  -4.017742e-01
   2.813474e+01   6.270296e+00
  -2.325836e+01   2.153439e+01
  -7.092456e+01   1.732319e+01
