
 $NMID
 id='ANONYMOUS ', fmtdat='(2E16.6)'
 volume=1.0
 tramp=1.0
 $END
   4.984004e+03   1.650300e+02
   2.814495e+03   2.880149e+03
  -7.155510e+02   3.020338e+03
  -2.284683e+03   1.034506e+03
  -1.115231e+03  -7.266724e+02
   6.770077e+02  -7.472741e+02
   1.031213e+03   4.159066e+02
   7.405008e+01   1.170395e+03
  -8.792704e+02   9.071412e+02
  -1.048609e+03  -6.749182e+01
  -5.367105e+02  -9.464410e+02
   2.392861e+02  -9.979411e+02
   7.142002e+02  -1.515738e+02
   4.469499e+02   7.720456e+02
  -2.857748e+02   8.322492e+02
  -6.674118e+02   6.829286e+00
  -3.251627e+02  -7.482397e+02
   3.594832e+02  -7.251168e+02
   6.600243e+02  -1.397388e+02
   4.523341e+02   3.901033e+02
   3.423441e+01   4.982796e+02
  -2.718392e+02   3.127113e+02
  -2.464796e+02   3.245412e+01
   9.454911e+01  -1.099139e+02
   4.276829e+02   9.498921e+01
   2.335251e+02   4.508619e+02
  -4.584118e+02   4.533997e+02
  -9.092402e+02  -4.763929e+01
  -4.768119e+02  -5.590256e+02
   3.820893e+02  -5.188129e+02
   7.942909e+02   8.604718e+00
   3.974773e+02   4.950209e+02
  -2.736858e+02   5.688854e+02
  -6.215724e+02   2.304842e+02
  -4.975079e+02  -2.343209e+02
  -1.070883e+02  -5.353914e+02
   2.138577e+02  -3.635951e+02
   2.231207e+02   2.056974e+02
  -1.389928e+02   4.884180e+02
  -4.599021e+02   2.077986e+01
  -2.827093e+02  -7.059902e+02
   3.208217e+02  -7.697909e+02
   6.528273e+02  -4.352619e+01
   3.113795e+02   5.732728e+02
  -3.078736e+02   3.610856e+02
  -4.348730e+02  -3.171455e+02
   5.613011e+01  -5.912983e+02
   5.823653e+02  -1.673963e+02
   6.534059e+02   4.213798e+02
   1.987403e+02   6.383802e+02
  -3.930168e+02   4.008464e+02
  -6.847226e+02  -5.002910e+01
  -4.401872e+02  -4.039525e+02
   1.376259e+02  -4.125436e+02
   4.692684e+02  -9.586222e+01
   2.687921e+02   2.003175e+02
  -1.122092e+02   1.290918e+02
  -1.692216e+02  -1.524959e+02
   1.635434e+02  -2.116302e+02
   3.859949e+02   6.434947e+01
   1.714788e+02   3.133038e+02
  -2.062685e+02   2.875825e+02
  -3.512718e+02   8.881478e+01
  -2.072933e+02  -8.256246e+01
   2.621748e+01  -2.286146e+02
   2.230336e+02  -3.344751e+02
   3.467739e+02  -2.261936e+02
   3.123647e+02   1.400792e+02
   9.279189e+01   4.729551e+02
  -1.129256e+02   4.335420e+02
  -1.435627e+02   1.390885e+02
  -4.290102e+01  -1.786338e+01
  -4.969878e+01   7.759419e+01
  -1.921828e+02   1.377577e+02
  -2.966621e+02  -4.084033e+01
  -1.853041e+02  -2.791950e+02
   5.639433e+01  -2.756960e+02
   2.362516e+02  -2.071842e+01
   2.147788e+02   2.532583e+02
  -1.704826e+00   3.178374e+02
  -2.833264e+02   1.305856e+02
  -3.987329e+02  -1.784160e+02
  -2.149950e+02  -3.926893e+02
   1.055371e+02  -3.485691e+02
   2.603861e+02  -1.449330e+02
   1.858108e+02   2.868366e+00
   1.199307e+02  -1.847566e+01
   2.504438e+02  -5.258075e+01
   4.224266e+02   6.281744e+01
   3.591820e+02   3.027002e+02
   2.757938e+00   4.765542e+02
  -3.814414e+02   4.420838e+02
  -5.263747e+02   2.225200e+02
  -3.742181e+02  -9.020198e+01
  -7.827804e+01  -3.140796e+02
   1.313331e+02  -2.846773e+02
   9.302993e+01  -4.250592e+01
  -1.022128e+02   1.108273e+02
  -2.067138e+02   6.135716e-01
  -6.093348e+01  -2.064208e+02
   1.715399e+02  -1.917601e+02
   1.971040e+02   5.964583e+01
  -7.156033e+00   2.058334e+02
  -2.069154e+02   4.169462e+01
  -1.841945e+02  -2.569616e+02
   2.478726e+01  -3.732428e+02
   2.444316e+02  -2.132960e+02
   3.518595e+02   5.768529e+01
   2.982825e+02   2.480207e+02
   1.088033e+02   2.851585e+02
  -1.134492e+02   1.782979e+02
  -1.889657e+02   3.283711e+01
  -6.943268e+01  -2.970515e+01
   7.084012e+01   3.680095e+01
   3.307027e+01   1.289047e+02
  -1.282215e+02   1.058784e+02
  -1.914801e+02  -1.183248e+01
  -6.908680e+01  -7.904977e+01
   7.792624e+01  -2.464232e+01
   5.763703e+01   6.876692e+01
  -1.256197e+02   8.732081e+01
  -2.861254e+02  -3.412430e+00
  -2.680843e+02  -1.463258e+02
  -6.683307e+01  -2.640941e+02
   1.857542e+02  -2.757375e+02
   3.029488e+02  -1.402185e+02
   1.908238e+02   5.277255e+01
  -1.950084e+01   1.228638e+02
  -9.988584e+01   1.521467e+01
   2.570979e+01  -1.086681e+02
   2.115183e+02  -6.802090e+01
   2.344666e+02   1.068243e+02
   8.110400e+01   2.202064e+02
  -9.681186e+01   1.714537e+02
  -1.519633e+02   3.301798e+01
  -8.082299e+01  -4.338895e+01
   2.426834e+01  -5.318049e+00
   3.867900e+01   8.505356e+01
  -7.240646e+01   1.219964e+02
  -2.053439e+02   3.580737e+01
  -2.043962e+02  -1.271979e+02
  -2.585942e+01  -2.361636e+02
   1.763093e+02  -1.840044e+02
   2.120631e+02  -1.130410e+01
   7.666950e+01   1.258388e+02
  -6.613820e+01   1.238490e+02
  -8.875547e+01   3.522114e+01
  -2.177331e+01  -2.566512e+01
   2.036007e+01  -1.920656e+01
  -1.391605e+01   5.605603e+00
  -7.650300e+01  -1.153953e+01
  -9.218649e+01  -8.607179e+01
  -1.486214e+01  -1.628694e+02
   1.300576e+02  -1.579247e+02
   2.448001e+02  -3.064317e+01
   2.151716e+02   1.532039e+02
   4.810125e+01   2.515510e+02
  -1.156996e+02   1.874514e+02
  -1.509346e+02   3.345547e+01
  -8.247757e+01  -6.039327e+01
  -3.202092e+01  -4.275852e+01
  -5.233816e+01   1.051562e+01
  -8.091070e+01   1.930382e+00
  -4.194217e+01  -5.506263e+01
   4.517656e+01  -9.399783e+01
   1.072881e+02  -5.468006e+01
   8.904524e+01   4.016150e+01
  -1.293827e+01   1.156973e+02
  -1.434952e+02   9.041277e+01
  -2.063392e+02  -5.298117e+01
  -1.086338e+02  -2.114915e+02
   1.083067e+02  -2.396802e+02
   2.756811e+02  -1.054801e+02
   2.734006e+02   8.505294e+01
   1.234908e+02   1.893940e+02
  -3.624467e+01   1.637906e+02
  -1.020868e+02   9.476209e+01
  -8.693491e+01   7.445281e+01
  -7.043846e+01   9.376685e+01
  -9.755063e+01   7.881432e+01
  -1.368875e+02  -2.160625e+01
  -1.288328e+02  -1.628772e+02
  -3.458819e+01  -2.396584e+02
   1.031341e+02  -1.847600e+02
   1.859351e+02  -2.707967e+01
   1.494962e+02   1.235930e+02
   2.666107e+01   1.691365e+02
  -6.494641e+01   1.014728e+02
  -6.127713e+01   6.536148e+00
  -5.433845e+00  -4.407176e+01
   1.040529e+01  -3.593983e+01
  -3.693903e+01  -1.735624e+01
  -8.285163e+01  -2.288438e+01
  -4.852684e+01  -3.987682e+01
   6.577527e+01  -4.060302e+01
   1.628795e+02  -2.481191e+00
   1.476929e+02   5.358390e+01
   1.556850e+01   9.259364e+01
  -1.281906e+02   7.664526e+01
  -1.515772e+02   1.288459e+01
  -5.121917e+01  -4.574430e+01
   6.136793e+01  -4.009060e+01
   7.643249e+01   1.994547e+01
   9.337414e+00   7.363655e+01
  -5.738362e+01   6.215258e+01
  -6.708097e+01  -3.624183e+00
  -4.565036e+01  -5.488781e+01
  -4.796176e+01  -4.312036e+01
  -6.666074e+01  -2.324068e+00
  -6.986548e+01  -4.888344e+00
  -3.401194e+01  -7.566984e+01
   3.938436e+01  -1.558486e+02
   1.230401e+02  -1.447700e+02
   1.715191e+02  -3.081563e+01
   1.290437e+02   9.631352e+01
   9.349779e+00   1.325987e+02
  -8.903908e+01   6.352873e+01
  -6.346950e+01  -1.723255e+01
   5.933795e+01  -2.293598e+01
   1.448650e+02   4.709804e+01
   7.923189e+01   1.094154e+02
  -8.398561e+01   1.204766e+02
  -2.004263e+02   5.509591e+01
  -1.728067e+02  -3.197483e+01
  -4.284955e+01  -8.874030e+01
   5.919028e+01  -7.262773e+01
   5.005148e+01  -1.122948e+01
  -4.056899e+01   2.512758e+01
  -9.654859e+01  -2.497993e+01
  -3.451831e+01  -1.266262e+02
   9.684808e+01  -1.665061e+02
   1.797121e+02  -7.052588e+01
   1.393086e+02   1.066223e+02
   1.072161e+01   2.117797e+02
  -8.984482e+01   1.553793e+02
  -1.102345e+02  -7.658836e+00
  -6.613431e+01  -1.254997e+02
  -1.973686e+00  -1.147617e+02
   4.798725e+01  -2.345544e+01
   6.001486e+01   3.299385e+01
   2.928579e+01   8.862389e+00
   3.877797e+00  -2.161823e+01
   1.956477e+01   1.496816e+01
   5.924911e+01   9.142896e+01
   4.498183e+01   1.105055e+02
  -4.772024e+01   4.826073e+01
  -1.458071e+02  -3.751831e+01
  -1.392780e+02  -7.074463e+01
  -1.850696e+01  -5.206107e+01
   9.287403e+01  -2.535075e+01
   9.153715e+01  -8.303583e+00
   1.136247e+01   1.032749e+01
  -4.066637e+01   2.638980e+01
  -1.417532e+01   1.951238e+01
   2.144832e+01  -2.302459e+00
  -8.107862e+00  -9.491190e+00
  -8.136776e+01  -3.712248e+00
  -9.868392e+01  -2.591323e+01
  -8.565714e+00  -8.674061e+01
   1.262228e+02  -1.227967e+02
   1.972104e+02  -6.041599e+01
   1.492586e+02   7.316442e+01
   2.785218e+01   1.730961e+02
  -8.430864e+01   1.595365e+02
  -1.222827e+02   6.182262e+01
  -8.746917e+01  -2.410410e+01
  -2.786039e+01  -3.952883e+01
   2.804265e+00  -1.103028e+01
  -1.136658e+01  -5.786071e+00
  -3.543575e+01  -4.880041e+01
  -2.341909e+01  -9.489159e+01
   3.044677e+01  -7.701088e+01
   8.600681e+01   1.790292e+01
   8.270047e+01   1.137592e+02
   5.628604e+00   1.196215e+02
  -8.893707e+01   2.508556e+01
  -1.108040e+02  -8.146269e+01
  -3.245040e+01  -1.120706e+02
   7.376355e+01  -6.026716e+01
   1.051952e+02   1.438042e+01
   4.033116e+01   5.521118e+01
  -3.706954e+01   5.524049e+01
  -3.469965e+01   2.883190e+01
   3.712888e+01  -2.354451e+00
   7.453741e+01  -7.138927e+00
   1.665499e+01   2.805305e+01
  -8.519655e+01   6.992245e+01
  -1.212324e+02   6.056765e+01
  -6.986946e+01  -1.209957e+01
   1.818632e+01  -8.876860e+01
   5.994412e+01  -8.450930e+01
   4.261343e+01  -4.351859e+00
   1.996748e+00   6.211041e+01
  -3.041648e+01   4.588093e+01
  -4.095713e+01  -2.122281e+01
  -2.692331e+01  -5.960538e+01
   5.831564e+00  -3.507045e+01
   3.598418e+01   1.017678e+01
   4.042762e+01   2.287174e+01
   2.109549e+01   6.743458e-01
   5.190434e-01  -1.485516e+01
  -6.688389e+00   4.926670e+00
  -7.531602e+00   4.007575e+01
  -1.888523e+01   4.932965e+01
  -3.459994e+01   6.873727e+00
  -3.298191e+01  -4.957139e+01
   3.700049e+00  -6.781731e+01
   4.992544e+01  -2.398224e+01
   6.250373e+01   4.179495e+01
   1.658612e+01   6.892568e+01
  -5.792896e+01   3.674941e+01
  -9.425432e+01  -1.545704e+01
  -5.259686e+01  -4.677422e+01
   2.962691e+01  -4.391831e+01
   6.944342e+01  -2.308487e+01
   2.604616e+01  -4.328367e+00
  -4.164875e+01  -1.465238e+00
  -4.227957e+01  -1.805555e+01
   3.336671e+01  -3.611695e+01
   9.999792e+01  -2.352631e+01
