
 $NMID
 id='ANONYMOUS ', fmtdat='(2E16.6)'
 volume=1.0
 tramp=1.0
 $END
  -4.446995e+03   8.730874e+01
  -2.456174e+03  -2.566145e+03
   6.348727e+02  -2.589886e+03
   1.828657e+03  -8.532744e+02
   7.881470e+02   4.313358e+02
  -5.329158e+02   3.171076e+02
  -6.684939e+02  -4.764443e+02
   8.497345e+01  -9.296020e+02
   7.545782e+02  -6.378576e+02
   8.105932e+02   1.112483e+02
   3.544362e+02   7.536303e+02
  -2.227122e+02   7.524146e+02
  -5.169887e+02   5.882908e+01
  -2.829812e+02  -6.599059e+02
   2.662685e+02  -6.509771e+02
   5.580142e+02   4.350746e+01
   2.366155e+02   6.428621e+02
  -2.787791e+02   6.041138e+02
  -5.258787e+02   1.213079e+02
  -3.771018e+02  -2.823599e+02
  -3.691100e+01  -3.928468e+02
   2.164262e+02  -2.324493e+02
   1.725930e+02   1.118787e+01
  -1.963556e+02   5.457557e+01
  -4.339028e+02  -1.848882e+02
  -1.414212e+02  -4.770049e+02
   5.328399e+02  -3.729640e+02
   8.184451e+02   1.444991e+02
   3.224547e+02   5.719390e+02
  -4.487592e+02   4.134132e+02
  -6.985645e+02  -1.112316e+02
  -2.677051e+02  -5.000240e+02
   3.246854e+02  -4.759259e+02
   5.466601e+02  -1.642265e+02
   3.554708e+02   2.336496e+02
   4.269144e+01   4.163103e+02
  -1.735395e+02   2.109865e+02
  -9.584291e+01  -2.379462e+02
   2.294746e+02  -3.817092e+02
   4.357300e+02   9.522603e+01
   1.850113e+02   7.003338e+02
  -3.386126e+02   6.457295e+02
  -5.445135e+02  -5.846938e+01
  -1.926676e+02  -5.487679e+02
   2.956490e+02  -2.626345e+02
   3.413409e+02   3.647001e+02
  -1.030374e+02   5.402846e+02
  -5.657809e+02   1.007561e+02
  -5.787917e+02  -3.956579e+02
  -1.409945e+02  -5.575660e+02
   3.718072e+02  -3.108912e+02
   5.844999e+02   7.164311e+01
   3.347052e+02   3.429724e+02
  -1.512212e+02   3.272194e+02
  -4.040028e+02   5.242826e+01
  -2.094968e+02  -1.400677e+02
   1.043034e+02  -5.625382e+01
   1.023789e+02   1.524433e+02
  -1.749316e+02   1.577124e+02
  -3.140561e+02  -9.003672e+01
  -1.149056e+02  -2.911051e+02
   1.989183e+02  -2.556023e+02
   3.328905e+02  -9.000896e+01
   2.168402e+02   8.876946e+01
  -1.643997e+01   2.559601e+02
  -2.248039e+02   3.531536e+02
  -3.283583e+02   2.139712e+02
  -2.711741e+02  -1.445679e+02
  -6.655375e+01  -4.071639e+02
   8.316351e+01  -3.480125e+02
   6.516101e+01  -9.898350e+01
   3.827717e+00  -2.440437e+01
   6.169601e+01  -1.122204e+02
   2.204480e+02  -1.271791e+02
   2.810109e+02   7.283078e+01
   1.487700e+02   2.761183e+02
  -8.401723e+01   2.465187e+02
  -2.314132e+02  -4.137749e+00
  -1.867518e+02  -2.459587e+02
   3.048884e+01  -2.864136e+02
   2.731263e+02  -9.975618e+01
   3.494883e+02   1.722278e+02
   1.752713e+02   3.317080e+02
  -9.217458e+01   2.837471e+02
  -2.042138e+02   1.182729e+02
  -1.298345e+02   2.592052e+01
  -8.895746e+01   6.293551e+01
  -2.316632e+02   8.238539e+01
  -4.040810e+02  -4.467849e+01
  -3.381462e+02  -2.828809e+02
  -1.960011e+00  -4.453683e+02
   3.606385e+02  -4.173701e+02
   4.870531e+02  -2.022287e+02
   3.219834e+02   1.032106e+02
   3.970584e+01   2.883150e+02
  -1.258246e+02   2.217598e+02
  -5.443662e+01   4.887200e+00
   1.326903e+02  -9.399450e+01
   1.869031e+02   2.895907e+01
   2.848982e+01   1.937271e+02
  -1.629737e+02   1.385184e+02
  -1.595468e+02  -7.560013e+01
   3.500112e+01  -1.806026e+02
   1.970879e+02  -1.557053e+01
   1.565393e+02   2.411974e+02
  -3.009293e+01   3.389820e+02
  -2.250096e+02   1.980171e+02
  -3.248045e+02  -4.529994e+01
  -2.805916e+02  -2.329788e+02
  -9.240426e+01  -2.648185e+02
   1.176721e+02  -1.625396e+02
   1.789848e+02  -1.510007e+01
   5.196457e+01   3.009587e+01
  -7.120965e+01  -4.629332e+01
  -2.157893e+01  -1.277408e+02
   1.289356e+02  -9.623779e+01
   1.717232e+02   1.669088e+01
   4.740079e+01   7.180860e+01
  -8.808626e+01   1.317056e+01
  -5.581178e+01  -7.895165e+01
   1.274591e+02  -9.470530e+01
   2.909778e+02  -4.483462e+00
   2.708345e+02   1.417863e+02
   5.486963e+01   2.642267e+02
  -1.948874e+02   2.594851e+02
  -2.756616e+02   1.190809e+02
  -1.555858e+02  -5.686260e+01
   3.106597e+01  -1.040646e+02
   8.485089e+01   4.769095e+00
  -4.287971e+01   1.090461e+02
  -2.006473e+02   5.554378e+01
  -2.098468e+02  -1.077421e+02
  -6.396622e+01  -2.130855e+02
   9.598707e+01  -1.592432e+02
   1.401909e+02  -2.425814e+01
   5.918168e+01   4.827949e+01
  -4.012929e+01   2.270014e+00
  -4.261544e+01  -9.080961e+01
   7.600891e+01  -1.218490e+02
   2.070704e+02  -3.218109e+01
   1.951473e+02   1.271860e+02
   1.866381e+01   2.190558e+02
  -1.649963e+02   1.597814e+02
  -1.887113e+02   3.350293e+00
  -5.905568e+01  -1.131526e+02
   6.614689e+01  -1.092503e+02
   7.983051e+01  -2.849102e+01
   1.383335e+01   2.804606e+01
  -2.576332e+01   1.842153e+01
   5.646029e+00  -1.447865e+01
   7.445001e+01   3.448487e-01
   9.748930e+01   7.919297e+01
   2.237804e+01   1.650179e+02
  -1.257468e+02   1.596431e+02
  -2.334427e+02   2.737555e+01
  -2.007191e+02  -1.510599e+02
  -4.110816e+01  -2.371061e+02
   1.088874e+02  -1.644301e+02
   1.314947e+02  -2.496546e+01
   6.894167e+01   5.211760e+01
   2.728714e+01   3.236961e+01
   5.153986e+01  -1.202122e+01
   7.475231e+01  -9.569351e+00
   4.531319e+01   4.757031e+01
  -3.629687e+01   9.060170e+01
  -1.027985e+02   6.263378e+01
  -9.166782e+01  -3.355167e+01
   8.685619e+00  -1.143892e+02
   1.421735e+02  -8.967540e+01
   1.962494e+02   4.927134e+01
   9.488464e+01   2.017794e+02
  -1.051699e+02   2.299299e+02
  -2.581155e+02   9.850376e+01
  -2.523719e+02  -8.476753e+01
  -1.068303e+02  -1.745919e+02
   3.806785e+01  -1.464724e+02
   9.308544e+01  -8.460485e+01
   7.683407e+01  -6.820562e+01
   6.460995e+01  -8.842260e+01
   8.797057e+01  -7.168591e+01
   1.234413e+02   2.012102e+01
   1.184601e+02   1.463219e+02
   3.573918e+01   2.185819e+02
  -9.590384e+01   1.701714e+02
  -1.762953e+02   1.911102e+01
  -1.371655e+02  -1.242240e+02
  -1.521201e+01  -1.610044e+02
   7.313980e+01  -9.315739e+01
   6.385004e+01   1.489548e+00
   6.368306e+00   4.599706e+01
  -1.228458e+01   3.502883e+01
   3.542092e+01   1.710447e+01
   7.611613e+01   1.939894e+01
   4.330716e+01   3.840044e+01
  -6.595674e+01   3.929609e+01
  -1.606144e+02   5.182170e+00
  -1.414020e+02  -5.480313e+01
  -8.944026e+00  -9.379447e+01
   1.210895e+02  -8.017446e+01
   1.406314e+02  -1.558894e+01
   4.653720e+01   4.359566e+01
  -5.873175e+01   4.053947e+01
  -7.545151e+01  -1.847638e+01
  -1.161592e+01  -6.657909e+01
   4.870869e+01  -5.706899e+01
   6.146414e+01  -7.621628e-02
   4.670448e+01   4.617841e+01
   4.307074e+01   3.690979e+01
   5.714234e+01  -1.111093e+00
   6.626391e+01  -2.746112e+00
   4.023336e+01   6.548566e+01
  -2.448437e+01   1.453538e+02
  -1.114977e+02   1.462013e+02
  -1.633228e+02   4.011730e+01
  -1.265557e+02  -8.850294e+01
  -9.847869e+00  -1.296571e+02
   8.261430e+01  -6.591470e+01
   5.820376e+01   1.453078e+01
  -5.982134e+01   2.161992e+01
  -1.318754e+02  -4.584994e+01
  -6.738992e+01  -1.091562e+02
   7.843977e+01  -1.092398e+02
   1.827235e+02  -5.140503e+01
   1.551682e+02   2.839424e+01
   3.708818e+01   8.627334e+01
  -5.968839e+01   7.100493e+01
  -4.865972e+01   8.386398e+00
   3.683129e+01  -2.847963e+01
   8.983501e+01   1.906152e+01
   3.426785e+01   1.163136e+02
  -8.439393e+01   1.536199e+02
  -1.646766e+02   6.570966e+01
  -1.268470e+02  -9.421051e+01
  -1.326910e+01  -1.926802e+02
   7.754083e+01  -1.419179e+02
   1.016910e+02   4.212554e+00
   6.073016e+01   1.117655e+02
  -2.671512e+00   1.024169e+02
  -4.595167e+01   1.945297e+01
  -4.653168e+01  -3.034079e+01
  -2.000685e+01  -7.532788e+00
  -4.094384e+00   2.047448e+01
  -2.717159e+01  -1.309593e+01
  -6.073074e+01  -8.945350e+01
  -4.196773e+01  -1.113646e+02
   5.239710e+01  -4.814626e+01
   1.400932e+02   3.653039e+01
   1.260426e+02   7.341468e+01
   1.663575e+01   5.115067e+01
  -8.220950e+01   2.381847e+01
  -8.313050e+01   9.964292e+00
  -1.243888e+01  -6.821537e+00
   3.480360e+01  -2.180047e+01
   1.419261e+01  -1.805609e+01
  -1.972682e+01   1.878151e+00
   4.123549e+00   6.782194e+00
   6.899170e+01  -8.131912e-01
   8.856424e+01   1.875094e+01
   1.470378e+01   7.513131e+01
  -1.044811e+02   1.119210e+02
  -1.770626e+02   6.369857e+01
  -1.431794e+02  -5.612908e+01
  -2.850436e+01  -1.560493e+02
   7.510539e+01  -1.500217e+02
   1.098888e+02  -6.207487e+01
   7.893796e+01   1.931133e+01
   2.717544e+01   3.491518e+01
   1.247561e+00   9.812468e+00
   1.155827e+01   4.696477e+00
   3.087875e+01   4.354832e+01
   1.945073e+01   8.841611e+01
  -2.746754e+01   7.054384e+01
  -7.857261e+01  -1.562128e+01
  -7.735319e+01  -1.016022e+02
  -1.083232e+01  -1.077975e+02
   7.598581e+01  -2.589932e+01
   1.019898e+02   6.661272e+01
   3.596930e+01   9.703493e+01
  -5.982818e+01   5.630988e+01
  -9.528666e+01  -5.687233e+00
  -4.210450e+01  -4.619493e+01
   2.785234e+01  -5.139197e+01
   3.065710e+01  -3.015926e+01
  -3.260506e+01  -6.341844e-01
  -6.871019e+01   6.709614e+00
  -1.705678e+01  -2.404133e+01
   7.480965e+01  -6.416402e+01
   1.148010e+02  -6.135510e+01
   6.662944e+01   9.112800e+00
  -9.092879e+00   8.020581e+01
  -4.656021e+01   8.097359e+01
  -3.605177e+01   9.462790e+00
  -3.380773e+00  -4.978003e+01
   2.068936e+01  -4.002413e+01
   3.146942e+01   1.636247e+01
   2.676560e+01   4.986946e+01
   5.183174e-01   3.086907e+01
  -3.027415e+01  -6.855358e+00
  -3.919621e+01  -1.964819e+01
  -2.002526e+01  -1.746843e+00
   3.522538e+00   1.450093e+01
   7.201429e+00   3.815505e-01
   3.374795e+00  -3.418556e+01
   1.134631e+01  -4.431162e+01
   3.066797e+01  -1.002909e+01
   3.176299e+01   3.954001e+01
   9.402881e-01   5.488403e+01
  -4.118948e+01   1.840600e+01
  -5.401349e+01  -3.511402e+01
  -1.294217e+01  -5.856540e+01
   5.547231e+01  -3.373159e+01
   8.902638e+01   1.249844e+01
   4.821554e+01   4.133439e+01
  -2.635335e+01   4.144536e+01
  -6.091501e+01   2.385290e+01
  -2.225195e+01   6.651824e+00
   3.415262e+01   2.335451e+00
   3.339914e+01   1.436181e+01
  -2.864484e+01   2.810575e+01
  -8.336920e+01   1.831761e+01
