
 $NMID
 id='ANONYMOUS ', fmtdat='(2E16.6)'
 volume=1.0
 tramp=1.0
 $END
   3.881355e+03  -9.864622e+01
   2.390026e+03   2.254893e+03
  -3.418312e+02   2.444636e+03
  -1.642663e+03   1.035867e+03
  -8.698009e+02  -3.155387e+02
   3.947379e+02  -4.493153e+02
   6.511910e+02   2.917248e+02
   5.098540e+01   8.324171e+02
  -6.400858e+02   6.777872e+02
  -7.751382e+02  -1.656884e+01
  -4.044512e+02  -6.841155e+02
   1.496878e+02  -7.475032e+02
   5.051251e+02  -1.165666e+02
   3.219632e+02   6.004240e+02
  -2.087855e+02   6.563517e+02
  -5.338902e+02   2.691482e+01
  -2.723711e+02  -5.910178e+02
   2.481470e+02  -5.958113e+02
   5.172932e+02  -1.256876e+02
   3.717616e+02   2.800073e+02
   5.069107e+01   3.859126e+02
  -1.881546e+02   2.282193e+02
  -1.536301e+02   2.742862e+01
   1.350919e+02  -1.442801e+01
   3.411157e+02   1.614819e+02
   1.146844e+02   3.805723e+02
  -4.499724e+02   3.057494e+02
  -7.242230e+02  -1.166366e+02
  -3.380167e+02  -4.647675e+02
   3.614956e+02  -3.712130e+02
   6.342895e+02   5.312135e+01
   2.793014e+02   4.174080e+02
  -2.631844e+02   4.408288e+02
  -4.826744e+02   1.639558e+02
  -3.527326e+02  -2.119352e+02
  -5.272318e+01  -3.942664e+02
   1.475237e+02  -2.202978e+02
   9.783834e+01   1.794886e+02
  -1.756849e+02   3.375182e+02
  -3.695511e+02  -5.905688e+01
  -1.852304e+02  -6.024635e+02
   2.753987e+02  -5.922489e+02
   4.931432e+02   3.241865e+00
   2.142812e+02   4.500764e+02
  -2.332604e+02   2.439682e+02
  -3.106900e+02  -2.942280e+02
   6.148063e+01  -4.763748e+02
   4.981366e+02  -1.257525e+02
   5.374020e+02   3.531465e+02
   1.569831e+02   5.228607e+02
  -3.408591e+02   3.014790e+02
  -5.703471e+02  -7.406988e+01
  -3.386918e+02  -3.280893e+02
   1.219389e+02  -3.179700e+02
   3.780225e+02  -6.510976e+01
   2.211659e+02   1.226315e+02
  -7.224942e+01   7.780444e+01
  -1.084127e+02  -1.014040e+02
   1.302036e+02  -1.310225e+02
   2.850525e+02   6.257152e+01
   1.290374e+02   2.522715e+02
  -1.736750e+02   2.365453e+02
  -3.147205e+02   9.252332e+01
  -2.081115e+02  -8.438672e+01
   2.116468e+01  -2.415470e+02
   2.148941e+02  -3.142209e+02
   3.081260e+02  -1.948627e+02
   2.527444e+02   1.244477e+02
   8.281742e+01   3.671232e+02
  -5.440737e+01   3.336653e+02
  -7.319521e+01   1.179276e+02
  -2.202206e+01   2.686694e+01
  -6.830860e+01   9.163214e+01
  -1.938719e+02   1.116723e+02
  -2.464739e+02  -5.625924e+01
  -1.345286e+02  -2.418933e+02
   6.613271e+01  -2.220124e+02
   1.982384e+02  -4.106967e+00
   1.708074e+02   2.125698e+02
  -1.321557e+01   2.602854e+02
  -2.366923e+02   9.139649e+01
  -3.273834e+02  -1.537408e+02
  -1.744821e+02  -3.082389e+02
   7.783971e+01  -2.686683e+02
   1.969490e+02  -1.165819e+02
   1.362895e+02  -2.431135e+01
   9.401490e+01  -4.319214e+01
   2.179592e+02  -6.003821e+01
   3.819881e+02   5.341403e+01
   3.156091e+02   2.640833e+02
  -1.511797e+00   4.127725e+02
  -3.356683e+02   3.804213e+02
  -4.522828e+02   1.765952e+02
  -2.951139e+02  -9.276395e+01
  -3.562352e+01  -2.625227e+02
   1.131636e+02  -2.139735e+02
   4.892532e+01  -2.720782e+01
  -1.080094e+02   8.557319e+01
  -1.596477e+02  -9.575141e+00
  -3.322713e+01  -1.626131e+02
   1.372350e+02  -1.302954e+02
   1.416065e+02   5.658901e+01
  -2.361666e+01   1.616478e+02
  -1.735724e+02   2.149426e+01
  -1.478976e+02  -2.288396e+02
   2.207700e+01  -3.267008e+02
   2.134370e+02  -1.904657e+02
   3.119421e+02   5.317577e+01
   2.636087e+02   2.326967e+02
   7.858372e+01   2.588168e+02
  -1.109397e+02   1.479170e+02
  -1.640636e+02   1.570624e+01
  -5.102566e+01  -2.775617e+01
   6.071486e+01   4.175211e+01
   2.204043e+01   1.129993e+02
  -1.124663e+02   8.496540e+01
  -1.577991e+02  -1.492195e+01
  -4.800895e+01  -6.269282e+01
   7.596211e+01  -1.100318e+01
   5.031230e+01   7.325483e+01
  -1.181844e+02   8.129761e+01
  -2.718086e+02  -6.799549e+00
  -2.487271e+02  -1.408867e+02
  -4.639715e+01  -2.412361e+02
   1.810413e+02  -2.363343e+02
   2.577688e+02  -1.117381e+02
   1.458037e+02   4.390930e+01
  -2.011610e+01   9.220662e+01
  -7.351721e+01   3.269332e+00
   3.817713e+01  -8.860576e+01
   1.809095e+02  -4.944567e+01
   1.931801e+02   9.705147e+01
   5.981112e+01   1.932659e+02
  -8.973756e+01   1.471919e+02
  -1.300865e+02   2.595628e+01
  -5.559272e+01  -3.888768e+01
   3.230613e+01   4.108529e+00
   3.251494e+01   8.464733e+01
  -7.548841e+01   1.060693e+02
  -1.878646e+02   2.187665e+01
  -1.763679e+02  -1.190478e+02
  -2.057671e+01  -2.000550e+02
   1.447331e+02  -1.501062e+02
   1.771387e+02  -1.191063e+01
   6.090631e+01   1.001354e+02
  -5.905925e+01   1.002205e+02
  -7.492660e+01   2.845756e+01
  -1.263353e+01  -2.430750e+01
   2.345621e+01  -1.450097e+01
  -7.154581e+00   1.148707e+01
  -6.850007e+01  -4.343149e+00
  -8.407563e+01  -7.638464e+01
  -1.218256e+01  -1.511825e+02
   1.226624e+02  -1.418684e+02
   2.160756e+02  -1.805339e+01
   1.851908e+02   1.444911e+02
   3.619936e+01   2.201007e+02
  -1.006509e+02   1.533313e+02
  -1.267938e+02   2.310477e+01
  -6.833649e+01  -5.024772e+01
  -2.652947e+01  -3.354617e+01
  -4.715674e+01   8.996474e+00
  -7.041813e+01   3.138499e+00
  -3.924414e+01  -4.652955e+01
   3.933368e+01  -8.180558e+01
   9.707115e+01  -5.253596e+01
   8.326536e+01   3.485521e+01
  -1.057857e+01   1.034994e+02
  -1.330469e+02   8.223491e+01
  -1.813910e+02  -4.402649e+01
  -8.698689e+01  -1.864143e+02
   1.035768e+02  -2.117840e+02
   2.437346e+02  -8.771233e+01
   2.343007e+02   7.604248e+01
   1.005972e+02   1.616092e+02
  -3.308008e+01   1.385869e+02
  -8.574341e+01   8.124275e+01
  -7.117360e+01   6.570904e+01
  -5.752643e+01   8.394934e+01
  -8.200541e+01   6.858236e+01
  -1.187460e+02  -1.584673e+01
  -1.139708e+02  -1.383056e+02
  -3.170426e+01  -2.084341e+02
   8.892559e+01  -1.622058e+02
   1.634141e+02  -2.145486e+01
   1.267898e+02   1.125635e+02
   1.758635e+01   1.476659e+02
  -6.093873e+01   8.286881e+01
  -5.742845e+01  -2.721588e+00
  -3.129001e+00  -4.178556e+01
   1.361789e+01  -3.179359e+01
  -3.283027e+01  -1.184020e+01
  -7.465242e+01  -1.684136e+01
  -4.060849e+01  -3.723781e+01
   6.222238e+01  -3.699941e+01
   1.511237e+02  -3.630374e+00
   1.339747e+02   5.312761e+01
   9.286302e+00   8.824186e+01
  -1.171117e+02   7.184469e+01
  -1.361614e+02   1.514357e+01
  -4.698878e+01  -4.130113e+01
   5.460166e+01  -3.815030e+01
   7.187486e+01   1.697237e+01
   1.270846e+01   6.391719e+01
  -4.686400e+01   5.458454e+01
  -5.860489e+01  -1.376209e+00
  -4.631335e+01  -4.353194e+01
  -4.324760e+01  -3.038787e+01
  -5.926325e+01   1.688260e+00
  -6.402248e+01  -2.233959e+00
  -3.694070e+01  -6.549819e+01
   2.536044e+01  -1.376821e+02
   1.052468e+02  -1.326915e+02
   1.528520e+02  -3.576001e+01
   1.170281e+02   8.032732e+01
   6.816638e+00   1.175545e+02
  -7.861188e+01   5.995525e+01
  -5.713143e+01  -1.151025e+01
   5.244094e+01  -1.986234e+01
   1.231608e+02   3.486658e+01
   7.032803e+01   9.640813e+01
  -6.729839e+01   1.005874e+02
  -1.681344e+02   5.004880e+01
  -1.466639e+02  -2.841995e+01
  -3.553281e+01  -8.031886e+01
   5.747211e+01  -6.402958e+01
   4.872470e+01  -6.062566e+00
  -3.406822e+01   2.671673e+01
  -8.499771e+01  -1.706009e+01
  -3.498799e+01  -1.080354e+02
   7.624539e+01  -1.407714e+02
   1.533217e+02  -6.264610e+01
   1.186521e+02   8.538918e+01
   1.005144e+01   1.797388e+02
  -7.542034e+01   1.288853e+02
  -9.483789e+01  -4.144271e+00
  -5.243255e+01  -1.029621e+02
   4.792429e+00  -9.425200e+01
   4.243443e+01  -1.916736e+01
   4.450657e+01   2.731562e+01
   2.151795e+01   7.051551e+00
   3.965055e+00  -1.832160e+01
   2.328603e+01   1.448970e+01
   5.476026e+01   8.479053e+01
   3.775775e+01   1.011864e+02
  -4.572859e+01   4.440449e+01
  -1.278593e+02  -3.278699e+01
  -1.173310e+02  -6.525018e+01
  -1.690531e+01  -4.859229e+01
   7.792427e+01  -2.342525e+01
   7.802267e+01  -9.042097e+00
   1.292231e+01   6.445848e+00
  -3.165348e+01   2.172059e+01
  -1.354084e+01   1.797237e+01
   1.774754e+01  -1.128670e+00
  -3.453539e+00  -7.056830e+00
  -6.721920e+01  -1.046679e+00
  -8.761787e+01  -1.981038e+01
  -1.532144e+01  -7.370010e+01
   1.025418e+02  -1.075229e+02
   1.724819e+02  -5.907429e+01
   1.364251e+02   5.586758e+01
   2.522666e+01   1.481357e+02
  -7.498898e+01   1.386800e+02
  -1.055516e+02   5.684287e+01
  -7.366358e+01  -2.039550e+01
  -2.461881e+01  -3.523223e+01
   5.686495e-01  -1.052932e+01
  -1.084745e+01  -4.302774e+00
  -2.927397e+01  -4.269602e+01
  -2.001520e+01  -8.451944e+01
   2.606633e+01  -6.683063e+01
   7.521556e+01   1.500007e+01
   7.328020e+01   9.584139e+01
   8.716317e+00   1.002066e+02
  -7.202455e+01   2.369661e+01
  -9.456475e+01  -6.418264e+01
  -3.225025e+01  -9.176818e+01
   5.893806e+01  -5.257867e+01
   9.068861e+01   7.308117e+00
   3.899385e+01   4.628027e+01
  -2.769873e+01   5.003754e+01
  -2.951260e+01   2.766684e+01
   2.812284e+01  -2.223912e-02
   6.114911e+01  -8.002150e+00
   1.527620e+01   2.189965e+01
  -7.110986e+01   6.082851e+01
  -1.054288e+02   5.601066e+01
  -6.019889e+01  -1.047786e+01
   1.303265e+01  -7.677156e+01
   4.726201e+01  -7.439065e+01
   3.662823e+01  -6.670612e+00
   3.700447e+00   4.928735e+01
  -2.173213e+01   4.023009e+01
  -3.292362e+01  -1.381388e+01
  -2.475976e+01  -4.861957e+01
   1.397652e+00  -3.155256e+01
   3.019261e+01   5.771751e+00
   3.734159e+01   2.012071e+01
   2.004206e+01   1.813162e+00
  -2.455706e+00  -1.517791e+01
  -7.102728e+00  -2.649794e+00
  -1.627188e+00   3.441021e+01
  -8.506083e+00   4.401082e+01
  -2.937019e+01   1.350586e+01
  -3.297088e+01  -3.706144e+01
  -5.200404e+00  -5.527532e+01
   3.981664e+01  -2.041574e+01
   5.534773e+01   3.342685e+01
   1.632304e+01   5.737597e+01
  -5.129277e+01   3.322306e+01
  -8.544121e+01  -1.078034e+01
  -4.644601e+01  -3.826691e+01
   2.644389e+01  -3.890839e+01
   5.957667e+01  -2.251413e+01
   2.287654e+01  -4.750398e+00
  -3.235017e+01   2.878993e-01
  -3.462291e+01  -1.174997e+01
   2.429795e+01  -2.750396e+01
   7.932876e+01  -2.163641e+01
