
 $NMID
 id='ANONYMOUS ', fmtdat='(2E16.6)'
 volume=1.0
 tramp=1.0
 $END
  -3.493037e+03  -2.194437e+01
  -2.195556e+03  -2.158069e+03
   4.395287e+02  -2.199096e+03
   1.589612e+03  -9.303579e+02
   8.356225e+02   1.809937e+02
  -3.239430e+02   2.776477e+02
  -5.684846e+02  -2.774768e+02
   3.556153e+01  -7.599652e+02
   6.522679e+02  -6.106531e+02
   7.646209e+02   3.340562e+01
   3.883786e+02   6.692534e+02
  -1.628594e+02   7.428894e+02
  -4.468019e+02   1.492356e+02
  -2.849023e+02  -5.452785e+02
   1.946808e+02  -6.022080e+02
   4.796243e+02  -3.983933e+01
   2.499739e+02   5.601299e+02
  -2.198162e+02   5.880643e+02
  -5.143080e+02   1.632889e+02
  -3.809235e+02  -2.618160e+02
  -4.939873e+01  -3.862166e+02
   1.897710e+02  -2.240701e+02
   1.272520e+02  -1.542901e+01
  -1.352664e+02  -7.074391e+00
  -3.173138e+02  -2.137188e+02
  -7.098904e+01  -4.007185e+02
   4.403759e+02  -2.675989e+02
   6.791661e+02   1.475005e+02
   2.898237e+02   4.338386e+02
  -3.357027e+02   2.966007e+02
  -5.731938e+02  -1.278557e+02
  -2.356253e+02  -4.182542e+02
   2.730476e+02  -3.887072e+02
   5.047322e+02  -1.334257e+02
   3.658967e+02   1.923461e+02
   5.938440e+01   3.716349e+02
  -1.252260e+02   2.205324e+02
  -5.423384e+01  -1.476704e+02
   1.886822e+02  -2.671543e+02
   3.131031e+02   9.853401e+01
   7.779513e+01   5.629428e+02
  -3.256916e+02   5.254746e+02
  -4.376530e+02  -3.110069e+01
  -1.317030e+02  -4.269524e+02
   2.296035e+02  -2.205703e+02
   2.445783e+02   2.925965e+02
  -1.135655e+02   4.383836e+02
  -4.823587e+02   8.998143e+01
  -4.888664e+02  -3.854032e+02
  -1.246963e+02  -5.153684e+02
   3.450780e+02  -2.825508e+02
   5.353776e+02   7.507086e+01
   3.237948e+02   3.141286e+02
  -1.198931e+02   2.821743e+02
  -3.450865e+02   6.250750e+01
  -2.227633e+02  -1.185122e+02
   5.122371e+01  -5.471708e+01
   8.201411e+01   9.812140e+01
  -1.337668e+02   1.200125e+02
  -2.678821e+02  -6.773047e+01
  -1.142759e+02  -2.369574e+02
   1.785472e+02  -2.334470e+02
   3.148814e+02  -7.757523e+01
   2.098714e+02   9.213200e+01
  -2.998026e+01   2.413535e+02
  -2.584916e+02   3.194035e+02
  -3.522305e+02   1.632945e+02
  -2.464692e+02  -1.591235e+02
  -3.603993e+01  -3.837357e+02
   1.004268e+02  -3.299879e+02
   8.308028e+01  -1.309073e+02
   3.872661e+01  -4.263887e+01
   9.149318e+01  -8.582531e+01
   2.090963e+02  -7.676728e+01
   2.307437e+02   8.621542e+01
   1.046012e+02   2.480862e+02
  -8.492825e+01   2.131151e+02
  -1.925511e+02  -1.933253e+01
  -1.461003e+02  -2.360711e+02
   4.306521e+01  -2.574410e+02
   2.451855e+02  -7.564871e+01
   3.087486e+02   1.696122e+02
   1.571139e+02   3.084701e+02
  -7.712488e+01   2.697766e+02
  -1.921148e+02   1.225268e+02
  -1.474726e+02   3.849278e+01
  -1.216221e+02   4.552909e+01
  -2.388242e+02   4.050170e+01
  -3.686304e+02  -8.958068e+01
  -2.901834e+02  -2.876296e+02
   3.477190e+01  -4.184852e+02
   3.664497e+02  -3.681144e+02
   4.650317e+02  -1.503016e+02
   2.917921e+02   1.058521e+02
   3.114656e+01   2.550079e+02
  -1.096040e+02   2.081524e+02
  -4.507406e+01   3.709015e+01
   1.134165e+02  -5.191736e+01
   1.484320e+02   3.651933e+01
   1.579425e+01   1.569221e+02
  -1.408601e+02   1.250306e+02
  -1.348284e+02  -5.793872e+01
   2.692929e+01  -1.496402e+02
   1.639244e+02  -7.589397e+00
   1.374002e+02   2.264445e+02
  -3.893355e+01   3.185419e+02
  -2.293302e+02   1.765610e+02
  -3.146744e+02  -7.456075e+01
  -2.480154e+02  -2.476944e+02
  -5.996746e+01  -2.484067e+02
   1.231792e+02  -1.342875e+02
   1.554112e+02  -6.606020e+00
   4.467421e+01   2.445936e+01
  -5.231714e+01  -5.125232e+01
  -3.810230e+00  -1.150296e+02
   1.239895e+02  -7.417369e+01
   1.534208e+02   2.831417e+01
   3.850161e+01   6.246466e+01
  -7.753889e+01   1.068950e+00
  -4.146140e+01  -7.879426e+01
   1.320701e+02  -7.669574e+01
   2.762715e+02   2.292984e+01
   2.383593e+02   1.560769e+02
   2.940280e+01   2.488820e+02
  -2.023953e+02   2.303543e+02
  -2.684604e+02   9.573640e+01
  -1.405396e+02  -5.756127e+01
   2.918913e+01  -9.089973e+01
   7.289838e+01  -1.243280e-02
  -4.239382e+01   8.548702e+01
  -1.760630e+02   4.103032e+01
  -1.882732e+02  -1.012179e+02
  -5.544461e+01  -1.895615e+02
   9.290335e+01  -1.394763e+02
   1.293933e+02  -1.945270e+01
   5.073851e+01   3.804001e+01
  -3.135308e+01  -1.056869e+01
  -2.410304e+01  -9.157455e+01
   8.715572e+01  -1.050984e+02
   1.925435e+02  -9.085591e+00
   1.707852e+02   1.299606e+02
   6.636368e+00   2.036853e+02
  -1.585674e+02   1.424952e+02
  -1.758113e+02   7.144102e-01
  -5.546719e+01  -1.021552e+02
   6.435367e+01  -9.635874e+01
   7.432776e+01  -2.486282e+01
   9.822808e+00   2.399749e+01
  -2.899606e+01   1.269757e+01
   8.532546e+00  -1.659668e+01
   7.568587e+01   2.550339e+00
   9.013130e+01   8.594006e+01
   4.646643e+00   1.626123e+02
  -1.355676e+02   1.406674e+02
  -2.221598e+02   5.055915e+00
  -1.761857e+02  -1.568773e+02
  -2.670293e+01  -2.192888e+02
   1.031108e+02  -1.466195e+02
   1.266966e+02  -1.943950e+01
   6.714590e+01   5.171098e+01
   2.775636e+01   3.316707e+01
   4.782697e+01  -1.409454e+01
   7.758914e+01  -4.406147e+00
   4.434102e+01   5.293261e+01
  -4.422161e+01   8.920886e+01
  -1.108482e+02   5.387132e+01
  -8.856218e+01  -4.061906e+01
   2.072734e+01  -1.113292e+02
   1.467657e+02  -7.657424e+01
   1.854041e+02   6.058166e+01
   7.903567e+01   1.965108e+02
  -1.223228e+02   2.048545e+02
  -2.587656e+02   7.296681e+01
  -2.341716e+02  -9.241025e+01
  -9.160699e+01  -1.636327e+02
   4.107080e+01  -1.296612e+02
   8.806547e+01  -7.302508e+01
   7.259982e+01  -6.326936e+01
   6.308407e+01  -8.528370e+01
   8.813072e+01  -7.018529e+01
   1.213456e+02   2.151513e+01
   1.060378e+02   1.500207e+02
   1.698062e+01   2.154505e+02
  -1.026817e+02   1.555459e+02
  -1.656938e+02   5.647608e+00
  -1.172137e+02  -1.247040e+02
  -2.342636e+00  -1.495104e+02
   7.362707e+01  -7.462085e+01
   5.834672e+01   1.209837e+01
  -3.882853e+00   4.645347e+01
  -2.168840e+01   3.615410e+01
   2.656137e+01   1.434492e+01
   7.616893e+01   2.217250e+01
   4.296825e+01   3.736981e+01
  -6.924738e+01   3.190399e+01
  -1.589925e+02  -6.918572e+00
  -1.336957e+02  -5.847865e+01
  -1.626675e+00  -8.696404e+01
   1.244413e+02  -6.512029e+01
   1.372838e+02  -1.315243e+00
   3.782245e+01   4.478079e+01
  -5.685076e+01   3.639357e+01
  -6.893047e+01  -2.151686e+01
  -8.892195e+00  -6.764746e+01
   4.965497e+01  -5.592899e+01
   6.040000e+01   3.473409e+00
   4.439582e+01   4.826469e+01
   4.004451e+01   4.506601e+01
   5.359169e+01   7.015868e+00
   5.873001e+01   5.672793e+00
   3.274995e+01   6.706900e+01
  -3.704699e+01   1.359545e+02
  -1.250167e+02   1.300494e+02
  -1.685874e+02   2.178022e+01
  -1.165907e+02  -9.685940e+01
   3.725175e+00  -1.246654e+02
   8.668636e+01  -5.729488e+01
   5.515525e+01   1.302396e+01
  -5.662177e+01   1.362239e+01
  -1.230517e+02  -5.077900e+01
  -6.385925e+01  -1.067099e+02
   8.722995e+01  -9.724115e+01
   1.857058e+02  -3.628847e+01
   1.512985e+02   4.595370e+01
   2.806068e+01   8.363624e+01
  -6.353386e+01   6.064642e+01
  -4.785462e+01  -5.105967e-01
   3.748027e+01  -2.578629e+01
   8.592057e+01   2.356138e+01
   2.712171e+01   1.109975e+02
  -8.414549e+01   1.424956e+02
  -1.532064e+02   5.639995e+01
  -1.133729e+02  -9.442087e+01
  -7.164396e+00  -1.798054e+02
   7.849201e+01  -1.298857e+02
   9.660326e+01   1.152983e+01
   5.048820e+01   1.110908e+02
  -9.508688e+00   9.340155e+01
  -4.546814e+01   1.373523e+01
  -4.219276e+01  -2.913862e+01
  -1.848630e+01  -5.087851e+00
  -6.186867e+00   1.862110e+01
  -2.689747e+01  -1.927282e+01
  -5.184440e+01  -8.503115e+01
  -3.200477e+01  -1.008579e+02
   5.072240e+01  -3.812827e+01
   1.271581e+02   3.812937e+01
   1.090371e+02   6.532775e+01
   1.200759e+01   4.708515e+01
  -7.942172e+01   2.026233e+01
  -7.995317e+01   3.734567e+00
  -1.331304e+01  -1.057183e+01
   3.659537e+01  -2.018985e+01
   1.624038e+01  -1.293272e+01
  -1.838369e+01   1.640680e+00
   3.592216e+00   4.374216e+00
   6.931742e+01   2.972612e+00
   8.634630e+01   2.600378e+01
   1.148615e+01   7.489506e+01
  -1.105583e+02   1.036964e+02
  -1.775739e+02   5.556653e+01
  -1.368291e+02  -6.110947e+01
  -2.398272e+01  -1.509196e+02
   7.935102e+01  -1.427139e+02
   1.115237e+02  -5.662256e+01
   7.508206e+01   2.219562e+01
   2.363114e+01   3.671201e+01
  -4.420974e-01   1.123182e+01
   1.160686e+01   6.447927e+00
   2.947265e+01   4.684708e+01
   1.573996e+01   8.652121e+01
  -3.234395e+01   6.702031e+01
  -7.499003e+01  -2.009049e+01
  -7.017928e+01  -1.014558e+02
  -5.635203e+00  -1.046270e+02
   7.501249e+01  -2.360560e+01
   9.647762e+01   7.002398e+01
   3.092054e+01   9.666080e+01
  -6.183534e+01   5.435337e+01
  -9.308386e+01  -1.274796e+01
  -3.943460e+01  -5.163548e+01
   3.095037e+01  -5.160158e+01
   3.273225e+01  -2.468173e+01
  -2.905267e+01   5.448821e+00
  -6.631405e+01   8.024998e+00
  -1.857679e+01  -2.410981e+01
   7.337031e+01  -6.210466e+01
   1.126393e+02  -5.265349e+01
   6.479192e+01   1.574508e+01
  -1.547590e+01   7.983759e+01
  -5.360596e+01   7.467687e+01
  -3.766682e+01   7.543876e+00
  -2.592117e+00  -4.976153e+01
   2.519926e+01  -4.233598e+01
   3.312024e+01   1.487166e+01
   2.470169e+01   5.296748e+01
  -2.207326e+00   3.606574e+01
  -3.128320e+01  -6.919615e+00
  -3.860360e+01  -2.420613e+01
  -1.861363e+01  -5.489984e+00
   2.047545e+00   1.651784e+01
   6.076071e+00   3.060032e+00
   2.260362e+00  -3.087810e+01
   9.850778e+00  -4.596894e+01
   2.702671e+01  -1.621303e+01
   3.421320e+01   3.808917e+01
   6.857603e+00   5.708243e+01
  -4.004681e+01   2.141147e+01
  -5.740554e+01  -3.612025e+01
  -1.681603e+01  -5.826460e+01
   5.264270e+01  -3.126336e+01
   8.492490e+01   1.509947e+01
   4.625647e+01   4.123921e+01
  -2.719206e+01   3.888179e+01
  -6.150809e+01   2.013946e+01
  -2.356637e+01   4.182439e+00
   3.222761e+01   2.830423e+00
   3.247771e+01   1.201942e+01
  -2.658693e+01   2.483584e+01
  -7.844945e+01   1.434602e+01
