
 $NMID
 id='ANONYMOUS ', fmtdat='(2E16.6)'
 volume=1.0
 tramp=1.0
 $END
  -4.985352e+03  -4.322288e+02
  -2.507739e+03  -3.257319e+03
   1.246058e+03  -3.028204e+03
   2.586602e+03  -7.286548e+02
   1.060371e+03   9.679908e+02
  -8.390556e+02   6.814219e+02
  -1.055956e+03  -5.840503e+02
   6.154458e+01  -1.248856e+03
   1.004166e+03  -8.252159e+02
   1.048667e+03   1.944155e+02
   4.413209e+02   9.982302e+02
  -3.683015e+02   9.838735e+02
  -7.449386e+02   8.081945e+01
  -3.823527e+02  -8.306819e+02
   3.697404e+02  -8.319850e+02
   6.733167e+02   4.443677e+01
   2.517376e+02   7.800613e+02
  -4.240609e+02   6.798711e+02
  -6.611744e+02   5.678380e+01
  -4.025996e+02  -4.303699e+02
   3.013445e+01  -4.908037e+02
   3.024954e+02  -2.913445e+02
   2.482220e+02   1.607335e+01
  -1.111892e+02   1.145685e+02
  -4.351206e+02  -1.280136e+02
  -2.037135e+02  -4.821834e+02
   5.085899e+02  -4.220108e+02
   9.164558e+02   1.274379e+02
   4.475468e+02   6.175889e+02
  -4.459353e+02   5.104598e+02
  -8.066068e+02  -7.483041e+01
  -3.712241e+02  -5.462744e+02
   3.183584e+02  -5.648576e+02
   6.385374e+02  -1.927443e+02
   4.726656e+02   2.727225e+02
   4.854054e+01   5.347311e+02
  -2.494288e+02   3.151717e+02
  -1.856895e+02  -2.628806e+02
   2.134696e+02  -4.796933e+02
   4.936697e+02   4.737100e+01
   2.262421e+02   7.664486e+02
  -4.025247e+02   7.506974e+02
  -6.712403e+02  -2.668733e+01
  -2.491991e+02  -6.412505e+02
   3.613295e+02  -3.585373e+02
   4.247833e+02   3.597916e+02
  -8.907663e+01   6.104928e+02
  -6.090215e+02   1.447381e+02
  -6.432826e+02  -4.790097e+02
  -1.539842e+02  -6.591089e+02
   4.476463e+02  -3.737884e+02
   6.886917e+02   1.218268e+02
   3.886672e+02   4.693520e+02
  -1.892127e+02   4.072237e+02
  -5.053546e+02   1.910256e+01
  -2.599015e+02  -2.642940e+02
   1.453858e+02  -1.238216e+02
   1.668289e+02   1.832522e+02
  -1.873539e+02   2.087121e+02
  -3.936585e+02  -9.779939e+01
  -1.543210e+02  -3.429448e+02
   2.295857e+02  -2.776295e+02
   3.612315e+02  -6.735500e+01
   2.139824e+02   9.778309e+01
  -2.756419e+01   2.365098e+02
  -2.559793e+02   3.346728e+02
  -3.930017e+02   1.977637e+02
  -3.231352e+02  -1.917974e+02
  -5.211295e+01  -4.942980e+02
   1.923002e+02  -4.143842e+02
   1.723498e+02  -1.037449e+02
   3.297631e+01   3.024452e+01
   3.363013e+01  -8.420597e+01
   2.079751e+02  -1.399967e+02
   3.118802e+02   5.116070e+01
   1.771053e+02   2.985459e+02
  -8.316562e+01   2.926561e+02
  -2.568366e+02   2.407665e+01
  -2.204291e+02  -2.596274e+02
   1.368642e+01  -3.275533e+02
   2.934411e+02  -1.264700e+02
   3.876498e+02   1.953181e+02
   1.842970e+02   3.991323e+02
  -1.300930e+02   3.356450e+02
  -2.619000e+02   1.161274e+02
  -1.702854e+02  -1.716270e+01
  -1.030964e+02   1.876480e+01
  -2.361924e+02   6.267036e+01
  -4.133746e+02  -7.606825e+01
  -3.452029e+02  -3.127515e+02
   1.515711e+01  -4.842299e+02
   4.060826e+02  -4.454162e+02
   5.445294e+02  -1.994545e+02
   3.729766e+02   1.164949e+02
   4.893499e+01   3.283554e+02
  -1.589574e+02   2.665988e+02
  -9.404991e+01   2.187110e+01
   1.277009e+02  -1.136683e+02
   2.242230e+02   2.008261e+01
   4.412128e+01   2.229033e+02
  -1.908766e+02   1.919827e+02
  -1.965760e+02  -7.728733e+01
   3.212251e+01  -2.104846e+02
   2.117508e+02  -2.467405e+01
   1.600550e+02   2.753405e+02
  -5.346770e+01   3.691803e+02
  -2.532968e+02   1.945976e+02
  -3.400875e+02  -8.103567e+01
  -2.861275e+02  -2.675594e+02
  -9.701571e+01  -2.893267e+02
   1.270267e+02  -1.732967e+02
   1.924330e+02  -1.850445e+01
   6.404819e+01   4.110122e+01
  -7.104329e+01  -4.104019e+01
  -2.711318e+01  -1.382567e+02
   1.384555e+02  -1.079780e+02
   1.941009e+02   1.641405e+01
   6.802234e+01   8.244688e+01
  -7.955822e+01   1.961663e+01
  -5.543195e+01  -7.389817e+01
   1.245815e+02  -8.095045e+01
   2.886864e+02   1.332689e+01
   2.769963e+02   1.545742e+02
   6.119354e+01   2.746533e+02
  -2.045495e+02   2.781472e+02
  -3.130744e+02   1.282172e+02
  -1.921902e+02  -6.528214e+01
   2.679852e+01  -1.257482e+02
   1.048179e+02  -1.013760e+01
  -3.181174e+01   1.092549e+02
  -2.115006e+02   6.222049e+01
  -2.321470e+02  -1.165650e+02
  -6.799903e+01  -2.319305e+02
   1.116835e+02  -1.700719e+02
   1.613057e+02  -2.313021e+01
   7.999979e+01   5.082399e+01
  -2.544853e+01   9.650930e+00
  -3.827797e+01  -8.490063e+01
   7.546797e+01  -1.165566e+02
   2.085432e+02  -2.326042e+01
   2.003842e+02   1.433874e+02
   1.501783e+01   2.385805e+02
  -1.871430e+02   1.711354e+02
  -2.159406e+02  -4.532635e+00
  -6.909709e+01  -1.297640e+02
   7.785561e+01  -1.190202e+02
   9.515551e+01  -2.979820e+01
   2.457565e+01   2.901891e+01
  -1.980484e+01   2.332726e+01
   8.653656e+00  -3.468673e+00
   7.064306e+01   1.373949e+01
   8.662291e+01   8.996540e+01
   8.045885e+00   1.674880e+02
  -1.395850e+02   1.563658e+02
  -2.458371e+02   1.834861e+01
  -2.070862e+02  -1.690684e+02
  -3.535023e+01  -2.564817e+02
   1.222387e+02  -1.779341e+02
   1.473349e+02  -2.462040e+01
   7.357734e+01   6.173418e+01
   2.999076e+01   3.987786e+01
   5.770801e+01  -9.238912e+00
   8.328907e+01   7.676253e-01
   3.774910e+01   5.428316e+01
  -5.203351e+01   8.706310e+01
  -1.082446e+02   4.991302e+01
  -8.355074e+01  -3.898807e+01
   1.626427e+01  -1.110456e+02
   1.458669e+02  -8.426856e+01
   2.043884e+02   5.587145e+01
   1.067946e+02   2.145019e+02
  -1.115927e+02   2.367101e+02
  -2.831487e+02   9.339070e+01
  -2.741719e+02  -9.993637e+01
  -1.184923e+02  -1.950693e+02
   4.068278e+01  -1.577350e+02
   1.025884e+02  -8.773653e+01
   8.935387e+01  -7.695716e+01
   7.930234e+01  -9.684084e+01
   1.035227e+02  -7.455028e+01
   1.327753e+02   3.066388e+01
   1.159167e+02   1.670950e+02
   2.257623e+01   2.402925e+02
  -1.135627e+02   1.795851e+02
  -1.911917e+02   1.630572e+01
  -1.440659e+02  -1.372333e+02
  -1.676780e+01  -1.724139e+02
   7.446902e+01  -9.759344e+01
   6.677159e+01  -1.456754e+00
   4.053247e+00   4.325299e+01
  -8.317057e+00   3.778207e+01
   3.679036e+01   2.430503e+01
   8.161370e+01   2.899078e+01
   4.304461e+01   3.916297e+01
  -6.902612e+01   3.170944e+01
  -1.608328e+02  -8.218407e+00
  -1.449588e+02  -5.817632e+01
  -1.695004e+01  -9.208649e+01
   1.257681e+02  -7.060656e+01
   1.553858e+02  -7.165112e+00
   5.561180e+01   4.440367e+01
  -5.777767e+01   3.463876e+01
  -7.739317e+01  -2.219191e+01
  -4.940165e+00  -6.933010e+01
   5.951335e+01  -5.479013e+01
   6.507402e+01   8.033129e+00
   4.337617e+01   5.505658e+01
   4.676851e+01   4.820397e+01
   6.562684e+01   1.044951e+01
   6.315478e+01   1.001918e+01
   2.701767e+01   7.188157e+01
  -4.577775e+01   1.492366e+02
  -1.302592e+02   1.417159e+02
  -1.733841e+02   2.821135e+01
  -1.244006e+02  -1.012058e+02
  -2.489295e+00  -1.332009e+02
   9.170866e+01  -6.175708e+01
   5.926593e+01   1.940013e+01
  -6.244399e+01   1.585329e+01
  -1.425166e+02  -5.684861e+01
  -7.526987e+01  -1.125725e+02
   8.760946e+01  -1.106327e+02
   1.991807e+02  -4.171046e+01
   1.704860e+02   4.552205e+01
   3.484257e+01   9.160733e+01
  -6.798807e+01   6.954541e+01
  -5.294265e+01   2.683286e+00
   4.266567e+01  -2.806315e+01
   9.532818e+01   3.033696e+01
   2.919371e+01   1.292234e+02
  -1.089688e+02   1.563301e+02
  -1.833903e+02   5.555641e+01
  -1.276790e+02  -1.145448e+02
  -2.228596e+00  -2.077426e+02
   9.794597e+01  -1.476589e+02
   1.099802e+02   1.047694e+01
   5.906290e+01   1.268878e+02
  -4.468543e+00   1.173398e+02
  -4.999387e+01   2.389702e+01
  -5.671715e+01  -3.602433e+01
  -2.932456e+01  -1.093792e+01
  -6.302317e+00   2.175070e+01
  -2.289102e+01  -1.476323e+01
  -5.295115e+01  -9.535462e+01
  -3.927446e+01  -1.190156e+02
   4.936945e+01  -4.874889e+01
   1.426068e+02   4.994615e+01
   1.309755e+02   8.354510e+01
   1.697812e+01   5.215784e+01
  -9.370665e+01   1.796837e+01
  -9.458502e+01  -3.113157e-01
  -1.254368e+01  -1.120145e+01
   4.355903e+01  -2.278953e+01
   1.774422e+01  -1.838568e+01
  -2.018351e+01  -1.115040e+00
   9.229085e+00   1.054592e+01
   8.104672e+01   1.241284e+01
   9.462322e+01   3.572027e+01
   3.693341e+00   8.429677e+01
  -1.325787e+02   1.113149e+02
  -1.976494e+02   5.259078e+01
  -1.467088e+02  -7.709463e+01
  -1.956536e+01  -1.726710e+02
   9.060971e+01  -1.558898e+02
   1.235410e+02  -5.649800e+01
   8.446013e+01   2.635798e+01
   2.547273e+01   4.078492e+01
  -3.344052e+00   9.905503e+00
   9.237640e+00   3.630967e+00
   3.179002e+01   4.970380e+01
   1.717281e+01   9.795972e+01
  -3.714187e+01   7.473869e+01
  -8.530395e+01  -2.881629e+01
  -7.396322e+01  -1.245989e+02
   5.205546e+00  -1.208996e+02
   9.070793e+01  -1.749909e+01
   1.052464e+02   8.863814e+01
   2.805959e+01   1.115679e+02
  -7.414304e+01   5.526920e+01
  -1.032636e+02  -1.771168e+01
  -3.928242e+01  -5.464616e+01
   3.589462e+01  -5.250234e+01
   3.247392e+01  -2.931767e+01
  -3.721634e+01  -1.363067e+00
  -7.461792e+01   6.119576e+00
  -1.624976e+01  -2.478414e+01
   8.440040e+01  -6.392362e+01
   1.238414e+02  -5.743977e+01
   6.717905e+01   1.424240e+01
  -2.199921e+01   8.571119e+01
  -6.279938e+01   8.134797e+01
  -3.954744e+01   2.544869e+00
   3.337332e+00  -6.032398e+01
   3.159356e+01  -4.340752e+01
   3.700969e+01   2.269980e+01
   2.347452e+01   5.886127e+01
  -7.074420e+00   3.354583e+01
  -3.457173e+01  -1.288597e+01
  -3.922402e+01  -2.659212e+01
  -2.131237e+01  -4.057315e+00
   1.272766e+00   1.526493e+01
   9.051595e+00  -3.430942e+00
   1.218613e+01  -3.710517e+01
   2.245635e+01  -4.507307e+01
   3.202935e+01  -4.582724e+00
   2.866606e+01   5.070603e+01
  -4.964868e+00   6.569545e+01
  -4.774012e+01   2.066834e+01
  -5.881351e+01  -4.432110e+01
  -1.479388e+01  -6.682783e+01
   5.703897e+01  -3.147303e+01
   9.230460e+01   2.104826e+01
   5.069979e+01   4.935560e+01
  -3.156756e+01   4.189283e+01
  -6.993017e+01   1.812235e+01
  -2.562420e+01   3.340187e+00
   4.076952e+01   5.290767e+00
   4.064460e+01   2.115207e+01
  -3.356702e+01   3.337708e+01
  -1.003469e+02   1.653501e+01
