
 $NMID
 id='ANONYMOUS ', fmtdat='(2E16.6)'
 volume=1.0
 tramp=1.0
 $END
   3.641797e+03  -5.557952e+01
   2.240865e+03   2.052816e+03
  -3.882500e+02   2.428305e+03
  -1.651057e+03   1.017485e+03
  -8.935346e+02  -2.652952e+02
   3.841205e+02  -3.849698e+02
   6.654319e+02   2.814620e+02
   3.856806e+01   8.520344e+02
  -6.434925e+02   7.210391e+02
  -8.198014e+02   1.558836e+01
  -4.604838e+02  -6.926146e+02
   1.194771e+02  -7.931122e+02
   4.852983e+02  -1.423461e+02
   3.049290e+02   6.076855e+02
  -2.192930e+02   6.702445e+02
  -5.549337e+02   2.893265e+01
  -2.889258e+02  -6.044848e+02
   2.353489e+02  -6.450452e+02
   5.217940e+02  -1.674720e+02
   4.185811e+02   2.653505e+02
   7.488449e+01   4.031745e+02
  -1.756820e+02   2.563932e+02
  -1.643606e+02   4.962422e+01
   1.428505e+02   3.961025e+00
   3.483125e+02   1.706425e+02
   1.157707e+02   3.968525e+02
  -4.675418e+02   3.216226e+02
  -7.455430e+02  -1.087982e+02
  -3.594449e+02  -4.873567e+02
   3.672910e+02  -4.018585e+02
   6.531088e+02   3.563181e+01
   2.987799e+02   4.312611e+02
  -2.603378e+02   4.803680e+02
  -5.041960e+02   2.110122e+02
  -3.515989e+02  -1.910458e+02
  -6.550355e+01  -4.153077e+02
   1.381644e+02  -2.322762e+02
   8.164487e+01   1.832288e+02
  -1.762580e+02   3.182915e+02
  -3.530400e+02  -6.556570e+01
  -1.705328e+02  -6.026540e+02
   2.859650e+02  -5.902227e+02
   5.020464e+02  -4.304563e+00
   2.206063e+02   4.670510e+02
  -2.296500e+02   2.518538e+02
  -2.967515e+02  -3.145157e+02
   8.418964e+01  -4.949987e+02
   5.282071e+02  -9.518304e+01
   5.663437e+02   3.935994e+02
   1.670410e+02   5.590289e+02
  -3.492770e+02   3.236222e+02
  -5.916409e+02  -6.401820e+01
  -3.649089e+02  -3.299484e+02
   1.094987e+02  -3.026764e+02
   3.889767e+02  -7.076100e+01
   2.356562e+02   1.201251e+02
  -7.040217e+01   7.211881e+01
  -1.160673e+02  -1.231451e+02
   1.490252e+02  -1.414256e+02
   3.080621e+02   6.408539e+01
   1.545455e+02   2.660561e+02
  -1.703162e+02   2.647876e+02
  -3.408568e+02   1.107636e+02
  -2.344421e+02  -8.693716e+01
   1.606899e+01  -2.705230e+02
   2.467857e+02  -3.633362e+02
   3.528386e+02  -2.131156e+02
   2.799979e+02   1.531485e+02
   6.347891e+01   4.133569e+02
  -9.911333e+01   3.540022e+02
  -8.945247e+01   1.227832e+02
  -1.879173e+01   3.160944e+01
  -7.322909e+01   1.036383e+02
  -2.152004e+02   1.086477e+02
  -2.729817e+02  -8.050499e+01
  -1.407895e+02  -2.764632e+02
   8.040915e+01  -2.463046e+02
   2.219086e+02   1.036555e+01
   1.773590e+02   2.496538e+02
  -2.477540e+01   2.816921e+02
  -2.628343e+02   1.007654e+02
  -3.470258e+02  -1.619442e+02
  -1.880483e+02  -3.260311e+02
   7.193938e+01  -2.996632e+02
   1.967048e+02  -1.438415e+02
   1.442854e+02  -4.251724e+01
   1.135302e+02  -4.941415e+01
   2.587075e+02  -5.399170e+01
   4.167677e+02   5.921437e+01
   3.382318e+02   2.917292e+02
  -7.748154e+00   4.543652e+02
  -3.757028e+02   4.373088e+02
  -4.983793e+02   2.029597e+02
  -3.253440e+02  -9.746924e+01
  -3.788859e+01  -2.809996e+02
   1.186968e+02  -2.361366e+02
   4.979505e+01  -3.691389e+01
  -1.178509e+02   7.499535e+01
  -1.725922e+02  -2.572884e+01
  -2.602969e+01  -1.783486e+02
   1.448030e+02  -1.357914e+02
   1.487628e+02   6.504216e+01
  -2.773565e+01   1.727170e+02
  -1.818935e+02   2.479238e+01
  -1.583922e+02  -2.399695e+02
   1.848965e+01  -3.517699e+02
   2.312493e+02  -2.106442e+02
   3.426519e+02   5.612605e+01
   2.903057e+02   2.506641e+02
   8.650455e+01   2.729334e+02
  -1.179907e+02   1.601994e+02
  -1.707087e+02   1.519272e+01
  -5.182369e+01  -2.897303e+01
   6.474537e+01   4.925034e+01
   1.674740e+01   1.266031e+02
  -1.294642e+02   9.017397e+01
  -1.677980e+02  -1.883116e+01
  -4.495522e+01  -7.066645e+01
   8.685700e+01  -9.665382e+00
   5.340579e+01   8.528857e+01
  -1.327116e+02   9.919788e+01
  -2.975557e+02   1.145270e+01
  -2.724922e+02  -1.432804e+02
  -5.731703e+01  -2.628204e+02
   1.876026e+02  -2.561780e+02
   2.745544e+02  -1.140952e+02
   1.585177e+02   5.073120e+01
  -2.602617e+01   9.691298e+01
  -8.222541e+01  -2.211349e-01
   4.199852e+01  -9.636505e+01
   1.953171e+02  -4.794534e+01
   2.075509e+02   1.049244e+02
   6.839298e+01   2.042777e+02
  -9.226383e+01   1.531598e+02
  -1.404124e+02   2.723401e+01
  -6.278436e+01  -4.085587e+01
   3.574281e+01   6.433763e+00
   3.620694e+01   9.651930e+01
  -7.998548e+01   1.212024e+02
  -2.042394e+02   2.684398e+01
  -1.906008e+02  -1.254296e+02
  -2.069205e+01  -2.176069e+02
   1.601036e+02  -1.587416e+02
   1.838517e+02  -8.927728e+00
   6.156975e+01   1.070471e+02
  -6.483595e+01   1.055070e+02
  -7.899318e+01   3.011848e+01
  -1.316503e+01  -2.749864e+01
   2.912600e+01  -1.715236e+01
  -7.178346e+00   1.561534e+01
  -7.750304e+01  -2.391073e+00
  -1.007821e+02  -8.697849e+01
  -1.598527e+01  -1.706923e+02
   1.356843e+02  -1.614498e+02
   2.441837e+02  -2.121826e+01
   2.065818e+02   1.558562e+02
   4.731462e+01   2.362693e+02
  -1.038606e+02   1.672416e+02
  -1.314669e+02   3.165221e+01
  -7.390396e+01  -4.702132e+01
  -3.301028e+01  -3.081617e+01
  -5.827724e+01   1.267274e+01
  -8.715676e+01   8.569778e+00
  -5.358885e+01  -5.361349e+01
   3.673702e+01  -1.014922e+02
   1.116211e+02  -6.918424e+01
   1.000402e+02   3.561210e+01
  -1.154905e+01   1.222552e+02
  -1.533155e+02   9.579504e+01
  -2.080626e+02  -5.331634e+01
  -1.011501e+02  -2.102648e+02
   1.110142e+02  -2.345584e+02
   2.691219e+02  -9.504025e+01
   2.557161e+02   8.437240e+01
   1.083760e+02   1.731965e+02
  -3.863311e+01   1.436692e+02
  -9.040486e+01   8.180524e+01
  -7.128671e+01   7.142842e+01
  -6.142628e+01   1.001054e+02
  -9.281120e+01   8.219551e+01
  -1.336457e+02  -1.946154e+01
  -1.218787e+02  -1.560347e+02
  -3.049199e+01  -2.281002e+02
   9.762137e+01  -1.715518e+02
   1.747994e+02  -1.969746e+01
   1.372672e+02   1.243122e+02
   1.841420e+01   1.660944e+02
  -7.513226e+01   9.528212e+01
  -6.676720e+01  -6.891047e+00
  -3.458909e+00  -5.030152e+01
   1.929738e+01  -3.399547e+01
  -3.027131e+01  -1.495893e+01
  -8.006454e+01  -1.976370e+01
  -4.766228e+01  -4.032667e+01
   6.767551e+01  -4.082277e+01
   1.706242e+02  -3.884255e-01
   1.513209e+02   5.989461e+01
   1.611881e+01   9.729836e+01
  -1.259713e+02   8.116995e+01
  -1.498310e+02   1.551803e+01
  -5.021244e+01  -4.583124e+01
   6.242449e+01  -4.553456e+01
   7.721357e+01   1.476206e+01
   1.450334e+01   7.303214e+01
  -5.207335e+01   6.463777e+01
  -6.591973e+01   2.642569e-01
  -4.931908e+01  -5.439947e+01
  -4.239201e+01  -4.300476e+01
  -5.762904e+01  -2.437871e-01
  -6.888761e+01   3.317129e+00
  -4.329659e+01  -6.807733e+01
   2.543842e+01  -1.511886e+02
   1.168093e+02  -1.470592e+02
   1.728820e+02  -4.058948e+01
   1.334977e+02   8.972971e+01
   1.167855e+01   1.310057e+02
  -8.816958e+01   6.984346e+01
  -6.460138e+01  -1.218831e+01
   5.581410e+01  -2.166603e+01
   1.401897e+02   3.689696e+01
   7.903007e+01   1.133653e+02
  -7.911186e+01   1.195402e+02
  -1.977906e+02   5.647778e+01
  -1.670254e+02  -3.556572e+01
  -3.923411e+01  -9.105286e+01
   6.043216e+01  -7.256771e+01
   4.821142e+01  -5.505830e+00
  -3.929485e+01   2.986731e+01
  -9.143548e+01  -2.040077e+01
  -3.376591e+01  -1.165251e+02
   8.530330e+01  -1.600410e+02
   1.619399e+02  -6.925484e+01
   1.289337e+02   9.692529e+01
   1.400279e+01   1.955798e+02
  -8.300118e+01   1.482865e+02
  -1.049612e+02  -6.149303e+00
  -5.678733e+01  -1.220903e+02
   1.102138e+01  -1.062745e+02
   5.139076e+01  -1.550667e+01
   4.962915e+01   3.498802e+01
   2.182190e+01   9.904655e+00
   4.186310e+00  -2.043931e+01
   2.418734e+01   1.543361e+01
   5.943013e+01   8.747716e+01
   4.110287e+01   1.101902e+02
  -4.979136e+01   4.885751e+01
  -1.422957e+02  -3.561517e+01
  -1.315942e+02  -6.864572e+01
  -2.144257e+01  -5.438320e+01
   8.606174e+01  -2.551253e+01
   8.877902e+01  -9.003788e+00
   1.317193e+01   8.425370e+00
  -3.570427e+01   2.277749e+01
  -1.777456e+01   1.704121e+01
   1.732723e+01  -1.240262e+00
  -5.580033e+00  -9.599277e+00
  -7.286921e+01  -3.141964e+00
  -9.304219e+01  -2.226275e+01
  -1.455103e+01  -8.130954e+01
   1.143702e+02  -1.186741e+02
   1.887811e+02  -6.622083e+01
   1.482547e+02   5.878079e+01
   3.206794e+01   1.612096e+02
  -7.727970e+01   1.552181e+02
  -1.158154e+02   6.351966e+01
  -8.200523e+01  -1.877791e+01
  -2.679815e+01  -3.683134e+01
  -1.700032e-01  -1.046244e+01
  -1.279527e+01  -5.436067e+00
  -3.305366e+01  -4.562369e+01
  -2.209131e+01  -8.940731e+01
   2.706720e+01  -7.329422e+01
   8.151789e+01   1.546682e+01
   8.128710e+01   1.059870e+02
   1.070367e+01   1.128881e+02
  -8.075377e+01   2.934795e+01
  -1.089888e+02  -6.881275e+01
  -4.007704e+01  -1.042875e+02
   6.426144e+01  -6.240068e+01
   1.023966e+02   5.394109e+00
   4.433100e+01   5.276921e+01
  -3.184727e+01   5.760612e+01
  -3.398565e+01   3.024276e+01
   2.900595e+01  -2.922920e+00
   6.762731e+01  -9.942606e+00
   1.543156e+01   2.727954e+01
  -7.668723e+01   7.029808e+01
  -1.156262e+02   5.673968e+01
  -6.826678e+01  -1.690203e+01
   1.229454e+01  -8.799544e+01
   5.408656e+01  -8.302727e+01
   4.126380e+01  -7.807044e+00
   5.470630e+00   5.523987e+01
  -2.329973e+01   4.593244e+01
  -3.670265e+01  -1.400686e+01
  -2.933703e+01  -5.261307e+01
   1.596215e+00  -3.502339e+01
   3.334130e+01   6.177122e+00
   4.147474e+01   2.301622e+01
   2.041643e+01   2.619926e+00
  -4.077047e+00  -1.604406e+01
  -8.921122e+00  -3.105445e+00
  -1.551979e+00   3.434164e+01
  -7.157569e+00   4.821643e+01
  -3.045492e+01   1.516392e+01
  -3.512447e+01  -3.910688e+01
  -5.625147e+00  -5.994306e+01
   4.093044e+01  -2.375954e+01
   5.941594e+01   3.494791e+01
   1.870788e+01   6.211624e+01
  -5.395554e+01   3.793827e+01
  -8.988194e+01  -1.136378e+01
  -5.108923e+01  -4.234803e+01
   2.711349e+01  -4.390459e+01
   6.532191e+01  -2.656006e+01
   2.621466e+01  -6.684359e+00
  -3.208050e+01   1.802071e-01
  -3.428985e+01  -1.185386e+01
   2.872204e+01  -2.770009e+01
   8.510182e+01  -1.891574e+01
