
 $NMID
 id='ANONYMOUS ', fmtdat='(2E16.6)'
 volume=1.0
 tramp=1.0
 $END
   3.606542e+03  -4.027212e+01
   2.351108e+03   1.992215e+03
  -2.407676e+02   2.482558e+03
  -1.634701e+03   1.140041e+03
  -1.067480e+03  -2.284355e+02
   2.091887e+02  -5.039527e+02
   6.628568e+02   2.042204e+02
   1.225409e+02   8.075778e+02
  -5.888301e+02   7.226853e+02
  -7.980560e+02   5.089637e+01
  -4.934791e+02  -6.443140e+02
   6.735434e+01  -7.587661e+02
   4.521669e+02  -2.015656e+02
   3.608745e+02   5.083652e+02
  -1.494408e+02   6.300074e+02
  -5.045341e+02   8.249186e+01
  -3.085183e+02  -5.643425e+02
   2.154869e+02  -6.457242e+02
   5.370700e+02  -2.070935e+02
   4.272089e+02   2.652226e+02
   8.575744e+01   4.015861e+02
  -1.684462e+02   2.608287e+02
  -1.265031e+02   6.768120e+01
   1.354583e+02   8.643629e+00
   3.067156e+02   1.581882e+02
   9.786303e+01   3.185868e+02
  -4.010149e+02   2.445598e+02
  -6.636884e+02  -9.568872e+01
  -3.421353e+02  -3.845972e+02
   3.094949e+02  -3.040084e+02
   6.128068e+02   5.591685e+01
   2.891227e+02   3.863393e+02
  -2.415296e+02   4.190670e+02
  -4.892641e+02   1.704514e+02
  -3.729002e+02  -1.721447e+02
  -1.134351e+02  -3.725645e+02
   8.460291e+01  -2.457076e+02
   5.730797e+01   1.113404e+02
  -1.297258e+02   2.751868e+02
  -2.961550e+02  -5.373087e+01
  -1.528749e+02  -5.562794e+02
   2.233074e+02  -5.900960e+02
   4.600637e+02  -7.038428e+01
   2.388338e+02   3.820943e+02
  -1.721514e+02   2.376229e+02
  -2.725202e+02  -2.509970e+02
   6.506397e+01  -4.242282e+02
   4.674901e+02  -1.096117e+02
   5.106862e+02   3.588766e+02
   1.695609e+02   5.166301e+02
  -3.136934e+02   3.090516e+02
  -5.639202e+02  -5.632556e+01
  -3.765745e+02  -3.152462e+02
   9.229316e+01  -3.140256e+02
   3.560061e+02  -9.991848e+01
   2.481678e+02   1.063098e+02
  -3.133497e+01   9.206952e+01
  -1.057356e+02  -7.428360e+01
   1.000946e+02  -1.228820e+02
   2.713879e+02   3.487325e+01
   1.476568e+02   2.350969e+02
  -1.723857e+02   2.529816e+02
  -3.423864e+02   1.081738e+02
  -2.361026e+02  -1.015448e+02
   2.863187e+01  -2.669679e+02
   2.619039e+02  -3.301113e+02
   3.398856e+02  -1.778207e+02
   2.484767e+02   1.293798e+02
   6.369013e+01   3.707320e+02
  -5.061969e+01   3.493201e+02
  -7.145122e+01   1.505822e+02
  -4.482575e+01   4.361483e+01
  -8.494814e+01   8.194351e+01
  -1.902927e+02   8.198807e+01
  -2.363912e+02  -8.230824e+01
  -1.237895e+02  -2.482504e+02
   7.132237e+01  -2.116689e+02
   1.926784e+02   1.895426e+01
   1.613703e+02   2.287310e+02
  -2.604574e+01   2.522624e+02
  -2.373808e+02   7.610092e+01
  -3.168973e+02  -1.683084e+02
  -1.706683e+02  -3.055570e+02
   6.661568e+01  -2.799708e+02
   1.951629e+02  -1.510101e+02
   1.582334e+02  -5.179515e+01
   1.338171e+02  -4.015296e+01
   2.514742e+02  -2.318930e+01
   3.899784e+02   9.899475e+01
   3.070346e+02   2.887888e+02
  -2.283958e+01   4.196608e+02
  -3.701453e+02   3.690614e+02
  -4.660447e+02   1.715641e+02
  -2.943971e+02  -8.568508e+01
  -4.127182e+01  -2.565664e+02
   9.610432e+01  -2.248964e+02
   4.357100e+01  -4.546075e+01
  -8.793862e+01   6.861801e+01
  -1.448370e+02  -1.036210e+01
  -3.594575e+01  -1.432389e+02
   1.126566e+02  -1.287297e+02
   1.291789e+02   3.874022e+01
  -1.556497e+01   1.428645e+02
  -1.628875e+02   1.227332e+01
  -1.467987e+02  -2.287500e+02
   2.893653e+01  -3.302604e+02
   2.354143e+02  -1.939297e+02
   3.347493e+02   6.179694e+01
   2.667419e+02   2.492985e+02
   7.234025e+01   2.723233e+02
  -1.148509e+02   1.394059e+02
  -1.464461e+02   1.222899e+01
  -4.083731e+01  -1.628834e+01
   5.210236e+01   5.136708e+01
   7.266556e+00   1.108917e+02
  -1.140303e+02   7.469056e+01
  -1.535032e+02  -1.699807e+01
  -4.354157e+01  -5.213176e+01
   6.870375e+01   1.720804e+00
   3.505477e+01   7.388624e+01
  -1.340991e+02   7.032700e+01
  -2.707038e+02  -2.641894e+01
  -2.330545e+02  -1.493601e+02
  -3.546256e+01  -2.367453e+02
   1.788251e+02  -2.233172e+02
   2.533704e+02  -1.088924e+02
   1.494318e+02   3.745454e+01
  -1.865934e+01   8.589624e+01
  -6.808589e+01   7.453592e+00
   3.846846e+01  -8.357799e+01
   1.745074e+02  -4.701124e+01
   1.885335e+02   9.557253e+01
   6.488408e+01   1.895990e+02
  -8.120491e+01   1.410659e+02
  -1.264689e+02   2.324789e+01
  -5.840202e+01  -3.299033e+01
   2.837518e+01   1.391255e+01
   2.167405e+01   9.474017e+01
  -8.830818e+01   1.060914e+02
  -1.997832e+02   1.346119e+01
  -1.760182e+02  -1.281434e+02
  -1.172583e+01  -2.023035e+02
   1.508047e+02  -1.488330e+02
   1.724646e+02  -1.191683e+01
   5.829430e+01   9.780723e+01
  -5.932688e+01   9.956150e+01
  -7.164071e+01   2.845978e+01
  -7.912186e+00  -2.123570e+01
   2.670241e+01  -8.813010e+00
  -1.224231e+01   1.573752e+01
  -7.826850e+01  -7.932694e+00
  -8.945393e+01  -8.721917e+01
  -7.812486e+00  -1.615493e+02
   1.326432e+02  -1.423679e+02
   2.261006e+02  -1.135123e+01
   1.871439e+02   1.527941e+02
   3.394472e+01   2.252612e+02
  -1.041006e+02   1.607482e+02
  -1.312161e+02   3.000893e+01
  -7.285436e+01  -4.860649e+01
  -3.172986e+01  -3.375838e+01
  -5.569766e+01   1.149414e+01
  -8.373272e+01   3.837403e+00
  -4.887183e+01  -5.496662e+01
   4.372196e+01  -9.319462e+01
   1.172428e+02  -5.581640e+01
   9.458368e+01   4.558210e+01
  -2.191438e+01   1.175857e+02
  -1.541943e+02   7.842219e+01
  -1.940946e+02  -6.369355e+01
  -8.250961e+01  -2.001469e+02
   1.149089e+02  -2.107497e+02
   2.525305e+02  -8.387661e+01
   2.398212e+02   7.758989e+01
   1.012961e+02   1.595166e+02
  -3.579443e+01   1.359068e+02
  -8.814001e+01   7.886885e+01
  -7.173040e+01   6.756479e+01
  -6.129675e+01   8.828365e+01
  -8.889183e+01   7.155355e+01
  -1.233495e+02  -2.333714e+01
  -1.115923e+02  -1.518699e+02
  -2.591197e+01  -2.211198e+02
   9.514681e+01  -1.643457e+02
   1.654185e+02  -1.535944e+01
   1.227008e+02   1.182885e+02
   1.120083e+01   1.499119e+02
  -6.620412e+01   8.059156e+01
  -5.552969e+01  -9.507250e+00
   3.857122e+00  -4.578060e+01
   1.950865e+01  -3.350361e+01
  -3.302878e+01  -1.091353e+01
  -8.363308e+01  -2.112818e+01
  -4.906930e+01  -4.161162e+01
   6.740281e+01  -3.943709e+01
   1.606185e+02   2.235576e+00
   1.346380e+02   5.924255e+01
   1.955179e+00   8.577728e+01
  -1.232087e+02   6.165601e+01
  -1.357316e+02   1.359655e+00
  -4.107649e+01  -4.589987e+01
   5.973416e+01  -3.737001e+01
   7.518941e+01   2.212039e+01
   1.388285e+01   7.122283e+01
  -4.993672e+01   6.068696e+01
  -6.670327e+01  -2.054512e+00
  -4.868171e+01  -5.197494e+01
  -4.098597e+01  -3.922927e+01
  -5.547888e+01   3.654657e+00
  -6.426221e+01   1.915676e+00
  -3.955036e+01  -6.968592e+01
   2.961654e+01  -1.437347e+02
   1.195352e+02  -1.371982e+02
   1.672733e+02  -2.900732e+01
   1.212980e+02   9.081636e+01
   7.669066e-01   1.254427e+02
  -8.797695e+01   6.302927e+01
  -6.031097e+01  -9.717779e+00
   5.919866e+01  -2.318495e+01
   1.319952e+02   4.091764e+01
   7.296867e+01   1.051869e+02
  -8.389031e+01   1.054684e+02
  -1.877934e+02   4.212114e+01
  -1.516478e+02  -4.120588e+01
  -2.947882e+01  -8.357763e+01
   6.401890e+01  -6.091815e+01
   4.783888e+01  -1.794172e+00
  -3.815562e+01   2.570791e+01
  -8.829491e+01  -2.098599e+01
  -3.190733e+01  -1.110261e+02
   8.176663e+01  -1.469071e+02
   1.545788e+02  -6.313763e+01
   1.201356e+02   9.097795e+01
   8.940074e+00   1.861044e+02
  -7.992240e+01   1.355290e+02
  -9.912048e+01  -1.019585e+01
  -5.621238e+01  -1.121908e+02
   6.285816e+00  -9.754240e+01
   4.341357e+01  -1.630991e+01
   4.121173e+01   2.871411e+01
   2.031432e+01   5.084687e+00
   6.374788e+00  -1.811487e+01
   2.478173e+01   1.918387e+01
   5.248572e+01   8.620156e+01
   3.125681e+01   9.973916e+01
  -4.958786e+01   3.784943e+01
  -1.287574e+02  -4.098890e+01
  -1.202834e+02  -7.008923e+01
  -1.464265e+01  -5.205908e+01
   8.178154e+01  -2.262502e+01
   8.522891e+01  -3.491810e+00
   1.507404e+01   1.278614e+01
  -3.467558e+01   1.962596e+01
  -1.679532e+01   1.366381e+01
   1.724220e+01  -4.054220e+00
  -4.566533e+00  -6.671727e+00
  -6.868749e+01  -2.661866e-01
  -8.835168e+01  -2.248125e+01
  -1.257608e+01  -7.816533e+01
   1.088903e+02  -1.101647e+02
   1.779127e+02  -5.732996e+01
   1.386893e+02   6.150196e+01
   2.403406e+01   1.514962e+02
  -7.834258e+01   1.409932e+02
  -1.071716e+02   5.599093e+01
  -7.335583e+01  -1.930172e+01
  -2.396820e+01  -3.427866e+01
  -8.492141e-01  -1.261751e+01
  -1.140594e+01  -8.758836e+00
  -2.856543e+01  -4.589540e+01
  -1.510814e+01  -8.370496e+01
   3.103451e+01  -6.689839e+01
   7.790411e+01   1.689309e+01
   7.502592e+01   1.019995e+02
   7.964334e+00   1.075283e+02
  -7.659474e+01   2.920032e+01
  -1.014650e+02  -6.744023e+01
  -3.497610e+01  -1.016378e+02
   6.446105e+01  -5.968156e+01
   9.818729e+01   1.044045e+01
   4.068599e+01   5.335945e+01
  -3.319096e+01   5.307547e+01
  -3.511291e+01   2.719903e+01
   2.736652e+01  -1.772701e+00
   6.428794e+01  -3.823148e+00
   1.601769e+01   2.420327e+01
  -7.629489e+01   5.899333e+01
  -1.122222e+02   4.696300e+01
  -6.363249e+01  -1.743514e+01
   1.904344e+01  -8.160532e+01
   6.014991e+01  -7.582590e+01
   4.212119e+01  -5.223086e+00
   3.878999e+00   5.469137e+01
  -2.528999e+01   4.482159e+01
  -3.581955e+01  -1.358745e+01
  -2.707002e+01  -5.202405e+01
   2.226553e+00  -3.628188e+01
   3.270380e+01   7.222164e+00
   3.951674e+01   2.401180e+01
   1.844397e+01   4.216308e+00
  -2.475888e+00  -1.786582e+01
  -6.608805e+00  -4.256521e+00
  -9.851701e-01   3.394178e+01
  -8.833968e+00   4.912511e+01
  -3.052815e+01   1.584124e+01
  -3.485005e+01  -4.207176e+01
  -4.752847e+00  -6.057675e+01
   4.363045e+01  -2.194860e+01
   5.738234e+01   3.619888e+01
   1.506218e+01   6.160552e+01
  -5.634900e+01   3.206415e+01
  -8.938734e+01  -1.384031e+01
  -4.771307e+01  -4.245410e+01
   2.942131e+01  -4.222927e+01
   6.500255e+01  -2.428533e+01
   2.647769e+01  -4.874521e+00
  -3.072677e+01   3.836134e+00
  -3.502186e+01  -8.823874e+00
   2.397163e+01  -2.832947e+01
   8.026953e+01  -2.188605e+01
