
 $NMID
 id='ANONYMOUS ', fmtdat='(2E16.6)'
 volume=1.0
 tramp=1.0
 $END
   3.960507e+03  -1.666120e+02
   2.356896e+03   2.047921e+03
  -4.163095e+02   2.365180e+03
  -1.677957e+03   1.055521e+03
  -9.278345e+02  -2.712804e+02
   3.788692e+02  -3.936310e+02
   6.970279e+02   3.068981e+02
   3.179053e+01   8.642646e+02
  -6.423755e+02   7.307978e+02
  -8.282122e+02   1.379361e+01
  -4.770389e+02  -6.915866e+02
   9.463821e+01  -7.879537e+02
   4.791622e+02  -1.444883e+02
   3.142277e+02   5.817962e+02
  -2.020605e+02   6.687841e+02
  -5.133813e+02   2.728307e+01
  -3.052099e+02  -5.951453e+02
   2.085645e+02  -6.535331e+02
   5.262130e+02  -1.963252e+02
   4.349995e+02   2.666091e+02
   8.560782e+01   4.127231e+02
  -1.878066e+02   2.649958e+02
  -1.633276e+02   5.031972e+01
   1.624631e+02   3.761874e+00
   3.786059e+02   1.950738e+02
   9.244016e+01   4.273380e+02
  -5.000777e+02   3.206533e+02
  -7.721679e+02  -1.159338e+02
  -3.444005e+02  -4.872029e+02
   3.610144e+02  -4.055982e+02
   6.487603e+02   4.498404e+01
   2.860558e+02   4.299266e+02
  -2.659127e+02   4.671774e+02
  -5.046045e+02   1.865519e+02
  -3.639704e+02  -1.982147e+02
  -7.609790e+01  -4.135802e+02
   1.244407e+02  -2.315460e+02
   8.017578e+01   1.675990e+02
  -1.838398e+02   3.027863e+02
  -3.391010e+02  -7.921353e+01
  -1.498134e+02  -5.805833e+02
   2.805363e+02  -5.795477e+02
   4.729730e+02  -1.424503e+01
   1.980054e+02   4.321493e+02
  -2.227421e+02   2.247543e+02
  -2.870419e+02  -2.960589e+02
   7.783904e+01  -4.855066e+02
   5.005118e+02  -9.927465e+01
   5.498504e+02   3.971663e+02
   1.639197e+02   5.522259e+02
  -3.432828e+02   3.267659e+02
  -5.871790e+02  -6.464305e+01
  -3.664342e+02  -3.289375e+02
   1.128023e+02  -3.177708e+02
   3.868493e+02  -6.717754e+01
   2.262563e+02   1.120235e+02
  -7.923786e+01   7.580624e+01
  -1.137742e+02  -1.052277e+02
   1.346376e+02  -1.405776e+02
   3.025568e+02   5.222981e+01
   1.399470e+02   2.517542e+02
  -1.754263e+02   2.632230e+02
  -3.441706e+02   1.111524e+02
  -2.357341e+02  -1.073218e+02
   2.359750e+01  -2.948944e+02
   2.643185e+02  -3.584391e+02
   3.555207e+02  -1.812682e+02
   2.693224e+02   1.679871e+02
   6.682917e+01   4.115063e+02
  -8.672352e+01   3.534119e+02
  -5.946869e+01   1.322970e+02
  -1.292102e+01   5.077219e+01
  -8.808264e+01   1.188302e+02
  -2.454362e+02   1.072491e+02
  -2.842700e+02  -8.302825e+01
  -1.389643e+02  -2.710973e+02
   8.756837e+01  -2.357015e+02
   2.212542e+02   8.260566e+00
   1.713221e+02   2.399251e+02
  -2.391881e+01   2.762217e+02
  -2.549399e+02   1.018839e+02
  -3.446152e+02  -1.499974e+02
  -1.961635e+02  -3.244388e+02
   7.005974e+01  -2.985471e+02
   1.978679e+02  -1.478634e+02
   1.477847e+02  -4.901814e+01
   1.170638e+02  -5.397459e+01
   2.590348e+02  -6.202830e+01
   4.185088e+02   5.820216e+01
   3.492490e+02   2.876487e+02
  -2.361416e+00   4.590708e+02
  -3.734356e+02   4.351459e+02
  -4.844435e+02   2.020465e+02
  -3.102804e+02  -1.040357e+02
  -3.451237e+01  -2.771069e+02
   1.065229e+02  -2.207371e+02
   4.233781e+01  -2.777110e+01
  -1.121943e+02   7.684679e+01
  -1.628977e+02  -1.624587e+01
  -3.830020e+01  -1.693401e+02
   1.333703e+02  -1.366903e+02
   1.492447e+02   5.147415e+01
  -1.783378e+01   1.651051e+02
  -1.808577e+02   2.649837e+01
  -1.677107e+02  -2.378815e+02
   1.282781e+01  -3.573843e+02
   2.385775e+02  -2.145753e+02
   3.535036e+02   5.894370e+01
   2.817046e+02   2.530114e+02
   7.100756e+01   2.739672e+02
  -1.210383e+02   1.571742e+02
  -1.697312e+02   1.734039e+01
  -4.898876e+01  -2.934345e+01
   6.532898e+01   4.588684e+01
   1.689743e+01   1.245868e+02
  -1.247651e+02   9.045561e+01
  -1.685476e+02  -1.491533e+01
  -4.873453e+01  -6.784085e+01
   8.241998e+01  -1.182201e+01
   5.576382e+01   8.504908e+01
  -1.318807e+02   1.024038e+02
  -3.009250e+02   7.350599e+00
  -2.777038e+02  -1.555677e+02
  -4.951012e+01  -2.741926e+02
   2.087158e+02  -2.615624e+02
   2.947047e+02  -1.170269e+02
   1.632590e+02   5.469402e+01
  -2.759031e+01   1.011191e+02
  -8.525070e+01   9.157095e-01
   4.134665e+01  -9.403581e+01
   1.941015e+02  -4.802493e+01
   2.049384e+02   1.042067e+02
   6.681591e+01   2.023345e+02
  -8.906291e+01   1.510263e+02
  -1.397731e+02   2.619062e+01
  -6.342799e+01  -4.168089e+01
   3.589498e+01   5.045196e+00
   3.642855e+01   9.706970e+01
  -8.296252e+01   1.205872e+02
  -2.082889e+02   2.616382e+01
  -1.929433e+02  -1.289326e+02
  -2.180911e+01  -2.182501e+02
   1.602024e+02  -1.665948e+02
   1.884111e+02  -1.587853e+01
   6.661778e+01   1.032584e+02
  -6.255751e+01   1.061695e+02
  -7.798261e+01   2.951717e+01
  -1.078104e+01  -2.740934e+01
   3.142830e+01  -1.626688e+01
  -5.751406e+00   1.967533e+01
  -8.058423e+01   1.355383e+00
  -1.024722e+02  -8.681254e+01
  -1.608623e+01  -1.700486e+02
   1.361687e+02  -1.577071e+02
   2.360222e+02  -2.002045e+01
   1.979676e+02   1.489630e+02
   4.460780e+01   2.324184e+02
  -1.032895e+02   1.693280e+02
  -1.334159e+02   3.330550e+01
  -7.526494e+01  -4.920211e+01
  -3.269511e+01  -3.567922e+01
  -5.056319e+01   8.853924e+00
  -8.225131e+01   7.887684e+00
  -5.221446e+01  -5.120628e+01
   3.558841e+01  -1.010669e+02
   1.108707e+02  -6.894774e+01
   9.929550e+01   3.567853e+01
  -1.338871e+01   1.216640e+02
  -1.525816e+02   9.328620e+01
  -2.042764e+02  -5.683021e+01
  -9.590425e+01  -2.104259e+02
   1.122150e+02  -2.334950e+02
   2.707256e+02  -9.563738e+01
   2.587961e+02   8.349361e+01
   1.112443e+02   1.726028e+02
  -3.511210e+01   1.447812e+02
  -8.740184e+01   8.403028e+01
  -7.032184e+01   7.099299e+01
  -5.842118e+01   9.749816e+01
  -9.111184e+01   8.467236e+01
  -1.345338e+02  -1.331443e+01
  -1.261987e+02  -1.470699e+02
  -3.688633e+01  -2.248658e+02
   9.277623e+01  -1.744965e+02
   1.734948e+02  -2.192582e+01
   1.371475e+02   1.220546e+02
   2.008702e+01   1.590304e+02
  -7.237294e+01   8.838060e+01
  -6.473952e+01  -9.753875e+00
  -1.253317e+00  -5.137222e+01
   1.967817e+01  -3.342361e+01
  -3.254949e+01  -1.177468e+01
  -8.536776e+01  -1.909160e+01
  -4.804250e+01  -4.043413e+01
   6.961798e+01  -3.979990e+01
   1.696846e+02  -7.221259e+00
   1.502479e+02   5.498477e+01
   1.059460e+01   9.909595e+01
  -1.291211e+02   8.189239e+01
  -1.488708e+02   1.324875e+01
  -5.034419e+01  -4.707069e+01
   6.031358e+01  -4.265593e+01
   8.218599e+01   2.065943e+01
   1.623831e+01   7.455358e+01
  -5.183506e+01   6.408817e+01
  -6.869519e+01  -1.192707e+00
  -5.483849e+01  -5.098730e+01
  -4.662097e+01  -4.031901e+01
  -5.927150e+01   1.225926e+00
  -6.951639e+01   8.532642e-01
  -4.553843e+01  -7.211756e+01
   2.348178e+01  -1.555445e+02
   1.192226e+02  -1.478263e+02
   1.750633e+02  -3.799547e+01
   1.302981e+02   8.977945e+01
   6.470898e+00   1.292840e+02
  -9.108983e+01   6.715482e+01
  -6.137174e+01  -1.566532e+01
   5.942128e+01  -2.748858e+01
   1.376940e+02   3.588765e+01
   7.405776e+01   1.035483e+02
  -7.379665e+01   1.162541e+02
  -1.802254e+02   4.924990e+01
  -1.580251e+02  -3.579599e+01
  -3.495774e+01  -8.714675e+01
   6.263107e+01  -6.245061e+01
   4.898072e+01   2.220555e+00
  -4.034677e+01   3.532023e+01
  -9.366717e+01  -1.678857e+01
  -4.197002e+01  -1.208697e+02
   8.073606e+01  -1.629456e+02
   1.638710e+02  -7.090756e+01
   1.292676e+02   9.603121e+01
   1.386890e+01   1.959189e+02
  -8.103326e+01   1.394135e+02
  -1.061641e+02  -9.340517e+00
  -5.828244e+01  -1.181914e+02
   1.151499e+01  -1.032329e+02
   5.295564e+01  -1.695648e+01
   4.919055e+01   3.281645e+01
   1.749991e+01   8.126057e+00
   1.852932e+00  -1.767089e+01
   2.515293e+01   1.508988e+01
   5.903228e+01   8.639012e+01
   3.704960e+01   1.058433e+02
  -5.454381e+01   4.687971e+01
  -1.414257e+02  -3.528849e+01
  -1.282548e+02  -7.056202e+01
  -1.922958e+01  -5.619499e+01
   8.328190e+01  -2.744958e+01
   8.654182e+01  -7.101469e+00
   1.408790e+01   9.566030e+00
  -3.606493e+01   2.075700e+01
  -1.759198e+01   1.126471e+01
   1.665900e+01  -4.925289e+00
  -1.993010e+00  -5.511769e+00
  -6.504988e+01   2.646915e+00
  -9.099362e+01  -2.060397e+01
  -1.638787e+01  -8.090352e+01
   1.109302e+02  -1.192444e+02
   1.868344e+02  -6.505813e+01
   1.496980e+02   5.901716e+01
   3.328158e+01   1.595422e+02
  -7.687806e+01   1.540816e+02
  -1.135547e+02   6.630663e+01
  -8.101186e+01  -1.702804e+01
  -2.616083e+01  -3.550405e+01
  -1.606110e+00  -1.023835e+01
  -1.323655e+01  -6.011664e+00
  -3.458577e+01  -4.869766e+01
  -2.412586e+01  -9.390670e+01
   2.617751e+01  -7.349083e+01
   8.020903e+01   1.666533e+01
   8.219869e+01   1.028869e+02
   1.171340e+01   1.124331e+02
  -8.024196e+01   3.071283e+01
  -1.086831e+02  -6.789187e+01
  -3.997795e+01  -1.048367e+02
   6.490873e+01  -6.433695e+01
   1.030691e+02   5.731650e+00
   4.580089e+01   5.533134e+01
  -3.053814e+01   5.998298e+01
  -3.599427e+01   2.866078e+01
   2.723374e+01  -4.888278e+00
   6.633274e+01  -8.941839e+00
   1.693252e+01   2.902789e+01
  -7.606372e+01   6.986498e+01
  -1.197213e+02   5.514703e+01
  -6.978676e+01  -1.707267e+01
   1.320571e+01  -8.437576e+01
   5.594981e+01  -7.984469e+01
   4.117456e+01  -1.075315e+01
   4.901895e+00   5.348719e+01
  -2.445009e+01   4.692151e+01
  -3.777843e+01  -1.165081e+01
  -2.819121e+01  -5.350006e+01
   2.012661e+00  -3.776539e+01
   3.338125e+01   4.953201e+00
   4.016228e+01   2.317537e+01
   2.014308e+01   1.939997e+00
  -2.497201e+00  -1.836654e+01
  -4.760270e+00  -3.628116e+00
   1.977720e-01   3.413095e+01
  -6.506424e+00   4.882414e+01
  -2.740570e+01   1.433914e+01
  -3.582029e+01  -3.823568e+01
  -6.303246e+00  -5.911240e+01
   4.058476e+01  -2.353489e+01
   6.086179e+01   3.571570e+01
   1.723175e+01   6.187068e+01
  -5.613593e+01   3.729541e+01
  -9.233855e+01  -1.235851e+01
  -5.092772e+01  -4.413830e+01
   2.951242e+01  -4.433073e+01
   6.643762e+01  -2.631842e+01
   2.671209e+01  -6.049353e+00
  -3.353231e+01   1.515414e+00
  -3.618463e+01  -1.262303e+01
   2.651062e+01  -3.001282e+01
   8.592781e+01  -2.028405e+01
