
 $NMID
 id='ANONYMOUS ', fmtdat='(2E16.6)'
 volume=1.0
 tramp=1.0
 $END
  -4.078315e+03  -1.382552e+02
  -2.476750e+03  -2.348428e+03
   3.252385e+02  -2.722576e+03
   1.858685e+03  -1.197834e+03
   1.048020e+03   2.947850e+02
  -3.396609e+02   4.774109e+02
  -7.409971e+02  -2.951139e+02
  -3.288309e+01  -9.503655e+02
   7.091666e+02  -7.699075e+02
   8.959776e+02   3.647655e+01
   4.795766e+02   7.979041e+02
  -1.685204e+02   8.650183e+02
  -5.524167e+02   1.340978e+02
  -3.366081e+02  -6.615297e+02
   2.277217e+02  -7.322205e+02
   5.676092e+02  -1.652294e+01
   3.278909e+02   6.572332e+02
  -2.563340e+02   6.963747e+02
  -5.859408e+02   2.034231e+02
  -4.669357e+02  -2.931794e+02
  -7.737939e+01  -4.454358e+02
   2.217597e+02  -2.984190e+02
   1.939582e+02  -4.259297e+01
  -1.299740e+02   3.115692e+01
  -3.966450e+02  -1.795961e+02
  -1.381114e+02  -4.566869e+02
   4.969115e+02  -3.368544e+02
   8.140816e+02   1.450542e+02
   3.724088e+02   5.267623e+02
  -3.781986e+02   3.945965e+02
  -6.951135e+02  -8.086446e+01
  -3.242725e+02  -4.761011e+02
   2.889512e+02  -4.984232e+02
   5.918002e+02  -1.925304e+02
   4.345194e+02   2.169605e+02
   7.778774e+01   4.575382e+02
  -1.629430e+02   2.678940e+02
  -1.022311e+02  -1.924447e+02
   1.997755e+02  -3.675320e+02
   3.790900e+02   7.982885e+01
   1.363686e+02   6.675497e+02
  -3.410718e+02   6.360716e+02
  -5.367844e+02  -1.730288e+01
  -2.157498e+02  -5.331035e+02
   2.630471e+02  -2.992800e+02
   3.333683e+02   3.150660e+02
  -7.437713e+01   5.312680e+02
  -5.290151e+02   1.300872e+02
  -6.024278e+02  -4.165676e+02
  -1.891336e+02  -6.124962e+02
   3.815350e+02  -3.573803e+02
   6.555372e+02   7.768437e+01
   4.003863e+02   3.724207e+02
  -1.181554e+02   3.654107e+02
  -4.380642e+02   6.669173e+01
  -2.732054e+02  -1.501415e+02
   6.854372e+01  -8.927997e+01
   1.165758e+02   1.078995e+02
  -1.442201e+02   1.323596e+02
  -3.167125e+02  -6.942014e+01
  -1.499975e+02  -2.739354e+02
   1.905080e+02  -2.942883e+02
   3.725099e+02  -1.342246e+02
   2.748078e+02   8.554459e+01
   1.498698e+01   3.046913e+02
  -2.691221e+02   4.087588e+02
  -3.972340e+02   2.307365e+02
  -3.027861e+02  -1.663588e+02
  -6.931345e+01  -4.444464e+02
   8.462342e+01  -3.810976e+02
   9.064058e+01  -1.404885e+02
   3.306924e+01  -2.818740e+01
   8.453945e+01  -1.058348e+02
   2.294158e+02  -1.194932e+02
   2.881754e+02   8.133324e+01
   1.471330e+02   2.930973e+02
  -8.767691e+01   2.595906e+02
  -2.342285e+02   2.123636e+00
  -1.919539e+02  -2.605110e+02
   1.948942e+01  -3.025531e+02
   2.854469e+02  -1.158667e+02
   3.738078e+02   1.722593e+02
   2.013691e+02   3.649027e+02
  -8.833743e+01   3.179223e+02
  -2.271421e+02   1.453425e+02
  -1.685198e+02   2.541289e+01
  -1.237486e+02   4.003879e+01
  -2.522654e+02   5.727372e+01
  -4.166831e+02  -6.294852e+01
  -3.496962e+02  -2.982156e+02
  -8.453554e+00  -4.729523e+02
   3.794586e+02  -4.485139e+02
   5.172974e+02  -2.114863e+02
   3.548267e+02   1.033421e+02
   4.998759e+01   3.069106e+02
  -1.291583e+02   2.478510e+02
  -6.476804e+01   2.868647e+01
   1.249511e+02  -9.487009e+01
   1.866880e+02   2.582705e+01
   3.380789e+01   1.986776e+02
  -1.578446e+02   1.657642e+02
  -1.673340e+02  -6.242796e+01
   2.275953e+01  -1.847041e+02
   1.975317e+02  -2.715775e+01
   1.760922e+02   2.577736e+02
  -3.024577e+01   3.682251e+02
  -2.511895e+02   2.189845e+02
  -3.633952e+02  -5.484513e+01
  -3.041405e+02  -2.579602e+02
  -9.861344e+01  -2.856478e+02
   1.222669e+02  -1.695859e+02
   1.807401e+02  -1.565525e+01
   5.613976e+01   3.002829e+01
  -6.767135e+01  -5.170829e+01
  -1.984301e+01  -1.304901e+02
   1.334364e+02  -9.156637e+01
   1.809123e+02   2.487128e+01
   5.037047e+01   7.444184e+01
  -9.186686e+01   5.536005e+00
  -5.515350e+01  -8.455010e+01
   1.394711e+02  -9.502449e+01
   3.033016e+02   6.410957e+00
   2.768412e+02   1.636451e+02
   5.291044e+01   2.780791e+02
  -2.044755e+02   2.727330e+02
  -2.968888e+02   1.267196e+02
  -1.716460e+02  -5.303559e+01
   2.638300e+01  -1.079563e+02
   8.633053e+01  -3.604703e+00
  -4.697297e+01   1.040876e+02
  -2.133145e+02   5.457881e+01
  -2.214345e+02  -1.152399e+02
  -6.521019e+01  -2.182498e+02
   1.011350e+02  -1.652979e+02
   1.448221e+02  -2.714695e+01
   6.426533e+01   4.425063e+01
  -3.775183e+01  -2.736468e+00
  -3.755705e+01  -9.910465e+01
   8.669517e+01  -1.287155e+02
   2.160729e+02  -3.163733e+01
   2.049736e+02   1.339774e+02
   2.316021e+01   2.346551e+02
  -1.703439e+02   1.778104e+02
  -2.016464e+02   9.759978e+00
  -7.073437e+01  -1.172895e+02
   6.569639e+01  -1.172450e+02
   8.567445e+01  -3.110785e+01
   1.496082e+01   2.797477e+01
  -2.851141e+01   1.703361e+01
   1.090861e+01  -1.564559e+01
   8.328810e+01   3.562696e+00
   1.012548e+02   8.887813e+01
   1.596129e+01   1.773185e+02
  -1.410970e+02   1.667133e+02
  -2.532358e+02   2.335095e+01
  -2.109457e+02  -1.622451e+02
  -4.262469e+01  -2.497179e+02
   1.132686e+02  -1.801232e+02
   1.425954e+02  -3.418607e+01
   7.936104e+01   5.052535e+01
   3.567735e+01   3.381511e+01
   5.912679e+01  -9.345256e+00
   8.584179e+01  -3.187313e+00
   4.792388e+01   5.556766e+01
  -4.359349e+01   9.987084e+01
  -1.167723e+02   6.438774e+01
  -1.013440e+02  -3.932077e+01
   1.239520e+01  -1.247697e+02
   1.561977e+02  -9.851932e+01
   2.141947e+02   5.648472e+01
   1.035365e+02   2.191844e+02
  -1.159433e+02   2.388862e+02
  -2.825059e+02   9.415263e+01
  -2.719855e+02  -1.015787e+02
  -1.155683e+02  -1.951780e+02
   4.339706e+01  -1.606784e+02
   1.068776e+02  -9.291258e+01
   8.978116e+01  -7.364207e+01
   7.336453e+01  -9.598173e+01
   9.889941e+01  -7.937209e+01
   1.394955e+02   2.077197e+01
   1.242072e+02   1.641857e+02
   3.062594e+01   2.386875e+02
  -1.029844e+02   1.820693e+02
  -1.846652e+02   2.067014e+01
  -1.444427e+02  -1.295965e+02
  -1.828392e+01  -1.688365e+02
   7.283105e+01  -9.351661e+01
   6.550314e+01   2.533974e+00
   3.127205e+00   4.866815e+01
  -1.672764e+01   3.553382e+01
   3.234959e+01   1.602809e+01
   8.765997e+01   2.025323e+01
   4.947930e+01   4.063448e+01
  -7.306938e+01   4.078288e+01
  -1.725486e+02   2.390065e+00
  -1.503085e+02  -5.851147e+01
  -1.072631e+01  -9.804114e+01
   1.294473e+02  -8.297412e+01
   1.516173e+02  -1.423249e+01
   5.047944e+01   4.839004e+01
  -5.851465e+01   4.347442e+01
  -8.033921e+01  -1.981963e+01
  -1.537950e+01  -7.667025e+01
   5.060718e+01  -6.619745e+01
   6.966855e+01  -6.886306e-01
   5.534588e+01   5.147308e+01
   5.221867e+01   4.342673e+01
   6.382814e+01   4.586440e+00
   6.848168e+01   1.063616e+00
   4.104976e+01   7.239837e+01
  -3.118367e+01   1.592255e+02
  -1.288505e+02   1.552003e+02
  -1.799264e+02   3.773863e+01
  -1.335735e+02  -9.798033e+01
  -7.159322e+00  -1.388063e+02
   9.097703e+01  -7.184837e+01
   6.389988e+01   1.435428e+01
  -6.092203e+01   2.317927e+01
  -1.442182e+02  -4.413561e+01
  -7.614331e+01  -1.092431e+02
   8.606875e+01  -1.199188e+02
   2.002580e+02  -4.955804e+01
   1.714938e+02   3.727687e+01
   3.806689e+01   9.120186e+01
  -6.575652e+01   7.128939e+01
  -5.269035e+01   5.626206e+00
   4.189461e+01  -3.135808e+01
   9.756477e+01   2.034539e+01
   4.125787e+01   1.255156e+02
  -8.802629e+01   1.667712e+02
  -1.734050e+02   7.562248e+01
  -1.378405e+02  -9.933439e+01
  -1.713878e+01  -2.121439e+02
   8.999492e+01  -1.552597e+02
   1.134168e+02   8.185178e+00
   6.775555e+01   1.266265e+02
  -3.196173e+00   1.171898e+02
  -5.151674e+01   2.343118e+01
  -5.566324e+01  -3.078161e+01
  -2.460786e+01  -1.083782e+01
  -5.751103e+00   1.764548e+01
  -2.790817e+01  -1.716269e+01
  -6.036834e+01  -8.947414e+01
  -4.004449e+01  -1.133004e+02
   5.387016e+01  -4.889183e+01
   1.444007e+02   3.648248e+01
   1.366330e+02   7.196556e+01
   2.319957e+01   5.342041e+01
  -8.724069e+01   2.683036e+01
  -9.321250e+01   7.243737e+00
  -1.586781e+01  -1.067087e+01
   3.855221e+01  -2.352162e+01
   2.050294e+01  -1.675794e+01
  -1.745527e+01   8.028270e-01
   4.537451e+00   8.472549e+00
   7.611170e+01   4.645066e+00
   1.016953e+02   2.549454e+01
   2.055738e+01   8.705576e+01
  -1.200581e+02   1.255697e+02
  -2.016962e+02   7.075217e+01
  -1.599812e+02  -6.599613e+01
  -3.210735e+01  -1.739145e+02
   8.316343e+01  -1.672376e+02
   1.225910e+02  -6.899375e+01
   8.661270e+01   2.193272e+01
   3.086974e+01   4.063635e+01
   2.714516e+00   1.242146e+01
   1.290760e+01   5.846133e+00
   3.202432e+01   4.907251e+01
   2.163772e+01   9.822477e+01
  -3.012030e+01   7.852662e+01
  -8.669973e+01  -1.686204e+01
  -8.541584e+01  -1.116907e+02
  -9.305636e+00  -1.186220e+02
   8.544733e+01  -2.909912e+01
   1.112716e+02   7.573457e+01
   3.657983e+01   1.119029e+02
  -7.066175e+01   6.516532e+01
  -1.081449e+02  -1.083082e+01
  -4.559371e+01  -5.918553e+01
   3.531692e+01  -6.206360e+01
   3.733058e+01  -3.112295e+01
  -3.139256e+01   2.333006e+00
  -7.266166e+01   6.850797e+00
  -1.815353e+01  -2.951762e+01
   8.208971e+01  -6.987771e+01
   1.246899e+02  -6.017596e+01
   7.360374e+01   1.325517e+01
  -1.336740e+01   8.876939e+01
  -5.776389e+01   8.717030e+01
  -4.314759e+01   1.000751e+01
  -4.121537e+00  -5.909098e+01
   2.639675e+01  -4.942561e+01
   3.945393e+01   1.712236e+01
   2.871511e+01   6.140379e+01
  -2.513221e+00   4.068351e+01
  -3.591392e+01  -9.061701e+00
  -4.399656e+01  -2.665093e+01
  -2.311711e+01  -3.105289e+00
   2.532528e+00   1.944499e+01
   6.539376e+00   2.475864e+00
   8.046808e-01  -3.843352e+01
   9.078801e+00  -5.278150e+01
   3.234065e+01  -1.326861e+01
   3.947000e+01   4.309422e+01
   6.057840e+00   6.397745e+01
  -4.607926e+01   2.669491e+01
  -6.588823e+01  -3.533217e+01
  -2.043779e+01  -6.335745e+01
   5.771117e+01  -3.946326e+01
   9.566014e+01   1.194798e+01
   5.310099e+01   4.649092e+01
  -2.951591e+01   4.725236e+01
  -6.777477e+01   2.559977e+01
  -2.958849e+01   4.730133e+00
   3.166287e+01  -2.052105e+00
   3.640874e+01   1.124675e+01
  -2.789623e+01   3.139956e+01
  -9.001399e+01   2.507636e+01
