
 $NMID
 id='ANONYMOUS ', fmtdat='(2E16.6)'
 volume=1.0
 tramp=1.0
 $END
   4.320488e+03  -4.471658e+02
   2.828976e+03   2.223866e+03
  -2.434139e+02   2.864528e+03
  -1.967799e+03   1.344218e+03
  -1.163137e+03  -3.556758e+02
   3.484101e+02  -6.088354e+02
   8.279424e+02   2.481368e+02
   1.264859e+02   9.790175e+02
  -6.787281e+02   8.508501e+02
  -9.052311e+02   3.535917e+01
  -5.329434e+02  -7.776421e+02
   1.040942e+02  -8.753843e+02
   5.756208e+02  -2.073868e+02
   4.450577e+02   6.184280e+02
  -1.623886e+02   7.564168e+02
  -6.009573e+02   6.097551e+01
  -3.687128e+02  -6.559616e+02
   2.602139e+02  -7.141729e+02
   6.198784e+02  -2.066879e+02
   4.858184e+02   3.194154e+02
   7.975887e+01   4.697840e+02
  -2.258888e+02   3.036462e+02
  -2.024652e+02   4.414508e+01
   1.172549e+02  -5.644743e+01
   3.848654e+02   1.247046e+02
   1.785439e+02   4.121957e+02
  -4.370784e+02   3.878027e+02
  -7.968341e+02  -4.901121e+01
  -4.170345e+02  -5.013582e+02
   3.438316e+02  -4.553486e+02
   6.982844e+02   1.994337e+01
   3.484239e+02   4.599908e+02
  -2.572165e+02   5.284942e+02
  -5.652709e+02   2.094167e+02
  -4.434289e+02  -2.049991e+02
  -1.270861e+02  -4.530842e+02
   1.261974e+02  -3.070183e+02
   1.468988e+02   1.418479e+02
  -1.170893e+02   3.671015e+02
  -3.631196e+02  -7.269650e-01
  -2.404253e+02  -5.953765e+02
   2.392116e+02  -6.642759e+02
   5.425076e+02  -6.420905e+01
   2.827454e+02   4.686757e+02
  -2.402399e+02   2.986176e+02
  -3.664112e+02  -2.732399e+02
   4.791580e+01  -5.227428e+02
   5.420446e+02  -1.388250e+02
   6.212059e+02   3.836613e+02
   1.963188e+02   5.799811e+02
  -3.467533e+02   3.713593e+02
  -6.410372e+02  -2.395023e+01
  -4.164206e+02  -3.286639e+02
   1.112455e+02  -3.559936e+02
   4.133420e+02  -1.177284e+02
   2.576079e+02   1.484501e+02
  -7.837282e+01   1.215494e+02
  -1.455006e+02  -1.041510e+02
   1.255025e+02  -1.769161e+02
   3.342802e+02   3.049965e+01
   1.600531e+02   2.743160e+02
  -1.850331e+02   2.959729e+02
  -3.652100e+02   1.220032e+02
  -2.410074e+02  -1.038605e+02
   2.400424e+01  -2.856413e+02
   2.503661e+02  -3.443379e+02
   3.425715e+02  -1.991595e+02
   2.794575e+02   1.339022e+02
   1.077914e+02   4.087454e+02
  -5.384160e+01   3.780807e+02
  -8.038792e+01   1.542951e+02
  -3.667710e+01   4.008544e+01
  -7.856915e+01   1.052542e+02
  -2.210739e+02   1.178459e+02
  -2.845212e+02  -6.244193e+01
  -1.614096e+02  -2.665460e+02
   6.753302e+01  -2.473926e+02
   2.300040e+02  -5.916166e+00
   1.992905e+02   2.478254e+02
  -8.811633e+00   2.938255e+02
  -2.681633e+02   1.174085e+02
  -3.722020e+02  -1.589542e+02
  -2.145251e+02  -3.436254e+02
   6.896757e+01  -3.214388e+02
   2.138627e+02  -1.532529e+02
   1.611297e+02  -3.030564e+01
   1.209483e+02  -4.951060e+01
   2.535947e+02  -7.088726e+01
   4.199457e+02   4.793900e+01
   3.496944e+02   2.917337e+02
   7.299937e+00   4.609029e+02
  -3.601556e+02   4.268227e+02
  -4.814437e+02   2.216086e+02
  -3.491944e+02  -7.565313e+01
  -7.808874e+01  -2.857892e+02
   1.000699e+02  -2.540373e+02
   7.813687e+01  -4.675589e+01
  -8.695168e+01   9.294630e+01
  -1.753964e+02   7.849750e+00
  -6.219734e+01  -1.797611e+02
   1.437767e+02  -1.769502e+02
   1.744988e+02   4.322475e+01
   2.878610e+00   1.849884e+02
  -1.918556e+02   4.247362e+01
  -1.931849e+02  -2.432673e+02
   7.223081e+00  -3.667334e+02
   2.400296e+02  -2.266541e+02
   3.596254e+02   4.540960e+01
   2.993502e+02   2.486649e+02
   9.684753e+01   2.774020e+02
  -1.148401e+02   1.620790e+02
  -1.762354e+02   2.050937e+01
  -5.504813e+01  -3.283241e+01
   6.945090e+01   3.818500e+01
   2.925078e+01   1.216504e+02
  -1.181071e+02   1.009851e+02
  -1.714203e+02  -7.206900e+00
  -5.530122e+01  -6.897054e+01
   8.039996e+01  -1.072326e+01
   5.078113e+01   7.985929e+01
  -1.369106e+02   9.724723e+01
  -2.981751e+02   6.312937e+00
  -2.719192e+02  -1.503192e+02
  -6.087492e+01  -2.691723e+02
   1.860690e+02  -2.676442e+02
   2.846971e+02  -1.296132e+02
   1.683970e+02   4.319550e+01
  -1.959903e+01   1.032504e+02
  -8.486739e+01   8.625761e+00
   3.513998e+01  -9.797900e+01
   1.982696e+02  -6.220855e+01
   2.194276e+02   9.588299e+01
   7.890284e+01   2.050552e+02
  -8.581885e+01   1.638010e+02
  -1.379698e+02   3.874323e+01
  -6.883224e+01  -3.484075e+01
   3.062648e+01   3.130146e+00
   3.581687e+01   9.339188e+01
  -7.783624e+01   1.244275e+02
  -2.087540e+02   3.798217e+01
  -2.033936e+02  -1.220334e+02
  -3.421453e+01  -2.268200e+02
   1.558501e+02  -1.825284e+02
   1.993619e+02  -1.998503e+01
   7.690658e+01   1.135857e+02
  -5.891520e+01   1.188042e+02
  -8.603585e+01   3.224123e+01
  -1.828808e+01  -2.717357e+01
   2.421611e+01  -1.659874e+01
  -1.291096e+01   1.523034e+01
  -8.176676e+01  -4.887120e+00
  -9.826385e+01  -8.765235e+01
  -1.733352e+01  -1.689234e+02
   1.294317e+02  -1.617965e+02
   2.401169e+02  -3.643639e+01
   2.131366e+02   1.445304e+02
   5.747924e+01   2.420022e+02
  -1.024046e+02   1.837441e+02
  -1.413961e+02   3.849750e+01
  -8.071506e+01  -5.232612e+01
  -3.252060e+01  -3.676250e+01
  -5.211768e+01   1.593254e+01
  -8.483832e+01   1.082513e+01
  -5.089044e+01  -5.364322e+01
   4.005607e+01  -1.006106e+02
   1.104708e+02  -6.162316e+01
   9.631663e+01   4.018650e+01
  -1.294387e+01   1.242394e+02
  -1.524742e+02   9.546046e+01
  -2.109844e+02  -5.271953e+01
  -1.067735e+02  -2.123618e+02
   1.052810e+02  -2.363413e+02
   2.675360e+02  -1.047362e+02
   2.648673e+02   8.131019e+01
   1.226126e+02   1.785299e+02
  -3.079476e+01   1.579168e+02
  -9.332673e+01   9.464889e+01
  -8.147813e+01   7.584361e+01
  -6.883033e+01   9.515252e+01
  -9.683082e+01   8.179093e+01
  -1.383679e+02  -1.496160e+01
  -1.311803e+02  -1.543773e+02
  -3.892291e+01  -2.331400e+02
   9.772957e+01  -1.814700e+02
   1.812005e+02  -2.514530e+01
   1.442522e+02   1.235862e+02
   2.114422e+01   1.639387e+02
  -7.111831e+01   9.555710e+01
  -6.358787e+01  -7.147504e-01
  -3.264209e+00  -4.615081e+01
   1.540243e+01  -3.526465e+01
  -3.518829e+01  -1.340866e+01
  -8.658459e+01  -1.936682e+01
  -5.049684e+01  -4.036703e+01
   6.493517e+01  -4.269961e+01
   1.631124e+02  -9.432828e+00
   1.510219e+02   5.183719e+01
   1.519470e+01   9.484815e+01
  -1.286694e+02   8.379701e+01
  -1.528102e+02   1.810342e+01
  -5.020894e+01  -4.521089e+01
   6.283317e+01  -4.544721e+01
   8.197692e+01   1.559939e+01
   1.521890e+01   7.630542e+01
  -5.447434e+01   6.789271e+01
  -7.226979e+01   1.381250e+00
  -5.393112e+01  -5.307340e+01
  -4.699002e+01  -4.371374e+01
  -5.869719e+01  -3.229753e-01
  -6.679228e+01   2.473038e+00
  -4.139096e+01  -6.864460e+01
   2.814888e+01  -1.535374e+02
   1.201863e+02  -1.509272e+02
   1.747260e+02  -3.934146e+01
   1.333199e+02   9.182696e+01
   9.932333e+00   1.328953e+02
  -8.915534e+01   7.070565e+01
  -6.426611e+01  -1.277225e+01
   5.906664e+01  -2.331627e+01
   1.424602e+02   4.361317e+01
   7.653917e+01   1.090654e+02
  -7.642575e+01   1.177552e+02
  -1.889376e+02   5.716632e+01
  -1.669040e+02  -2.210799e+01
  -4.309616e+01  -8.403458e+01
   5.850809e+01  -7.154966e+01
   4.844896e+01  -7.686999e+00
  -3.925847e+01   3.182594e+01
  -9.602309e+01  -1.771054e+01
  -4.269153e+01  -1.197404e+02
   8.036383e+01  -1.675986e+02
   1.679834e+02  -7.624189e+01
   1.393415e+02   9.643353e+01
   2.404110e+01   2.014647e+02
  -8.233266e+01   1.516976e+02
  -1.094733e+02  -5.993239e+00
  -7.006685e+01  -1.191396e+02
  -3.434871e+00  -1.093940e+02
   4.834741e+01  -2.295127e+01
   5.377222e+01   2.803683e+01
   2.360097e+01   6.919606e+00
   4.216653e+00  -1.997445e+01
   2.768141e+01   1.859023e+01
   6.563893e+01   9.070373e+01
   4.614952e+01   1.091244e+02
  -5.090455e+01   5.059702e+01
  -1.443844e+02  -2.891849e+01
  -1.369924e+02  -6.483203e+01
  -2.286520e+01  -5.213266e+01
   8.472024e+01  -3.119414e+01
   8.726779e+01  -1.356599e+01
   1.402460e+01   8.516232e+00
  -3.735643e+01   2.561374e+01
  -1.529581e+01   1.825062e+01
   1.985884e+01  -4.341377e+00
  -5.442488e+00  -7.655304e+00
  -7.709614e+01   2.227569e+00
  -9.894689e+01  -2.073375e+01
  -1.930692e+01  -8.556245e+01
   1.127948e+02  -1.279185e+02
   1.926406e+02  -7.232429e+01
   1.577581e+02   6.217107e+01
   3.969242e+01   1.687460e+02
  -7.411380e+01   1.649703e+02
  -1.166818e+02   6.897541e+01
  -8.719172e+01  -1.742769e+01
  -2.994863e+01  -3.663580e+01
   1.288742e+00  -8.980309e+00
  -1.066128e+01  -4.853974e+00
  -3.535587e+01  -4.691332e+01
  -2.673447e+01  -9.245961e+01
   2.611486e+01  -7.665505e+01
   8.706634e+01   1.309875e+01
   9.089518e+01   1.073504e+02
   1.373102e+01   1.179100e+02
  -8.525269e+01   3.431172e+01
  -1.133296e+02  -7.014986e+01
  -3.888552e+01  -1.085268e+02
   6.752197e+01  -6.588556e+01
   1.031023e+02   6.821800e+00
   4.226701e+01   5.492770e+01
  -3.433928e+01   5.745832e+01
  -3.512322e+01   2.884245e+01
   3.490121e+01  -6.358952e+00
   7.331252e+01  -1.144569e+01
   1.776944e+01   2.783810e+01
  -7.934737e+01   7.181528e+01
  -1.188038e+02   6.449042e+01
  -6.940760e+01  -1.196098e+01
   1.183895e+01  -8.836248e+01
   5.366907e+01  -8.764423e+01
   4.231149e+01  -9.111093e+00
   6.331888e+00   5.818142e+01
  -2.703071e+01   4.826035e+01
  -4.046328e+01  -1.645968e+01
  -2.933241e+01  -5.796616e+01
   3.111956e+00  -3.796245e+01
   3.491041e+01   7.723277e+00
   3.929688e+01   2.357466e+01
   1.882498e+01   2.872395e-01
  -5.436128e-02  -1.906770e+01
  -2.078999e+00  -1.164688e+00
   6.000487e-01   3.967873e+01
  -1.096507e+01   5.316648e+01
  -3.469756e+01   1.358132e+01
  -3.881971e+01  -4.254035e+01
  -5.069248e+00  -6.420107e+01
   4.478159e+01  -2.593286e+01
   6.405661e+01   3.559131e+01
   2.091509e+01   6.518666e+01
  -5.669393e+01   4.084015e+01
  -9.542970e+01  -1.039035e+01
  -5.439183e+01  -4.527463e+01
   2.794285e+01  -4.696761e+01
   6.686687e+01  -2.632594e+01
   2.684900e+01  -3.841914e+00
  -3.712212e+01   4.396672e+00
  -4.037308e+01  -1.258540e+01
   2.712137e+01  -3.541687e+01
   9.091817e+01  -2.672414e+01
