
 $NMID
 id='ANONYMOUS ', fmtdat='(2E16.6)'
 volume=1.0
 tramp=1.0
 $END
   4.075922e+03   1.656532e+02
   2.369011e+03   2.364515e+03
  -4.437917e+02   2.530505e+03
  -1.814710e+03   1.083362e+03
  -9.981282e+02  -3.597165e+02
   4.037278e+02  -5.437288e+02
   7.904159e+02   3.118924e+02
   4.503580e+01   9.365972e+02
  -7.284271e+02   7.654383e+02
  -8.810416e+02  -4.635973e+01
  -4.620952e+02  -7.752171e+02
   1.742838e+02  -8.324616e+02
   5.406705e+02  -1.344783e+02
   3.461771e+02   6.406230e+02
  -2.252315e+02   6.962263e+02
  -5.403429e+02   9.962082e+00
  -2.958822e+02  -6.544950e+02
   2.785273e+02  -6.728947e+02
   5.827700e+02  -1.732163e+02
   4.367545e+02   3.140847e+02
   5.673982e+01   4.417912e+02
  -2.128095e+02   2.762927e+02
  -1.608167e+02   3.196681e+01
   1.469011e+02  -5.086051e+01
   3.859394e+02   1.663326e+02
   1.451474e+02   4.288779e+02
  -4.675797e+02   3.430436e+02
  -8.068865e+02  -1.063387e+02
  -3.778149e+02  -4.957884e+02
   3.921823e+02  -4.058410e+02
   7.077887e+02   7.480443e+01
   3.278896e+02   4.731139e+02
  -2.925958e+02   4.831733e+02
  -5.733241e+02   1.719244e+02
  -4.276466e+02  -2.213266e+02
  -7.900353e+01  -4.303874e+02
   1.494772e+02  -2.481052e+02
   9.349409e+01   1.890022e+02
  -1.895261e+02   3.527121e+02
  -3.667696e+02  -8.650436e+01
  -1.445820e+02  -6.714587e+02
   3.201370e+02  -6.303168e+02
   5.420764e+02   1.194957e+01
   2.130747e+02   5.214369e+02
  -2.751767e+02   2.794396e+02
  -3.425846e+02  -3.094186e+02
   8.804080e+01  -5.214188e+02
   5.287341e+02  -1.217300e+02
   5.844392e+02   4.162295e+02
   1.631006e+02   5.871269e+02
  -3.731644e+02   3.453159e+02
  -6.280832e+02  -6.457838e+01
  -3.793764e+02  -3.535731e+02
   1.113350e+02  -3.550721e+02
   4.043857e+02  -7.022035e+01
   2.538765e+02   1.617133e+02
  -7.451723e+01   9.517340e+01
  -1.235183e+02  -1.235649e+02
   1.411547e+02  -1.636321e+02
   3.274317e+02   5.457438e+01
   1.587135e+02   2.779470e+02
  -1.864872e+02   2.839953e+02
  -3.512756e+02   1.109343e+02
  -2.490648e+02  -9.652271e+01
   2.730608e+00  -2.783620e+02
   2.593279e+02  -3.561001e+02
   3.810467e+02  -2.054243e+02
   2.937634e+02   1.493686e+02
   7.141720e+01   4.184222e+02
  -8.758296e+01   3.750513e+02
  -8.784561e+01   1.425800e+02
  -2.183640e+01   3.579031e+01
  -7.996250e+01   1.082983e+02
  -2.319322e+02   1.200094e+02
  -2.917426e+02  -7.322607e+01
  -1.488079e+02  -2.817795e+02
   8.178755e+01  -2.535295e+02
   2.264731e+02  -7.880808e-01
   1.876068e+02   2.520183e+02
  -2.138491e+01   2.968721e+02
  -2.773655e+02   1.016421e+02
  -3.612818e+02  -1.837960e+02
  -1.846900e+02  -3.541215e+02
   8.835388e+01  -3.049932e+02
   2.150292e+02  -1.343954e+02
   1.510287e+02  -2.518446e+01
   1.180024e+02  -5.171908e+01
   2.540178e+02  -6.336084e+01
   4.158668e+02   6.298128e+01
   3.396815e+02   2.930981e+02
   1.139026e-01   4.554244e+02
  -3.610717e+02   4.204341e+02
  -4.921513e+02   2.022043e+02
  -3.385915e+02  -9.940406e+01
  -5.267755e+01  -2.971983e+02
   1.220489e+02  -2.438756e+02
   7.363909e+01  -2.929986e+01
  -1.125809e+02   9.568782e+01
  -1.863391e+02  -1.864995e+01
  -4.224480e+01  -1.855139e+02
   1.515652e+02  -1.579396e+02
   1.619413e+02   6.442491e+01
  -2.257350e+01   1.802199e+02
  -1.965526e+02   2.456139e+01
  -1.758378e+02  -2.550966e+02
   2.558491e+01  -3.658092e+02
   2.467625e+02  -2.127982e+02
   3.515298e+02   5.924294e+01
   2.899413e+02   2.601790e+02
   8.918390e+01   2.827320e+02
  -1.246954e+02   1.594090e+02
  -1.752788e+02   1.157551e+01
  -5.428306e+01  -3.262586e+01
   6.668483e+01   4.676717e+01
   1.906000e+01   1.263047e+02
  -1.272616e+02   8.887047e+01
  -1.705356e+02  -2.271852e+01
  -4.882426e+01  -7.366122e+01
   9.250741e+01  -7.560965e+00
   6.029356e+01   8.359944e+01
  -1.293547e+02   9.925440e+01
  -2.929537e+02   3.958961e+00
  -2.724992e+02  -1.387245e+02
  -6.234262e+01  -2.625152e+02
   1.894655e+02  -2.666653e+02
   2.875923e+02  -1.304421e+02
   1.673524e+02   5.024665e+01
  -2.992849e+01   1.055779e+02
  -8.760965e+01   2.054927e+00
   4.334411e+01  -1.044913e+02
   2.069637e+02  -5.474648e+01
   2.105886e+02   1.123479e+02
   6.401721e+01   2.123579e+02
  -9.751424e+01   1.557895e+02
  -1.385687e+02   2.152039e+01
  -6.336538e+01  -4.173988e+01
   3.404363e+01   3.855608e+00
   3.848853e+01   9.516010e+01
  -7.944795e+01   1.243616e+02
  -2.082496e+02   3.140724e+01
  -1.998820e+02  -1.258709e+02
  -2.382438e+01  -2.255413e+02
   1.650883e+02  -1.699006e+02
   1.941871e+02  -9.652787e+00
   6.334137e+01   1.148958e+02
  -6.767692e+01   1.119613e+02
  -8.152098e+01   2.727069e+01
  -1.334631e+01  -2.963025e+01
   2.885754e+01  -1.498568e+01
  -1.015398e+01   1.618139e+01
  -7.974861e+01  -1.732647e+00
  -1.007659e+02  -8.674304e+01
  -1.779069e+01  -1.712618e+02
   1.358043e+02  -1.604124e+02
   2.467239e+02  -2.304628e+01
   2.084089e+02   1.565499e+02
   4.190226e+01   2.408305e+02
  -1.128958e+02   1.724606e+02
  -1.409611e+02   3.030139e+01
  -7.580791e+01  -5.381365e+01
  -2.995220e+01  -3.374843e+01
  -5.013248e+01   1.578709e+01
  -8.449117e+01   7.242725e+00
  -4.944238e+01  -5.559846e+01
   3.907728e+01  -1.008943e+02
   1.111457e+02  -6.275219e+01
   9.717904e+01   4.132415e+01
  -1.149066e+01   1.227147e+02
  -1.531364e+02   9.303809e+01
  -2.081047e+02  -5.785745e+01
  -1.005517e+02  -2.125019e+02
   1.143761e+02  -2.323511e+02
   2.743015e+02  -9.292843e+01
   2.640530e+02   9.211965e+01
   1.100545e+02   1.852731e+02
  -4.481584e+01   1.544304e+02
  -1.017669e+02   8.355247e+01
  -7.958621e+01   6.800601e+01
  -6.510933e+01   9.375591e+01
  -9.268918e+01   7.765366e+01
  -1.344045e+02  -1.924175e+01
  -1.227440e+02  -1.557591e+02
  -3.355862e+01  -2.306739e+02
   9.633931e+01  -1.767593e+02
   1.766105e+02  -2.168061e+01
   1.403483e+02   1.230526e+02
   1.932527e+01   1.628989e+02
  -7.030371e+01   9.366572e+01
  -6.460193e+01   1.476713e+00
  -4.636403e+00  -4.710999e+01
   1.346434e+01  -3.887708e+01
  -3.157995e+01  -1.768157e+01
  -8.463716e+01  -1.964845e+01
  -4.810249e+01  -4.076131e+01
   6.938510e+01  -4.113699e+01
   1.668085e+02  -3.556386e+00
   1.453685e+02   5.241266e+01
   1.030240e+01   9.286748e+01
  -1.253283e+02   7.813728e+01
  -1.461819e+02   1.250049e+01
  -4.595615e+01  -4.547730e+01
   6.096352e+01  -3.976221e+01
   7.952740e+01   2.190018e+01
   1.419160e+01   7.419267e+01
  -5.217364e+01   6.398659e+01
  -6.770324e+01   3.918656e-01
  -5.137508e+01  -5.002712e+01
  -5.103384e+01  -4.348599e+01
  -6.289147e+01  -3.973014e+00
  -6.976280e+01  -8.977830e-01
  -3.796700e+01  -6.905036e+01
   3.420538e+01  -1.515906e+02
   1.239473e+02  -1.497058e+02
   1.736883e+02  -3.766460e+01
   1.267941e+02   9.360845e+01
   6.548388e+00   1.336657e+02
  -8.752703e+01   6.878923e+01
  -6.117421e+01  -1.410331e+01
   5.980758e+01  -2.437651e+01
   1.373841e+02   4.128670e+01
   7.470276e+01   1.031335e+02
  -8.592988e+01   1.101800e+02
  -1.927979e+02   3.917966e+01
  -1.621279e+02  -4.248877e+01
  -3.319005e+01  -8.740420e+01
   6.478649e+01  -6.486001e+01
   5.357751e+01  -3.630777e+00
  -4.001778e+01   2.924679e+01
  -9.599686e+01  -2.142237e+01
  -3.958106e+01  -1.245573e+02
   8.797044e+01  -1.617049e+02
   1.713948e+02  -6.928007e+01
   1.325714e+02   9.791379e+01
   1.395056e+01   2.021796e+02
  -8.528924e+01   1.468892e+02
  -1.036049e+02  -8.299814e+00
  -6.135365e+01  -1.213967e+02
   2.854020e+00  -1.101258e+02
   4.820585e+01  -2.151553e+01
   5.419096e+01   3.255626e+01
   2.461145e+01   1.045592e+01
   5.219098e+00  -1.950575e+01
   2.391808e+01   1.607692e+01
   5.729966e+01   8.843997e+01
   3.924605e+01   1.100471e+02
  -5.405034e+01   4.660670e+01
  -1.436327e+02  -3.779654e+01
  -1.350584e+02  -7.299256e+01
  -1.863243e+01  -5.385804e+01
   8.709403e+01  -2.526826e+01
   9.069698e+01  -7.570212e+00
   1.404392e+01   8.507901e+00
  -3.617804e+01   2.480931e+01
  -1.716643e+01   2.073081e+01
   1.859051e+01  -3.471784e-01
  -5.740610e+00  -1.017649e+01
  -7.506658e+01  -4.935171e+00
  -9.619840e+01  -2.189497e+01
  -1.644653e+01  -8.005192e+01
   1.120151e+02  -1.179688e+02
   1.895307e+02  -6.901852e+01
   1.518903e+02   6.147618e+01
   3.180920e+01   1.649287e+02
  -8.015931e+01   1.596853e+02
  -1.192269e+02   6.501103e+01
  -8.397068e+01  -2.102302e+01
  -2.630166e+01  -3.769228e+01
   7.824213e-01  -1.187533e+01
  -1.174672e+01  -6.075708e+00
  -3.248289e+01  -4.614337e+01
  -2.224408e+01  -9.075622e+01
   2.673538e+01  -7.287232e+01
   7.919405e+01   1.487576e+01
   8.042163e+01   1.052835e+02
   1.024441e+01   1.134237e+02
  -8.047938e+01   2.776203e+01
  -1.056314e+02  -7.258582e+01
  -3.600145e+01  -1.057545e+02
   6.632962e+01  -6.070165e+01
   1.022940e+02   1.036613e+01
   4.320492e+01   5.445478e+01
  -3.312061e+01   5.747019e+01
  -3.558808e+01   3.088086e+01
   3.098466e+01  -2.126786e+00
   7.071740e+01  -7.744172e+00
   1.800120e+01   2.530728e+01
  -7.786736e+01   6.585015e+01
  -1.183828e+02   5.803428e+01
  -7.001181e+01  -1.133073e+01
   1.392822e+01  -8.436415e+01
   5.665954e+01  -8.377328e+01
   4.108734e+01  -7.921973e+00
   3.333071e+00   5.562993e+01
  -2.529713e+01   4.566130e+01
  -3.729647e+01  -1.522747e+01
  -2.788007e+01  -5.509767e+01
   2.581015e+00  -3.598549e+01
   3.553992e+01   8.460922e+00
   4.269948e+01   2.484437e+01
   2.053212e+01   2.159292e+00
  -2.016036e+00  -1.840100e+01
  -6.022040e+00  -1.012878e+00
  -1.755817e+00   3.655091e+01
  -1.147626e+01   5.023353e+01
  -3.059058e+01   1.254002e+01
  -3.466260e+01  -4.282944e+01
  -1.765804e+00  -6.271773e+01
   4.464493e+01  -2.491028e+01
   5.945033e+01   3.515350e+01
   1.797343e+01   6.288713e+01
  -5.454093e+01   3.594948e+01
  -9.068886e+01  -1.198708e+01
  -5.240885e+01  -4.388536e+01
   2.655458e+01  -4.482634e+01
   6.412327e+01  -2.468296e+01
   2.663838e+01  -6.123709e+00
  -3.255523e+01  -1.493425e+00
  -3.489221e+01  -1.280110e+01
   3.020949e+01  -2.937608e+01
   8.953479e+01  -1.891688e+01
