
 $NMID
 id='ANONYMOUS ', fmtdat='(2E16.6)'
 volume=1.0
 tramp=1.0
 $END
  -3.328087e+03   1.681812e+02
  -2.398355e+03  -1.405772e+03
  -2.371208e+02  -1.969943e+03
   1.080492e+03  -1.392047e+03
   9.713582e+02  -3.830309e+02
   9.597201e+01   1.492794e+02
  -2.952783e+02  -3.939832e+01
  -6.280603e+01  -4.797450e+02
   3.565833e+02  -5.673553e+02
   5.769153e+02  -1.673732e+02
   4.416415e+02   3.936836e+02
   1.135226e+02   5.930307e+02
  -2.087142e+02   2.332686e+02
  -2.566425e+02  -3.462777e+02
   2.773798e+01  -5.233769e+02
   3.728768e+02  -1.188665e+02
   3.295125e+02   4.236301e+02
  -4.948880e+01   6.117761e+02
  -4.277480e+02   3.169550e+02
  -4.618916e+02  -1.296964e+02
  -1.742013e+02  -3.456916e+02
   9.664777e+01  -2.519548e+02
   7.099930e+01  -1.011975e+02
  -1.839943e+02  -1.244174e+02
  -2.705941e+02  -2.590743e+02
   1.714165e+01  -3.385014e+02
   4.473272e+02  -1.788097e+02
   5.711617e+02   1.376583e+02
   2.032917e+02   3.325855e+02
  -2.831947e+02   2.037072e+02
  -4.647201e+02  -8.527081e+01
  -1.798402e+02  -3.229705e+02
   2.275674e+02  -3.422684e+02
   4.032515e+02  -1.569531e+02
   2.891094e+02   1.110165e+02
   1.029245e+02   2.759586e+02
   5.185911e+00   1.883462e+02
   4.844542e+01  -4.685947e+01
   1.425474e+02  -1.303885e+02
   1.574266e+02   1.069371e+02
   3.003613e+01   4.187277e+02
  -1.816943e+02   4.312059e+02
  -2.746198e+02   4.252791e+01
  -1.304786e+02  -2.548291e+02
   9.939010e+01  -1.089723e+02
   1.382450e+02   2.566747e+02
  -1.067492e+02   3.608934e+02
  -4.300709e+02   4.532204e+01
  -4.766544e+02  -3.497042e+02
  -1.711658e+02  -4.558791e+02
   2.530170e+02  -2.661406e+02
   4.827187e+02   1.538414e+01
   3.471581e+02   1.918993e+02
   4.214251e+00   2.079293e+02
  -2.611540e+02   1.152043e+02
  -2.038310e+02   1.699963e+01
  -2.060618e+01  -1.751029e+01
   3.848608e+01   3.768975e+01
  -8.627693e+01   5.396813e+01
  -2.078472e+02  -3.124180e+01
  -1.173632e+02  -1.792784e+02
   1.309306e+02  -2.426384e+02
   3.355030e+02  -1.549523e+02
   2.616752e+02   8.723264e+01
  -2.783807e+01   3.242401e+02
  -2.853219e+02   3.692990e+02
  -3.376730e+02   1.624955e+02
  -2.217191e+02  -1.485003e+02
  -6.799923e+01  -3.395356e+02
   1.423092e+00  -3.163191e+02
  -5.562909e+00  -1.829497e+02
   3.271757e+01  -1.238936e+02
   1.532581e+02  -1.279808e+02
   2.567032e+02  -5.335865e+01
   2.340756e+02   1.192426e+02
   8.997581e+01   2.470297e+02
  -8.539143e+01   1.801334e+02
  -1.846782e+02  -4.194897e+01
  -1.339957e+02  -2.371409e+02
   4.115874e+01  -2.406175e+02
   2.394416e+02  -6.471219e+01
   3.099036e+02   1.537776e+02
   1.832402e+02   2.831358e+02
  -3.457521e+01   2.666196e+02
  -1.539544e+02   1.668734e+02
  -1.435389e+02   9.562916e+01
  -1.486112e+02   7.641889e+01
  -2.768738e+02   4.520778e+01
  -3.990704e+02  -8.363315e+01
  -3.146855e+02  -2.850699e+02
   2.011562e+01  -4.338466e+02
   3.708917e+02  -3.952419e+02
   4.628771e+02  -1.822997e+02
   2.756091e+02   9.511813e+01
   2.324868e+01   2.373840e+02
  -7.040844e+01   1.902007e+02
   3.007555e+00   3.723396e+01
   1.091056e+02  -2.909974e+01
   1.128612e+02   2.706252e+01
   9.553671e+00   1.213899e+02
  -9.686732e+01   8.405162e+01
  -9.138304e+01  -4.368245e+01
   2.565491e+01  -1.152815e+02
   1.527702e+02   4.752174e-01
   1.536576e+02   2.195573e+02
  -5.420237e+00   3.382093e+02
  -2.310095e+02   2.213454e+02
  -3.641988e+02  -4.420739e+01
  -2.839082e+02  -2.554155e+02
  -5.662228e+01  -2.719795e+02
   1.246727e+02  -1.414161e+02
   1.483419e+02  -1.380010e+01
   3.581112e+01   7.691940e+00
  -4.833763e+01  -6.108648e+01
   5.824265e+00  -1.076176e+02
   1.172588e+02  -6.471881e+01
   1.374827e+02   2.095287e+01
   2.854386e+01   5.167960e+01
  -7.747196e+01  -1.022910e+01
  -3.472399e+01  -9.475803e+01
   1.520548e+02  -9.813203e+01
   3.046137e+02   1.525038e+01
   2.544836e+02   1.756985e+02
   2.007058e+01   2.628286e+02
  -2.081669e+02   2.239087e+02
  -2.588659e+02   9.429746e+01
  -1.233098e+02  -3.704974e+01
   2.706013e+01  -6.713401e+01
   5.396962e+01   8.918078e+00
  -5.770096e+01   7.471729e+01
  -1.824501e+02   2.976754e+01
  -1.851118e+02  -9.580204e+01
  -5.989044e+01  -1.802361e+02
   8.379135e+01  -1.338454e+02
   1.194130e+02  -2.032162e+01
   4.215158e+01   3.493148e+01
  -4.751194e+01  -2.642616e+01
  -2.743256e+01  -1.165067e+02
   1.012810e+02  -1.214342e+02
   2.140886e+02  -1.236615e+01
   1.799036e+02   1.355216e+02
   9.384101e+00   2.044314e+02
  -1.505745e+02   1.494549e+02
  -1.667966e+02   1.582229e+01
  -5.698877e+01  -8.775981e+01
   5.265054e+01  -9.289516e+01
   6.381659e+01  -2.437044e+01
  -1.980122e+00   2.335178e+01
  -3.805962e+01   4.811585e+00
   1.215426e+01  -3.207647e+01
   9.394981e+01  -3.721008e+00
   1.079748e+02   9.604198e+01
   9.084466e+00   1.792909e+02
  -1.426737e+02   1.517750e+02
  -2.300510e+02   9.436856e+00
  -1.881812e+02  -1.500609e+02
  -4.206420e+01  -2.192566e+02
   9.189157e+01  -1.566153e+02
   1.227085e+02  -3.507444e+01
   7.532361e+01   3.933968e+01
   3.534907e+01   2.810363e+01
   5.364830e+01  -1.447355e+01
   8.751654e+01  -1.166852e+01
   6.177169e+01   5.713121e+01
  -3.578303e+01   1.118726e+02
  -1.241524e+02   7.387658e+01
  -1.106191e+02  -4.321291e+01
   1.686771e+01  -1.315201e+02
   1.638054e+02  -9.009525e+01
   2.022712e+02   6.552020e+01
   8.146384e+01   2.109315e+02
  -1.198274e+02   2.220809e+02
  -2.549018e+02   8.963049e+01
  -2.379276e+02  -8.141018e+01
  -1.031260e+02  -1.652581e+02
   3.364011e+01  -1.374186e+02
   8.246963e+01  -7.770477e+01
   6.379503e+01  -6.455037e+01
   5.407826e+01  -9.394352e+01
   8.871551e+01  -8.299123e+01
   1.304302e+02   1.158357e+01
   1.217642e+02   1.467046e+02
   3.305143e+01   2.190428e+02
  -9.242394e+01   1.654543e+02
  -1.644883e+02   1.205103e+01
  -1.234938e+02  -1.250033e+02
  -8.449930e+00  -1.530294e+02
   7.728576e+01  -7.871853e+01
   6.313583e+01   2.046959e+01
  -5.575223e+00   5.729026e+01
  -2.999728e+01   3.363623e+01
   2.687897e+01   8.334507e+00
   8.651525e+01   1.726516e+01
   4.865644e+01   4.273191e+01
  -7.453678e+01   4.155173e+01
  -1.757820e+02   1.967035e+00
  -1.470819e+02  -6.422295e+01
  -3.147122e-01  -1.014003e+02
   1.371373e+02  -7.784103e+01
   1.478217e+02  -8.632141e+00
   4.840628e+01   5.029879e+01
  -5.908633e+01   4.752755e+01
  -8.213984e+01  -1.384843e+01
  -2.472534e+01  -7.442938e+01
   4.310893e+01  -7.053351e+01
   7.028656e+01  -5.817580e+00
   6.065250e+01   4.987544e+01
   4.828044e+01   4.109925e+01
   5.346688e+01  -4.402614e+00
   6.715831e+01  -5.309495e+00
   5.205626e+01   7.036828e+01
  -1.728630e+01   1.573241e+02
  -1.221083e+02   1.526085e+02
  -1.827448e+02   3.943128e+01
  -1.341883e+02  -9.128313e+01
  -5.233389e+00  -1.322214e+02
   9.075198e+01  -7.177371e+01
   6.023279e+01   1.009841e+01
  -5.973208e+01   2.167378e+01
  -1.313611e+02  -3.818031e+01
  -6.908927e+01  -1.049419e+02
   7.320968e+01  -1.131002e+02
   1.784703e+02  -5.333979e+01
   1.531609e+02   3.053178e+01
   3.307919e+01   8.054320e+01
  -5.959375e+01   5.832626e+01
  -4.619115e+01  -2.792151e+00
   3.990989e+01  -3.625453e+01
   9.373634e+01   1.572600e+01
   4.871910e+01   1.147923e+02
  -6.812431e+01   1.590670e+02
  -1.525137e+02   7.940920e+01
  -1.315872e+02  -8.331538e+01
  -3.007164e+01  -1.901346e+02
   7.361944e+01  -1.392097e+02
   1.032915e+02   7.724156e+00
   5.663506e+01   1.134770e+02
  -1.274938e+01   1.000021e+02
  -5.237338e+01   1.383287e+01
  -4.299939e+01  -3.008964e+01
  -1.309187e+01  -6.173749e+00
  -5.340319e+00   1.611058e+01
  -3.080695e+01  -2.161447e+01
  -5.803081e+01  -8.920523e+01
  -3.150738e+01  -1.024374e+02
   5.641493e+01  -4.157224e+01
   1.331293e+02   3.433083e+01
   1.179771e+02   6.715268e+01
   1.892930e+01   5.363172e+01
  -7.619108e+01   2.910738e+01
  -8.362762e+01   9.584428e+00
  -1.898058e+01  -1.118736e+01
   3.135866e+01  -2.388163e+01
   1.930998e+01  -1.379593e+01
  -1.297928e+01   5.076583e+00
   3.205461e+00   6.538151e+00
   6.571401e+01  -3.370642e+00
   9.428088e+01   1.745385e+01
   2.708567e+01   8.045351e+01
  -9.998594e+01   1.222763e+02
  -1.858243e+02   7.000957e+01
  -1.556896e+02  -5.470632e+01
  -4.036454e+01  -1.587676e+02
   7.512844e+01  -1.595221e+02
   1.155027e+02  -7.280901e+01
   8.507952e+01   1.425038e+01
   3.148169e+01   3.754861e+01
   5.084217e+00   1.458009e+01
   1.375105e+01   9.308818e+00
   3.015110e+01   4.844873e+01
   2.185248e+01   9.238538e+01
  -2.539183e+01   7.265981e+01
  -7.776754e+01  -1.068813e+01
  -8.363315e+01  -9.620235e+01
  -2.078807e+01  -1.098987e+02
   7.196272e+01  -3.721819e+01
   1.087304e+02   5.748679e+01
   4.633885e+01   1.016836e+02
  -5.859948e+01   7.028676e+01
  -1.029198e+02  -2.762247e-01
  -5.024391e+01  -5.718803e+01
   2.900897e+01  -6.515427e+01
   4.173048e+01  -3.184433e+01
  -2.314898e+01   7.453438e+00
  -6.726479e+01   1.148682e+01
  -2.106521e+01  -2.616185e+01
   7.507176e+01  -6.694818e+01
   1.220495e+02  -5.766400e+01
   7.571713e+01   1.421168e+01
  -9.629802e+00   8.581291e+01
  -5.710722e+01   8.635539e+01
  -4.662406e+01   1.620960e+01
  -9.970421e+00  -5.034690e+01
   2.254617e+01  -5.029016e+01
   3.825721e+01   6.824972e+00
   3.051668e+01   5.331846e+01
  -4.086334e-01   4.266153e+01
  -3.350051e+01  -1.180984e+00
  -4.257210e+01  -2.356300e+01
  -2.131866e+01  -4.348044e+00
   3.897732e+00   2.035659e+01
   5.881417e+00   1.165365e+01
  -7.771727e+00  -3.053275e+01
  -4.250040e+00  -5.397500e+01
   2.671400e+01  -2.708653e+01
   4.372445e+01   2.876777e+01
   1.816122e+01   5.855245e+01
  -3.632407e+01   2.955032e+01
  -6.364644e+01  -2.823799e+01
  -2.392255e+01  -5.974420e+01
   5.291340e+01  -4.151125e+01
   9.442507e+01   4.849219e+00
   5.473957e+01   4.084223e+01
  -2.521380e+01   4.741138e+01
  -6.445878e+01   3.218378e+01
  -3.097975e+01   8.355853e+00
   2.719866e+01  -7.368134e+00
   3.493037e+01   2.193758e+00
  -1.765781e+01   2.521241e+01
  -7.231700e+01   2.652256e+01
