
 $NMID
 id='ANONYMOUS ', fmtdat='(2E16.6)'
 volume=1.0
 tramp=1.0
 $END
  -3.939473e+03  -2.240457e+02
  -2.277424e+03  -2.387384e+03
   5.056551e+02  -2.504703e+03
   1.811681e+03  -1.002314e+03
   1.007993e+03   3.935847e+02
  -3.420278e+02   5.281056e+02
  -6.959688e+02  -2.516187e+02
  -5.534490e+01  -8.525676e+02
   6.637615e+02  -7.176214e+02
   8.181732e+02   2.662318e+01
   4.391345e+02   7.375736e+02
  -1.593385e+02   8.179751e+02
  -5.123394e+02   1.452479e+02
  -3.191878e+02  -6.141219e+02
   2.335421e+02  -6.722070e+02
   5.207275e+02  -3.440737e+01
   2.745967e+02   6.052287e+02
  -2.600351e+02   6.249167e+02
  -5.524476e+02   1.523990e+02
  -3.981677e+02  -2.941425e+02
  -4.566640e+01  -4.157507e+02
   1.921095e+02  -2.586848e+02
   1.727855e+02  -4.758126e+01
  -9.950628e+01   6.030961e+00
  -3.385136e+02  -1.743971e+02
  -1.253337e+02  -3.807394e+02
   4.231000e+02  -2.936601e+02
   7.341361e+02   1.106485e+02
   3.702397e+02   4.443815e+02
  -3.342281e+02   3.683710e+02
  -6.358312e+02  -6.607226e+01
  -2.909544e+02  -4.169874e+02
   2.742885e+02  -4.410175e+02
   5.337876e+02  -1.894182e+02
   3.877445e+02   1.842531e+02
   6.322831e+01   4.181124e+02
  -1.496988e+02   2.692178e+02
  -1.058974e+02  -1.525535e+02
   1.579652e+02  -3.244823e+02
   3.368950e+02   6.027593e+01
   1.344515e+02   6.130916e+02
  -3.153464e+02   5.993235e+02
  -5.137877e+02  -1.438595e+01
  -2.086128e+02  -4.935841e+02
   2.216433e+02  -2.698723e+02
   2.870317e+02   2.909698e+02
  -8.082018e+01   4.755810e+02
  -4.893913e+02   1.059706e+02
  -5.268635e+02  -3.923338e+02
  -1.439188e+02  -5.423563e+02
   3.483820e+02  -3.091023e+02
   5.510429e+02   7.757251e+01
   3.413433e+02   3.448002e+02
  -1.101468e+02   3.023836e+02
  -3.864626e+02   6.123404e+01
  -2.431378e+02  -1.343179e+02
   6.097971e+01  -8.160988e+01
   1.028348e+02   1.071158e+02
  -1.317431e+02   1.417898e+02
  -2.942548e+02  -7.256126e+01
  -1.263831e+02  -2.651581e+02
   2.013634e+02  -2.461136e+02
   3.450200e+02  -5.915577e+01
   2.160709e+02   1.150260e+02
  -5.423100e+01   2.537112e+02
  -2.702649e+02   3.050789e+02
  -3.496332e+02   1.796887e+02
  -2.659398e+02  -1.346696e+02
  -6.844060e+01  -3.991551e+02
   1.001372e+02  -3.782118e+02
   1.072960e+02  -1.490343e+02
   4.846166e+01  -2.742914e+01
   8.210844e+01  -8.183484e+01
   2.023001e+02  -9.827148e+01
   2.494667e+02   7.464532e+01
   1.278650e+02   2.649070e+02
  -7.540849e+01   2.321814e+02
  -2.038058e+02  -9.116420e+00
  -1.633636e+02  -2.456804e+02
   3.033243e+01  -2.725313e+02
   2.569908e+02  -8.577447e+01
   3.285074e+02   1.798314e+02
   1.672600e+02   3.340847e+02
  -8.896069e+01   2.880294e+02
  -2.108562e+02   1.287031e+02
  -1.570425e+02   2.015792e+01
  -1.139364e+02   2.714814e+01
  -2.356592e+02   4.002601e+01
  -3.813420e+02  -7.438503e+01
  -3.041470e+02  -2.867387e+02
   2.820035e+01  -4.254639e+02
   3.688677e+02  -3.827802e+02
   4.774701e+02  -1.672414e+02
   2.997269e+02   1.013093e+02
   3.534306e+01   2.659692e+02
  -1.206303e+02   2.246837e+02
  -5.564175e+01   3.592189e+01
   1.075455e+02  -7.895629e+01
   1.656181e+02   1.809013e+01
   3.401175e+01   1.693375e+02
  -1.295706e+02   1.435277e+02
  -1.431814e+02  -5.269557e+01
   2.063923e+01  -1.634642e+02
   1.723664e+02  -1.858177e+01
   1.441807e+02   2.416006e+02
  -3.803412e+01   3.419298e+02
  -2.340409e+02   1.834018e+02
  -3.254124e+02  -8.555629e+01
  -2.587310e+02  -2.604206e+02
  -6.670099e+01  -2.554398e+02
   1.151053e+02  -1.384232e+02
   1.624661e+02  -1.235249e+01
   5.564493e+01   2.227655e+01
  -5.398659e+01  -4.703813e+01
  -1.429201e+01  -1.139527e+02
   1.213973e+02  -7.999606e+01
   1.625994e+02   2.159879e+01
   4.819402e+01   6.671627e+01
  -7.757094e+01   5.788331e+00
  -4.660394e+01  -7.603364e+01
   1.222253e+02  -8.073426e+01
   2.651559e+02   1.329310e+01
   2.401180e+02   1.426911e+02
   4.569739e+01   2.416466e+02
  -1.827829e+02   2.363368e+02
  -2.691825e+02   1.101805e+02
  -1.576119e+02  -5.231866e+01
   2.321807e+01  -1.006004e+02
   8.018900e+01  -4.314129e+00
  -4.065980e+01   9.210612e+01
  -1.890986e+02   4.607044e+01
  -1.928084e+02  -1.078653e+02
  -5.262540e+01  -1.995410e+02
   9.675442e+01  -1.439018e+02
   1.309226e+02  -1.873372e+01
   6.002125e+01   4.074205e+01
  -2.566313e+01  -8.216429e+00
  -2.487107e+01  -8.947206e+01
   8.039621e+01  -1.044379e+02
   1.899420e+02  -1.454918e+01
   1.758333e+02   1.291145e+02
   1.209796e+01   2.074535e+02
  -1.575892e+02   1.508126e+02
  -1.797145e+02   3.427351e+00
  -5.868921e+01  -1.048919e+02
   6.447865e+01  -9.903099e+01
   7.582960e+01  -2.632539e+01
   1.332021e+01   2.320589e+01
  -2.514241e+01   1.131170e+01
   1.199767e+01  -1.255169e+01
   7.254830e+01   8.904295e+00
   8.622205e+01   8.515181e+01
   5.176972e+00   1.578238e+02
  -1.331229e+02   1.410101e+02
  -2.272187e+02   7.313783e+00
  -1.831396e+02  -1.595907e+02
  -2.637346e+01  -2.264375e+02
   1.119044e+02  -1.529472e+02
   1.342834e+02  -2.100492e+01
   7.013458e+01   5.561867e+01
   2.857074e+01   3.913657e+01
   4.907572e+01  -7.088674e+00
   7.675982e+01  -1.083163e-01
   3.939165e+01   5.417207e+01
  -4.445249e+01   8.839054e+01
  -1.066168e+02   5.189430e+01
  -8.809673e+01  -4.152367e+01
   1.727026e+01  -1.116465e+02
   1.460091e+02  -7.819851e+01
   1.904584e+02   6.378799e+01
   8.303630e+01   2.026494e+02
  -1.202413e+02   2.122933e+02
  -2.680389e+02   7.230777e+01
  -2.442194e+02  -1.005359e+02
  -9.404600e+01  -1.775096e+02
   4.779177e+01  -1.391636e+02
   9.714186e+01  -7.464628e+01
   7.825282e+01  -6.266739e+01
   6.605274e+01  -8.704758e+01
   9.226919e+01  -6.869079e+01
   1.263547e+02   2.631719e+01
   1.065700e+02   1.571991e+02
   1.225157e+01   2.209398e+02
  -1.061136e+02   1.615224e+02
  -1.689154e+02   7.097558e+00
  -1.206124e+02  -1.256901e+02
  -6.215602e+00  -1.537724e+02
   6.960259e+01  -7.828593e+01
   5.422814e+01   5.542555e+00
  -3.639592e+00   4.186469e+01
  -1.585765e+01   3.227318e+01
   3.243729e+01   1.786298e+01
   7.531334e+01   2.354971e+01
   4.130500e+01   3.888963e+01
  -6.637399e+01   3.087771e+01
  -1.534687e+02  -9.404913e+00
  -1.320102e+02  -6.058463e+01
  -7.500586e+00  -8.787352e+01
   1.213347e+02  -6.338345e+01
   1.387116e+02  -4.094120e+00
   4.426929e+01   4.657614e+01
  -5.888545e+01   3.882000e+01
  -7.353451e+01  -2.169406e+01
  -9.447861e+00  -7.077464e+01
   5.227680e+01  -5.710009e+01
   6.396157e+01   4.216450e+00
   4.636514e+01   5.165784e+01
   4.296135e+01   4.452981e+01
   5.452522e+01   2.142247e+00
   5.867339e+01   2.001159e+00
   3.109440e+01   6.796395e+01
  -3.573649e+01   1.416721e+02
  -1.202439e+02   1.294790e+02
  -1.647999e+02   1.975339e+01
  -1.180324e+02  -9.668865e+01
  -5.735789e-01  -1.256358e+02
   8.789297e+01  -5.626638e+01
   6.097199e+01   1.654007e+01
  -5.472693e+01   1.956278e+01
  -1.325113e+02  -4.546651e+01
  -7.213791e+01  -1.029287e+02
   8.769580e+01  -1.052277e+02
   1.933330e+02  -3.431437e+01
   1.571718e+02   4.929127e+01
   2.856683e+01   8.548026e+01
  -6.351987e+01   6.049196e+01
  -4.882324e+01   4.482493e-01
   3.860414e+01  -2.526970e+01
   8.768697e+01   2.295040e+01
   3.115203e+01   1.132826e+02
  -9.029335e+01   1.477734e+02
  -1.613980e+02   6.048513e+01
  -1.202118e+02  -9.762637e+01
  -7.547268e+00  -1.893608e+02
   8.658830e+01  -1.388831e+02
   1.011867e+02   1.062265e+01
   5.401448e+01   1.192251e+02
  -7.050170e+00   1.042480e+02
  -4.617530e+01   1.633123e+01
  -4.896128e+01  -3.429228e+01
  -2.204506e+01  -8.311776e+00
  -3.842407e+00   2.026060e+01
  -1.971557e+01  -1.788876e+01
  -4.863204e+01  -9.036412e+01
  -3.137788e+01  -1.055118e+02
   4.799241e+01  -3.771085e+01
   1.293895e+02   4.256812e+01
   1.214924e+02   7.024272e+01
   1.610017e+01   4.898180e+01
  -8.216724e+01   2.295734e+01
  -8.681837e+01   5.279943e+00
  -1.044356e+01  -1.082594e+01
   3.843218e+01  -2.170041e+01
   1.617464e+01  -1.560706e+01
  -1.968281e+01   3.813129e+00
   1.011248e+00   1.060840e+01
   6.628746e+01   5.448980e+00
   8.706218e+01   2.265271e+01
   9.798182e+00   7.536883e+01
  -1.129018e+02   1.054401e+02
  -1.810882e+02   5.158220e+01
  -1.368881e+02  -6.693885e+01
  -2.227178e+01  -1.559983e+02
   8.272540e+01  -1.433783e+02
   1.165224e+02  -5.338226e+01
   7.791735e+01   2.666821e+01
   2.242478e+01   3.852425e+01
  -2.265039e+00   1.124604e+01
   1.078918e+01   6.713024e+00
   2.785377e+01   4.588363e+01
   1.553942e+01   8.633226e+01
  -3.141610e+01   6.845116e+01
  -7.544873e+01  -1.752478e+01
  -7.132955e+01  -1.037964e+02
  -4.740141e+00  -1.102104e+02
   7.791278e+01  -2.451676e+01
   9.843566e+01   7.260780e+01
   2.989986e+01   1.018275e+02
  -6.559399e+01   5.542789e+01
  -9.789281e+01  -1.336122e+01
  -3.941180e+01  -5.288854e+01
   3.431670e+01  -5.213298e+01
   3.471345e+01  -2.661138e+01
  -3.015078e+01  -2.443251e-01
  -6.710491e+01   2.733008e+00
  -1.695508e+01  -2.640508e+01
   7.920211e+01  -6.239458e+01
   1.176798e+02  -4.926886e+01
   6.497193e+01   1.698739e+01
  -2.035186e+01   8.148696e+01
  -5.760136e+01   7.601057e+01
  -4.177084e+01   5.745546e+00
  -4.091249e+00  -5.498459e+01
   2.477000e+01  -4.447611e+01
   3.551053e+01   1.446147e+01
   2.544899e+01   5.249591e+01
  -2.943057e+00   3.426481e+01
  -3.327677e+01  -7.843630e+00
  -4.092576e+01  -2.452251e+01
  -1.968070e+01  -4.882324e+00
   2.003924e+00   1.605588e+01
   7.516792e+00   2.956548e+00
   3.287165e+00  -3.324008e+01
   1.204294e+01  -4.765214e+01
   2.956660e+01  -1.439289e+01
   3.246579e+01   4.117656e+01
   1.944339e+00   6.190840e+01
  -4.324641e+01   2.362901e+01
  -5.701013e+01  -3.683617e+01
  -1.521121e+01  -6.029558e+01
   5.349686e+01  -3.109907e+01
   8.480066e+01   1.746059e+01
   4.594906e+01   4.288353e+01
  -2.986677e+01   3.866264e+01
  -6.457065e+01   1.944979e+01
  -2.631490e+01   3.227316e+00
   3.467884e+01   2.867541e-01
   3.729502e+01   1.186273e+01
  -2.735904e+01   2.734016e+01
  -8.598224e+01   1.858949e+01
