
 $NMID
 id='ANONYMOUS ', fmtdat='(2E16.6)'
 volume=1.0
 tramp=1.0
 $END
  -2.777127e+03   5.607288e+02
  -2.287069e+03  -1.017695e+03
  -4.517319e+02  -1.998420e+03
   1.032602e+03  -1.513655e+03
   1.077914e+03  -4.338369e+02
   2.448356e+02   2.597003e+02
  -3.318491e+02   1.137470e+02
  -1.928558e+02  -4.141812e+02
   2.569218e+02  -6.067070e+02
   5.517406e+02  -2.157141e+02
   4.853180e+02   3.690948e+02
   1.572645e+02   5.854639e+02
  -2.011216e+02   2.664438e+02
  -3.029064e+02  -2.556343e+02
  -4.416542e+01  -4.732320e+02
   2.889513e+02  -1.462462e+02
   3.248573e+02   3.704676e+02
  -5.273692e+01   5.727079e+02
  -4.065676e+02   3.167944e+02
  -4.414543e+02  -1.170818e+02
  -1.799373e+02  -3.229076e+02
   5.080270e+01  -2.742124e+02
   4.351173e+01  -1.581147e+02
  -1.126706e+02  -1.485211e+02
  -1.703163e+02  -2.033922e+02
   2.139310e+01  -2.225653e+02
   3.079619e+02  -1.208402e+02
   4.531975e+02   6.338008e+01
   2.192132e+02   1.969539e+02
  -1.658117e+02   1.491065e+02
  -3.583607e+02  -5.232459e+01
  -1.696520e+02  -2.386935e+02
   1.639557e+02  -2.757526e+02
   3.349891e+02  -1.316337e+02
   2.797760e+02   8.556923e+01
   1.367508e+02   2.399134e+02
   5.717416e+01   1.908082e+02
   3.344574e+01   1.726669e+01
   5.271945e+01  -7.447500e+01
   7.448053e+01   6.378688e+01
   2.752762e+01   3.189165e+02
  -9.705467e+01   3.596783e+02
  -2.194253e+02   9.040692e+01
  -1.666721e+02  -1.709865e+02
   2.559124e+01  -9.894343e+01
   1.201348e+02   1.572291e+02
  -5.610899e+01   2.733009e+02
  -3.133398e+02   5.686479e+01
  -3.982183e+02  -2.678648e+02
  -1.658477e+02  -3.823457e+02
   2.023700e+02  -2.420465e+02
   4.306850e+02   1.923362e+00
   3.365497e+02   1.555070e+02
   1.242414e+01   1.980685e+02
  -2.367096e+02   1.518423e+02
  -2.229017e+02   2.093695e+01
  -4.976048e+01  -5.323015e+01
   5.825580e+01  -3.393926e+00
  -3.988905e+01   5.445766e+01
  -1.846006e+02   6.001331e-01
  -1.367293e+02  -1.393667e+02
   1.130797e+02  -2.244058e+02
   3.071437e+02  -1.276278e+02
   2.224908e+02   9.636632e+01
  -3.942354e+01   2.852216e+02
  -2.682583e+02   2.912691e+02
  -2.948441e+02   1.230925e+02
  -1.821564e+02  -1.185000e+02
  -7.537448e+01  -2.907484e+02
  -1.453827e+01  -3.027388e+02
   9.876081e+00  -1.968933e+02
   7.048473e+01  -1.135104e+02
   1.527597e+02  -8.684628e+01
   2.154840e+02  -2.249352e+01
   1.906015e+02   1.089598e+02
   7.305136e+01   2.062900e+02
  -7.271576e+01   1.458683e+02
  -1.448989e+02  -4.200554e+01
  -9.647155e+01  -2.009191e+02
   4.142533e+01  -1.874132e+02
   1.934972e+02  -3.759315e+01
   2.508182e+02   1.381096e+02
   1.632392e+02   2.373879e+02
  -1.452219e+01   2.302861e+02
  -1.296055e+02   1.634851e+02
  -1.477572e+02   1.001501e+02
  -1.671288e+02   6.533036e+01
  -2.608458e+02   1.500986e+01
  -3.538421e+02  -1.072893e+02
  -2.596529e+02  -2.622382e+02
   2.530539e+01  -3.664856e+02
   3.209930e+02  -3.281135e+02
   3.936036e+02  -1.593589e+02
   2.357504e+02   6.019537e+01
   2.947947e+01   1.920558e+02
  -5.481072e+01   1.738193e+02
  -8.208455e+00   5.616882e+01
   7.633823e+01  -2.018330e+01
   9.673691e+01   1.213042e+01
   2.269155e+01   9.750607e+01
  -7.559493e+01   8.541753e+01
  -8.512161e+01  -2.079435e+01
   8.363551e+00  -9.447569e+01
   1.260600e+02  -1.753494e+00
   1.339464e+02   2.006995e+02
  -1.737420e+01   3.009721e+02
  -2.210720e+02   1.772207e+02
  -3.169031e+02  -6.820928e+01
  -2.300706e+02  -2.334929e+02
  -4.112056e+01  -2.294563e+02
   1.035763e+02  -1.051678e+02
   1.175088e+02  -7.591501e+00
   3.238970e+01  -5.053257e+00
  -3.068921e+01  -5.488720e+01
   8.700380e+00  -8.386590e+01
   9.419828e+01  -4.490802e+01
   1.092475e+02   1.941367e+01
   2.059467e+01   3.318022e+01
  -6.398522e+01  -2.255765e+01
  -2.035990e+01  -8.381186e+01
   1.422732e+02  -7.299255e+01
   2.581349e+02   2.811861e+01
   2.099219e+02   1.499422e+02
   1.314584e+01   2.113842e+02
  -1.702029e+02   1.757911e+02
  -2.132783e+02   8.088270e+01
  -1.045457e+02  -2.228387e+01
   1.996644e+01  -4.870708e+01
   4.019329e+01   4.497293e+00
  -5.051053e+01   5.847651e+01
  -1.535965e+02   2.473912e+01
  -1.547257e+02  -8.043279e+01
  -4.868044e+01  -1.495440e+02
   6.567763e+01  -1.105346e+02
   9.282717e+01  -1.854525e+01
   3.228011e+01   1.789207e+01
  -3.228140e+01  -3.393705e+01
  -9.472664e+00  -9.901781e+01
   9.264890e+01  -9.324726e+01
   1.778767e+02   2.821990e+00
   1.474794e+02   1.167014e+02
   7.582121e+00   1.727230e+02
  -1.266112e+02   1.276515e+02
  -1.422950e+02   1.620761e+01
  -5.056266e+01  -7.179369e+01
   4.459873e+01  -7.845060e+01
   5.148758e+01  -2.205379e+01
  -5.730251e+00   1.473414e+01
  -3.276539e+01  -2.082388e+00
   1.752683e+01  -2.875035e+01
   8.913632e+01   4.154721e+00
   9.260169e+01   9.046400e+01
  -7.496822e-02   1.545568e+02
  -1.285378e+02   1.216060e+02
  -1.984733e+02  -3.702256e+00
  -1.535672e+02  -1.359106e+02
  -3.054674e+01  -1.897792e+02
   8.001605e+01  -1.353565e+02
   1.049170e+02  -3.147122e+01
   6.458523e+01   3.420633e+01
   3.255251e+01   2.229645e+01
   5.148573e+01  -1.597250e+01
   8.013263e+01  -7.089459e+00
   4.972412e+01   5.635014e+01
  -4.068415e+01   9.871356e+01
  -1.146965e+02   5.468255e+01
  -9.296058e+01  -4.986815e+01
   2.577355e+01  -1.174126e+02
   1.502330e+02  -6.804008e+01
   1.769076e+02   7.237855e+01
   6.293100e+01   1.883438e+02
  -1.144493e+02   1.810902e+02
  -2.262023e+02   6.011646e+01
  -2.036066e+02  -8.057911e+01
  -8.309988e+01  -1.418451e+02
   3.321464e+01  -1.113577e+02
   7.301578e+01  -6.341474e+01
   5.795102e+01  -5.897864e+01
   5.004795e+01  -8.483305e+01
   8.023126e+01  -7.390716e+01
   1.182122e+02   1.458627e+01
   1.033206e+02   1.367463e+02
   2.133928e+01   1.951439e+02
  -8.291518e+01   1.411282e+02
  -1.385795e+02   8.902810e+00
  -1.017347e+02  -1.058267e+02
  -6.010670e+00  -1.258493e+02
   6.014239e+01  -6.325109e+01
   4.540181e+01   1.477275e+01
  -1.124288e+01   4.584034e+01
  -2.674496e+01   2.454630e+01
   2.543626e+01   4.311466e+00
   7.884725e+01   1.597092e+01
   4.464890e+01   3.825646e+01
  -6.689530e+01   3.461344e+01
  -1.495352e+02  -7.415499e+00
  -1.173962e+02  -5.714809e+01
   8.993732e+00  -7.844445e+01
   1.196745e+02  -5.782920e+01
   1.223213e+02  -1.112723e+00
   3.002669e+01   4.159359e+01
  -5.537922e+01   3.488387e+01
  -6.697546e+01  -1.665138e+01
  -1.390278e+01  -6.949840e+01
   4.155298e+01  -6.250341e+01
   6.173579e+01  -9.782244e-01
   5.145137e+01   4.895504e+01
   4.365841e+01   3.788857e+01
   5.087086e+01  -3.790314e+00
   6.076073e+01  -3.057488e+00
   4.162996e+01   6.700547e+01
  -2.466299e+01   1.365157e+02
  -1.128020e+02   1.248136e+02
  -1.577476e+02   2.350315e+01
  -1.096007e+02  -8.524728e+01
   3.990725e+00  -1.133714e+02
   8.495158e+01  -5.650206e+01
   5.234371e+01   1.161557e+01
  -5.667371e+01   2.025082e+01
  -1.229873e+02  -3.563136e+01
  -5.912021e+01  -8.876419e+01
   7.385465e+01  -9.453814e+01
   1.589170e+02  -3.728848e+01
   1.270068e+02   2.962779e+01
   2.117912e+01   6.531302e+01
  -5.103829e+01   4.669641e+01
  -3.472255e+01  -2.307854e+00
   3.806178e+01  -2.583760e+01
   8.099937e+01   1.829525e+01
   3.536740e+01   9.943160e+01
  -6.689720e+01   1.387069e+02
  -1.358595e+02   6.350913e+01
  -1.141255e+02  -7.745381e+01
  -2.071089e+01  -1.629577e+02
   6.688371e+01  -1.223858e+02
   8.593892e+01   1.061603e+01
   4.955147e+01   1.012120e+02
  -8.346432e+00   8.465354e+01
  -4.317696e+01   1.121711e+01
  -3.947846e+01  -2.388154e+01
  -1.495957e+01  -4.168368e+00
  -4.987957e+00   1.098248e+01
  -2.502561e+01  -2.561907e+01
  -4.677056e+01  -7.736029e+01
  -2.874161e+01  -8.370680e+01
   4.836344e+01  -2.990507e+01
   1.173114e+02   2.831677e+01
   1.076222e+02   5.667151e+01
   1.489836e+01   4.407402e+01
  -6.980380e+01   2.374192e+01
  -7.404011e+01   5.345211e+00
  -1.425283e+01  -1.184911e+01
   2.865331e+01  -2.169368e+01
   1.768330e+01  -1.050650e+01
  -1.185390e+01   6.078579e+00
   2.425277e+00   5.677588e+00
   5.948736e+01  -4.283012e+00
   8.317999e+01   1.362461e+01
   2.290320e+01   7.225552e+01
  -9.294440e+01   1.097874e+02
  -1.651968e+02   6.187255e+01
  -1.372603e+02  -5.320979e+01
  -3.037968e+01  -1.429788e+02
   7.250700e+01  -1.358829e+02
   1.030105e+02  -5.461282e+01
   6.987209e+01   1.527598e+01
   2.222701e+01   3.064068e+01
   1.398804e+00   1.141459e+01
   1.008337e+01   9.335093e+00
   2.414322e+01   4.389321e+01
   1.666164e+01   7.354739e+01
  -2.019860e+01   6.095628e+01
  -6.581779e+01  -1.018828e+01
  -7.392946e+01  -8.609525e+01
  -1.680782e+01  -9.745991e+01
   6.506699e+01  -3.448872e+01
   9.608674e+01   5.117604e+01
   3.906208e+01   9.159178e+01
  -5.453284e+01   6.027495e+01
  -9.070440e+01  -6.339510e+00
  -3.901053e+01  -5.377271e+01
   3.182598e+01  -5.601982e+01
   3.696346e+01  -2.253999e+01
  -2.283654e+01   9.875567e+00
  -6.063182e+01   1.084267e+01
  -1.721393e+01  -2.559186e+01
   6.593728e+01  -5.801944e+01
   1.038655e+02  -4.653425e+01
   6.208611e+01   1.573096e+01
  -1.090103e+01   7.317170e+01
  -5.085955e+01   7.109332e+01
  -4.063485e+01   9.256325e+00
  -8.240695e+00  -4.762763e+01
   2.162052e+01  -4.425642e+01
   3.696354e+01   7.321359e+00
   2.866739e+01   4.848506e+01
  -2.864501e-01   3.789378e+01
  -3.061283e+01  -3.391206e+00
  -3.675343e+01  -2.326878e+01
  -1.667352e+01  -3.184512e+00
   2.104486e+00   2.005949e+01
   6.888907e-01   9.412222e+00
  -7.977354e+00  -2.912156e+01
  -6.291032e-01  -5.209070e+01
   2.507141e+01  -2.313239e+01
   4.068101e+01   3.029657e+01
   1.449666e+01   5.415772e+01
  -3.399394e+01   2.641878e+01
  -5.662862e+01  -2.618167e+01
  -1.879213e+01  -5.266800e+01
   4.889930e+01  -3.297009e+01
   8.310865e+01   8.842480e+00
   4.624313e+01   3.812822e+01
  -2.518001e+01   4.167348e+01
  -5.941918e+01   2.603625e+01
  -2.866489e+01   5.325643e+00
   2.319715e+01  -8.230665e+00
   3.063424e+01   2.726472e-01
  -1.559147e+01   2.206258e+01
  -6.449543e+01   2.078128e+01
