
 $NMID
 id='ANONYMOUS ', fmtdat='(2E16.6)'
 volume=1.0
 tramp=1.0
 $END
   4.901925e+03   6.775878e+01
   2.813777e+03   3.003210e+03
  -1.051108e+03   3.054508e+03
  -2.480053e+03   7.978330e+02
  -9.837889e+02  -9.354487e+02
   8.857199e+02  -6.589701e+02
   1.056572e+03   6.058649e+02
  -1.040325e+02   1.242789e+03
  -9.758088e+02   7.820886e+02
  -9.861781e+02  -2.071738e+02
  -4.113446e+02  -9.473278e+02
   3.208948e+02  -9.149271e+02
   6.883537e+02  -8.590590e+01
   3.863720e+02   7.842809e+02
  -3.252584e+02   7.716397e+02
  -6.383097e+02  -3.553290e+01
  -2.398840e+02  -7.450300e+02
   3.857313e+02  -6.304636e+02
   6.309803e+02  -3.731339e+01
   3.710725e+02   4.081137e+02
  -2.132487e+01   4.570386e+02
  -2.824311e+02   2.620053e+02
  -2.504618e+02  -8.009367e+00
   1.052457e+02  -1.235847e+02
   4.488338e+02   8.563180e+01
   2.466123e+02   4.530852e+02
  -4.592890e+02   4.844755e+02
  -9.166661e+02  -4.385185e+01
  -4.793653e+02  -5.997112e+02
   4.265935e+02  -5.599928e+02
   8.119204e+02   2.803906e+01
   3.673398e+02   5.364838e+02
  -3.129501e+02   5.615130e+02
  -5.986531e+02   1.995723e+02
  -4.256726e+02  -2.552626e+02
  -5.085209e+01  -5.096460e+02
   2.344256e+02  -2.929803e+02
   2.230606e+02   2.506042e+02
  -1.591536e+02   5.005355e+02
  -5.123168e+02   4.900821e+00
  -3.040575e+02  -7.405148e+02
   3.486374e+02  -7.745304e+02
   6.808283e+02   1.280272e+01
   2.870743e+02   6.446446e+02
  -3.187795e+02   3.699136e+02
  -4.328270e+02  -3.527963e+02
   6.632396e+01  -5.923312e+02
   5.903197e+02  -1.646157e+02
   6.058767e+02   4.371958e+02
   1.446059e+02   6.118650e+02
  -4.174687e+02   3.537237e+02
  -6.276447e+02  -9.254391e+01
  -3.696171e+02  -4.220782e+02
   1.936407e+02  -4.028840e+02
   4.816452e+02  -3.695889e+01
   2.364239e+02   2.277635e+02
  -1.563176e+02   1.113899e+02
  -1.602216e+02  -1.901877e+02
   1.832361e+02  -2.226553e+02
   3.744537e+02   8.815678e+01
   1.389140e+02   3.322050e+02
  -2.219385e+02   2.563318e+02
  -3.190186e+02   3.971220e+01
  -1.651159e+02  -8.934615e+01
   3.807709e+01  -1.998356e+02
   2.052078e+02  -3.135940e+02
   3.306643e+02  -2.142661e+02
   3.019650e+02   1.421468e+02
   7.548465e+01   4.651436e+02
  -1.609089e+02   3.911978e+02
  -1.588352e+02   7.737284e+01
  -2.059554e+01  -5.441579e+01
  -8.870751e+00   8.150953e+01
  -1.791203e+02   1.528206e+02
  -2.868933e+02  -3.373410e+01
  -1.729976e+02  -2.788301e+02
   7.024013e+01  -2.740487e+02
   2.336184e+02  -2.260696e+01
   2.036231e+02   2.365584e+02
  -5.397977e+00   3.034252e+02
  -2.683276e+02   1.306958e+02
  -3.689688e+02  -1.593653e+02
  -1.859055e+02  -3.613727e+02
   1.193779e+02  -3.200914e+02
   2.522297e+02  -1.062636e+02
   1.567677e+02   2.545117e+01
   7.777978e+01  -1.862857e+01
   2.035494e+02  -7.220059e+01
   3.729721e+02   4.658156e+01
   3.199467e+02   2.780473e+02
   1.299534e+00   4.431285e+02
  -3.479257e+02   4.069419e+02
  -4.862507e+02   1.944912e+02
  -3.453443e+02  -9.391836e+01
  -5.986920e+01  -2.933475e+02
   1.414555e+02  -2.567093e+02
   9.803011e+01  -2.349401e+01
  -1.135458e+02   1.258671e+02
  -2.191456e+02   4.170245e+00
  -6.860288e+01  -2.128822e+02
   1.745257e+02  -1.916278e+02
   2.034813e+02   5.857577e+01
  -7.477556e+00   2.086212e+02
  -2.019905e+02   4.689757e+01
  -1.648048e+02  -2.413344e+02
   3.871802e+01  -3.456929e+02
   2.290339e+02  -1.787711e+02
   3.081215e+02   6.942629e+01
   2.650532e+02   2.285901e+02
   9.190330e+01   2.483711e+02
  -1.094415e+02   1.616228e+02
  -1.836202e+02   2.410408e+01
  -6.567852e+01  -3.981038e+01
   7.251277e+01   3.103431e+01
   3.948494e+01   1.309805e+02
  -1.251003e+02   1.100352e+02
  -1.872031e+02  -1.016736e+01
  -6.589579e+01  -7.836639e+01
   7.731226e+01  -2.704253e+01
   5.741624e+01   6.622199e+01
  -1.158328e+02   8.073174e+01
  -2.708522e+02  -2.530287e+00
  -2.533732e+02  -1.326738e+02
  -6.258682e+01  -2.479263e+02
   1.801077e+02  -2.620941e+02
   2.871997e+02  -1.261673e+02
   1.806062e+02   5.437094e+01
  -2.079275e+01   1.195950e+02
  -9.929041e+01   1.161441e+01
   2.274294e+01  -1.082987e+02
   1.929597e+02  -6.630312e+01
   2.229698e+02   1.013251e+02
   7.392049e+01   2.127605e+02
  -9.350505e+01   1.620994e+02
  -1.467817e+02   3.088420e+01
  -7.565237e+01  -4.341442e+01
   2.150114e+01  -9.451500e+00
   3.723344e+01   7.235529e+01
  -6.229506e+01   1.082872e+02
  -1.885354e+02   3.222682e+01
  -1.900395e+02  -1.203015e+02
  -2.223611e+01  -2.191835e+02
   1.702351e+02  -1.640227e+02
   1.998993e+02  -1.239068e+00
   6.853610e+01   1.213599e+02
  -6.762039e+01   1.154293e+02
  -8.578603e+01   3.199140e+01
  -2.256887e+01  -2.409113e+01
   1.710160e+01  -1.890151e+01
  -1.097276e+01   4.243053e+00
  -6.354247e+01  -1.109820e+01
  -7.816376e+01  -7.625899e+01
  -1.400004e+01  -1.480833e+02
   1.177274e+02  -1.499757e+02
   2.243288e+02  -3.014744e+01
   1.964586e+02   1.464883e+02
   4.190236e+01   2.402553e+02
  -1.099778e+02   1.681678e+02
  -1.387813e+02   2.201151e+01
  -6.980582e+01  -6.150098e+01
  -2.647806e+01  -3.843387e+01
  -4.891938e+01   1.268663e+01
  -7.018429e+01   8.522644e-01
  -3.302867e+01  -4.905451e+01
   4.358080e+01  -7.949097e+01
   9.381642e+01  -4.497067e+01
   7.505154e+01   3.477369e+01
  -1.334855e+01   9.850960e+01
  -1.297896e+02   7.925646e+01
  -1.840545e+02  -4.622769e+01
  -9.820767e+01  -1.896514e+02
   9.942745e+01  -2.191871e+02
   2.609090e+02  -9.542537e+01
   2.540006e+02   8.376809e+01
   1.102374e+02   1.771465e+02
  -3.769631e+01   1.483599e+02
  -9.550636e+01   8.702586e+01
  -8.304817e+01   6.590764e+01
  -7.062339e+01   8.332561e+01
  -9.275975e+01   6.593852e+01
  -1.239077e+02  -2.542950e+01
  -1.119076e+02  -1.486341e+02
  -2.402040e+01  -2.173903e+02
   1.002441e+02  -1.679860e+02
   1.730288e+02  -2.206525e+01
   1.328726e+02   1.157300e+02
   1.846369e+01   1.531578e+02
  -6.145204e+01   8.876793e+01
  -5.541357e+01   4.032751e+00
  -6.642520e+00  -3.731020e+01
   3.864469e+00  -3.350362e+01
  -3.855863e+01  -1.766677e+01
  -7.070064e+01  -2.381066e+01
  -3.839319e+01  -3.673022e+01
   5.691590e+01  -3.511844e+01
   1.428638e+02  -4.818618e+00
   1.360192e+02   4.493499e+01
   1.607766e+01   8.489893e+01
  -1.132147e+02   7.330324e+01
  -1.390886e+02   1.109972e+01
  -4.489679e+01  -4.053804e+01
   6.063025e+01  -3.530897e+01
   7.411948e+01   2.271081e+01
   2.279564e+00   6.593423e+01
  -5.818147e+01   5.376114e+01
  -5.956817e+01  -4.409216e+00
  -3.755393e+01  -4.826063e+01
  -3.582317e+01  -4.039621e+01
  -5.430415e+01   7.957824e-01
  -6.004220e+01   6.703195e-02
  -3.419457e+01  -6.336368e+01
   3.196163e+01  -1.377774e+02
   1.090555e+02  -1.345148e+02
   1.556229e+02  -2.789366e+01
   1.166969e+02   9.036151e+01
   5.842144e+00   1.200320e+02
  -8.410012e+01   5.566337e+01
  -5.755889e+01  -1.712231e+01
   5.891158e+01  -2.048171e+01
   1.339774e+02   4.249970e+01
   7.756193e+01   1.037757e+02
  -8.092424e+01   1.111089e+02
  -1.837536e+02   5.304030e+01
  -1.587998e+02  -3.747679e+01
  -3.428567e+01  -8.937547e+01
   6.229912e+01  -7.176134e+01
   4.831350e+01  -6.626484e+00
  -4.019225e+01   2.447400e+01
  -8.906106e+01  -2.598954e+01
  -2.754823e+01  -1.195792e+02
   9.691203e+01  -1.444009e+02
   1.678170e+02  -5.142252e+01
   1.188535e+02   1.032797e+02
   2.197960e+00   1.947243e+02
  -8.853767e+01   1.361873e+02
  -1.019645e+02  -8.478302e+00
  -5.764898e+01  -1.111171e+02
   3.716490e-01  -9.979859e+01
   4.139359e+01  -1.822598e+01
   4.883379e+01   3.052816e+01
   2.562609e+01   6.574251e+00
   3.198989e+00  -2.217686e+01
   1.994522e+01   1.249343e+01
   5.328684e+01   8.882923e+01
   4.276739e+01   1.106741e+02
  -4.287654e+01   4.485032e+01
  -1.327623e+02  -3.996224e+01
  -1.209483e+02  -6.998048e+01
  -1.334007e+01  -4.640379e+01
   8.674132e+01  -1.967054e+01
   8.420227e+01  -5.736522e+00
   5.724656e+00   8.129684e+00
  -4.112916e+01   2.028437e+01
  -1.168702e+01   1.835144e+01
   2.065201e+01  -1.292473e+00
  -6.460315e+00  -1.006817e+01
  -7.035440e+01  -7.569884e+00
  -8.350722e+01  -2.408431e+01
  -5.239139e+00  -7.657400e+01
   1.153486e+02  -1.103116e+02
   1.774463e+02  -5.282657e+01
   1.359357e+02   7.329342e+01
   2.477663e+01   1.626533e+02
  -7.935632e+01   1.447078e+02
  -1.147509e+02   5.201625e+01
  -8.095120e+01  -2.653921e+01
  -2.320194e+01  -3.645194e+01
   5.237702e+00  -7.778987e+00
  -7.376813e+00  -9.988460e-01
  -3.271968e+01  -4.299411e+01
  -2.116146e+01  -8.753441e+01
   3.158890e+01  -6.951418e+01
   8.006913e+01   1.934204e+01
   7.196472e+01   1.067505e+02
  -2.559718e+00   1.096008e+02
  -8.392655e+01   1.935297e+01
  -9.694231e+01  -8.007796e+01
  -2.511976e+01  -1.019699e+02
   6.749572e+01  -5.000395e+01
   9.236661e+01   1.467683e+01
   3.533589e+01   4.612334e+01
  -3.032490e+01   4.532657e+01
  -2.534380e+01   2.655199e+01
   3.624499e+01   1.859944e+00
   6.840026e+01  -4.597695e+00
   1.399226e+01   2.290292e+01
  -7.699439e+01   6.116776e+01
  -1.119259e+02   5.421638e+01
  -5.873629e+01  -1.318150e+01
   1.968565e+01  -7.782404e+01
   5.278779e+01  -7.189095e+01
   3.594539e+01   1.084333e-01
  -2.249670e+00   5.540415e+01
  -2.914127e+01   3.854895e+01
  -3.547773e+01  -2.319741e+01
  -2.181612e+01  -5.532232e+01
   6.893418e+00  -3.055415e+01
   3.303331e+01   1.112878e+01
   3.517822e+01   2.104897e+01
   1.743025e+01   1.321317e+00
   4.532206e-01  -1.148618e+01
  -5.640080e+00   5.762864e+00
  -8.919049e+00   3.579710e+01
  -2.374817e+01   3.997029e+01
  -3.404762e+01   4.408871e+00
  -2.534503e+01  -4.754763e+01
   9.565764e+00  -5.934613e+01
   4.755150e+01  -1.663925e+01
   5.325543e+01   4.267332e+01
   1.031575e+01   6.324424e+01
  -5.423159e+01   3.099924e+01
  -8.431363e+01  -1.962939e+01
  -4.602716e+01  -4.504874e+01
   2.850491e+01  -3.650953e+01
   6.210531e+01  -1.663245e+01
   2.151554e+01  -2.795443e+00
  -3.883907e+01  -5.657530e+00
  -3.634242e+01  -1.878792e+01
   3.243975e+01  -3.081263e+01
   8.994830e+01  -1.662925e+01
