
 $NMID
 id='ANONYMOUS ', fmtdat='(2E16.6)'
 volume=1.0
 tramp=1.0
 $END
  -3.204582e+03  -2.084916e+02
  -1.952491e+03  -1.669379e+03
   2.824813e+02  -1.949860e+03
   1.305765e+03  -9.889876e+02
   7.713205e+02  -5.889458e+01
  -1.418301e+02   1.881230e+02
  -3.964830e+02  -1.910517e+02
   1.230834e+01  -5.966832e+02
   4.927525e+02  -5.773824e+02
   6.521375e+02  -6.155055e+01
   4.111514e+02   5.304996e+02
  -1.956736e+01   6.492311e+02
  -3.224694e+02   1.480266e+02
  -2.502931e+02  -4.723055e+02
   1.294205e+02  -5.536251e+02
   4.198382e+02  -5.514891e+01
   2.813583e+02   4.650252e+02
  -1.208816e+02   5.532157e+02
  -4.141437e+02   2.171716e+02
  -3.885050e+02  -1.643450e+02
  -1.030282e+02  -3.253161e+02
   1.367842e+02  -2.196783e+02
   9.171605e+01  -7.050156e+01
  -1.765735e+02  -6.392353e+01
  -3.120297e+02  -2.374141e+02
  -3.133090e+01  -3.798052e+02
   4.660843e+02  -2.139474e+02
   6.360714e+02   1.635526e+02
   2.316110e+02   4.187529e+02
  -3.531699e+02   2.452638e+02
  -5.348091e+02  -1.124035e+02
  -2.034909e+02  -3.811966e+02
   2.469956e+02  -3.660289e+02
   4.450946e+02  -1.538449e+02
   3.014498e+02   1.502332e+02
   8.033119e+01   3.092012e+02
  -5.828602e+01   1.678400e+02
   1.207318e+01  -1.284177e+02
   1.800485e+02  -2.168885e+02
   2.511127e+02   1.125228e+02
   4.552872e+01   5.058593e+02
  -2.607246e+02   4.622434e+02
  -3.413059e+02  -1.576641e+01
  -1.052228e+02  -3.475029e+02
   1.670181e+02  -1.735613e+02
   1.944597e+02   2.634390e+02
  -9.122341e+01   3.907161e+02
  -4.335305e+02   7.365671e+01
  -4.819437e+02  -3.291697e+02
  -1.699945e+02  -4.523162e+02
   2.791819e+02  -2.556430e+02
   5.033336e+02   4.487054e+01
   3.260842e+02   2.396864e+02
  -6.049163e+01   2.140724e+02
  -3.210486e+02   6.285045e+01
  -2.114741e+02  -5.517609e+01
   2.036397e+01  -3.251667e+01
   5.560054e+01   6.731326e+01
  -1.192563e+02   6.750414e+01
  -2.209506e+02  -6.210287e+01
  -1.005724e+02  -1.976381e+02
   1.460401e+02  -2.327405e+02
   3.006175e+02  -1.414301e+02
   2.318130e+02   5.657998e+01
   1.208134e+01   2.637541e+02
  -2.324843e+02   3.649029e+02
  -3.216026e+02   2.112603e+02
  -2.451897e+02  -1.375878e+02
  -5.547101e+01  -3.723948e+02
   5.386439e+01  -3.179395e+02
   4.243947e+01  -1.385514e+02
   1.824494e+01  -5.836916e+01
   9.413900e+01  -1.061173e+02
   2.114818e+02  -7.633709e+01
   2.365117e+02   9.891603e+01
   9.994736e+01   2.493305e+02
  -8.513961e+01   1.981049e+02
  -1.942822e+02  -3.015517e+01
  -1.563307e+02  -2.359803e+02
   2.824449e+01  -2.503787e+02
   2.445757e+02  -7.934349e+01
   3.154606e+02   1.523572e+02
   1.726384e+02   2.819273e+02
  -5.068125e+01   2.473059e+02
  -1.554611e+02   1.407587e+02
  -1.241202e+02   7.603813e+01
  -1.245772e+02   7.433319e+01
  -2.623494e+02   6.026548e+01
  -3.988390e+02  -6.833908e+01
  -3.172933e+02  -2.601925e+02
   7.746573e-01  -4.102185e+02
   3.359576e+02  -3.886749e+02
   4.402975e+02  -1.924580e+02
   2.861197e+02   8.145038e+01
   3.771479e+01   2.493208e+02
  -8.792627e+01   2.022896e+02
  -2.025637e+01   3.204599e+01
   1.178842e+02  -4.782518e+01
   1.350874e+02   3.997965e+01
   4.408924e-02   1.545415e+02
  -1.294295e+02   9.403176e+01
  -1.155044e+02  -5.951701e+01
   3.258319e+01  -1.376295e+02
   1.589830e+02  -1.483690e+00
   1.448609e+02   2.199669e+02
  -7.595886e+00   3.130110e+02
  -2.022519e+02   1.976966e+02
  -3.260467e+02  -3.812053e+01
  -2.807452e+02  -2.220059e+02
  -7.747132e+01  -2.486752e+02
   1.141980e+02  -1.441194e+02
   1.456599e+02  -1.533283e+01
   3.539174e+01   1.387383e+01
  -5.609709e+01  -5.533568e+01
  -2.459900e+00  -1.082715e+02
   1.179454e+02  -6.976478e+01
   1.439725e+02   1.800248e+01
   3.232552e+01   5.309840e+01
  -7.643799e+01  -2.555913e+00
  -4.327200e+01  -8.026120e+01
   1.302096e+02  -8.833274e+01
   2.805231e+02   1.375407e+00
   2.542578e+02   1.468250e+02
   4.452542e+01   2.502139e+02
  -1.835138e+02   2.343762e+02
  -2.503552e+02   1.022192e+02
  -1.364479e+02  -4.165207e+01
   2.551303e+01  -7.752286e+01
   6.328610e+01   2.613703e+00
  -4.888567e+01   8.105768e+01
  -1.763086e+02   3.807431e+01
  -1.818997e+02  -8.998864e+01
  -6.130080e+01  -1.745680e+02
   7.777596e+01  -1.341363e+02
   1.206221e+02  -2.341869e+01
   4.849377e+01   3.707223e+01
  -4.298803e+01  -9.624675e+00
  -3.782141e+01  -1.000587e+02
   7.814434e+01  -1.191969e+02
   1.944522e+02  -2.863825e+01
   1.779305e+02   1.179627e+02
   1.634326e+01   1.969726e+02
  -1.419944e+02   1.439727e+02
  -1.601544e+02   1.137533e+01
  -5.188774e+01  -9.116296e+01
   5.797735e+01  -9.328957e+01
   6.748690e+01  -2.645853e+01
   5.799689e+00   2.580760e+01
  -3.134360e+01   1.588918e+01
   3.976814e+00  -1.781021e+01
   7.685992e+01  -4.751856e+00
   9.997386e+01   7.578063e+01
   2.344613e+01   1.591385e+02
  -1.228931e+02   1.502951e+02
  -2.261158e+02   2.356066e+01
  -1.901976e+02  -1.368553e+02
  -4.487523e+01  -2.099989e+02
   8.795351e+01  -1.528077e+02
   1.164119e+02  -3.530238e+01
   6.909089e+01   3.547123e+01
   3.423915e+01   2.435106e+01
   5.557641e+01  -1.512203e+01
   8.402313e+01  -1.364830e+01
   5.478657e+01   4.598830e+01
  -2.835313e+01   9.745838e+01
  -1.071263e+02   7.123270e+01
  -1.006403e+02  -2.945798e+01
   8.389595e+00  -1.177390e+02
   1.451572e+02  -9.128591e+01
   1.960022e+02   4.777357e+01
   9.256525e+01   1.917048e+02
  -1.000212e+02   2.171716e+02
  -2.446671e+02   9.557166e+01
  -2.385583e+02  -7.456421e+01
  -1.041225e+02  -1.556153e+02
   3.018731e+01  -1.329422e+02
   8.400577e+01  -8.151334e+01
   6.886938e+01  -6.674106e+01
   5.504190e+01  -8.712473e+01
   8.089461e+01  -7.573472e+01
   1.209384e+02   1.360719e+01
   1.162778e+02   1.400436e+02
   3.690381e+01   2.076983e+02
  -8.565578e+01   1.584696e+02
  -1.575238e+02   1.787755e+01
  -1.251141e+02  -1.145508e+02
  -1.663627e+01  -1.493241e+02
   6.952711e+01  -8.510421e+01
   6.249745e+01   8.644210e+00
   4.179155e+00   5.084507e+01
  -2.326466e+01   3.739991e+01
   2.452469e+01   1.435048e+01
   7.683672e+01   1.530205e+01
   4.663581e+01   3.479054e+01
  -6.533373e+01   4.240553e+01
  -1.656529e+02   1.008208e+01
  -1.416255e+02  -5.270562e+01
  -9.266410e+00  -9.334601e+01
   1.195606e+02  -7.800071e+01
   1.376902e+02  -1.551171e+01
   4.784325e+01   3.951189e+01
  -4.887339e+01   4.348996e+01
  -7.134339e+01  -1.118238e+01
  -2.037544e+01  -6.430263e+01
   3.828508e+01  -6.211897e+01
   6.303329e+01  -7.268064e+00
   5.681303e+01   4.362399e+01
   4.782232e+01   3.812425e+01
   5.459998e+01  -2.006801e-01
   6.364042e+01  -1.117631e+00
   4.276851e+01   6.549955e+01
  -2.194635e+01   1.420184e+02
  -1.136443e+02   1.441170e+02
  -1.666219e+02   4.406189e+01
  -1.260424e+02  -7.932169e+01
  -1.047582e+01  -1.248598e+02
   7.906832e+01  -7.103358e+01
   5.533694e+01   5.745855e+00
  -5.636954e+01   1.760344e+01
  -1.283306e+02  -3.624431e+01
  -6.958064e+01  -1.017891e+02
   7.300893e+01  -1.074047e+02
   1.791907e+02  -5.581617e+01
   1.518466e+02   2.282643e+01
   3.793846e+01   7.488611e+01
  -5.542008e+01   6.336872e+01
  -4.571579e+01   6.566669e+00
   3.470431e+01  -3.129779e+01
   8.624649e+01   1.267544e+01
   4.383601e+01   1.024419e+02
  -6.478783e+01   1.479679e+02
  -1.405415e+02   7.354126e+01
  -1.212203e+02  -7.667057e+01
  -2.941809e+01  -1.750785e+02
   6.460864e+01  -1.365908e+02
   9.678201e+01   3.510640e+00
   5.863542e+01   1.068083e+02
  -4.259789e+00   9.687778e+01
  -4.546428e+01   1.627686e+01
  -4.379904e+01  -2.572883e+01
  -1.304929e+01  -4.570772e+00
  -2.360443e+00   1.724837e+01
  -2.633747e+01  -1.715435e+01
  -6.014451e+01  -7.951384e+01
  -3.701640e+01  -9.964331e+01
   4.834650e+01  -4.418589e+01
   1.283568e+02   2.843633e+01
   1.187244e+02   5.959108e+01
   2.373374e+01   4.795927e+01
  -7.151642e+01   2.756871e+01
  -8.116365e+01   1.066441e+01
  -1.786144e+01  -8.311288e+00
   2.963306e+01  -2.010527e+01
   1.391549e+01  -1.392473e+01
  -1.573859e+01   1.709661e+00
   5.345681e+00   5.739949e+00
   6.317328e+01  -9.845812e-01
   8.606224e+01   1.601016e+01
   1.937151e+01   7.007481e+01
  -9.550157e+01   1.125377e+02
  -1.711611e+02   7.377456e+01
  -1.432897e+02  -4.406339e+01
  -3.832613e+01  -1.460506e+02
   6.367438e+01  -1.496439e+02
   1.034530e+02  -6.906981e+01
   7.525557e+01   1.318900e+01
   2.901767e+01   3.282398e+01
   4.034460e+00   1.024048e+01
   1.188561e+01   6.889976e+00
   2.812483e+01   4.347538e+01
   2.363042e+01   8.479180e+01
  -2.168718e+01   6.864618e+01
  -7.258035e+01  -9.608389e+00
  -7.641257e+01  -9.183644e+01
  -1.794594e+01  -1.018961e+02
   6.595593e+01  -3.171684e+01
   9.929510e+01   5.396490e+01
   4.271698e+01   9.199538e+01
  -5.424950e+01   6.208850e+01
  -9.490846e+01  -1.619421e+00
  -4.550481e+01  -5.037046e+01
   2.807509e+01  -5.927090e+01
   3.533553e+01  -2.899983e+01
  -2.397528e+01   6.215320e+00
  -6.158972e+01   1.276205e+01
  -1.960734e+01  -2.409079e+01
   6.931260e+01  -6.624587e+01
   1.106964e+02  -5.983140e+01
   7.120763e+01   7.043424e+00
  -3.678968e+00   7.843762e+01
  -4.754005e+01   8.242358e+01
  -4.016991e+01   1.786830e+01
  -9.428503e+00  -4.814704e+01
   1.892066e+01  -4.808002e+01
   3.421359e+01   7.780879e+00
   3.112810e+01   5.031495e+01
   4.548500e+00   3.809778e+01
  -2.965700e+01  -2.712502e+00
  -4.261178e+01  -2.004988e+01
  -2.270472e+01  -3.254563e+00
   5.270481e+00   1.508426e+01
   1.049832e+01   6.219567e+00
  -1.116471e+00  -2.545583e+01
  -2.090807e+00  -4.265233e+01
   2.212047e+01  -1.854318e+01
   3.610007e+01   2.827086e+01
   1.446028e+01   5.106955e+01
  -3.513423e+01   2.477556e+01
  -5.894069e+01  -2.338922e+01
  -2.214297e+01  -5.191149e+01
   4.816330e+01  -3.725510e+01
   8.411596e+01   2.103298e+00
   4.905504e+01   3.547649e+01
  -2.116082e+01   4.374204e+01
  -5.532294e+01   3.097517e+01
  -2.584991e+01   9.651127e+00
   2.362045e+01  -2.576565e+00
   2.901573e+01   6.121655e+00
  -2.142079e+01   2.422055e+01
  -7.025693e+01   2.115935e+01
