
 $NMID
 id='ANONYMOUS ', fmtdat='(2E16.6)'
 volume=1.0
 tramp=1.0
 $END
  -4.502489e+03  -6.760235e+01
  -2.657319e+03  -2.879635e+03
   9.705909e+02  -2.931790e+03
   2.356368e+03  -8.517197e+02
   1.022500e+03   7.568942e+02
  -7.059064e+02   6.610676e+02
  -9.136545e+02  -4.859569e+02
   8.025859e+01  -1.158331e+03
   9.183918e+02  -8.356346e+02
   1.001683e+03   1.307928e+02
   4.605429e+02   9.404277e+02
  -2.801097e+02   9.691352e+02
  -6.831866e+02   1.449126e+02
  -4.107724e+02  -7.545210e+02
   2.915444e+02  -8.052341e+02
   6.437626e+02   2.308638e+00
   2.899777e+02   7.505513e+02
  -3.604876e+02   6.888289e+02
  -6.545968e+02   9.521586e+01
  -4.272195e+02  -4.039466e+02
  -2.597166e+00  -4.754784e+02
   2.850709e+02  -2.759833e+02
   2.357319e+02   7.985710e+00
  -1.151692e+02   1.018250e+02
  -4.240122e+02  -1.313674e+02
  -2.022555e+02  -4.606586e+02
   4.843712e+02  -4.230273e+02
   8.909663e+02   8.443285e+01
   4.561625e+02   5.626113e+02
  -4.033936e+02   5.085673e+02
  -7.784854e+02  -3.995673e+01
  -3.634380e+02  -5.058642e+02
   3.056855e+02  -5.381832e+02
   6.103526e+02  -1.937645e+02
   4.501674e+02   2.473170e+02
   5.750090e+01   5.055080e+02
  -2.310348e+02   2.975424e+02
  -1.834755e+02  -2.344925e+02
   1.839994e+02  -4.652065e+02
   4.640505e+02   1.812382e+01
   2.494685e+02   7.105056e+02
  -3.350577e+02   7.408180e+02
  -6.353719e+02   1.094295e+01
  -2.680822e+02  -6.025148e+02
   3.100693e+02  -3.585100e+02
   3.989742e+02   3.357569e+02
  -7.218315e+01   5.805490e+02
  -5.742825e+02   1.496236e+02
  -6.132795e+02  -4.516457e+02
  -1.741231e+02  -6.266809e+02
   4.089255e+02  -3.671448e+02
   6.576418e+02   8.272029e+01
   3.957512e+02   4.219343e+02
  -1.692963e+02   3.743377e+02
  -4.755339e+02   4.647877e+01
  -2.740765e+02  -2.103381e+02
   1.307728e+02  -1.208958e+02
   1.699616e+02   1.626365e+02
  -1.593710e+02   2.097051e+02
  -3.746726e+02  -6.351818e+01
  -1.564312e+02  -3.089571e+02
   2.168203e+02  -2.720764e+02
   3.558599e+02  -7.084073e+01
   2.087658e+02   9.134055e+01
  -2.740990e+01   2.343120e+02
  -2.557713e+02   3.355696e+02
  -3.815058e+02   2.119508e+02
  -3.217216e+02  -1.674921e+02
  -7.040359e+01  -4.673867e+02
   1.553899e+02  -4.029406e+02
   1.562533e+02  -1.201138e+02
   4.117127e+01   1.265252e+01
   5.231777e+01  -8.518703e+01
   2.082403e+02  -1.290917e+02
   2.925492e+02   6.034889e+01
   1.637386e+02   2.902409e+02
  -7.968510e+01   2.741624e+02
  -2.385966e+02   1.292881e+01
  -2.033821e+02  -2.560679e+02
   1.507031e+01  -3.170911e+02
   2.838422e+02  -1.191322e+02
   3.809740e+02   1.833115e+02
   1.966339e+02   3.793373e+02
  -1.128894e+02   3.336002e+02
  -2.528764e+02   1.305529e+02
  -1.720126e+02   1.713416e+00
  -1.099287e+02   2.327996e+01
  -2.422845e+02   5.600915e+01
  -4.122156e+02  -6.328668e+01
  -3.452921e+02  -3.004021e+02
   1.343017e+01  -4.698609e+02
   3.956995e+02  -4.323513e+02
   5.236707e+02  -1.983012e+02
   3.571383e+02   1.081898e+02
   5.608913e+01   3.071432e+02
  -1.382622e+02   2.619745e+02
  -8.263788e+01   3.466257e+01
   1.163802e+02  -1.016872e+02
   2.053431e+02   1.747649e+01
   5.352581e+01   2.089182e+02
  -1.595608e+02   1.873144e+02
  -1.876767e+02  -5.794938e+01
   1.154466e+01  -2.004901e+02
   1.970406e+02  -3.324304e+01
   1.681905e+02   2.624849e+02
  -3.976393e+01   3.718162e+02
  -2.467158e+02   1.985866e+02
  -3.428410e+02  -7.977888e+01
  -2.843551e+02  -2.595647e+02
  -9.285137e+01  -2.805191e+02
   1.286491e+02  -1.682069e+02
   1.899375e+02  -1.943864e+01
   6.557967e+01   3.981061e+01
  -7.196413e+01  -3.736883e+01
  -2.957038e+01  -1.318436e+02
   1.352129e+02  -1.054500e+02
   1.918637e+02   1.263205e+01
   6.703645e+01   7.745347e+01
  -8.120148e+01   2.244935e+01
  -5.934494e+01  -7.191528e+01
   1.272569e+02  -8.520158e+01
   2.907403e+02   1.462025e+01
   2.679223e+02   1.545564e+02
   5.601959e+01   2.683748e+02
  -1.971729e+02   2.737788e+02
  -3.016704e+02   1.313717e+02
  -1.873338e+02  -5.823389e+01
   2.108034e+01  -1.197180e+02
   1.004457e+02  -1.082836e+01
  -2.910787e+01   1.107583e+02
  -2.084278e+02   6.597063e+01
  -2.343698e+02  -1.135628e+02
  -7.578393e+01  -2.299949e+02
   1.038905e+02  -1.707816e+02
   1.565430e+02  -2.767838e+01
   7.704854e+01   4.604779e+01
  -2.611540e+01   4.181831e+00
  -3.686010e+01  -8.607146e+01
   7.454959e+01  -1.162166e+02
   2.050036e+02  -2.571428e+01
   1.973338e+02   1.356120e+02
   1.876949e+01   2.280761e+02
  -1.766356e+02   1.663492e+02
  -2.067249e+02   1.955698e+00
  -6.775117e+01  -1.219587e+02
   7.519718e+01  -1.157801e+02
   9.279213e+01  -3.110295e+01
   2.253614e+01   2.792986e+01
  -2.228766e+01   1.993493e+01
   7.548413e+00  -5.771321e+00
   7.486734e+01   1.246148e+01
   8.953828e+01   8.868652e+01
   9.022140e+00   1.650853e+02
  -1.395900e+02   1.551174e+02
  -2.439864e+02   1.869810e+01
  -2.041718e+02  -1.639855e+02
  -3.696954e+01  -2.520277e+02
   1.161084e+02  -1.768321e+02
   1.456165e+02  -2.596245e+01
   7.703853e+01   6.197301e+01
   3.179937e+01   4.391777e+01
   5.335790e+01  -8.276260e+00
   7.875697e+01  -7.310884e-01
   3.773644e+01   5.331065e+01
  -4.839378e+01   8.861049e+01
  -1.079870e+02   4.949984e+01
  -8.582841e+01  -3.971157e+01
   1.725692e+01  -1.110571e+02
   1.442270e+02  -8.300790e+01
   1.983339e+02   5.620846e+01
   1.026246e+02   2.078595e+02
  -1.075376e+02   2.320368e+02
  -2.740491e+02   9.617508e+01
  -2.644343e+02  -8.950045e+01
  -1.150061e+02  -1.851131e+02
   4.176363e+01  -1.517590e+02
   9.985944e+01  -8.267438e+01
   8.406996e+01  -7.130797e+01
   7.215081e+01  -9.040987e+01
   9.684660e+01  -7.234661e+01
   1.302735e+02   2.504835e+01
   1.159502e+02   1.568581e+02
   2.263383e+01   2.329590e+02
  -1.084242e+02   1.761191e+02
  -1.815830e+02   1.967871e+01
  -1.379171e+02  -1.264725e+02
  -1.672102e+01  -1.666166e+02
   7.078977e+01  -9.669588e+01
   6.321938e+01  -5.976943e+00
   4.509785e+00   4.160378e+01
  -8.451077e+00   3.592798e+01
   3.615509e+01   2.177047e+01
   7.889209e+01   2.746110e+01
   4.195182e+01   4.135611e+01
  -6.797938e+01   3.277304e+01
  -1.594067e+02  -3.210759e+00
  -1.413028e+02  -5.429127e+01
  -1.481383e+01  -8.948365e+01
   1.233692e+02  -7.102093e+01
   1.483082e+02  -1.109239e+01
   5.070408e+01   4.342393e+01
  -6.145660e+01   3.883122e+01
  -7.687106e+01  -2.037428e+01
  -6.925525e+00  -7.109956e+01
   5.899335e+01  -5.776672e+01
   6.684766e+01   6.069362e+00
   4.430639e+01   5.341825e+01
   4.176112e+01   4.671680e+01
   5.917952e+01   4.409333e+00
   6.143284e+01   3.132354e+00
   3.208141e+01   6.934051e+01
  -3.974955e+01   1.450045e+02
  -1.202747e+02   1.348148e+02
  -1.660020e+02   2.523698e+01
  -1.206071e+02  -9.820760e+01
  -2.155738e+00  -1.277932e+02
   9.055805e+01  -5.937478e+01
   6.358047e+01   1.813566e+01
  -5.656285e+01   2.036871e+01
  -1.401727e+02  -4.633394e+01
  -7.892055e+01  -1.071929e+02
   8.458363e+01  -1.124057e+02
   1.987984e+02  -4.613809e+01
   1.692184e+02   4.375020e+01
   3.380651e+01   9.158681e+01
  -6.710221e+01   7.100209e+01
  -5.079569e+01   5.264980e+00
   4.109985e+01  -2.611950e+01
   9.319701e+01   2.714499e+01
   3.056017e+01   1.225819e+02
  -9.823354e+01   1.581857e+02
  -1.755977e+02   6.088624e+01
  -1.286712e+02  -1.082351e+02
  -5.839719e+00  -2.034440e+02
   9.417631e+01  -1.474554e+02
   1.067667e+02   9.893325e+00
   5.789385e+01   1.226077e+02
  -5.635095e+00   1.087522e+02
  -4.798493e+01   2.132774e+01
  -5.478180e+01  -3.369044e+01
  -2.709564e+01  -7.998171e+00
  -3.490645e+00   2.078529e+01
  -2.192285e+01  -1.379054e+01
  -5.849337e+01  -9.226283e+01
  -4.312167e+01  -1.136203e+02
   5.056693e+01  -4.789272e+01
   1.412699e+02   4.229849e+01
   1.320059e+02   7.738609e+01
   1.714610e+01   5.231563e+01
  -9.199324e+01   2.127495e+01
  -9.470873e+01   3.143069e+00
  -1.382038e+01  -1.003919e+01
   4.119993e+01  -2.541403e+01
   1.715556e+01  -1.916486e+01
  -2.044064e+01   2.765410e+00
   3.976970e+00   8.277843e+00
   7.548647e+01   3.861732e+00
   9.519403e+01   2.495322e+01
   9.273043e+00   8.378502e+01
  -1.242944e+02   1.167904e+02
  -1.966646e+02   5.677931e+01
  -1.462825e+02  -7.522476e+01
  -2.016174e+01  -1.702392e+02
   8.911230e+01  -1.503832e+02
   1.219274e+02  -5.451169e+01
   8.411896e+01   2.690343e+01
   2.489899e+01   3.882521e+01
  -4.044117e+00   9.848633e+00
   9.340083e+00   3.002121e+00
   3.362813e+01   4.597936e+01
   2.198872e+01   9.185355e+01
  -3.216108e+01   7.252426e+01
  -8.273543e+01  -2.331994e+01
  -7.528914e+01  -1.144156e+02
  -4.179773e-01  -1.162232e+02
   8.682376e+01  -2.181648e+01
   1.045045e+02   8.230318e+01
   2.876489e+01   1.088805e+02
  -7.155908e+01   5.587789e+01
  -1.011995e+02  -1.528215e+01
  -3.801567e+01  -5.310491e+01
   3.559348e+01  -5.203403e+01
   3.296518e+01  -2.759734e+01
  -3.555191e+01   8.493423e-01
  -7.262235e+01   6.652577e+00
  -1.766295e+01  -2.459693e+01
   7.837990e+01  -6.562500e+01
   1.164232e+02  -5.808600e+01
   6.590873e+01   1.185510e+01
  -1.849042e+01   8.320624e+01
  -5.936898e+01   7.723259e+01
  -3.946071e+01   1.337919e+00
   2.245935e+00  -5.836240e+01
   3.084054e+01  -4.124629e+01
   3.703628e+01   2.203064e+01
   2.268681e+01   5.609906e+01
  -7.153362e+00   3.240314e+01
  -3.389857e+01  -1.143700e+01
  -3.785598e+01  -2.396939e+01
  -1.914381e+01  -1.086274e+00
   4.699690e-01   1.562583e+01
   4.585365e+00  -2.477198e+00
   7.005592e+00  -3.690377e+01
   1.901858e+01  -4.615563e+01
   3.310218e+01  -6.884031e+00
   3.062942e+01   4.766515e+01
  -4.163334e+00   6.293433e+01
  -4.753664e+01   1.926096e+01
  -5.791332e+01  -4.361991e+01
  -1.339026e+01  -6.409021e+01
   5.835551e+01  -3.148445e+01
   9.198575e+01   1.929503e+01
   4.996392e+01   4.734121e+01
  -3.150005e+01   4.116004e+01
  -6.777051e+01   1.793171e+01
  -2.382496e+01   2.908422e+00
   3.924315e+01   4.768416e+00
   3.880380e+01   2.017368e+01
  -3.130948e+01   3.382265e+01
  -9.374909e+01   1.888487e+01
