
 $NMID
 id='ANONYMOUS ', fmtdat='(2E16.6)'
 volume=1.0
 tramp=1.0
 $END
   5.014375e+03   1.279046e+01
   2.845905e+03   3.078772e+03
  -9.138605e+02   3.112003e+03
  -2.450220e+03   1.014300e+03
  -1.140508e+03  -7.995876e+02
   6.775350e+02  -7.039890e+02
   1.034816e+03   4.465861e+02
   4.693317e+01   1.217686e+03
  -9.296448e+02   9.322263e+02
  -1.086401e+03  -9.509702e+01
  -5.379884e+02  -9.682659e+02
   2.753967e+02  -1.033651e+03
   7.306432e+02  -1.539442e+02
   4.436665e+02   8.184316e+02
  -3.120922e+02   8.758521e+02
  -6.920144e+02   2.621997e+00
  -3.205462e+02  -7.620699e+02
   3.690971e+02  -7.236280e+02
   6.656135e+02  -1.078753e+02
   4.402813e+02   3.993058e+02
   7.922898e+00   4.865537e+02
  -2.808783e+02   2.855792e+02
  -2.455171e+02   4.314617e+00
   1.058317e+02  -9.212626e+01
   4.417987e+02   1.212262e+02
   2.240647e+02   4.712477e+02
  -4.750931e+02   4.382045e+02
  -9.166586e+02  -8.972260e+01
  -4.811986e+02  -5.825069e+02
   4.077967e+02  -5.453335e+02
   8.242087e+02   8.899876e+00
   4.066966e+02   5.187521e+02
  -2.997815e+02   5.892531e+02
  -6.428627e+02   2.456570e+02
  -4.761611e+02  -2.353894e+02
  -7.112775e+01  -5.362584e+02
   2.415221e+02  -3.360675e+02
   2.101310e+02   2.304619e+02
  -1.788802e+02   4.797219e+02
  -4.822553e+02  -1.580510e+01
  -2.667203e+02  -7.408473e+02
   3.553676e+02  -7.785695e+02
   6.756638e+02  -1.185124e+01
   3.034997e+02   6.330347e+02
  -3.055874e+02   3.871114e+02
  -4.093077e+02  -3.332990e+02
   6.609902e+01  -6.055885e+02
   5.861049e+02  -1.677909e+02
   6.591185e+02   4.376492e+02
   1.885242e+02   6.425317e+02
  -4.112076e+02   4.044990e+02
  -6.813072e+02  -7.578628e+01
  -4.186548e+02  -4.305051e+02
   1.717360e+02  -4.004352e+02
   5.027500e+02  -5.807035e+01
   2.855353e+02   2.091541e+02
  -1.299117e+02   1.152021e+02
  -1.662844e+02  -1.802922e+02
   1.758591e+02  -2.077422e+02
   3.845914e+02   8.351433e+01
   1.634570e+02   3.309495e+02
  -2.173812e+02   2.865559e+02
  -3.696596e+02   7.623342e+01
  -2.307056e+02  -9.333442e+01
   2.738639e+01  -2.487217e+02
   2.518814e+02  -3.639795e+02
   3.941343e+02  -2.374214e+02
   3.354498e+02   1.580740e+02
   8.614890e+01   4.781611e+02
  -1.514293e+02   4.235051e+02
  -1.554640e+02   1.261215e+02
  -4.704598e+01  -2.117522e+01
  -4.568010e+01   7.912413e+01
  -1.998523e+02   1.351746e+02
  -2.924062e+02  -5.044072e+01
  -1.763766e+02  -2.927580e+02
   7.124298e+01  -2.864045e+02
   2.462496e+02  -2.185277e+01
   2.205252e+02   2.585945e+02
  -1.092248e+00   3.206554e+02
  -2.826317e+02   1.308409e+02
  -3.920628e+02  -1.751504e+02
  -2.093604e+02  -3.790499e+02
   1.096141e+02  -3.426051e+02
   2.616506e+02  -1.366428e+02
   1.804082e+02   5.549531e+00
   1.077643e+02  -1.327034e+01
   2.393327e+02  -5.469665e+01
   4.246238e+02   5.142711e+01
   3.603730e+02   3.007489e+02
  -5.659061e+00   4.886390e+02
  -4.005349e+02   4.585104e+02
  -5.413105e+02   2.138287e+02
  -3.646400e+02  -1.080949e+02
  -5.963469e+01  -3.213422e+02
   1.404630e+02  -2.757853e+02
   8.985289e+01  -3.258954e+01
  -1.185399e+02   1.093991e+02
  -2.140357e+02  -7.409903e+00
  -6.631863e+01  -2.117632e+02
   1.576994e+02  -1.901744e+02
   1.960857e+02   5.560187e+01
  -7.777348e+00   2.033203e+02
  -2.010352e+02   3.643796e+01
  -1.743884e+02  -2.629110e+02
   3.020794e+01  -3.762017e+02
   2.473540e+02  -2.053100e+02
   3.505651e+02   7.273717e+01
   2.974418e+02   2.609477e+02
   9.730007e+01   2.851414e+02
  -1.270582e+02   1.729146e+02
  -1.961146e+02   2.069613e+01
  -6.927248e+01  -4.001883e+01
   7.250477e+01   3.706608e+01
   3.414790e+01   1.340461e+02
  -1.319094e+02   1.126977e+02
  -1.953532e+02  -7.688706e+00
  -7.028160e+01  -7.835415e+01
   8.178371e+01  -2.385027e+01
   6.105570e+01   7.326053e+01
  -1.300752e+02   8.614975e+01
  -2.975594e+02  -7.818547e+00
  -2.833653e+02  -1.475264e+02
  -6.827195e+01  -2.740739e+02
   1.995815e+02  -2.903007e+02
   3.161664e+02  -1.501483e+02
   1.988807e+02   5.695269e+01
  -1.996755e+01   1.271739e+02
  -1.020132e+02   1.551964e+01
   2.971343e+01  -1.130452e+02
   2.110290e+02  -7.020266e+01
   2.330550e+02   1.099058e+02
   7.697562e+01   2.304604e+02
  -1.006010e+02   1.713897e+02
  -1.516281e+02   3.105972e+01
  -7.958238e+01  -4.389868e+01
   2.180454e+01  -1.589003e+00
   3.587746e+01   8.650859e+01
  -7.698273e+01   1.192468e+02
  -2.105138e+02   3.028387e+01
  -2.084077e+02  -1.347225e+02
  -2.336182e+01  -2.399779e+02
   1.809393e+02  -1.810368e+02
   2.145332e+02  -5.519304e+00
   7.283390e+01   1.249286e+02
  -7.442389e+01   1.198464e+02
  -9.276535e+01   3.333740e+01
  -2.238194e+01  -2.736637e+01
   2.268262e+01  -2.159935e+01
  -9.775479e+00   5.340315e+00
  -7.412534e+01  -1.107082e+01
  -9.332931e+01  -8.927942e+01
  -1.207537e+01  -1.678018e+02
   1.362979e+02  -1.613471e+02
   2.474901e+02  -2.502927e+01
   2.116373e+02   1.614982e+02
   4.452773e+01   2.548965e+02
  -1.154463e+02   1.822840e+02
  -1.464116e+02   2.894178e+01
  -7.821072e+01  -6.198086e+01
  -3.313966e+01  -4.028416e+01
  -5.429877e+01   8.639668e+00
  -7.937597e+01   4.390257e+00
  -3.889427e+01  -5.269938e+01
   4.669178e+01  -8.886846e+01
   1.085225e+02  -5.415471e+01
   8.908563e+01   3.689465e+01
  -1.194110e+01   1.157758e+02
  -1.465293e+02   9.363649e+01
  -2.077162e+02  -4.902034e+01
  -1.130897e+02  -2.113949e+02
   1.089574e+02  -2.426746e+02
   2.875163e+02  -9.805861e+01
   2.807517e+02   9.558041e+01
   1.222428e+02   1.966549e+02
  -4.216404e+01   1.604401e+02
  -1.043559e+02   9.294550e+01
  -8.708389e+01   7.782887e+01
  -7.344582e+01   1.005396e+02
  -1.003632e+02   7.943851e+01
  -1.380019e+02  -2.363927e+01
  -1.228269e+02  -1.637341e+02
  -2.870488e+01  -2.382305e+02
   1.092151e+02  -1.837077e+02
   1.901189e+02  -2.258323e+01
   1.470955e+02   1.301420e+02
   2.026855e+01   1.706370e+02
  -7.251695e+01   9.980889e+01
  -6.437368e+01   6.100612e+00
  -6.063273e+00  -4.162329e+01
   8.377864e+00  -3.543184e+01
  -3.989716e+01  -2.307177e+01
  -8.516542e+01  -2.526369e+01
  -4.657635e+01  -4.051955e+01
   6.929757e+01  -3.961715e+01
   1.688899e+02  -2.861671e+00
   1.538310e+02   5.351900e+01
   2.160879e+01   9.231361e+01
  -1.223836e+02   7.708663e+01
  -1.514260e+02   1.615342e+01
  -5.070997e+01  -4.538114e+01
   6.284813e+01  -4.000375e+01
   7.808321e+01   2.063380e+01
   7.043585e+00   7.418258e+01
  -5.794126e+01   6.097638e+01
  -6.720400e+01  -3.641134e+00
  -4.555898e+01  -5.393391e+01
  -4.584458e+01  -4.329885e+01
  -6.325964e+01   1.367995e+00
  -6.974563e+01   1.205366e+00
  -3.834537e+01  -7.007483e+01
   3.319351e+01  -1.554095e+02
   1.208875e+02  -1.520284e+02
   1.728462e+02  -3.657287e+01
   1.306386e+02   9.906522e+01
   6.424351e+00   1.370574e+02
  -9.176205e+01   6.644616e+01
  -6.503822e+01  -1.801737e+01
   6.024155e+01  -2.238173e+01
   1.459605e+02   4.478804e+01
   8.116461e+01   1.135237e+02
  -8.636737e+01   1.212826e+02
  -2.034818e+02   5.423126e+01
  -1.755729e+02  -3.902211e+01
  -3.934906e+01  -9.220136e+01
   6.530990e+01  -7.264528e+01
   5.418901e+01  -7.198003e+00
  -4.026804e+01   2.598114e+01
  -9.752977e+01  -2.463224e+01
  -3.418352e+01  -1.256118e+02
   9.874035e+01  -1.667831e+02
   1.788063e+02  -6.944337e+01
   1.357070e+02   1.073999e+02
   7.878342e+00   2.106389e+02
  -9.528407e+01   1.536033e+02
  -1.114415e+02  -7.650105e+00
  -6.312978e+01  -1.270388e+02
   4.665975e+00  -1.162790e+02
   4.973090e+01  -2.361147e+01
   5.928792e+01   3.280998e+01
   2.891459e+01   1.187828e+01
   4.222662e+00  -1.975114e+01
   2.117101e+01   1.700149e+01
   5.975856e+01   9.551934e+01
   4.357755e+01   1.184789e+02
  -5.202214e+01   4.967295e+01
  -1.466355e+02  -4.249956e+01
  -1.378689e+02  -7.584372e+01
  -1.995387e+01  -5.533217e+01
   9.204508e+01  -2.428795e+01
   9.558350e+01  -3.847035e+00
   1.384852e+01   9.286823e+00
  -4.040807e+01   2.416400e+01
  -1.801353e+01   1.723275e+01
   2.047834e+01  -2.346742e+00
  -5.629260e+00  -9.129229e+00
  -7.833762e+01  -2.403345e+00
  -9.935636e+01  -2.739147e+01
  -1.025751e+01  -9.124578e+01
   1.295558e+02  -1.258782e+02
   2.028566e+02  -6.465277e+01
   1.562825e+02   7.321653e+01
   3.035502e+01   1.748765e+02
  -8.639816e+01   1.627507e+02
  -1.227455e+02   6.364105e+01
  -8.773367e+01  -2.418227e+01
  -2.685267e+01  -4.011695e+01
   3.083603e+00  -1.151356e+01
  -1.038972e+01  -4.731792e+00
  -3.429888e+01  -4.934833e+01
  -2.191776e+01  -9.478573e+01
   3.360593e+01  -7.632321e+01
   8.684535e+01   2.118734e+01
   7.978773e+01   1.162942e+02
   2.283470e+00   1.201159e+02
  -8.971981e+01   2.348872e+01
  -1.103692e+02  -8.227956e+01
  -3.191803e+01  -1.110225e+02
   7.246279e+01  -5.943293e+01
   1.060249e+02   1.298552e+01
   4.216898e+01   5.452089e+01
  -3.452748e+01   5.573776e+01
  -3.457429e+01   2.984228e+01
   3.574085e+01   9.998870e-01
   7.434729e+01  -6.680116e+00
   1.619536e+01   2.731381e+01
  -8.434634e+01   7.095152e+01
  -1.235024e+02   6.184772e+01
  -6.736385e+01  -1.416953e+01
   1.776628e+01  -8.714670e+01
   5.707182e+01  -8.187160e+01
   3.875148e+01  -3.523340e+00
   9.916472e-01   5.905026e+01
  -2.714695e+01   4.420880e+01
  -3.710623e+01  -2.046857e+01
  -2.588295e+01  -5.762305e+01
   4.186248e+00  -3.392072e+01
   3.561967e+01   1.187242e+01
   4.039273e+01   2.613519e+01
   1.979536e+01   2.124918e+00
  -1.341040e+00  -1.596053e+01
  -5.577464e+00   2.291195e+00
  -8.073772e+00   4.002308e+01
  -2.197376e+01   4.782978e+01
  -3.551503e+01   4.063752e+00
  -3.069144e+01  -5.216085e+01
   6.734760e+00  -6.718287e+01
   5.079501e+01  -2.082010e+01
   6.146082e+01   4.629833e+01
   1.473754e+01   6.890642e+01
  -5.873679e+01   3.686857e+01
  -9.448454e+01  -1.697268e+01
  -5.295673e+01  -4.846381e+01
   3.142770e+01  -4.398147e+01
   7.031900e+01  -2.062007e+01
   2.493328e+01  -2.684043e+00
  -4.155396e+01  -3.128865e+00
  -4.235730e+01  -1.778066e+01
   3.188466e+01  -3.635138e+01
   9.780008e+01  -2.245966e+01
