
 $NMID
 id='ANONYMOUS ', fmtdat='(2E16.6)'
 volume=1.0
 tramp=1.0
 $END
   3.966130e+03  -4.482979e+02
   2.623736e+03   2.026587e+03
  -2.995188e+02   2.636248e+03
  -1.917784e+03   1.199362e+03
  -1.156575e+03  -3.444133e+02
   3.727571e+02  -6.290324e+02
   8.092993e+02   1.657897e+02
   1.587995e+02   8.704157e+02
  -6.268884e+02   8.133530e+02
  -8.988706e+02   7.133428e+01
  -5.605315e+02  -7.296455e+02
   7.795171e+01  -8.767520e+02
   5.571647e+02  -2.233224e+02
   4.468277e+02   5.906968e+02
  -1.365674e+02   7.332559e+02
  -5.581812e+02   6.534115e+01
  -3.484850e+02  -6.174193e+02
   2.320879e+02  -6.837459e+02
   5.601015e+02  -1.936171e+02
   4.544078e+02   2.886830e+02
   9.130431e+01   4.407143e+02
  -1.783413e+02   3.038004e+02
  -1.657282e+02   9.187618e+01
   1.108992e+02  -6.898634e+00
   3.292710e+02   1.133457e+02
   1.625524e+02   3.313093e+02
  -3.798239e+02   3.274613e+02
  -7.490440e+02  -1.486915e+01
  -4.241887e+02  -4.408679e+02
   2.911549e+02  -4.171958e+02
   6.568783e+02  -6.213348e+00
   3.401274e+02   4.068174e+02
  -2.143735e+02   4.830427e+02
  -4.971992e+02   2.172216e+02
  -4.045510e+02  -1.695938e+02
  -1.483077e+02  -4.140769e+02
   9.100435e+01  -2.834682e+02
   1.369066e+02   1.139093e+02
  -7.360359e+01   3.290567e+02
  -3.296140e+02   1.170485e+01
  -2.434705e+02  -5.494419e+02
   1.959548e+02  -6.496102e+02
   5.034880e+02  -9.813689e+01
   2.816639e+02   4.304761e+02
  -2.018798e+02   2.934138e+02
  -3.522752e+02  -2.350463e+02
   1.757873e+01  -4.936110e+02
   4.971268e+02  -1.600608e+02
   5.794971e+02   3.281694e+02
   2.032634e+02   5.421784e+02
  -3.205643e+02   3.494116e+02
  -5.920126e+02  -2.808063e+01
  -4.023372e+02  -3.113185e+02
   9.452281e+01  -3.533051e+02
   4.007460e+02  -1.188072e+02
   2.692372e+02   1.351703e+02
  -5.798941e+01   1.202707e+02
  -1.528542e+02  -9.237531e+01
   1.020766e+02  -1.739670e+02
   3.124237e+02   2.591758e+01
   1.697845e+02   2.618596e+02
  -1.770377e+02   2.798624e+02
  -3.411155e+02   1.045978e+02
  -2.132844e+02  -1.116893e+02
   3.061746e+01  -2.729172e+02
   2.313689e+02  -3.192800e+02
   3.223101e+02  -1.948581e+02
   2.785309e+02   1.299077e+02
   9.200290e+01   4.073346e+02
  -8.554783e+01   3.933306e+02
  -1.132586e+02   1.619880e+02
  -5.594750e+01   2.174761e+01
  -7.170791e+01   7.102877e+01
  -1.947472e+02   9.832553e+01
  -2.624704e+02  -5.664002e+01
  -1.568329e+02  -2.451268e+02
   5.232954e+01  -2.333293e+02
   2.047525e+02  -1.701807e+01
   1.921636e+02   2.111675e+02
   6.622536e+00   2.657703e+02
  -2.390573e+02   1.142213e+02
  -3.515604e+02  -1.420252e+02
  -2.082602e+02  -3.245853e+02
   6.074446e+01  -3.115635e+02
   2.069062e+02  -1.608303e+02
   1.643729e+02  -3.996988e+01
   1.238080e+02  -4.300887e+01
   2.458814e+02  -6.221131e+01
   4.034328e+02   5.048757e+01
   3.355708e+02   2.627735e+02
   1.481944e+01   4.345974e+02
  -3.352146e+02   4.183208e+02
  -4.522948e+02   2.224142e+02
  -3.082762e+02  -6.363026e+01
  -6.752743e+01  -2.624815e+02
   8.211854e+01  -2.388401e+02
   5.314423e+01  -4.873031e+01
  -9.183543e+01   8.430154e+01
  -1.693672e+02   4.661056e+00
  -6.042832e+01  -1.659493e+02
   1.289000e+02  -1.664864e+02
   1.640817e+02   3.134536e+01
   9.806123e+00   1.689778e+02
  -1.690058e+02   3.534044e+01
  -1.691804e+02  -2.351896e+02
   1.499050e+01  -3.455936e+02
   2.313472e+02  -1.978014e+02
   3.378525e+02   6.312576e+01
   2.854066e+02   2.334852e+02
   9.162901e+01   2.545608e+02
  -1.012596e+02   1.535477e+02
  -1.638831e+02   3.687611e+01
  -5.940083e+01  -1.359783e+01
   5.618536e+01   3.541780e+01
   2.634073e+01   1.079176e+02
  -1.047125e+02   9.237588e+01
  -1.559657e+02   5.397674e-01
  -5.441544e+01  -5.425730e+01
   6.735993e+01  -6.729943e+00
   4.609739e+01   7.255359e+01
  -1.223737e+02   8.696233e+01
  -2.750301e+02   6.100089e+00
  -2.649998e+02  -1.256742e+02
  -7.305496e+01  -2.421420e+02
   1.546164e+02  -2.582193e+02
   2.605306e+02  -1.448776e+02
   1.692087e+02   2.978888e+01
  -8.445039e+00   9.872596e+01
  -7.716074e+01   1.278951e+01
   2.670623e+01  -9.461509e+01
   1.798192e+02  -6.509712e+01
   2.082093e+02   8.400873e+01
   7.968592e+01   1.929826e+02
  -7.565916e+01   1.539698e+02
  -1.298894e+02   3.444680e+01
  -6.450907e+01  -3.317748e+01
   2.460832e+01   5.643670e+00
   3.169913e+01   8.606918e+01
  -7.160695e+01   1.084347e+02
  -1.875023e+02   2.795990e+01
  -1.829525e+02  -1.138832e+02
  -2.979604e+01  -2.073958e+02
   1.469502e+02  -1.636490e+02
   1.830540e+02  -1.951790e+01
   6.995327e+01   1.016488e+02
  -5.556667e+01   1.095004e+02
  -7.503657e+01   3.527123e+01
  -1.525677e+01  -1.945242e+01
   2.157661e+01  -1.145294e+01
  -1.380856e+01   1.395247e+01
  -7.733150e+01  -8.185349e+00
  -9.313352e+01  -8.255041e+01
  -1.754995e+01  -1.564998e+02
   1.196839e+02  -1.487340e+02
   2.243013e+02  -2.979897e+01
   1.980626e+02   1.361121e+02
   5.296943e+01   2.225248e+02
  -9.376914e+01   1.678645e+02
  -1.290395e+02   3.648855e+01
  -7.689002e+01  -4.666862e+01
  -3.235138e+01  -3.433976e+01
  -4.872041e+01   1.199274e+01
  -7.765717e+01   9.305643e+00
  -4.549272e+01  -4.956295e+01
   3.662626e+01  -9.163441e+01
   1.042232e+02  -5.967936e+01
   9.091596e+01   3.769986e+01
  -1.326797e+01   1.165523e+02
  -1.454038e+02   8.967864e+01
  -1.982148e+02  -4.937808e+01
  -9.798149e+01  -1.953886e+02
   9.652020e+01  -2.216104e+02
   2.465143e+02  -1.013611e+02
   2.456773e+02   6.628346e+01
   1.121558e+02   1.586741e+02
  -2.940581e+01   1.389595e+02
  -8.353922e+01   8.337114e+01
  -7.063010e+01   7.209070e+01
  -6.062241e+01   9.420820e+01
  -8.680710e+01   8.025835e+01
  -1.278020e+02  -1.485532e+01
  -1.238860e+02  -1.459141e+02
  -4.232489e+01  -2.215632e+02
   8.583032e+01  -1.721825e+02
   1.646699e+02  -2.559376e+01
   1.346640e+02   1.116201e+02
   2.479462e+01   1.500450e+02
  -6.162157e+01   8.770171e+01
  -5.679164e+01  -3.129800e+00
  -3.797284e+00  -4.280558e+01
   1.209944e+01  -2.972982e+01
  -3.554091e+01  -1.340248e+01
  -7.806244e+01  -2.010412e+01
  -4.485358e+01  -3.574518e+01
   6.205315e+01  -3.699114e+01
   1.561387e+02  -3.073881e+00
   1.396194e+02   4.803704e+01
   1.437060e+01   8.464377e+01
  -1.205691e+02   7.467434e+01
  -1.433607e+02   1.848589e+01
  -4.696527e+01  -3.746056e+01
   5.909350e+01  -3.935020e+01
   7.572493e+01   1.749380e+01
   1.332737e+01   7.199416e+01
  -5.018868e+01   6.363442e+01
  -6.510200e+01   2.884610e-01
  -5.047777e+01  -5.211709e+01
  -4.837402e+01  -4.025476e+01
  -5.973132e+01   3.325961e+00
  -6.651914e+01   4.528053e+00
  -3.953342e+01  -6.582186e+01
   2.266205e+01  -1.452333e+02
   1.098802e+02  -1.491018e+02
   1.637501e+02  -4.402840e+01
   1.278420e+02   8.249985e+01
   9.332167e+00   1.236387e+02
  -8.516399e+01   6.517623e+01
  -6.030629e+01  -1.464320e+01
   5.960409e+01  -2.166816e+01
   1.376578e+02   3.816522e+01
   7.487633e+01   1.024741e+02
  -7.325459e+01   1.117430e+02
  -1.809680e+02   5.718405e+01
  -1.565564e+02  -2.295196e+01
  -4.032647e+01  -7.800880e+01
   5.150937e+01  -6.539468e+01
   4.581391e+01  -6.957562e+00
  -3.688420e+01   2.713251e+01
  -9.032872e+01  -1.730637e+01
  -3.818558e+01  -1.131515e+02
   7.812479e+01  -1.574831e+02
   1.585189e+02  -7.214300e+01
   1.304220e+02   9.095842e+01
   1.639350e+01   1.922020e+02
  -7.367564e+01   1.466347e+02
  -1.012894e+02  -6.144030e+00
  -6.215080e+01  -1.168539e+02
   1.795052e+00  -1.039381e+02
   4.745877e+01  -1.769777e+01
   5.308142e+01   3.046737e+01
   2.288646e+01   8.413721e+00
   1.199415e+00  -1.728471e+01
   1.902487e+01   1.744266e+01
   5.518081e+01   8.178677e+01
   4.269322e+01   9.922369e+01
  -4.276437e+01   4.311236e+01
  -1.356555e+02  -3.058474e+01
  -1.283974e+02  -6.353002e+01
  -2.181944e+01  -4.972070e+01
   8.000511e+01  -2.884377e+01
   8.362837e+01  -1.167264e+01
   1.390902e+01   1.164097e+01
  -3.362402e+01   2.419592e+01
  -1.510885e+01   1.373195e+01
   1.788598e+01  -6.312441e+00
  -6.466619e+00  -7.988870e+00
  -7.126716e+01   2.772646e-01
  -8.998827e+01  -1.811532e+01
  -1.652330e+01  -7.815235e+01
   1.067603e+02  -1.221700e+02
   1.808836e+02  -7.014817e+01
   1.498371e+02   5.736498e+01
   3.854051e+01   1.582125e+02
  -7.109442e+01   1.545358e+02
  -1.122252e+02   6.587581e+01
  -8.079061e+01  -1.455288e+01
  -2.721321e+01  -3.269713e+01
   8.839119e-01  -9.885408e+00
  -1.087529e+01  -6.296637e+00
  -3.383550e+01  -4.520174e+01
  -2.306563e+01  -8.610306e+01
   2.442747e+01  -7.130218e+01
   7.895564e+01   1.122312e+01
   8.299779e+01   1.007625e+02
   1.284255e+01   1.113521e+02
  -7.768699e+01   3.304819e+01
  -1.063058e+02  -6.353726e+01
  -3.980057e+01  -9.960248e+01
   6.269868e+01  -6.160016e+01
   9.746822e+01   5.824428e+00
   4.031036e+01   4.986359e+01
  -3.069675e+01   5.339446e+01
  -3.112245e+01   2.613473e+01
   3.128328e+01  -5.338096e+00
   6.511316e+01  -1.158148e+01
   1.922059e+01   2.453781e+01
  -6.636459e+01   6.729760e+01
  -1.060612e+02   6.068140e+01
  -6.537348e+01  -1.084604e+01
   9.919164e+00  -8.183689e+01
   5.051904e+01  -8.059472e+01
   4.021236e+01  -8.845808e+00
   7.609173e+00   5.394961e+01
  -2.237747e+01   4.699115e+01
  -3.871119e+01  -1.112924e+01
  -3.172295e+01  -5.061466e+01
   4.365698e-01  -3.510292e+01
   3.409356e+01   5.358612e+00
   4.154757e+01   2.106201e+01
   2.068891e+01   3.813243e+00
  -1.603639e+00  -1.403088e+01
  -5.549260e+00  -4.441893e-01
  -6.581849e-01   3.452112e+01
  -8.752588e+00   4.862056e+01
  -3.228580e+01   1.308321e+01
  -3.837011e+01  -4.034273e+01
  -6.976336e+00  -6.070601e+01
   4.076232e+01  -2.462606e+01
   5.863163e+01   3.189713e+01
   1.916192e+01   5.989308e+01
  -5.157450e+01   3.659853e+01
  -8.753887e+01  -8.612508e+00
  -4.954187e+01  -4.088275e+01
   2.721420e+01  -4.311447e+01
   6.231578e+01  -2.750496e+01
   2.448774e+01  -5.422515e+00
  -3.410572e+01   3.778915e+00
  -3.633087e+01  -1.138596e+01
   2.568268e+01  -3.204387e+01
   8.514739e+01  -2.404469e+01
