
 $NMID
 id='ANONYMOUS ', fmtdat='(2E16.6)'
 volume=1.0
 tramp=1.0
 $END
  -3.640698e+03   3.082137e+02
  -2.365997e+03  -1.848136e+03
   2.069407e+02  -2.277804e+03
   1.538995e+03  -1.129647e+03
   9.596952e+02   1.111557e+02
  -2.317916e+02   3.482090e+02
  -6.154526e+02  -2.114844e+02
  -8.769011e+01  -7.396115e+02
   5.763324e+02  -7.155964e+02
   7.722770e+02  -7.000600e+01
   4.767620e+02   6.264810e+02
  -6.265279e+01   7.536130e+02
  -4.432427e+02   1.980486e+02
  -3.154316e+02  -5.301461e+02
   1.627098e+02  -6.551962e+02
   5.046815e+02  -8.066504e+01
   3.120342e+02   5.413817e+02
  -1.664490e+02   6.454227e+02
  -4.890427e+02   2.276836e+02
  -4.212891e+02  -2.233023e+02
  -1.037998e+02  -3.859496e+02
   1.469058e+02  -2.382039e+02
   1.271561e+02  -4.132815e+01
  -1.464756e+02  -1.950971e+01
  -3.118627e+02  -2.113289e+02
  -8.219874e+01  -3.747777e+02
   4.388592e+02  -2.574817e+02
   6.935868e+02   1.205300e+02
   3.334734e+02   4.254179e+02
  -3.242419e+02   3.362426e+02
  -6.035587e+02  -5.453912e+01
  -2.774222e+02  -3.953528e+02
   2.528787e+02  -4.298519e+02
   5.008259e+02  -1.913048e+02
   3.647528e+02   1.684561e+02
   8.645486e+01   3.621454e+02
  -8.897360e+01   2.239139e+02
  -4.936938e+01  -1.283974e+02
   1.436632e+02  -2.614524e+02
   2.751251e+02   6.745658e+01
   1.266236e+02   5.156285e+02
  -2.376266e+02   5.283940e+02
  -4.205327e+02   3.065156e+01
  -1.825390e+02  -3.890700e+02
   1.943415e+02  -2.472777e+02
   2.497167e+02   2.587652e+02
  -8.585310e+01   4.502437e+02
  -4.905004e+02   8.808594e+01
  -5.227992e+02  -3.600280e+02
  -1.621826e+02  -5.305150e+02
   3.223401e+02  -3.165022e+02
   5.618798e+02   5.235185e+01
   3.580972e+02   3.003547e+02
  -7.590321e+01   2.658826e+02
  -3.435943e+02   7.602334e+01
  -2.275575e+02  -8.704268e+01
   3.723209e+01  -5.896566e+01
   9.162134e+01   9.220424e+01
  -1.254116e+02   1.144966e+02
  -2.836918e+02  -5.002293e+01
  -1.414809e+02  -2.431851e+02
   1.739736e+02  -2.563858e+02
   3.392217e+02  -1.070698e+02
   2.467809e+02   1.044229e+02
  -3.009655e+01   2.880975e+02
  -2.666805e+02   3.436787e+02
  -3.491062e+02   1.818507e+02
  -2.626566e+02  -1.475178e+02
  -6.875588e+01  -3.688898e+02
   6.531729e+01  -3.360177e+02
   6.963118e+01  -1.445000e+02
   3.631072e+01  -6.122769e+01
   9.308971e+01  -1.052160e+02
   2.158580e+02  -8.292861e+01
   2.508333e+02   8.942686e+01
   1.225475e+02   2.616056e+02
  -8.347380e+01   2.206679e+02
  -2.052194e+02  -1.839479e+01
  -1.596993e+02  -2.363680e+02
   3.109876e+01  -2.586593e+02
   2.539725e+02  -8.617879e+01
   3.293026e+02   1.627340e+02
   1.732268e+02   3.046210e+02
  -5.952906e+01   2.765782e+02
  -1.745182e+02   1.459683e+02
  -1.388825e+02   5.990836e+01
  -1.225666e+02   6.403365e+01
  -2.536995e+02   5.488764e+01
  -4.096479e+02  -6.263407e+01
  -3.340154e+02  -2.807458e+02
   8.360149e-01  -4.342981e+02
   3.494824e+02  -4.193971e+02
   4.742867e+02  -2.031734e+02
   3.098045e+02   8.572076e+01
   4.224458e+01   2.662892e+02
  -1.014117e+02   2.195706e+02
  -3.832018e+01   3.138056e+01
   1.065071e+02  -7.273984e+01
   1.552895e+02   2.070893e+01
   2.953751e+01   1.654463e+02
  -1.262062e+02   1.365563e+02
  -1.432515e+02  -5.123680e+01
   1.513420e+01  -1.594855e+02
   1.728521e+02  -1.793916e+01
   1.663671e+02   2.380975e+02
  -1.125162e+01   3.405515e+02
  -2.341347e+02   2.065605e+02
  -3.470169e+02  -5.173689e+01
  -2.862669e+02  -2.393177e+02
  -8.396222e+01  -2.565373e+02
   1.158438e+02  -1.510803e+02
   1.562246e+02  -1.700955e+01
   3.859641e+01   2.313096e+01
  -6.070559e+01  -4.780906e+01
  -1.091006e+01  -1.175648e+02
   1.187539e+02  -8.409388e+01
   1.568139e+02   1.452705e+01
   4.148730e+01   6.179695e+01
  -8.511092e+01   3.066850e+00
  -4.908841e+01  -8.494843e+01
   1.325735e+02  -9.318635e+01
   2.900136e+02   5.041051e-01
   2.629606e+02   1.496303e+02
   4.680770e+01   2.603813e+02
  -1.923663e+02   2.487355e+02
  -2.710338e+02   1.073808e+02
  -1.479702e+02  -5.104742e+01
   2.699137e+01  -9.097903e+01
   7.238792e+01  -1.359733e+00
  -4.475815e+01   8.937860e+01
  -1.815381e+02   4.532677e+01
  -1.887803e+02  -9.847133e+01
  -6.297641e+01  -1.920729e+02
   8.357696e+01  -1.423581e+02
   1.268483e+02  -2.613733e+01
   5.535899e+01   3.433559e+01
  -3.661303e+01  -1.184265e+01
  -3.332116e+01  -9.877598e+01
   8.623090e+01  -1.178119e+02
   2.077292e+02  -2.518716e+01
   1.897245e+02   1.268675e+02
   2.081066e+01   2.122414e+02
  -1.537653e+02   1.578258e+02
  -1.803683e+02   1.503551e+01
  -6.321973e+01  -9.915881e+01
   5.635449e+01  -1.027475e+02
   6.937198e+01  -2.952972e+01
   7.041378e+00   2.539133e+01
  -3.061605e+01   1.171901e+01
   9.230238e+00  -2.166137e+01
   8.266342e+01  -3.880111e+00
   1.031852e+02   8.273515e+01
   2.056876e+01   1.685827e+02
  -1.270634e+02   1.584730e+02
  -2.342048e+02   2.702908e+01
  -2.022977e+02  -1.476733e+02
  -4.633641e+01  -2.294067e+02
   1.027195e+02  -1.646566e+02
   1.317547e+02  -3.101656e+01
   7.304273e+01   4.584846e+01
   2.951550e+01   2.936222e+01
   5.538529e+01  -1.494431e+01
   8.459853e+01  -8.341827e+00
   5.444215e+01   5.308385e+01
  -3.381380e+01   1.017606e+02
  -1.121054e+02   6.846320e+01
  -1.030151e+02  -3.886423e+01
   9.578792e+00  -1.289673e+02
   1.548052e+02  -9.991435e+01
   2.088709e+02   5.156041e+01
   9.792209e+01   2.096532e+02
  -1.126408e+02   2.284322e+02
  -2.580488e+02   9.058269e+01
  -2.391055e+02  -7.836344e+01
  -1.009790e+02  -1.637226e+02
   3.056788e+01  -1.373754e+02
   8.224269e+01  -8.292563e+01
   6.668445e+01  -6.820761e+01
   5.543211e+01  -8.917743e+01
   8.653903e+01  -7.931342e+01
   1.319312e+02   1.471605e+01
   1.246846e+02   1.504964e+02
   3.664120e+01   2.256194e+02
  -9.541428e+01   1.713040e+02
  -1.714466e+02   2.132740e+01
  -1.336911e+02  -1.189750e+02
  -1.799059e+01  -1.546849e+02
   6.894084e+01  -8.638779e+01
   6.418254e+01   8.607438e+00
   1.614530e+00   5.099060e+01
  -2.674422e+01   3.368060e+01
   2.630204e+01   9.409149e+00
   8.214495e+01   1.092578e+01
   5.320689e+01   3.862315e+01
  -6.766954e+01   4.352408e+01
  -1.670909e+02   5.769897e+00
  -1.453920e+02  -5.777579e+01
  -7.135031e+00  -9.576444e+01
   1.260112e+02  -7.547148e+01
   1.425438e+02  -1.288169e+01
   4.749302e+01   4.192558e+01
  -5.698054e+01   4.168757e+01
  -7.461534e+01  -1.349505e+01
  -1.475272e+01  -6.844534e+01
   4.702750e+01  -6.220907e+01
   6.726497e+01  -3.625447e+00
   5.424869e+01   4.649532e+01
   4.450609e+01   4.268768e+01
   5.482640e+01   4.718702e+00
   6.501365e+01  -3.538928e-01
   4.522608e+01   6.547767e+01
  -1.878251e+01   1.442432e+02
  -1.156908e+02   1.471730e+02
  -1.720297e+02   4.343158e+01
  -1.320488e+02  -8.663330e+01
  -7.506668e+00  -1.305597e+02
   8.700133e+01  -6.988823e+01
   6.108473e+01   1.113878e+01
  -6.068471e+01   2.482811e+01
  -1.382696e+02  -3.720695e+01
  -7.560326e+01  -1.092160e+02
   7.477318e+01  -1.153731e+02
   1.801153e+02  -5.318270e+01
   1.530102e+02   3.064025e+01
   3.927299e+01   8.254554e+01
  -5.608563e+01   6.826409e+01
  -4.685312e+01   4.392425e+00
   3.616606e+01  -3.212704e+01
   9.047954e+01   1.577875e+01
   4.280797e+01   1.116364e+02
  -7.750826e+01   1.572331e+02
  -1.560925e+02   7.327167e+01
  -1.276720e+02  -8.820637e+01
  -2.252661e+01  -1.877273e+02
   7.711683e+01  -1.426031e+02
   1.041701e+02   3.652096e+00
   5.911309e+01   1.164211e+02
  -6.639903e+00   1.062527e+02
  -4.867311e+01   1.973865e+01
  -4.694373e+01  -3.078072e+01
  -1.825592e+01  -9.006413e+00
  -4.199583e+00   2.046946e+01
  -2.696337e+01  -1.561203e+01
  -6.302263e+01  -8.580787e+01
  -3.964117e+01  -1.026472e+02
   4.994458e+01  -4.574998e+01
   1.376561e+02   3.338216e+01
   1.310424e+02   6.678991e+01
   2.163984e+01   5.594834e+01
  -8.120885e+01   2.986655e+01
  -8.638984e+01   9.299332e+00
  -1.578424e+01  -1.142749e+01
   3.461777e+01  -2.055668e+01
   1.735482e+01  -1.191889e+01
  -1.769653e+01   5.610620e+00
   2.984698e+00   6.038117e+00
   6.539962e+01  -3.429862e+00
   9.073843e+01   1.495965e+01
   2.096669e+01   7.528103e+01
  -1.008758e+02   1.179604e+02
  -1.786088e+02   7.376401e+01
  -1.502038e+02  -4.988165e+01
  -3.903369e+01  -1.566394e+02
   7.294122e+01  -1.576753e+02
   1.121358e+02  -6.584267e+01
   8.094443e+01   1.889418e+01
   2.568758e+01   3.754271e+01
  -8.814993e-01   1.066754e+01
   1.287576e+01   4.854538e+00
   3.210514e+01   4.323750e+01
   2.438228e+01   8.693105e+01
  -2.686037e+01   7.259205e+01
  -8.077778e+01  -1.220184e+01
  -8.127673e+01  -9.989608e+01
  -1.296963e+01  -1.093355e+02
   7.707897e+01  -3.298673e+01
   1.064816e+02   6.420896e+01
   4.058998e+01   1.010396e+02
  -6.238471e+01   6.285991e+01
  -1.019700e+02  -5.843187e+00
  -4.573058e+01  -5.378394e+01
   3.208048e+01  -5.617975e+01
   3.555173e+01  -2.662919e+01
  -2.761347e+01   6.006504e+00
  -6.777293e+01   7.552248e+00
  -1.888136e+01  -2.860830e+01
   7.659840e+01  -6.801187e+01
   1.147900e+02  -5.246802e+01
   6.708595e+01   1.798591e+01
  -1.275110e+01   8.433752e+01
  -5.522978e+01   8.112184e+01
  -4.365858e+01   1.069747e+01
  -8.007790e+00  -5.453515e+01
   2.317963e+01  -4.689552e+01
   3.742189e+01   1.123576e+01
   3.044973e+01   5.209607e+01
  -4.939319e-01   3.627742e+01
  -3.350237e+01  -5.782365e+00
  -4.061284e+01  -2.491251e+01
  -1.841220e+01  -3.541774e+00
   5.379411e+00   1.707016e+01
   8.419268e+00   5.395778e+00
  -2.388343e+00  -3.058001e+01
   2.242205e+00  -4.711476e+01
   2.790109e+01  -1.895568e+01
   3.821025e+01   3.469165e+01
   1.082397e+01   5.866957e+01
  -4.112095e+01   2.477046e+01
  -6.222260e+01  -3.286896e+01
  -2.082818e+01  -5.991675e+01
   5.336868e+01  -3.856148e+01
   9.019835e+01   7.326655e+00
   5.154947e+01   3.987663e+01
  -2.559359e+01   4.518762e+01
  -6.262585e+01   2.944970e+01
  -2.732691e+01   6.412551e+00
   2.972190e+01  -3.800815e+00
   3.537565e+01   9.283418e+00
  -2.425280e+01   3.010251e+01
  -8.109394e+01   2.605228e+01
