
 $NMID
 id='ANONYMOUS ', fmtdat='(2E16.6)'
 volume=1.0
 tramp=1.0
 $END
   4.089916e+03  -1.757368e+02
   2.461740e+03   2.444588e+03
  -7.192810e+02   2.672535e+03
  -2.002744e+03   7.310374e+02
  -8.349615e+02  -7.489377e+02
   7.815758e+02  -5.783747e+02
   8.874751e+02   5.224781e+02
  -4.192304e+01   1.085109e+03
  -8.966940e+02   7.425130e+02
  -9.633825e+02  -1.455975e+02
  -4.274075e+02  -9.060301e+02
   3.182050e+02  -8.809981e+02
   6.942866e+02  -6.649534e+01
   3.790564e+02   7.672680e+02
  -3.299401e+02   7.566209e+02
  -6.525711e+02  -3.425444e+01
  -2.677010e+02  -7.131842e+02
   3.415684e+02  -6.343748e+02
   5.740637e+02  -6.798105e+01
   3.643263e+02   3.617467e+02
  -4.443605e+00   4.298637e+02
  -2.433107e+02   2.359673e+02
  -1.998511e+02  -1.640267e+01
   1.421214e+02  -1.210122e+02
   4.417873e+02   1.169713e+02
   2.163207e+02   4.416958e+02
  -4.769123e+02   4.249431e+02
  -8.770636e+02  -8.826923e+01
  -4.399606e+02  -5.869769e+02
   4.269914e+02  -5.022938e+02
   7.775591e+02   4.937031e+01
   3.485938e+02   5.134234e+02
  -3.011495e+02   5.229991e+02
  -5.751185e+02   1.758035e+02
  -4.144032e+02  -2.827877e+02
  -5.291740e+01  -4.933014e+02
   2.260540e+02  -2.573917e+02
   1.652639e+02   2.656749e+02
  -1.851040e+02   4.534308e+02
  -4.782719e+02  -3.156533e+01
  -2.563586e+02  -7.077728e+02
   3.467354e+02  -7.148106e+02
   6.336110e+02   1.299192e+01
   2.522332e+02   5.796921e+02
  -3.441074e+02   3.308271e+02
  -4.174135e+02  -3.311887e+02
   7.079933e+01  -5.553944e+02
   5.764884e+02  -1.415951e+02
   5.896201e+02   4.242668e+02
   1.508472e+02   6.105543e+02
  -4.097865e+02   3.413853e+02
  -6.482390e+02  -1.054693e+02
  -3.614732e+02  -4.122400e+02
   1.774357e+02  -3.778997e+02
   4.471752e+02  -2.732147e+01
   2.173702e+02   2.190718e+02
  -1.537119e+02   1.021669e+02
  -1.578378e+02  -1.745780e+02
   1.843174e+02  -1.949392e+02
   3.681392e+02   7.662777e+01
   1.405238e+02   3.172698e+02
  -2.224608e+02   2.556484e+02
  -3.427213e+02   5.457155e+01
  -1.931432e+02  -1.129553e+02
   3.642290e+01  -2.400044e+02
   2.226064e+02  -3.113075e+02
   3.270801e+02  -2.006622e+02
   2.795838e+02   1.415108e+02
   7.638208e+01   4.189722e+02
  -9.877595e+01   3.670995e+02
  -1.195759e+02   9.148490e+01
  -1.414931e+01  -1.702399e+01
  -3.261390e+01   9.439818e+01
  -1.951464e+02   1.409538e+02
  -2.859501e+02  -5.389997e+01
  -1.624071e+02  -2.762864e+02
   7.652660e+01  -2.623557e+02
   2.416294e+02  -1.273891e+01
   2.140209e+02   2.350561e+02
  -9.537270e+00   2.971427e+02
  -2.713003e+02   1.188375e+02
  -3.594328e+02  -1.697437e+02
  -1.731178e+02  -3.516299e+02
   1.138524e+02  -3.053431e+02
   2.353477e+02  -1.063927e+02
   1.423756e+02   1.129189e+01
   8.673568e+01  -3.138564e+01
   2.250646e+02  -7.422358e+01
   4.011104e+02   5.273738e+01
   3.381153e+02   2.823634e+02
   8.951774e-01   4.430518e+02
  -3.551294e+02   4.105995e+02
  -4.899367e+02   1.978656e+02
  -3.391472e+02  -1.039230e+02
  -5.092942e+01  -3.078318e+02
   1.385908e+02  -2.538153e+02
   8.825945e+01  -1.597578e+01
  -1.020584e+02   1.186224e+02
  -1.976716e+02  -8.473789e+00
  -4.544275e+01  -2.042517e+02
   1.654951e+02  -1.733941e+02
   1.838877e+02   7.163708e+01
  -2.105198e+01   2.012724e+02
  -1.991443e+02   3.457959e+01
  -1.604742e+02  -2.496924e+02
   4.057056e+01  -3.445879e+02
   2.382651e+02  -1.820702e+02
   3.258697e+02   7.087300e+01
   2.692888e+02   2.417779e+02
   9.399618e+01   2.670095e+02
  -1.181855e+02   1.579002e+02
  -1.733329e+02   1.615054e+01
  -5.176459e+01  -3.657147e+01
   7.841514e+01   3.606836e+01
   3.243475e+01   1.255382e+02
  -1.221179e+02   1.015764e+02
  -1.773078e+02  -1.362234e+01
  -5.465841e+01  -7.571733e+01
   8.539772e+01  -1.963498e+01
   6.005464e+01   7.414607e+01
  -1.166824e+02   9.282491e+01
  -2.733896e+02   8.486950e+00
  -2.572940e+02  -1.348892e+02
  -6.179046e+01  -2.560878e+02
   1.769707e+02  -2.615741e+02
   2.828475e+02  -1.218624e+02
   1.675127e+02   6.000951e+01
  -2.780184e+01   1.135171e+02
  -9.394239e+01   7.199371e+00
   3.287067e+01  -1.052359e+02
   1.965823e+02  -5.900900e+01
   2.068895e+02   1.030775e+02
   6.435584e+01   2.100421e+02
  -9.832107e+01   1.614297e+02
  -1.463316e+02   2.978361e+01
  -6.936266e+01  -4.396826e+01
   2.852613e+01  -6.626647e+00
   3.881132e+01   8.227076e+01
  -7.011173e+01   1.144225e+02
  -1.976096e+02   3.097511e+01
  -1.886792e+02  -1.249687e+02
  -1.825135e+01  -2.195886e+02
   1.648002e+02  -1.597645e+02
   1.915444e+02  -5.341918e-01
   6.302357e+01   1.185361e+02
  -6.815008e+01   1.111437e+02
  -8.299424e+01   2.953303e+01
  -2.040683e+01  -2.782108e+01
   1.946487e+01  -2.204932e+01
  -8.071183e+00   3.033555e+00
  -6.621515e+01  -8.972293e+00
  -8.622296e+01  -7.605785e+01
  -1.787029e+01  -1.524979e+02
   1.214863e+02  -1.529532e+02
   2.316743e+02  -3.028274e+01
   2.026865e+02   1.490270e+02
   3.893027e+01   2.358303e+02
  -1.125396e+02   1.662679e+02
  -1.367723e+02   2.388820e+01
  -6.981142e+01  -5.787415e+01
  -2.547078e+01  -3.669212e+01
  -5.041170e+01   1.162925e+01
  -7.454195e+01   7.562719e+00
  -4.156251e+01  -4.585664e+01
   3.555424e+01  -8.311544e+01
   9.460867e+01  -5.507139e+01
   8.210510e+01   3.365073e+01
  -1.173772e+01   1.093522e+02
  -1.405369e+02   8.651411e+01
  -1.969443e+02  -4.798398e+01
  -9.877674e+01  -1.991029e+02
   1.028224e+02  -2.297829e+02
   2.592973e+02  -1.031759e+02
   2.511630e+02   8.181093e+01
   1.014493e+02   1.772282e+02
  -4.285673e+01   1.473346e+02
  -9.009825e+01   8.026528e+01
  -6.974122e+01   6.303095e+01
  -5.782868e+01   8.613119e+01
  -8.783986e+01   7.028597e+01
  -1.277722e+02  -2.068944e+01
  -1.190234e+02  -1.476081e+02
  -3.020989e+01  -2.229678e+02
   9.889550e+01  -1.717979e+02
   1.747316e+02  -2.207744e+01
   1.360972e+02   1.208758e+02
   1.885488e+01   1.585846e+02
  -6.687448e+01   8.979538e+01
  -6.157535e+01  -1.581938e+00
  -6.750604e+00  -4.330625e+01
   9.561729e+00  -3.335298e+01
  -3.548486e+01  -1.415706e+01
  -7.357286e+01  -2.185892e+01
  -4.135282e+01  -4.044060e+01
   6.306769e+01  -3.670025e+01
   1.504416e+02  -1.478149e+00
   1.345051e+02   5.022373e+01
   1.558075e+01   8.575900e+01
  -1.141728e+02   7.150859e+01
  -1.426284e+02   1.507545e+01
  -5.212380e+01  -3.986241e+01
   5.719721e+01  -3.947151e+01
   7.551456e+01   1.825546e+01
   8.551929e+00   6.622428e+01
  -5.480676e+01   5.617611e+01
  -6.033295e+01  -4.147157e+00
  -3.929563e+01  -4.963806e+01
  -3.934893e+01  -3.635632e+01
  -6.044567e+01   9.849560e-01
  -6.679583e+01   2.158470e-02
  -3.738715e+01  -6.563142e+01
   2.802961e+01  -1.413466e+02
   1.098838e+02  -1.369006e+02
   1.583300e+02  -3.487328e+01
   1.223402e+02   8.649614e+01
   8.598395e+00   1.241546e+02
  -8.369494e+01   6.100984e+01
  -6.138409e+01  -1.550369e+01
   5.595779e+01  -2.523939e+01
   1.355553e+02   3.870164e+01
   7.961040e+01   1.109149e+02
  -7.622482e+01   1.163929e+02
  -1.874294e+02   5.830770e+01
  -1.594443e+02  -3.066194e+01
  -4.054725e+01  -8.716105e+01
   5.712577e+01  -7.175694e+01
   4.840098e+01  -7.482239e+00
  -3.828825e+01   2.718131e+01
  -8.981117e+01  -2.224120e+01
  -3.229831e+01  -1.198831e+02
   9.031655e+01  -1.500631e+02
   1.654031e+02  -5.642644e+01
   1.237760e+02   1.000615e+02
   7.072754e+00   1.973319e+02
  -8.394312e+01   1.394680e+02
  -1.046163e+02  -8.267878e+00
  -6.110411e+01  -1.195623e+02
   4.136769e+00  -1.080835e+02
   4.804408e+01  -2.071695e+01
   5.219435e+01   3.168190e+01
   2.600074e+01   1.072699e+01
   4.606795e+00  -2.116606e+01
   2.169799e+01   1.155280e+01
   5.562035e+01   8.274862e+01
   3.891974e+01   1.057131e+02
  -4.810785e+01   4.859766e+01
  -1.367622e+02  -3.623646e+01
  -1.274232e+02  -7.132123e+01
  -1.441814e+01  -5.200607e+01
   8.672829e+01  -2.345188e+01
   8.593890e+01  -4.928651e+00
   1.032907e+01   8.957019e+00
  -3.797898e+01   2.124025e+01
  -1.498836e+01   1.570548e+01
   2.146120e+01  -1.597246e+00
  -4.088107e+00  -7.168362e+00
  -7.108299e+01  -2.004995e+00
  -9.081343e+01  -2.421943e+01
  -9.581212e+00  -8.099124e+01
   1.115948e+02  -1.093929e+02
   1.801030e+02  -5.663224e+01
   1.367537e+02   6.437772e+01
   2.459949e+01   1.569123e+02
  -7.492171e+01   1.462781e+02
  -1.074173e+02   5.770666e+01
  -7.692239e+01  -2.194754e+01
  -2.556808e+01  -3.620551e+01
   1.879549e+00  -9.917575e+00
  -1.075915e+01  -2.448908e+00
  -3.257281e+01  -4.062688e+01
  -2.089334e+01  -8.794311e+01
   3.052598e+01  -7.045541e+01
   8.135955e+01   1.704196e+01
   7.410674e+01   1.044994e+02
  -7.562370e-01   1.067071e+02
  -8.384613e+01   2.090013e+01
  -9.933761e+01  -7.409854e+01
  -2.882187e+01  -9.909138e+01
   6.574995e+01  -5.396468e+01
   9.425987e+01   1.045938e+01
   3.720989e+01   4.649324e+01
  -2.940236e+01   4.797744e+01
  -2.815447e+01   2.676066e+01
   3.084646e+01  -8.644466e-01
   6.220303e+01  -3.538873e+00
   1.429778e+01   2.458085e+01
  -7.350618e+01   6.336707e+01
  -1.058411e+02   5.252748e+01
  -5.919357e+01  -1.425616e+01
   1.534033e+01  -8.067741e+01
   5.097269e+01  -7.252174e+01
   3.332228e+01  -1.476126e+00
  -1.363906e+00   5.526221e+01
  -2.619681e+01   3.993366e+01
  -3.312344e+01  -1.918576e+01
  -2.279559e+01  -5.204559e+01
   2.937601e+00  -2.914348e+01
   2.969013e+01   1.023396e+01
   3.518255e+01   2.046661e+01
   1.847837e+01   1.235948e-01
  -8.164472e-01  -1.422312e+01
  -6.741113e+00   2.797466e+00
  -4.257251e+00   3.676606e+01
  -1.403293e+01   4.276371e+01
  -3.271000e+01   5.440247e+00
  -2.991777e+01  -4.622730e+01
   3.022779e+00  -5.850060e+01
   4.690233e+01  -1.818738e+01
   5.556564e+01   4.069604e+01
   1.381214e+01   6.483650e+01
  -5.560271e+01   3.554899e+01
  -8.660181e+01  -1.341515e+01
  -4.496008e+01  -4.313700e+01
   2.934121e+01  -3.988346e+01
   6.201619e+01  -2.076281e+01
   2.114588e+01  -2.672653e+00
  -3.631339e+01  -5.172176e-01
  -3.389580e+01  -1.605723e+01
   3.194440e+01  -3.089360e+01
   8.857412e+01  -1.906590e+01
