
 $NMID
 id='ANONYMOUS ', fmtdat='(2E16.6)'
 volume=1.0
 tramp=1.0
 $END
   4.395932e+03   2.567415e+02
   2.193385e+03   3.033578e+03
  -1.171430e+03   2.675162e+03
  -2.278139e+03   5.064274e+02
  -7.744517e+02  -9.119483e+02
   9.083766e+02  -5.534047e+02
   9.652304e+02   6.159281e+02
  -1.392190e+02   1.176918e+03
  -9.925391e+02   7.625477e+02
  -9.929889e+02  -2.109924e+02
  -3.903043e+02  -9.598261e+02
   3.531931e+02  -9.135518e+02
   6.889484e+02  -5.723787e+01
   3.497411e+02   7.990229e+02
  -3.492445e+02   7.576309e+02
  -6.375952e+02  -6.520659e+01
  -2.348679e+02  -7.386774e+02
   3.855521e+02  -6.105965e+02
   6.182898e+02  -3.712199e+01
   3.691775e+02   4.066606e+02
  -2.853259e+01   4.539558e+02
  -2.992578e+02   2.485492e+02
  -2.664711e+02  -1.394349e+01
   9.182813e+01  -1.340396e+02
   4.416684e+02   9.060625e+01
   2.241843e+02   4.691807e+02
  -4.703701e+02   4.441447e+02
  -8.707746e+02  -1.213427e+02
  -4.180997e+02  -6.375508e+02
   4.507479e+02  -5.182136e+02
   8.158371e+02   9.411331e+01
   3.538449e+02   5.713733e+02
  -3.356122e+02   5.569315e+02
  -6.344447e+02   1.813998e+02
  -4.406480e+02  -2.723780e+02
  -3.477192e+01  -5.069840e+02
   2.569448e+02  -2.788082e+02
   1.950161e+02   2.589195e+02
  -2.081396e+02   4.768264e+02
  -5.069335e+02  -3.636378e+01
  -2.350954e+02  -7.535863e+02
   4.051929e+02  -7.379948e+02
   6.773272e+02   5.502298e+01
   2.304740e+02   6.572738e+02
  -3.534637e+02   3.450404e+02
  -4.059477e+02  -3.755668e+02
   1.103071e+02  -5.833798e+02
   5.954300e+02  -1.277748e+02
   5.927114e+02   4.687040e+02
   1.239971e+02   6.241007e+02
  -4.317652e+02   3.466872e+02
  -6.440556e+02  -9.979564e+01
  -3.562280e+02  -4.192398e+02
   1.883917e+02  -3.756715e+02
   4.559190e+02  -1.208674e+01
   2.142499e+02   2.317835e+02
  -1.564449e+02   1.082465e+02
  -1.434622e+02  -1.817812e+02
   1.794413e+02  -1.897822e+02
   3.556739e+02   1.040621e+02
   1.134634e+02   3.237927e+02
  -2.315994e+02   2.535757e+02
  -3.372487e+02   4.585895e+01
  -1.976392e+02  -1.056157e+02
   1.801554e+01  -2.169098e+02
   2.232185e+02  -3.238367e+02
   3.625780e+02  -2.057538e+02
   3.029012e+02   1.607488e+02
   5.490949e+01   4.537392e+02
  -1.638337e+02   3.693351e+02
  -1.402697e+02   7.412999e+01
   1.167505e+00  -4.503712e+01
  -6.347453e+00   9.708654e+01
  -1.840833e+02   1.564798e+02
  -2.983335e+02  -4.456472e+01
  -1.683871e+02  -2.893065e+02
   8.286806e+01  -2.801291e+02
   2.505611e+02  -1.921720e+01
   2.157680e+02   2.551905e+02
  -1.325144e+01   3.199334e+02
  -2.883277e+02   1.260238e+02
  -3.805240e+02  -1.810180e+02
  -1.786633e+02  -3.739650e+02
   1.339874e+02  -3.082051e+02
   2.508914e+02  -9.878135e+01
   1.466151e+02   1.511328e+01
   8.043242e+01  -3.209539e+01
   2.197949e+02  -7.180730e+01
   3.958216e+02   6.343143e+01
   3.250384e+02   2.975600e+02
  -1.087585e+01   4.529910e+02
  -3.661614e+02   4.012609e+02
  -4.926331e+02   1.698339e+02
  -3.498094e+02  -1.220256e+02
  -5.618925e+01  -3.111117e+02
   1.472765e+02  -2.612916e+02
   1.070333e+02  -2.102044e+01
  -1.089293e+02   1.187775e+02
  -2.077278e+02  -8.890467e+00
  -4.855744e+01  -2.084809e+02
   1.760376e+02  -1.700824e+02
   1.888289e+02   6.851169e+01
  -2.768675e+01   2.030548e+02
  -2.082855e+02   3.431650e+01
  -1.612407e+02  -2.529930e+02
   4.065437e+01  -3.449477e+02
   2.293957e+02  -1.889960e+02
   3.188312e+02   6.009709e+01
   2.804711e+02   2.419060e+02
   8.671076e+01   2.672338e+02
  -1.224024e+02   1.667313e+02
  -1.870422e+02   1.170983e+01
  -5.825907e+01  -4.693415e+01
   8.029103e+01   3.379123e+01
   3.561043e+01   1.363183e+02
  -1.313642e+02   1.091712e+02
  -1.914628e+02  -1.904181e+01
  -6.057541e+01  -8.310823e+01
   8.543218e+01  -2.545295e+01
   6.127555e+01   7.001404e+01
  -1.132193e+02   8.748801e+01
  -2.643047e+02  -1.799998e-01
  -2.507030e+02  -1.410808e+02
  -5.671316e+01  -2.545714e+02
   1.895689e+02  -2.625474e+02
   2.920519e+02  -1.170720e+02
   1.769047e+02   6.662478e+01
  -2.742069e+01   1.242432e+02
  -9.890492e+01   1.408407e+01
   2.476236e+01  -1.030694e+02
   1.918635e+02  -5.898587e+01
   2.117715e+02   1.082390e+02
   6.404295e+01   2.135703e+02
  -9.909427e+01   1.565042e+02
  -1.484210e+02   2.220612e+01
  -7.244012e+01  -4.935527e+01
   2.759013e+01  -1.138328e+01
   4.138301e+01   7.747090e+01
  -6.504792e+01   1.132969e+02
  -1.923632e+02   3.225485e+01
  -1.897644e+02  -1.235624e+02
  -2.054356e+01  -2.240623e+02
   1.695171e+02  -1.663193e+02
   2.026817e+02   3.370235e+00
   6.685167e+01   1.260097e+02
  -7.366017e+01   1.152236e+02
  -9.307957e+01   2.665907e+01
  -2.316444e+01  -2.991727e+01
   2.084693e+01  -2.089941e+01
  -6.517117e+00   6.323591e+00
  -6.366602e+01  -7.774176e+00
  -8.134056e+01  -7.652938e+01
  -1.568631e+01  -1.530052e+02
   1.228243e+02  -1.511952e+02
   2.346048e+02  -2.733703e+01
   2.019706e+02   1.513419e+02
   3.783902e+01   2.409626e+02
  -1.134767e+02   1.713041e+02
  -1.411821e+02   2.383182e+01
  -7.116440e+01  -6.082788e+01
  -2.752042e+01  -3.953944e+01
  -5.015826e+01   9.946001e+00
  -7.558900e+01   2.321943e+00
  -3.691336e+01  -4.839825e+01
   4.155514e+01  -8.053811e+01
   9.500084e+01  -4.983945e+01
   8.194837e+01   3.036227e+01
  -7.796043e+00   9.986791e+01
  -1.311049e+02   8.352889e+01
  -1.917828e+02  -4.451045e+01
  -1.042524e+02  -1.929334e+02
   1.059442e+02  -2.261062e+02
   2.736295e+02  -9.283512e+01
   2.570870e+02   9.679361e+01
   9.820721e+01   1.833087e+02
  -4.926891e+01   1.447810e+02
  -1.001020e+02   7.426141e+01
  -8.197831e+01   6.181954e+01
  -6.952865e+01   8.244717e+01
  -9.255917e+01   6.955937e+01
  -1.261300e+02  -2.120424e+01
  -1.156590e+02  -1.542599e+02
  -2.924062e+01  -2.306330e+02
   1.027145e+02  -1.748309e+02
   1.799769e+02  -1.916712e+01
   1.376181e+02   1.257698e+02
   1.564535e+01   1.616824e+02
  -7.169985e+01   9.128693e+01
  -6.369712e+01  -8.262211e-01
  -7.633572e+00  -4.277253e+01
   8.200011e+00  -3.602637e+01
  -3.405756e+01  -2.149164e+01
  -7.505099e+01  -2.561629e+01
  -4.347044e+01  -3.798992e+01
   5.650389e+01  -3.607819e+01
   1.505337e+02  -3.971470e+00
   1.398725e+02   4.999929e+01
   1.835334e+01   8.967265e+01
  -1.155456e+02   7.312205e+01
  -1.464328e+02   7.499655e+00
  -4.975626e+01  -4.515334e+01
   5.799697e+01  -3.508233e+01
   7.624367e+01   2.183323e+01
   6.949242e+00   6.607468e+01
  -5.603551e+01   5.274204e+01
  -5.975113e+01  -4.933536e+00
  -3.864237e+01  -4.740955e+01
  -3.805054e+01  -4.381750e+01
  -5.554401e+01  -5.265460e+00
  -6.139680e+01   7.782416e-01
  -3.395301e+01  -6.336296e+01
   3.453345e+01  -1.381236e+02
   1.208824e+02  -1.379591e+02
   1.663844e+02  -2.926611e+01
   1.187432e+02   9.443653e+01
   3.807697e+00   1.247166e+02
  -8.657827e+01   5.705557e+01
  -5.777265e+01  -1.561235e+01
   5.682002e+01  -1.647297e+01
   1.310954e+02   4.887699e+01
   7.588433e+01   1.036737e+02
  -8.005201e+01   1.092423e+02
  -1.916328e+02   4.739681e+01
  -1.670122e+02  -3.917703e+01
  -3.838588e+01  -9.187664e+01
   6.698211e+01  -7.419678e+01
   5.428526e+01  -8.589937e+00
  -3.657973e+01   2.671911e+01
  -8.756702e+01  -2.422268e+01
  -2.864037e+01  -1.198365e+02
   9.368059e+01  -1.464276e+02
   1.677146e+02  -5.131142e+01
   1.188902e+02   1.055838e+02
   5.208798e+00   1.954653e+02
  -8.951523e+01   1.361353e+02
  -1.076914e+02  -1.082282e+01
  -6.072347e+01  -1.198104e+02
   2.178798e+00  -1.076493e+02
   4.654195e+01  -2.369146e+01
   5.188640e+01   3.018449e+01
   2.878399e+01   9.630056e+00
   5.939395e+00  -1.910712e+01
   2.330643e+01   1.284553e+01
   5.266875e+01   8.681501e+01
   3.803490e+01   1.131832e+02
  -5.156254e+01   4.663904e+01
  -1.381126e+02  -4.239249e+01
  -1.271963e+02  -7.552256e+01
  -1.654296e+01  -5.181603e+01
   8.642476e+01  -2.026053e+01
   8.662472e+01  -5.173978e+00
   1.081666e+01   6.666673e+00
  -3.896119e+01   1.793475e+01
  -1.392788e+01   1.650076e+01
   2.130206e+01   1.427271e+00
  -5.160926e+00  -6.820093e+00
  -7.265478e+01  -5.792718e+00
  -8.715446e+01  -2.972143e+01
  -4.523699e+00  -8.116197e+01
   1.208487e+02  -1.068699e+02
   1.803044e+02  -4.659352e+01
   1.307746e+02   7.497205e+01
   1.654470e+01   1.588388e+02
  -8.079044e+01   1.403084e+02
  -1.108746e+02   5.013143e+01
  -7.681166e+01  -2.513699e+01
  -2.366059e+01  -3.541896e+01
   1.107505e+00  -6.566034e+00
  -1.184883e+01  -2.306685e+00
  -3.312579e+01  -4.527696e+01
  -1.989952e+01  -9.008000e+01
   3.315060e+01  -6.975075e+01
   8.048053e+01   2.104427e+01
   6.983623e+01   1.082626e+02
  -2.535446e+00   1.090659e+02
  -8.279002e+01   1.913933e+01
  -9.689515e+01  -7.662228e+01
  -2.581120e+01  -1.013072e+02
   6.752300e+01  -5.097860e+01
   9.444824e+01   1.464881e+01
   3.707001e+01   5.028469e+01
  -3.192985e+01   4.919503e+01
  -3.180105e+01   2.531095e+01
   3.125346e+01   1.490715e+00
   6.594960e+01  -3.804016e+00
   1.496493e+01   2.491815e+01
  -7.470596e+01   6.203553e+01
  -1.107092e+02   5.621014e+01
  -6.243857e+01  -1.337758e+01
   1.510690e+01  -8.248407e+01
   5.166551e+01  -7.820198e+01
   3.609767e+01  -6.118267e+00
  -1.267153e+00   5.545365e+01
  -2.779382e+01   4.096435e+01
  -3.609871e+01  -2.192236e+01
  -2.332922e+01  -5.547299e+01
   4.710897e+00  -3.272947e+01
   3.231772e+01   8.794323e+00
   3.803966e+01   1.981676e+01
   2.022113e+01   6.254140e-01
   5.394928e-01  -1.257709e+01
  -5.705995e+00   5.997815e+00
  -9.114636e+00   3.559129e+01
  -1.945022e+01   3.978084e+01
  -2.963866e+01   3.778278e+00
  -2.535421e+01  -4.472551e+01
   6.037423e+00  -5.604267e+01
   4.347379e+01  -1.751399e+01
   5.136510e+01   3.873461e+01
   1.049019e+01   6.002508e+01
  -5.263728e+01   3.027245e+01
  -8.310207e+01  -1.733403e+01
  -4.545535e+01  -4.412364e+01
   2.988862e+01  -3.774648e+01
   6.360109e+01  -1.455918e+01
   2.176653e+01  -2.576243e+00
  -3.868815e+01  -6.051585e+00
  -3.667901e+01  -1.938876e+01
   3.416220e+01  -3.046661e+01
   9.364584e+01  -1.213141e+01
