
 $NMID
 id='ANONYMOUS ', fmtdat='(2E16.6)'
 volume=1.0
 tramp=1.0
 $END
   4.441489e+03  -3.489567e+01
   2.550808e+03   2.859270e+03
  -8.616882e+02   2.886815e+03
  -2.270465e+03   8.984771e+02
  -9.172256e+02  -7.553437e+02
   7.962544e+02  -6.219574e+02
   9.492442e+02   5.217058e+02
  -5.241229e+01   1.175286e+03
  -9.237037e+02   7.976342e+02
  -1.008677e+03  -1.605796e+02
  -4.336459e+02  -9.665653e+02
   3.246834e+02  -9.470456e+02
   7.455694e+02  -7.014440e+01
   4.204900e+02   8.095101e+02
  -3.271939e+02   8.030459e+02
  -6.493108e+02  -5.169988e+01
  -2.637435e+02  -7.517540e+02
   3.791055e+02  -6.461271e+02
   6.213375e+02  -3.619497e+01
   3.851640e+02   4.179940e+02
  -1.556894e+01   4.641024e+02
  -2.792479e+02   2.586043e+02
  -2.346664e+02  -4.632619e+00
   1.322032e+02  -1.092277e+02
   4.544489e+02   1.119454e+02
   2.194529e+02   4.851405e+02
  -5.094427e+02   4.702892e+02
  -9.361850e+02  -7.064123e+01
  -4.533662e+02  -6.082741e+02
   4.486318e+02  -5.450003e+02
   8.112867e+02   5.017262e+01
   3.626397e+02   5.300611e+02
  -3.034327e+02   5.620889e+02
  -5.931411e+02   2.036609e+02
  -4.281474e+02  -2.596698e+02
  -5.688728e+01  -5.304352e+02
   2.392333e+02  -3.064568e+02
   2.132965e+02   2.526869e+02
  -1.911588e+02   4.879447e+02
  -5.168076e+02  -1.965569e+01
  -2.527678e+02  -7.541588e+02
   3.973161e+02  -7.458440e+02
   6.830230e+02   3.260456e+01
   2.567956e+02   6.214021e+02
  -3.478500e+02   3.325000e+02
  -4.312005e+02  -3.565135e+02
   7.117634e+01  -5.951684e+02
   5.787076e+02  -1.493907e+02
   6.152233e+02   4.335212e+02
   1.562170e+02   6.238768e+02
  -4.047170e+02   3.637079e+02
  -6.611174e+02  -8.821861e+01
  -3.816697e+02  -4.302404e+02
   1.740840e+02  -3.994590e+02
   4.748641e+02  -4.309192e+01
   2.298571e+02   2.417466e+02
  -1.584892e+02   1.097278e+02
  -1.500329e+02  -1.946074e+02
   1.905716e+02  -2.159810e+02
   3.715239e+02   9.284777e+01
   1.303619e+02   3.283156e+02
  -2.245953e+02   2.639769e+02
  -3.387461e+02   5.100750e+01
  -1.894108e+02  -8.771766e+01
   2.305700e+01  -2.302576e+02
   2.136584e+02  -3.334211e+02
   3.443141e+02  -2.244484e+02
   3.078613e+02   1.481214e+02
   8.306129e+01   4.657776e+02
  -1.390421e+02   3.848077e+02
  -1.309117e+02   9.276078e+01
  -1.440460e+01  -2.344472e+01
  -3.148695e+01   9.478720e+01
  -2.057613e+02   1.353197e+02
  -2.928276e+02  -5.975926e+01
  -1.640488e+02  -2.848466e+02
   8.156992e+01  -2.660396e+02
   2.465327e+02  -1.090138e+01
   2.138789e+02   2.518408e+02
  -6.273746e+00   3.169973e+02
  -2.781756e+02   1.332357e+02
  -3.818663e+02  -1.691576e+02
  -2.000153e+02  -3.778549e+02
   1.109619e+02  -3.266585e+02
   2.487941e+02  -1.140161e+02
   1.609809e+02   1.207056e+01
   9.791248e+01  -3.103693e+01
   2.388837e+02  -7.233288e+01
   4.040846e+02   5.439177e+01
   3.314973e+02   2.972422e+02
  -8.506729e+00   4.568750e+02
  -3.713370e+02   4.178336e+02
  -4.952483e+02   2.007437e+02
  -3.455751e+02  -1.007852e+02
  -5.653893e+01  -3.047138e+02
   1.453227e+02  -2.588285e+02
   9.579516e+01  -2.200710e+01
  -1.131967e+02   1.180653e+02
  -2.153935e+02  -6.698948e+00
  -5.936850e+01  -2.129122e+02
   1.779136e+02  -1.822553e+02
   1.986718e+02   6.449566e+01
  -1.568699e+01   2.126775e+02
  -2.086993e+02   4.007935e+01
  -1.681748e+02  -2.530891e+02
   4.163501e+01  -3.592790e+02
   2.413678e+02  -1.905623e+02
   3.275660e+02   7.007521e+01
   2.692841e+02   2.461533e+02
   9.035534e+01   2.760827e+02
  -1.188831e+02   1.673389e+02
  -1.872015e+02   2.266224e+01
  -6.283535e+01  -4.027672e+01
   7.467441e+01   3.523399e+01
   3.164778e+01   1.335371e+02
  -1.321191e+02   1.078414e+02
  -1.920427e+02  -1.285442e+01
  -6.612991e+01  -8.150975e+01
   7.838318e+01  -2.682036e+01
   5.957693e+01   6.923710e+01
  -1.225863e+02   8.535707e+01
  -2.815215e+02   1.413060e+00
  -2.624081e+02  -1.432617e+02
  -5.697033e+01  -2.627712e+02
   1.965565e+02  -2.695160e+02
   3.004847e+02  -1.233554e+02
   1.842996e+02   6.843017e+01
  -2.909236e+01   1.242446e+02
  -1.035058e+02   6.734786e+00
   2.769964e+01  -1.090491e+02
   2.037510e+02  -6.202739e+01
   2.243564e+02   1.141128e+02
   7.045565e+01   2.218667e+02
  -1.015071e+02   1.662372e+02
  -1.533065e+02   3.124506e+01
  -7.651446e+01  -4.442482e+01
   2.358327e+01  -8.815620e+00
   3.502723e+01   7.974967e+01
  -7.329582e+01   1.121737e+02
  -1.973983e+02   2.792373e+01
  -1.936671e+02  -1.267201e+02
  -2.017004e+01  -2.251092e+02
   1.697077e+02  -1.706911e+02
   2.038853e+02  -3.247258e+00
   6.874508e+01   1.219172e+02
  -7.055095e+01   1.157542e+02
  -8.843324e+01   3.101613e+01
  -2.172152e+01  -2.611344e+01
   2.027033e+01  -2.082832e+01
  -9.135572e+00   5.042307e+00
  -6.650907e+01  -1.136119e+01
  -8.443996e+01  -8.421222e+01
  -1.093217e+01  -1.581744e+02
   1.320657e+02  -1.506264e+02
   2.376691e+02  -2.369132e+01
   2.027217e+02   1.558204e+02
   3.754472e+01   2.475665e+02
  -1.185782e+02   1.741889e+02
  -1.421797e+02   2.290237e+01
  -6.893405e+01  -6.317754e+01
  -2.608738e+01  -3.748489e+01
  -5.029499e+01   1.072802e+01
  -7.896444e+01   4.671365e+00
  -3.741448e+01  -4.895711e+01
   4.601427e+01  -8.388302e+01
   9.947353e+01  -4.868768e+01
   7.818602e+01   3.627188e+01
  -1.623525e+01   1.065126e+02
  -1.394559e+02   8.012333e+01
  -1.928736e+02  -5.374198e+01
  -9.682333e+01  -2.029766e+02
   1.120275e+02  -2.303097e+02
   2.777708e+02  -9.291447e+01
   2.627372e+02   9.532431e+01
   1.107774e+02   1.857952e+02
  -4.293960e+01   1.503837e+02
  -9.703644e+01   8.457084e+01
  -8.364394e+01   6.658144e+01
  -7.196806e+01   8.764825e+01
  -9.658359e+01   6.979591e+01
  -1.299021e+02  -2.522760e+01
  -1.169569e+02  -1.562892e+02
  -2.162263e+01  -2.269742e+02
   1.060795e+02  -1.726909e+02
   1.810419e+02  -1.844707e+01
   1.361930e+02   1.225178e+02
   1.609224e+01   1.611036e+02
  -6.989017e+01   9.188068e+01
  -5.975054e+01   2.436759e+00
  -5.142788e+00  -4.144906e+01
   7.007549e+00  -3.482783e+01
  -3.706675e+01  -1.923575e+01
  -7.818774e+01  -2.572471e+01
  -4.270736e+01  -4.095699e+01
   6.408526e+01  -3.977617e+01
   1.580986e+02  -5.211516e+00
   1.467229e+02   5.317388e+01
   1.766058e+01   9.322192e+01
  -1.193235e+02   7.575483e+01
  -1.434822e+02   1.159355e+01
  -4.850359e+01  -4.143769e+01
   6.177585e+01  -3.336468e+01
   7.617573e+01   2.226068e+01
   2.339715e+00   6.842506e+01
  -5.990311e+01   5.335896e+01
  -6.201554e+01  -5.033570e+00
  -4.011333e+01  -5.149358e+01
  -4.191559e+01  -3.975410e+01
  -6.275239e+01   1.365762e+00
  -6.823868e+01  -9.002972e-01
  -3.475237e+01  -6.955588e+01
   3.602045e+01  -1.488307e+02
   1.178335e+02  -1.369554e+02
   1.638169e+02  -2.613894e+01
   1.223852e+02   9.568340e+01
   6.243523e+00   1.265452e+02
  -8.873695e+01   5.828758e+01
  -6.034382e+01  -2.152823e+01
   6.057904e+01  -2.332650e+01
   1.412536e+02   4.816204e+01
   7.215958e+01   1.108531e+02
  -8.457888e+01   1.144152e+02
  -1.948771e+02   4.860038e+01
  -1.628115e+02  -3.726290e+01
  -3.193227e+01  -8.874456e+01
   6.386248e+01  -6.908623e+01
   4.666261e+01  -5.314932e+00
  -4.237231e+01   2.660725e+01
  -9.284306e+01  -2.595009e+01
  -3.311267e+01  -1.234587e+02
   9.713783e+01  -1.551987e+02
   1.704843e+02  -5.620524e+01
   1.273071e+02   1.069664e+02
   1.108290e+01   2.008753e+02
  -9.040167e+01   1.422298e+02
  -1.087192e+02  -8.032014e+00
  -6.135219e+01  -1.186906e+02
   3.644329e+00  -1.068166e+02
   4.702226e+01  -1.855639e+01
   5.383195e+01   3.283681e+01
   2.696017e+01   1.052876e+01
   3.104749e+00  -2.042363e+01
   1.895218e+01   1.193694e+01
   5.469895e+01   8.792105e+01
   3.962098e+01   1.129174e+02
  -4.953258e+01   4.812179e+01
  -1.394871e+02  -4.201670e+01
  -1.267327e+02  -7.507089e+01
  -1.163283e+01  -5.454238e+01
   9.362444e+01  -2.113252e+01
   9.108848e+01  -5.285287e+00
   9.656296e+00   7.119328e+00
  -3.962070e+01   2.298433e+01
  -1.205584e+01   1.707456e+01
   2.354085e+01   2.554644e-01
  -4.544808e+00  -6.923866e+00
  -7.417779e+01  -3.545021e+00
  -9.176243e+01  -2.635892e+01
  -3.064359e+00  -8.141160e+01
   1.260551e+02  -1.122916e+02
   1.860056e+02  -5.101415e+01
   1.346491e+02   7.223693e+01
   1.951317e+01   1.626302e+02
  -7.922067e+01   1.482108e+02
  -1.119147e+02   5.575611e+01
  -7.885451e+01  -2.440239e+01
  -2.348850e+01  -3.678062e+01
   3.268496e+00  -7.896773e+00
  -1.141693e+01  -2.682507e+00
  -3.521595e+01  -4.864127e+01
  -2.284380e+01  -9.403021e+01
   3.242704e+01  -7.251013e+01
   8.285385e+01   2.118466e+01
   7.576424e+01   1.110671e+02
  -2.664579e-01   1.124462e+02
  -8.487943e+01   2.042310e+01
  -1.018373e+02  -8.047903e+01
  -2.827201e+01  -1.046431e+02
   6.974123e+01  -5.247478e+01
   9.837691e+01   1.640704e+01
   3.772922e+01   5.267297e+01
  -3.523043e+01   5.092619e+01
  -3.325093e+01   2.649271e+01
   3.375527e+01  -2.241645e+00
   6.882686e+01  -6.567508e+00
   1.341631e+01   2.731063e+01
  -8.190933e+01   6.742341e+01
  -1.170249e+02   5.503741e+01
  -6.073312e+01  -1.539557e+01
   1.820617e+01  -8.174228e+01
   5.268907e+01  -7.392090e+01
   3.323038e+01  -3.284039e+00
  -2.291993e+00   5.536276e+01
  -2.895604e+01   3.976255e+01
  -3.688209e+01  -2.146790e+01
  -2.448421e+01  -5.550911e+01
   5.117162e+00  -3.215983e+01
   3.344222e+01   1.004901e+01
   3.851906e+01   2.158214e+01
   2.034342e+01   6.512096e-01
   4.835003e-01  -1.413568e+01
  -5.054933e+00   4.945717e+00
  -7.927140e+00   3.811513e+01
  -1.913084e+01   4.344478e+01
  -3.229917e+01   2.105469e+00
  -2.880039e+01  -4.824643e+01
   5.466409e+00  -6.169397e+01
   4.659466e+01  -1.785532e+01
   5.581466e+01   4.467889e+01
   1.124902e+01   6.604932e+01
  -5.675851e+01   3.309528e+01
  -8.870060e+01  -2.023738e+01
  -4.769762e+01  -4.689397e+01
   2.985737e+01  -3.880534e+01
   6.551831e+01  -1.910374e+01
   2.458116e+01  -3.843299e+00
  -3.793375e+01  -2.569240e+00
  -3.756043e+01  -1.757097e+01
   3.256898e+01  -3.141839e+01
   9.457930e+01  -1.727059e+01
