
 $NMID
 id='ANONYMOUS ', fmtdat='(2E16.6)'
 volume=1.0
 tramp=1.0
 $END
  -3.021888e+03   4.993290e+01
  -1.936685e+03  -1.674568e+03
   1.893766e+02  -2.047913e+03
   1.359689e+03  -9.663235e+02
   9.163833e+02   1.148111e+02
  -1.164876e+02   3.617622e+02
  -4.876671e+02  -1.334387e+02
  -6.071927e+01  -6.404340e+02
   5.082194e+02  -5.889986e+02
   6.561846e+02  -2.058261e+01
   3.881929e+02   5.599519e+02
  -6.262859e+01   6.383471e+02
  -3.498618e+02   1.466971e+02
  -2.592004e+02  -4.445215e+02
   1.349833e+02  -5.071832e+02
   4.088531e+02  -5.548683e+01
   2.483656e+02   4.905218e+02
  -1.832676e+02   5.607550e+02
  -4.650327e+02   1.877927e+02
  -3.790866e+02  -2.138528e+02
  -7.198141e+01  -3.396087e+02
   1.492807e+02  -2.314386e+02
   1.075863e+02  -9.435335e+01
  -1.228580e+02  -6.872072e+01
  -2.432575e+02  -1.852794e+02
  -4.174672e+01  -2.819439e+02
   3.819298e+02  -1.892707e+02
   5.651777e+02   1.319044e+02
   2.714741e+02   3.486050e+02
  -2.900135e+02   2.413196e+02
  -4.843459e+02  -9.963459e+01
  -1.949650e+02  -3.555959e+02
   2.410594e+02  -3.415116e+02
   4.250486e+02  -1.172037e+02
   2.932045e+02   1.797313e+02
   7.610841e+01   3.188170e+02
  -5.614994e+01   1.960940e+02
  -2.472714e+01  -9.243474e+01
   1.165131e+02  -1.916260e+02
   2.262500e+02   7.582695e+01
   8.132575e+01   4.676652e+02
  -2.315534e+02   4.556066e+02
  -3.710112e+02   1.018985e+01
  -1.600150e+02  -3.444990e+02
   1.466418e+02  -1.733519e+02
   2.150460e+02   2.419535e+02
  -7.920045e+01   3.603477e+02
  -4.078624e+02   6.495313e+01
  -4.477811e+02  -3.373763e+02
  -1.309119e+02  -4.499701e+02
   2.903154e+02  -2.351682e+02
   4.774976e+02   7.053930e+01
   3.048735e+02   2.466659e+02
  -8.448825e+01   2.206371e+02
  -3.020170e+02   7.039687e+01
  -1.983176e+02  -7.841554e+01
   2.969194e+01  -5.311674e+01
   8.082445e+01   6.243030e+01
  -9.551003e+01   8.296878e+01
  -2.232670e+02  -5.158686e+01
  -1.145816e+02  -1.960266e+02
   1.563871e+02  -2.143785e+02
   3.028601e+02  -8.963547e+01
   2.067644e+02   1.039031e+02
  -2.767204e+01   2.570671e+02
  -2.352868e+02   2.917883e+02
  -3.034134e+02   1.410116e+02
  -1.960643e+02  -1.318305e+02
  -3.627571e+01  -3.204310e+02
   5.296638e+01  -2.794725e+02
   3.831494e+01  -1.190327e+02
   2.285028e+01  -5.027661e+01
   9.202105e+01  -8.446899e+01
   1.905479e+02  -5.782688e+01
   2.075219e+02   9.269686e+01
   8.313755e+01   2.270985e+02
  -8.003772e+01   1.750646e+02
  -1.689275e+02  -3.512924e+01
  -1.198108e+02  -2.132019e+02
   3.984719e+01  -2.200859e+02
   2.167108e+02  -5.931883e+01
   2.756569e+02   1.509908e+02
   1.485635e+02   2.673882e+02
  -5.842244e+01   2.362312e+02
  -1.640908e+02   1.232514e+02
  -1.328472e+02   4.831936e+01
  -1.233923e+02   5.299936e+01
  -2.346233e+02   3.182963e+01
  -3.401713e+02  -9.462459e+01
  -2.496423e+02  -2.713521e+02
   3.788731e+01  -3.711013e+02
   3.267352e+02  -3.096072e+02
   4.074040e+02  -1.271233e+02
   2.509648e+02   9.282551e+01
   2.077238e+01   2.259644e+02
  -9.439514e+01   1.887926e+02
  -4.174259e+01   3.418605e+01
   9.133271e+01  -5.437535e+01
   1.281437e+02   1.988658e+01
   1.260218e+01   1.315712e+02
  -1.171233e+02   9.625435e+01
  -1.074061e+02  -5.432326e+01
   3.106741e+01  -1.244779e+02
   1.484452e+02  -4.370394e+00
   1.215968e+02   2.047185e+02
  -3.548129e+01   2.893668e+02
  -2.124733e+02   1.579893e+02
  -2.890694e+02  -6.736146e+01
  -2.262331e+02  -2.281187e+02
  -4.941497e+01  -2.329934e+02
   1.089669e+02  -1.177250e+02
   1.320257e+02  -3.258058e-01
   3.424208e+01   1.305331e+01
  -4.489161e+01  -5.138196e+01
  -3.748355e+00  -1.011619e+02
   1.055474e+02  -6.080883e+01
   1.302249e+02   2.402980e+01
   2.803188e+01   4.775413e+01
  -6.585119e+01  -9.754982e+00
  -2.770474e+01  -7.292545e+01
   1.244272e+02  -6.334651e+01
   2.414521e+02   2.226864e+01
   2.041551e+02   1.379122e+02
   1.876242e+01   2.153010e+02
  -1.773125e+02   1.943456e+02
  -2.274743e+02   8.219610e+01
  -1.206278e+02  -3.830006e+01
   2.338667e+01  -7.311318e+01
   5.611756e+01  -5.835669e+00
  -4.274977e+01   6.111990e+01
  -1.574572e+02   2.499863e+01
  -1.577513e+02  -8.626314e+01
  -4.451996e+01  -1.599855e+02
   8.105377e+01  -1.184410e+02
   1.159216e+02  -1.505913e+01
   4.700596e+01   3.187770e+01
  -2.865465e+01  -1.493242e+01
  -1.764915e+01  -8.611412e+01
   8.074599e+01  -9.049906e+01
   1.706588e+02  -2.301834e+00
   1.472449e+02   1.190085e+02
   3.786229e+00   1.791006e+02
  -1.357823e+02   1.242697e+02
  -1.470930e+02   2.026705e-01
  -4.461557e+01  -8.848157e+01
   5.775732e+01  -8.096573e+01
   6.539884e+01  -1.977266e+01
   4.364387e+00   2.066934e+01
  -2.885220e+01   8.183561e+00
   8.599407e+00  -1.619379e+01
   6.948282e+01   7.034001e+00
   7.932954e+01   8.101723e+01
   1.170348e+00   1.439813e+02
  -1.265479e+02   1.235132e+02
  -2.054869e+02   2.385159e+00
  -1.603355e+02  -1.432600e+02
  -2.262006e+01  -1.975988e+02
   9.207132e+01  -1.324667e+02
   1.105921e+02  -2.103109e+01
   5.791974e+01   4.089356e+01
   2.724635e+01   2.388826e+01
   5.126750e+01  -1.411011e+01
   7.587888e+01  -3.890606e+00
   4.325410e+01   5.034942e+01
  -4.012979e+01   8.370373e+01
  -1.046592e+02   4.673118e+01
  -8.329063e+01  -4.391857e+01
   2.600098e+01  -1.065600e+02
   1.459831e+02  -6.371130e+01
   1.734794e+02   6.590752e+01
   6.270456e+01   1.833957e+02
  -1.158189e+02   1.864095e+02
  -2.365463e+02   6.215538e+01
  -2.088620e+02  -9.121053e+01
  -7.538682e+01  -1.508585e+02
   4.452827e+01  -1.182320e+02
   8.305324e+01  -6.643559e+01
   6.426436e+01  -5.837361e+01
   5.506470e+01  -7.715287e+01
   8.084307e+01  -6.096312e+01
   1.096004e+02   2.582462e+01
   9.378215e+01   1.367170e+02
   1.330303e+01   1.910927e+02
  -9.272687e+01   1.363941e+02
  -1.449857e+02   3.162348e+00
  -1.016269e+02  -1.123471e+02
  -1.226178e+00  -1.340971e+02
   6.446348e+01  -6.626708e+01
   4.844519e+01   1.213510e+01
  -4.706234e+00   4.157810e+01
  -1.833797e+01   2.681864e+01
   2.837853e+01   1.065064e+01
   6.722764e+01   2.160874e+01
   3.622186e+01   3.720018e+01
  -6.215271e+01   2.709582e+01
  -1.419439e+02  -1.401915e+01
  -1.156935e+02  -6.018214e+01
   4.406060e+00  -8.022992e+01
   1.145109e+02  -5.358720e+01
   1.266707e+02   5.603613e+00
   3.526896e+01   4.615719e+01
  -5.621462e+01   3.377489e+01
  -6.618114e+01  -2.043044e+01
  -1.125618e+01  -6.326619e+01
   4.595273e+01  -5.402588e+01
   5.798984e+01   2.802203e+00
   4.423666e+01   4.738722e+01
   3.852490e+01   3.883608e+01
   5.071433e+01   2.790979e+00
   5.879759e+01   4.285172e+00
   3.623003e+01   6.655827e+01
  -3.145286e+01   1.319734e+02
  -1.158867e+02   1.195319e+02
  -1.557149e+02   1.929985e+01
  -1.066665e+02  -8.717649e+01
   2.694783e+00  -1.127958e+02
   7.962888e+01  -5.382277e+01
   5.001399e+01   7.320850e+00
  -4.917790e+01   8.557773e+00
  -1.096751e+02  -4.777872e+01
  -5.793816e+01  -9.810617e+01
   8.070872e+01  -9.257667e+01
   1.744266e+02  -3.784472e+01
   1.441589e+02   3.932893e+01
   2.849528e+01   7.752853e+01
  -5.848500e+01   5.633246e+01
  -4.324225e+01   2.032620e-01
   3.572571e+01  -2.301717e+01
   7.856094e+01   2.275067e+01
   2.380287e+01   9.872934e+01
  -7.958560e+01   1.257559e+02
  -1.366638e+02   4.521960e+01
  -1.012622e+02  -8.647477e+01
  -4.639913e+00  -1.590764e+02
   7.667434e+01  -1.147537e+02
   8.991767e+01   1.469994e+01
   4.465731e+01   1.062152e+02
  -1.294756e+01   8.843513e+01
  -4.333576e+01   1.061879e+01
  -3.721767e+01  -2.949596e+01
  -1.819976e+01  -5.892423e+00
  -6.971846e+00   1.601517e+01
  -2.413563e+01  -1.899217e+01
  -4.247246e+01  -7.588530e+01
  -2.260262e+01  -9.160184e+01
   4.649323e+01  -3.451854e+01
   1.124679e+02   3.571821e+01
   9.966320e+01   6.036193e+01
   1.238627e+01   4.416105e+01
  -7.088034e+01   2.003878e+01
  -7.241102e+01   2.415867e+00
  -1.209071e+01  -1.086174e+01
   3.402374e+01  -1.686554e+01
   1.619324e+01  -9.557410e+00
  -1.536076e+01   2.796586e+00
   2.322432e+00   5.759359e+00
   5.928115e+01   1.885803e+00
   8.020516e+01   2.318403e+01
   1.258171e+01   7.251462e+01
  -9.792156e+01   9.746331e+01
  -1.621486e+02   4.694089e+01
  -1.243179e+02  -6.019111e+01
  -1.656090e+01  -1.373238e+02
   7.543411e+01  -1.270990e+02
   1.020184e+02  -4.784055e+01
   6.653479e+01   2.128215e+01
   2.060908e+01   3.357502e+01
   2.919629e-01   1.098224e+01
   1.045299e+01   6.207149e+00
   2.454176e+01   4.025280e+01
   1.085164e+01   7.611894e+01
  -3.010356e+01   6.094665e+01
  -6.891100e+01  -1.601119e+01
  -6.369163e+01  -9.224084e+01
  -3.958458e+00  -9.576204e+01
   6.827277e+01  -2.222294e+01
   8.677349e+01   6.218107e+01
   2.688802e+01   8.931965e+01
  -5.964428e+01   5.020442e+01
  -8.759056e+01  -1.194115e+01
  -3.413746e+01  -4.979450e+01
   3.263138e+01  -4.905758e+01
   3.454706e+01  -2.341819e+01
  -2.313786e+01   4.823820e+00
  -5.582886e+01   6.689071e+00
  -1.257348e+01  -2.119647e+01
   6.753780e+01  -5.163620e+01
   1.000056e+02  -3.911672e+01
   5.547975e+01   1.813680e+01
  -1.424518e+01   7.380778e+01
  -4.931893e+01   6.851689e+01
  -3.836746e+01   7.501826e+00
  -4.335274e+00  -4.676666e+01
   2.194170e+01  -4.100329e+01
   3.173086e+01   1.082997e+01
   2.419403e+01   4.657525e+01
  -1.088371e+00   3.474295e+01
  -2.754235e+01  -5.132700e+00
  -3.420383e+01  -2.163342e+01
  -1.676352e+01  -5.050563e+00
   1.851004e+00   1.593727e+01
   5.394266e+00   5.242578e+00
  -1.461738e+00  -2.964643e+01
   7.156080e+00  -4.519481e+01
   2.701055e+01  -1.554769e+01
   3.249180e+01   3.724195e+01
   4.075718e+00   5.311796e+01
  -3.968486e+01   1.846145e+01
  -5.261816e+01  -3.377597e+01
  -1.164636e+01  -5.543512e+01
   5.187080e+01  -2.773804e+01
   7.815589e+01   1.387378e+01
   4.036977e+01   3.919707e+01
  -2.649448e+01   3.679568e+01
  -5.580593e+01   2.023536e+01
  -2.243730e+01   4.063109e+00
   2.637116e+01  -1.169104e+00
   2.777415e+01   6.328688e+00
  -2.181113e+01   2.129575e+01
  -6.724783e+01   1.422496e+01
