
 $NMID
 id='ANONYMOUS ', fmtdat='(2E16.6)'
 volume=1.0
 tramp=1.0
 $END
  -4.516723e+03   1.970077e+01
  -2.597040e+03  -2.894724e+03
   8.268102e+02  -2.991130e+03
   2.268801e+03  -9.870520e+02
   1.047893e+03   7.489185e+02
  -6.746314e+02   7.351652e+02
  -1.001062e+03  -4.099040e+02
  -6.501656e+01  -1.150789e+03
   8.592436e+02  -8.972481e+02
   1.040721e+03   7.420813e+01
   5.337955e+02   9.448410e+02
  -2.460615e+02   1.009583e+03
  -7.194733e+02   1.597054e+02
  -4.562570e+02  -7.636714e+02
   2.808605e+02  -8.278495e+02
   6.545321e+02  -3.312971e+00
   3.196984e+02   7.572082e+02
  -3.546168e+02   7.157710e+02
  -6.725040e+02   1.238844e+02
  -4.493685e+02  -3.997537e+02
  -2.640518e+01  -4.990275e+02
   2.704013e+02  -3.063029e+02
   2.416556e+02  -1.647926e+01
  -1.104140e+02   1.110346e+02
  -4.377848e+02  -1.024897e+02
  -2.156557e+02  -4.566138e+02
   4.842784e+02  -4.319259e+02
   9.024699e+02   8.086533e+01
   4.547004e+02   5.779492e+02
  -4.000715e+02   5.216314e+02
  -7.787255e+02  -2.293807e+01
  -3.858713e+02  -5.025876e+02
   2.763513e+02  -5.563539e+02
   5.994791e+02  -2.196335e+02
   4.861258e+02   2.353248e+02
   1.118300e+02   5.141362e+02
  -2.022964e+02   3.382723e+02
  -2.126798e+02  -2.149857e+02
   1.712534e+02  -4.854870e+02
   4.961207e+02  -4.836756e+00
   2.744445e+02   7.352879e+02
  -3.486661e+02   7.784969e+02
  -6.701343e+02   3.092703e+01
  -2.822483e+02  -5.900899e+02
   3.234357e+02  -3.556740e+02
   4.411968e+02   3.207797e+02
  -5.563128e+01   5.863180e+02
  -5.729281e+02   1.672422e+02
  -6.326109e+02  -4.249899e+02
  -1.836513e+02  -6.364292e+02
   4.067354e+02  -3.885576e+02
   6.875595e+02   7.582132e+01
   4.214709e+02   4.144339e+02
  -1.562386e+02   4.049071e+02
  -4.595613e+02   6.942142e+01
  -2.662425e+02  -2.258926e+02
   1.325089e+02  -1.397360e+02
   1.658432e+02   1.564063e+02
  -1.545374e+02   2.151972e+02
  -3.725010e+02  -5.711136e+01
  -1.535649e+02  -3.094060e+02
   2.122264e+02  -2.897806e+02
   3.646279e+02  -9.297188e+01
   2.187919e+02   9.094085e+01
  -1.926263e+01   2.456982e+02
  -2.370932e+02   3.459620e+02
  -3.723724e+02   2.244602e+02
  -3.157690e+02  -1.589136e+02
  -8.075626e+01  -4.693981e+02
   1.277118e+02  -3.988393e+02
   1.284743e+02  -1.216912e+02
   2.590556e+01   4.766352e+00
   4.820116e+01  -9.535128e+01
   2.052573e+02  -1.294760e+02
   2.993683e+02   6.340602e+01
   1.702362e+02   2.767641e+02
  -6.951927e+01   2.644136e+02
  -2.391270e+02   2.073861e+01
  -2.138060e+02  -2.460365e+02
   1.010607e+00  -3.188892e+02
   2.775161e+02  -1.318709e+02
   3.913032e+02   1.748288e+02
   2.109262e+02   3.850072e+02
  -1.081678e+02   3.424195e+02
  -2.599661e+02   1.376749e+02
  -1.823008e+02   4.263364e+00
  -1.198618e+02   2.778904e+01
  -2.549080e+02   5.572271e+01
  -4.248099e+02  -7.265797e+01
  -3.547821e+02  -3.028054e+02
  -4.041649e-01  -4.732059e+02
   3.910496e+02  -4.521129e+02
   5.270433e+02  -2.283898e+02
   3.698026e+02   9.825452e+01
   6.616222e+01   3.168617e+02
  -1.364111e+02   2.799823e+02
  -9.618972e+01   3.695111e+01
   1.110962e+02  -1.186701e+02
   2.112442e+02   2.655449e+00
   5.880674e+01   2.087627e+02
  -1.732043e+02   1.972234e+02
  -1.971051e+02  -5.894794e+01
   1.342268e+01  -2.105581e+02
   2.072872e+02  -4.034945e+01
   1.722152e+02   2.614465e+02
  -3.916852e+01   3.734773e+02
  -2.502359e+02   2.084649e+02
  -3.465450e+02  -6.524530e+01
  -2.908656e+02  -2.633128e+02
  -9.943333e+01  -2.842820e+02
   1.188456e+02  -1.728231e+02
   1.864539e+02  -2.507629e+01
   6.057653e+01   3.589358e+01
  -7.399878e+01  -3.861181e+01
  -2.912063e+01  -1.332545e+02
   1.339209e+02  -1.068053e+02
   1.929419e+02   1.145504e+01
   6.566956e+01   7.846125e+01
  -8.052734e+01   1.894905e+01
  -5.513237e+01  -7.351619e+01
   1.282556e+02  -8.646701e+01
   2.911144e+02   9.736658e+00
   2.684192e+02   1.546961e+02
   5.777811e+01   2.681275e+02
  -1.953524e+02   2.698172e+02
  -2.938528e+02   1.288679e+02
  -1.814418e+02  -5.588561e+01
   2.280611e+01  -1.210115e+02
   9.735543e+01  -1.264075e+01
  -2.535124e+01   1.070416e+02
  -1.998631e+02   6.673278e+01
  -2.271848e+02  -1.057861e+02
  -7.930475e+01  -2.256615e+02
   9.773206e+01  -1.732751e+02
   1.571306e+02  -3.580031e+01
   7.835911e+01   4.193142e+01
  -2.605261e+01   3.523763e+00
  -3.687401e+01  -8.763120e+01
   7.810440e+01  -1.196478e+02
   2.116549e+02  -2.940539e+01
   2.054106e+02   1.320746e+02
   2.502560e+01   2.353441e+02
  -1.743912e+02   1.797651e+02
  -2.142795e+02   8.308601e+00
  -7.595331e+01  -1.257929e+02
   6.766658e+01  -1.226818e+02
   9.016811e+01  -3.312684e+01
   2.073057e+01   2.652899e+01
  -2.147719e+01   1.638719e+01
   1.412311e+01  -9.977246e+00
   7.703160e+01   1.097625e+01
   9.263999e+01   8.878542e+01
   1.518269e+01   1.687286e+02
  -1.346874e+02   1.627423e+02
  -2.485950e+02   2.663544e+01
  -2.174836e+02  -1.614350e+02
  -4.693178e+01  -2.576044e+02
   1.188720e+02  -1.859378e+02
   1.521676e+02  -2.812162e+01
   7.879471e+01   6.535826e+01
   2.778939e+01   4.065191e+01
   5.027037e+01  -1.558170e+01
   8.350143e+01  -5.889701e+00
   4.436011e+01   5.539444e+01
  -4.886971e+01   9.595064e+01
  -1.109597e+02   5.570005e+01
  -9.088542e+01  -4.143911e+01
   1.455731e+01  -1.167051e+02
   1.490561e+02  -8.792077e+01
   2.084313e+02   5.468045e+01
   1.066636e+02   2.133246e+02
  -1.154596e+02   2.410940e+02
  -2.856675e+02   1.029719e+02
  -2.714933e+02  -9.205479e+01
  -1.112064e+02  -1.880237e+02
   4.480968e+01  -1.548706e+02
   9.691526e+01  -8.390617e+01
   7.795400e+01  -6.906460e+01
   6.742135e+01  -9.637522e+01
   9.995927e+01  -8.011287e+01
   1.389459e+02   2.210314e+01
   1.251070e+02   1.637657e+02
   3.068418e+01   2.422297e+02
  -1.049466e+02   1.844538e+02
  -1.887236e+02   2.280412e+01
  -1.474277e+02  -1.293682e+02
  -2.211526e+01  -1.731352e+02
   7.307834e+01  -9.642588e+01
   6.362469e+01   9.597670e-01
   2.936433e+00   4.582149e+01
  -1.121532e+01   3.418755e+01
   3.852376e+01   1.730385e+01
   8.717598e+01   2.574322e+01
   5.104448e+01   4.480055e+01
  -6.886840e+01   4.217751e+01
  -1.697424e+02   4.134440e+00
  -1.515743e+02  -5.700752e+01
  -1.434607e+01  -9.726708e+01
   1.300410e+02  -8.095224e+01
   1.549890e+02  -1.030333e+01
   5.033436e+01   4.777278e+01
  -6.227475e+01   3.958743e+01
  -7.795208e+01  -2.276789e+01
  -5.895634e+00  -7.555143e+01
   5.982877e+01  -6.075066e+01
   6.746709e+01   6.698443e+00
   4.499451e+01   5.698804e+01
   4.637485e+01   4.617668e+01
   6.281264e+01   1.860801e-01
   6.785042e+01  -2.583245e-01
   3.644622e+01   7.285747e+01
  -3.491667e+01   1.559361e+02
  -1.225249e+02   1.502747e+02
  -1.770592e+02   3.196628e+01
  -1.310642e+02  -9.800942e+01
  -8.161050e+00  -1.317137e+02
   9.286393e+01  -6.197771e+01
   6.381549e+01   1.884455e+01
  -6.005903e+01   2.683094e+01
  -1.493133e+02  -4.441719e+01
  -8.496214e+01  -1.066589e+02
   8.033566e+01  -1.226243e+02
   2.022500e+02  -5.584541e+01
   1.747016e+02   3.906573e+01
   3.681782e+01   9.552202e+01
  -7.026907e+01   7.380534e+01
  -5.220728e+01   3.690670e+00
   4.333347e+01  -2.981187e+01
   9.736483e+01   2.429067e+01
   3.191373e+01   1.271153e+02
  -9.745731e+01   1.636940e+02
  -1.755244e+02   6.461386e+01
  -1.311138e+02  -1.083085e+02
  -9.811873e+00  -2.049564e+02
   8.677549e+01  -1.476085e+02
   1.086725e+02   1.010776e+01
   6.456855e+01   1.213755e+02
  -1.979143e+00   1.071140e+02
  -4.806490e+01   2.038850e+01
  -5.431248e+01  -3.187528e+01
  -2.647094e+01  -7.767293e+00
  -5.305685e+00   2.116951e+01
  -2.443139e+01  -1.771543e+01
  -5.889530e+01  -9.672377e+01
  -4.043858e+01  -1.186653e+02
   5.570093e+01  -4.897888e+01
   1.484868e+02   4.574151e+01
   1.359731e+02   8.025998e+01
   1.529665e+01   5.724120e+01
  -9.413519e+01   2.523582e+01
  -9.306833e+01   6.408634e+00
  -1.368699e+01  -8.894714e+00
   4.010468e+01  -2.364815e+01
   1.504822e+01  -1.824001e+01
  -2.191988e+01   1.236091e+00
   5.183701e+00   5.919802e+00
   7.773986e+01   1.543495e+00
   9.694975e+01   2.745057e+01
   9.629349e+00   8.996501e+01
  -1.255680e+02   1.254621e+02
  -1.951544e+02   5.970776e+01
  -1.469808e+02  -7.311603e+01
  -2.862262e+01  -1.692088e+02
   8.022315e+01  -1.551185e+02
   1.178812e+02  -6.047259e+01
   8.510923e+01   2.245530e+01
   2.675416e+01   3.804226e+01
  -3.085872e+00   1.004405e+01
   1.025006e+01   4.659988e+00
   3.744204e+01   4.798141e+01
   2.567549e+01   9.504572e+01
  -3.215129e+01   7.653038e+01
  -8.792833e+01  -2.008865e+01
  -8.220354e+01  -1.159921e+02
  -2.193495e+00  -1.182450e+02
   9.054295e+01  -2.471818e+01
   1.093683e+02   8.256549e+01
   3.123441e+01   1.114242e+02
  -7.276487e+01   5.894986e+01
  -1.041604e+02  -1.554856e+01
  -4.068149e+01  -5.655959e+01
   3.493017e+01  -5.520477e+01
   3.233786e+01  -2.755210e+01
  -3.447898e+01   1.963506e+00
  -7.303845e+01   5.223852e+00
  -1.524008e+01  -2.909603e+01
   8.552513e+01  -6.998961e+01
   1.228973e+02  -5.752328e+01
   6.971034e+01   1.733900e+01
  -1.803956e+01   8.962709e+01
  -6.033715e+01   8.240053e+01
  -4.181146e+01   3.255477e+00
   2.715244e-01  -6.036563e+01
   3.148088e+01  -4.422455e+01
   4.127946e+01   2.279958e+01
   2.552876e+01   6.169121e+01
  -7.681870e+00   3.700569e+01
  -3.675697e+01  -1.039982e+01
  -3.968168e+01  -2.462036e+01
  -2.037105e+01  -1.223328e+00
  -1.212054e-01   1.691957e+01
   3.855998e+00  -1.888920e+00
   4.180116e+00  -3.950349e+01
   1.841095e+01  -4.919430e+01
   3.624991e+01  -8.745512e+00
   3.580441e+01   4.935067e+01
  -8.184824e-01   6.582911e+01
  -4.809470e+01   2.320440e+01
  -6.017810e+01  -4.163606e+01
  -1.542670e+01  -6.603456e+01
   5.893404e+01  -3.421228e+01
   9.307335e+01   1.835759e+01
   5.047807e+01   4.734711e+01
  -3.162722e+01   4.260262e+01
  -7.035598e+01   2.165212e+01
  -2.701466e+01   4.068626e+00
   4.040699e+01   1.607963e+00
   4.146814e+01   1.758426e+01
  -3.209535e+01   3.491081e+01
  -9.872351e+01   2.175188e+01
