
 $NMID
 id='ANONYMOUS ', fmtdat='(2E16.6)'
 volume=1.0
 tramp=1.0
 $END
   4.481280e+03   2.740172e+01
   2.420680e+03   2.727343e+03
  -8.451718e+02   2.717081e+03
  -2.175976e+03   8.357669e+02
  -9.037549e+02  -6.499822e+02
   7.066102e+02  -5.427479e+02
   8.722157e+02   4.991293e+02
  -7.574557e+01   1.094860e+03
  -8.767765e+02   7.528522e+02
  -9.613950e+02  -1.346814e+02
  -4.385145e+02  -8.931149e+02
   2.633248e+02  -9.079821e+02
   6.700940e+02  -9.695283e+01
   3.794910e+02   7.628031e+02
  -2.766465e+02   7.746158e+02
  -6.340156e+02  -2.068814e+01
  -2.675561e+02  -6.790183e+02
   3.174284e+02  -6.215376e+02
   5.546617e+02  -6.711895e+01
   3.706248e+02   3.514152e+02
   1.339093e+01   4.234290e+02
  -2.434674e+02   2.473360e+02
  -2.203988e+02   8.838961e+00
   1.393742e+02  -8.892104e+01
   4.362287e+02   1.146005e+02
   2.107688e+02   4.676952e+02
  -4.969104e+02   4.600324e+02
  -9.017807e+02  -7.213799e+01
  -4.570088e+02  -5.907507e+02
   4.087508e+02  -5.345757e+02
   7.882379e+02   5.908671e+00
   3.639173e+02   4.924735e+02
  -2.846287e+02   5.495853e+02
  -5.729949e+02   2.351922e+02
  -4.148964e+02  -2.296116e+02
  -6.404717e+01  -4.898713e+02
   2.167326e+02  -2.834158e+02
   1.796376e+02   2.462770e+02
  -1.901792e+02   4.578303e+02
  -4.833390e+02  -3.210446e+01
  -2.674589e+02  -7.133371e+02
   3.371908e+02  -7.366507e+02
   6.312227e+02   9.032648e-01
   2.677727e+02   5.786775e+02
  -3.018648e+02   3.311777e+02
  -3.874406e+02  -3.487908e+02
   7.661433e+01  -5.815793e+02
   5.867364e+02  -1.322287e+02
   6.125048e+02   4.146393e+02
   1.654815e+02   6.065272e+02
  -3.894494e+02   3.611950e+02
  -6.473730e+02  -5.710853e+01
  -3.855875e+02  -3.850527e+02
   1.729306e+02  -3.861583e+02
   4.630873e+02  -5.816150e+01
   2.301439e+02   2.033659e+02
  -1.395134e+02   1.011839e+02
  -1.547712e+02  -1.734956e+02
   1.856420e+02  -1.949960e+02
   3.590817e+02   8.521713e+01
   1.411755e+02   3.202065e+02
  -2.091642e+02   2.678935e+02
  -3.244665e+02   7.396553e+01
  -1.996221e+02  -7.866223e+01
   6.531328e-01  -2.263107e+02
   1.961145e+02  -3.469505e+02
   3.372950e+02  -2.365958e+02
   3.223756e+02   1.434285e+02
   9.470747e+01   4.538029e+02
  -1.296708e+02   3.923229e+02
  -1.353291e+02   9.057888e+01
  -1.127001e+01  -2.928687e+01
  -2.120415e+01   9.109923e+01
  -1.900551e+02   1.488811e+02
  -2.888083e+02  -4.002172e+01
  -1.725401e+02  -2.775206e+02
   7.070671e+01  -2.724058e+02
   2.399840e+02  -1.822827e+01
   2.082244e+02   2.455080e+02
  -3.927490e+00   3.004642e+02
  -2.733641e+02   1.271610e+02
  -3.792802e+02  -1.625584e+02
  -2.008884e+02  -3.582173e+02
   1.001577e+02  -3.153042e+02
   2.321321e+02  -1.251772e+02
   1.490717e+02  -4.702051e+00
   8.608068e+01  -2.992926e+01
   2.199116e+02  -7.013134e+01
   3.947780e+02   3.302230e+01
   3.445528e+02   2.630856e+02
   1.486121e+01   4.405374e+02
  -3.447306e+02   4.383635e+02
  -4.924291e+02   2.230326e+02
  -3.464503e+02  -8.780605e+01
  -5.819638e+01  -3.042436e+02
   1.378774e+02  -2.534029e+02
   8.419831e+01  -2.095571e+01
  -1.162814e+02   1.189283e+02
  -2.045497e+02  -6.461005e+00
  -5.847548e+01  -2.065391e+02
   1.685331e+02  -1.737768e+02
   1.845524e+02   6.189088e+01
  -1.875297e+01   1.997130e+02
  -1.991508e+02   3.929137e+01
  -1.737409e+02  -2.433461e+02
   2.219035e+01  -3.503873e+02
   2.232596e+02  -2.032577e+02
   3.219492e+02   4.784605e+01
   2.797453e+02   2.258439e+02
   9.570001e+01   2.683941e+02
  -1.095156e+02   1.675893e+02
  -1.814620e+02   2.032964e+01
  -6.009689e+01  -4.551483e+01
   7.543972e+01   3.119758e+01
   3.563130e+01   1.280178e+02
  -1.237621e+02   1.099958e+02
  -1.877982e+02  -6.929495e+00
  -6.599016e+01  -7.809251e+01
   8.008838e+01  -2.969870e+01
   6.492757e+01   6.896225e+01
  -1.172284e+02   9.208362e+01
  -2.867819e+02   1.473140e+01
  -2.759520e+02  -1.307706e+02
  -7.083201e+01  -2.642923e+02
   1.880094e+02  -2.784214e+02
   2.953153e+02  -1.332880e+02
   1.805427e+02   5.883965e+01
  -2.359563e+01   1.177679e+02
  -9.438424e+01   9.957053e+00
   3.161853e+01  -1.061712e+02
   1.942915e+02  -6.248760e+01
   2.124255e+02   1.054995e+02
   7.075437e+01   2.123696e+02
  -9.123465e+01   1.624129e+02
  -1.460434e+02   3.250995e+01
  -7.702256e+01  -4.503825e+01
   2.615730e+01  -1.243037e+01
   4.366696e+01   7.753306e+01
  -6.156061e+01   1.163348e+02
  -1.939647e+02   4.110934e+01
  -1.959053e+02  -1.142520e+02
  -2.924209e+01  -2.165625e+02
   1.602487e+02  -1.679687e+02
   1.940633e+02  -1.123118e+01
   6.725219e+01   1.118930e+02
  -6.569618e+01   1.132347e+02
  -8.293327e+01   3.346819e+01
  -2.008668e+01  -2.756773e+01
   2.110614e+01  -2.278889e+01
  -3.464544e+00   7.331535e+00
  -6.611949e+01  -4.840243e+00
  -8.948897e+01  -7.480939e+01
  -2.244073e+01  -1.550068e+02
   1.177785e+02  -1.550887e+02
   2.286173e+02  -3.325854e+01
   2.056586e+02   1.402303e+02
   5.204055e+01   2.330786e+02
  -1.040054e+02   1.713904e+02
  -1.336763e+02   3.079853e+01
  -7.059211e+01  -5.204680e+01
  -2.881628e+01  -3.382720e+01
  -5.640662e+01   8.975156e+00
  -7.800245e+01   7.204695e+00
  -4.066746e+01  -4.507440e+01
   3.755518e+01  -8.409679e+01
   9.632534e+01  -6.011279e+01
   8.422358e+01   2.440650e+01
  -3.111721e+00   1.072784e+02
  -1.290348e+02   9.810641e+01
  -1.964546e+02  -3.387317e+01
  -1.138346e+02  -1.921616e+02
   8.960132e+01  -2.343067e+02
   2.624102e+02  -1.078899e+02
   2.614554e+02   7.428910e+01
   1.153363e+02   1.747966e+02
  -3.550889e+01   1.464104e+02
  -9.178395e+01   8.565030e+01
  -7.744713e+01   7.257720e+01
  -6.606942e+01   9.014101e+01
  -8.892424e+01   7.315587e+01
  -1.254296e+02  -1.933702e+01
  -1.221263e+02  -1.462677e+02
  -4.212859e+01  -2.193984e+02
   9.061769e+01  -1.743819e+02
   1.757301e+02  -2.745629e+01
   1.432413e+02   1.166754e+02
   2.158408e+01   1.587402e+02
  -6.784186e+01   9.373695e+01
  -6.428501e+01   1.002610e+00
  -9.209695e+00  -4.090579e+01
   8.999582e+00  -3.294140e+01
  -3.632106e+01  -1.880059e+01
  -7.754874e+01  -2.022399e+01
  -4.431238e+01  -3.538174e+01
   6.258380e+01  -3.857310e+01
   1.597369e+02  -8.285259e+00
   1.478394e+02   4.436831e+01
   2.179168e+01   8.615476e+01
  -1.121763e+02   7.837338e+01
  -1.368295e+02   2.219612e+01
  -4.894630e+01  -3.365188e+01
   5.845521e+01  -3.634290e+01
   7.284753e+01   1.876414e+01
   7.462388e+00   6.670752e+01
  -5.347609e+01   5.454723e+01
  -6.092078e+01  -1.700621e+00
  -4.320199e+01  -4.735326e+01
  -4.164992e+01  -3.712113e+01
  -5.919696e+01   4.298661e-01
  -6.706909e+01   3.022901e+00
  -3.860793e+01  -6.393845e+01
   2.093718e+01  -1.411514e+02
   1.071508e+02  -1.443322e+02
   1.595243e+02  -4.245274e+01
   1.257683e+02   8.416333e+01
   1.229282e+01   1.253254e+02
  -8.254971e+01   6.535498e+01
  -5.984068e+01  -1.512454e+01
   5.805989e+01  -2.458898e+01
   1.368836e+02   3.748407e+01
   7.472007e+01   1.069169e+02
  -7.158230e+01   1.108109e+02
  -1.799274e+02   5.125319e+01
  -1.580026e+02  -2.772762e+01
  -4.185120e+01  -8.154344e+01
   5.260592e+01  -7.003471e+01
   4.625337e+01  -9.947704e+00
  -3.531839e+01   2.522027e+01
  -8.804331e+01  -1.849929e+01
  -3.219656e+01  -1.141774e+02
   8.486789e+01  -1.527043e+02
   1.573552e+02  -6.438298e+01
   1.221466e+02   9.434857e+01
   7.964152e+00   1.909314e+02
  -8.083814e+01   1.424142e+02
  -1.034323e+02  -3.625461e+00
  -6.276185e+01  -1.177864e+02
   2.204574e-01  -1.092570e+02
   4.671167e+01  -2.282698e+01
   5.359997e+01   3.215476e+01
   2.616008e+01   1.175738e+01
   2.501235e+00  -2.057191e+01
   1.778917e+01   7.965409e+00
   5.972938e+01   8.177397e+01
   4.698647e+01   1.069933e+02
  -4.393571e+01   4.815947e+01
  -1.385121e+02  -3.254821e+01
  -1.308377e+02  -6.494751e+01
  -2.020849e+01  -4.869885e+01
   8.420682e+01  -2.296979e+01
   8.604335e+01  -8.289761e+00
   7.176724e+00   7.773862e+00
  -3.881938e+01   2.046573e+01
  -1.574132e+01   1.706987e+01
   2.029570e+01  -2.392673e+00
  -6.432342e+00  -9.586336e+00
  -7.065589e+01  -3.916088e+00
  -8.676595e+01  -2.054628e+01
  -9.675753e+00  -7.324174e+01
   1.122845e+02  -1.098725e+02
   1.744173e+02  -6.269817e+01
   1.365988e+02   5.736587e+01
   2.832977e+01   1.552188e+02
  -7.007051e+01   1.482577e+02
  -1.039031e+02   6.191966e+01
  -7.580980e+01  -1.791745e+01
  -2.515334e+01  -3.302096e+01
   1.956040e+00  -6.261807e+00
  -1.139774e+01  -1.364923e+00
  -3.489237e+01  -4.370465e+01
  -2.448505e+01  -8.888835e+01
   2.548348e+01  -7.199601e+01
   8.046513e+01   1.521044e+01
   8.010768e+01   1.021716e+02
   7.498773e+00   1.081373e+02
  -7.889997e+01   2.367470e+01
  -1.022701e+02  -7.124892e+01
  -3.379892e+01  -9.871736e+01
   6.432645e+01  -5.376697e+01
   9.712336e+01   9.219339e+00
   4.091745e+01   4.733625e+01
  -3.062930e+01   4.967695e+01
  -3.239313e+01   2.831100e+01
   3.104175e+01  -9.436395e-01
   6.761902e+01  -9.018456e+00
   1.531799e+01   2.581947e+01
  -7.390231e+01   6.967797e+01
  -1.097132e+02   6.383721e+01
  -6.324788e+01  -9.789332e+00
   9.996717e+00  -8.119881e+01
   4.650830e+01  -8.000497e+01
   3.343888e+01  -7.813422e+00
   2.269615e+00   5.318836e+01
  -2.180431e+01   4.163416e+01
  -3.345114e+01  -1.749137e+01
  -2.620414e+01  -5.039442e+01
   2.405635e-01  -2.952435e+01
   2.972615e+01   8.038945e+00
   3.808554e+01   1.771558e+01
   2.084963e+01  -1.784374e+00
  -1.013209e+00  -1.309798e+01
  -7.453144e+00   4.422935e+00
  -6.721333e+00   3.563403e+01
  -1.346534e+01   4.148807e+01
  -2.904112e+01   4.668765e+00
  -2.879564e+01  -4.325558e+01
   9.865512e-01  -5.958377e+01
   4.257003e+01  -1.976655e+01
   5.649626e+01   3.689995e+01
   1.545683e+01   6.136681e+01
  -5.128380e+01   3.528614e+01
  -8.558544e+01  -1.113897e+01
  -4.928185e+01  -3.967873e+01
   2.471516e+01  -4.042904e+01
   6.082632e+01  -2.356408e+01
   2.317186e+01  -6.544062e+00
  -3.489723e+01  -1.859673e+00
  -3.581864e+01  -1.605437e+01
   3.137221e+01  -3.142584e+01
   8.999374e+01  -1.926119e+01
