
 $NMID
 id='ANONYMOUS ', fmtdat='(2E16.6)'
 volume=1.0
 tramp=1.0
 $END
  -4.382599e+03  -3.154718e+02
  -2.246041e+03  -2.861816e+03
   1.027765e+03  -2.633430e+03
   2.177062e+03  -6.334563e+02
   8.512996e+02   7.962881e+02
  -7.690247e+02   5.371726e+02
  -9.102333e+02  -5.540431e+02
   9.230385e+01  -1.099632e+03
   9.451416e+02  -7.150783e+02
   9.541817e+02   2.344452e+02
   3.428850e+02   9.588845e+02
  -3.849511e+02   8.929692e+02
  -6.870546e+02   1.593878e+01
  -3.023861e+02  -8.050728e+02
   3.737610e+02  -7.557974e+02
   6.200127e+02   7.151686e+01
   2.232071e+02   7.149992e+02
  -3.830405e+02   6.120533e+02
  -5.916273e+02   4.762733e+01
  -3.522209e+02  -3.922028e+02
   3.211435e+01  -4.426543e+02
   2.910638e+02  -2.454431e+02
   2.584607e+02   3.276187e+01
  -1.018664e+02   1.243658e+02
  -4.412079e+02  -1.241335e+02
  -2.044013e+02  -4.888904e+02
   4.788878e+02  -4.203920e+02
   8.767847e+02   1.521495e+02
   4.080909e+02   6.314389e+02
  -4.480372e+02   4.963426e+02
  -7.880227e+02  -1.023535e+02
  -3.408798e+02  -5.516104e+02
   3.378568e+02  -5.419677e+02
   6.329633e+02  -1.722376e+02
   4.373149e+02   2.697546e+02
   2.997132e+01   5.034723e+02
  -2.586968e+02   2.683555e+02
  -1.770114e+02  -2.709836e+02
   2.349110e+02  -4.581259e+02
   4.943097e+02   6.740309e+01
   2.048898e+02   7.461209e+02
  -4.207437e+02   6.981519e+02
  -6.505664e+02  -7.482540e+01
  -2.078053e+02  -6.417294e+02
   3.516958e+02  -3.271079e+02
   3.805078e+02   3.690397e+02
  -1.100691e+02   5.660524e+02
  -5.723786e+02   1.057332e+02
  -5.800909e+02  -4.603109e+02
  -1.147418e+02  -6.107892e+02
   4.219226e+02  -3.336066e+02
   6.316201e+02   1.164677e+02
   3.420405e+02   4.154438e+02
  -1.833823e+02   3.441612e+02
  -4.459073e+02   1.000878e+01
  -2.048651e+02  -2.287426e+02
   1.456717e+02  -9.822708e+01
   1.317013e+02   1.822188e+02
  -1.943531e+02   1.873642e+02
  -3.569672e+02  -1.079637e+02
  -1.148249e+02  -3.298133e+02
   2.283345e+02  -2.632110e+02
   3.300700e+02  -5.807883e+01
   2.021587e+02   8.757381e+01
  -7.326594e+00   2.233126e+02
  -2.271535e+02   3.221334e+02
  -3.636485e+02   2.144093e+02
  -2.970173e+02  -1.537698e+02
  -5.711472e+01  -4.401490e+02
   1.391072e+02  -3.689771e+02
   1.257410e+02  -9.375768e+01
   8.360572e+00   1.806462e+01
   3.328641e+01  -1.006637e+02
   2.024103e+02  -1.405113e+02
   2.922325e+02   6.058994e+01
   1.549672e+02   2.912569e+02
  -8.357717e+01   2.705961e+02
  -2.384376e+02   1.489479e+01
  -2.051031e+02  -2.502225e+02
   2.095013e+01  -3.103691e+02
   2.924147e+02  -1.121367e+02
   3.677703e+02   1.945022e+02
   1.570757e+02   3.766386e+02
  -1.388627e+02   3.050000e+02
  -2.422069e+02   9.315974e+01
  -1.369056e+02  -2.335224e+01
  -7.972086e+01   2.859388e+01
  -2.218483e+02   7.414749e+01
  -3.977771e+02  -5.975458e+01
  -3.242407e+02  -3.028468e+02
   1.477968e+01  -4.598242e+02
   3.826048e+02  -4.107194e+02
   5.080189e+02  -1.752676e+02
   3.499058e+02   1.312397e+02
   4.423731e+01   3.191886e+02
  -1.598452e+02   2.553224e+02
  -1.033645e+02   1.522446e+01
   1.116711e+02  -1.111073e+02
   2.007329e+02   1.691034e+01
   3.385405e+01   2.030764e+02
  -1.772104e+02   1.556259e+02
  -1.763546e+02  -8.274166e+01
   3.908292e+01  -1.985316e+02
   2.093919e+02  -2.417574e+01
   1.600397e+02   2.604620e+02
  -4.755465e+01   3.487059e+02
  -2.392394e+02   1.904347e+02
  -3.241085e+02  -7.022797e+01
  -2.747916e+02  -2.530289e+02
  -8.712623e+01  -2.800156e+02
   1.214299e+02  -1.609072e+02
   1.835624e+02  -3.563904e+00
   5.771945e+01   4.722169e+01
  -7.547019e+01  -4.244355e+01
  -2.784219e+01  -1.361452e+02
   1.327050e+02  -1.009382e+02
   1.821350e+02   2.773997e+01
   5.657684e+01   8.680706e+01
  -8.415679e+01   2.315901e+01
  -6.034052e+01  -7.062727e+01
   1.119979e+02  -8.965779e+01
   2.686774e+02  -3.782655e+00
   2.598475e+02   1.419026e+02
   6.022015e+01   2.606561e+02
  -1.874071e+02   2.602153e+02
  -2.920175e+02   1.138413e+02
  -1.740261e+02  -6.535205e+01
   3.027126e+01  -1.162947e+02
   9.928058e+01  -2.491940e+00
  -3.341329e+01   1.058360e+02
  -2.015499e+02   5.163556e+01
  -2.131452e+02  -1.181826e+02
  -5.739486e+01  -2.191724e+02
   1.113440e+02  -1.546632e+02
   1.526423e+02  -1.313260e+01
   7.060301e+01   5.474384e+01
  -3.157108e+01   1.101076e+01
  -4.185013e+01  -8.335718e+01
   6.852037e+01  -1.164595e+02
   1.965541e+02  -2.745477e+01
   1.893612e+02   1.331678e+02
   1.576808e+01   2.257589e+02
  -1.689030e+02   1.596324e+02
  -1.963615e+02  -6.333599e+00
  -6.145330e+01  -1.251168e+02
   7.478788e+01  -1.128105e+02
   9.126219e+01  -2.412938e+01
   2.168604e+01   3.167346e+01
  -2.263510e+01   2.366827e+01
   5.659274e+00  -4.175093e+00
   6.520954e+01   9.512326e+00
   8.108859e+01   7.774307e+01
   8.891096e+00   1.535649e+02
  -1.331817e+02   1.449427e+02
  -2.354165e+02   1.730855e+01
  -1.952754e+02  -1.594540e+02
  -2.869368e+01  -2.419916e+02
   1.201800e+02  -1.674181e+02
   1.425599e+02  -2.177361e+01
   7.099166e+01   6.130644e+01
   2.685172e+01   4.271866e+01
   4.765407e+01  -7.275179e+00
   7.430525e+01  -2.274611e+00
   3.743729e+01   4.745978e+01
  -4.185738e+01   8.212804e+01
  -9.768165e+01   5.109534e+01
  -8.212972e+01  -3.475667e+01
   1.469469e+01  -1.062613e+02
   1.388375e+02  -8.262235e+01
   1.937903e+02   5.468266e+01
   9.731249e+01   2.048666e+02
  -1.110009e+02   2.244193e+02
  -2.695140e+02   8.696838e+01
  -2.521663e+02  -1.008576e+02
  -9.902177e+01  -1.833589e+02
   4.799992e+01  -1.444282e+02
   9.982909e+01  -7.387636e+01
   8.368888e+01  -6.069735e+01
   7.103402e+01  -8.425193e+01
   9.404469e+01  -7.093912e+01
   1.269950e+02   2.536092e+01
   1.138367e+02   1.596837e+02
   2.320118e+01   2.314799e+02
  -1.080997e+02   1.724906e+02
  -1.810338e+02   1.463999e+01
  -1.343805e+02  -1.278389e+02
  -1.167786e+01  -1.619224e+02
   7.227182e+01  -8.992331e+01
   6.171896e+01  -4.603140e-01
   5.102242e+00   4.013171e+01
  -1.006594e+01   3.122393e+01
   3.486053e+01   2.155841e+01
   7.422745e+01   2.771360e+01
   3.968827e+01   3.777924e+01
  -5.879679e+01   3.140179e+01
  -1.461956e+02  -3.496381e+00
  -1.355665e+02  -5.366462e+01
  -1.782713e+01  -8.791891e+01
   1.164916e+02  -6.973318e+01
   1.432350e+02  -7.664295e+00
   5.090456e+01   4.521708e+01
  -5.760757e+01   3.403130e+01
  -7.538146e+01  -2.247159e+01
  -6.182812e+00  -6.802902e+01
   5.889060e+01  -5.275141e+01
   6.396623e+01   6.836089e+00
   4.004921e+01   5.320464e+01
   3.923745e+01   4.647083e+01
   5.449180e+01   8.407266e+00
   5.958403e+01   4.307167e+00
   2.744704e+01   6.494948e+01
  -4.020521e+01   1.373446e+02
  -1.213907e+02   1.309340e+02
  -1.611020e+02   2.337026e+01
  -1.157671e+02  -9.641084e+01
  -3.353546e+00  -1.254024e+02
   8.302486e+01  -5.682810e+01
   5.818868e+01   1.658063e+01
  -5.361411e+01   1.566294e+01
  -1.309851e+02  -5.330570e+01
  -6.933110e+01  -1.045829e+02
   8.398494e+01  -1.048920e+02
   1.930831e+02  -3.648689e+01
   1.642167e+02   4.424957e+01
   3.171150e+01   9.209434e+01
  -6.871673e+01   6.865819e+01
  -5.213235e+01   5.665667e+00
   3.857189e+01  -2.620170e+01
   8.673999e+01   2.644962e+01
   2.705765e+01   1.166887e+02
  -9.796547e+01   1.456971e+02
  -1.682160e+02   5.287601e+01
  -1.185055e+02  -1.059379e+02
  -5.399126e+00  -1.944352e+02
   9.159478e+01  -1.381722e+02
   1.056542e+02   1.318995e+01
   5.932987e+01   1.216187e+02
  -2.767941e+00   1.081974e+02
  -4.702167e+01   2.042626e+01
  -5.550346e+01  -3.477429e+01
  -2.871810e+01  -1.167097e+01
  -7.123857e+00   2.040158e+01
  -2.030568e+01  -1.319339e+01
  -5.089399e+01  -8.912865e+01
  -3.469871e+01  -1.128331e+02
   4.854457e+01  -4.701482e+01
   1.352464e+02   4.194861e+01
   1.291276e+02   7.755894e+01
   1.827707e+01   5.068181e+01
  -8.653672e+01   1.724734e+01
  -8.748027e+01   2.847874e+00
  -1.021110e+01  -7.030811e+00
   4.068805e+01  -1.872099e+01
   1.520293e+01  -1.947845e+01
  -1.986922e+01  -2.180909e+00
   4.077659e+00   9.084892e+00
   7.358273e+01   8.644259e+00
   8.850374e+01   2.980798e+01
   2.907216e+00   8.003324e+01
  -1.242883e+02   1.041732e+02
  -1.846859e+02   4.324100e+01
  -1.291155e+02  -7.742095e+01
  -1.179619e+01  -1.608551e+02
   8.596963e+01  -1.416593e+02
   1.141468e+02  -4.645423e+01
   7.698620e+01   2.888412e+01
   2.442656e+01   3.759898e+01
  -1.143204e+00   7.539537e+00
   1.024575e+01   4.277689e+00
   2.787737e+01   4.767149e+01
   1.626413e+01   9.119366e+01
  -3.268798e+01   6.779536e+01
  -7.879161e+01  -2.453108e+01
  -7.029741e+01  -1.111040e+02
  -7.109564e-02  -1.076417e+02
   8.102687e+01  -1.707625e+01
   9.608391e+01   7.833440e+01
   2.448501e+01   1.016304e+02
  -6.832419e+01   5.056285e+01
  -9.610476e+01  -1.600844e+01
  -3.681342e+01  -5.113100e+01
   3.222220e+01  -4.916740e+01
   3.200495e+01  -2.637633e+01
  -3.327192e+01  -3.744022e+00
  -6.592912e+01   1.471950e+00
  -1.376411e+01  -2.700585e+01
   7.873536e+01  -6.177967e+01
   1.143349e+02  -5.313018e+01
   6.332365e+01   1.427047e+01
  -1.847631e+01   8.076719e+01
  -5.497473e+01   7.341669e+01
  -3.667773e+01   2.469997e+00
   3.757271e+00  -5.636287e+01
   2.974889e+01  -4.043193e+01
   3.535649e+01   2.232605e+01
   2.239904e+01   5.627731e+01
  -6.257922e+00   3.260834e+01
  -3.304496e+01  -1.029806e+01
  -3.839097e+01  -2.105976e+01
  -1.983525e+01  -2.307168e+00
   1.156351e-01   1.197098e+01
   6.957601e+00  -5.853852e+00
   8.285927e+00  -3.622296e+01
   1.766216e+01  -4.099856e+01
   2.846196e+01  -2.385727e+00
   2.651215e+01   4.407493e+01
  -4.813931e+00   5.678038e+01
  -4.365771e+01   1.935431e+01
  -5.258698e+01  -3.730501e+01
  -1.207210e+01  -6.089464e+01
   5.176334e+01  -3.324681e+01
   8.488309e+01   1.529513e+01
   4.656149e+01   4.430639e+01
  -2.897883e+01   3.821997e+01
  -6.151244e+01   1.467581e+01
  -2.252066e+01   2.127940e+00
   3.722233e+01   4.178917e+00
   3.612854e+01   1.869815e+01
  -3.158939e+01   3.119951e+01
  -9.176397e+01   1.485560e+01
