
 $NMID
 id='ANONYMOUS ', fmtdat='(2E16.6)'
 volume=1.0
 tramp=1.0
 $END
   4.791539e+03  -1.694901e+02
   2.822653e+03   2.829175e+03
  -8.094340e+02   2.956564e+03
  -2.315379e+03   8.988880e+02
  -9.857409e+02  -8.140268e+02
   8.241511e+02  -6.407845e+02
   1.054095e+03   5.114082e+02
   6.604778e+00   1.205682e+03
  -9.240619e+02   8.512563e+02
  -1.047282e+03  -1.479155e+02
  -4.790006e+02  -9.825259e+02
   3.200798e+02  -9.852980e+02
   7.292393e+02  -8.827501e+01
   4.020617e+02   8.142144e+02
  -3.247713e+02   8.180211e+02
  -6.657419e+02  -5.402662e+01
  -2.710478e+02  -7.446948e+02
   3.845021e+02  -6.600396e+02
   6.173998e+02  -5.543824e+01
   3.865706e+02   3.991789e+02
  -1.162235e+01   4.586534e+02
  -2.850257e+02   2.793304e+02
  -2.757049e+02   6.217930e+00
   1.026457e+02  -1.346963e+02
   4.700738e+02   6.833872e+01
   2.644935e+02   4.710601e+02
  -4.666639e+02   4.891524e+02
  -9.446346e+02  -4.520399e+01
  -4.780739e+02  -6.228761e+02
   4.230939e+02  -5.655184e+02
   8.236669e+02   1.339622e+01
   3.842203e+02   5.325687e+02
  -2.969906e+02   5.759335e+02
  -6.235862e+02   2.346839e+02
  -4.514926e+02  -2.461292e+02
  -6.476996e+01  -5.306191e+02
   2.493215e+02  -3.150253e+02
   2.285910e+02   2.511260e+02
  -1.740698e+02   4.995774e+02
  -5.069595e+02  -3.554573e-01
  -2.771178e+02  -7.499105e+02
   3.708972e+02  -7.698588e+02
   6.835161e+02   9.835377e+00
   2.845130e+02   6.410986e+02
  -3.198613e+02   3.672159e+02
  -4.219497e+02  -3.470862e+02
   6.249357e+01  -5.982524e+02
   5.854706e+02  -1.507020e+02
   6.306339e+02   4.246088e+02
   1.813915e+02   6.266465e+02
  -4.035169e+02   3.792883e+02
  -6.719733e+02  -7.618184e+01
  -3.872913e+02  -4.240253e+02
   1.813849e+02  -3.814376e+02
   4.886290e+02  -4.062284e+01
   2.443639e+02   2.341414e+02
  -1.544545e+02   1.170273e+02
  -1.646034e+02  -1.928793e+02
   1.797214e+02  -2.265685e+02
   3.851970e+02   8.052428e+01
   1.446180e+02   3.368800e+02
  -2.228580e+02   2.846776e+02
  -3.404296e+02   6.609547e+01
  -1.921227e+02  -8.459620e+01
   1.489653e+01  -2.211756e+02
   2.036547e+02  -3.387571e+02
   3.315359e+02  -2.564520e+02
   3.067536e+02   1.231902e+02
   1.018340e+02   4.513205e+02
  -1.132351e+02   4.041002e+02
  -1.351389e+02   1.063872e+02
  -2.582439e+01  -3.335736e+01
  -2.144462e+01   8.855679e+01
  -1.798172e+02   1.577180e+02
  -2.889720e+02  -3.290581e+01
  -1.832702e+02  -2.779352e+02
   6.219061e+01  -2.829560e+02
   2.442429e+02  -3.066670e+01
   2.243993e+02   2.413759e+02
  -8.843896e-01   3.187901e+02
  -2.876874e+02   1.392754e+02
  -3.931713e+02  -1.658146e+02
  -1.989688e+02  -3.749134e+02
   1.119289e+02  -3.205876e+02
   2.421979e+02  -1.159478e+02
   1.506951e+02   1.066456e+01
   8.398759e+01  -3.960962e+01
   2.212255e+02  -9.210147e+01
   4.021277e+02   3.445356e+01
   3.408106e+02   2.824426e+02
   1.547776e+01   4.515803e+02
  -3.521982e+02   4.239568e+02
  -4.919842e+02   2.207069e+02
  -3.511354e+02  -9.036634e+01
  -6.754911e+01  -3.073416e+02
   1.418374e+02  -2.708541e+02
   1.077615e+02  -2.201962e+01
  -1.109389e+02   1.290104e+02
  -2.191408e+02   7.725257e+00
  -6.384258e+01  -2.060910e+02
   1.666950e+02  -1.846564e+02
   1.933512e+02   6.022411e+01
  -1.994973e+01   2.039896e+02
  -2.127324e+02   3.954338e+01
  -1.786136e+02  -2.542664e+02
   3.630422e+01  -3.646175e+02
   2.357404e+02  -2.009090e+02
   3.311253e+02   5.538837e+01
   2.866754e+02   2.360746e+02
   1.091880e+02   2.723865e+02
  -1.093652e+02   1.727217e+02
  -1.912543e+02   2.490170e+01
  -6.828073e+01  -4.058862e+01
   7.472560e+01   3.225958e+01
   3.977649e+01   1.316578e+02
  -1.262266e+02   1.086578e+02
  -1.898557e+02  -1.332789e+01
  -6.744063e+01  -8.582476e+01
   8.426472e+01  -3.082519e+01
   6.583062e+01   6.794459e+01
  -1.105595e+02   9.507667e+01
  -2.703499e+02   1.130799e+01
  -2.656259e+02  -1.312886e+02
  -7.527530e+01  -2.532579e+02
   1.741505e+02  -2.711361e+02
   2.889098e+02  -1.360609e+02
   1.833383e+02   5.560116e+01
  -2.463839e+01   1.249038e+02
  -1.031201e+02   1.317822e+01
   2.511054e+01  -1.113886e+02
   2.037406e+02  -7.116233e+01
   2.265651e+02   9.919226e+01
   7.344618e+01   2.161552e+02
  -9.853285e+01   1.687213e+02
  -1.496893e+02   3.215304e+01
  -7.906485e+01  -4.195925e+01
   2.335020e+01  -1.032335e+01
   4.109124e+01   7.744973e+01
  -6.243399e+01   1.145219e+02
  -1.929317e+02   3.748719e+01
  -1.978246e+02  -1.213470e+02
  -2.800352e+01  -2.250801e+02
   1.623218e+02  -1.749196e+02
   2.016416e+02  -6.519225e+00
   7.276911e+01   1.241083e+02
  -6.598906e+01   1.202107e+02
  -9.060983e+01   3.328739e+01
  -2.463226e+01  -2.628882e+01
   1.728611e+01  -2.170639e+01
  -1.054881e+01   3.857507e+00
  -6.678135e+01  -1.007120e+01
  -8.340847e+01  -7.673711e+01
  -1.754828e+01  -1.512679e+02
   1.205835e+02  -1.528800e+02
   2.344112e+02  -3.423741e+01
   2.095296e+02   1.475408e+02
   4.348342e+01   2.451192e+02
  -1.148668e+02   1.786710e+02
  -1.437182e+02   2.682463e+01
  -7.301213e+01  -6.106607e+01
  -2.886429e+01  -3.930647e+01
  -5.128918e+01   9.230292e+00
  -7.666438e+01   6.168520e+00
  -3.730349e+01  -4.807371e+01
   4.251667e+01  -8.355972e+01
   9.721025e+01  -5.330521e+01
   8.132925e+01   3.111914e+01
  -9.255254e+00   1.054838e+02
  -1.328254e+02   8.767279e+01
  -1.974260e+02  -3.953607e+01
  -1.106552e+02  -1.980618e+02
   9.758811e+01  -2.360148e+02
   2.671132e+02  -1.063681e+02
   2.639721e+02   8.696481e+01
   1.158005e+02   1.824408e+02
  -3.626344e+01   1.512299e+02
  -9.607781e+01   8.569597e+01
  -8.029979e+01   6.963560e+01
  -6.775676e+01   8.960055e+01
  -9.130478e+01   7.574269e+01
  -1.284090e+02  -1.892948e+01
  -1.196619e+02  -1.535082e+02
  -3.318432e+01  -2.290321e+02
   9.872018e+01  -1.793431e+02
   1.807537e+02  -2.565546e+01
   1.437228e+02   1.235593e+02
   2.253940e+01   1.636413e+02
  -6.444520e+01   9.570288e+01
  -5.851843e+01   6.016011e+00
  -8.661617e+00  -3.665203e+01
   5.377357e+00  -3.087343e+01
  -4.093144e+01  -1.938033e+01
  -8.150245e+01  -2.459225e+01
  -4.305098e+01  -3.898371e+01
   6.102581e+01  -3.737255e+01
   1.528315e+02  -7.466778e+00
   1.418917e+02   4.431680e+01
   2.050121e+01   8.748177e+01
  -1.162411e+02   7.897416e+01
  -1.429185e+02   1.753221e+01
  -5.154489e+01  -4.117167e+01
   5.799464e+01  -3.684997e+01
   7.436246e+01   1.731556e+01
   5.941562e+00   6.885896e+01
  -5.612386e+01   5.635715e+01
  -6.274038e+01  -1.813303e+00
  -4.223325e+01  -4.979991e+01
  -4.270908e+01  -4.145906e+01
  -5.818994e+01  -1.390324e+00
  -6.498767e+01   1.928231e+00
  -3.456624e+01  -6.472589e+01
   2.963012e+01  -1.455429e+02
   1.139821e+02  -1.381105e+02
   1.602365e+02  -3.153737e+01
   1.224330e+02   9.141980e+01
   1.034532e+01   1.259218e+02
  -8.345853e+01   6.128548e+01
  -5.973793e+01  -1.631310e+01
   5.599397e+01  -1.744318e+01
   1.368587e+02   4.792334e+01
   7.405841e+01   1.056532e+02
  -7.481069e+01   1.137611e+02
  -1.905501e+02   5.492501e+01
  -1.645046e+02  -3.083593e+01
  -3.682822e+01  -8.543284e+01
   6.308134e+01  -6.894461e+01
   4.965220e+01  -6.994388e+00
  -4.006937e+01   2.900845e+01
  -9.142176e+01  -2.283346e+01
  -3.397512e+01  -1.186059e+02
   9.326360e+01  -1.563995e+02
   1.678463e+02  -6.407609e+01
   1.278287e+02   1.037784e+02
   1.278440e+01   2.001439e+02
  -8.634974e+01   1.498963e+02
  -1.083048e+02  -5.596275e+00
  -6.782760e+01  -1.203290e+02
  -2.711142e+00  -1.105410e+02
   4.624432e+01  -2.229156e+01
   5.801697e+01   3.023353e+01
   2.838997e+01   9.933591e+00
   1.942562e+00  -1.944771e+01
   1.689120e+01   1.413113e+01
   5.580514e+01   8.627859e+01
   4.392137e+01   1.087249e+02
  -4.560218e+01   4.541112e+01
  -1.409211e+02  -3.665975e+01
  -1.376195e+02  -6.898302e+01
  -2.055988e+01  -5.097602e+01
   8.885345e+01  -2.396563e+01
   9.051275e+01  -1.121172e+01
   1.366951e+01   3.808603e+00
  -3.749550e+01   2.271258e+01
  -1.369815e+01   2.094402e+01
   2.130214e+01  -3.699220e-01
  -2.784776e+00  -1.045968e+01
  -7.317738e+01  -2.157688e+00
  -9.040479e+01  -2.249759e+01
  -5.929641e+00  -8.085775e+01
   1.219723e+02  -1.121038e+02
   1.875389e+02  -5.224708e+01
   1.376261e+02   7.506483e+01
   2.067814e+01   1.654880e+02
  -8.185169e+01   1.442473e+02
  -1.142811e+02   5.079264e+01
  -7.918880e+01  -2.546293e+01
  -2.485982e+01  -3.482080e+01
   3.182817e+00  -7.635413e+00
  -1.048903e+01  -3.717791e+00
  -3.264650e+01  -4.749536e+01
  -2.267027e+01  -9.125414e+01
   3.076207e+01  -7.181093e+01
   8.203420e+01   2.064728e+01
   7.647739e+01   1.114553e+02
   3.412882e+00   1.126181e+02
  -8.327402e+01   2.139561e+01
  -1.025847e+02  -7.747164e+01
  -3.023378e+01  -1.026910e+02
   6.735081e+01  -5.270496e+01
   9.564669e+01   1.433611e+01
   3.615223e+01   5.082397e+01
  -3.424415e+01   5.040144e+01
  -3.347499e+01   2.632395e+01
   3.458117e+01  -9.919909e-01
   6.853044e+01  -5.697897e+00
   1.481258e+01   2.567467e+01
  -8.029130e+01   6.509943e+01
  -1.162013e+02   5.910519e+01
  -6.408621e+01  -1.061384e+01
   1.461749e+01  -8.447598e+01
   5.148218e+01  -7.963350e+01
   3.486781e+01  -6.919690e+00
  -4.881301e-01   5.629818e+01
  -2.615575e+01   4.145299e+01
  -3.535877e+01  -2.140192e+01
  -2.361093e+01  -5.626504e+01
   5.249241e+00  -3.218932e+01
   3.422753e+01   9.453831e+00
   4.096006e+01   2.059794e+01
   2.212120e+01   9.373152e-01
   7.162308e-02  -1.242851e+01
  -5.891718e+00   6.083613e+00
  -8.768860e+00   3.816249e+01
  -1.952830e+01   4.364205e+01
  -3.217567e+01   7.790302e-01
  -2.629440e+01  -4.753811e+01
   6.824067e+00  -5.988053e+01
   4.550314e+01  -1.821685e+01
   5.403953e+01   4.121405e+01
   1.243726e+01   6.361903e+01
  -5.339673e+01   3.368039e+01
  -8.669207e+01  -1.568603e+01
  -4.795607e+01  -4.394455e+01
   2.867487e+01  -3.870465e+01
   6.491983e+01  -1.664748e+01
   2.340381e+01  -2.032518e+00
  -3.968439e+01  -9.369246e-01
  -4.084407e+01  -1.714880e+01
   2.981848e+01  -3.397085e+01
   9.251566e+01  -2.180784e+01
