
 $NMID
 id='ANONYMOUS ', fmtdat='(2E16.6)'
 volume=1.0
 tramp=1.0
 $END
  -5.006320e+03   6.378399e+01
  -2.835262e+03  -3.058139e+03
   9.847334e+02  -3.065286e+03
   2.425238e+03  -8.325769e+02
   9.464123e+02   9.403735e+02
  -9.532268e+02   6.683468e+02
  -1.102408e+03  -6.193312e+02
   7.832499e+01  -1.301531e+03
   1.012820e+03  -8.493065e+02
   1.071135e+03   1.975020e+02
   4.738123e+02   1.037119e+03
  -3.444364e+02   1.004001e+03
  -7.803679e+02   7.749377e+01
  -4.256492e+02  -8.654567e+02
   3.589300e+02  -8.234949e+02
   7.220847e+02   9.574266e+01
   2.587474e+02   8.141827e+02
  -4.520852e+02   6.855687e+02
  -6.682666e+02   1.337005e+01
  -3.932489e+02  -4.587214e+02
   3.270306e+01  -4.927183e+02
   3.029531e+02  -2.687058e+02
   2.663616e+02   1.679338e+01
  -1.196546e+02   1.483140e+02
  -4.820391e+02  -7.828575e+01
  -2.637573e+02  -4.820183e+02
   4.969986e+02  -5.068212e+02
   9.636044e+02   4.720174e+01
   4.809966e+02   6.528848e+02
  -4.605263e+02   5.914011e+02
  -8.634986e+02  -1.927684e+01
  -3.827026e+02  -5.724698e+02
   3.275544e+02  -6.011726e+02
   6.368702e+02  -2.136520e+02
   4.467791e+02   2.930315e+02
   4.900683e+01   5.603323e+02
  -2.634967e+02   3.146263e+02
  -2.360190e+02  -2.631412e+02
   1.785929e+02  -5.242553e+02
   5.368261e+02  -1.048820e+00
   2.986663e+02   7.784174e+02
  -3.871851e+02   7.920324e+02
  -7.217939e+02  -3.692388e+01
  -2.905480e+02  -6.698493e+02
   3.743769e+02  -3.668232e+02
   4.697551e+02   3.845939e+02
  -8.157881e+01   6.355619e+02
  -6.333089e+02   1.329334e+02
  -6.383058e+02  -4.721293e+02
  -1.541632e+02  -6.522531e+02
   4.381794e+02  -3.747643e+02
   6.924462e+02   9.515175e+01
   4.027709e+02   4.538268e+02
  -1.903260e+02   4.218475e+02
  -5.186605e+02   5.652295e+01
  -2.600060e+02  -2.491096e+02
   1.709073e+02  -1.328619e+02
   1.855114e+02   2.047228e+02
  -1.943265e+02   2.391730e+02
  -4.190667e+02  -8.055639e+01
  -1.478137e+02  -3.559922e+02
   2.453104e+02  -2.922063e+02
   3.773773e+02  -5.921119e+01
   1.868223e+02   1.106382e+02
  -4.381825e+01   2.393035e+02
  -2.268120e+02   3.266567e+02
  -3.308028e+02   2.236273e+02
  -3.107786e+02  -1.599029e+02
  -8.633163e+01  -4.826726e+02
   1.513867e+02  -3.957155e+02
   1.644787e+02  -7.527808e+01
   2.696457e+01   5.094552e+01
   2.003124e+01  -8.576622e+01
   1.858637e+02  -1.550379e+02
   2.927213e+02   4.564945e+01
   1.785152e+02   2.885454e+02
  -7.792611e+01   2.820902e+02
  -2.557450e+02   1.670068e+01
  -2.212241e+02  -2.634698e+02
   1.267089e+01  -3.273561e+02
   3.020065e+02  -1.356142e+02
   4.047173e+02   1.832095e+02
   1.995585e+02   4.015262e+02
  -1.364980e+02   3.360032e+02
  -2.699320e+02   1.091106e+02
  -1.621637e+02  -2.228730e+01
  -8.501153e+01   3.281304e+01
  -2.336855e+02   8.280030e+01
  -4.153578e+02  -5.247949e+01
  -3.412372e+02  -3.109096e+02
   1.488454e+01  -4.744157e+02
   3.911376e+02  -4.277640e+02
   5.086773e+02  -2.036647e+02
   3.588763e+02   1.113921e+02
   5.989314e+01   3.213357e+02
  -1.492061e+02   2.731904e+02
  -1.065795e+02   2.201397e+01
   1.165735e+02  -1.390566e+02
   2.301340e+02  -1.947831e+00
   6.851930e+01   2.273198e+02
  -1.843363e+02   2.030815e+02
  -2.148044e+02  -6.407153e+01
   1.073557e+01  -2.208313e+02
   2.207446e+02  -4.619966e+01
   1.816139e+02   2.651971e+02
  -4.589561e+01   3.758592e+02
  -2.577184e+02   1.920207e+02
  -3.422769e+02  -8.205019e+01
  -2.752853e+02  -2.566989e+02
  -9.253444e+01  -2.772757e+02
   1.234618e+02  -1.678670e+02
   1.926855e+02  -2.061669e+01
   6.458496e+01   4.467672e+01
  -7.979980e+01  -3.377065e+01
  -3.838375e+01  -1.356785e+02
   1.356080e+02  -1.132948e+02
   1.988975e+02   1.302096e+01
   6.624926e+01   8.667897e+01
  -8.825653e+01   2.808288e+01
  -6.444942e+01  -7.369614e+01
   1.257422e+02  -9.614428e+01
   2.909747e+02  -3.828692e+00
   2.677981e+02   1.463032e+02
   6.257396e+01   2.626988e+02
  -1.885621e+02   2.715856e+02
  -2.961991e+02   1.347149e+02
  -1.806676e+02  -6.349782e+01
   3.047004e+01  -1.290946e+02
   1.040373e+02  -5.137669e+00
  -3.378108e+01   1.194403e+02
  -2.143600e+02   6.708378e+01
  -2.282711e+02  -1.163444e+02
  -6.729855e+01  -2.283449e+02
   1.038804e+02  -1.731975e+02
   1.538469e+02  -3.343196e+01
   7.944376e+01   4.386335e+01
  -2.289256e+01   7.834759e+00
  -3.638608e+01  -7.894022e+01
   7.047997e+01  -1.126373e+02
   2.007207e+02  -2.838148e+01
   1.967463e+02   1.297019e+02
   1.887032e+01   2.336364e+02
  -1.788569e+02   1.736200e+02
  -2.108830e+02  -2.743596e+00
  -7.205427e+01  -1.337612e+02
   7.185495e+01  -1.235880e+02
   9.397389e+01  -3.171364e+01
   2.674502e+01   2.792770e+01
  -1.501373e+01   2.044512e+01
   1.406101e+01  -3.087761e+00
   6.748995e+01   1.507680e+01
   8.267404e+01   8.488674e+01
   1.250941e+01   1.556581e+02
  -1.282109e+02   1.508732e+02
  -2.379993e+02   2.410045e+01
  -2.074374e+02  -1.553134e+02
  -3.746181e+01  -2.511347e+02
   1.241864e+02  -1.780008e+02
   1.464962e+02  -2.160513e+01
   7.057721e+01   6.495618e+01
   2.590024e+01   3.759014e+01
   5.380979e+01  -1.040412e+01
   7.890228e+01  -6.582198e+00
   3.692196e+01   5.204590e+01
  -4.687207e+01   8.673855e+01
  -1.002679e+02   5.141075e+01
  -7.915889e+01  -3.457334e+01
   1.421768e+01  -1.069146e+02
   1.375177e+02  -8.437861e+01
   1.945950e+02   5.013610e+01
   1.019983e+02   2.056434e+02
  -1.092117e+02   2.401507e+02
  -2.743946e+02   1.038784e+02
  -2.686933e+02  -9.271912e+01
  -1.147001e+02  -1.929621e+02
   4.220682e+01  -1.583993e+02
   1.031417e+02  -8.947098e+01
   8.879396e+01  -6.926360e+01
   7.613672e+01  -8.917295e+01
   9.996093e+01  -6.818440e+01
   1.323603e+02   2.892751e+01
   1.174820e+02   1.606507e+02
   2.620557e+01   2.290469e+02
  -1.055648e+02   1.769497e+02
  -1.852812e+02   2.122793e+01
  -1.441810e+02  -1.290374e+02
  -1.875422e+01  -1.664628e+02
   7.126798e+01  -9.502652e+01
   6.128210e+01  -7.588358e-01
   7.471095e+00   4.040309e+01
  -5.612526e+00   3.314208e+01
   4.025020e+01   2.179870e+01
   7.870498e+01   2.865371e+01
   4.078957e+01   4.104229e+01
  -6.588351e+01   3.532673e+01
  -1.573026e+02   3.877578e+00
  -1.457685e+02  -4.906765e+01
  -1.868037e+01  -8.927873e+01
   1.210537e+02  -7.903731e+01
   1.439758e+02  -1.416932e+01
   4.541451e+01   4.268379e+01
  -6.506141e+01   3.671518e+01
  -7.528458e+01  -2.179050e+01
  -5.803812e-01  -7.476656e+01
   6.242751e+01  -5.899389e+01
   6.383438e+01   6.583906e+00
   3.997802e+01   5.714960e+01
   4.246480e+01   4.090594e+01
   6.444946e+01  -3.223957e+00
   7.113077e+01  -2.914065e+00
   3.432837e+01   7.245483e+01
  -3.714863e+01   1.556535e+02
  -1.207076e+02   1.420147e+02
  -1.644906e+02   2.547679e+01
  -1.221999e+02  -9.994025e+01
  -4.675575e+00  -1.293087e+02
   8.941776e+01  -5.727317e+01
   6.239731e+01   2.447359e+01
  -6.258074e+01   2.443141e+01
  -1.428089e+02  -4.633220e+01
  -7.462468e+01  -1.194060e+02
   8.440459e+01  -1.184319e+02
   1.977503e+02  -5.101876e+01
   1.629678e+02   3.745075e+01
   3.147389e+01   8.906991e+01
  -6.687018e+01   6.733623e+01
  -4.683746e+01   4.905396e+00
   4.461771e+01  -2.726603e+01
   9.440934e+01   2.921785e+01
   2.928710e+01   1.246757e+02
  -1.034709e+02   1.588406e+02
  -1.760946e+02   5.714406e+01
  -1.282403e+02  -1.121693e+02
  -5.856857e+00  -2.047678e+02
   9.255243e+01  -1.478958e+02
   1.087299e+02   1.029656e+01
   6.244092e+01   1.230454e+02
  -2.996984e+00   1.110023e+02
  -4.790502e+01   2.057865e+01
  -5.508875e+01  -2.930462e+01
  -2.689263e+01  -9.039838e+00
  -1.924663e+00   1.831611e+01
  -1.634486e+01  -1.747565e+01
  -5.378722e+01  -8.977005e+01
  -4.175352e+01  -1.090949e+02
   5.165553e+01  -4.396205e+01
   1.450464e+02   4.470879e+01
   1.323113e+02   7.777765e+01
   1.285915e+01   5.369409e+01
  -9.557652e+01   2.035936e+01
  -9.006049e+01   3.552988e+00
  -8.272640e+00  -6.998307e+00
   4.056800e+01  -2.167192e+01
   1.217121e+01  -1.751699e+01
  -2.372275e+01   1.215089e+00
   5.163364e+00   9.445983e+00
   7.654844e+01   4.941552e+00
   9.334380e+01   2.899571e+01
   1.840478e+00   8.537249e+01
  -1.313637e+02   1.151394e+02
  -1.946934e+02   4.878285e+01
  -1.415244e+02  -8.083460e+01
  -1.692688e+01  -1.722276e+02
   8.815401e+01  -1.484683e+02
   1.170139e+02  -5.299121e+01
   8.074219e+01   2.754791e+01
   2.361842e+01   3.768525e+01
  -4.105978e+00   9.679810e+00
   9.702271e+00   3.781751e+00
   3.305415e+01   4.803669e+01
   2.222904e+01   9.087596e+01
  -3.225140e+01   7.123940e+01
  -8.440842e+01  -2.303070e+01
  -7.703300e+01  -1.149895e+02
   1.916482e+00  -1.165271e+02
   9.063020e+01  -1.934636e+01
   1.052436e+02   8.503443e+01
   2.673359e+01   1.086786e+02
  -7.253514e+01   5.247256e+01
  -9.794160e+01  -1.794852e+01
  -3.448306e+01  -5.315920e+01
   3.641601e+01  -5.008632e+01
   3.241524e+01  -2.642011e+01
  -3.756486e+01  -1.234585e-01
  -7.144075e+01   3.950125e+00
  -1.266792e+01  -2.685389e+01
   8.618364e+01  -6.552177e+01
   1.198045e+02  -5.863409e+01
   6.395483e+01   1.336637e+01
  -1.864770e+01   8.430730e+01
  -5.595133e+01   7.846158e+01
  -3.482228e+01   2.076621e+00
   4.336712e+00  -5.764303e+01
   3.053213e+01  -3.939032e+01
   3.587935e+01   2.407170e+01
   2.134570e+01   5.778706e+01
  -7.533813e+00   3.125000e+01
  -3.367260e+01  -1.261302e+01
  -3.663641e+01  -2.265392e+01
  -2.009416e+01   8.175788e-01
  -3.007994e+00   1.558959e+01
   2.497103e+00  -4.639400e+00
   9.182984e+00  -4.189141e+01
   2.397462e+01  -4.555622e+01
   3.783936e+01   7.715312e-01
   2.659811e+01   5.348699e+01
  -1.059223e+01   6.466200e+01
  -4.889862e+01   1.465178e+01
  -5.502974e+01  -4.885541e+01
  -1.007983e+01  -6.914596e+01
   5.871524e+01  -3.308880e+01
   9.042336e+01   2.038969e+01
   4.849656e+01   4.795207e+01
  -3.065259e+01   3.981150e+01
  -6.799183e+01   1.728740e+01
  -2.330248e+01   1.509136e+00
   4.177404e+01   2.871706e+00
   4.025121e+01   1.979843e+01
  -3.420069e+01   3.521511e+01
  -9.854455e+01   1.976807e+01
