
 $NMID
 id='ANONYMOUS ', fmtdat='(2E16.6)'
 volume=1.0
 tramp=1.0
 $END
   5.134614e+03  -1.223137e+02
   2.905085e+03   2.975325e+03
  -7.260227e+02   3.120362e+03
  -2.336339e+03   1.048439e+03
  -1.070161e+03  -7.304996e+02
   7.721880e+02  -6.871350e+02
   1.057469e+03   4.822003e+02
   5.104542e+01   1.225709e+03
  -9.086420e+02   9.007766e+02
  -1.070997e+03  -1.007036e+02
  -5.165530e+02  -9.563022e+02
   2.638639e+02  -1.000016e+03
   7.360736e+02  -1.220459e+02
   4.457325e+02   7.881407e+02
  -3.026771e+02   8.410419e+02
  -6.911670e+02  -1.511456e+01
  -3.390540e+02  -7.753853e+02
   3.476585e+02  -7.379685e+02
   6.589313e+02  -1.383894e+02
   4.553152e+02   3.808873e+02
   4.499013e+01   5.044189e+02
  -2.564367e+02   3.013265e+02
  -2.395405e+02   4.101474e+00
   1.216524e+02  -1.334984e+02
   4.739458e+02   1.003247e+02
   2.600147e+02   4.893497e+02
  -4.905303e+02   4.980066e+02
  -9.602987e+02  -5.084656e+01
  -4.993821e+02  -6.141923e+02
   4.216509e+02  -5.742258e+02
   8.473049e+02   1.113059e+01
   4.190437e+02   5.418717e+02
  -3.059584e+02   6.039429e+02
  -6.579803e+02   2.358428e+02
  -5.005082e+02  -2.607315e+02
  -1.013607e+02  -5.487193e+02
   2.205751e+02  -3.321514e+02
   2.161068e+02   2.441006e+02
  -1.659849e+02   4.994537e+02
  -4.970025e+02  -1.851304e+01
  -2.779437e+02  -7.718381e+02
   3.702770e+02  -7.830935e+02
   6.827020e+02   1.048043e+01
   2.815180e+02   6.330189e+02
  -3.571300e+02   3.600366e+02
  -4.633603e+02  -3.568554e+02
   5.986735e+01  -6.353075e+02
   6.227201e+02  -1.798882e+02
   6.858725e+02   4.265902e+02
   2.039875e+02   6.558995e+02
  -4.161838e+02   4.117530e+02
  -7.171129e+02  -6.112192e+01
  -4.422574e+02  -4.222669e+02
   1.550707e+02  -4.282542e+02
   4.762249e+02  -7.810256e+01
   2.654740e+02   2.207338e+02
  -1.433037e+02   1.394100e+02
  -1.706371e+02  -1.747185e+02
   1.752239e+02  -2.335391e+02
   3.923350e+02   5.862482e+01
   1.617239e+02   3.375556e+02
  -2.267779e+02   3.089152e+02
  -3.808155e+02   1.057483e+02
  -2.308828e+02  -9.440292e+01
   9.700604e+00  -2.704170e+02
   2.329460e+02  -3.832252e+02
   3.755590e+02  -2.623764e+02
   3.454778e+02   1.424170e+02
   1.209302e+02   4.935009e+02
  -1.124006e+02   4.383474e+02
  -1.318487e+02   1.307802e+02
  -3.328448e+01  -6.513718e+00
  -5.140764e+01   1.133281e+02
  -2.198799e+02   1.497523e+02
  -3.182039e+02  -5.844887e+01
  -1.874204e+02  -3.005107e+02
   7.483726e+01  -2.876344e+02
   2.603440e+02  -2.508801e+01
   2.337116e+02   2.645130e+02
   2.272665e+00   3.380918e+02
  -3.016270e+02   1.516272e+02
  -4.267912e+02  -1.706716e+02
  -2.375007e+02  -3.976414e+02
   1.015445e+02  -3.632267e+02
   2.565141e+02  -1.535784e+02
   1.755558e+02  -1.022192e+01
   1.139685e+02  -4.708756e+01
   2.683017e+02  -9.097766e+01
   4.544325e+02   4.657392e+01
   3.848574e+02   3.135081e+02
   1.819936e+01   5.042270e+02
  -3.807092e+02   4.811690e+02
  -5.365219e+02   2.479536e+02
  -3.920093e+02  -9.703258e+01
  -8.531451e+01  -3.364163e+02
   1.390800e+02  -2.981179e+02
   1.104499e+02  -3.115475e+01
  -1.072956e+02   1.404980e+02
  -2.246583e+02   1.538269e+01
  -7.673771e+01  -2.132733e+02
   1.667339e+02  -2.066514e+02
   2.044577e+02   5.960873e+01
  -1.348488e+01   2.184885e+02
  -2.264666e+02   4.854485e+01
  -2.052593e+02  -2.719960e+02
   1.694525e+01  -3.985380e+02
   2.548924e+02  -2.327967e+02
   3.737798e+02   4.877764e+01
   3.223835e+02   2.591046e+02
   1.181560e+02   2.972613e+02
  -1.178229e+02   1.888327e+02
  -1.988790e+02   2.975621e+01
  -6.614785e+01  -3.849031e+01
   8.311228e+01   4.036278e+01
   3.842142e+01   1.443360e+02
  -1.362334e+02   1.179029e+02
  -1.998692e+02  -1.223486e+01
  -6.607582e+01  -8.517155e+01
   9.502489e+01  -2.606855e+01
   7.174252e+01   7.970716e+01
  -1.256168e+02   1.153395e+02
  -3.087560e+02   2.949339e+01
  -3.019003e+02  -1.376705e+02
  -8.643930e+01  -2.823323e+02
   1.852449e+02  -3.026765e+02
   3.032352e+02  -1.537744e+02
   1.895516e+02   5.220682e+01
  -2.450354e+01   1.274052e+02
  -1.045989e+02   8.036614e+00
   2.942305e+01  -1.241436e+02
   2.206592e+02  -8.152561e+01
   2.445612e+02   1.107314e+02
   8.352647e+01   2.335199e+02
  -1.036485e+02   1.813755e+02
  -1.596643e+02   3.597314e+01
  -8.186101e+01  -4.751430e+01
   3.401477e+01  -6.665296e+00
   4.882663e+01   9.298133e+01
  -7.159460e+01   1.335243e+02
  -2.198131e+02   4.272987e+01
  -2.232046e+02  -1.314827e+02
  -3.609582e+01  -2.498596e+02
   1.774807e+02  -1.962628e+02
   2.220874e+02  -1.248185e+01
   8.175525e+01   1.328507e+02
  -6.979572e+01   1.317520e+02
  -9.452539e+01   3.580889e+01
  -2.205460e+01  -2.949462e+01
   2.416929e+01  -1.853725e+01
  -1.237783e+01   1.249115e+01
  -7.996576e+01  -5.780317e+00
  -1.031739e+02  -8.587831e+01
  -2.579300e+01  -1.746529e+02
   1.322431e+02  -1.769041e+02
   2.601391e+02  -4.120325e+01
   2.318982e+02   1.582762e+02
   5.683482e+01   2.662842e+02
  -1.174299e+02   1.989218e+02
  -1.543682e+02   3.479701e+01
  -8.136925e+01  -6.433288e+01
  -3.011473e+01  -4.025487e+01
  -5.397550e+01   1.700050e+01
  -8.997750e+01   1.397384e+01
  -5.083545e+01  -5.334960e+01
   4.136978e+01  -1.010653e+02
   1.104322e+02  -6.581979e+01
   9.757219e+01   3.603547e+01
  -7.921717e+00   1.252365e+02
  -1.537985e+02   1.047837e+02
  -2.234103e+02  -4.654761e+01
  -1.213222e+02  -2.230014e+02
   1.067157e+02  -2.639791e+02
   2.914221e+02  -1.229635e+02
   2.915532e+02   8.474855e+01
   1.303006e+02   1.945162e+02
  -3.752681e+01   1.672423e+02
  -9.922625e+01   9.706514e+01
  -8.207946e+01   7.662739e+01
  -6.742887e+01   1.034655e+02
  -9.996905e+01   8.781251e+01
  -1.463796e+02  -1.818662e+01
  -1.394535e+02  -1.679379e+02
  -3.948028e+01  -2.523423e+02
   1.071458e+02  -1.966689e+02
   1.996882e+02  -2.787821e+01
   1.589543e+02   1.338752e+02
   2.596821e+01   1.788033e+02
  -7.468278e+01   1.053629e+02
  -6.927916e+01   4.064453e+00
  -1.044152e+01  -4.620721e+01
   6.735534e+00  -3.632293e+01
  -4.122780e+01  -2.112459e+01
  -8.785138e+01  -2.439153e+01
  -4.979486e+01  -4.282874e+01
   6.525522e+01  -4.679241e+01
   1.696586e+02  -1.879575e+01
   1.599229e+02   4.566820e+01
   2.305283e+01   9.939428e+01
  -1.303725e+02   9.284022e+01
  -1.605177e+02   2.187654e+01
  -5.577355e+01  -4.702378e+01
   6.475331e+01  -4.638370e+01
   8.496737e+01   1.779611e+01
   1.135357e+01   7.773726e+01
  -5.896188e+01   6.692586e+01
  -7.035913e+01  -3.227563e-01
  -4.986386e+01  -5.754035e+01
  -4.818811e+01  -4.446718e+01
  -6.452134e+01   4.709843e+00
  -7.409420e+01   6.360961e+00
  -4.402480e+01  -7.109880e+01
   2.626331e+01  -1.656751e+02
   1.205171e+02  -1.628941e+02
   1.801546e+02  -4.443783e+01
   1.418778e+02   9.502792e+01
   1.607949e+01   1.394257e+02
  -9.059179e+01   7.189457e+01
  -6.776061e+01  -1.639594e+01
   6.505537e+01  -2.775336e+01
   1.558400e+02   4.248683e+01
   8.734537e+01   1.159242e+02
  -8.011776e+01   1.328559e+02
  -2.050902e+02   6.807532e+01
  -1.816570e+02  -2.679011e+01
  -4.401752e+01  -9.417185e+01
   6.444357e+01  -7.823023e+01
   5.348283e+01  -8.622454e+00
  -4.331275e+01   3.311531e+01
  -1.022262e+02  -2.032001e+01
  -4.122439e+01  -1.317676e+02
   9.392911e+01  -1.772568e+02
   1.841112e+02  -7.869346e+01
   1.476877e+02   1.054269e+02
   2.012013e+01   2.208033e+02
  -8.610868e+01   1.664316e+02
  -1.175132e+02  -4.107771e+00
  -7.381271e+01  -1.295560e+02
  -2.999468e-01  -1.202447e+02
   5.153755e+01  -2.395628e+01
   6.072816e+01   3.254281e+01
   2.693107e+01   1.002998e+01
   2.647805e+00  -2.237417e+01
   2.452763e+01   1.742418e+01
   6.791720e+01   9.822566e+01
   4.969702e+01   1.225679e+02
  -5.444965e+01   5.363257e+01
  -1.598795e+02  -3.718601e+01
  -1.501813e+02  -7.528956e+01
  -2.007015e+01  -5.838894e+01
   9.729745e+01  -2.919314e+01
   9.547967e+01  -1.252651e+01
   1.170845e+01   6.892969e+00
  -4.189356e+01   2.587479e+01
  -1.463838e+01   1.822445e+01
   2.343500e+01  -3.517758e+00
  -4.280335e+00  -9.634660e+00
  -8.157170e+01   1.376529e+00
  -1.028493e+02  -2.284711e+01
  -1.118065e+01  -9.086079e+01
   1.270988e+02  -1.333594e+02
   2.055073e+02  -7.073051e+01
   1.571753e+02   7.256569e+01
   3.388763e+01   1.803783e+02
  -8.207086e+01   1.667237e+02
  -1.244261e+02   6.393692e+01
  -9.033229e+01  -2.511053e+01
  -2.849306e+01  -3.991936e+01
   5.143727e+00  -8.329380e+00
  -9.986462e+00  -2.881379e+00
  -3.938689e+01  -4.641165e+01
  -3.034655e+01  -9.848817e+01
   2.853220e+01  -8.034192e+01
   9.251267e+01   1.619792e+01
   9.144579e+01   1.167747e+02
   8.985514e+00   1.251991e+02
  -9.165251e+01   3.106944e+01
  -1.173858e+02  -7.917539e+01
  -3.895927e+01  -1.146893e+02
   7.117616e+01  -6.537273e+01
   1.082344e+02   9.342430e+00
   4.541893e+01   5.582356e+01
  -3.427282e+01   5.933678e+01
  -3.378421e+01   3.056677e+01
   3.865800e+01  -2.779803e+00
   7.804064e+01  -1.064405e+01
   1.896517e+01   2.876230e+01
  -8.436999e+01   7.973577e+01
  -1.258664e+02   7.081287e+01
  -7.333412e+01  -9.898645e+00
   1.343050e+01  -9.337882e+01
   5.585438e+01  -9.116615e+01
   4.144596e+01  -7.116265e+00
   4.304671e+00   6.308061e+01
  -2.878322e+01   4.867409e+01
  -4.188477e+01  -2.106444e+01
  -2.940279e+01  -6.081952e+01
   4.082284e+00  -3.738294e+01
   3.826426e+01   8.586901e+00
   4.445142e+01   2.030890e+01
   2.283421e+01  -7.208847e-01
  -3.036263e-01  -1.577248e+01
  -6.983320e+00   4.821350e+00
  -6.193795e+00   4.125000e+01
  -1.690400e+01   4.977347e+01
  -3.515523e+01   7.403735e+00
  -3.443607e+01  -4.928129e+01
   1.632193e+00  -6.807011e+01
   4.894884e+01  -2.424531e+01
   6.397865e+01   4.203299e+01
   1.791985e+01   6.968947e+01
  -6.015771e+01   4.018999e+01
  -9.873088e+01  -1.378646e+01
  -5.544724e+01  -4.723294e+01
   2.922975e+01  -4.622428e+01
   6.877817e+01  -2.606769e+01
   2.687227e+01  -4.509568e+00
  -4.127970e+01   3.698594e-01
  -4.275187e+01  -1.567251e+01
   3.206430e+01  -3.700590e+01
   9.918955e+01  -2.813559e+01
