
 $NMID
 id='ANONYMOUS ', fmtdat='(2E16.6)'
 volume=1.0
 tramp=1.0
 $END
  -4.182788e+03  -4.585934e+02
  -2.037656e+03  -2.762775e+03
   1.104745e+03  -2.439577e+03
   2.064310e+03  -4.383756e+02
   6.738678e+02   8.541590e+02
  -8.163041e+02   4.787776e+02
  -8.424079e+02  -6.246865e+02
   1.688352e+02  -1.081063e+03
   9.006935e+02  -6.641725e+02
   8.743072e+02   2.186386e+02
   3.157920e+02   8.948500e+02
  -3.389444e+02   7.955685e+02
  -6.318198e+02   5.168514e+00
  -2.945952e+02  -7.768793e+02
   3.405572e+02  -6.862925e+02
   6.045816e+02   8.875554e+01
   1.772439e+02   6.882914e+02
  -3.691786e+02   5.432016e+02
  -5.461697e+02  -9.162398e+00
  -3.083436e+02  -3.851385e+02
   4.296665e+01  -3.918302e+02
   2.732215e+02  -1.977669e+02
   2.220542e+02   2.908410e+01
  -1.347256e+02   1.235455e+02
  -4.322930e+02  -1.042490e+02
  -1.996046e+02  -4.666249e+02
   5.014276e+02  -4.465281e+02
   8.494224e+02   1.086424e+02
   3.750025e+02   6.054554e+02
  -4.592121e+02   5.086463e+02
  -7.487822e+02  -6.213687e+01
  -2.990996e+02  -5.163735e+02
   3.208087e+02  -5.173730e+02
   5.581713e+02  -1.670729e+02
   3.568932e+02   2.720387e+02
  -5.846096e-01   4.818631e+02
  -2.613029e+02   2.330181e+02
  -1.820600e+02  -2.883014e+02
   2.122539e+02  -4.706504e+02
   4.968296e+02   4.021139e+01
   2.421977e+02   7.123426e+02
  -3.454098e+02   6.928825e+02
  -6.071639e+02  -5.454321e+01
  -2.228968e+02  -5.947293e+02
   3.183306e+02  -3.006086e+02
   3.604222e+02   3.684514e+02
  -1.097727e+02   5.441010e+02
  -5.737835e+02   9.163174e+01
  -5.461851e+02  -4.122175e+02
  -1.110611e+02  -5.641451e+02
   3.998038e+02  -3.004991e+02
   5.872149e+02   1.009076e+02
   3.104461e+02   3.898084e+02
  -1.949831e+02   3.587848e+02
  -4.339448e+02   2.349737e+01
  -1.946666e+02  -2.088029e+02
   1.484760e+02  -8.084224e+01
   1.193621e+02   1.730060e+02
  -1.962886e+02   1.732320e+02
  -3.287284e+02  -1.091640e+02
  -1.047548e+02  -3.049775e+02
   2.119762e+02  -2.250177e+02
   2.962371e+02  -3.541052e+01
   1.562865e+02   8.460323e+01
  -1.684626e+01   1.989720e+02
  -1.857514e+02   2.992851e+02
  -3.096181e+02   1.935225e+02
  -2.801516e+02  -1.451733e+02
  -6.923319e+01  -4.170208e+02
   1.430452e+02  -3.411802e+02
   1.269217e+02  -6.359141e+01
  -1.570413e+00   4.034813e+01
   1.044106e+01  -8.484816e+01
   1.732491e+02  -1.428938e+02
   2.617419e+02   3.804564e+01
   1.482335e+02   2.603687e+02
  -7.556600e+01   2.497607e+02
  -2.240046e+02   8.476373e+00
  -1.835801e+02  -2.364473e+02
   1.635057e+01  -2.884622e+02
   2.597870e+02  -1.097077e+02
   3.403930e+02   1.708513e+02
   1.576574e+02   3.473793e+02
  -1.225014e+02   2.789563e+02
  -2.253190e+02   7.809134e+01
  -1.215867e+02  -2.731415e+01
  -5.941682e+01   2.476967e+01
  -1.879449e+02   7.674346e+01
  -3.560712e+02  -2.541751e+01
  -2.996596e+02  -2.512039e+02
  -1.505965e-01  -4.016712e+02
   3.280891e+02  -3.713235e+02
   4.577288e+02  -1.744312e+02
   3.265110e+02   1.042594e+02
   4.598301e+01   2.870374e+02
  -1.492097e+02   2.302629e+02
  -9.311053e+01   9.994347e+00
   1.132204e+02  -1.150143e+02
   2.038674e+02   2.011691e+01
   4.204959e+01   2.085675e+02
  -1.814884e+02   1.593086e+02
  -1.787663e+02  -8.110275e+01
   3.083731e+01  -1.981100e+02
   1.976612e+02  -2.755171e+01
   1.433018e+02   2.358973e+02
  -4.384680e+01   3.171183e+02
  -2.073539e+02   1.676697e+02
  -2.780377e+02  -5.958361e+01
  -2.329993e+02  -2.177847e+02
  -7.638693e+01  -2.504156e+02
   1.113102e+02  -1.450083e+02
   1.723390e+02  -3.049943e+00
   5.396817e+01   4.978594e+01
  -7.610140e+01  -3.166962e+01
  -3.123728e+01  -1.242522e+02
   1.232907e+02  -9.764340e+01
   1.759660e+02   1.729389e+01
   5.927850e+01   8.015163e+01
  -7.240527e+01   2.626921e+01
  -5.774036e+01  -6.073922e+01
   1.008498e+02  -7.695470e+01
   2.483751e+02  -3.528104e+00
   2.394161e+02   1.246753e+02
   5.732655e+01   2.394078e+02
  -1.735801e+02   2.443099e+02
  -2.680209e+02   1.125441e+02
  -1.578522e+02  -6.397936e+01
   2.829835e+01  -1.115570e+02
   8.971699e+01  -1.137347e+00
  -3.735866e+01   1.063334e+02
  -1.909585e+02   5.437613e+01
  -1.980037e+02  -1.033393e+02
  -5.540096e+01  -2.031561e+02
   9.433367e+01  -1.504884e+02
   1.382613e+02  -2.570737e+01
   7.045882e+01   5.031449e+01
  -2.362063e+01   1.650522e+01
  -4.036130e+01  -6.780563e+01
   5.626139e+01  -1.061463e+02
   1.760704e+02  -3.332427e+01
   1.753259e+02   1.107268e+02
   1.600774e+01   2.019951e+02
  -1.589150e+02   1.463507e+02
  -1.795429e+02  -4.664690e+00
  -5.468165e+01  -1.146950e+02
   6.938686e+01  -1.033529e+02
   8.596079e+01  -2.471075e+01
   2.383621e+01   2.882399e+01
  -1.546354e+01   2.121521e+01
   4.944106e+00  -1.022784e-01
   5.558915e+01   1.052363e+01
   7.321040e+01   7.203175e+01
   1.380219e+01   1.386871e+02
  -1.121289e+02   1.362353e+02
  -2.103755e+02   2.292489e+01
  -1.823257e+02  -1.367351e+02
  -3.383346e+01  -2.157431e+02
   1.035163e+02  -1.511714e+02
   1.225535e+02  -1.976867e+01
   5.734012e+01   5.211762e+01
   2.266822e+01   3.307787e+01
   4.928759e+01  -6.831638e+00
   6.582799e+01  -2.476672e+00
   3.037963e+01   3.855942e+01
  -3.789025e+01   6.787784e+01
  -8.249337e+01   4.581208e+01
  -6.847341e+01  -2.478223e+01
   9.486008e+00  -8.959818e+01
   1.158034e+02  -7.636245e+01
   1.702766e+02   4.142716e+01
   9.161194e+01   1.787576e+02
  -9.268926e+01   2.036712e+02
  -2.362737e+02   8.241015e+01
  -2.302308e+02  -8.256682e+01
  -9.552631e+01  -1.623647e+02
   3.877719e+01  -1.308336e+02
   8.899780e+01  -7.180656e+01
   7.531575e+01  -5.612374e+01
   6.363995e+01  -7.414334e+01
   8.434676e+01  -5.897107e+01
   1.115074e+02   2.435502e+01
   9.958481e+01   1.341601e+02
   2.224705e+01   1.970293e+02
  -9.196590e+01   1.528665e+02
  -1.602229e+02   1.974619e+01
  -1.258438e+02  -1.099719e+02
  -1.664830e+01  -1.498294e+02
   6.393211e+01  -8.796727e+01
   5.902941e+01  -2.856754e+00
   8.584659e+00   3.754677e+01
  -7.281679e+00   3.246300e+01
   3.342197e+01   1.893082e+01
   6.774602e+01   2.204187e+01
   3.733570e+01   3.737445e+01
  -5.696465e+01   3.311309e+01
  -1.388824e+02   1.499876e+00
  -1.267761e+02  -5.034371e+01
  -1.569922e+01  -8.290650e+01
   1.012447e+02  -6.715211e+01
   1.228607e+02  -1.143926e+01
   4.229703e+01   3.420612e+01
  -5.193146e+01   3.031311e+01
  -6.428284e+01  -2.082805e+01
  -2.406585e+00  -5.850625e+01
   5.135358e+01  -4.704579e+01
   5.393155e+01   3.674346e+00
   3.440963e+01   4.312569e+01
   3.489026e+01   3.492990e+01
   5.823163e+01   5.267023e-02
   6.323571e+01   3.657173e-01
   3.171064e+01   5.990461e+01
  -3.095477e+01   1.292768e+02
  -1.041491e+02   1.268312e+02
  -1.407985e+02   2.858552e+01
  -1.039124e+02  -8.092617e+01
  -4.435778e+00  -1.096782e+02
   7.308236e+01  -5.044734e+01
   4.959226e+01   1.487642e+01
  -5.108398e+01   1.472018e+01
  -1.161383e+02  -4.094917e+01
  -6.415669e+01  -9.845810e+01
   6.860043e+01  -9.523968e+01
   1.652002e+02  -4.090485e+01
   1.400670e+02   3.091132e+01
   3.670613e+01   7.728908e+01
  -5.102180e+01   6.328096e+01
  -4.403390e+01   8.168750e+00
   3.177657e+01  -2.219154e+01
   7.686399e+01   2.264060e+01
   2.278410e+01   1.067062e+02
  -8.685835e+01   1.337881e+02
  -1.519149e+02   4.772341e+01
  -1.072984e+02  -9.759962e+01
   9.218824e-01  -1.811040e+02
   8.496311e+01  -1.244928e+02
   9.348828e+01   1.087464e+01
   4.831283e+01   1.059012e+02
  -4.311850e+00   9.416404e+01
  -3.946256e+01   1.780854e+01
  -4.444381e+01  -3.019385e+01
  -2.206115e+01  -9.397327e+00
  -4.823051e+00   1.880268e+01
  -1.769420e+01  -1.111777e+01
  -4.662473e+01  -8.028655e+01
  -3.484215e+01  -1.017984e+02
   4.375403e+01  -4.206016e+01
   1.212310e+02   4.059028e+01
   1.123737e+02   7.289212e+01
   1.460034e+01   4.584281e+01
  -7.709687e+01   1.495499e+01
  -7.711027e+01   4.384531e+00
  -7.356897e+00  -4.600123e+00
   3.515719e+01  -1.660547e+01
   1.082087e+01  -1.707470e+01
  -2.061667e+01  -8.413055e-01
   6.219822e+00   9.842535e+00
   6.721076e+01   1.040380e+01
   7.918522e+01   2.336421e+01
   1.000382e+00   6.721265e+01
  -1.125309e+02   9.508826e+01
  -1.664295e+02   3.938705e+01
  -1.176528e+02  -6.700550e+01
  -1.057123e+01  -1.467595e+02
   7.654700e+01  -1.283669e+02
   9.999980e+01  -4.605758e+01
   7.044458e+01   2.361740e+01
   2.243688e+01   3.161614e+01
  -3.076018e+00   6.757005e+00
   8.037710e+00   2.854091e+00
   2.762854e+01   4.008235e+01
   2.059432e+01   8.161673e+01
  -2.604312e+01   6.251473e+01
  -7.229243e+01  -1.896552e+01
  -6.593279e+01  -9.956296e+01
   2.033047e+00  -9.861534e+01
   7.631221e+01  -1.387778e+01
   8.788696e+01   7.481250e+01
   2.239211e+01   9.096750e+01
  -6.000233e+01   4.312052e+01
  -8.396108e+01  -1.412153e+01
  -3.326898e+01  -4.163155e+01
   2.710960e+01  -4.017521e+01
   2.631127e+01  -2.459880e+01
  -3.078535e+01  -3.613127e+00
  -5.970842e+01   7.528262e-01
  -1.156906e+01  -2.305427e+01
   7.353331e+01  -5.408530e+01
   1.030198e+02  -5.189745e+01
   5.430552e+01   8.653991e+00
  -1.685436e+01   7.034300e+01
  -4.541644e+01   6.698709e+01
  -2.871385e+01   4.439450e+00
   4.515280e+00  -4.708984e+01
   2.255362e+01  -3.321225e+01
   2.731549e+01   1.913919e+01
   1.894907e+01   4.584529e+01
  -3.694626e+00   2.524416e+01
  -2.674840e+01  -9.929827e+00
  -3.326596e+01  -1.879115e+01
  -1.868748e+01  -2.224182e-01
   1.799195e-01   1.197967e+01
   9.484526e+00  -3.179557e+00
   1.037261e+01  -3.239891e+01
   1.834834e+01  -3.420192e+01
   2.800671e+01  -1.595475e+00
   1.795031e+01   4.245010e+01
  -9.272381e+00   5.051680e+01
  -4.026076e+01   1.178769e+01
  -4.447705e+01  -3.768342e+01
  -7.877489e+00  -5.661462e+01
   4.857353e+01  -2.923001e+01
   7.577792e+01   1.537678e+01
   4.160350e+01   3.963986e+01
  -2.439714e+01   3.442656e+01
  -5.467127e+01   1.538853e+01
  -1.958396e+01   4.380579e+00
   3.314213e+01   6.318691e+00
   3.042853e+01   1.889532e+01
  -3.245136e+01   2.611107e+01
  -8.278390e+01   9.762950e+00
