
 $NMID
 id='ANONYMOUS ', fmtdat='(2E16.6)'
 volume=1.0
 tramp=1.0
 $END
  -4.667324e+03   5.965718e+01
  -2.633909e+03  -2.860962e+03
   9.532261e+02  -2.913700e+03
   2.345364e+03  -8.295890e+02
   1.019411e+03   8.487469e+02
  -7.578670e+02   6.723540e+02
  -1.009552e+03  -4.497184e+02
  -3.947480e+01  -1.144927e+03
   8.886118e+02  -8.441699e+02
   1.029005e+03   1.116995e+02
   4.758855e+02   9.515580e+02
  -3.105493e+02   9.607561e+02
  -7.216709e+02   9.985486e+01
  -3.984267e+02  -8.028497e+02
   3.220180e+02  -8.208682e+02
   6.797725e+02   3.812065e+01
   2.834300e+02   7.266322e+02
  -3.636035e+02   6.614600e+02
  -5.957953e+02   5.911021e+01
  -3.845711e+02  -3.730182e+02
   5.498859e+00  -4.389993e+02
   2.714433e+02  -2.615698e+02
   2.582647e+02  -6.661421e+00
  -9.944008e+01   1.229926e+02
  -4.374715e+02  -7.138408e+01
  -2.568851e+02  -4.461639e+02
   4.498458e+02  -4.591073e+02
   8.895809e+02   5.905419e+01
   4.632129e+02   6.044980e+02
  -4.056062e+02   5.432087e+02
  -7.828053e+02  -8.196994e+00
  -3.757536e+02  -5.079178e+02
   2.816938e+02  -5.575424e+02
   5.955119e+02  -2.341800e+02
   4.346758e+02   2.456409e+02
   6.612825e+01   5.233725e+02
  -2.542145e+02   3.060024e+02
  -2.229861e+02  -2.616458e+02
   1.756118e+02  -5.098225e+02
   5.133517e+02   1.872461e+00
   2.930293e+02   7.398300e+02
  -3.584603e+02   7.577797e+02
  -6.582840e+02  -4.632857e+00
  -2.834136e+02  -6.157255e+02
   3.138604e+02  -3.625867e+02
   4.178262e+02   3.396696e+02
  -5.382317e+01   5.897544e+02
  -5.900658e+02   1.547511e+02
  -6.311611e+02  -4.036827e+02
  -1.890289e+02  -6.017422e+02
   3.828161e+02  -3.779514e+02
   6.614520e+02   5.311033e+01
   3.895056e+02   4.014496e+02
  -1.750385e+02   3.896448e+02
  -4.852458e+02   5.423261e+01
  -2.533022e+02  -2.308798e+02
   1.456476e+02  -1.241685e+02
   1.828011e+02   1.771570e+02
  -1.660938e+02   2.259666e+02
  -3.713423e+02  -6.164929e+01
  -1.548274e+02  -3.157762e+02
   2.032541e+02  -2.703563e+02
   3.311331e+02  -7.461834e+01
   1.935723e+02   8.544364e+01
  -9.736921e+00   2.176308e+02
  -2.053651e+02   3.484570e+02
  -3.399814e+02   2.596370e+02
  -3.174368e+02  -1.331692e+02
  -9.253413e+01  -4.628031e+02
   1.326851e+02  -4.109888e+02
   1.497664e+02  -1.055565e+02
   2.739258e+01   3.846774e+01
   1.393779e+01  -7.417226e+01
   1.607189e+02  -1.532410e+02
   2.811206e+02   2.535111e+01
   1.884681e+02   2.619163e+02
  -4.267069e+01   2.753718e+02
  -2.304994e+02   3.691795e+01
  -2.222109e+02  -2.254482e+02
  -1.023466e+01  -3.031319e+02
   2.720725e+02  -1.371314e+02
   3.842203e+02   1.587997e+02
   2.027052e+02   3.596379e+02
  -1.062727e+02   3.175738e+02
  -2.408946e+02   1.203267e+02
  -1.516418e+02  -8.495884e+00
  -7.969255e+01   2.742820e+01
  -2.091214e+02   7.729286e+01
  -3.942599e+02  -3.326474e+01
  -3.454017e+02  -2.622978e+02
  -2.775133e+01  -4.351569e+02
   3.325367e+02  -4.211042e+02
   4.777104e+02  -2.235343e+02
   3.478017e+02   8.011527e+01
   6.989256e+01   3.068661e+02
  -1.374877e+02   2.739765e+02
  -1.010359e+02   2.626887e+01
   1.086530e+02  -1.234768e+02
   2.149211e+02  -2.290532e+00
   6.052019e+01   2.062282e+02
  -1.685437e+02   1.889449e+02
  -1.917528e+02  -5.487117e+01
   1.297191e+01  -2.003998e+02
   1.994791e+02  -3.997826e+01
   1.709906e+02   2.505266e+02
  -2.707295e+01   3.499677e+02
  -2.166878e+02   1.977580e+02
  -3.185668e+02  -4.972631e+01
  -2.877144e+02  -2.226233e+02
  -1.145836e+02  -2.617298e+02
   1.064325e+02  -1.686134e+02
   1.842892e+02  -2.608170e+01
   6.616995e+01   4.099358e+01
  -7.627054e+01  -2.874250e+01
  -4.311853e+01  -1.258277e+02
   1.182695e+02  -1.112273e+02
   1.843165e+02   3.183755e+00
   6.684133e+01   7.899545e+01
  -7.928550e+01   3.056627e+01
  -6.943886e+01  -6.493069e+01
   1.053470e+02  -9.649961e+01
   2.724935e+02  -2.178527e+01
   2.705933e+02   1.159639e+02
   8.292646e+01   2.451417e+02
  -1.622014e+02   2.702396e+02
  -2.803860e+02   1.454568e+02
  -1.836069e+02  -4.706124e+01
   1.858680e+01  -1.194262e+02
   1.007595e+02  -1.486221e+01
  -1.831735e+01   1.102867e+02
  -1.960830e+02   7.517043e+01
  -2.219136e+02  -9.340496e+01
  -7.995037e+01  -2.088980e+02
   8.829750e+01  -1.650515e+02
   1.444663e+02  -3.301640e+01
   7.837828e+01   4.268580e+01
  -2.308395e+01   1.132034e+01
  -4.512160e+01  -7.269956e+01
   5.473050e+01  -1.138061e+02
   1.859245e+02  -4.461490e+01
   1.956247e+02   1.109546e+02
   3.319690e+01   2.175051e+02
  -1.609270e+02   1.716877e+02
  -1.985492e+02   9.145453e+00
  -7.147218e+01  -1.175188e+02
   6.492467e+01  -1.167100e+02
   8.711766e+01  -3.310528e+01
   2.458995e+01   2.565804e+01
  -1.587919e+01   2.177440e+01
   1.011920e+01  -2.642328e+00
   6.275767e+01   9.954841e+00
   8.341325e+01   7.257804e+01
   2.217052e+01   1.465341e+02
  -1.121844e+02   1.500834e+02
  -2.257801e+02   3.960278e+01
  -2.058064e+02  -1.345383e+02
  -5.217009e+01  -2.317887e+02
   1.012902e+02  -1.764377e+02
   1.329246e+02  -3.136392e+01
   7.167246e+01   5.370768e+01
   2.867562e+01   3.664626e+01
   5.229326e+01  -9.549395e+00
   7.510194e+01  -9.158659e+00
   3.691419e+01   4.233369e+01
  -3.750713e+01   7.883049e+01
  -9.074064e+01   5.397300e+01
  -7.798746e+01  -2.687894e+01
   4.486703e+00  -1.019382e+02
   1.257844e+02  -9.085062e+01
   1.941001e+02   3.402803e+01
   1.153220e+02   1.900450e+02
  -8.776204e+01   2.329260e+02
  -2.546454e+02   1.083187e+02
  -2.592457e+02  -7.286439e+01
  -1.222962e+02  -1.700532e+02
   2.731420e+01  -1.467188e+02
   8.987270e+01  -8.894217e+01
   7.918979e+01  -7.288061e+01
   6.653551e+01  -9.064155e+01
   8.975630e+01  -7.294981e+01
   1.231309e+02   1.752309e+01
   1.176162e+02   1.482852e+02
   3.844615e+01   2.180100e+02
  -8.949811e+01   1.739569e+02
  -1.738630e+02   2.989866e+01
  -1.427101e+02  -1.137091e+02
  -2.783398e+01  -1.611542e+02
   6.392712e+01  -9.918498e+01
   6.025637e+01  -7.452057e+00
   1.037674e+01   3.907361e+01
  -8.292995e+00   3.474768e+01
   3.616274e+01   1.848835e+01
   7.680336e+01   1.894449e+01
   4.525840e+01   3.339364e+01
  -5.630531e+01   3.906221e+01
  -1.505592e+02   1.192849e+01
  -1.418558e+02  -3.964087e+01
  -2.372971e+01  -8.255529e+01
   1.103928e+02  -7.760055e+01
   1.401591e+02  -2.267186e+01
   5.121790e+01   3.707600e+01
  -5.357570e+01   3.953057e+01
  -6.971772e+01  -1.364958e+01
  -9.177983e+00  -6.498025e+01
   5.070999e+01  -5.490710e+01
   5.989279e+01   4.887486e-01
   4.062511e+01   4.850806e+01
   4.185394e+01   3.839807e+01
   5.949714e+01   5.491576e-01
   6.362836e+01  -1.383975e+00
   3.091696e+01   6.232902e+01
  -2.870805e+01   1.382097e+02
  -1.062826e+02   1.349797e+02
  -1.523073e+02   3.516781e+01
  -1.213317e+02  -8.281232e+01
  -1.395414e+01  -1.206877e+02
   7.816127e+01  -6.375622e+01
   6.128271e+01   1.215359e+01
  -5.072238e+01   1.970689e+01
  -1.338070e+02  -3.517771e+01
  -8.087130e+01  -1.034098e+02
   6.744472e+01  -1.105795e+02
   1.841578e+02  -5.970470e+01
   1.608147e+02   2.635248e+01
   4.127766e+01   8.082506e+01
  -5.790870e+01   6.964965e+01
  -4.939973e+01   1.023464e+01
   3.533441e+01  -2.787593e+01
   8.900839e+01   1.853118e+01
   3.452294e+01   1.132597e+02
  -8.769378e+01   1.544035e+02
  -1.638389e+02   6.496040e+01
  -1.265930e+02  -9.823638e+01
  -1.245867e+01  -1.923904e+02
   7.808887e+01  -1.459286e+02
   1.003895e+02   2.729834e+00
   6.527450e+01   1.130895e+02
   5.239577e+00   1.075234e+02
  -4.434735e+01   2.406274e+01
  -5.663253e+01  -2.569895e+01
  -2.804482e+01  -8.659839e+00
  -1.763368e+00   2.128224e+01
  -1.844290e+01  -1.143750e+01
  -5.905685e+01  -8.178397e+01
  -4.531594e+01  -1.062889e+02
   4.400215e+01  -4.687165e+01
   1.370791e+02   3.316508e+01
   1.314214e+02   6.452907e+01
   1.947627e+01   4.866569e+01
  -8.646951e+01   2.351837e+01
  -8.824362e+01   1.188570e+01
  -1.449381e+01  -6.173301e+00
   3.381378e+01  -2.322091e+01
   1.223950e+01  -2.169159e+01
  -2.038966e+01   3.262235e-02
   8.622254e+00   1.077033e+01
   7.675084e+01   3.749518e+00
   9.046136e+01   2.204108e+01
   6.586628e+00   7.733958e+01
  -1.178088e+02   1.139097e+02
  -1.807439e+02   6.450785e+01
  -1.403197e+02  -6.055803e+01
  -3.037188e+01  -1.590837e+02
   7.185758e+01  -1.513553e+02
   1.095587e+02  -6.026173e+01
   7.952238e+01   1.767616e+01
   2.685273e+01   3.395179e+01
  -2.603655e+00   8.265342e+00
   8.520531e+00   3.349675e+00
   3.128733e+01   4.308414e+01
   2.419647e+01   8.483974e+01
  -2.499864e+01   7.017707e+01
  -7.784585e+01  -1.561576e+01
  -7.511438e+01  -1.056868e+02
  -3.504361e+00  -1.103236e+02
   8.153904e+01  -2.272964e+01
   1.027384e+02   7.311402e+01
   3.125446e+01   9.937441e+01
  -6.419239e+01   5.351458e+01
  -9.286597e+01  -1.102887e+01
  -3.618346e+01  -4.743504e+01
   3.111440e+01  -4.868107e+01
   2.901237e+01  -2.705165e+01
  -3.511911e+01   9.659155e-01
  -6.583213e+01   7.211386e+00
  -1.419221e+01  -2.428121e+01
   7.492572e+01  -6.546915e+01
   1.098144e+02  -6.106634e+01
   6.204954e+01   7.183182e+00
  -1.109523e+01   8.043783e+01
  -4.809551e+01   7.920326e+01
  -3.419024e+01   6.327838e+00
  -1.676256e+00  -5.446199e+01
   2.578682e+01  -4.087123e+01
   3.647310e+01   1.973002e+01
   2.638859e+01   5.476926e+01
  -3.861556e+00   3.139605e+01
  -3.434068e+01  -8.353596e+00
  -4.179047e+01  -1.914538e+01
  -2.155500e+01  -2.064984e+00
   1.188007e+00   1.041494e+01
   7.324663e+00  -5.453160e+00
   7.705195e+00  -3.467225e+01
   1.500516e+01  -4.075040e+01
   3.174935e+01  -4.132923e+00
   2.888095e+01   4.174339e+01
  -1.432609e+00   5.703003e+01
  -4.243841e+01   2.005788e+01
  -5.442844e+01  -3.536135e+01
  -1.497844e+01  -6.014473e+01
   4.961109e+01  -3.442917e+01
   8.267748e+01   1.085860e+01
   4.767910e+01   4.007612e+01
  -2.539415e+01   3.894023e+01
  -5.962693e+01   2.125308e+01
  -2.147746e+01   4.792442e+00
   3.741681e+01   4.136004e+00
   3.797365e+01   1.824883e+01
  -2.994024e+01   3.350563e+01
  -9.188003e+01   2.015781e+01
