
 $NMID
 id='ANONYMOUS ', fmtdat='(2E16.6)'
 volume=1.0
 tramp=1.0
 $END
   4.578958e+03   3.810991e+02
   2.718219e+03   2.904226e+03
  -7.636142e+02   2.991212e+03
  -2.369866e+03   8.886738e+02
  -9.993534e+02  -8.016047e+02
   8.061027e+02  -6.364913e+02
   9.722029e+02   5.215835e+02
  -3.330521e+01   1.207103e+03
  -9.444700e+02   8.318402e+02
  -1.034095e+03  -1.292019e+02
  -4.715003e+02  -9.603622e+02
   3.117168e+02  -9.750816e+02
   7.338903e+02  -1.087351e+02
   4.234359e+02   7.986185e+02
  -3.326153e+02   8.243841e+02
  -6.998458e+02  -1.912802e+01
  -2.900894e+02  -7.856880e+02
   3.875691e+02  -7.079554e+02
   6.702527e+02  -8.672494e+01
   4.106801e+02   4.114558e+02
   5.721466e+00   4.875177e+02
  -2.778862e+02   2.647116e+02
  -2.241339e+02  -2.462854e+01
   1.495641e+02  -1.267972e+02
   4.663076e+02   1.292565e+02
   2.188327e+02   4.842855e+02
  -5.095838e+02   4.590700e+02
  -9.336605e+02  -8.535175e+01
  -4.700696e+02  -6.115261e+02
   4.470845e+02  -5.290154e+02
   8.253135e+02   4.414784e+01
   3.807843e+02   5.462326e+02
  -3.243400e+02   5.702924e+02
  -6.403247e+02   2.039656e+02
  -4.714757e+02  -2.724807e+02
  -6.571674e+01  -5.247178e+02
   2.472719e+02  -2.945068e+02
   1.843052e+02   2.553625e+02
  -2.043660e+02   4.809001e+02
  -5.063031e+02  -1.990155e+01
  -2.569532e+02  -7.384299e+02
   3.550594e+02  -7.543291e+02
   6.554588e+02  -1.066887e+01
   2.603613e+02   5.963318e+02
  -3.509325e+02   3.715902e+02
  -4.443248e+02  -3.289279e+02
   6.660487e+01  -5.897103e+02
   5.985571e+02  -1.735584e+02
   6.416179e+02   4.288144e+02
   1.706704e+02   6.473491e+02
  -4.372149e+02   3.850687e+02
  -7.021192e+02  -1.021218e+02
  -4.105563e+02  -4.483710e+02
   1.946900e+02  -4.114073e+02
   4.877657e+02  -5.490699e+01
   2.629886e+02   2.290506e+02
  -1.400552e+02   1.267397e+02
  -1.739869e+02  -1.734065e+02
   1.708921e+02  -2.151363e+02
   3.822140e+02   6.174115e+01
   1.644251e+02   3.142894e+02
  -2.242193e+02   2.823738e+02
  -3.632064e+02   8.562823e+01
  -2.124939e+02  -8.967988e+01
   4.160744e+01  -2.398462e+02
   2.386795e+02  -3.481905e+02
   3.638690e+02  -2.262208e+02
   3.049138e+02   1.551916e+02
   7.616933e+01   4.700660e+02
  -1.208019e+02   3.982496e+02
  -1.305033e+02   1.082096e+02
  -2.541583e+01  -1.791466e+01
  -4.299501e+01   9.394773e+01
  -2.093299e+02   1.408125e+02
  -2.996726e+02  -5.799966e+01
  -1.693853e+02  -2.850279e+02
   7.994952e+01  -2.810917e+02
   2.493936e+02  -1.951389e+01
   2.195289e+02   2.547594e+02
  -1.190167e+01   3.297101e+02
  -2.905264e+02   1.346252e+02
  -3.888603e+02  -1.809825e+02
  -1.965883e+02  -3.819137e+02
   1.120261e+02  -3.351928e+02
   2.523596e+02  -1.266404e+02
   1.649265e+02  -2.091373e+00
   1.083640e+02  -3.592001e+01
   2.442280e+02  -6.716677e+01
   4.242666e+02   7.044222e+01
   3.593485e+02   3.074646e+02
   5.587204e+00   4.818271e+02
  -3.872148e+02   4.421631e+02
  -5.321209e+02   2.012053e+02
  -3.757118e+02  -1.149806e+02
  -6.227063e+01  -3.216887e+02
   1.438927e+02  -2.667682e+02
   9.562943e+01  -2.922434e+01
  -1.136517e+02   1.167882e+02
  -2.064197e+02  -1.378248e+01
  -5.443542e+01  -2.125243e+02
   1.723691e+02  -1.835553e+02
   1.939605e+02   6.496578e+01
  -1.957859e+01   2.116672e+02
  -2.150718e+02   3.241202e+01
  -1.760786e+02  -2.747798e+02
   4.189045e+01  -3.804171e+02
   2.578725e+02  -2.077978e+02
   3.535196e+02   6.660129e+01
   2.939355e+02   2.576741e+02
   9.645564e+01   2.881175e+02
  -1.258698e+02   1.791540e+02
  -1.904129e+02   2.026524e+01
  -6.021369e+01  -4.142696e+01
   7.764386e+01   3.797760e+01
   3.376592e+01   1.363029e+02
  -1.348969e+02   1.100158e+02
  -1.962587e+02  -1.565581e+01
  -6.434523e+01  -8.552446e+01
   8.888866e+01  -2.396535e+01
   6.149725e+01   7.779680e+01
  -1.311110e+02   9.070354e+01
  -2.986742e+02  -7.792779e+00
  -2.789104e+02  -1.537192e+02
  -6.558870e+01  -2.750939e+02
   1.907451e+02  -2.838452e+02
   3.038329e+02  -1.359643e+02
   1.890737e+02   6.058307e+01
  -2.276020e+01   1.236487e+02
  -9.895575e+01   9.699417e+00
   3.185788e+01  -1.147805e+02
   2.084531e+02  -6.979665e+01
   2.341400e+02   1.060030e+02
   7.835459e+01   2.273847e+02
  -1.033546e+02   1.765579e+02
  -1.591457e+02   3.247966e+01
  -7.572740e+01  -5.081997e+01
   3.303188e+01  -1.036439e+01
   4.123326e+01   8.844239e+01
  -7.655623e+01   1.276423e+02
  -2.161312e+02   3.685610e+01
  -2.097596e+02  -1.311388e+02
  -2.543124e+01  -2.384923e+02
   1.772122e+02  -1.787489e+02
   2.126464e+02  -5.770881e+00
   7.305394e+01   1.273518e+02
  -7.327358e+01   1.240914e+02
  -9.403190e+01   3.289666e+01
  -2.355412e+01  -3.152987e+01
   2.453153e+01  -2.343407e+01
  -4.746175e+00   7.171168e+00
  -7.194348e+01  -5.307002e+00
  -9.414423e+01  -8.355189e+01
  -2.036103e+01  -1.679565e+02
   1.304557e+02  -1.645600e+02
   2.494684e+02  -2.836702e+01
   2.175981e+02   1.634894e+02
   4.449888e+01   2.571755e+02
  -1.221066e+02   1.822805e+02
  -1.548794e+02   2.704828e+01
  -7.926877e+01  -6.402675e+01
  -2.872347e+01  -4.256952e+01
  -5.112556e+01   1.286611e+01
  -8.292611e+01   5.937275e+00
  -4.564077e+01  -5.119562e+01
   4.451310e+01  -8.931296e+01
   1.076103e+02  -5.657114e+01
   9.085809e+01   3.628400e+01
  -1.463274e+01   1.162092e+02
  -1.505525e+02   9.252295e+01
  -2.083088e+02  -5.296313e+01
  -1.078111e+02  -2.141782e+02
   1.093232e+02  -2.469163e+02
   2.820094e+02  -1.107701e+02
   2.764081e+02   8.522213e+01
   1.186466e+02   1.882504e+02
  -3.843822e+01   1.590252e+02
  -9.617842e+01   9.204737e+01
  -8.289691e+01   7.577701e+01
  -6.930427e+01   9.678355e+01
  -9.843937e+01   7.790034e+01
  -1.377754e+02  -2.303347e+01
  -1.258539e+02  -1.614643e+02
  -3.313646e+01  -2.386907e+02
   1.064345e+02  -1.847178e+02
   1.907841e+02  -2.150360e+01
   1.452515e+02   1.341344e+02
   1.600198e+01   1.717863e+02
  -7.572262e+01   9.477270e+01
  -6.750589e+01  -2.419928e+00
  -6.852135e+00  -4.369072e+01
   7.310614e+00  -3.525379e+01
  -4.062391e+01  -1.892394e+01
  -8.489255e+01  -3.013130e+01
  -4.461287e+01  -4.809985e+01
   6.985160e+01  -4.283789e+01
   1.666722e+02  -5.757182e+00
   1.525344e+02   5.768894e+01
   1.571754e+01   9.968236e+01
  -1.285419e+02   8.160147e+01
  -1.525007e+02   1.245579e+01
  -4.900609e+01  -4.650128e+01
   6.519072e+01  -4.205478e+01
   8.009156e+01   2.298259e+01
   6.446285e+00   7.596106e+01
  -6.152873e+01   6.283991e+01
  -6.876092e+01  -5.415217e+00
  -4.486067e+01  -5.486826e+01
  -4.064015e+01  -4.541854e+01
  -5.853019e+01  -1.587592e+00
  -6.520315e+01   6.312297e-01
  -3.687727e+01  -6.867282e+01
   3.292101e+01  -1.514439e+02
   1.203865e+02  -1.509474e+02
   1.759410e+02  -3.577644e+01
   1.337366e+02   9.715057e+01
   7.450974e+00   1.359638e+02
  -9.345228e+01   6.466269e+01
  -6.495312e+01  -1.837298e+01
   6.276121e+01  -2.690757e+01
   1.434398e+02   4.340724e+01
   8.353913e+01   1.163285e+02
  -8.383412e+01   1.210484e+02
  -2.009768e+02   5.080103e+01
  -1.684549e+02  -3.974613e+01
  -4.024087e+01  -9.360151e+01
   6.410612e+01  -7.577116e+01
   5.035637e+01  -8.122582e+00
  -4.094825e+01   2.670927e+01
  -9.587374e+01  -2.554918e+01
  -2.977990e+01  -1.278675e+02
   9.872680e+01  -1.620835e+02
   1.792775e+02  -6.297282e+01
   1.332093e+02   1.115647e+02
   4.602155e+00   2.121593e+02
  -9.598653e+01   1.519884e+02
  -1.127111e+02  -1.004774e+01
  -6.416893e+01  -1.244999e+02
   2.482268e+00  -1.092870e+02
   4.942272e+01  -2.130712e+01
   5.205551e+01   3.325046e+01
   2.452852e+01   7.083918e+00
   4.802800e+00  -2.281722e+01
   2.454769e+01   1.318769e+01
   6.151486e+01   9.350250e+01
   4.476379e+01   1.188347e+02
  -5.317812e+01   5.267270e+01
  -1.469550e+02  -4.216089e+01
  -1.367466e+02  -8.325893e+01
  -1.630585e+01  -5.952379e+01
   9.258937e+01  -2.546774e+01
   9.421754e+01  -3.573001e+00
   1.181436e+01   1.083189e+01
  -4.272945e+01   2.381756e+01
  -1.683538e+01   1.622592e+01
   2.223798e+01  -3.690367e+00
  -4.098922e+00  -7.122610e+00
  -7.769553e+01  -3.852469e+00
  -9.847171e+01  -2.831117e+01
  -1.043708e+01  -8.795664e+01
   1.250837e+02  -1.211950e+02
   1.987314e+02  -6.088320e+01
   1.543928e+02   7.374036e+01
   2.934443e+01   1.736687e+02
  -8.471802e+01   1.615611e+02
  -1.233725e+02   6.472934e+01
  -8.718021e+01  -2.480081e+01
  -2.859719e+01  -4.008812e+01
   2.497320e+00  -9.213469e+00
  -1.042833e+01  -1.564870e+00
  -3.619915e+01  -4.561607e+01
  -2.560608e+01  -9.582123e+01
   3.111250e+01  -7.883015e+01
   8.823605e+01   1.842586e+01
   8.244960e+01   1.172555e+02
   1.383899e+00   1.192864e+02
  -9.073407e+01   2.443616e+01
  -1.104448e+02  -8.266516e+01
  -3.214542e+01  -1.119618e+02
   7.287126e+01  -6.063698e+01
   1.041286e+02   1.215958e+01
   4.143800e+01   5.337739e+01
  -3.299583e+01   5.446440e+01
  -3.121971e+01   2.777791e+01
   3.613871e+01  -1.744551e+00
   7.378192e+01  -6.026368e+00
   1.818572e+01   2.781129e+01
  -8.322430e+01   7.065526e+01
  -1.247944e+02   6.176953e+01
  -7.259187e+01  -1.486669e+01
   1.550419e+01  -8.853119e+01
   6.001201e+01  -8.053398e+01
   4.144474e+01  -3.310188e+00
  -5.699220e-02   5.724232e+01
  -2.906544e+01   4.237983e+01
  -3.580058e+01  -2.245104e+01
  -2.263249e+01  -5.706525e+01
   5.547721e+00  -3.250933e+01
   3.293590e+01   1.031806e+01
   3.967030e+01   2.370413e+01
   2.184528e+01   2.123923e+00
   1.280674e+00  -1.513226e+01
  -5.732138e+00   3.329936e+00
  -7.200755e+00   4.081417e+01
  -2.087738e+01   5.003170e+01
  -3.652780e+01   1.019765e+01
  -3.505462e+01  -4.952869e+01
   6.597175e-01  -6.574795e+01
   4.796719e+01  -2.251460e+01
   6.046170e+01   4.090873e+01
   1.598928e+01   6.613230e+01
  -5.882812e+01   3.626167e+01
  -9.448285e+01  -1.610557e+01
  -5.107261e+01  -4.745486e+01
   3.152253e+01  -4.514806e+01
   6.855910e+01  -2.340636e+01
   2.561102e+01  -2.649213e+00
  -3.855284e+01  -2.513952e-02
  -4.090137e+01  -1.746801e+01
   3.206627e+01  -3.490081e+01
   9.389179e+01  -1.911919e+01
