
 $NMID
 id='ANONYMOUS ', fmtdat='(2E16.6)'
 volume=1.0
 tramp=1.0
 $END
   4.181332e+03  -1.219241e+02
   2.341343e+03   2.651748e+03
  -8.870735e+02   2.673621e+03
  -2.168909e+03   7.678286e+02
  -8.569484e+02  -8.082559e+02
   7.570958e+02  -6.271267e+02
   9.889819e+02   4.974392e+02
  -1.679578e+01   1.147759e+03
  -8.885038e+02   8.248961e+02
  -9.955507e+02  -1.138994e+02
  -4.563449e+02  -9.369040e+02
   3.012168e+02  -9.372528e+02
   6.956467e+02  -1.042779e+02
   3.852816e+02   7.741683e+02
  -3.084175e+02   7.741930e+02
  -6.523252e+02  -1.665989e+01
  -2.545595e+02  -7.149610e+02
   3.732512e+02  -6.446006e+02
   6.204265e+02  -3.933034e+01
   3.878977e+02   3.884174e+02
  -1.428498e+01   4.567529e+02
  -2.771216e+02   2.618145e+02
  -2.395508e+02   1.110331e+01
   1.145601e+02  -9.632181e+01
   4.247734e+02   1.091382e+02
   2.115891e+02   4.425533e+02
  -4.810568e+02   4.376915e+02
  -8.783730e+02  -9.163799e+01
  -4.602371e+02  -5.976417e+02
   4.029580e+02  -5.335645e+02
   7.725505e+02   1.801811e+01
   3.701302e+02   5.068958e+02
  -2.706087e+02   5.506590e+02
  -5.738849e+02   2.218724e+02
  -4.294486e+02  -2.533984e+02
  -6.899512e+01  -5.025691e+02
   2.431785e+02  -2.889476e+02
   2.128672e+02   2.599939e+02
  -1.724174e+02   4.857853e+02
  -4.975780e+02   4.500592e+00
  -2.867841e+02  -6.903363e+02
   3.278372e+02  -7.215264e+02
   6.319129e+02  -9.336512e+00
   2.718900e+02   5.835738e+02
  -2.998066e+02   3.616124e+02
  -4.182782e+02  -3.305260e+02
   4.786888e+01  -5.728827e+02
   5.639455e+02  -1.614936e+02
   5.946842e+02   3.884585e+02
   1.733606e+02   5.917993e+02
  -3.895920e+02   3.583283e+02
  -6.511683e+02  -6.713621e+01
  -3.867413e+02  -4.076211e+02
   1.692400e+02  -3.942779e+02
   4.701897e+02  -5.472791e+01
   2.542992e+02   2.135652e+02
  -1.261868e+02   1.166862e+02
  -1.658864e+02  -1.553810e+02
   1.701799e+02  -2.013913e+02
   3.548295e+02   7.385677e+01
   1.428695e+02   3.047554e+02
  -2.122567e+02   2.592240e+02
  -3.240040e+02   6.832597e+01
  -1.863528e+02  -9.639555e+01
   2.394441e+01  -2.231200e+02
   2.135059e+02  -3.276345e+02
   3.282717e+02  -2.208098e+02
   2.970993e+02   1.386324e+02
   7.228326e+01   4.378741e+02
  -1.352229e+02   3.750540e+02
  -1.433338e+02   1.000915e+02
  -2.503644e+01  -4.087567e+01
  -2.036766e+01   7.266700e+01
  -1.679124e+02   1.358506e+02
  -2.740167e+02  -3.274167e+01
  -1.724059e+02  -2.629481e+02
   5.855758e+01  -2.680897e+02
   2.274247e+02  -2.830856e+01
   2.074459e+02   2.300852e+02
  -1.437090e+00   2.911004e+02
  -2.647265e+02   1.233645e+02
  -3.698503e+02  -1.670164e+02
  -1.901989e+02  -3.559218e+02
   1.099104e+02  -3.091468e+02
   2.410840e+02  -1.143599e+02
   1.550645e+02   7.679990e+00
   8.443527e+01  -2.138972e+01
   2.119455e+02  -6.245871e+01
   3.876266e+02   4.225421e+01
   3.367541e+02   2.684700e+02
   7.464881e+00   4.334772e+02
  -3.526313e+02   4.079276e+02
  -4.878032e+02   2.033552e+02
  -3.388899e+02  -9.208002e+01
  -6.262717e+01  -3.050747e+02
   1.339302e+02  -2.644113e+02
   9.448557e+01  -3.368052e+01
  -9.843567e+01   1.156607e+02
  -1.984772e+02   3.671120e-01
  -5.486286e+01  -2.002877e+02
   1.716957e+02  -1.800469e+02
   1.891879e+02   5.970896e+01
  -1.212005e+01   2.024350e+02
  -1.953246e+02   3.967078e+01
  -1.623574e+02  -2.461852e+02
   3.013804e+01  -3.408895e+02
   2.224065e+02  -1.822750e+02
   3.101372e+02   6.315271e+01
   2.712610e+02   2.272474e+02
   1.004574e+02   2.602175e+02
  -1.101797e+02   1.625098e+02
  -1.754628e+02   2.070122e+01
  -5.729045e+01  -4.147848e+01
   7.223013e+01   3.111831e+01
   3.510988e+01   1.241390e+02
  -1.191601e+02   1.061286e+02
  -1.794716e+02  -3.217891e+00
  -6.047816e+01  -6.937846e+01
   7.767263e+01  -2.076804e+01
   5.983143e+01   6.652404e+01
  -1.156366e+02   8.335408e+01
  -2.728060e+02   6.366377e+00
  -2.540565e+02  -1.265687e+02
  -6.151509e+01  -2.440032e+02
   1.736620e+02  -2.576854e+02
   2.733301e+02  -1.260923e+02
   1.744761e+02   5.422220e+01
  -1.952985e+01   1.147416e+02
  -9.365027e+01   1.441687e+01
   2.045694e+01  -1.027241e+02
   1.807686e+02  -6.769579e+01
   2.065463e+02   9.930166e+01
   7.088375e+01   2.076432e+02
  -9.102510e+01   1.604638e+02
  -1.480993e+02   3.162917e+01
  -7.838177e+01  -4.220824e+01
   2.219136e+01  -1.191666e+01
   3.936132e+01   7.122289e+01
  -6.375813e+01   1.072616e+02
  -1.883765e+02   3.324805e+01
  -1.859182e+02  -1.148507e+02
  -2.192735e+01  -2.129349e+02
   1.631814e+02  -1.623371e+02
   1.924737e+02  -6.151236e+00
   6.500356e+01   1.158301e+02
  -6.599547e+01   1.135740e+02
  -8.385278e+01   3.252220e+01
  -2.224049e+01  -2.368968e+01
   1.693051e+01  -1.969810e+01
  -1.044329e+01   1.278617e+00
  -6.494481e+01  -1.497885e+01
  -7.979172e+01  -7.695336e+01
  -1.426485e+01  -1.448895e+02
   1.156188e+02  -1.447959e+02
   2.215443e+02  -3.064643e+01
   1.961058e+02   1.393038e+02
   4.458110e+01   2.312981e+02
  -1.058434e+02   1.697793e+02
  -1.343994e+02   2.422663e+01
  -6.993202e+01  -5.739304e+01
  -2.670163e+01  -3.644530e+01
  -5.348905e+01   1.240884e+01
  -7.511674e+01   6.164255e+00
  -3.612724e+01  -4.678591e+01
   4.170814e+01  -7.959843e+01
   9.245612e+01  -4.885481e+01
   7.476430e+01   3.247012e+01
  -1.182457e+01   1.013012e+02
  -1.310623e+02   8.202431e+01
  -1.910300e+02  -4.353386e+01
  -1.054891e+02  -1.904459e+02
   9.350975e+01  -2.256223e+02
   2.601493e+02  -1.003276e+02
   2.532563e+02   7.832033e+01
   1.090330e+02   1.710520e+02
  -3.696752e+01   1.456811e+02
  -9.398898e+01   8.519470e+01
  -7.917368e+01   7.003344e+01
  -6.784973e+01   8.604908e+01
  -9.115930e+01   6.612011e+01
  -1.228869e+02  -2.687652e+01
  -1.097224e+02  -1.518678e+02
  -2.966442e+01  -2.157942e+02
   9.260989e+01  -1.626743e+02
   1.667474e+02  -2.186202e+01
   1.332715e+02   1.137054e+02
   2.475281e+01   1.518294e+02
  -5.885929e+01   8.925943e+01
  -5.596439e+01   1.125023e+00
  -7.581002e+00  -3.877278e+01
   1.040664e+01  -3.147355e+01
  -3.329995e+01  -1.717052e+01
  -7.276544e+01  -2.324325e+01
  -4.145153e+01  -3.540890e+01
   5.955376e+01  -3.128546e+01
   1.474302e+02  -1.132115e+00
   1.366222e+02   4.669648e+01
   1.714694e+01   7.908175e+01
  -1.127417e+02   6.909737e+01
  -1.378239e+02   1.567226e+01
  -4.730450e+01  -3.659256e+01
   5.733491e+01  -3.852962e+01
   6.930295e+01   1.794749e+01
   5.872847e+00   6.477781e+01
  -5.428727e+01   5.448869e+01
  -5.983318e+01  -3.344444e+00
  -4.086829e+01  -4.877279e+01
  -3.701636e+01  -3.830943e+01
  -5.970469e+01   5.870360e-01
  -6.418589e+01   1.428251e+00
  -3.199563e+01  -6.526193e+01
   3.190377e+01  -1.390680e+02
   1.101608e+02  -1.314842e+02
   1.515815e+02  -3.006455e+01
   1.141549e+02   8.587393e+01
   6.677994e+00   1.184171e+02
  -7.962244e+01   5.849195e+01
  -5.876173e+01  -1.384167e+01
   5.429350e+01  -2.009828e+01
   1.290022e+02   4.151642e+01
   7.546344e+01   1.084502e+02
  -7.645814e+01   1.077390e+02
  -1.831750e+02   5.165466e+01
  -1.565390e+02  -3.230531e+01
  -4.024330e+01  -8.056955e+01
   5.612399e+01  -6.668358e+01
   4.509988e+01  -9.050586e+00
  -3.744759e+01   2.232019e+01
  -8.509059e+01  -2.156627e+01
  -2.637151e+01  -1.116699e+02
   9.015958e+01  -1.475384e+02
   1.580999e+02  -5.846440e+01
   1.169754e+02   9.361829e+01
   5.579048e+00   1.881238e+02
  -7.828312e+01   1.416695e+02
  -9.777220e+01  -5.224134e+00
  -5.822600e+01  -1.124908e+02
  -1.408806e+00  -1.012463e+02
   4.173446e+01  -1.884491e+01
   5.127021e+01   2.759469e+01
   2.791131e+01   6.435015e+00
   3.140807e+00  -1.939322e+01
   1.865214e+01   1.464740e+01
   5.475781e+01   8.243109e+01
   4.280378e+01   1.037001e+02
  -4.462681e+01   4.261507e+01
  -1.364623e+02  -4.049257e+01
  -1.269255e+02  -6.816388e+01
  -1.474725e+01  -4.915245e+01
   8.751079e+01  -2.205259e+01
   8.487988e+01  -6.836918e+00
   9.942306e+00   8.453274e+00
  -3.514555e+01   1.978412e+01
  -1.271803e+01   1.694941e+01
   1.901811e+01  -6.392268e-01
  -9.651144e+00  -8.486783e+00
  -7.450383e+01  -5.572295e+00
  -8.704528e+01  -2.489063e+01
  -6.444407e+00  -7.884715e+01
   1.154464e+02  -1.081444e+02
   1.781554e+02  -5.790683e+01
   1.335656e+02   6.194147e+01
   2.186444e+01   1.533063e+02
  -7.692697e+01   1.425268e+02
  -1.072066e+02   5.392522e+01
  -7.384952e+01  -2.243596e+01
  -2.234274e+01  -3.395410e+01
   2.559109e+00  -6.563882e+00
  -9.659929e+00  -2.336826e+00
  -3.105962e+01  -4.373606e+01
  -2.116830e+01  -8.567405e+01
   2.664084e+01  -6.713259e+01
   7.606626e+01   2.071735e+01
   7.091843e+01   1.072198e+02
  -4.895974e-01   1.071126e+02
  -8.131680e+01   1.812859e+01
  -9.804188e+01  -7.617469e+01
  -2.723908e+01  -9.966080e+01
   6.578539e+01  -5.092525e+01
   9.143685e+01   1.253020e+01
   3.413364e+01   4.618231e+01
  -3.153315e+01   4.610886e+01
  -2.657607e+01   2.564045e+01
   3.517652e+01   9.877198e-01
   6.504493e+01  -4.939253e+00
   1.242951e+01   2.401035e+01
  -7.458910e+01   6.137476e+01
  -1.099404e+02   5.239488e+01
  -5.765575e+01  -1.430385e+01
   1.646172e+01  -7.752079e+01
   5.116814e+01  -7.157401e+01
   3.451858e+01  -2.395456e+00
  -6.584581e-01   5.425542e+01
  -2.758291e+01   3.886252e+01
  -3.477740e+01  -1.965972e+01
  -2.238738e+01  -5.184760e+01
   4.426602e+00  -2.959271e+01
   3.019755e+01   9.289322e+00
   3.659638e+01   1.999390e+01
   1.989261e+01  -3.683824e-01
   1.000593e+00  -1.224602e+01
  -7.991856e+00   6.204485e+00
  -9.568873e+00   3.691041e+01
  -1.974854e+01   4.110393e+01
  -3.346085e+01   4.257039e+00
  -2.764401e+01  -4.730239e+01
   4.065490e+00  -5.834043e+01
   4.403153e+01  -1.764897e+01
   5.428700e+01   3.774892e+01
   1.369413e+01   5.894801e+01
  -5.154661e+01   3.075458e+01
  -8.337443e+01  -1.344261e+01
  -4.605498e+01  -4.055698e+01
   2.761797e+01  -3.941094e+01
   6.050102e+01  -2.129660e+01
   2.092479e+01  -4.939190e+00
  -3.653995e+01  -2.226588e+00
  -3.595140e+01  -1.682938e+01
   3.131972e+01  -3.181016e+01
   8.881000e+01  -1.915287e+01
