
 $NMID
 id='ANONYMOUS ', fmtdat='(2E16.6)'
 volume=1.0
 tramp=1.0
 $END
  -3.655261e+03   4.550604e+01
  -2.152387e+03  -1.949728e+03
   2.423735e+02  -2.242375e+03
   1.572525e+03  -1.131765e+03
   1.068171e+03   7.948794e+00
  -3.456041e+01   3.448473e+02
  -4.951816e+02  -1.248976e+02
  -6.096762e+01  -6.484811e+02
   5.410518e+02  -6.402577e+02
   7.250624e+02  -5.541285e+01
   4.638736e+02   5.896633e+02
  -1.828630e+01   7.264289e+02
  -3.669773e+02   2.208362e+02
  -3.147855e+02  -4.601409e+02
   1.069819e+02  -5.868667e+02
   4.487582e+02  -1.074434e+02
   2.979152e+02   5.255501e+02
  -1.744951e+02   6.497843e+02
  -5.200046e+02   2.484176e+02
  -4.532171e+02  -2.181281e+02
  -1.163280e+02  -3.938274e+02
   1.422566e+02  -2.819756e+02
   1.081542e+02  -9.974768e+01
  -1.456571e+02  -9.705061e+01
  -2.695874e+02  -2.491962e+02
  -1.240073e+01  -3.427051e+02
   4.588401e+02  -1.930166e+02
   6.484276e+02   1.732083e+02
   2.935481e+02   4.174877e+02
  -3.230645e+02   2.733342e+02
  -5.589107e+02  -1.006545e+02
  -2.378687e+02  -3.911257e+02
   2.545303e+02  -3.856107e+02
   4.679048e+02  -1.309153e+02
   3.391882e+02   2.023225e+02
   8.868889e+01   3.458535e+02
  -5.214434e+01   2.146269e+02
  -3.740678e-02  -9.901547e+01
   1.506498e+02  -1.801741e+02
   2.266293e+02   1.120592e+02
   5.370376e+01   5.068493e+02
  -2.473771e+02   4.861677e+02
  -3.847140e+02   1.715722e+01
  -1.643705e+02  -3.465534e+02
   1.492532e+02  -1.693659e+02
   2.081627e+02   2.775539e+02
  -1.098190e+02   4.185539e+02
  -4.676266e+02   6.839617e+01
  -4.882470e+02  -4.016777e+02
  -1.437085e+02  -5.307438e+02
   3.253754e+02  -2.856565e+02
   5.324248e+02   5.826637e+01
   3.612119e+02   2.779709e+02
  -4.879881e+01   2.675381e+02
  -3.093482e+02   1.041253e+02
  -2.319509e+02  -5.330901e+01
  -1.264179e+00  -5.004802e+01
   6.748245e+01   5.271935e+01
  -1.094837e+02   8.635238e+01
  -2.452855e+02  -5.128269e+01
  -1.315006e+02  -2.161554e+02
   1.646470e+02  -2.543758e+02
   3.424671e+02  -1.150881e+02
   2.521194e+02   1.154359e+02
  -3.545046e+01   3.135607e+02
  -3.010200e+02   3.563519e+02
  -3.751008e+02   1.541174e+02
  -2.448042e+02  -1.719297e+02
  -4.427115e+01  -3.904089e+02
   6.026452e+01  -3.392575e+02
   5.115999e+01  -1.662376e+02
   4.405412e+01  -7.657136e+01
   1.295326e+02  -1.015398e+02
   2.317080e+02  -5.713609e+01
   2.371584e+02   1.108873e+02
   9.607731e+01   2.592235e+02
  -8.815698e+01   2.000508e+02
  -1.926072e+02  -4.066061e+01
  -1.393674e+02  -2.436918e+02
   4.996061e+01  -2.518704e+02
   2.555099e+02  -6.668305e+01
   3.238749e+02   1.820666e+02
   1.726152e+02   3.165607e+02
  -6.715554e+01   2.820932e+02
  -1.859546e+02   1.512836e+02
  -1.600991e+02   6.851593e+01
  -1.530042e+02   6.015958e+01
  -2.873667e+02   3.274656e+01
  -4.162083e+02  -1.093606e+02
  -3.092630e+02  -3.110266e+02
   4.407233e+01  -4.399148e+02
   3.964370e+02  -3.874164e+02
   4.931232e+02  -1.653890e+02
   2.981455e+02   1.047211e+02
   3.031565e+01   2.591655e+02
  -9.937987e+01   2.158404e+02
  -2.680980e+01   4.752732e+01
   1.055366e+02  -4.504068e+01
   1.368366e+02   3.487904e+01
   1.390870e+01   1.448751e+02
  -1.214768e+02   1.179846e+02
  -1.178005e+02  -5.040598e+01
   2.293395e+01  -1.346782e+02
   1.644992e+02  -1.722578e+00
   1.474725e+02   2.390731e+02
  -3.321357e+01   3.405531e+02
  -2.488199e+02   1.971469e+02
  -3.546668e+02  -7.354329e+01
  -2.745077e+02  -2.683096e+02
  -6.215812e+01  -2.807326e+02
   1.337234e+02  -1.426629e+02
   1.581977e+02  -1.225056e+00
   3.806890e+01   1.766751e+01
  -5.045130e+01  -6.031512e+01
   3.294967e+00  -1.176417e+02
   1.239726e+02  -6.753216e+01
   1.478624e+02   2.605653e+01
   3.127569e+01   5.327797e+01
  -7.902903e+01  -1.512803e+01
  -3.170445e+01  -9.346537e+01
   1.518080e+02  -8.099545e+01
   2.972724e+02   2.829680e+01
   2.493219e+02   1.757606e+02
   2.595000e+01   2.617271e+02
  -2.071660e+02   2.320459e+02
  -2.690410e+02   9.292158e+01
  -1.424660e+02  -4.791025e+01
   2.622443e+01  -8.135218e+01
   6.219408e+01   2.459864e+00
  -5.266051e+01   8.001521e+01
  -1.825042e+02   2.739487e+01
  -1.849586e+02  -1.107031e+02
  -5.197632e+01  -1.924873e+02
   9.112640e+01  -1.350841e+02
   1.277661e+02  -1.353761e+01
   4.814213e+01   3.810788e+01
  -3.698037e+01  -2.122945e+01
  -2.223753e+01  -1.099503e+02
   1.006062e+02  -1.145077e+02
   2.126788e+02  -4.856547e+00
   1.795297e+02   1.456715e+02
   3.477496e+00   2.159131e+02
  -1.664895e+02   1.468364e+02
  -1.779231e+02   2.391080e+00
  -5.381140e+01  -9.973836e+01
   6.531813e+01  -9.408076e+01
   7.070790e+01  -2.388353e+01
   2.000326e+00   2.236305e+01
  -3.422681e+01   5.087427e+00
   1.319434e+01  -2.346949e+01
   8.822451e+01   5.221731e+00
   9.849074e+01   9.782996e+01
   2.847791e+00   1.747758e+02
  -1.471112e+02   1.490300e+02
  -2.398566e+02   5.829050e+00
  -1.881496e+02  -1.650145e+02
  -2.720966e+01  -2.315630e+02
   1.063741e+02  -1.582930e+02
   1.297770e+02  -2.649243e+01
   7.355293e+01   4.548155e+01
   3.636561e+01   3.160649e+01
   6.312413e+01  -1.114163e+01
   8.795145e+01   5.769903e-01
   5.160950e+01   6.240574e+01
  -4.623113e+01   1.044618e+02
  -1.260293e+02   6.222369e+01
  -1.053395e+02  -5.136926e+01
   2.391808e+01  -1.310941e+02
   1.719237e+02  -8.408823e+01
   2.089997e+02   7.541340e+01
   7.778600e+01   2.165362e+02
  -1.344901e+02   2.180441e+02
  -2.721098e+02   7.512089e+01
  -2.399869e+02  -9.736722e+01
  -9.111802e+01  -1.713731e+02
   4.395765e+01  -1.365202e+02
   8.960720e+01  -7.925062e+01
   7.189309e+01  -7.289414e+01
   6.389975e+01  -9.548262e+01
   9.753812e+01  -7.864920e+01
   1.347929e+02   2.462649e+01
   1.141904e+02   1.634892e+02
   1.739309e+01   2.304583e+02
  -1.092729e+02   1.638807e+02
  -1.701099e+02   3.693532e+00
  -1.221902e+02  -1.335022e+02
  -4.414879e+00  -1.569279e+02
   7.503798e+01  -7.877852e+01
   6.167649e+01   1.750717e+01
  -4.292133e+00   5.244444e+01
  -2.513298e+01   3.351057e+01
   2.943851e+01   1.176530e+01
   8.334489e+01   2.295617e+01
   4.822442e+01   4.520879e+01
  -7.451083e+01   3.608344e+01
  -1.740956e+02  -1.320968e+01
  -1.425403e+02  -7.039773e+01
   3.757040e+00  -9.466152e+01
   1.366179e+02  -6.578278e+01
   1.457824e+02  -1.192789e+00
   4.172334e+01   4.949719e+01
  -6.254061e+01   4.200641e+01
  -7.823336e+01  -2.121337e+01
  -1.645335e+01  -7.619505e+01
   5.157596e+01  -6.770319e+01
   7.082157e+01   1.104798e-01
   5.484608e+01   5.648930e+01
   4.274131e+01   4.736772e+01
   5.644309e+01   1.103983e+00
   6.748439e+01   1.853971e+00
   4.302982e+01   7.750377e+01
  -3.620474e+01   1.561006e+02
  -1.357452e+02   1.424545e+02
  -1.829139e+02   2.430340e+01
  -1.274411e+02  -1.026981e+02
   1.178068e+00  -1.357375e+02
   9.485242e+01  -6.662554e+01
   6.274541e+01   1.002238e+01
  -5.693689e+01   1.669407e+01
  -1.312995e+02  -5.097544e+01
  -6.932863e+01  -1.159552e+02
   9.049037e+01  -1.105123e+02
   1.950561e+02  -3.914674e+01
   1.566837e+02   4.545395e+01
   3.044960e+01   8.330553e+01
  -6.219473e+01   5.702900e+01
  -4.330908e+01  -1.767845e+00
   4.412129e+01  -2.679457e+01
   9.239800e+01   2.438936e+01
   3.212454e+01   1.200261e+02
  -8.751528e+01   1.567855e+02
  -1.639644e+02   6.402678e+01
  -1.241894e+02  -9.799760e+01
  -5.679517e+00  -1.991226e+02
   8.999029e+01  -1.397129e+02
   1.045537e+02   1.738394e+01
   5.073312e+01   1.268987e+02
  -1.721881e+01   1.019955e+02
  -5.000327e+01   1.147563e+01
  -4.300505e+01  -3.301486e+01
  -1.872091e+01  -4.712402e+00
  -7.377436e+00   1.903134e+01
  -3.000091e+01  -2.219051e+01
  -5.552779e+01  -9.199394e+01
  -3.085280e+01  -1.061560e+02
   5.821596e+01  -4.115466e+01
   1.406746e+02   4.037506e+01
   1.226809e+02   7.238522e+01
   1.424015e+01   5.321589e+01
  -8.337857e+01   2.467920e+01
  -8.718945e+01   1.914464e+00
  -1.483706e+01  -1.484490e+01
   3.629878e+01  -1.950388e+01
   1.799246e+01  -1.156085e+01
  -1.726639e+01   4.846025e+00
   5.088980e+00   4.907416e+00
   7.047305e+01   1.015352e+00
   9.250555e+01   2.462004e+01
   1.960961e+01   8.260125e+01
  -1.123058e+02   1.162378e+02
  -1.905943e+02   6.243143e+01
  -1.516247e+02  -6.317214e+01
  -2.707633e+01  -1.629537e+02
   8.584204e+01  -1.537288e+02
   1.183046e+02  -6.122528e+01
   8.038087e+01   2.248227e+01
   2.534103e+01   3.859528e+01
   1.887638e+00   1.259608e+01
   1.320686e+01   8.108109e+00
   3.057423e+01   4.805290e+01
   1.354664e+01   9.241884e+01
  -3.257623e+01   7.277567e+01
  -7.979643e+01  -1.652066e+01
  -7.689911e+01  -1.064319e+02
  -8.004601e+00  -1.152874e+02
   7.904271e+01  -3.007468e+01
   1.044083e+02   7.129985e+01
   3.786954e+01   1.071737e+02
  -6.753648e+01   6.403566e+01
  -1.059092e+02  -1.014648e+01
  -4.498176e+01  -5.879916e+01
   3.582916e+01  -6.021927e+01
   4.029213e+01  -2.907352e+01
  -2.620310e+01   4.884101e+00
  -6.849332e+01   6.132360e+00
  -1.825171e+01  -2.866714e+01
   7.810956e+01  -6.232954e+01
   1.219165e+02  -4.854674e+01
   6.940076e+01   1.986773e+01
  -1.584363e+01   8.563250e+01
  -6.011129e+01   8.305466e+01
  -4.733866e+01   1.018071e+01
  -6.022994e+00  -5.451345e+01
   2.537562e+01  -4.860403e+01
   3.734987e+01   1.182320e+01
   2.628443e+01   5.499312e+01
  -3.361189e+00   3.948163e+01
  -3.283703e+01  -6.196912e+00
  -4.015146e+01  -2.615664e+01
  -1.983385e+01  -4.969551e+00
   2.477561e+00   1.901919e+01
   5.567570e+00   6.619911e+00
  -3.458453e+00  -3.368923e+01
   3.407269e+00  -5.454933e+01
   2.923450e+01  -2.229069e+01
   4.126139e+01   3.870296e+01
   1.176791e+01   6.196324e+01
  -4.235310e+01   2.419440e+01
  -6.213391e+01  -3.505420e+01
  -1.886540e+01  -6.151403e+01
   5.747972e+01  -3.350745e+01
   9.341436e+01   1.404368e+01
   5.116866e+01   4.494723e+01
  -2.925110e+01   4.750044e+01
  -6.592156e+01   2.940897e+01
  -2.890129e+01   7.538915e+00
   2.856264e+01  -3.598164e+00
   3.338382e+01   7.098782e+00
  -2.414787e+01   2.612753e+01
  -7.970025e+01   2.230811e+01
