
 $NMID
 id='ANONYMOUS ', fmtdat='(2E16.6)'
 volume=1.0
 tramp=1.0
 $END
  -3.492686e+03  -5.192897e+01
  -2.261733e+03  -2.064883e+03
   2.108260e+02  -2.404789e+03
   1.595184e+03  -1.114992e+03
   9.993519e+02   1.640657e+02
  -1.881362e+02   4.634563e+02
  -5.807625e+02  -1.717783e+02
  -1.094154e+02  -7.641092e+02
   5.574401e+02  -7.038758e+02
   7.784872e+02  -4.481794e+01
   4.795758e+02   6.442767e+02
  -7.350626e+01   7.729070e+02
  -4.568488e+02   1.848473e+02
  -3.634167e+02  -5.175812e+02
   1.429637e+02  -6.516860e+02
   4.855513e+02  -7.952021e+01
   3.217703e+02   5.670596e+02
  -1.909905e+02   6.494331e+02
  -5.369858e+02   2.364517e+02
  -4.529554e+02  -2.488022e+02
  -1.009521e+02  -4.160962e+02
   1.730703e+02  -2.678085e+02
   1.303752e+02  -5.602637e+01
  -1.494641e+02  -4.422224e+00
  -3.231586e+02  -1.814602e+02
  -8.662536e+01  -3.736359e+02
   4.392099e+02  -2.641569e+02
   6.875437e+02   1.104227e+02
   3.143944e+02   4.057728e+02
  -3.322417e+02   3.131925e+02
  -5.953605e+02  -7.232203e+01
  -2.671747e+02  -3.986728e+02
   2.596843e+02  -4.133029e+02
   4.903050e+02  -1.646053e+02
   3.848839e+02   1.783086e+02
   1.131291e+02   3.791478e+02
  -8.042141e+01   2.359395e+02
  -5.420977e+01  -1.377251e+02
   1.574769e+02  -2.833450e+02
   3.088886e+02   6.579584e+01
   1.337713e+02   5.698287e+02
  -2.514486e+02   5.728364e+02
  -4.369547e+02   4.196628e+01
  -1.809278e+02  -4.029495e+02
   2.188983e+02  -2.264908e+02
   2.869357e+02   2.858200e+02
  -7.517935e+01   4.597120e+02
  -4.803474e+02   1.210538e+02
  -5.634629e+02  -3.726917e+02
  -1.905176e+02  -5.444231e+02
   3.371052e+02  -3.200163e+02
   5.998681e+02   5.441769e+01
   3.938079e+02   3.051834e+02
  -7.922166e+01   3.301806e+02
  -3.624818e+02   1.141609e+02
  -2.630471e+02  -9.329760e+01
   3.239309e+01  -7.851598e+01
   1.044184e+02   7.965588e+01
  -1.152660e+02   1.153908e+02
  -2.868865e+02  -4.015607e+01
  -1.482148e+02  -2.314239e+02
   1.722924e+02  -2.691380e+02
   3.544048e+02  -1.352438e+02
   2.421449e+02   7.975954e+01
  -3.154458e+01   2.812547e+02
  -2.598168e+02   3.563698e+02
  -3.469706e+02   1.896319e+02
  -2.493677e+02  -1.422930e+02
  -7.498940e+01  -3.957691e+02
   4.243365e+01  -3.593740e+02
   6.316621e+01  -1.576986e+02
   3.628435e+01  -5.765396e+01
   1.019642e+02  -9.552605e+01
   2.192457e+02  -8.084425e+01
   2.570028e+02   8.811498e+01
   1.304706e+02   2.517321e+02
  -7.059309e+01   2.182237e+02
  -2.052477e+02  -6.907513e+00
  -1.723067e+02  -2.282119e+02
   1.936549e+01  -2.713946e+02
   2.530911e+02  -9.260740e+01
   3.434101e+02   1.665121e+02
   1.940604e+02   3.271584e+02
  -5.904188e+01   2.984193e+02
  -2.016707e+02   1.601772e+02
  -1.663428e+02   5.946558e+01
  -1.449841e+02   5.523994e+01
  -2.705896e+02   4.437729e+01
  -4.164604e+02  -8.986420e+01
  -3.377461e+02  -2.993381e+02
   9.405762e+00  -4.578425e+02
   3.778061e+02  -4.288547e+02
   4.979814e+02  -1.965918e+02
   3.284276e+02   1.027164e+02
   4.258788e+01   2.790224e+02
  -1.023912e+02   2.305260e+02
  -4.159273e+01   3.521781e+01
   1.190915e+02  -7.375154e+01
   1.595832e+02   2.537992e+01
   2.601308e+01   1.692705e+02
  -1.345721e+02   1.355848e+02
  -1.408008e+02  -5.389851e+01
   2.438098e+01  -1.598776e+02
   1.795149e+02  -1.224515e+01
   1.619516e+02   2.504535e+02
  -2.719593e+01   3.559233e+02
  -2.446561e+02   2.101184e+02
  -3.566272e+02  -5.877975e+01
  -2.890661e+02  -2.571650e+02
  -7.705937e+01  -2.708919e+02
   1.197546e+02  -1.576899e+02
   1.621658e+02  -1.903173e+01
   4.611154e+01   1.784490e+01
  -5.913531e+01  -5.117823e+01
  -9.932712e+00  -1.179160e+02
   1.253512e+02  -8.234708e+01
   1.636012e+02   1.738560e+01
   4.196525e+01   6.212907e+01
  -8.449843e+01   2.870141e+00
  -4.791072e+01  -8.365115e+01
   1.343192e+02  -9.208464e+01
   2.955405e+02   3.354602e+00
   2.664745e+02   1.548014e+02
   4.738173e+01   2.648236e+02
  -1.951733e+02   2.542358e+02
  -2.703236e+02   1.131928e+02
  -1.533444e+02  -4.706933e+01
   2.740790e+01  -9.197304e+01
   7.593821e+01  -4.510034e+00
  -4.158569e+01   8.934427e+01
  -1.894676e+02   5.151349e+01
  -2.019480e+02  -9.587467e+01
  -7.024395e+01  -1.955714e+02
   8.766564e+01  -1.519461e+02
   1.331156e+02  -2.520667e+01
   5.359900e+01   3.736303e+01
  -3.734731e+01  -1.328653e+01
  -2.890522e+01  -1.034172e+02
   9.340617e+01  -1.213164e+02
   2.108821e+02  -2.069177e+01
   1.875539e+02   1.307202e+02
   1.612830e+01   2.175194e+02
  -1.562743e+02   1.622756e+02
  -1.825517e+02   1.273350e+01
  -6.273667e+01  -1.026427e+02
   6.120571e+01  -1.080469e+02
   7.527748e+01  -3.321902e+01
   8.531108e+00   2.359962e+01
  -3.228822e+01   1.341581e+01
   1.166776e+01  -1.917450e+01
   8.738528e+01   1.891416e+00
   1.057581e+02   9.216305e+01
   1.652843e+01   1.780697e+02
  -1.412874e+02   1.609623e+02
  -2.460581e+02   1.894466e+01
  -2.065287e+02  -1.576201e+02
  -4.645917e+01  -2.365570e+02
   1.034587e+02  -1.675286e+02
   1.340056e+02  -3.175589e+01
   7.570836e+01   4.949293e+01
   3.359936e+01   2.988869e+01
   5.628127e+01  -1.984342e+01
   8.831389e+01  -1.045481e+01
   5.315044e+01   5.535495e+01
  -4.250142e+01   1.036996e+02
  -1.194903e+02   6.560149e+01
  -1.020474e+02  -4.496998e+01
   2.052832e+01  -1.267180e+02
   1.626733e+02  -8.845794e+01
   2.090031e+02   6.369601e+01
   9.401470e+01   2.137391e+02
  -1.210299e+02   2.317410e+02
  -2.785849e+02   1.001581e+02
  -2.656952e+02  -7.764255e+01
  -1.116324e+02  -1.717081e+02
   3.726249e+01  -1.505532e+02
   9.104999e+01  -9.273691e+01
   7.374890e+01  -7.610963e+01
   6.086811e+01  -9.806631e+01
   9.149407e+01  -8.047312e+01
   1.337099e+02   1.782573e+01
   1.260794e+02   1.546956e+02
   3.458299e+01   2.322773e+02
  -9.633508e+01   1.780918e+02
  -1.756516e+02   1.917475e+01
  -1.349706e+02  -1.271371e+02
  -1.741976e+01  -1.636328e+02
   7.244244e+01  -8.596425e+01
   6.171348e+01   1.034943e+01
  -2.322494e+00   5.209042e+01
  -1.942854e+01   3.548895e+01
   3.406213e+01   1.202429e+01
   8.695725e+01   1.926520e+01
   4.908155e+01   3.998098e+01
  -7.240861e+01   3.987848e+01
  -1.715535e+02   2.664650e+00
  -1.440123e+02  -5.546998e+01
  -2.380564e+00  -9.362942e+01
   1.306002e+02  -7.518564e+01
   1.459625e+02  -8.923178e+00
   4.263933e+01   4.815917e+01
  -6.307690e+01   4.111589e+01
  -8.185639e+01  -2.132697e+01
  -1.557446e+01  -7.571431e+01
   4.939456e+01  -6.816997e+01
   6.860761e+01  -1.441143e+00
   5.501304e+01   5.195401e+01
   5.340805e+01   4.317706e+01
   6.367749e+01  -2.877109e-01
   6.776219e+01   4.696798e-02
   4.045812e+01   7.384253e+01
  -3.073253e+01   1.586333e+02
  -1.251858e+02   1.532654e+02
  -1.804955e+02   3.860951e+01
  -1.345335e+02  -9.507255e+01
  -7.003613e+00  -1.365912e+02
   9.110485e+01  -6.953700e+01
   5.909420e+01   1.159612e+01
  -6.146128e+01   2.174135e+01
  -1.380197e+02  -4.172583e+01
  -7.278799e+01  -1.030687e+02
   8.210915e+01  -1.115193e+02
   1.935470e+02  -5.275888e+01
   1.648188e+02   3.223619e+01
   3.626105e+01   8.592760e+01
  -6.204098e+01   6.836103e+01
  -4.988009e+01   4.953262e+00
   4.172505e+01  -2.930105e+01
   9.578655e+01   1.926716e+01
   3.942775e+01   1.208269e+02
  -8.080853e+01   1.602246e+02
  -1.636077e+02   7.335069e+01
  -1.307427e+02  -9.351971e+01
  -1.837578e+01  -1.988284e+02
   7.986964e+01  -1.442939e+02
   1.037640e+02   7.514142e+00
   6.133115e+01   1.191482e+02
  -4.427693e+00   1.052078e+02
  -4.829071e+01   1.930614e+01
  -4.785740e+01  -3.063015e+01
  -2.074235e+01  -5.522418e+00
  -7.213678e+00   1.823084e+01
  -2.892002e+01  -2.061695e+01
  -5.942327e+01  -8.938687e+01
  -3.761347e+01  -1.067038e+02
   5.593414e+01  -4.272226e+01
   1.414936e+02   3.615969e+01
   1.266020e+02   6.902885e+01
   1.660618e+01   5.460637e+01
  -8.483918e+01   2.975231e+01
  -9.096438e+01   9.267749e+00
  -1.756546e+01  -1.091800e+01
   3.494722e+01  -2.466281e+01
   1.709483e+01  -1.341375e+01
  -1.930585e+01   3.589608e+00
   3.063833e+00   2.996555e+00
   7.070142e+01  -4.838101e+00
   9.544775e+01   2.037551e+01
   1.793764e+01   8.463404e+01
  -1.115690e+02   1.201599e+02
  -1.896490e+02   7.201951e+01
  -1.525398e+02  -5.796096e+01
  -3.357694e+01  -1.619453e+02
   7.557530e+01  -1.590065e+02
   1.123239e+02  -6.900130e+01
   8.031994e+01   1.676044e+01
   2.963613e+01   3.828360e+01
   2.255102e+00   1.318620e+01
   1.268590e+01   7.801867e+00
   3.089582e+01   4.689730e+01
   2.245861e+01   9.165322e+01
  -2.757289e+01   7.429350e+01
  -8.280981e+01  -1.425083e+01
  -8.605680e+01  -1.048430e+02
  -1.422577e+01  -1.116887e+02
   7.844038e+01  -3.127422e+01
   1.092883e+02   6.767424e+01
   4.057334e+01   1.054818e+02
  -6.592646e+01   6.487004e+01
  -1.064949e+02  -6.326275e+00
  -4.710192e+01  -5.764700e+01
   3.305183e+01  -6.316874e+01
   3.790885e+01  -3.008406e+01
  -2.662356e+01   6.184049e+00
  -6.894327e+01   9.876276e+00
  -1.645820e+01  -2.504056e+01
   7.743196e+01  -6.795405e+01
   1.163897e+02  -5.593479e+01
   7.028497e+01   1.250505e+01
  -1.068130e+01   8.472759e+01
  -5.571067e+01   8.261847e+01
  -4.342386e+01   1.291241e+01
  -6.502732e+00  -5.383044e+01
   2.418034e+01  -4.804984e+01
   3.786173e+01   1.333561e+01
   2.962206e+01   5.501095e+01
  -4.820753e-01   3.741161e+01
  -3.309518e+01  -6.442181e+00
  -4.196458e+01  -2.275210e+01
  -2.209680e+01  -1.316695e+00
   1.892055e+00   1.927279e+01
   5.087596e+00   2.815648e+00
  -2.085905e+00  -3.706909e+01
   6.498375e+00  -5.317553e+01
   2.856676e+01  -1.804841e+01
   4.132667e+01   3.945511e+01
   1.194451e+01   6.102084e+01
  -4.230458e+01   2.671587e+01
  -6.340658e+01  -3.425295e+01
  -1.892171e+01  -6.170174e+01
   5.917320e+01  -3.683819e+01
   9.646539e+01   1.130451e+01
   5.181301e+01   4.339841e+01
  -3.007092e+01   4.703561e+01
  -6.797372e+01   2.983816e+01
  -2.887433e+01   7.746674e+00
   3.210141e+01  -2.518611e+00
   3.548055e+01   8.031383e+00
  -2.626914e+01   2.826515e+01
  -8.324781e+01   2.298532e+01
