
 $NMID
 id='ANONYMOUS ', fmtdat='(2E16.6)'
 volume=1.0
 tramp=1.0
 $END
  -2.462124e+03   4.054346e+02
  -1.961153e+03  -9.853715e+02
  -5.250434e+02  -1.727156e+03
   7.879050e+02  -1.465684e+03
   9.604563e+02  -5.500903e+02
   3.574379e+02   1.402561e+02
  -1.649900e+02   8.765504e+01
  -1.331961e+02  -3.325086e+02
   2.785874e+02  -5.118186e+02
   5.259498e+02  -1.740420e+02
   4.351368e+02   3.747124e+02
   1.020453e+02   5.631114e+02
  -1.903259e+02   2.517255e+02
  -2.394192e+02  -2.656006e+02
   2.894020e+01  -4.538113e+02
   3.375748e+02  -1.448031e+02
   3.315768e+02   4.115595e+02
  -4.062550e+01   6.201525e+02
  -4.302989e+02   3.480935e+02
  -4.706243e+02  -1.063878e+02
  -1.855562e+02  -3.363682e+02
   6.534660e+01  -2.326037e+02
   2.664415e+01  -9.327885e+01
  -1.791497e+02  -1.452524e+02
  -2.061744e+02  -3.174278e+02
   7.459083e+01  -3.044135e+02
   4.205868e+02  -6.841463e+01
   4.706544e+02   1.961008e+02
   1.787896e+02   2.645443e+02
  -2.682979e+02   1.148168e+02
  -4.123900e+02  -1.460590e+02
  -1.538349e+02  -3.157644e+02
   2.400598e+02  -2.948735e+02
   4.177439e+02  -1.178576e+02
   2.971297e+02   1.305191e+02
   1.123088e+02   2.354317e+02
   4.719722e+01   1.389632e+02
   1.032986e+02  -4.073132e+01
   1.581918e+02  -6.481784e+01
   1.086423e+02   1.436538e+02
  -2.738478e+01   3.852520e+02
  -1.853972e+02   3.440826e+02
  -2.315748e+02   3.010410e+01
  -8.691161e+01  -2.201322e+02
   1.058117e+02  -1.162776e+02
   1.283129e+02   2.177612e+02
  -1.056247e+02   3.301303e+02
  -4.116263e+02   6.837814e+01
  -4.477624e+02  -3.290280e+02
  -1.590544e+02  -4.604745e+02
   2.627690e+02  -2.493227e+02
   4.640135e+02   4.342641e+01
   3.271052e+02   1.921752e+02
   1.166922e+01   1.715211e+02
  -2.077645e+02   9.299972e+01
  -1.979285e+02   2.214917e+01
  -5.696982e+01   7.548265e-01
   1.922071e+01   1.547320e+01
  -7.059747e+01   2.710826e+01
  -1.841512e+02  -3.537410e+01
  -1.221247e+02  -1.613541e+02
   1.306192e+02  -2.432741e+02
   3.444696e+02  -1.452658e+02
   2.872012e+02   1.157673e+02
  -2.941265e+01   3.563211e+02
  -3.195045e+02   3.590457e+02
  -3.572659e+02   1.288418e+02
  -1.940553e+02  -1.578373e+02
  -5.097223e+01  -3.020822e+02
  -2.392670e+01  -2.708692e+02
  -2.382835e+01  -1.877263e+02
   3.995351e+01  -1.497376e+02
   1.686405e+02  -1.270992e+02
   2.501549e+02  -3.259658e+01
   2.111832e+02   1.330130e+02
   6.770658e+01   2.411805e+02
  -9.371410e+01   1.670449e+02
  -1.790137e+02  -5.366696e+01
  -1.228298e+02  -2.366384e+02
   5.711108e+01  -2.331734e+02
   2.395984e+02  -5.062725e+01
   2.911868e+02   1.652080e+02
   1.671037e+02   2.642375e+02
  -2.607320e+01   2.405895e+02
  -1.295876e+02   1.638362e+02
  -1.341833e+02   1.157469e+02
  -1.596424e+02   9.110795e+01
  -2.890508e+02   4.064187e+01
  -4.077167e+02  -9.958021e+01
  -3.171098e+02  -2.966979e+02
   1.893842e+01  -4.296231e+02
   3.589741e+02  -3.907407e+02
   4.491372e+02  -1.626137e+02
   2.602803e+02   9.910443e+01
   1.574517e+01   2.280487e+02
  -7.126732e+01   1.743602e+02
   8.123300e+00   4.104219e+01
   1.044758e+02  -2.114376e+01
   9.726108e+01   3.486682e+01
   3.650473e+00   1.056199e+02
  -8.217601e+01   7.245469e+01
  -7.743525e+01  -3.496496e+01
   2.449381e+01  -1.007545e+02
   1.413080e+02   8.964781e+00
   1.493994e+02   2.234845e+02
  -5.107218e+00   3.286058e+02
  -2.375295e+02   2.135149e+02
  -3.649852e+02  -5.023747e+01
  -2.810497e+02  -2.565528e+02
  -4.648121e+01  -2.687777e+02
   1.308029e+02  -1.330240e+02
   1.335700e+02  -3.182251e+00
   1.883359e+01   5.629976e+00
  -4.676362e+01  -6.652291e+01
   1.335684e+01  -1.051586e+02
   1.166938e+02  -5.930685e+01
   1.304888e+02   2.386205e+01
   1.862252e+01   4.535925e+01
  -8.672641e+01  -2.173973e+01
  -3.245516e+01  -1.032052e+02
   1.536588e+02  -9.285980e+01
   2.997682e+02   1.930775e+01
   2.489365e+02   1.706152e+02
   2.139427e+01   2.593506e+02
  -2.000863e+02   2.243121e+02
  -2.511749e+02   8.871340e+01
  -1.230508e+02  -4.280325e+01
   2.608617e+01  -6.675804e+01
   4.909654e+01   6.934258e+00
  -5.664457e+01   7.148325e+01
  -1.674464e+02   2.483346e+01
  -1.636783e+02  -9.420277e+01
  -4.934286e+01  -1.677769e+02
   7.720913e+01  -1.178458e+02
   1.047846e+02  -1.026652e+01
   2.774148e+01   3.137334e+01
  -4.981419e+01  -3.335259e+01
  -2.235827e+01  -1.239256e+02
   1.096794e+02  -1.200191e+02
   2.143353e+02  -5.273613e+00
   1.737073e+02   1.388932e+02
   8.861467e+00   2.017053e+02
  -1.443804e+02   1.395323e+02
  -1.588897e+02   1.006411e+01
  -5.074744e+01  -8.444071e+01
   5.616798e+01  -8.615274e+01
   6.163498e+01  -2.126426e+01
  -5.859031e+00   2.455649e+01
  -4.438246e+01   3.662864e+00
   7.802863e+00  -3.636715e+01
   9.787537e+01  -1.019385e+01
   1.154319e+02   9.249106e+01
   1.369738e+01   1.787766e+02
  -1.447513e+02   1.526848e+02
  -2.364396e+02   8.954646e+00
  -1.857176e+02  -1.547766e+02
  -3.602784e+01  -2.175204e+02
   9.610740e+01  -1.541632e+02
   1.250980e+02  -3.159820e+01
   7.463691e+01   4.010223e+01
   3.356589e+01   2.657351e+01
   5.484108e+01  -1.926822e+01
   8.768759e+01  -9.528632e+00
   6.359590e+01   6.055898e+01
  -3.610426e+01   1.140276e+02
  -1.298926e+02   7.370409e+01
  -1.179569e+02  -5.256211e+01
   2.047260e+01  -1.441321e+02
   1.784800e+02  -9.601603e+01
   2.137719e+02   7.261788e+01
   7.889271e+01   2.192598e+02
  -1.293885e+02   2.200355e+02
  -2.595945e+02   7.949736e+01
  -2.284649e+02  -8.504983e+01
  -8.691246e+01  -1.578147e+02
   4.000958e+01  -1.278149e+02
   8.022723e+01  -7.575605e+01
   6.184371e+01  -7.016408e+01
   5.014518e+01  -9.489481e+01
   8.515887e+01  -8.220532e+01
   1.347325e+02   1.551294e+01
   1.232533e+02   1.524134e+02
   2.824202e+01   2.229776e+02
  -1.004789e+02   1.629945e+02
  -1.673630e+02   6.547444e+00
  -1.213244e+02  -1.270731e+02
  -3.286163e+00  -1.515704e+02
   7.684654e+01  -7.267474e+01
   6.275592e+01   2.300299e+01
  -7.803830e+00   5.802964e+01
  -3.570589e+01   3.484415e+01
   2.377437e+01   4.096509e+00
   8.377956e+01   1.218177e+01
   5.314315e+01   4.047062e+01
  -7.377265e+01   4.460082e+01
  -1.758910e+02   9.140376e-01
  -1.425699e+02  -6.934237e+01
   6.254879e+00  -1.063038e+02
   1.369887e+02  -7.393441e+01
   1.438373e+02  -2.127940e+00
   4.140073e+01   5.546398e+01
  -5.976214e+01   5.103953e+01
  -8.155747e+01  -1.343472e+01
  -2.701299e+01  -7.750938e+01
   4.142935e+01  -7.431872e+01
   7.166631e+01  -6.132058e+00
   6.356757e+01   5.133949e+01
   4.487666e+01   4.435460e+01
   4.832018e+01  -3.609450e+00
   6.160700e+01  -7.213701e+00
   5.241189e+01   6.973659e+01
  -1.815981e+01   1.550681e+02
  -1.241771e+02   1.515048e+02
  -1.841759e+02   3.496476e+01
  -1.358916e+02  -9.499361e+01
  -4.844461e+00  -1.379889e+02
   9.364883e+01  -7.576597e+01
   6.677796e+01   6.132300e+00
  -5.126747e+01   2.544277e+01
  -1.280851e+02  -3.240619e+01
  -7.462278e+01  -1.047086e+02
   7.959656e+01  -1.110789e+02
   1.799763e+02  -4.978145e+01
   1.475526e+02   3.389794e+01
   3.036814e+01   7.798157e+01
  -5.912437e+01   5.680627e+01
  -4.248472e+01  -4.430345e+00
   4.158385e+01  -3.422997e+01
   9.347212e+01   1.625716e+01
   4.802226e+01   1.131407e+02
  -6.707573e+01   1.597979e+02
  -1.488595e+02   7.847669e+01
  -1.286707e+02  -8.030657e+01
  -3.130113e+01  -1.866686e+02
   7.217058e+01  -1.397828e+02
   1.022438e+02   1.056716e+01
   5.656206e+01   1.175307e+02
  -1.289723e+01   9.708517e+01
  -5.224300e+01   1.129374e+01
  -3.894036e+01  -3.171590e+01
  -1.238263e+01  -5.597669e+00
  -6.359313e+00   1.867507e+01
  -3.685987e+01  -2.099361e+01
  -6.244258e+01  -8.676618e+01
  -3.058356e+01  -1.004520e+02
   6.102189e+01  -4.237422e+01
   1.362397e+02   3.172800e+01
   1.192495e+02   6.424087e+01
   1.512440e+01   5.541534e+01
  -7.759891e+01   3.257863e+01
  -8.228600e+01   7.624227e+00
  -1.923804e+01  -1.808012e+01
   3.103633e+01  -2.383573e+01
   2.153953e+01  -9.718860e+00
  -1.193260e+01   8.269895e+00
   2.596443e+00   1.837582e+00
   6.255616e+01  -7.504478e+00
   9.187204e+01   1.849258e+01
   2.980837e+01   8.310023e+01
  -9.639830e+01   1.213553e+02
  -1.823245e+02   7.211066e+01
  -1.562819e+02  -4.944628e+01
  -3.938092e+01  -1.531911e+02
   7.410711e+01  -1.543907e+02
   1.119118e+02  -6.804317e+01
   7.932581e+01   1.756169e+01
   2.833649e+01   3.851129e+01
   6.809360e+00   1.480033e+01
   1.672759e+01   8.029139e+00
   2.948641e+01   4.744918e+01
   1.878496e+01   8.928708e+01
  -2.682740e+01   7.362232e+01
  -7.691366e+01  -7.270605e+00
  -8.394204e+01  -9.235170e+01
  -2.235916e+01  -1.075982e+02
   6.941630e+01  -3.916035e+01
   1.058870e+02   5.415272e+01
   4.623583e+01   9.929752e+01
  -5.999414e+01   7.085270e+01
  -1.053490e+02   4.812527e-02
  -4.987055e+01  -5.863285e+01
   3.303050e+01  -6.559602e+01
   4.251172e+01  -2.795386e+01
  -2.184730e+01   1.158834e+01
  -6.584255e+01   1.075004e+01
  -2.139920e+01  -3.054093e+01
   7.202043e+01  -6.860384e+01
   1.173470e+02  -4.991015e+01
   7.186526e+01   2.085341e+01
  -8.230077e+00   8.403261e+01
  -5.565693e+01   8.199749e+01
  -4.937393e+01   1.526467e+01
  -1.454056e+01  -4.941276e+01
   2.049445e+01  -5.101252e+01
   3.817054e+01   4.851493e+00
   3.059901e+01   4.975177e+01
   3.919950e-01   4.000529e+01
  -3.338743e+01  -1.807127e+00
  -4.118403e+01  -2.429977e+01
  -1.820429e+01  -4.528869e+00
   4.674138e+00   2.234086e+01
   3.252828e+00   1.092355e+01
  -1.235359e+01  -3.259460e+01
  -9.079253e+00  -5.816977e+01
   2.570956e+01  -3.136657e+01
   5.074765e+01   3.037444e+01
   2.384467e+01   5.911999e+01
  -3.788005e+01   2.985446e+01
  -6.625125e+01  -2.780372e+01
  -2.356397e+01  -5.864501e+01
   5.598862e+01  -3.947003e+01
   9.486934e+01   5.749644e+00
   5.173979e+01   3.965504e+01
  -2.690896e+01   4.847233e+01
  -6.212366e+01   3.385559e+01
  -2.952961e+01   8.129022e+00
   2.325022e+01  -8.917148e+00
   3.078235e+01  -8.330101e-01
  -1.863126e+01   2.417159e+01
  -7.084273e+01   2.466050e+01
