
 $NMID
 id='ANONYMOUS ', fmtdat='(2E16.6)'
 volume=1.0
 tramp=1.0
 $END
  -2.522118e+03   1.931388e+02
  -1.866183e+03  -1.219401e+03
  -1.122130e+02  -1.759682e+03
   1.084034e+03  -1.056237e+03
   8.478546e+02  -1.538798e+02
   1.152173e+01   2.524498e+02
  -3.956092e+02  -2.780924e+01
  -1.290664e+02  -5.068205e+02
   3.686041e+02  -5.582960e+02
   5.871574e+02  -1.162792e+02
   4.143927e+02   4.287679e+02
   4.496825e+01   5.810979e+02
  -2.820387e+02   1.965636e+02
  -2.833559e+02  -3.465032e+02
   6.225236e+01  -4.960927e+02
   3.747270e+02  -8.178381e+01
   3.181138e+02   4.105445e+02
  -7.412969e+01   5.618680e+02
  -4.051207e+02   2.710829e+02
  -4.085456e+02  -1.376356e+02
  -1.279626e+02  -3.102544e+02
   1.014263e+02  -2.288044e+02
   7.949618e+01  -6.832931e+01
  -1.219346e+02  -5.338448e+01
  -2.310992e+02  -1.898669e+02
  -4.106028e+01  -3.124332e+02
   3.480508e+02  -1.917750e+02
   5.154936e+02   8.686847e+01
   2.254969e+02   3.117486e+02
  -2.400670e+02   2.252816e+02
  -4.321228e+02  -5.706847e+01
  -2.007203e+02  -3.033012e+02
   1.912054e+02  -3.305020e+02
   3.821257e+02  -1.531435e+02
   2.865637e+02   1.104583e+02
   9.840836e+01   2.631223e+02
  -2.806891e+01   1.619449e+02
  -6.548132e-01  -7.949116e+01
   1.310663e+02  -1.803379e+02
   1.927182e+02   8.047628e+01
   7.149004e+01   4.083056e+02
  -1.695263e+02   3.988308e+02
  -3.004794e+02   3.777458e+01
  -1.429172e+02  -2.792995e+02
   1.224287e+02  -1.711351e+02
   1.818865e+02   1.960654e+02
  -4.652129e+01   3.469405e+02
  -3.682860e+02   9.126398e+01
  -4.591099e+02  -2.762985e+02
  -1.772503e+02  -4.230780e+02
   2.345336e+02  -2.655466e+02
   4.600683e+02   1.327866e+00
   3.114295e+02   1.983300e+02
  -3.947608e+00   2.227331e+02
  -2.549380e+02   9.944786e+01
  -2.038409e+02  -2.021565e+01
  -7.166072e+00  -4.109909e+01
   6.911721e+01   3.434956e+01
  -6.820439e+01   7.065754e+01
  -2.058347e+02  -9.552152e+00
  -1.256400e+02  -1.537130e+02
   1.121519e+02  -2.265400e+02
   2.872834e+02  -1.397214e+02
   2.414931e+02   6.968571e+01
   8.203126e+00   2.716104e+02
  -2.271900e+02   3.231364e+02
  -2.941833e+02   1.679535e+02
  -2.091197e+02  -1.127599e+02
  -6.483510e+01  -2.899461e+02
   9.045671e+00  -2.604096e+02
   1.148777e+01  -1.440886e+02
   2.667800e+01  -8.616771e+01
   1.047155e+02  -9.717167e+01
   1.950980e+02  -6.435655e+01
   2.118426e+02   7.712068e+01
   9.769870e+01   2.049921e+02
  -6.060161e+01   1.728083e+02
  -1.625034e+02  -6.000763e+00
  -1.431685e+02  -1.852798e+02
   1.100771e+01  -2.132803e+02
   2.035876e+02  -8.389440e+01
   2.744306e+02   1.092439e+02
   1.668720e+02   2.391906e+02
  -2.948190e+01   2.321142e+02
  -1.339005e+02   1.397395e+02
  -1.144433e+02   6.373572e+01
  -1.063031e+02   6.903951e+01
  -2.192496e+02   6.450678e+01
  -3.456613e+02  -5.075816e+01
  -2.837254e+02  -2.332964e+02
  -1.127113e+01  -3.694751e+02
   2.867762e+02  -3.520081e+02
   3.767761e+02  -1.718122e+02
   2.579319e+02   7.392074e+01
   4.403329e+01   2.205335e+02
  -6.432041e+01   1.807163e+02
  -2.139483e+01   3.501873e+01
   8.536824e+01  -4.799043e+01
   1.079683e+02   1.330067e+01
   2.044949e+01   1.136544e+02
  -8.965087e+01   9.552327e+01
  -9.841888e+01  -3.527857e+01
   1.547611e+01  -1.159293e+02
   1.395682e+02  -1.829830e+01
   1.519757e+02   1.853141e+02
   9.799228e+00   2.956977e+02
  -1.906623e+02   1.999430e+02
  -3.048705e+02  -2.296876e+01
  -2.508359e+02  -2.019081e+02
  -6.376183e+01  -2.341394e+02
   9.882502e+01  -1.273487e+02
   1.240073e+02  -1.769329e+01
   2.864605e+01   6.105162e+00
  -4.755484e+01  -4.846579e+01
  -3.351298e+00  -9.289628e+01
   9.823448e+01  -6.107255e+01
   1.235916e+02   1.229451e+01
   3.037890e+01   4.309626e+01
  -6.687505e+01  -4.611195e+00
  -3.832115e+01  -7.300189e+01
   1.125832e+02  -8.668045e+01
   2.439366e+02  -8.974931e+00
   2.256556e+02   1.211858e+02
   4.250141e+01   2.167103e+02
  -1.524343e+02   2.079193e+02
  -2.059316e+02   9.551271e+01
  -1.144066e+02  -3.089664e+01
   1.773151e+01  -6.611178e+01
   5.359705e+01   1.054226e+00
  -3.908653e+01   7.194968e+01
  -1.528171e+02   4.542525e+01
  -1.621973e+02  -7.287214e+01
  -5.486496e+01  -1.557213e+02
   6.519175e+01  -1.217304e+02
   1.015784e+02  -2.310446e+01
   3.955278e+01   2.872999e+01
  -3.665413e+01  -1.331497e+01
  -2.899210e+01  -8.989214e+01
   7.543266e+01  -1.057475e+02
   1.763933e+02  -2.235361e+01
   1.599249e+02   1.034346e+02
   2.322869e+01   1.753665e+02
  -1.166606e+02   1.349565e+02
  -1.466237e+02   2.093917e+01
  -5.542730e+01  -7.516783e+01
   4.290482e+01  -8.408174e+01
   5.815139e+01  -2.494523e+01
   1.871271e+00   2.135151e+01
  -3.195129e+01   8.080019e+00
   5.657167e+00  -2.643180e+01
   7.517210e+01  -8.965193e+00
   9.441547e+01   7.227864e+01
   1.696719e+01   1.504091e+02
  -1.143272e+02   1.393407e+02
  -2.019953e+02   2.158154e+01
  -1.710532e+02  -1.247865e+02
  -4.432202e+01  -1.935699e+02
   7.485417e+01  -1.419780e+02
   1.056199e+02  -3.369289e+01
   6.724585e+01   3.302534e+01
   3.067336e+01   2.463357e+01
   4.603527e+01  -1.086087e+01
   7.224835e+01  -1.023788e+01
   5.158908e+01   4.564165e+01
  -2.474172e+01   9.482578e+01
  -9.804096e+01   6.423009e+01
  -9.380261e+01  -3.187640e+01
   6.340297e+00  -1.098284e+02
   1.310463e+02  -8.231559e+01
   1.735804e+02   4.308617e+01
   7.910372e+01   1.731844e+02
  -9.459134e+01   1.905206e+02
  -2.175786e+02   7.850414e+01
  -2.083622e+02  -6.719429e+01
  -9.054868e+01  -1.385634e+02
   2.644984e+01  -1.231002e+02
   6.935995e+01  -7.602786e+01
   5.466161e+01  -6.561958e+01
   4.596028e+01  -8.120651e+01
   7.248529e+01  -7.102740e+01
   1.113424e+02   5.334582e+00
   1.089589e+02   1.174643e+02
   3.669633e+01   1.846849e+02
  -7.369628e+01   1.448982e+02
  -1.420451e+02   2.061034e+01
  -1.140438e+02  -9.651803e+01
  -1.884369e+01  -1.276770e+02
   5.631471e+01  -7.123661e+01
   5.220697e+01   7.885936e+00
   1.114063e+00   4.319762e+01
  -2.178125e+01   2.770176e+01
   2.111017e+01   9.818329e+00
   6.961758e+01   1.089185e+01
   4.228331e+01   3.132395e+01
  -5.795634e+01   3.949444e+01
  -1.469264e+02   1.189834e+01
  -1.247775e+02  -4.124666e+01
  -5.887639e+00  -8.343014e+01
   1.056211e+02  -7.430111e+01
   1.185188e+02  -1.868023e+01
   3.721172e+01   3.939470e+01
  -4.874687e+01   3.935880e+01
  -6.679867e+01  -9.384175e+00
  -2.037970e+01  -6.164965e+01
   3.395379e+01  -5.961975e+01
   5.699142e+01  -6.938852e+00
   5.230847e+01   3.928471e+01
   4.441454e+01   3.416790e+01
   4.553321e+01  -1.965382e+00
   5.320913e+01  -6.011014e+00
   4.091979e+01   5.534425e+01
  -1.314736e+01   1.293318e+02
  -9.119796e+01   1.303170e+02
  -1.431980e+02   3.950394e+01
  -1.125152e+02  -7.154577e+01
  -1.206226e+01  -1.100500e+02
   7.027372e+01  -6.223285e+01
   5.349312e+01   9.098756e+00
  -4.532911e+01   2.156801e+01
  -1.126698e+02  -2.680264e+01
  -6.266209e+01  -8.072865e+01
   5.994625e+01  -9.657155e+01
   1.549913e+02  -4.786011e+01
   1.376083e+02   2.313002e+01
   3.171817e+01   7.251562e+01
  -5.361740e+01   5.891179e+01
  -4.368119e+01   4.388786e+00
   3.225744e+01  -2.951994e+01
   7.827818e+01   1.162431e+01
   4.300647e+01   9.621689e+01
  -5.619151e+01   1.371275e+02
  -1.309005e+02   6.985979e+01
  -1.146748e+02  -6.798969e+01
  -2.886531e+01  -1.597297e+02
   5.835540e+01  -1.214976e+02
   8.723205e+01   3.611737e+00
   5.219764e+01   9.363689e+01
  -4.553762e+00   8.451956e+01
  -4.317000e+01   1.464827e+01
  -3.866201e+01  -2.387009e+01
  -1.428673e+01  -4.893787e+00
  -4.934437e+00   1.436292e+01
  -3.016334e+01  -1.773943e+01
  -5.370192e+01  -7.446643e+01
  -3.195917e+01  -8.926436e+01
   4.856638e+01  -4.184404e+01
   1.196075e+02   2.096701e+01
   1.067998e+02   5.347306e+01
   1.658153e+01   4.611833e+01
  -6.818994e+01   2.774256e+01
  -7.049713e+01   8.589849e+00
  -1.311349e+01  -9.462106e+00
   2.608590e+01  -2.014058e+01
   1.364494e+01  -1.167603e+01
  -1.359908e+01   2.197808e+00
   3.254747e+00   1.777880e+00
   5.863602e+01  -7.298211e+00
   8.165546e+01   1.025727e+01
   2.636347e+01   6.531085e+01
  -7.818020e+01   1.044335e+02
  -1.492729e+02   7.254044e+01
  -1.295241e+02  -3.543902e+01
  -3.783516e+01  -1.282298e+02
   5.341103e+01  -1.331980e+02
   9.180945e+01  -6.209440e+01
   6.959973e+01   1.023799e+01
   2.686755e+01   3.214408e+01
   4.419210e+00   1.158577e+01
   1.053028e+01   5.746109e+00
   2.507397e+01   3.789658e+01
   2.129119e+01   7.501241e+01
  -1.851118e+01   6.212749e+01
  -6.716104e+01  -7.457057e+00
  -7.390169e+01  -7.991094e+01
  -2.048081e+01  -9.235897e+01
   6.073723e+01  -3.207434e+01
   9.158619e+01   4.580281e+01
   3.876867e+01   8.295167e+01
  -5.043552e+01   5.779077e+01
  -8.694354e+01   1.021281e+00
  -4.096998e+01  -4.539590e+01
   2.500376e+01  -5.472888e+01
   3.313922e+01  -2.787256e+01
  -2.114203e+01   6.180152e+00
  -5.699011e+01   9.873546e+00
  -1.773074e+01  -2.382993e+01
   6.065444e+01  -5.974969e+01
   9.718414e+01  -5.054519e+01
   6.242693e+01   1.223922e+01
  -3.951189e+00   7.194199e+01
  -4.401351e+01   7.231780e+01
  -3.858925e+01   1.210453e+01
  -8.825129e+00  -4.397164e+01
   1.796060e+01  -4.128600e+01
   3.131793e+01   5.719571e+00
   2.686813e+01   4.315317e+01
   1.793107e+00   3.287203e+01
  -2.745911e+01  -1.917220e+00
  -3.528368e+01  -1.917997e+01
  -1.815767e+01  -1.255086e+00
   3.451291e+00   1.743932e+01
   4.804426e+00   7.023797e+00
  -6.262260e+00  -2.855938e+01
  -2.752030e+00  -4.725709e+01
   2.320862e+01  -2.044253e+01
   3.931599e+01   2.647014e+01
   1.541199e+01   5.042775e+01
  -3.211411e+01   2.519208e+01
  -5.651869e+01  -2.267974e+01
  -2.072447e+01  -4.912391e+01
   4.537772e+01  -3.303547e+01
   7.915220e+01   4.177406e+00
   4.413239e+01   3.320619e+01
  -2.277989e+01   3.977372e+01
  -5.281502e+01   2.624129e+01
  -2.221416e+01   5.820677e+00
   2.287314e+01  -5.180473e+00
   2.747383e+01   3.656470e+00
  -1.558271e+01   2.412413e+01
  -6.256216e+01   2.521824e+01
