
 $NMID
 id='ANONYMOUS ', fmtdat='(2E16.6)'
 volume=1.0
 tramp=1.0
 $END
  -3.001293e+03  -2.372039e+01
  -2.026839e+03  -1.624305e+03
   1.005892e+02  -2.030108e+03
   1.315451e+03  -1.090493e+03
   9.047155e+02  -3.088365e+01
  -8.158658e+01   2.764474e+02
  -4.501726e+02  -1.478628e+02
  -3.151127e+01  -6.078876e+02
   4.957807e+02  -5.734661e+02
   6.525183e+02  -5.167910e+01
   3.950098e+02   5.349382e+02
  -3.925006e+01   6.385830e+02
  -3.179847e+02   1.595278e+02
  -2.442216e+02  -4.311185e+02
   1.328482e+02  -5.279162e+02
   4.015987e+02  -7.394294e+01
   2.606934e+02   4.802510e+02
  -1.486369e+02   5.645301e+02
  -4.655049e+02   2.047236e+02
  -3.991087e+02  -2.145510e+02
  -9.570181e+01  -3.487357e+02
   1.402765e+02  -2.152672e+02
   1.075086e+02  -5.680592e+01
  -1.480040e+02  -6.386431e+01
  -2.853806e+02  -2.342022e+02
  -1.982260e+01  -3.415498e+02
   4.364525e+02  -1.987355e+02
   5.918755e+02   1.398057e+02
   2.563877e+02   3.488821e+02
  -3.008989e+02   2.500918e+02
  -5.030975e+02  -9.042753e+01
  -2.088772e+02  -3.571466e+02
   2.450129e+02  -3.705307e+02
   4.333282e+02  -1.356620e+02
   3.022666e+02   1.634115e+02
   6.190600e+01   3.208835e+02
  -7.174848e+01   1.810234e+02
  -2.818290e+00  -1.100961e+02
   1.589324e+02  -1.920583e+02
   2.214467e+02   1.007355e+02
   5.804636e+01   4.605326e+02
  -2.207366e+02   4.332588e+02
  -3.351798e+02   3.650322e+00
  -1.390751e+02  -3.220505e+02
   1.326621e+02  -1.661763e+02
   1.802712e+02   2.585956e+02
  -9.809019e+01   3.744119e+02
  -4.151947e+02   6.995658e+01
  -4.385429e+02  -3.411879e+02
  -1.330338e+02  -4.654561e+02
   2.947230e+02  -2.529211e+02
   4.888197e+02   6.343609e+01
   3.209867e+02   2.650596e+02
  -5.657103e+01   2.406301e+02
  -2.920911e+02   6.999852e+01
  -2.078371e+02  -4.853250e+01
   3.172938e+00  -2.414642e+01
   6.142679e+01   5.231334e+01
  -9.264682e+01   6.485441e+01
  -2.182524e+02  -5.668908e+01
  -1.195457e+02  -1.884564e+02
   1.515482e+02  -2.133313e+02
   3.049293e+02  -8.847065e+01
   2.141681e+02   1.101488e+02
  -4.289032e+01   2.719830e+02
  -2.679560e+02   3.061895e+02
  -3.224911e+02   1.318248e+02
  -2.090617e+02  -1.484615e+02
  -5.128149e+01  -3.335712e+02
   4.526606e+01  -2.934051e+02
   4.437580e+01  -1.499754e+02
   4.145411e+01  -7.054823e+01
   1.113201e+02  -1.019661e+02
   2.132223e+02  -6.814637e+01
   2.180422e+02   8.858835e+01
   9.493593e+01   2.346831e+02
  -8.091691e+01   1.879438e+02
  -1.732994e+02  -3.087712e+01
  -1.243318e+02  -2.226878e+02
   4.191323e+01  -2.249351e+02
   2.188765e+02  -5.471733e+01
   2.784469e+02   1.582016e+02
   1.494701e+02   2.796830e+02
  -5.617833e+01   2.479802e+02
  -1.689403e+02   1.324333e+02
  -1.411900e+02   5.549097e+01
  -1.224389e+02   4.984069e+01
  -2.394362e+02   3.779761e+01
  -3.667111e+02  -7.935119e+01
  -2.880811e+02  -2.724335e+02
   2.936399e+01  -3.972165e+02
   3.529686e+02  -3.470584e+02
   4.406730e+02  -1.482946e+02
   2.620968e+02   9.709803e+01
   1.948568e+01   2.384978e+02
  -9.648920e+01   1.906144e+02
  -2.249466e+01   3.747630e+01
   9.968433e+01  -4.598445e+01
   1.244269e+02   2.772747e+01
   1.036626e+01   1.358104e+02
  -1.175106e+02   1.058102e+02
  -1.053589e+02  -5.472417e+01
   2.849159e+01  -1.308437e+02
   1.498702e+02  -5.570681e+00
   1.324771e+02   2.176354e+02
  -2.180621e+01   3.049492e+02
  -2.183535e+02   1.778083e+02
  -3.099354e+02  -6.467649e+01
  -2.365686e+02  -2.416163e+02
  -4.788611e+01  -2.452014e+02
   1.167593e+02  -1.205938e+02
   1.379737e+02   9.303717e-02
   3.183306e+01   1.918838e+01
  -4.987072e+01  -5.320798e+01
   1.067968e+00  -1.024956e+02
   1.151896e+02  -6.148714e+01
   1.401554e+02   2.624587e+01
   3.414342e+01   5.343318e+01
  -7.156275e+01  -9.918277e+00
  -3.660556e+01  -7.900385e+01
   1.342092e+02  -7.272074e+01
   2.678330e+02   2.219773e+01
   2.254892e+02   1.532572e+02
   1.899063e+01   2.371425e+02
  -1.904890e+02   2.140238e+02
  -2.458537e+02   8.705257e+01
  -1.259192e+02  -4.652342e+01
   2.328515e+01  -7.620184e+01
   5.670099e+01   3.132731e+00
  -4.909168e+01   7.353415e+01
  -1.639327e+02   2.995858e+01
  -1.640311e+02  -9.739688e+01
  -4.698914e+01  -1.728681e+02
   8.242815e+01  -1.225827e+02
   1.156438e+02  -1.577586e+01
   4.410458e+01   3.551260e+01
  -3.739522e+01  -1.524478e+01
  -2.308590e+01  -9.678995e+01
   8.977715e+01  -1.041320e+02
   1.915735e+02  -7.715203e+00
   1.621003e+02   1.228105e+02
   6.180903e+00   1.882349e+02
  -1.472465e+02   1.333611e+02
  -1.583297e+02   6.725188e+00
  -4.821482e+01  -9.001800e+01
   6.040278e+01  -8.566883e+01
   6.766997e+01  -1.736719e+01
   4.608899e+00   2.555149e+01
  -3.341412e+01   8.474533e+00
   7.547732e+00  -2.113157e+01
   7.853085e+01   9.422163e-01
   8.984838e+01   8.193056e+01
   5.820827e+00   1.533707e+02
  -1.278942e+02   1.344051e+02
  -2.117055e+02   5.707171e+00
  -1.704904e+02  -1.454064e+02
  -3.189793e+01  -2.083193e+02
   9.447321e+01  -1.431257e+02
   1.199088e+02  -2.260829e+01
   6.672922e+01   4.537243e+01
   2.866179e+01   3.007477e+01
   5.083762e+01  -1.436381e+01
   7.602376e+01  -3.107482e+00
   4.642055e+01   5.268654e+01
  -4.024964e+01   9.164500e+01
  -1.097541e+02   5.462478e+01
  -9.315432e+01  -4.280608e+01
   1.877128e+01  -1.138442e+02
   1.485674e+02  -7.558960e+01
   1.838179e+02   6.356728e+01
   7.405813e+01   1.931090e+02
  -1.131029e+02   1.943075e+02
  -2.415031e+02   6.752138e+01
  -2.148813e+02  -8.438957e+01
  -8.706828e+01  -1.541447e+02
   3.696823e+01  -1.256136e+02
   8.369367e+01  -7.113681e+01
   6.804720e+01  -5.998593e+01
   5.502165e+01  -8.066009e+01
   8.188964e+01  -6.753131e+01
   1.182054e+02   2.144918e+01
   1.053555e+02   1.421448e+02
   1.989860e+01   2.050965e+02
  -9.216408e+01   1.489214e+02
  -1.511839e+02   9.774415e+00
  -1.087740e+02  -1.149899e+02
  -6.656856e+00  -1.405117e+02
   6.612811e+01  -7.121542e+01
   5.442869e+01   1.554012e+01
  -4.667410e+00   4.886427e+01
  -2.431592e+01   3.256055e+01
   2.452131e+01   9.165855e+00
   7.423750e+01   1.787611e+01
   4.354629e+01   3.734088e+01
  -6.561397e+01   3.467152e+01
  -1.509495e+02  -5.094905e+00
  -1.271836e+02  -5.846782e+01
   2.593617e+00  -8.681708e+01
   1.192667e+02  -6.207862e+01
   1.291432e+02   4.885890e-01
   3.790585e+01   4.760044e+01
  -5.649127e+01   4.147015e+01
  -7.074591e+01  -1.885222e+01
  -1.493848e+01  -6.717014e+01
   4.467574e+01  -5.873899e+01
   6.085050e+01  -1.471532e-02
   4.989048e+01   4.582891e+01
   4.047170e+01   3.997378e+01
   5.088368e+01   6.460897e-01
   5.708458e+01  -1.416334e+00
   3.985196e+01   6.400426e+01
  -2.384279e+01   1.352945e+02
  -1.117962e+02   1.268233e+02
  -1.592108e+02   2.468850e+01
  -1.130255e+02  -8.693623e+01
   1.643207e+00  -1.180340e+02
   8.458401e+01  -5.647445e+01
   5.520926e+01   1.232025e+01
  -5.000242e+01   1.895751e+01
  -1.167349e+02  -3.755645e+01
  -6.422198e+01  -9.747974e+01
   7.739619e+01  -9.544017e+01
   1.675283e+02  -3.331571e+01
   1.372611e+02   4.225876e+01
   2.792988e+01   7.584885e+01
  -5.479918e+01   5.208250e+01
  -4.172172e+01  -2.839289e+00
   3.715535e+01  -2.715508e+01
   8.203767e+01   1.853696e+01
   3.121301e+01   1.044640e+02
  -7.487429e+01   1.366071e+02
  -1.420361e+02   5.882329e+01
  -1.083248e+02  -8.390087e+01
  -5.530197e+00  -1.752784e+02
   7.861798e+01  -1.206403e+02
   9.304002e+01   1.555649e+01
   4.337694e+01   1.106551e+02
  -1.616415e+01   9.273509e+01
  -4.600289e+01   1.116960e+01
  -3.949984e+01  -3.146759e+01
  -1.708061e+01  -5.237629e+00
  -7.344851e+00   1.687804e+01
  -2.804867e+01  -2.051722e+01
  -4.904936e+01  -8.171997e+01
  -2.317479e+01  -9.453174e+01
   5.011387e+01  -3.638133e+01
   1.192556e+02   3.626581e+01
   1.044754e+02   6.399059e+01
   1.418394e+01   4.796905e+01
  -7.460337e+01   2.242428e+01
  -7.606671e+01   1.528585e+00
  -1.186999e+01  -1.517307e+01
   3.396251e+01  -1.972900e+01
   1.773752e+01  -1.049379e+01
  -1.197898e+01   4.198821e+00
   3.760660e+00   5.506484e+00
   5.914672e+01   2.587202e+00
   7.964769e+01   2.128063e+01
   1.548340e+01   7.449275e+01
  -9.801795e+01   1.029703e+02
  -1.660620e+02   5.040175e+01
  -1.322192e+02  -6.079989e+01
  -2.301273e+01  -1.449767e+02
   7.905284e+01  -1.342240e+02
   1.067684e+02  -5.147014e+01
   7.043758e+01   2.295326e+01
   1.883381e+01   3.524207e+01
   2.553182e-01   1.058640e+01
   1.193645e+01   5.980860e+00
   2.808190e+01   4.395062e+01
   1.369766e+01   8.125892e+01
  -2.787614e+01   6.250496e+01
  -6.944513e+01  -1.493129e+01
  -6.866052e+01  -9.078445e+01
  -7.951837e+00  -9.688131e+01
   6.864562e+01  -2.625300e+01
   9.240359e+01   6.054605e+01
   3.295193e+01   9.225327e+01
  -5.902519e+01   5.676938e+01
  -9.330853e+01  -8.019848e+00
  -4.087679e+01  -5.253018e+01
   3.096684e+01  -5.421635e+01
   3.552485e+01  -2.535303e+01
  -2.389445e+01   4.245955e+00
  -6.131171e+01   5.349339e+00
  -1.573804e+01  -2.674162e+01
   7.122841e+01  -5.811181e+01
   1.101052e+02  -4.365993e+01
   6.095645e+01   1.835492e+01
  -1.508334e+01   7.525196e+01
  -5.377629e+01   7.067422e+01
  -4.094310e+01   8.225976e+00
  -4.943205e+00  -4.881742e+01
   2.459310e+01  -4.226410e+01
   3.444579e+01   1.117422e+01
   2.434378e+01   4.949073e+01
  -2.581550e+00   3.649830e+01
  -2.954225e+01  -5.393596e+00
  -3.582076e+01  -2.405608e+01
  -1.707171e+01  -4.512291e+00
   2.393706e+00   1.902546e+01
   7.851644e+00   7.393021e+00
  -8.654770e-01  -2.924194e+01
   2.996523e+00  -4.669019e+01
   2.411235e+01  -2.093501e+01
   3.499203e+01   3.367009e+01
   1.071714e+01   5.468563e+01
  -3.689003e+01   2.295275e+01
  -5.685708e+01  -3.078263e+01
  -1.894148e+01  -5.488831e+01
   5.057812e+01  -3.237659e+01
   8.486209e+01   1.002499e+01
   4.596765e+01   3.882188e+01
  -2.595911e+01   4.115444e+01
  -5.823607e+01   2.493600e+01
  -2.602092e+01   5.116021e+00
   2.674066e+01  -2.421514e+00
   3.050870e+01   7.538497e+00
  -2.240814e+01   2.483055e+01
  -7.294283e+01   1.882276e+01
