
 $NMID
 id='ANONYMOUS ', fmtdat='(2E16.6)'
 volume=1.0
 tramp=1.0
 $END
   3.671298e+03  -1.578419e+01
   2.410414e+03   1.917406e+03
  -1.678779e+02   2.292256e+03
  -1.588939e+03   1.226044e+03
  -1.069545e+03  -9.891367e+01
   1.758731e+02  -4.250372e+02
   6.139258e+02   1.513977e+02
   9.186975e+01   7.409163e+02
  -5.651942e+02   6.896550e+02
  -7.955565e+02   4.583173e+01
  -4.740795e+02  -6.624675e+02
   9.170450e+01  -7.786893e+02
   4.605473e+02  -1.833651e+02
   3.292305e+02   5.488982e+02
  -1.705059e+02   6.435797e+02
  -5.258091e+02   7.098893e+01
  -3.024774e+02  -5.882253e+02
   2.150531e+02  -6.658985e+02
   5.586965e+02  -2.035611e+02
   4.465482e+02   2.738837e+02
   9.722696e+01   4.108802e+02
  -1.688694e+02   2.589288e+02
  -1.293003e+02   6.375777e+01
   1.503717e+02   3.522774e+01
   3.165750e+02   2.000667e+02
   6.669073e+01   3.684805e+02
  -4.822810e+02   2.581602e+02
  -7.202390e+02  -1.383564e+02
  -3.215398e+02  -4.522939e+02
   3.530887e+02  -3.354006e+02
   6.124061e+02   6.081238e+01
   2.701271e+02   4.115037e+02
  -2.553452e+02   4.316927e+02
  -5.011351e+02   1.594092e+02
  -3.735056e+02  -1.997380e+02
  -8.895568e+01  -3.865071e+02
   1.034944e+02  -2.545905e+02
   5.622150e+01   1.187253e+02
  -1.458161e+02   2.625005e+02
  -2.853742e+02  -7.014076e+01
  -1.154121e+02  -5.092516e+02
   2.360297e+02  -5.294769e+02
   4.231605e+02  -3.177453e+01
   1.882452e+02   3.608054e+02
  -1.985771e+02   2.085678e+02
  -2.765614e+02  -2.766926e+02
   8.628548e+01  -4.532538e+02
   5.000655e+02  -1.042679e+02
   5.287495e+02   3.849970e+02
   1.674420e+02   5.462540e+02
  -3.374979e+02   3.107294e+02
  -5.662672e+02  -7.659698e+01
  -3.738846e+02  -3.196517e+02
   6.251317e+01  -2.787593e+02
   3.443625e+02  -8.411516e+01
   2.391036e+02   8.194507e+01
  -3.450899e+01   5.786453e+01
  -9.619349e+01  -7.922443e+01
   1.174203e+02  -1.049170e+02
   2.796752e+02   5.555389e+01
   1.506494e+02   2.462759e+02
  -1.820003e+02   2.653352e+02
  -3.664875e+02   1.125178e+02
  -2.599387e+02  -1.246571e+02
   3.169451e+01  -3.244599e+02
   2.926026e+02  -3.634358e+02
   3.739143e+02  -1.629655e+02
   2.616537e+02   1.734819e+02
   5.727547e+01   3.937998e+02
  -6.988997e+01   3.453365e+02
  -6.751538e+01   1.544446e+02
  -3.440372e+01   6.544087e+01
  -1.050376e+02   1.012381e+02
  -2.270579e+02   8.449355e+01
  -2.476201e+02  -9.631333e+01
  -1.095819e+02  -2.605704e+02
   9.634039e+01  -2.184299e+02
   2.130176e+02   3.280542e+01
   1.558060e+02   2.574495e+02
  -4.695463e+01   2.763652e+02
  -2.657084e+02   8.109757e+01
  -3.338556e+02  -1.853219e+02
  -1.665294e+02  -3.355339e+02
   8.468391e+01  -2.898358e+02
   2.052810e+02  -1.422184e+02
   1.539047e+02  -5.030313e+01
   1.334747e+02  -4.921002e+01
   2.675305e+02  -4.266481e+01
   4.087098e+02   8.214249e+01
   3.216297e+02   2.988523e+02
  -2.953685e+01   4.555700e+02
  -3.932171e+02   4.056628e+02
  -4.984783e+02   1.765058e+02
  -3.036535e+02  -1.115799e+02
  -2.335276e+01  -2.722746e+02
   1.100640e+02  -2.172643e+02
   3.355834e+01  -3.363436e+01
  -1.172362e+02   6.722877e+01
  -1.548839e+02  -3.043069e+01
  -2.139198e+01  -1.629828e+02
   1.344518e+02  -1.322228e+02
   1.327661e+02   6.064366e+01
  -2.887152e+01   1.566974e+02
  -1.796502e+02   7.816830e+00
  -1.522679e+02  -2.492376e+02
   4.025887e+01  -3.498063e+02
   2.605983e+02  -1.951958e+02
   3.522553e+02   7.967756e+01
   2.656915e+02   2.738624e+02
   5.419200e+01   2.762379e+02
  -1.329270e+02   1.472800e+02
  -1.638085e+02   7.157967e+00
  -4.749585e+01  -2.866415e+01
   5.560500e+01   5.169178e+01
   4.404560e+00   1.177103e+02
  -1.265641e+02   7.914794e+01
  -1.591906e+02  -2.352404e+01
  -4.138037e+01  -6.436065e+01
   8.182401e+01   2.360904e+00
   3.979004e+01   8.952555e+01
  -1.504915e+02   8.513974e+01
  -3.034324e+02  -2.893712e+01
  -2.579622e+02  -1.799640e+02
  -2.564654e+01  -2.719370e+02
   2.164874e+02  -2.428474e+02
   2.845854e+02  -1.012561e+02
   1.503546e+02   5.655338e+01
  -2.871483e+01   9.268258e+01
  -7.311205e+01  -5.541056e-01
   4.791483e+01  -8.807515e+01
   1.876215e+02  -4.080015e+01
   1.969134e+02   1.098089e+02
   5.402339e+01   2.003250e+02
  -9.739305e+01   1.458525e+02
  -1.354630e+02   1.813126e+01
  -5.447955e+01  -4.331151e+01
   3.804046e+01   1.199706e+01
   2.459081e+01   1.038094e+02
  -9.813423e+01   1.168242e+02
  -2.125887e+02   1.180302e+01
  -1.805403e+02  -1.389865e+02
  -4.161169e+00  -2.173538e+02
   1.706470e+02  -1.561318e+02
   1.855440e+02  -4.103134e+00
   5.752447e+01   1.085042e+02
  -6.994725e+01   1.028097e+02
  -7.826693e+01   2.339691e+01
  -7.626899e+00  -2.605252e+01
   3.241111e+01  -1.100836e+01
  -1.083589e+01   2.073485e+01
  -8.435378e+01  -4.576954e+00
  -9.631171e+01  -9.647854e+01
  -2.659458e+00  -1.734103e+02
   1.471460e+02  -1.472606e+02
   2.411146e+02  -2.314651e+00
   1.923386e+02   1.666514e+02
   3.222877e+01   2.353324e+02
  -1.131190e+02   1.594521e+02
  -1.359751e+02   2.415963e+01
  -7.305717e+01  -4.965834e+01
  -3.027463e+01  -2.973372e+01
  -5.783607e+01   1.409059e+01
  -8.605884e+01   2.552718e+00
  -4.975771e+01  -6.243006e+01
   5.016199e+01  -1.018334e+02
   1.245010e+02  -5.738935e+01
   9.955719e+01   5.066552e+01
  -2.413907e+01   1.256599e+02
  -1.643088e+02   8.508292e+01
  -2.029185e+02  -6.892269e+01
  -8.273419e+01  -2.123649e+02
   1.263656e+02  -2.227444e+02
   2.679558e+02  -8.273159e+01
   2.450737e+02   9.551634e+01
   9.745842e+01   1.771914e+02
  -4.436142e+01   1.393813e+02
  -9.142668e+01   7.779473e+01
  -7.285804e+01   6.932835e+01
  -6.436137e+01   9.627351e+01
  -9.773942e+01   7.802327e+01
  -1.349721e+02  -2.454074e+01
  -1.180908e+02  -1.602880e+02
  -2.212612e+01  -2.293427e+02
   1.038886e+02  -1.649525e+02
   1.734090e+02  -7.251189e+00
   1.280149e+02   1.333930e+02
   8.913285e+00   1.595003e+02
  -7.803890e+01   7.964797e+01
  -6.449849e+01  -1.881197e+01
   4.520148e+00  -5.288685e+01
   2.466250e+01  -3.198157e+01
  -2.978970e+01  -9.775248e+00
  -8.325886e+01  -2.147245e+01
  -4.589234e+01  -4.227874e+01
   7.498688e+01  -3.734358e+01
   1.714403e+02   9.880180e+00
   1.410288e+02   6.469682e+01
  -1.174337e+00   9.618649e+01
  -1.339206e+02   7.237330e+01
  -1.482130e+02   4.148101e+00
  -4.423640e+01  -5.342138e+01
   6.362555e+01  -4.624858e+01
   7.982771e+01   2.122003e+01
   1.478691e+01   7.832821e+01
  -5.340331e+01   6.445909e+01
  -6.895677e+01  -4.355426e+00
  -5.070859e+01  -5.562573e+01
  -4.516413e+01  -4.304417e+01
  -5.822283e+01  -3.322748e+00
  -6.745656e+01  -4.646438e+00
  -3.916247e+01  -7.767697e+01
   3.730148e+01  -1.521754e+02
   1.335531e+02  -1.378635e+02
   1.800482e+02  -2.459516e+01
   1.257915e+02   9.956345e+01
  -2.949892e+00   1.331579e+02
  -9.654665e+01   6.418602e+01
  -6.319954e+01  -1.496717e+01
   6.203746e+01  -1.935997e+01
   1.338284e+02   4.462399e+01
   7.360843e+01   1.149016e+02
  -8.554286e+01   1.084074e+02
  -1.887262e+02   3.948067e+01
  -1.524854e+02  -4.707125e+01
  -2.816654e+01  -8.608193e+01
   6.429146e+01  -5.909398e+01
   4.542216e+01   1.301967e+00
  -4.060911e+01   2.993500e+01
  -9.165289e+01  -2.366196e+01
  -3.481897e+01  -1.198988e+02
   9.104533e+01  -1.575861e+02
   1.637562e+02  -6.316446e+01
   1.241435e+02   1.030167e+02
   8.072654e+00   2.004096e+02
  -9.160649e+01   1.406491e+02
  -1.065360e+02  -1.597516e+01
  -5.271332e+01  -1.281460e+02
   1.591384e+01  -1.048998e+02
   5.154942e+01  -1.394559e+01
   4.484061e+01   3.274951e+01
   1.631607e+01   6.340721e+00
   5.829341e+00  -2.004380e+01
   2.936202e+01   2.054297e+01
   5.678194e+01   8.850290e+01
   3.207757e+01   1.076488e+02
  -5.765250e+01   4.402054e+01
  -1.397850e+02  -4.212757e+01
  -1.217327e+02  -7.989040e+01
  -1.471617e+01  -5.805284e+01
   8.775297e+01  -2.505940e+01
   8.997065e+01   7.605608e-01
   1.415126e+01   1.501208e+01
  -3.797079e+01   2.117546e+01
  -2.040704e+01   1.137365e+01
   1.517743e+01  -3.959395e+00
  -3.893075e+00  -6.878352e+00
  -6.914085e+01  -4.578373e-01
  -9.243749e+01  -2.621752e+01
  -1.486656e+01  -8.619837e+01
   1.203740e+02  -1.182350e+02
   1.969319e+02  -5.423342e+01
   1.493508e+02   7.387101e+01
   2.078355e+01   1.662079e+02
  -9.321754e+01   1.536714e+02
  -1.217317e+02   6.120146e+01
  -7.931870e+01  -2.423397e+01
  -2.284661e+01  -4.109802e+01
  -9.405485e-01  -1.276552e+01
  -1.569880e+01  -7.420311e+00
  -3.230617e+01  -4.877313e+01
  -1.548584e+01  -9.260428e+01
   3.411858e+01  -7.161203e+01
   8.051773e+01   1.867789e+01
   7.741777e+01   1.067007e+02
   7.952053e+00   1.112686e+02
  -8.134931e+01   2.802665e+01
  -1.077248e+02  -7.324176e+01
  -3.520645e+01  -1.082424e+02
   6.829885e+01  -6.229481e+01
   1.043738e+02   1.150373e+01
   4.393132e+01   5.848251e+01
  -3.418904e+01   5.764390e+01
  -3.621768e+01   2.619295e+01
   2.893880e+01  -3.952698e+00
   6.838705e+01  -6.181795e+00
   1.641134e+01   2.990929e+01
  -7.979697e+01   6.609029e+01
  -1.226376e+02   5.269712e+01
  -7.045916e+01  -2.061326e+01
   1.635419e+01  -8.789809e+01
   6.227512e+01  -8.105931e+01
   4.585949e+01  -6.011942e+00
   3.924900e+00   5.582104e+01
  -2.924176e+01   4.747157e+01
  -3.964385e+01  -1.443048e+01
  -2.691575e+01  -5.696986e+01
   5.165476e+00  -4.046004e+01
   3.527968e+01   7.439732e+00
   4.152097e+01   2.704349e+01
   2.033317e+01   5.227529e+00
  -2.779402e+00  -2.066131e+01
  -6.614925e+00  -6.277376e+00
   1.055739e+00   3.614392e+01
  -5.575708e+00   5.409887e+01
  -2.958531e+01   2.136777e+01
  -3.940862e+01  -3.947525e+01
  -1.113425e+01  -6.253417e+01
   4.167810e+01  -2.483405e+01
   6.264215e+01   3.571483e+01
   1.929406e+01   6.164844e+01
  -5.783226e+01   3.608635e+01
  -9.326789e+01  -1.112031e+01
  -4.954355e+01  -4.406562e+01
   2.885924e+01  -4.548309e+01
   6.530049e+01  -2.682105e+01
   2.791588e+01  -6.552905e+00
  -3.164909e+01   3.404830e+00
  -3.451232e+01  -8.469237e+00
   2.619217e+01  -2.831429e+01
   8.362472e+01  -2.166472e+01
