
 $NMID
 id='ANONYMOUS ', fmtdat='(2E16.6)'
 volume=1.0
 tramp=1.0
 $END
  -2.173487e+03   1.539024e+02
  -1.899986e+03  -8.181789e+02
  -4.627192e+02  -1.643774e+03
   8.116891e+02  -1.298576e+03
   9.312629e+02  -4.131996e+02
   2.556181e+02   1.822799e+02
  -2.388371e+02   7.883475e+01
  -1.420875e+02  -3.709758e+02
   2.505168e+02  -5.081640e+02
   4.979000e+02  -1.786638e+02
   4.106608e+02   3.314305e+02
   1.009634e+02   5.309692e+02
  -1.765301e+02   2.402840e+02
  -2.297638e+02  -2.508799e+02
   3.216468e+01  -4.160285e+02
   2.946756e+02  -1.428657e+02
   2.791701e+02   3.556207e+02
  -4.738930e+01   5.339080e+02
  -3.933654e+02   2.876695e+02
  -3.976835e+02  -1.149346e+02
  -1.614723e+02  -3.032588e+02
   5.014139e+01  -2.290410e+02
   3.898727e+01  -1.034780e+02
  -1.100745e+02  -1.086771e+02
  -1.555101e+02  -2.184030e+02
   3.231203e+01  -2.344882e+02
   3.320264e+02  -8.698167e+01
   4.328896e+02   1.209654e+02
   1.928357e+02   2.103063e+02
  -1.946538e+02   1.303821e+02
  -3.432232e+02  -6.917497e+01
  -1.527154e+02  -2.348931e+02
   1.756929e+02  -2.472412e+02
   3.352789e+02  -1.061108e+02
   2.691107e+02   9.220331e+01
   1.026725e+02   2.133994e+02
   2.734309e+01   1.698077e+02
   6.796899e+01  -5.487663e+00
   1.053846e+02  -5.092985e+01
   9.091704e+01   9.890129e+01
   7.274270e-01   3.148709e+02
  -1.226823e+02   3.231844e+02
  -2.102944e+02   6.809600e+01
  -1.291899e+02  -1.630227e+02
   6.154363e+01  -1.152505e+02
   1.203431e+02   1.612854e+02
  -6.157135e+01   2.723655e+02
  -3.202175e+02   6.693073e+01
  -3.708008e+02  -2.610709e+02
  -1.417958e+02  -3.844323e+02
   2.136495e+02  -2.206252e+02
   3.881085e+02   3.955895e+01
   2.913627e+02   1.799394e+02
   1.393485e+01   1.597628e+02
  -2.007164e+02   9.438945e+01
  -1.986706e+02   4.450326e+00
  -4.305985e+01  -2.614307e+01
   4.610053e+01   5.696778e+00
  -4.656885e+01   3.465277e+01
  -1.799009e+02  -1.884348e+01
  -1.343593e+02  -1.356517e+02
   1.029469e+02  -2.020002e+02
   2.941977e+02  -1.184905e+02
   2.333700e+02   1.010979e+02
  -3.731104e+01   2.808581e+02
  -2.575830e+02   2.848194e+02
  -2.862021e+02   1.087443e+02
  -1.685083e+02  -1.136202e+02
  -5.505288e+01  -2.522418e+02
  -2.467355e+01  -2.549799e+02
  -2.349206e-01  -1.809413e+02
   4.878908e+01  -1.200824e+02
   1.437090e+02  -8.693194e+01
   2.035447e+02  -2.522422e+01
   1.753245e+02   9.964662e+01
   6.431815e+01   1.878634e+02
  -6.488928e+01   1.411048e+02
  -1.391096e+02  -3.884534e+01
  -9.558176e+01  -1.881244e+02
   4.493351e+01  -1.900817e+02
   1.849378e+02  -3.948068e+01
   2.322526e+02   1.356589e+02
   1.375221e+02   2.287805e+02
  -1.682787e+01   2.100406e+02
  -1.204132e+02   1.410988e+02
  -1.307733e+02   8.609927e+01
  -1.442289e+02   5.899481e+01
  -2.354644e+02   1.559395e+01
  -3.210012e+02  -8.600862e+01
  -2.521725e+02  -2.347443e+02
   1.336584e+01  -3.429111e+02
   2.999212e+02  -3.121158e+02
   3.831427e+02  -1.441622e+02
   2.166703e+02   6.752080e+01
   1.204412e+01   1.799042e+02
  -5.844108e+01   1.474929e+02
   1.060072e+01   4.485028e+01
   8.148311e+01  -1.060603e+01
   7.881930e+01   2.861093e+01
   6.630219e-01   8.521605e+01
  -6.448731e+01   6.402584e+01
  -6.446380e+01  -3.597585e+01
   1.827966e+01  -8.817837e+01
   1.131961e+02   5.955503e+00
   1.113300e+02   1.777719e+02
  -1.338039e+01   2.744857e+02
  -1.977877e+02   1.714286e+02
  -2.926153e+02  -5.366640e+01
  -2.200814e+02  -2.193527e+02
  -3.874571e+01  -2.178095e+02
   1.039955e+02  -1.088033e+02
   1.185371e+02  -5.698393e+00
   3.131683e+01   4.464187e+00
  -3.114023e+01  -4.723546e+01
   7.173762e+00  -7.894881e+01
   9.101899e+01  -4.634533e+01
   1.066628e+02   1.860196e+01
   2.318117e+01   3.414568e+01
  -6.212327e+01  -1.685914e+01
  -2.027889e+01  -7.737369e+01
   1.356280e+02  -6.559511e+01
   2.532568e+02   3.154468e+01
   1.992218e+02   1.507350e+02
   9.213086e+00   2.114822e+02
  -1.699976e+02   1.777993e+02
  -2.116462e+02   7.463190e+01
  -1.056513e+02  -2.970279e+01
   1.626376e+01  -5.516922e+01
   4.273420e+01   1.584741e+00
  -4.118414e+01   5.673405e+01
  -1.333598e+02   2.478432e+01
  -1.410402e+02  -7.429846e+01
  -4.398664e+01  -1.417224e+02
   6.476286e+01  -1.044801e+02
   9.350568e+01  -1.370187e+01
   2.803416e+01   2.320650e+01
  -3.623603e+01  -2.818074e+01
  -1.303712e+01  -9.692408e+01
   8.934162e+01  -9.191129e+01
   1.746339e+02  -1.263148e+00
   1.394358e+02   1.089332e+02
   4.872255e+00   1.594400e+02
  -1.205363e+02   1.169918e+02
  -1.316569e+02   1.666625e+01
  -4.378875e+01  -6.479456e+01
   4.412432e+01  -6.972278e+01
   5.130922e+01  -1.681719e+01
  -2.933780e+00   1.690842e+01
  -3.303332e+01   1.729289e+00
   6.968052e+00  -2.600197e+01
   7.799664e+01  -1.843517e+00
   8.783399e+01   7.970976e+01
   4.310889e+00   1.455206e+02
  -1.196209e+02   1.210817e+02
  -1.882818e+02   3.336097e+00
  -1.483677e+02  -1.296729e+02
  -2.633604e+01  -1.798934e+02
   8.065949e+01  -1.256450e+02
   1.019485e+02  -2.561301e+01
   6.045576e+01   3.300902e+01
   2.894978e+01   2.481342e+01
   4.724723e+01  -1.134103e+01
   7.019752e+01  -1.719118e+00
   4.662950e+01   5.197438e+01
  -3.709935e+01   8.864056e+01
  -1.063431e+02   5.311640e+01
  -8.724934e+01  -4.375490e+01
   2.097383e+01  -1.087862e+02
   1.383006e+02  -6.960925e+01
   1.634439e+02   6.124657e+01
   5.972055e+01   1.735448e+02
  -1.058238e+02   1.754296e+02
  -2.107367e+02   6.401101e+01
  -1.907112e+02  -7.160551e+01
  -7.934074e+01  -1.332324e+02
   3.099429e+01  -1.095011e+02
   6.842727e+01  -6.434233e+01
   5.227540e+01  -6.019910e+01
   4.530031e+01  -7.876830e+01
   7.411549e+01  -6.528592e+01
   1.086323e+02   1.576535e+01
   9.615975e+01   1.229209e+02
   1.931932e+01   1.767282e+02
  -7.906990e+01   1.269029e+02
  -1.301622e+02   5.617834e+00
  -9.527329e+01  -1.011519e+02
  -2.062242e+00  -1.202502e+02
   6.035264e+01  -5.765817e+01
   4.823810e+01   1.860870e+01
  -9.438735e+00   4.676848e+01
  -2.752756e+01   2.610283e+01
   1.861534e+01  -5.141762e-01
   6.756223e+01   8.088867e+00
   4.236466e+01   3.339190e+01
  -6.109050e+01   3.629498e+01
  -1.407740e+02  -5.021161e+00
  -1.116079e+02  -5.256352e+01
   6.720536e+00  -7.932177e+01
   1.068515e+02  -5.526540e+01
   1.117907e+02  -5.445381e-01
   3.100133e+01   4.365745e+01
  -4.811264e+01   3.934220e+01
  -6.201671e+01  -1.410066e+01
  -1.818670e+01  -6.394303e+01
   3.800465e+01  -5.788301e+01
   5.896511e+01  -1.504617e+00
   4.926158e+01   4.362196e+01
   3.830088e+01   3.855265e+01
   4.443580e+01   3.883232e+00
   5.357300e+01   4.160988e+00
   3.984284e+01   6.538588e+01
  -2.207786e+01   1.291972e+02
  -1.052839e+02   1.158422e+02
  -1.505061e+02   2.489186e+01
  -1.089657e+02  -7.725197e+01
  -2.496802e+00  -1.083006e+02
   7.779124e+01  -5.703872e+01
   5.449502e+01   5.730102e+00
  -3.931576e+01   1.717284e+01
  -1.039608e+02  -2.756922e+01
  -6.342220e+01  -8.244767e+01
   6.326914e+01  -8.551689e+01
   1.451418e+02  -3.419378e+01
   1.190989e+02   3.202240e+01
   2.307690e+01   6.345126e+01
  -4.750253e+01   4.450991e+01
  -3.597588e+01  -6.027085e+00
   3.371249e+01  -2.868762e+01
   7.685912e+01   1.404322e+01
   3.603861e+01   9.359747e+01
  -6.212053e+01   1.314031e+02
  -1.262872e+02   6.337649e+01
  -1.031365e+02  -7.210787e+01
  -1.535077e+01  -1.557970e+02
   6.618048e+01  -1.144418e+02
   8.178084e+01   1.002768e+01
   4.348854e+01   9.800600e+01
  -1.077035e+01   7.841566e+01
  -4.147542e+01   1.004161e+01
  -3.475019e+01  -2.532305e+01
  -1.477405e+01  -2.822120e+00
  -6.784160e+00   1.284433e+01
  -2.772382e+01  -2.057700e+01
  -4.647144e+01  -7.392477e+01
  -2.299667e+01  -8.047056e+01
   4.523467e+01  -3.264460e+01
   1.074191e+02   3.013825e+01
   9.498103e+01   5.780533e+01
   1.348084e+01   4.417292e+01
  -6.387471e+01   2.351310e+01
  -6.696550e+01   3.442354e+00
  -1.308529e+01  -1.476473e+01
   2.821504e+01  -1.916843e+01
   1.876548e+01  -9.540058e+00
  -8.161354e+00   6.837304e+00
   2.337288e+00   3.751290e+00
   5.120558e+01  -3.624581e+00
   7.348602e+01   1.455387e+01
   2.228238e+01   6.554843e+01
  -7.926406e+01   9.668897e+01
  -1.488501e+02   5.272950e+01
  -1.247774e+02  -4.796855e+01
  -2.672009e+01  -1.263192e+02
   6.655757e+01  -1.217388e+02
   9.545175e+01  -5.229237e+01
   6.595851e+01   1.596330e+01
   2.150715e+01   3.201390e+01
   3.946052e+00   1.357882e+01
   1.274673e+01   9.261663e+00
   2.250588e+01   3.984365e+01
   1.186539e+01   7.207966e+01
  -2.582170e+01   5.840451e+01
  -6.346709e+01  -7.374560e+00
  -6.573967e+01  -7.551777e+01
  -1.509348e+01  -8.721929e+01
   5.913063e+01  -3.052452e+01
   8.748774e+01   4.774139e+01
   3.692440e+01   8.245652e+01
  -5.016110e+01   5.564821e+01
  -8.691737e+01  -2.992641e+00
  -4.025050e+01  -4.803861e+01
   2.676001e+01  -5.154748e+01
   3.335636e+01  -2.209798e+01
  -1.801089e+01   5.840343e+00
  -5.279643e+01   5.956373e+00
  -1.499334e+01  -2.381862e+01
   6.126945e+01  -5.045501e+01
   9.461485e+01  -3.890459e+01
   5.813721e+01   1.628354e+01
  -8.491430e+00   7.054022e+01
  -4.845275e+01   6.849736e+01
  -4.150268e+01   9.212363e+00
  -8.688868e+00  -4.345563e+01
   1.960997e+01  -4.136616e+01
   3.283755e+01   5.945097e+00
   2.480731e+01   4.288807e+01
  -1.502453e+00   3.396255e+01
  -2.694673e+01  -2.569290e+00
  -3.312411e+01  -2.143949e+01
  -1.625528e+01  -5.595094e+00
   3.033910e+00   1.746494e+01
   4.295804e+00   9.702273e+00
  -7.795608e+00  -2.538130e+01
  -2.848128e+00  -4.750933e+01
   2.204505e+01  -2.436495e+01
   3.705350e+01   2.681143e+01
   1.491677e+01   5.003460e+01
  -3.324933e+01   2.313647e+01
  -5.388288e+01  -2.672942e+01
  -1.764276e+01  -4.896550e+01
   4.726249e+01  -3.121229e+01
   7.852990e+01   6.885678e+00
   4.310936e+01   3.368587e+01
  -2.158973e+01   3.925134e+01
  -5.427138e+01   2.785298e+01
  -2.663138e+01   7.141960e+00
   2.002923e+01  -7.804730e+00
   2.725991e+01   2.750767e-01
  -1.438282e+01   2.070674e+01
  -5.877240e+01   2.122013e+01
