
 $NMID
 id='ANONYMOUS ', fmtdat='(2E16.6)'
 volume=1.0
 tramp=1.0
 $END
   2.001243e+03  -1.113605e+02
   1.432096e+03   8.635861e+02
   2.704279e+02   1.306854e+03
  -5.622023e+02   1.060861e+03
  -6.754443e+02   4.161615e+02
  -2.420283e+02  -4.842320e+01
   1.012729e+02  -7.964422e+01
   1.021437e+02   2.011743e+02
  -1.340655e+02   3.537244e+02
  -3.470407e+02   1.547861e+02
  -3.156125e+02  -2.265501e+02
  -1.075889e+02  -3.852984e+02
   1.225735e+02  -1.748075e+02
   1.610013e+02   1.772741e+02
   8.217539e+00   3.209472e+02
  -1.976492e+02   9.857173e+01
  -2.275492e+02  -2.456026e+02
  -4.365277e+00  -4.166921e+02
   2.524631e+02  -2.570669e+02
   3.203871e+02   3.825754e+01
   1.440995e+02   2.146833e+02
  -3.376298e+01   1.814130e+02
  -1.137509e+01   7.685196e+01
   1.369357e+02   8.895048e+01
   1.586772e+02   2.016306e+02
  -3.807798e+01   2.144903e+02
  -3.073370e+02   6.603872e+01
  -3.636638e+02  -1.192254e+02
  -1.090249e+02  -1.723758e+02
   1.765254e+02  -7.240709e+01
   2.608286e+02   1.029458e+02
   8.892321e+01   1.812868e+02
  -1.380772e+02   1.761340e+02
  -2.462394e+02   7.737624e+01
  -1.997257e+02  -6.104078e+01
  -9.278599e+01  -1.692874e+02
  -4.571063e+01  -1.228961e+02
  -5.455992e+01   1.128309e+01
  -8.441940e+01   4.784705e+01
  -7.945681e+01  -9.691084e+01
  -3.571977e+00  -2.852904e+02
   1.290552e+02  -2.631848e+02
   1.645250e+02  -3.507835e+01
   8.617409e+01   1.296518e+02
  -5.010246e+01   4.729158e+01
  -7.775177e+01  -1.354289e+02
   5.040834e+01  -2.067631e+02
   2.298775e+02  -4.096391e+01
   2.937760e+02   1.834607e+02
   1.219122e+02   2.773937e+02
  -1.355588e+02   1.679508e+02
  -2.962832e+02  -9.103043e+00
  -2.248102e+02  -1.212818e+02
  -2.362362e+01  -1.315350e+02
   1.463166e+02  -8.580507e+01
   1.493900e+02  -3.181423e+01
   4.880997e+01   1.110720e+01
  -1.162400e+01   7.678500e+00
   3.527559e+01  -9.272905e+00
   1.156680e+02   1.138224e+01
   8.979653e+01   8.174361e+01
  -6.860484e+01   1.525075e+02
  -2.161039e+02   1.170110e+02
  -1.893690e+02  -3.277181e+01
  -1.492333e+00  -2.073703e+02
   1.815634e+02  -2.532507e+02
   2.306450e+02  -1.243148e+02
   1.412272e+02   8.389930e+01
   3.715210e+01   2.189569e+02
   3.916715e+00   2.172886e+02
   1.657340e+01   1.431284e+02
  -2.268036e+01   1.002800e+02
  -1.118651e+02   7.725974e+01
  -1.771626e+02   2.584410e+01
  -1.528027e+02  -7.520600e+01
  -6.269858e+01  -1.544252e+02
   4.864491e+01  -1.097664e+02
   1.052650e+02   2.905260e+01
   7.658909e+01   1.438109e+02
  -2.496568e+01   1.439822e+02
  -1.438445e+02   3.573938e+01
  -1.848873e+02  -9.872040e+01
  -1.157966e+02  -1.736091e+02
   9.738633e+00  -1.640173e+02
   8.258878e+01  -1.153100e+02
   9.296586e+01  -7.699058e+01
   1.151323e+02  -5.392965e+01
   1.987242e+02  -1.170990e+01
   2.647916e+02   6.393946e+01
   2.021588e+02   1.788014e+02
  -1.402299e+01   2.603447e+02
  -2.309055e+02   2.469925e+02
  -2.833916e+02   1.230237e+02
  -1.635719e+02  -3.488834e+01
  -1.693114e+01  -1.365028e+02
   3.512059e+01  -1.154483e+02
  -1.333152e+01  -3.411651e+01
  -7.059202e+01   1.367341e+01
  -6.879203e+01  -1.613078e+01
  -1.042911e+01  -7.223109e+01
   3.739952e+01  -6.037668e+01
   4.765053e+01   1.554468e+01
  -4.770701e+00   6.188516e+01
  -8.227808e+01  -1.876180e+00
  -9.454276e+01  -1.341774e+02
  -2.428768e+00  -2.071106e+02
   1.404564e+02  -1.378745e+02
   2.313494e+02   2.747550e+01
   1.851502e+02   1.528022e+02
   4.837406e+01   1.573762e+02
  -7.397479e+01   8.659720e+01
  -8.685035e+01   9.716632e+00
  -2.243223e+01   2.261783e+00
   2.495953e+01   4.331267e+01
  -6.429839e+00   6.747741e+01
  -7.418364e+01   3.913056e+01
  -8.436457e+01  -1.003919e+01
  -1.720033e+01  -2.178766e+01
   5.076825e+01   1.793094e+01
   1.884758e+01   6.210576e+01
  -1.106790e+02   5.177983e+01
  -2.118826e+02  -2.205330e+01
  -1.723751e+02  -1.100631e+02
  -1.614256e+01  -1.679485e+02
   1.321909e+02  -1.496606e+02
   1.701368e+02  -7.157924e+01
   8.415715e+01   1.462656e+01
  -1.513906e+01   4.157363e+01
  -3.310985e+01  -2.864938e+00
   3.623029e+01  -4.593058e+01
   1.135105e+02  -1.821638e+01
   1.216799e+02   6.091795e+01
   4.510568e+01   1.113432e+02
  -4.672638e+01   8.249397e+01
  -7.200401e+01   1.193454e+01
  -2.511570e+01  -1.736361e+01
   2.744620e+01   2.218167e+01
   1.421879e+01   7.209859e+01
  -6.527862e+01   7.406710e+01
  -1.329448e+02   6.570325e+00
  -1.151326e+02  -8.112649e+01
  -8.401540e+00  -1.253513e+02
   9.383275e+01  -9.498297e+01
   1.044144e+02  -1.619895e+01
   3.336349e+01   4.972075e+01
  -3.396718e+01   5.697726e+01
  -3.736638e+01   1.649418e+01
   5.663376e+00  -1.370800e+01
   2.762169e+01  -2.353470e+00
  -6.857195e+00   1.983181e+01
  -6.273046e+01   3.831867e+00
  -7.425718e+01  -5.882379e+01
  -1.086953e+01  -1.135822e+02
   9.018599e+01  -1.007692e+02
   1.493652e+02  -1.076380e+01
   1.217349e+02   9.108456e+01
   2.984852e+01   1.354911e+02
  -5.304134e+01   9.850473e+01
  -7.378031e+01   2.794913e+01
  -4.689173e+01  -1.851886e+01
  -2.424499e+01  -1.305572e+01
  -3.483451e+01   1.068030e+01
  -5.877442e+01   7.886712e+00
  -4.132533e+01  -3.550663e+01
   2.201252e+01  -7.342031e+01
   8.123620e+01  -5.015483e+01
   7.271262e+01   2.656867e+01
  -9.719909e+00   8.520295e+01
  -1.042868e+02   6.148567e+01
  -1.301447e+02  -3.662151e+01
  -5.507494e+01  -1.306132e+02
   7.451574e+01  -1.408476e+02
   1.639436e+02  -5.658847e+01
   1.512247e+02   4.800411e+01
   6.621583e+01   9.895375e+01
  -1.780192e+01   8.285472e+01
  -5.053358e+01   5.300557e+01
  -3.942369e+01   4.765193e+01
  -3.306349e+01   6.496648e+01
  -5.191850e+01   5.393256e+01
  -8.102099e+01  -8.754308e+00
  -7.729918e+01  -9.482643e+01
  -2.215981e+01  -1.375343e+02
   5.579618e+01  -1.008682e+02
   9.906899e+01  -8.968364e+00
   7.602108e+01   7.317956e+01
   7.107300e+00   9.289524e+01
  -4.491286e+01   4.721460e+01
  -3.515957e+01  -7.370919e+00
   6.177050e+00  -3.532408e+01
   1.896280e+01  -2.257958e+01
  -1.514494e+01  -8.407176e+00
  -5.608123e+01  -6.276283e+00
  -3.653764e+01  -2.206919e+01
   4.783165e+01  -2.542745e+01
   1.156857e+02  -8.634454e-01
   9.218791e+01   4.000735e+01
  -6.749232e+00   6.313273e+01
  -9.017335e+01   4.814166e+01
  -9.215553e+01   4.237038e+00
  -2.602211e+01  -3.259539e+01
   3.908151e+01  -2.916497e+01
   5.076113e+01   8.905530e+00
   1.615810e+01   4.690282e+01
  -2.355794e+01   4.291391e+01
  -4.317884e+01   3.978796e+00
  -4.212775e+01  -3.026016e+01
  -3.329842e+01  -2.408926e+01
  -3.562995e+01   1.348982e+00
  -4.380660e+01  -4.683290e-01
  -3.197406e+01  -4.780311e+01
   1.285956e+01  -9.926945e+01
   7.706485e+01  -9.641295e+01
   1.142238e+02  -2.525472e+01
   8.439766e+01   5.622709e+01
   3.447221e+00   8.425473e+01
  -5.785484e+01   4.779501e+01
  -3.948170e+01  -4.468930e+00
   3.497660e+01  -1.411310e+01
   8.400391e+01   2.176457e+01
   4.011815e+01   6.133992e+01
  -5.282325e+01   6.913035e+01
  -1.170414e+02   2.998251e+01
  -1.018342e+02  -2.089162e+01
  -2.163195e+01  -5.246804e+01
   3.801034e+01  -3.982673e+01
   3.227902e+01  -3.153457e+00
  -2.283868e+01   1.997170e+01
  -5.808026e+01  -7.788939e+00
  -3.372889e+01  -7.060420e+01
   4.294498e+01  -1.006824e+02
   9.613685e+01  -5.167165e+01
   8.217545e+01   5.213576e+01
   2.028191e+01   1.229641e+02
  -4.723924e+01   9.203377e+01
  -6.495981e+01  -4.313684e+00
  -3.685518e+01  -7.567171e+01
   6.012530e+00  -6.336544e+01
   3.289567e+01  -8.588849e+00
   3.032668e+01   1.861956e+01
   9.309188e+00   3.379042e+00
   1.879707e+00  -9.662522e+00
   2.021763e+01   1.555550e+01
   4.128006e+01   5.437809e+01
   2.318572e+01   6.230009e+01
  -3.333307e+01   2.429339e+01
  -8.279505e+01  -1.704697e+01
  -7.724604e+01  -3.283123e+01
  -1.459371e+01  -2.680676e+01
   4.749782e+01  -1.752864e+01
   5.388000e+01  -8.973108e+00
   1.288118e+01   4.640296e+00
  -1.931376e+01   1.516896e+01
  -1.334339e+01   8.692405e+00
   7.678541e+00  -4.455392e+00
  -1.700164e+00  -5.348294e+00
  -4.087559e+01   4.339410e+00
  -5.942905e+01  -7.790711e+00
  -1.661466e+01  -4.977028e+01
   6.254659e+01  -7.913977e+01
   1.179443e+02  -5.519225e+01
   1.038227e+02   2.473396e+01
   3.018459e+01   9.886696e+01
  -4.485398e+01   1.068439e+02
  -7.364438e+01   5.083680e+01
  -5.200076e+01  -7.865173e+00
  -1.791635e+01  -2.240757e+01
  -4.006977e+00  -9.038808e+00
  -1.026522e+01  -7.459647e+00
  -1.902386e+01  -3.476867e+01
  -1.224197e+01  -5.911838e+01
   1.639702e+01  -4.441982e+01
   4.876059e+01   8.477431e+00
   5.542981e+01   6.080115e+01
   1.631197e+01   6.783816e+01
  -4.326868e+01   2.566934e+01
  -7.144104e+01  -3.312141e+01
  -3.308256e+01  -6.188040e+01
   3.572833e+01  -4.448079e+01
   6.787015e+01   1.689234e+00
   3.150103e+01   3.839233e+01
  -2.052577e+01   4.341681e+01
  -2.682188e+01   1.865862e+01
   1.468431e+01  -7.873055e+00
   4.279940e+01  -1.273697e+01
   1.382940e+01   1.533399e+01
  -4.676745e+01   4.647248e+01
  -7.641523e+01   3.931177e+01
  -4.739282e+01  -6.141090e+00
   5.886056e+00  -5.452941e+01
   3.335731e+01  -5.688049e+01
   2.996341e+01  -1.193830e+01
   8.160715e+00   3.194731e+01
  -1.225157e+01   3.321973e+01
  -2.471723e+01  -2.045331e+00
  -2.284362e+01  -3.276141e+01
  -4.079155e+00  -2.767760e+01
   2.227944e+01  -2.215989e-01
   3.067609e+01   1.562610e+01
   1.436236e+01   3.213277e+00
  -4.314513e+00  -1.471310e+01
  -3.568929e+00  -7.673103e+00
   6.898364e+00   2.033081e+01
   6.322924e+00   3.738856e+01
  -1.455716e+01   1.830132e+01
  -3.094675e+01  -1.867521e+01
  -1.537220e+01  -3.835624e+01
   2.199305e+01  -2.070669e+01
   4.409067e+01   1.688873e+01
   1.708551e+01   3.506542e+01
  -3.602740e+01   2.341586e+01
  -6.158057e+01  -4.799099e+00
  -3.381876e+01  -2.378748e+01
   1.830510e+01  -2.923289e+01
   4.242366e+01  -2.177203e+01
   1.901069e+01  -6.705433e+00
  -1.768274e+01   3.750418e+00
  -2.133133e+01  -3.652000e-01
   1.284241e+01  -1.555069e+01
   4.643004e+01  -1.774281e+01
