
 $NMID
 id='ANONYMOUS ', fmtdat='(2E16.6)'
 volume=1.0
 tramp=1.0
 $END
  -9.404333e+02  -8.048270e+01
  -6.297758e+02  -3.600327e+02
  -1.219066e+02  -4.808220e+02
   1.824833e+02  -4.165154e+02
   2.545418e+02  -2.533024e+02
   1.399291e+02  -2.507072e+01
   1.270295e+00   4.246985e+01
  -4.691848e+01  -3.671397e+01
   1.423030e+00  -1.293672e+02
   9.247133e+01  -1.028353e+02
   1.283358e+02   1.018539e+01
   1.025706e+02   1.059933e+02
   2.995041e+01   7.782271e+01
  -2.358687e+01  -1.227187e+01
  -3.305472e+01  -9.335562e+01
   1.525107e+00  -5.325758e+01
   6.672095e+01   4.288081e+01
   4.021879e+01   1.226166e+02
  -6.753038e+01   1.104259e+02
  -1.066983e+02   9.802733e+00
  -6.089331e+01  -6.978002e+01
  -2.387283e+00  -7.279678e+01
  -2.269438e+01  -3.227255e+01
  -5.327309e+01  -5.720742e+01
  -3.220152e+01  -1.078867e+02
   5.859623e+01  -6.685366e+01
   1.153113e+02   2.855301e+01
   8.888091e+01   6.709396e+01
  -5.057686e+00   2.997976e+00
  -3.573395e+01  -4.083185e+01
  -4.152115e+01  -3.343790e+01
  -1.427642e+01  -1.168840e+01
   3.764408e+01  -2.081651e+01
   7.366242e+01  -3.510298e+01
   7.018086e+01  -2.346587e+01
   4.672824e+01   2.138261e+01
   4.681426e+01   3.277367e+01
   5.776955e+01   2.053556e+01
   4.661008e+01   1.804100e+01
  -3.053387e+00   3.922031e+01
  -4.946061e+00   8.328491e+01
   9.810171e+00   7.775756e+01
  -3.581274e-01   3.839564e+01
  -1.705415e+01  -3.308444e+00
  -1.190303e+01  -2.335432e+00
  -2.062659e+01   3.735407e+01
  -2.841168e+01   4.405528e+01
  -4.838231e+01  -2.460567e+00
  -8.648137e+01  -6.089663e+01
  -4.703919e+01  -6.970943e+01
   2.552484e+01  -3.990998e+01
   8.271648e+01   6.037134e+00
   7.760064e+01   1.598040e+01
   5.152343e+00   2.997437e+01
  -5.254456e+01   2.873660e+01
  -6.357315e+01   2.931512e+01
  -3.618385e+01   1.484489e+00
  -3.876524e+00  -2.346868e+01
   2.753712e-01  -2.540450e+01
  -2.698516e+01   2.925223e+00
  -3.103878e+01  -2.603433e+00
   9.795543e+00  -3.931401e+01
   7.055144e+01  -5.466941e+01
   6.126232e+01  -1.073306e+01
  -1.034035e+01   6.563880e+01
  -7.539425e+01   8.696571e+01
  -8.164985e+01   4.529223e+01
  -4.284544e+01  -1.929427e+01
  -1.661714e+01  -6.705486e+01
  -1.922701e+01  -8.949525e+01
  -9.527424e+00  -7.154511e+01
   2.285802e+01  -5.164567e+01
   6.286365e+01  -1.884293e+01
   6.886368e+01   1.274830e+01
   3.888478e+01   4.026285e+01
   3.570689e+00   4.466525e+01
  -1.814937e+01   2.005569e+01
  -1.803261e+01  -2.660118e+01
  -4.109836e+00  -5.258582e+01
   1.600972e+01  -4.007376e+01
   3.864328e+01   5.725058e+00
   4.617484e+01   3.936406e+01
   3.340354e+01   5.218663e+01
   2.684314e+00   5.357727e+01
  -2.173135e+01   4.951170e+01
  -3.738875e+01   3.539114e+01
  -5.584020e+01   1.142422e+01
  -8.028275e+01  -1.222370e+01
  -9.383626e+01  -3.368066e+01
  -6.680222e+01  -6.002609e+01
   1.550170e+01  -8.381426e+01
   9.778547e+01  -8.098420e+01
   1.124686e+02  -3.035046e+01
   4.413308e+01   2.368879e+01
  -1.688342e+01   3.933653e+01
  -1.429917e+01   2.918265e+01
   2.837641e+01   1.192007e+01
   3.951425e+01   1.072648e+01
   1.788221e+01   1.971552e+01
  -9.994589e+00   1.504457e+01
  -9.515406e+00  -4.976451e+00
   2.183531e+00  -9.026023e+00
   1.053339e+01  -3.202875e+00
   2.069030e+01   2.139246e+01
   1.927068e+01   5.637802e+01
  -3.832776e+00   6.760553e+01
  -4.910803e+01   4.001384e+01
  -8.258616e+01  -1.629672e+01
  -6.278311e+01  -6.222577e+01
  -1.008389e+01  -6.442086e+01
   2.832710e+01  -2.274127e+01
   3.131196e+01   2.155287e+00
   8.153024e+00  -6.413819e+00
  -5.198717e+00  -2.065133e+01
   6.744271e+00  -2.024261e+01
   2.526252e+01  -4.717587e+00
   2.483471e+01   6.020654e+00
   3.772455e+00   3.466128e+00
  -1.394172e+01  -1.524001e+01
  -8.820556e-01  -2.255588e+01
   4.800126e+01  -6.414272e+00
   8.116866e+01   2.825589e+01
   4.888908e+01   4.966774e+01
  -1.004268e+01   5.369240e+01
  -5.573752e+01   3.726034e+01
  -5.355059e+01   1.858452e+01
  -2.065458e+01   3.404847e+00
   8.387621e+00  -4.836149e+00
   9.840725e+00   2.307198e+00
  -1.840321e+01   1.110519e+01
  -4.715196e+01   2.631915e+00
  -4.370207e+01  -2.194551e+01
  -1.397453e+01  -3.695724e+01
   1.627955e+01  -2.267743e+01
   2.138012e+01  -2.193754e+00
   5.207771e+00   2.806841e+00
  -9.941465e+00  -1.458967e+01
  -6.356742e-01  -2.803321e+01
   2.697463e+01  -2.102348e+01
   4.818583e+01   6.737084e+00
   3.611945e+01   2.968707e+01
  -4.965906e+00   3.724531e+01
  -3.472493e+01   2.657204e+01
  -3.214514e+01   6.290235e+00
  -4.379660e+00  -1.020130e+01
   1.387949e+01  -1.342561e+01
   6.752966e+00  -4.885728e+00
  -7.762910e+00   2.032495e+00
  -1.135387e+01  -2.204740e+00
   5.524422e+00  -5.445551e+00
   2.493855e+01   4.306962e+00
   2.410553e+01   2.565070e+01
  -2.198681e+00   4.015134e+01
  -3.472504e+01   2.944691e+01
  -4.878291e+01  -3.526332e+00
  -3.510837e+01  -3.287402e+01
  -6.396879e+00  -4.222156e+01
   1.763314e+01  -2.815570e+01
   2.059140e+01  -9.190313e+00
   1.299469e+01   4.747081e+00
   7.940378e+00   2.187243e+00
   1.259102e+01  -3.692362e+00
   2.285189e+01  -7.655283e-01
   1.472609e+01   1.235447e+01
  -1.004813e+01   2.484066e+01
  -2.981543e+01   1.528182e+01
  -2.268051e+01  -1.118412e+01
   1.084543e+01  -3.017459e+01
   4.293435e+01  -1.653511e+01
   4.509076e+01   2.458674e+01
   1.127409e+01   4.993763e+01
  -3.110600e+01   4.224914e+01
  -5.684410e+01   1.210369e+01
  -5.051123e+01  -1.823584e+01
  -2.161614e+01  -3.114330e+01
   8.478204e+00  -2.680494e+01
   1.788612e+01  -1.815253e+01
   1.520435e+01  -1.998728e+01
   1.065643e+01  -2.416919e+01
   1.756431e+01  -1.824803e+01
   2.731443e+01   4.859570e+00
   2.340782e+01   3.574245e+01
   2.748587e+00   4.744491e+01
  -1.994028e+01   3.287742e+01
  -2.871975e+01  -9.358799e-01
  -1.902617e+01  -2.498456e+01
  -5.220627e-01  -2.975908e+01
   1.507701e+01  -1.448114e+01
   9.266895e+00   1.859655e+00
  -5.054238e+00   1.355712e+01
  -6.995191e+00   1.033891e+01
   6.426878e+00   5.994022e+00
   2.109195e+01   4.606374e+00
   1.258109e+01   6.518633e+00
  -2.081765e+01   4.687826e+00
  -4.271262e+01  -3.125926e+00
  -3.236896e+01  -1.398781e+01
   5.919592e+00  -1.812425e+01
   3.504673e+01  -1.234394e+01
   2.934735e+01  -1.919848e+00
   5.636532e+00   8.662464e+00
  -1.333526e+01   6.749793e+00
  -1.611898e+01  -3.582872e+00
  -6.003506e+00  -1.457413e+01
   7.237339e+00  -1.387645e+01
   1.532753e+01  -9.788355e-01
   1.588126e+01   9.546386e+00
   1.357484e+01   8.809873e+00
   1.370864e+01  -9.852935e-01
   1.575772e+01   3.527602e+00
   1.082986e+01   1.915050e+01
  -8.508933e+00   3.548814e+01
  -2.908873e+01   3.156447e+01
  -3.997872e+01   7.158453e+00
  -2.589836e+01  -1.739834e+01
   1.854621e+00  -2.529713e+01
   1.945211e+01  -1.329343e+01
   1.095344e+01   1.662666e+00
  -1.273985e+01   4.109191e+00
  -3.171350e+01  -8.458768e+00
  -1.387478e+01  -1.941402e+01
   2.083097e+01  -2.803606e+01
   4.640951e+01  -1.137643e+01
   3.995838e+01   7.015282e+00
   7.636442e+00   2.077493e+01
  -1.512270e+01   1.535343e+01
  -1.188223e+01   1.516369e+00
   7.907589e+00  -4.852496e+00
   1.884275e+01   1.923977e+00
   7.888374e+00   2.047298e+01
  -1.449117e+01   3.242975e+01
  -3.381578e+01   1.938226e+01
  -3.009544e+01  -1.830743e+01
  -3.770741e+00  -4.306247e+01
   1.968571e+01  -3.281850e+01
   2.246908e+01   2.360243e+00
   1.093342e+01   2.872294e+01
  -5.747025e+00   2.289283e+01
  -1.266885e+01   2.122857e+00
  -1.036438e+01  -8.009317e+00
  -9.667545e-01  -1.918638e-01
  -3.142984e-01   2.189760e+00
  -5.103430e+00  -8.787699e+00
  -1.204950e+01  -2.301457e+01
  -4.212689e+00  -2.057723e+01
   1.440471e+01  -3.763185e+00
   2.640698e+01   1.100385e+01
   2.609676e+01   1.396445e+01
   6.149527e+00   9.053537e+00
  -1.539101e+01   6.122282e+00
  -2.138233e+01   5.225791e+00
  -5.841889e+00  -8.547452e-01
   7.184745e+00  -6.291710e+00
   5.301690e+00  -3.907937e+00
  -3.674281e+00   2.218317e+00
   1.046893e+00   2.285328e+00
   1.303448e+01   8.544690e-01
   1.998340e+01   3.446373e+00
   2.385670e+00   1.592442e+01
  -2.011818e+01   2.614767e+01
  -3.807700e+01   2.074796e+01
  -3.385887e+01  -5.906137e+00
  -1.219837e+01  -3.104331e+01
   1.286597e+01  -3.658552e+01
   2.371610e+01  -1.935033e+01
   1.787306e+01   4.945207e-02
   5.671186e+00   5.501704e+00
   1.990887e-01   4.203997e+00
   3.241504e+00   6.016705e+00
   6.798214e+00   1.406146e+01
   3.220055e+00   1.901142e+01
  -5.268240e+00   1.369060e+01
  -1.671142e+01  -3.618625e+00
  -2.020607e+01  -1.993263e+01
  -8.623389e+00  -2.149581e+01
   1.043861e+01  -9.202508e+00
   2.109376e+01   7.979610e+00
   1.068812e+01   1.834325e+01
  -1.114420e+01   1.353066e+01
  -2.334610e+01  -4.149923e-01
  -1.158464e+01  -1.381778e+01
   6.214915e+00  -1.777610e+01
   1.008895e+01  -1.137587e+01
  -3.635149e+00   2.674131e-01
  -1.392222e+01   3.695197e+00
  -2.519308e+00  -2.383121e+00
   1.963280e+01  -1.337929e+01
   2.841746e+01  -1.469848e+01
   1.790753e+01  -1.874554e-01
  -3.290991e+00   1.912193e+01
  -1.384137e+01   2.212641e+01
  -1.036561e+01   6.831437e+00
  -3.693152e+00  -1.045571e+01
   1.935394e+00  -1.136442e+01
   7.501611e+00  -1.791935e+00
   9.883066e+00   9.194983e+00
   3.309676e+00   9.271840e+00
  -6.618752e+00   1.072366e+00
  -1.038707e+01  -2.907970e+00
  -4.945951e+00   2.348309e-01
   1.808125e+00   5.951413e+00
   1.391980e+00   4.058191e+00
  -2.556036e+00  -6.707833e+00
  -3.691562e+00  -1.337639e+01
   2.239411e+00  -5.867615e+00
   9.280806e+00   5.997059e+00
   4.583948e+00   1.122361e+01
  -6.253595e+00   5.363252e+00
  -1.238739e+01  -6.424332e+00
  -2.996903e+00  -1.153673e+01
   1.425257e+01  -6.922808e+00
   2.260755e+01   3.639936e+00
   1.114550e+01   9.578109e+00
  -8.203220e+00   1.104732e+01
  -1.606986e+01   8.485434e+00
  -7.813589e+00   3.047137e+00
   6.105309e+00  -1.875315e+00
   7.875238e+00  -1.251690e+00
  -4.064437e+00   4.361891e+00
  -1.716997e+01   6.329557e+00
