
 $NMID
 id='ANONYMOUS ', fmtdat='(2E16.6)'
 volume=1.0
 tramp=1.0
 $END
   5.785559e+02  -7.457964e+01
   2.029843e+02   1.958383e+02
  -3.946149e+01   2.850955e+02
  -1.443637e+02   1.749531e+02
  -1.284492e+02   6.499493e+01
  -3.714813e+01  -1.427916e+00
   2.223244e+01  -1.445222e+01
   6.876096e+00   1.615171e-02
  -2.249962e+00   4.109782e+01
  -1.713499e+01   4.599249e+01
  -5.065731e+01  -1.045870e+01
  -3.509842e+01  -6.521994e+01
   1.521388e+01  -4.042167e+01
   4.665429e+01   2.573206e+01
   3.681135e+01   6.383711e+01
  -3.674284e+01   3.451854e+01
  -5.067573e+01  -7.147915e+00
  -2.416469e+01  -4.570543e+01
   9.901088e+00  -4.084794e+01
   4.349678e+01  -1.727354e+01
   2.678381e+01   1.855367e+01
  -2.652462e+00   2.520832e+01
  -1.329693e+01   3.604844e+01
   1.039641e+01   1.976045e+01
   2.170809e+01   2.641293e+00
   8.654608e+00   1.632829e+01
  -3.630504e+01   1.807283e+01
  -4.638037e+01  -6.452225e+00
  -2.325491e+01  -4.168601e+01
   1.721980e+01  -1.783784e+01
   3.927887e+01  -1.473600e+01
   3.180503e+01   1.714242e+01
   1.833608e+01   2.660870e+01
  -7.720467e+00   2.675589e+01
  -2.178648e+01  -1.431071e+00
  -3.185311e+01  -1.726118e+01
  -2.458953e+01  -2.089179e+01
  -9.451786e+00  -4.557105e+00
  -1.359001e+00   1.431371e+01
  -5.776971e+00  -8.692412e+00
   7.182743e+00  -4.818793e+01
   3.100535e+01  -4.666791e+01
   2.320211e+01   3.997840e+00
   1.188300e+01   2.100395e+01
   2.522295e+00   3.393370e+00
  -1.193501e+01  -1.043868e+01
  -1.521675e+01  -3.070784e+01
   2.288641e+01  -1.112715e+01
   4.542448e+01   7.912562e+00
   3.813363e+01   1.916994e+01
   9.948504e+00   1.930849e+01
  -4.637128e+01   2.198280e+01
  -4.335891e+01   7.739022e+00
   6.056565e+00  -3.412666e+01
   4.206247e+01  -3.477727e+01
   4.237729e+01  -1.150602e+01
   1.636039e+01   1.286754e+01
   1.024892e+00   1.976908e+01
   9.528029e-01   8.749674e+00
   2.004816e+00  -3.261805e+00
   9.543077e+00   1.183729e+01
   2.081669e+00   2.987924e+01
  -1.254554e+01   4.078367e+01
  -3.501804e+01   1.819184e+01
  -2.921386e+01  -2.193647e+01
  -3.760419e+00  -5.353709e+01
   2.082764e+01  -4.937399e+01
   3.465450e+01  -4.511657e+00
   1.865404e+01   3.553987e+01
   9.157054e+00   4.629331e+01
   2.664121e+00   2.511959e+01
  -2.598925e+00   8.651598e+00
  -4.667242e+00   7.109842e-01
  -1.320722e+01   1.578134e+01
  -2.410599e+01   9.421451e+00
  -2.473529e+01  -1.014267e+01
  -1.022023e+01  -1.960031e+01
   7.309249e+00  -6.542391e+00
   1.855032e+01   8.001299e+00
   8.451594e+00   1.199775e+01
  -9.043729e+00   1.174378e+01
  -3.511028e+01   2.004697e+00
  -2.738618e+01  -1.691469e+01
  -4.429557e+00  -2.079913e+01
   7.404547e+00  -1.601550e+01
   7.626758e+00  -1.288986e+01
   3.805567e+00  -7.460858e+00
   1.696990e+01  -9.822139e+00
   3.932984e+01  -5.381271e+00
   3.727347e+01   1.011527e+01
   1.517301e+01   3.612319e+01
  -1.988442e+01   4.824756e+01
  -2.411268e+01   4.334185e+01
  -2.245076e+01   1.581504e+01
  -1.464275e+01  -1.341371e+01
  -8.782059e+00  -1.834263e+01
  -1.244159e+01  -1.037578e+01
  -1.442362e+01  -6.979294e+00
  -6.238656e+00  -6.668273e+00
   1.354177e+00  -1.347681e+01
   1.162739e+00  -1.351986e+01
   5.397600e+00  -5.723915e-01
   4.668797e+00   5.477047e+00
  -5.974010e+00   2.717632e+00
  -2.200509e+01  -6.728923e+00
  -1.750760e+01  -2.387430e+01
   2.460852e+00  -2.710864e+01
   2.928910e+01  -1.021228e+01
   3.676351e+01   8.753261e-01
   2.398787e+01   9.623928e+00
  -5.510263e+00   1.416192e+01
  -1.341624e+01   1.100142e+01
  -1.180088e+01   3.206868e+00
   1.282321e-01   3.028240e+00
   3.820886e+00   2.569121e+00
  -1.159129e+00   3.079321e+00
  -8.390683e+00   3.869912e+00
  -7.044334e+00   2.754054e+00
   5.217962e+00  -8.648700e-01
   8.982724e+00   1.270964e+00
  -5.843477e+00   8.755392e+00
  -2.728866e+01   8.095615e+00
  -3.577976e+01  -2.766622e-01
  -1.869569e+01  -1.601485e+01
   5.118722e+00  -2.300419e+01
   2.199919e+01  -2.692299e+01
   1.470773e+01  -7.828111e+00
   1.900278e+00   4.656203e+00
  -2.679736e+00   2.365023e+00
   5.480431e+00  -4.859992e+00
   1.586579e+01  -4.139979e+00
   1.860435e+01   2.372179e+00
   1.107543e+01   1.192628e+01
  -1.024896e+00   1.289006e+01
  -8.154480e+00   7.083631e+00
  -5.333819e+00   3.522014e+00
   1.262222e+00   2.183526e+00
   7.977864e+00   4.915611e+00
  -2.607787e-01   7.201456e+00
  -1.210055e+01   4.501213e+00
  -1.844718e+01  -2.768475e+00
  -1.062135e+01  -1.046698e+01
   2.863198e+00  -1.456459e+01
   9.705489e+00  -1.214882e+01
   9.187512e+00  -5.171120e-01
   2.152653e+00   9.463579e+00
  -3.135319e+00   8.728537e+00
  -1.663507e+00   9.629484e-01
   5.433654e-01  -3.011661e+00
  -7.561880e-03  -2.005487e+00
  -5.959294e+00   9.880026e-01
  -8.527679e+00  -1.679447e+00
  -7.206908e+00  -8.916591e+00
   4.752917e+00  -1.194180e+01
   1.398268e+01  -8.942289e+00
   2.019492e+01   2.068137e+00
   1.413347e+01   1.416794e+01
   4.645566e+00   1.873787e+01
  -5.132114e+00   1.401318e+01
  -9.213043e+00   4.133401e+00
  -7.335812e+00  -3.400833e-01
  -5.961681e+00   3.860742e-01
  -4.662967e+00   4.082008e+00
  -5.391221e+00  -3.147012e-01
  -1.591561e+00  -8.334051e+00
   6.398902e+00  -1.235510e+01
   9.327336e+00  -4.730837e+00
   6.003676e+00   5.894064e+00
  -4.097774e+00   1.311117e+01
  -1.381982e+01   7.851395e+00
  -1.506141e+01  -7.105779e+00
  -3.569504e-01  -2.038078e+01
   1.313129e+01  -1.629817e+01
   2.313787e+01  -2.913521e+00
   1.845856e+01   1.274660e+01
   1.336920e+00   1.308861e+01
  -1.128221e+01   9.688210e+00
  -7.381845e+00   6.083013e+00
  -2.826542e+00   5.921952e+00
   1.585032e+00   9.171024e+00
  -5.392546e+00   7.320074e+00
  -1.521791e+01  -2.063490e+00
  -1.644027e+01  -1.425707e+01
  -2.610814e+00  -1.730529e+01
   9.545185e+00  -1.216572e+01
   1.781241e+01   1.320561e+00
   9.909148e+00   1.187283e+01
   1.358389e+00   1.339664e+01
  -5.463065e+00   5.720040e+00
  -3.070279e+00  -2.777060e+00
  -1.481793e+00  -4.690360e+00
  -3.183346e+00  -2.943562e+00
  -1.042022e+01   1.207059e+00
  -7.226163e+00   1.339691e+00
   1.652703e+00   4.695990e-01
   1.498377e+01  -4.033644e+00
   1.689205e+01  -2.901825e+00
   5.786392e+00   1.096504e+00
  -8.172102e+00   8.254635e+00
  -1.426272e+01   8.191462e+00
  -7.391836e+00   5.063442e+00
   1.125630e+00  -1.161875e+00
   4.772195e+00  -1.303501e+00
   3.879281e+00   1.964340e+00
   8.072900e-02   4.579434e+00
  -3.577740e+00   4.798978e+00
  -5.726333e+00   8.634352e-01
  -6.412818e+00  -4.779753e-01
  -5.909966e+00  -2.726630e+00
  -5.482574e+00   1.583662e+00
  -5.018192e+00   7.113339e-01
  -4.184899e+00  -8.082068e+00
   4.975718e+00  -1.966621e+01
   1.375207e+01  -1.406778e+01
   1.489497e+01   7.235092e-02
   6.136949e+00   1.195618e+01
  -2.840695e+00   1.194097e+01
  -5.038766e+00   3.082490e+00
   5.228103e+00  -1.138767e+00
   9.465049e+00   1.923079e+00
   4.021066e+00   7.353158e+00
  -5.513703e+00   2.314332e+00
  -1.335929e+01  -2.125928e+00
  -1.034563e+01   2.219065e+00
  -3.839395e+00   1.965189e-01
   3.603557e+00  -2.883256e+00
   5.295626e+00  -3.645066e+00
  -1.513649e-01   1.073162e+00
  -8.275221e+00   1.803261e+00
  -6.915412e+00  -7.202841e+00
  -4.597466e-01  -1.558128e+01
   1.004947e+01  -1.176571e+01
   1.285716e+01   8.466812e-01
   5.616577e+00   1.790064e+01
   2.718757e+00   1.866453e+01
  -9.351049e+00   5.881957e+00
  -1.123305e+01  -4.689398e+00
  -4.943377e+00  -1.049988e+01
   2.643835e+00  -4.217080e+00
   4.093186e+00   2.531898e-01
   7.336188e-01   1.733991e+00
  -1.933608e+00  -1.389376e+00
   1.310663e-01   6.419831e-01
   5.254483e+00   3.453701e+00
   6.701397e+00   3.692329e+00
   1.340509e+00   3.186733e-01
  -8.126537e+00   2.391036e+00
  -1.188398e+01   3.890043e+00
  -7.703845e+00   2.427126e+00
   2.184352e+00  -1.884894e+00
   6.938641e+00  -4.918172e+00
   5.022490e+00  -1.669022e+00
  -2.471983e+00   3.021361e+00
  -2.979844e+00   5.253425e+00
   4.132355e-01   8.605056e-01
   5.408106e-01  -1.879961e+00
  -5.284082e+00   2.428854e+00
  -1.061651e+01   2.051843e+00
  -3.364495e+00  -2.615367e+00
   7.083272e+00  -1.094292e+01
   1.307400e+01  -1.262737e+01
   1.445930e+01  -3.686497e+00
   5.861402e+00   1.273425e+01
  -4.764799e+00   1.744352e+01
  -9.495977e+00   9.316102e+00
  -7.970372e+00   1.406311e+00
  -5.787466e+00  -1.255395e+00
  -1.098864e+00  -1.561921e+00
   7.144741e-01  -2.505505e+00
  -1.350089e+00  -4.452476e+00
  -2.338381e+00  -7.281687e+00
  -1.554651e+00  -4.146044e+00
   5.228376e+00   4.481109e-01
   1.054712e+01   4.597410e+00
   7.753681e+00   7.371081e+00
  -8.163312e-01   5.895765e+00
  -1.024832e+01   3.157343e+00
  -1.069100e+01  -3.106597e+00
  -9.442660e-01  -6.268072e+00
   6.360736e+00  -2.862458e+00
   4.294431e+00   2.102991e+00
  -1.101821e+00   6.194523e+00
  -2.594872e+00   3.643520e+00
   1.991381e+00  -4.493988e-01
   4.315248e+00  -4.621847e+00
   3.023797e+00  -2.171783e+00
  -3.624494e+00   5.674098e+00
  -8.761654e+00   1.322205e+01
  -8.273691e+00   6.230531e+00
  -2.782891e+00  -6.088989e+00
   1.066108e+00  -1.304597e+01
   3.457053e+00  -5.294869e+00
   3.455893e+00   3.531898e+00
   1.407983e+00   7.257131e+00
  -2.920454e+00   2.798588e+00
  -5.850438e+00  -4.171749e+00
  -3.657108e+00  -5.279588e+00
   3.454143e+00  -1.700607e+00
   7.678031e+00   2.135746e+00
   3.687680e+00   1.685729e+00
  -2.762330e+00  -1.507613e+00
  -1.787434e+00  -1.666360e+00
   2.985363e+00   2.748397e+00
   4.069484e+00   6.195205e+00
  -3.097205e+00   1.841167e+00
  -4.251939e+00  -1.423443e+00
  -2.667862e+00  -3.240979e+00
   2.217789e+00  -2.666408e+00
   4.804672e+00  -2.477705e-01
   3.035102e+00   2.196411e+00
  -2.257040e+00   3.587460e+00
  -4.420964e+00   3.079804e+00
  -5.070395e+00   4.863464e-01
  -1.355111e+00  -2.561326e+00
   3.508670e+00  -4.220943e+00
   2.655744e+00  -2.899227e+00
  -7.400247e-01  -1.707770e-01
  -3.519101e+00   6.064613e-01
  -1.080536e+00  -1.935223e+00
   5.416836e+00  -4.225248e+00
