
 $NMID
 id='ANONYMOUS ', fmtdat='(2E16.6)'
 volume=1.0
 tramp=1.0
 $END
   4.775598e+07   8.152609e+05
   2.869381e+07   2.918326e+07
  -6.041745e+06   3.200877e+07
  -2.332373e+07   1.303640e+07
  -1.438526e+07  -5.188662e+06
   2.441054e+06  -7.995668e+06
   8.545951e+06   4.881688e+05
   2.872962e+06   8.289861e+06
  -5.043776e+06   8.549246e+06
  -8.354649e+06   2.100458e+06
  -6.080125e+06  -5.500368e+06
  -5.865301e+05  -7.675809e+06
   3.590787e+06  -2.233798e+06
   2.322782e+06   5.151751e+06
  -3.270820e+06   6.063434e+06
  -6.856236e+06  -9.885562e+05
  -3.906697e+06  -8.840135e+06
   3.257164e+06  -1.021681e+07
   8.740311e+06  -4.949636e+06
   9.152791e+06   2.031582e+06
   5.292578e+06   6.481452e+06
   3.152258e+05   7.069614e+06
  -2.245245e+06   4.817241e+06
  -9.631220e+05   2.473978e+06
   1.311993e+06   2.529580e+06
  -7.257724e+04   4.139921e+06
  -5.323665e+06   3.728565e+06
  -8.814169e+06  -4.454193e+04
  -6.051298e+06  -3.954590e+06
   2.416719e+05  -4.407075e+06
   3.697537e+06  -1.905196e+06
   2.152093e+06   4.908613e+05
  -1.111894e+06   1.152929e+06
  -2.652285e+06   2.508422e+05
  -2.023670e+06  -1.825994e+06
  -1.944076e+05  -3.819096e+06
   1.820521e+06  -3.204903e+06
   2.523259e+06   4.387243e+05
   1.065942e+06   3.136729e+06
  -6.960736e+05   1.232061e+06
  -4.464947e+03  -2.563967e+06
   2.337233e+06  -2.170747e+06
   2.207527e+06   2.722763e+06
  -1.851142e+06   5.265128e+06
  -5.614189e+06   9.196573e+05
  -4.223136e+06  -5.809763e+06
   1.575397e+06  -7.185959e+06
   6.385470e+06  -1.987202e+06
   6.217401e+06   3.972876e+06
   1.796711e+06   5.453860e+06
  -3.120103e+06   2.576565e+06
  -4.903708e+06  -1.256848e+06
  -2.389871e+06  -3.101367e+06
   2.006456e+06  -2.003577e+06
   3.976035e+06   7.364470e+05
   1.777600e+06   2.329016e+06
  -1.476750e+06   1.194346e+06
  -1.649932e+06  -9.134379e+05
   9.665272e+05  -9.809509e+05
   2.204608e+06   1.184740e+06
  -1.753847e+05   2.743621e+06
  -3.667737e+06   1.706338e+06
  -4.549880e+06  -9.564351e+05
  -2.081816e+06  -3.352259e+06
   1.747209e+06  -4.629018e+06
   4.768656e+06  -4.196139e+06
   5.641808e+06  -1.312155e+06
   3.894013e+06   3.022659e+06
   6.398419e+05   5.589111e+06
  -1.628889e+06   4.368164e+06
  -1.492546e+06   1.360432e+06
  -3.337359e+05   7.614889e+04
  -4.235712e+05   9.700193e+05
  -1.859365e+06   1.401974e+06
  -2.700429e+06  -1.807483e+05
  -1.730465e+06  -2.146075e+06
   2.518817e+05  -2.154633e+06
   1.695181e+06  -9.046768e+04
   1.618717e+06   2.175064e+06
  -1.402708e+05   2.833342e+06
  -2.673430e+06   1.366359e+06
  -3.998451e+06  -1.335772e+06
  -2.695780e+06  -3.473012e+06
   1.675647e+05  -3.658819e+06
   1.994210e+06  -2.279030e+06
   1.891468e+06  -1.009814e+06
   1.635061e+06  -7.097129e+05
   2.773049e+06  -4.966126e+05
   4.109793e+06   7.358049e+05
   3.280420e+06   2.668365e+06
   5.738036e+04   3.956714e+06
  -3.190855e+06   3.665854e+06
  -4.108931e+06   1.853986e+06
  -2.503311e+06  -5.891054e+05
  -7.212885e+04  -2.184783e+06
   1.202744e+06  -1.764245e+06
   5.239405e+05   9.257519e+04
  -1.113529e+06   1.209453e+06
  -1.808539e+06   3.274664e+05
  -7.977631e+05  -1.151738e+06
   5.670850e+05  -1.063033e+06
   4.869866e+05   3.751613e+05
  -9.226629e+05   7.860221e+05
  -1.777555e+06  -9.832209e+05
  -8.167615e+05  -3.183545e+06
   1.268184e+06  -3.399406e+06
   2.944812e+06  -1.341697e+06
   3.324614e+06   1.274278e+06
   2.332537e+06   2.764946e+06
   4.331128e+05   2.633144e+06
  -1.270837e+06   1.395766e+06
  -1.554470e+06   1.531772e+05
  -4.760771e+05  -5.625310e+04
   3.333260e+05   7.322269e+05
  -3.958420e+05   1.257143e+06
  -1.795126e+06   5.185277e+05
  -1.922689e+06  -8.446947e+05
  -3.747381e+05  -1.337557e+06
   1.131662e+06  -5.465703e+05
   8.968656e+05   4.567892e+05
  -8.052286e+05   5.630716e+05
  -2.174838e+06  -2.694549e+05
  -1.775115e+06  -1.359253e+06
   2.315624e+05  -1.985904e+06
   2.289396e+06  -1.611452e+06
   2.707124e+06  -2.209263e+05
   1.147004e+06   1.224776e+06
  -8.987733e+05   1.391295e+06
  -1.461603e+06   1.425537e+05
  -1.454977e+05  -1.020002e+06
   1.473111e+06  -6.706011e+05
   1.653920e+06   7.707349e+05
   3.373249e+05   1.606893e+06
  -1.044993e+06   9.731621e+05
  -1.230871e+06  -2.737356e+05
  -2.656383e+05  -7.475159e+05
   7.452525e+05  -4.741345e+04
   6.784724e+05   1.027243e+06
  -6.011139e+05   1.356597e+06
  -1.960063e+06   4.631102e+05
  -1.938901e+06  -1.071200e+06
  -3.252268e+05  -2.011468e+06
   1.415057e+06  -1.560766e+06
   1.672751e+06  -1.837651e+05
   4.879035e+05   8.454423e+05
  -6.470687e+05   7.780337e+05
  -6.425337e+05   5.572882e+04
   1.041021e+05  -3.959045e+05
   5.229172e+05  -2.371407e+05
   1.931502e+05   8.539543e+04
  -3.985804e+05  -1.496378e+04
  -5.142012e+05  -6.112190e+05
   1.879040e+05  -1.139873e+06
   1.346955e+06  -8.487813e+05
   2.009442e+06   4.408465e+05
   1.374595e+06   1.914589e+06
  -2.668883e+05   2.354841e+06
  -1.609191e+06   1.369312e+06
  -1.675621e+06  -1.365516e+05
  -8.632610e+05  -9.277973e+05
  -3.031838e+05  -7.232120e+05
  -4.111989e+05  -2.706635e+05
  -5.516309e+05  -2.950359e+05
  -6.599422e+04  -7.094868e+05
   8.553977e+05  -8.648479e+05
   1.425303e+06  -3.085416e+05
   1.038891e+06   7.377159e+05
  -2.552491e+05   1.455912e+06
  -1.703407e+06   1.032423e+06
  -2.189921e+06  -5.131413e+05
  -1.079217e+06  -2.058465e+06
   9.945803e+05  -2.274609e+06
   2.465055e+06  -9.746689e+05
   2.291458e+06   6.527658e+05
   9.573137e+05   1.324852e+06
  -1.938239e+05   9.668265e+05
  -4.291324e+05   5.301205e+05
  -1.575874e+05   7.183812e+05
  -1.586796e+05   1.224037e+06
  -6.666444e+05   1.206809e+06
  -1.242125e+06   2.719508e+05
  -1.264603e+06  -1.082948e+06
  -4.922077e+05  -1.855023e+06
   6.426133e+05  -1.381536e+06
   1.253654e+06   2.344143e+04
   7.727123e+05   1.246958e+06
  -3.798786e+05   1.346486e+06
  -1.105644e+06   4.071992e+05
  -7.721844e+05  -6.388222e+05
   1.023994e+05  -1.013421e+06
   4.900831e+05  -7.583312e+05
   7.375336e+04  -4.238366e+05
  -4.031048e+05  -3.461037e+05
  -4.298259e+04  -3.776375e+05
   1.103926e+06  -1.855869e+05
   1.973125e+06   3.574945e+05
   1.548231e+06   1.026727e+06
  -3.744613e+04   1.372577e+06
  -1.533338e+06   1.064819e+06
  -1.774652e+06   2.511433e+05
  -8.131428e+05  -4.601271e+05
   2.490871e+05  -5.296054e+05
   4.885599e+05  -3.818848e+04
   1.016260e+04   3.852726e+05
  -4.482815e+05   2.330043e+05
  -4.555880e+05  -3.436274e+05
  -2.009996e+05  -7.138580e+05
  -5.602196e+04  -4.673628e+05
  -1.406235e+05   1.078849e+05
  -3.016028e+05   2.996277e+05
  -2.676588e+05  -2.293493e+05
   1.742689e+05  -9.634180e+05
   8.957608e+05  -1.010576e+06
   1.293531e+06  -1.247883e+05
   7.758491e+05   9.057221e+05
  -4.264297e+05   1.072896e+06
  -1.209489e+06   2.760332e+05
  -6.956895e+05  -5.815504e+05
   6.911230e+05  -6.206514e+05
   1.555601e+06   1.159343e+05
   9.938298e+05   8.592058e+05
  -4.704365e+05   9.750455e+05
  -1.479660e+06   4.668272e+05
  -1.220340e+06  -1.975344e+05
  -1.313021e+05  -5.107746e+05
   6.365756e+05  -2.595559e+05
   3.604939e+05   2.863019e+05
  -5.907743e+05   4.831601e+05
  -1.146265e+06  -1.212006e+05
  -6.070383e+05  -1.171284e+06
   6.337490e+05  -1.635294e+06
   1.474706e+06  -8.154443e+05
   1.206331e+06   7.737569e+05
   1.550323e+05   1.756787e+06
  -7.527513e+05   1.257703e+06
  -9.044316e+05  -1.804702e+05
  -4.078289e+05  -1.172701e+06
   2.206341e+05  -9.522943e+05
   5.464175e+05  -7.709121e+04
   4.578724e+05   3.830017e+05
   1.687858e+05   1.434560e+05
   4.525176e+04  -9.659289e+04
   2.498502e+05   2.834412e+05
   4.702611e+05   9.498989e+05
   1.771569e+05   1.061823e+06
  -6.898803e+05   3.748405e+05
  -1.432335e+06  -4.868576e+05
  -1.245019e+06  -8.466710e+05
  -1.674057e+05  -6.834948e+05
   8.529698e+05  -3.883673e+05
   9.695456e+05  -1.603554e+05
   3.430835e+05   5.197281e+04
  -1.507885e+05   2.156431e+05
  -2.823825e+04   2.072576e+05
   2.679105e+05   1.061889e+05
   4.187566e+04   1.310210e+05
  -6.627942e+05   2.104314e+05
  -1.019740e+06  -3.580186e+04
  -3.923300e+05  -6.802994e+05
   8.549495e+05  -1.124732e+06
   1.666398e+06  -6.975179e+05
   1.355445e+06   4.532713e+05
   2.362074e+05   1.379578e+06
  -7.733218e+05   1.324900e+06
  -1.034158e+06   4.981908e+05
  -6.357915e+05  -2.451741e+05
  -1.196551e+05  -3.516757e+05
   7.688039e+04  -5.678397e+04
  -7.779282e+04   2.128454e+04
  -2.906178e+05  -3.631638e+05
  -2.288292e+05  -7.947016e+05
   1.894278e+05  -6.577528e+05
   6.633572e+05   1.363041e+05
   6.985683e+05   9.466994e+05
   8.662071e+04   1.006957e+06
  -7.423009e+05   2.212829e+05
  -9.941619e+05  -7.274056e+05
  -3.166332e+05  -1.068912e+06
   7.084547e+05  -6.441003e+05
   1.087512e+06   9.410523e+04
   5.055284e+05   6.028167e+05
  -2.908169e+05   6.517955e+05
  -3.720769e+05   3.522617e+05
   2.458529e+05   1.658092e+04
   6.360040e+05  -2.550522e+04
   1.361811e+05   3.020678e+05
  -8.186639e+05   6.484456e+05
  -1.236557e+06   5.089860e+05
  -7.375701e+05  -1.822772e+05
   1.096370e+05  -8.452590e+05
   5.502839e+05  -8.253609e+05
   4.133894e+05  -1.486806e+05
   4.134844e+04   4.698449e+05
  -2.412743e+05   4.185796e+05
  -3.403640e+05  -1.532619e+05
  -2.375561e+05  -5.681191e+05
   5.869058e+04  -4.130379e+05
   3.804177e+05   5.161819e+04
   4.592799e+05   2.796444e+05
   2.358001e+05   9.640272e+04
  -3.028234e+04  -1.441642e+05
  -8.184253e+04  -3.872295e+04
   8.220659e+02   3.457160e+05
  -6.246289e+04   5.309637e+05
  -3.148461e+05   2.022224e+05
  -4.362026e+05  -3.797063e+05
  -1.374983e+05  -6.335365e+05
   4.045787e+05  -2.986533e+05
   6.418904e+05   2.846220e+05
   2.368930e+05   5.645611e+05
  -5.007462e+05   3.486568e+05
  -8.589359e+05  -8.841377e+04
  -4.610798e+05  -3.763295e+05
   2.925307e+05  -3.846293e+05
   6.262661e+05  -2.109173e+05
   2.432630e+05  -1.445021e+04
  -3.402890e+05   5.858463e+04
  -3.966022e+05  -7.111931e+04
   1.710570e+05  -2.818975e+05
   7.326260e+05  -2.516852e+05
