
 $NMID
 id='ANONYMOUS ', fmtdat='(2E16.6)'
 volume=1.0
 tramp=1.0
 $END
   2.601845e+07  -2.600151e+05
   1.751793e+07   1.251837e+07
  -1.426005e+05   1.675375e+07
  -1.146825e+07   1.073518e+07
  -9.471951e+06   7.030692e+05
  -4.312507e+05  -4.750352e+06
   5.329602e+06  -2.126058e+06
   3.821822e+06   4.289635e+06
  -1.413384e+06   7.036324e+06
  -4.925777e+06   3.060910e+06
  -4.180503e+06  -3.341173e+06
  -5.255883e+05  -5.371245e+06
   2.466063e+06  -1.158208e+06
   1.936425e+06   4.396236e+06
  -1.582876e+06   5.198769e+06
  -4.375743e+06   4.304254e+05
  -3.211847e+06  -5.128179e+06
   1.198532e+06  -6.481047e+06
   4.961791e+06  -3.121143e+06
   5.083171e+06   1.420326e+06
   2.266958e+06   3.602487e+06
  -2.528262e+05   2.956956e+06
  -1.641309e+05   1.708580e+06
   1.671044e+06   1.988961e+06
   2.158846e+06   3.564251e+06
  -6.735927e+05   4.239066e+06
  -5.076672e+06   2.427392e+06
  -6.847599e+06  -9.265718e+05
  -3.818683e+06  -3.219751e+06
   1.330029e+06  -2.796761e+06
   3.675085e+06  -3.941478e+05
   1.396329e+06   1.772513e+06
  -2.464891e+06   1.894569e+06
  -3.778632e+06  -1.901574e+05
  -1.779580e+06  -2.837912e+06
   8.966380e+05  -3.657032e+06
   1.724373e+06  -1.668023e+06
   6.998064e+05   1.222683e+06
  -4.686308e+05   1.823788e+06
  -4.422317e+05  -5.881458e+05
   7.344314e+05  -2.969996e+06
   1.926130e+06  -2.055876e+06
   1.809465e+06   1.363641e+06
   2.727145e+04   3.179989e+06
  -2.081168e+06   1.055901e+06
  -2.303969e+06  -2.672167e+06
   2.223366e+05  -3.866166e+06
   3.624432e+06  -1.316585e+06
   4.707155e+06   2.359443e+06
   2.120380e+06   3.916114e+06
  -2.051489e+06   2.514597e+06
  -4.171499e+06  -1.921861e+05
  -2.592117e+06  -1.949404e+06
   8.014685e+05  -1.664592e+06
   2.639370e+06  -3.007634e+04
   1.518953e+06   1.197419e+06
  -7.824417e+05   8.481787e+05
  -1.517027e+06  -5.054570e+05
  -5.276385e+04  -1.230414e+06
   1.584246e+06  -4.831672e+05
   1.185268e+06   9.153217e+05
  -1.049955e+06   1.452893e+06
  -2.695037e+06   4.130930e+05
  -1.730982e+06  -1.606611e+06
   1.321043e+06  -3.174705e+06
   3.969472e+06  -2.921912e+06
   4.231300e+06  -5.759039e+05
   2.362204e+06   2.482105e+06
   2.299231e+05   4.130363e+06
  -7.200125e+05   3.509065e+06
  -6.740835e+05   1.878602e+06
  -7.734739e+05   1.013913e+06
  -1.595440e+06   1.032761e+06
  -2.524050e+06   5.353999e+05
  -2.494538e+06  -1.139123e+06
  -1.125849e+06  -2.668587e+06
   8.564151e+05  -2.254228e+06
   2.113122e+06   9.176136e+04
   1.653449e+06   2.368672e+06
  -3.279520e+05   2.628132e+06
  -2.388396e+06   8.032730e+05
  -2.906610e+06  -1.485441e+06
  -1.571728e+06  -2.595256e+06
   2.804041e+05  -2.209920e+06
   1.118212e+06  -1.270002e+06
   9.276726e+05  -8.104792e+05
   1.066280e+06  -9.153639e+05
   2.318143e+06  -7.641384e+05
   3.581333e+06   3.624738e+05
   2.977334e+06   2.188331e+06
   1.673940e+05   3.544096e+06
  -2.911586e+06   3.327407e+06
  -3.854015e+06   1.465928e+06
  -2.166948e+06  -8.758459e+05
   3.252000e+05  -2.080533e+06
   1.372731e+06  -1.412151e+06
   4.270568e+05   2.152106e+05
  -1.107155e+06   1.032428e+06
  -1.527256e+06   2.691112e+05
  -5.445833e+05  -9.562342e+05
   6.296377e+05  -9.757676e+05
   6.870497e+05   2.954530e+05
  -4.542752e+05   1.113445e+06
  -1.636619e+06   1.154437e+04
  -1.563625e+06  -2.283139e+06
   7.304878e+04  -3.497422e+06
   2.294686e+06  -2.255121e+06
   3.516481e+06   5.121351e+05
   2.774143e+06   2.606642e+06
   6.136191e+05   2.698303e+06
  -1.255883e+06   1.328196e+06
  -1.494771e+06   7.105940e+04
  -4.366182e+05  -4.581302e+04
   3.257409e+05   6.525421e+05
  -2.418754e+05   1.051983e+06
  -1.434007e+06   4.944935e+05
  -1.677826e+06  -5.587956e+05
  -4.594824e+05  -1.076151e+06
   9.724915e+05  -5.754723e+05
   9.717017e+05   3.825832e+05
  -6.235600e+05   7.742215e+05
  -2.203634e+06   9.043318e+04
  -2.021346e+06  -1.210403e+06
  -1.022762e+04  -2.075947e+06
   2.106885e+06  -1.714721e+06
   2.513633e+06  -3.122330e+05
   1.052074e+06   1.007920e+06
  -7.242146e+05   1.142636e+06
  -1.159658e+06   1.244268e+05
  -6.202633e+04  -8.323483e+05
   1.293689e+06  -6.043003e+05
   1.539566e+06   5.896953e+05
   4.930186e+05   1.444294e+06
  -8.097079e+05   1.068902e+06
  -1.180885e+06  -3.500288e+04
  -4.013463e+05  -6.168325e+05
   5.860735e+05  -9.068360e+04
   5.962644e+05   8.957577e+05
  -5.652441e+05   1.215609e+06
  -1.791715e+06   3.967628e+05
  -1.753509e+06  -9.721863e+05
  -3.296771e+05  -1.801196e+06
   1.201668e+06  -1.447418e+06
   1.498319e+06  -2.617263e+05
   5.273370e+05   7.292402e+05
  -5.409800e+05   7.659348e+05
  -6.755563e+05   5.181465e+04
   1.583512e+04  -5.271039e+05
   6.080164e+05  -3.904371e+05
   4.394580e+05   1.262237e+05
  -2.365564e+05   2.255255e+05
  -5.674886e+05  -3.664557e+05
   1.573799e+04  -1.017945e+06
   1.166561e+06  -8.410595e+05
   1.845267e+06   3.390066e+05
   1.283440e+06   1.715243e+06
  -2.068284e+05   2.199238e+06
  -1.477435e+06   1.406854e+06
  -1.667235e+06  -3.761406e+03
  -9.918449e+05  -9.550432e+05
  -3.420436e+05  -9.387507e+05
  -2.325238e+05  -4.088993e+05
  -3.394774e+05  -1.908561e+05
  -5.246038e+04  -5.345856e+05
   7.126509e+05  -8.449395e+05
   1.341501e+06  -4.060793e+05
   1.099470e+06   6.938845e+05
  -1.251726e+05   1.494320e+06
  -1.566619e+06   1.089337e+06
  -2.086170e+06  -4.019659e+05
  -1.119875e+06  -1.846422e+06
   7.360764e+05  -2.104306e+06
   2.149102e+06  -1.043641e+06
   2.193270e+06   4.117795e+05
   1.111501e+06   1.200234e+06
  -5.410297e+04   1.071954e+06
  -5.138804e+05   6.538146e+05
  -3.579279e+05   6.366316e+05
  -2.324076e+05   9.854636e+05
  -5.508846e+05   1.017007e+06
  -1.065173e+06   2.381983e+05
  -1.146551e+06  -9.900559e+05
  -4.632374e+05  -1.708574e+06
   5.908616e+05  -1.281704e+06
   1.170643e+06  -2.764126e+04
   7.745879e+05   1.069145e+06
  -2.173078e+05   1.238088e+06
  -8.882325e+05   5.275876e+05
  -7.125266e+05  -3.746113e+05
  -6.470128e+04  -8.270887e+05
   2.643755e+05  -7.360897e+05
  -8.051450e+03  -4.645724e+05
  -3.424381e+05  -3.500414e+05
  -2.347290e+04  -3.623940e+05
   9.527049e+05  -2.138600e+05
   1.737486e+06   2.578024e+05
   1.442274e+06   8.594413e+05
   9.806963e+04   1.185450e+06
  -1.265765e+06   9.721077e+05
  -1.586095e+06   3.405295e+05
  -8.009842e+05  -2.671163e+05
   1.610282e+05  -4.256436e+05
   4.122122e+05  -1.035628e+05
  -2.647167e+04   2.661177e+05
  -4.555649e+05   1.928739e+05
  -4.063985e+05  -3.129442e+05
  -8.541811e+04  -6.822837e+05
   4.392834e+04  -4.337616e+05
  -1.428497e+05   1.754496e+05
  -3.601134e+05   3.700960e+05
  -2.714405e+05  -1.960324e+05
   2.021003e+05  -9.257152e+05
   8.062640e+05  -9.231992e+05
   1.061559e+06  -6.415530e+04
   5.994311e+05   8.251152e+05
  -3.767188e+05   8.929224e+05
  -1.034883e+06   1.667958e+05
  -6.301269e+05  -5.627354e+05
   6.021935e+05  -6.050620e+05
   1.488986e+06   2.598359e+04
   1.076921e+06   7.561970e+05
  -3.171926e+05   1.002798e+06
  -1.397246e+06   6.061411e+05
  -1.234465e+06  -8.801950e+04
  -1.846144e+05  -4.991988e+05
   5.745986e+05  -3.022133e+05
   3.031565e+05   2.246063e+05
  -5.908387e+05   3.981362e+05
  -1.048146e+06  -1.828127e+05
  -4.706525e+05  -1.117573e+06
   6.903007e+05  -1.472691e+06
   1.414840e+06  -6.891689e+05
   1.117881e+06   7.523255e+05
   1.396767e+05   1.658343e+06
  -6.961849e+05   1.235882e+06
  -8.681957e+05  -9.264875e+04
  -4.635157e+05  -1.083859e+06
   1.075602e+05  -9.472204e+05
   4.832762e+05  -1.175309e+05
   4.976386e+05   3.724269e+05
   2.326445e+05   1.600530e+05
   1.367204e+04  -1.151860e+05
   1.300015e+05   2.060261e+05
   4.066946e+05   8.588253e+05
   2.639559e+05   1.011096e+06
  -5.376871e+05   3.769073e+05
  -1.356290e+06  -4.476672e+05
  -1.255102e+06  -7.853206e+05
  -1.727082e+05  -6.190651e+05
   8.686444e+05  -3.555656e+05
   9.337747e+05  -1.834426e+05
   2.589872e+05  -1.686191e+03
  -1.688310e+05   1.924427e+05
   6.161891e+04   2.421325e+05
   3.427232e+05   1.539431e+05
   1.850027e+03   1.262479e+05
  -7.174434e+05   1.550027e+05
  -9.354072e+05  -6.316278e+04
  -2.247290e+05  -6.113506e+05
   8.857770e+05  -9.821839e+05
   1.483939e+06  -5.761187e+05
   1.138256e+06   4.749808e+05
   1.757573e+05   1.298119e+06
  -6.972853e+05   1.197735e+06
  -9.583487e+05   3.940326e+05
  -6.010395e+05  -2.842665e+05
  -6.877048e+04  -3.239503e+05
   1.507935e+05   6.944020e+03
  -4.479434e+04   8.465523e+04
  -3.136456e+05  -3.121802e+05
  -2.467813e+05  -7.406070e+05
   1.979902e+05  -5.889053e+05
   6.308406e+05   1.949091e+05
   5.838564e+05   9.435955e+05
  -2.880311e+04   9.210560e+05
  -7.424639e+05   1.089003e+05
  -8.836543e+05  -7.645878e+05
  -2.254338e+05  -9.875623e+05
   6.750881e+05  -5.241728e+05
   9.629087e+05   1.211019e+05
   4.153038e+05   5.002941e+05
  -2.658782e+05   5.209338e+05
  -2.738708e+05   3.076077e+05
   3.076718e+05   5.253991e+04
   6.114625e+05  -3.854343e+03
   9.621644e+04   2.645691e+05
  -7.659614e+05   6.062659e+05
  -1.085171e+06   5.263692e+05
  -6.045784e+05  -1.079808e+05
   1.153353e+05  -7.506961e+05
   4.455231e+05  -7.306853e+05
   3.012598e+05  -7.860654e+04
  -1.097583e+04   4.682089e+05
  -2.417118e+05   3.410509e+05
  -3.157504e+05  -2.186249e+05
  -2.026438e+05  -5.320606e+05
   7.586480e+04  -3.149417e+05
   3.478373e+05   8.417970e+04
   3.995789e+05   2.123025e+05
   2.189115e+05   4.615320e+04
   8.095460e+03  -7.505074e+04
  -7.935124e+04   8.225885e+04
  -1.072316e+05   3.637270e+05
  -2.056565e+05   4.049940e+05
  -3.353192e+05   4.756327e+04
  -2.984286e+05  -4.412344e+05
   1.171532e+04  -5.956119e+05
   4.151869e+05  -2.336344e+05
   5.402189e+05   3.195872e+05
   1.729949e+05   5.551001e+05
  -4.464068e+05   3.067407e+05
  -7.501192e+05  -1.251043e+05
  -4.003707e+05  -3.562453e+05
   2.742993e+05  -2.970779e+05
   5.608797e+05  -1.194886e+05
   1.670800e+05  -5.466464e+02
  -3.954802e+05  -1.377409e+04
  -3.953949e+05  -1.560617e+05
   2.315564e+05  -3.058744e+05
   7.926935e+05  -2.152528e+05
