
 $NMID
 id='ANONYMOUS ', fmtdat='(2E16.6)'
 volume=1.0
 tramp=1.0
 $END
   2.078744e+07  -8.225972e+05
   1.472764e+07   7.980006e+06
   1.533935e+06   1.274674e+07
  -8.067320e+06   1.038246e+07
  -7.999822e+06   2.587909e+06
  -1.310504e+06  -3.803352e+06
   4.314619e+06  -3.019255e+06
   4.199310e+06   3.033466e+06
  -1.318401e+05   6.682428e+06
  -3.887501e+06   3.495355e+06
  -3.856866e+06  -2.709007e+06
  -7.144639e+05  -4.868461e+06
   2.225039e+06  -9.851052e+05
   2.111119e+06   4.213984e+06
  -9.025975e+05   5.099200e+06
  -3.711923e+06   9.407612e+05
  -3.198527e+06  -4.112573e+06
   5.088121e+05  -5.597734e+06
   4.000733e+06  -2.785964e+06
   4.176236e+06   1.232452e+06
   1.559184e+06   2.972799e+06
  -4.837100e+05   1.981919e+06
   3.041655e+05   8.010802e+05
   2.515876e+06   1.646735e+06
   2.727311e+06   3.752195e+06
  -5.852896e+05   4.457289e+06
  -5.075729e+06   2.440882e+06
  -6.613655e+06  -8.858138e+05
  -3.475537e+06  -3.009328e+06
   1.582862e+06  -2.588608e+06
   3.835277e+06  -2.257998e+05
   1.419375e+06   2.123742e+06
  -2.731253e+06   2.380387e+06
  -4.221575e+06  -1.091780e+04
  -1.999680e+06  -3.092093e+06
   9.982511e+05  -3.835566e+06
   1.737477e+06  -1.400869e+06
   3.534511e+05   1.535581e+06
  -8.613397e+05   1.643593e+06
  -5.343539e+05  -1.081466e+06
   7.441596e+05  -3.249482e+06
   1.747515e+06  -2.173401e+06
   1.751876e+06   9.475841e+05
   6.014265e+05   2.586772e+06
  -1.113005e+06   1.031504e+06
  -1.821042e+06  -1.875457e+06
  -1.696817e+05  -3.006456e+06
   2.938650e+06  -1.224794e+06
   4.472758e+06   1.790880e+06
   2.411073e+06   3.456395e+06
  -1.667342e+06   2.626494e+06
  -4.032646e+06   3.018469e+05
  -2.766159e+06  -1.519768e+06
   4.162023e+05  -1.594485e+06
   2.301870e+06  -3.185473e+05
   1.495510e+06   8.474482e+05
  -5.849733e+05   7.840390e+05
  -1.528509e+06  -3.234754e+05
  -4.203925e+05  -1.264749e+06
   1.327329e+06  -1.004804e+06
   1.527470e+06   2.908054e+05
  -2.996808e+05   1.326973e+06
  -2.158668e+06   8.442621e+05
  -1.674463e+06  -1.095230e+06
   1.136262e+06  -2.923923e+06
   3.759909e+06  -2.852971e+06
   3.975537e+06  -5.671752e+05
   2.133517e+06   2.352249e+06
   2.909489e+05   3.860341e+06
  -3.314512e+05   3.361105e+06
  -3.249196e+05   2.059768e+06
  -7.929102e+05   1.367788e+06
  -1.885795e+06   1.247328e+06
  -2.790115e+06   5.131554e+05
  -2.634894e+06  -1.285707e+06
  -1.190698e+06  -2.847842e+06
   8.958765e+05  -2.431616e+06
   2.298729e+06  -1.369435e+04
   1.865649e+06   2.379385e+06
  -2.370748e+05   2.675233e+06
  -2.360731e+06   8.036492e+05
  -2.792029e+06  -1.453290e+06
  -1.417795e+06  -2.401416e+06
   2.714307e+05  -1.904145e+06
   8.969635e+05  -1.047665e+06
   6.560776e+05  -7.760930e+05
   8.728141e+05  -1.025594e+06
   2.193983e+06  -9.712856e+05
   3.534113e+06   8.361311e+04
   3.080796e+06   1.952869e+06
   3.947699e+05   3.510677e+06
  -2.729805e+06   3.487660e+06
  -3.822050e+06   1.623055e+06
  -2.206447e+06  -8.630126e+05
   3.184064e+05  -2.152702e+06
   1.389559e+06  -1.451004e+06
   4.335337e+05   2.330298e+05
  -1.081794e+06   1.080541e+06
  -1.479341e+06   3.381580e+05
  -5.384842e+05  -9.110154e+05
   6.078826e+05  -1.021648e+06
   7.725145e+05   2.264675e+05
  -2.509519e+05   1.230204e+06
  -1.579768e+06   3.719240e+05
  -1.891486e+06  -1.959249e+06
  -4.685110e+05  -3.548037e+06
   1.985532e+06  -2.662518e+06
   3.646823e+06   9.216629e+04
   3.118407e+06   2.435425e+06
   8.491787e+05   2.738982e+06
  -1.207796e+06   1.422183e+06
  -1.519615e+06   1.395734e+05
  -4.400235e+05  -1.972432e+04
   3.678482e+05   6.287031e+05
  -1.543546e+05   1.030218e+06
  -1.345910e+06   5.677320e+05
  -1.673782e+06  -4.078549e+05
  -5.454128e+05  -1.000700e+06
   9.177258e+05  -6.490661e+05
   1.036597e+06   3.076203e+05
  -5.302471e+05   8.784234e+05
  -2.241988e+06   3.272994e+05
  -2.206870e+06  -1.062541e+06
  -2.093153e+05  -2.139870e+06
   2.001750e+06  -1.907135e+06
   2.503967e+06  -4.885425e+05
   1.103807e+06   9.173921e+05
  -6.412090e+05   1.140454e+06
  -1.102967e+06   1.761582e+05
  -8.135073e+04  -8.053165e+05
   1.246548e+06  -6.715814e+05
   1.575242e+06   4.684967e+05
   6.275302e+05   1.399020e+06
  -6.958219e+05   1.158920e+06
  -1.186379e+06   9.855163e+04
  -4.789545e+05  -5.646210e+05
   5.500776e+05  -1.310602e+05
   6.368655e+05   8.522521e+05
  -5.043825e+05   1.242397e+06
  -1.773701e+06   4.894844e+05
  -1.804266e+06  -8.747278e+05
  -4.379499e+05  -1.772117e+06
   1.093972e+06  -1.516769e+06
   1.470656e+06  -3.716919e+05
   5.902996e+05   6.823293e+05
  -4.799711e+05   8.101529e+05
  -6.994364e+05   9.632521e+04
  -4.837677e+04  -5.715507e+05
   6.131677e+05  -4.847312e+05
   5.274736e+05   9.799235e+04
  -1.704918e+05   3.004005e+05
  -6.041798e+05  -2.723363e+05
  -8.512337e+04  -1.002586e+06
   1.097884e+06  -9.220567e+05
   1.864943e+06   2.170962e+05
   1.386643e+06   1.633954e+06
  -7.009305e+04   2.225337e+06
  -1.392325e+06   1.537786e+06
  -1.701713e+06   1.343341e+05
  -1.113883e+06  -9.188452e+05
  -4.331913e+05  -9.985689e+05
  -2.245222e+05  -4.540164e+05
  -2.966018e+05  -1.603789e+05
  -7.201693e+04  -4.995583e+05
   6.427195e+05  -8.971664e+05
   1.323822e+06  -5.203850e+05
   1.185106e+06   6.293579e+05
   8.258348e+02   1.544243e+06
  -1.501053e+06   1.221711e+06
  -2.131871e+06  -2.606387e+05
  -1.261480e+06  -1.766987e+06
   5.668364e+05  -2.143955e+06
   2.052741e+06  -1.203127e+06
   2.235954e+06   2.285137e+05
   1.249208e+06   1.120471e+06
   5.490378e+04   1.123557e+06
  -5.023459e+05   7.416801e+05
  -3.872633e+05   6.663580e+05
  -2.125468e+05   9.666677e+05
  -4.835352e+05   1.019980e+06
  -1.033464e+06   2.902208e+05
  -1.200823e+06  -9.281186e+05
  -5.642454e+05  -1.688078e+06
   5.197664e+05  -1.322422e+06
   1.174667e+06  -1.093205e+05
   8.507077e+05   1.001863e+06
  -1.096412e+05   1.245261e+06
  -8.132631e+05   6.153571e+05
  -7.220250e+05  -2.732243e+05
  -1.507958e+05  -7.845223e+05
   1.665467e+05  -7.518937e+05
  -6.163541e+04  -4.823730e+05
  -3.571407e+05  -3.432849e+05
  -4.017561e+04  -3.678610e+05
   9.225912e+05  -2.764300e+05
   1.730202e+06   1.455345e+05
   1.494885e+06   7.549988e+05
   1.986539e+05   1.152085e+06
  -1.173348e+06   1.034464e+06
  -1.551121e+06   4.599268e+05
  -8.235071e+05  -1.734719e+05
   1.219210e+05  -4.134301e+05
   3.921886e+05  -1.445641e+05
  -2.823056e+04   2.452216e+05
  -4.605295e+05   2.159129e+05
  -4.215287e+05  -2.911570e+05
  -9.670988e+04  -6.942491e+05
   4.735469e+04  -4.454393e+05
  -1.322381e+05   2.072978e+05
  -3.582032e+05   4.248511e+05
  -2.895600e+05  -1.754342e+05
   1.604296e+05  -9.546163e+05
   7.523301e+05  -9.683850e+05
   1.027320e+06  -1.002607e+05
   6.137558e+05   7.997151e+05
  -3.297146e+05   8.884656e+05
  -1.012270e+06   1.946551e+05
  -6.629821e+05  -5.380463e+05
   5.580432e+05  -6.487171e+05
   1.507002e+06  -8.532573e+04
   1.168443e+06   6.769939e+05
  -2.207485e+05   1.047130e+06
  -1.366310e+06   7.410666e+05
  -1.269903e+06   1.629543e+04
  -2.340602e+05  -4.946881e+05
   5.518857e+05  -3.534224e+05
   3.057739e+05   1.988448e+05
  -5.874765e+05   4.223755e+05
  -1.065004e+06  -1.457738e+05
  -5.121812e+05  -1.112668e+06
   6.433975e+05  -1.514705e+06
   1.402187e+06  -7.573217e+05
   1.169266e+06   7.033146e+05
   2.355354e+05   1.668765e+06
  -6.246669e+05   1.302658e+06
  -8.818882e+05  -2.012387e+04
  -5.522925e+05  -1.056820e+06
   2.173159e+04  -9.706884e+05
   4.693450e+05  -1.574000e+05
   5.440336e+05   3.462700e+05
   2.670472e+05   1.503367e+05
  -2.795919e+03  -1.221549e+05
   1.089692e+05   1.902660e+05
   4.477932e+05   8.362280e+05
   3.537748e+05   1.002731e+06
  -4.876486e+05   4.111522e+05
  -1.397437e+06  -3.701185e+05
  -1.336204e+06  -7.116658e+05
  -2.129137e+05  -6.073353e+05
   8.763620e+05  -4.109752e+05
   9.364217e+05  -2.500309e+05
   2.397502e+05  -2.683273e+04
  -1.678005e+05   2.029813e+05
   1.046879e+05   2.485509e+05
   3.846144e+05   1.450106e+05
  -1.441875e+03   1.307511e+05
  -7.454048e+05   1.920169e+05
  -9.434182e+05  -1.978963e+04
  -2.189635e+05  -6.059681e+05
   8.662510e+05  -1.026875e+06
   1.446747e+06  -6.389809e+05
   1.141042e+06   4.370996e+05
   2.392191e+05   1.304048e+06
  -6.296166e+05   1.233862e+06
  -9.459330e+05   4.308922e+05
  -6.278338e+05  -2.675178e+05
  -7.512238e+04  -3.241349e+05
   1.792615e+05   1.030514e+04
  -2.782954e+04   1.046746e+05
  -3.443085e+05  -2.859561e+05
  -3.005842e+05  -7.294752e+05
   1.735599e+05  -5.989200e+05
   6.547673e+05   1.789989e+05
   6.267568e+05   9.392938e+05
  -9.207532e+03   9.317828e+05
  -7.628939e+05   1.274558e+05
  -9.272632e+05  -7.475794e+05
  -2.627637e+05  -9.840621e+05
   6.594946e+05  -5.455221e+05
   9.643852e+05   8.007647e+04
   4.264882e+05   4.661655e+05
  -2.424511e+05   5.144486e+05
  -2.385428e+05   3.144685e+05
   3.381950e+05   4.069369e+04
   6.224295e+05  -3.432941e+04
   1.019796e+05   2.581840e+05
  -7.375464e+05   6.551856e+05
  -1.039861e+06   6.026451e+05
  -5.869106e+05  -6.195328e+04
   7.958329e+04  -7.528783e+05
   3.901199e+05  -7.456601e+05
   2.787416e+05  -7.328053e+04
   3.455464e+03   4.843848e+05
  -2.322060e+05   3.442791e+05
  -3.352952e+05  -2.241913e+05
  -2.292647e+05  -5.263441e+05
   6.932873e+04  -3.027407e+05
   3.556853e+05   7.579068e+04
   4.030542e+05   1.789476e+05
   2.198966e+05   2.139053e+04
   1.843596e+04  -6.136980e+04
  -6.800612e+04   1.218456e+05
  -1.156128e+05   3.918866e+05
  -2.327990e+05   4.037702e+05
  -3.567917e+05   2.917967e+04
  -3.005114e+05  -4.600348e+05
   1.786999e+04  -6.116516e+05
   4.189227e+05  -2.487221e+05
   5.493082e+05   3.107112e+05
   1.941138e+05   5.608552e+05
  -4.274693e+05   3.278018e+05
  -7.510078e+05  -9.893660e+04
  -4.155042e+05  -3.395231e+05
   2.639676e+05  -2.972531e+05
   5.567732e+05  -1.285653e+05
   1.519008e+05  -2.285222e+03
  -4.264487e+05  -5.665450e+03
  -4.207765e+05  -1.587744e+05
   2.336365e+05  -3.387419e+05
   8.192130e+05  -2.640713e+05
