
 $NMID
 id='ANONYMOUS ', fmtdat='(2E16.6)'
 volume=1.0
 tramp=1.0
 $END
   5.725092e+07  -8.763624e+05
   3.501925e+07   3.520963e+07
  -7.124370e+06   3.904821e+07
  -2.805127e+07   1.513860e+07
  -1.691469e+07  -7.178332e+06
   3.350486e+06  -9.591541e+06
   1.007617e+07   1.279492e+06
   2.837541e+06   1.000531e+07
  -6.353873e+06   9.488559e+06
  -9.837488e+06   2.035902e+06
  -7.129046e+06  -6.201070e+06
  -8.996823e+05  -8.650116e+06
   3.969780e+06  -2.833599e+06
   2.638721e+06   5.403607e+06
  -3.823917e+06   6.590125e+06
  -8.022034e+06  -1.327251e+06
  -4.591089e+06  -1.032373e+07
   3.729719e+06  -1.200994e+07
   1.017080e+07  -6.129929e+06
   1.099205e+07   1.882290e+06
   6.896446e+06   7.456526e+06
   9.279752e+05   8.817776e+06
  -2.884789e+06   6.319535e+06
  -2.026971e+06   2.833890e+06
   9.503954e+05   2.088521e+06
   2.787485e+05   4.065479e+06
  -5.277773e+06   4.424690e+06
  -9.618495e+06   6.358425e+05
  -7.140561e+06  -4.022886e+06
  -4.094315e+05  -5.052770e+06
   3.585737e+06  -2.642671e+06
   2.425479e+06  -1.525537e+05
  -5.323011e+05   7.866581e+05
  -2.130888e+06   4.480341e+05
  -2.120036e+06  -1.322063e+06
  -7.669546e+05  -3.824322e+06
   1.708558e+06  -3.916900e+06
   3.284189e+06  -5.243175e+04
   1.868721e+06   3.604156e+06
  -6.882909e+05   2.052122e+06
  -3.648807e+05  -2.347862e+06
   2.458241e+06  -2.292821e+06
   2.506451e+06   3.241368e+06
  -2.446398e+06   6.302634e+06
  -7.134310e+06   1.160776e+06
  -5.341634e+06  -6.981724e+06
   1.837154e+06  -8.729367e+06
   7.504859e+06  -2.559176e+06
   7.039827e+06   4.456618e+06
   1.854027e+06   6.093406e+06
  -3.520565e+06   2.723393e+06
  -5.297755e+06  -1.572173e+06
  -2.425130e+06  -3.553389e+06
   2.467463e+06  -2.250639e+06
   4.607004e+06   9.148720e+05
   1.994637e+06   2.764851e+06
  -1.734186e+06   1.409569e+06
  -1.745485e+06  -1.046112e+06
   1.400783e+06  -9.415692e+05
   2.580568e+06   1.830790e+06
  -6.178686e+05   3.608207e+06
  -4.754266e+06   2.027135e+06
  -5.442319e+06  -1.356606e+06
  -2.395320e+06  -4.044204e+06
   1.751998e+06  -5.319671e+06
   4.951598e+06  -4.897137e+06
   6.183953e+06  -1.831504e+06
   4.653642e+06   3.089647e+06
   1.017996e+06   6.182904e+06
  -1.879855e+06   4.818564e+06
  -1.839812e+06   1.207393e+06
  -1.842762e+05  -3.450865e+05
   1.065336e+05   8.955568e+05
  -1.494647e+06   1.788441e+06
  -2.745134e+06   3.081184e+05
  -2.014618e+06  -1.847303e+06
  -5.505711e+04  -2.084069e+06
   1.499978e+06  -1.864993e+05
   1.640772e+06   2.053596e+06
   1.572841e+04   2.912987e+06
  -2.735621e+06   1.684667e+06
  -4.492761e+06  -1.123683e+06
  -3.305651e+06  -3.733891e+06
  -3.770914e+04  -4.284192e+06
   2.271038e+06  -2.805711e+06
   2.275940e+06  -1.187400e+06
   1.875100e+06  -6.854964e+05
   2.970850e+06  -4.657810e+05
   4.371955e+06   7.772304e+05
   3.494381e+06   2.784550e+06
   1.201985e+05   4.136890e+06
  -3.208979e+06   3.896937e+06
  -4.154079e+06   2.127815e+06
  -2.645942e+06  -3.901153e+05
  -2.997145e+05  -2.206555e+06
   1.069455e+06  -1.933853e+06
   5.606614e+05   2.311881e+04
  -1.079549e+06   1.310445e+06
  -1.918542e+06   4.064115e+05
  -9.421267e+05  -1.205087e+06
   5.112569e+05  -1.108235e+06
   4.111477e+05   4.096917e+05
  -1.125406e+06   6.864851e+05
  -1.909652e+06  -1.369333e+06
  -6.076856e+05  -3.591388e+06
   1.715212e+06  -3.440857e+06
   3.239654e+06  -1.041596e+06
   3.304154e+06   1.537903e+06
   2.208547e+06   2.798872e+06
   4.111023e+05   2.600936e+06
  -1.240356e+06   1.453755e+06
  -1.570743e+06   2.273951e+05
  -4.942752e+05  -4.771635e+04
   3.566142e+05   7.586027e+05
  -4.244769e+05   1.361957e+06
  -1.938038e+06   5.865500e+05
  -2.060158e+06  -9.134371e+05
  -3.793891e+05  -1.445890e+06
   1.189969e+06  -5.660305e+05
   8.773346e+05   4.733987e+05
  -8.823008e+05   4.987112e+05
  -2.185181e+06  -3.778764e+05
  -1.704790e+06  -1.394935e+06
   2.960816e+05  -1.962258e+06
   2.335145e+06  -1.626068e+06
   2.787840e+06  -2.521210e+05
   1.225247e+06   1.286992e+06
  -9.301689e+05   1.526795e+06
  -1.587138e+06   1.980064e+05
  -2.135213e+05  -1.093339e+06
   1.531623e+06  -7.407735e+05
   1.728282e+06   8.059653e+05
   3.130779e+05   1.675992e+06
  -1.129468e+06   9.650856e+05
  -1.269075e+06  -3.479547e+05
  -2.285584e+05  -8.048093e+05
   8.162266e+05  -5.288611e+04
   7.441388e+05   1.065128e+06
  -5.785931e+05   1.433253e+06
  -2.018395e+06   5.450469e+05
  -2.047522e+06  -1.059969e+06
  -3.792072e+05  -2.093963e+06
   1.465383e+06  -1.651167e+06
   1.746126e+06  -1.960592e+05
   4.942492e+05   8.859559e+05
  -6.749640e+05   8.018425e+05
  -6.258040e+05   6.944580e+04
   1.408701e+05  -3.457380e+05
   4.884499e+05  -1.777710e+05
   8.587000e+04   7.601343e+04
  -4.815182e+05  -1.018388e+05
  -5.174020e+05  -7.079961e+05
   2.300950e+05  -1.205254e+06
   1.404521e+06  -8.917268e+05
   2.094607e+06   4.304422e+05
   1.467052e+06   1.963641e+06
  -2.310273e+05   2.429238e+06
  -1.635362e+06   1.394576e+06
  -1.686900e+06  -1.555555e+05
  -8.257140e+05  -9.009960e+05
  -2.915534e+05  -6.226076e+05
  -4.883048e+05  -1.911545e+05
  -6.562761e+05  -3.167134e+05
  -9.766983e+04  -7.830095e+05
   8.954609e+05  -9.000110e+05
   1.458384e+06  -3.034542e+05
   1.031193e+06   7.347586e+05
  -2.797524e+05   1.450314e+06
  -1.740595e+06   1.053096e+06
  -2.250637e+06  -5.055200e+05
  -1.118197e+06  -2.126561e+06
   1.046118e+06  -2.382671e+06
   2.581866e+06  -1.015728e+06
   2.358821e+06   7.002282e+05
   9.251323e+05   1.363806e+06
  -2.380611e+05   9.312014e+05
  -3.856631e+05   4.809036e+05
  -4.907602e+04   7.467227e+05
  -8.605269e+04   1.326786e+06
  -6.792493e+05   1.309500e+06
  -1.310190e+06   3.237806e+05
  -1.344278e+06  -1.087462e+06
  -5.540953e+05  -1.904288e+06
   6.279866e+05  -1.440882e+06
   1.291762e+06   1.310847e+04
   8.085569e+05   1.305977e+06
  -4.143950e+05   1.409395e+06
  -1.196557e+06   3.903297e+05
  -8.256778e+05  -7.331694e+05
   1.427617e+05  -1.104877e+06
   5.700882e+05  -7.900522e+05
   1.020373e+05  -4.112433e+05
  -4.370834e+05  -3.313437e+05
  -6.119894e+04  -3.818092e+05
   1.166048e+06  -2.063117e+05
   2.087596e+06   3.431733e+05
   1.625061e+06   1.058003e+06
  -5.593124e+04   1.461077e+06
  -1.619849e+06   1.153117e+06
  -1.854008e+06   2.617512e+05
  -8.378857e+05  -5.251752e+05
   2.698558e+05  -5.848569e+05
   5.239525e+05  -2.468364e+04
   4.152193e+04   4.347820e+05
  -4.366999e+05   2.602181e+05
  -4.859594e+05  -3.434185e+05
  -2.696167e+05  -7.159480e+05
  -1.122969e+05  -4.749218e+05
  -1.403880e+05   8.133649e+04
  -2.724836e+05   2.724177e+05
  -2.731664e+05  -2.376639e+05
   1.373858e+05  -9.815664e+05
   9.063066e+05  -1.073271e+06
   1.388085e+06  -1.932088e+05
   8.774892e+05   9.130243e+05
  -4.137187e+05   1.163047e+06
  -1.272548e+06   3.606017e+05
  -7.378664e+05  -5.695677e+05
   7.141117e+05  -6.471123e+05
   1.589998e+06   1.160685e+05
   9.811090e+05   8.847351e+05
  -5.160653e+05   9.803114e+05
  -1.510400e+06   4.432719e+05
  -1.222801e+06  -2.181502e+05
  -1.199902e+05  -5.149677e+05
   6.593443e+05  -2.581816e+05
   3.949854e+05   3.019602e+05
  -5.745958e+05   5.334644e+05
  -1.187506e+06  -6.267801e+04
  -6.957664e+05  -1.172337e+06
   5.620810e+05  -1.716027e+06
   1.473610e+06  -9.066873e+05
   1.262298e+06   7.497736e+05
   2.069813e+05   1.793176e+06
  -7.465922e+05   1.285755e+06
  -9.278981e+05  -1.962033e+05
  -4.143316e+05  -1.203819e+06
   2.480830e+05  -9.643457e+05
   5.739557e+05  -7.506277e+04
   4.491489e+05   3.788345e+05
   1.428677e+05   1.355718e+05
   5.785556e+04  -9.090687e+04
   3.127876e+05   3.051338e+05
   5.240145e+05   9.745803e+05
   1.655677e+05   1.083161e+06
  -7.474304e+05   3.971495e+05
  -1.476927e+06  -4.666662e+05
  -1.261430e+06  -8.445013e+05
  -1.839486e+05  -7.073250e+05
   8.342012e+05  -4.209681e+05
   9.814774e+05  -1.740658e+05
   3.836299e+05   6.318495e+04
  -1.364838e+05   2.279548e+05
  -6.476711e+04   1.969269e+05
   2.346579e+05   8.288772e+04
   6.273707e+04   1.300035e+05
  -6.301521e+05   2.468740e+05
  -1.054877e+06   4.015698e+03
  -4.847158e+05  -6.919092e+05
   8.069813e+05  -1.203768e+06
   1.721979e+06  -7.976643e+05
   1.458319e+06   4.005854e+05
   2.983685e+05   1.404882e+06
  -7.686599e+05   1.400791e+06
  -1.049263e+06   5.710714e+05
  -6.538625e+05  -2.112957e+05
  -1.514121e+05  -3.580783e+05
   3.963629e+04  -8.264332e+04
  -9.506172e+04  -3.082011e+03
  -2.911191e+05  -3.797009e+05
  -2.415998e+05  -8.132180e+05
   1.668518e+05  -6.910315e+05
   6.768319e+05   9.354970e+04
   7.698133e+05   9.248089e+05
   1.647659e+05   1.035251e+06
  -7.301846e+05   2.873286e+05
  -1.056016e+06  -6.814551e+05
  -3.850653e+05  -1.091127e+06
   7.010594e+05  -7.139543e+05
   1.141587e+06   5.061993e+04
   5.637867e+05   6.308170e+05
  -2.795940e+05   7.165326e+05
  -4.044681e+05   3.851412e+05
   2.167089e+05  -1.680229e+03
   6.441965e+05  -5.089594e+04
   1.624981e+05   3.128989e+05
  -8.236485e+05   6.875810e+05
  -1.290717e+06   5.368667e+05
  -8.031254e+05  -1.908202e+05
   8.266883e+04  -8.878540e+05
   5.717215e+05  -8.839718e+05
   4.550374e+05  -1.947213e+05
   7.516835e+04   4.661682e+05
  -2.270428e+05   4.576242e+05
  -3.507615e+05  -1.151650e+05
  -2.674942e+05  -5.759035e+05
   3.641188e+04  -4.560607e+05
   3.936672e+05   2.681116e+04
   4.948381e+05   2.952396e+05
   2.477471e+05   1.120798e+05
  -5.407423e+04  -1.716777e+05
  -9.010291e+04  -8.991204e+04
   5.531371e+04   3.315666e+05
   1.944166e+04   5.794889e+05
  -2.925666e+05   2.761038e+05
  -5.016293e+05  -3.348189e+05
  -2.194737e+05  -6.382837e+05
   3.890597e+05  -3.355514e+05
   6.904081e+05   2.487583e+05
   2.781181e+05   5.591452e+05
  -5.137670e+05   3.809622e+05
  -9.057128e+05  -4.674745e+04
  -4.968075e+05  -3.708958e+05
   2.867342e+05  -4.302474e+05
   6.444803e+05  -2.685934e+05
   2.753310e+05  -3.014670e+04
  -3.103694e+05   9.514789e+04
  -3.936681e+05  -2.454454e+04
   1.390535e+05  -2.716357e+05
   6.974743e+05  -2.808960e+05
