
 $NMID
 id='ANONYMOUS ', fmtdat='(2E16.6)'
 volume=1.0
 tramp=1.0
 $END
  -3.429719e+05  -1.034475e+06
   4.383830e+05  -5.299912e+05
   5.521133e+05   7.631882e+04
   2.073781e+05   1.811181e+05
  -3.236179e+04  -3.030059e+03
  -2.084533e+04  -4.526213e+04
   1.933316e+04   3.656037e+04
  -8.598253e+03   9.078872e+03
  -3.583212e+03  -7.548244e+04
   4.474515e+04  -6.797849e+03
   2.178505e+04   1.579414e+05
  -7.728025e+04   1.623259e+05
  -1.161921e+05  -2.914688e+04
  -3.860427e+04  -1.750340e+05
   4.923176e+04  -1.127295e+05
   3.798085e+04   5.420643e+04
  -6.380542e+04   1.378752e+05
  -1.719617e+05   6.636750e+04
  -1.922199e+05  -1.051161e+05
  -6.636284e+04  -2.453024e+05
   1.408229e+05  -2.163751e+05
   2.329425e+05  -2.248756e+04
   8.841625e+04   1.290713e+05
  -1.403946e+05   5.126318e+04
  -1.723683e+05  -1.572234e+05
   4.894003e+04  -2.196482e+05
   2.786684e+05  -4.690689e+04
   2.745379e+05   1.655664e+05
   5.770399e+04   2.180506e+05
  -1.649032e+05   1.159511e+05
  -2.247976e+05  -3.297984e+04
  -9.539741e+04  -1.541525e+05
   1.171475e+05  -1.746052e+05
   2.295223e+05  -3.250681e+04
   1.279951e+05   1.766644e+05
  -7.914592e+04   2.195331e+05
  -1.506349e+05   2.489379e+04
  -1.336114e+04  -1.668419e+05
   1.342666e+05  -1.098926e+05
   1.003940e+05   1.019541e+05
  -3.834643e+04   1.822117e+05
  -7.950710e+04   6.733109e+04
  -2.276622e+03  -3.045338e+04
   3.510792e+04   2.827672e+04
  -3.937436e+04   1.253593e+05
  -1.245841e+05   1.023181e+05
  -1.316267e+05  -1.587955e+04
  -9.760855e+04  -1.059503e+05
  -7.246208e+04  -1.251256e+05
  -2.788455e+04  -1.044821e+05
   5.376039e+04  -5.754745e+04
   1.058645e+05   5.028498e+03
   7.195228e+04   3.422874e+04
  -1.997704e+02   4.293684e+03
  -2.958219e+04  -3.192797e+04
  -8.742736e+03  -2.082173e+04
   2.099263e+04   8.916046e+03
   4.366688e+04   1.066191e+04
   5.626095e+04   1.106699e+04
   3.653766e+04   5.296370e+04
  -1.182573e+04   9.658876e+04
  -3.378478e+04   7.684121e+04
  -1.120064e+04   2.594536e+04
  -2.124753e+04   2.962006e+04
  -1.204604e+05   7.331005e+04
  -2.189075e+05   4.854501e+04
  -1.803379e+05  -7.088504e+04
  -2.702298e+04  -1.702659e+05
   7.419963e+04  -1.563133e+05
   4.103060e+04  -8.569026e+04
  -2.244813e+04  -6.713186e+04
   9.088181e+03  -1.032162e+05
   1.137513e+05  -1.041145e+05
   1.784202e+05  -2.157339e+04
   1.481959e+05   9.609370e+04
   5.406599e+04   1.642024e+05
  -5.093583e+04   1.313328e+05
  -1.137044e+05   1.207553e+04
  -8.386629e+04  -1.065507e+05
   2.879968e+04  -1.175155e+05
   1.224987e+05  -3.130842e+03
   9.991952e+04   1.249005e+05
  -1.044006e+04   1.426870e+05
  -8.824935e+04   5.668312e+04
  -7.239412e+04  -1.985199e+04
  -2.146458e+04  -1.806887e+04
  -1.974658e+04   1.876613e+04
  -7.490035e+04   1.809225e+04
  -1.229348e+05  -3.312273e+04
  -9.793744e+04  -9.834063e+04
   1.092887e+04  -1.376656e+05
   1.389514e+05  -1.206485e+05
   1.826974e+05  -3.875971e+04
   9.842364e+04   6.372174e+04
  -3.277265e+04   1.071990e+05
  -8.185357e+04   6.062577e+04
  -2.033095e+04  -1.512244e+04
   5.547296e+04  -3.775789e+04
   5.772769e+04   2.180721e+03
   6.396686e+03   4.536919e+04
  -2.969362e+04   4.309888e+04
  -3.000854e+04   2.554542e+03
  -1.392263e+04  -3.370607e+04
   1.415024e+04  -2.582003e+04
   4.828528e+04   3.322444e+04
   4.318936e+04   9.846349e+04
  -3.426884e+04   9.840159e+04
  -1.267891e+05   1.215337e+04
  -1.321244e+05  -8.913791e+04
  -3.639180e+04  -1.137406e+05
   5.987246e+04  -5.679680e+04
   6.933304e+04   1.410661e+03
   1.834658e+04   3.058128e+03
  -9.331287e+03  -2.540807e+04
   1.532760e+04  -2.971999e+04
   5.012317e+04  -2.381486e+03
   4.950694e+04   2.474799e+04
   1.095329e+04   3.041189e+04
  -3.233972e+04   1.620009e+04
  -3.781080e+04  -9.259405e+03
   1.242293e+04  -2.845968e+04
   7.950466e+04  -1.419304e+04
   8.854581e+04   3.731212e+04
   1.201307e+04   8.201457e+04
  -8.212671e+04   6.946292e+04
  -1.002437e+05   7.826209e+03
  -3.341058e+04  -4.062970e+04
   3.690501e+04  -3.303760e+04
   4.077097e+04   8.751137e+03
  -9.084396e+03   3.253342e+04
  -5.283802e+04   1.467340e+04
  -5.406032e+04  -2.459338e+04
  -1.980799e+04  -4.879883e+04
   2.052178e+04  -3.819479e+04
   3.624076e+04  -5.843324e+03
   1.559785e+04   1.249357e+04
  -1.585140e+04  -5.715280e+03
  -1.311048e+04  -4.000483e+04
   3.380553e+04  -4.511556e+04
   7.756031e+04  -3.937955e+03
   6.551426e+04   5.047477e+04
   3.660123e+03   7.227560e+04
  -5.123492e+04   4.964081e+04
  -5.621285e+04   7.222230e+03
  -1.991164e+04  -2.377449e+04
   1.862253e+04  -2.689387e+04
   2.883346e+04  -5.146249e+03
   7.772572e+03   2.021416e+04
  -2.127491e+04   2.402657e+04
  -2.763415e+04   4.980166e+03
  -5.254284e+03  -7.983307e+03
   1.434542e+04   7.937824e+03
  -3.304228e+03   3.348250e+04
  -4.819924e+04   2.688490e+04
  -7.153400e+04  -2.199434e+04
  -4.296490e+04  -7.563147e+04
   1.539904e+04  -9.012208e+04
   5.898785e+04  -5.758781e+04
   6.751337e+04  -4.538901e+03
   5.172562e+04   3.635441e+04
   2.988066e+04   4.731608e+04
   1.286901e+04   3.339449e+04
   2.725824e+03   1.825950e+04
  -8.425838e+03   2.099690e+04
  -3.053761e+04   3.033163e+04
  -5.453932e+04   1.531347e+04
  -4.945908e+04  -2.906597e+04
   1.009819e+03  -6.236451e+04
   6.454827e+04  -4.215781e+04
   8.406675e+04   2.144119e+04
   3.868423e+04   7.336339e+04
  -3.438442e+04   7.318769e+04
  -8.145797e+04   3.095186e+04
  -8.098160e+04  -1.537318e+04
  -4.786333e+04  -4.014214e+04
  -8.231112e+03  -4.314434e+04
   1.870273e+04  -3.801553e+04
   2.680277e+04  -3.726132e+04
   2.561449e+04  -4.079306e+04
   3.109495e+04  -3.312666e+04
   4.365651e+04   1.587197e+02
   4.224384e+04   4.756749e+04
   1.173883e+04   7.280439e+04
  -2.978014e+04   5.086215e+04
  -4.599093e+04  -1.677828e+03
  -2.420198e+04  -4.162343e+04
   1.051853e+04  -4.232866e+04
   2.554425e+04  -1.471396e+04
   1.453016e+04   1.206540e+04
  -2.788543e+03   2.138727e+04
  -6.020480e+03   1.863277e+04
   5.807406e+03   1.701794e+04
   1.437311e+04   1.987281e+04
  -4.137838e+02   1.771534e+04
  -3.709094e+04   1.705531e+03
  -6.530872e+04  -2.270624e+04
  -5.135399e+04  -3.941845e+04
   2.741506e+03  -3.858194e+04
   5.355875e+04  -2.467784e+04
   5.918966e+04  -7.599756e+03
   2.365359e+04   6.129131e+03
  -1.074553e+04   1.083548e+04
  -1.246243e+04   2.136982e+03
   9.124577e+03  -1.151705e+04
   2.332479e+04  -9.161145e+03
   1.581315e+04   1.582987e+04
  -6.459179e+02   3.718690e+04
  -6.460568e+03   2.464583e+04
   2.811561e+03  -1.026014e+04
   1.397359e+04  -2.172952e+04
   1.011111e+04   8.965707e+03
  -1.289304e+04   4.302003e+04
  -3.951972e+04   3.306662e+04
  -4.473974e+04  -1.375913e+04
  -1.686654e+04  -4.564004e+04
   2.637816e+04  -3.185607e+04
   4.827109e+04   5.889782e+03
   2.584754e+04   2.843287e+04
  -2.502542e+04   2.197112e+04
  -5.979170e+04  -1.434363e+03
  -4.524298e+04  -2.543525e+04
   7.555464e+03  -3.709618e+04
   5.162444e+04  -2.717788e+04
   4.912055e+04  -7.074070e+02
   9.410574e+03   1.860512e+04
  -2.077715e+04   1.114106e+04
  -7.753551e+03  -1.144975e+04
   3.153667e+04  -1.527512e+04
   4.770692e+04   1.560087e+04
   1.439069e+04   5.656773e+04
  -4.149912e+04   6.534911e+04
  -6.904870e+04   2.487822e+04
  -4.712556e+04  -3.763455e+04
  -1.196245e+03  -7.259044e+04
   3.007476e+04  -5.195093e+04
   3.251752e+04   3.385046e+03
   1.736998e+04   4.227628e+04
  -1.503490e+03   3.494441e+04
  -1.719291e+04   2.343953e+03
  -2.272764e+04  -1.364789e+04
  -1.310798e+04  -3.330198e+03
   1.752861e+03   3.758026e+03
   2.485848e+03  -1.444863e+04
  -1.128662e+04  -3.932836e+04
  -1.205404e+04  -3.786428e+04
   1.915184e+04  -7.741216e+03
   5.651440e+04   2.248205e+04
   5.338718e+04   3.179861e+04
   4.268671e+03   2.566915e+04
  -4.131005e+04   1.685869e+04
  -3.930697e+04   7.338357e+03
  -5.923545e+03  -3.581720e+03
   9.142389e+03  -9.328496e+03
  -7.886829e+03  -6.347014e+03
  -2.041334e+04  -3.549416e+03
   1.678772e+03  -8.108214e+03
   3.723732e+04  -9.174895e+03
   4.112678e+04   8.388525e+03
   1.332416e+03   3.585009e+04
  -4.868447e+04   4.258631e+04
  -6.849432e+04   1.205836e+04
  -4.674087e+04  -3.476706e+04
  -2.047486e+03  -5.969628e+04
   3.647560e+04  -4.579478e+04
   4.728210e+04  -1.034728e+04
   2.844255e+04   1.587550e+04
  -2.061411e+02   1.688333e+04
  -1.297502e+04   2.534688e+03
  -2.950792e+03  -3.503811e+03
   1.156421e+04   1.091035e+04
   8.459808e+03   3.010584e+04
  -1.296188e+04   2.475760e+04
  -3.086470e+04  -1.204518e+04
  -2.327277e+04  -4.874077e+04
   9.134641e+03  -4.598910e+04
   4.017170e+04  -2.404565e+03
   3.951011e+04   4.147975e+04
   3.226122e+03   4.760915e+04
  -3.658766e+04   1.857236e+04
  -4.147230e+04  -1.347086e+04
  -9.732146e+03  -2.505041e+04
   1.935857e+04  -1.811357e+04
   1.206538e+04  -6.162855e+03
  -1.809161e+04   9.771568e+02
  -2.823357e+04  -1.582936e+03
  -1.042016e+03  -1.337293e+04
   3.496520e+04  -2.327631e+04
   4.273019e+04  -1.536121e+04
   1.872789e+04   1.064365e+04
  -1.061214e+04   3.141278e+04
  -2.241623e+04   2.381714e+04
  -1.484447e+04  -5.345027e+03
   1.629703e+03  -2.436119e+04
   1.558695e+04  -1.339356e+04
   1.790144e+04   1.295795e+04
   6.253390e+03   2.492112e+04
  -9.882451e+03   1.253178e+04
  -1.678309e+04  -6.427428e+03
  -1.209760e+04  -1.101736e+04
  -6.225510e+03  -1.522629e+03
  -5.845764e+03   3.838937e+03
  -4.312779e+03  -7.009024e+03
   6.366357e+03  -2.375876e+04
   2.087935e+04  -2.392764e+04
   2.541424e+04   5.499860e+02
   1.385765e+04   3.000082e+04
  -6.603022e+03   3.519911e+04
  -2.290823e+04   9.692030e+03
  -2.389210e+04  -2.140680e+04
  -5.762865e+03  -2.860923e+04
   2.096425e+04  -9.449050e+03
   3.298695e+04   1.299573e+04
   1.522920e+04   1.890646e+04
  -1.703659e+04   9.893434e+03
  -2.893553e+04  -8.195171e+02
  -6.296974e+03  -4.953936e+03
   2.372217e+04  -1.218155e+03
   2.316308e+04   8.976024e+03
  -1.018441e+04   1.834768e+04
  -3.923579e+04   1.317080e+04
