
 $NMID
 id='ANONYMOUS ', fmtdat='(2E16.6)'
 volume=1.0
 tramp=1.0
 $END
  -5.334694e+07   1.570425e+04
  -3.214370e+07  -3.270465e+07
   6.811222e+06  -3.594530e+07
   2.592556e+07  -1.415278e+07
   1.564708e+07   6.273715e+06
  -2.979208e+06   8.811459e+06
  -9.311358e+06  -9.340342e+05
  -2.822877e+06  -9.178517e+06
   5.698675e+06  -9.026040e+06
   9.125015e+06  -2.068706e+06
   6.700990e+06   5.889199e+06
   8.102260e+05   8.246814e+06
  -3.831474e+06   2.592693e+06
  -2.588865e+06  -5.295803e+06
   3.505635e+06  -6.375407e+06
   7.490217e+06   1.162102e+06
   4.315094e+06   9.665377e+06
  -3.499366e+06   1.123910e+07
  -9.568868e+06   5.638149e+06
  -1.024920e+07  -1.966103e+06
  -6.215164e+06  -7.111090e+06
  -5.915206e+05  -8.117131e+06
   2.683522e+06  -5.614695e+06
   1.526866e+06  -2.547109e+06
  -1.253368e+06  -2.209202e+06
  -2.391127e+05  -4.165993e+06
   5.318983e+06  -4.265939e+06
   9.377062e+06  -4.374297e+05
   6.748401e+06   4.005310e+06
   1.235374e+05   4.867236e+06
  -3.709012e+06   2.414584e+06
  -2.409713e+06  -1.309752e+05
   7.200745e+05  -1.066964e+06
   2.395107e+06  -5.024616e+05
   2.197452e+06   1.508457e+06
   6.078375e+05   3.896720e+06
  -1.773849e+06   3.660061e+06
  -3.017998e+06  -2.122979e+05
  -1.518569e+06  -3.484261e+06
   7.779501e+05  -1.702579e+06
   2.988677e+05   2.504276e+06
  -2.368074e+06   2.289027e+06
  -2.370598e+06  -2.998255e+06
   2.194891e+06  -5.813125e+06
   6.473965e+06  -9.858509e+05
   4.834586e+06   6.519566e+06
  -1.753411e+06   8.061003e+06
  -7.047604e+06   2.317089e+06
  -6.724219e+06  -4.203793e+06
  -1.886319e+06  -5.780706e+06
   3.303052e+06  -2.685835e+06
   5.120032e+06   1.363330e+06
   2.425809e+06   3.296543e+06
  -2.253566e+06   2.122643e+06
  -4.324100e+06  -8.286608e+05
  -1.891185e+06  -2.558130e+06
   1.626350e+06  -1.312814e+06
   1.707987e+06   9.614573e+05
  -1.181558e+06   9.230794e+05
  -2.355029e+06  -1.542044e+06
   4.746943e+05  -3.169173e+06
   4.276227e+06  -1.829616e+06
   5.017643e+06   1.184033e+06
   2.249457e+06   3.728059e+06
  -1.724831e+06   5.064460e+06
  -4.863613e+06   4.692813e+06
  -5.989690e+06   1.674849e+06
  -4.389974e+06  -3.069417e+06
  -9.111024e+05  -5.961846e+06
   1.718265e+06  -4.628447e+06
   1.623481e+06  -1.266719e+06
   1.839689e+05   1.228738e+05
   9.630802e+04  -1.023390e+06
   1.686537e+06  -1.721511e+06
   2.809991e+06  -1.497342e+05
   1.987840e+06   1.986230e+06
  -2.265525e+04   2.171543e+06
  -1.606136e+06   2.110344e+05
  -1.706992e+06  -2.078756e+06
  -4.443850e+03  -2.909846e+06
   2.724601e+06  -1.603193e+06
   4.343312e+06   1.188259e+06
   3.090280e+06   3.637576e+06
  -4.616662e+04   4.041637e+06
  -2.161809e+06   2.586744e+06
  -2.102026e+06   1.107069e+06
  -1.747569e+06   7.096287e+05
  -2.872605e+06   5.284872e+05
  -4.280052e+06  -6.865322e+05
  -3.461831e+06  -2.681526e+06
  -1.712693e+05  -4.074810e+06
   3.145525e+06  -3.886295e+06
   4.134541e+06  -2.110855e+06
   2.630753e+06   4.384088e+05
   2.493273e+05   2.233618e+06
  -1.111863e+06   1.908997e+06
  -5.562962e+05  -5.014271e+04
   1.083696e+06  -1.301639e+06
   1.877592e+06  -3.994808e+05
   8.988637e+05   1.185461e+06
  -5.208136e+05   1.110260e+06
  -4.525084e+05  -3.765493e+05
   1.005521e+06  -7.312864e+05
   1.830975e+06   1.170480e+06
   7.324334e+05   3.366135e+06
  -1.433853e+06   3.402334e+06
  -3.037450e+06   1.217894e+06
  -3.318160e+06  -1.330037e+06
  -2.338145e+06  -2.711099e+06
  -4.963715e+05  -2.608245e+06
   1.227776e+06  -1.469060e+06
   1.572531e+06  -2.321762e+05
   4.889432e+05   4.172875e+04
  -3.622976e+05  -7.448744e+05
   3.963377e+05  -1.325881e+06
   1.876692e+06  -5.829876e+05
   2.015816e+06   8.572903e+05
   3.946038e+05   1.394270e+06
  -1.160051e+06   5.792895e+05
  -9.006910e+05  -4.451504e+05
   8.276175e+05  -5.441245e+05
   2.182194e+06   2.721537e+05
   1.774716e+06   1.327184e+06
  -2.121252e+05   1.977458e+06
  -2.281608e+06   1.678315e+06
  -2.757278e+06   2.975377e+05
  -1.214673e+06  -1.243806e+06
   9.027446e+05  -1.487549e+06
   1.538385e+06  -1.918514e+05
   1.976281e+05   1.070135e+06
  -1.503628e+06   7.406517e+05
  -1.714756e+06  -7.611829e+05
  -3.553842e+05  -1.638098e+06
   1.070208e+06  -9.858021e+05
   1.252851e+06   2.914481e+05
   2.553355e+05   7.719954e+05
  -7.900707e+05   6.090539e+04
  -7.414850e+05  -1.044639e+06
   5.650389e+05  -1.425057e+06
   1.998615e+06  -5.550099e+05
   2.035190e+06   1.032198e+06
   3.969943e+05   2.061965e+06
  -1.418857e+06   1.644271e+06
  -1.713692e+06   2.228242e+05
  -5.065271e+05  -8.595732e+05
   6.500479e+05  -8.056995e+05
   6.367271e+05  -7.966486e+04
  -1.085848e+05   3.706169e+05
  -4.938656e+05   2.254142e+05
  -1.407383e+05  -6.189488e+04
   4.333846e+05   6.061594e+04
   5.221568e+05   6.509864e+05
  -1.881422e+05   1.178717e+06
  -1.365130e+06   9.043324e+05
  -2.075994e+06  -3.937812e+05
  -1.474202e+06  -1.923086e+06
   1.959290e+05  -2.413870e+06
   1.595684e+06  -1.424901e+06
   1.686709e+06   1.052849e+05
   8.712346e+05   8.870556e+05
   3.286934e+05   6.587285e+05
   4.723951e+05   2.254831e+05
   6.169298e+05   3.056189e+05
   9.484835e+04   7.534151e+05
  -8.593353e+05   9.047578e+05
  -1.437797e+06   3.427074e+05
  -1.058701e+06  -7.071862e+05
   2.282098e+05  -1.460567e+06
   1.703389e+06  -1.088830e+06
   2.244929e+06   4.595110e+05
   1.149819e+06   2.079529e+06
  -9.806433e+05   2.361571e+06
  -2.517305e+06   1.049766e+06
  -2.346313e+06  -6.304450e+05
  -9.712176e+05  -1.321720e+06
   1.895498e+05  -9.494215e+05
   3.861703e+05  -5.210034e+05
   8.267548e+04  -7.537234e+05
   1.000349e+05  -1.297333e+06
   6.571527e+05  -1.282603e+06
   1.282913e+06  -3.251160e+05
   1.340020e+06   1.065838e+06
   5.698008e+05   1.882951e+06
  -6.083951e+05   1.436992e+06
  -1.280929e+06   9.562099e+03
  -8.201759e+05  -1.268270e+06
   3.731754e+05  -1.391169e+06
   1.147221e+06  -4.166052e+05
   8.096910e+05   6.796097e+05
  -1.098040e+05   1.065280e+06
  -5.205201e+05   7.817087e+05
  -7.773221e+04   4.164333e+05
   4.339101e+05   3.315456e+05
   6.320292e+04   3.814854e+05
  -1.138798e+06   2.195629e+05
  -2.053714e+06  -3.119107e+05
  -1.618840e+06  -1.016140e+06
   2.285131e+04  -1.425637e+06
   1.569338e+06  -1.146987e+06
   1.819049e+06  -2.936543e+05
   8.335910e+05   4.802898e+05
  -2.539554e+05   5.660041e+05
  -5.070017e+05   3.948129e+04
  -3.246980e+04  -4.164953e+05
   4.391107e+05  -2.611773e+05
   4.820697e+05   3.356962e+05
   2.581175e+05   7.188048e+05
   9.871690e+04   4.775526e+05
   1.345197e+05  -9.718890e+04
   2.753434e+05  -2.972334e+05
   2.777224e+05   2.273271e+05
  -1.297968e+05   9.850845e+05
  -8.847950e+05   1.071737e+06
  -1.355240e+06   1.872927e+05
  -8.580909e+05  -9.036028e+05
   4.027373e+05  -1.139120e+06
   1.250286e+06  -3.485268e+05
   7.373162e+05   5.629543e+05
  -6.926185e+05   6.520501e+05
  -1.581479e+06  -8.013891e+04
  -1.008473e+06  -8.484112e+05
   4.723916e+05  -9.872656e+05
   1.485951e+06  -4.895134e+05
   1.227880e+06   1.784438e+05
   1.379254e+05   5.099295e+05
  -6.446947e+05   2.731682e+05
  -3.867090e+05  -2.909569e+05
   5.768016e+05  -5.300636e+05
   1.182566e+06   6.395474e+04
   6.884351e+05   1.169522e+06
  -5.623612e+05   1.709012e+06
  -1.467004e+06   9.064336e+05
  -1.263018e+06  -7.375651e+05
  -2.254490e+05  -1.783290e+06
   7.220998e+05  -1.296616e+06
   9.229971e+05   1.691334e+05
   4.393672e+05   1.183787e+06
  -2.136996e+05   9.647976e+05
  -5.615730e+05   8.746393e+04
  -4.647721e+05  -3.692044e+05
  -1.593187e+05  -1.326213e+05
  -4.952696e+04   9.326607e+04
  -2.909615e+05  -2.969863e+05
  -5.231933e+05  -9.604162e+05
  -1.954949e+05  -1.071090e+06
   7.171731e+05  -3.996825e+05
   1.475727e+06   4.452731e+05
   1.279309e+06   8.177477e+05
   1.922112e+05   6.961250e+05
  -8.380748e+05   4.314647e+05
  -9.762241e+05   1.919803e+05
  -3.669407e+05  -5.391656e+04
   1.391057e+05  -2.282835e+05
   4.247924e+04  -1.984906e+05
  -2.554843e+05  -8.288500e+04
  -5.755863e+04  -1.322286e+05
   6.447887e+05  -2.521779e+05
   1.047745e+06  -8.740614e+03
   4.615745e+05   6.886754e+05
  -8.102078e+05   1.199132e+06
  -1.695193e+06   7.921975e+05
  -1.434144e+06  -4.012160e+05
  -3.043599e+05  -1.398085e+06
   7.469770e+05  -1.391633e+06
   1.040652e+06  -5.656955e+05
   6.579387e+05   2.124128e+05
   1.463981e+05   3.568459e+05
  -5.746854e+04   7.761927e+04
   8.456239e+04  -7.815068e+03
   2.993430e+05   3.661807e+05
   2.549473e+05   8.031937e+05
  -1.643504e+05   6.857869e+05
  -6.811282e+05  -9.732449e+04
  -7.669988e+05  -9.271156e+05
  -1.532390e+05  -1.031826e+06
   7.389469e+05  -2.790909e+05
   1.054966e+06   6.848543e+05
   3.808529e+05   1.083479e+06
  -6.971641e+05   7.040436e+05
  -1.128038e+06  -4.781552e+04
  -5.523529e+05  -6.136290e+05
   2.755075e+05  -6.989513e+05
   3.861425e+05  -3.780201e+05
  -2.321548e+05   3.047495e+03
  -6.443348e+05   5.535873e+04
  -1.579719e+05  -3.082177e+05
   8.113952e+05  -6.924849e+05
   1.260516e+06  -5.516809e+05
   7.801838e+05   1.758314e+05
  -7.787363e+04   8.771413e+05
  -5.490852e+05   8.723023e+05
  -4.390085e+05   1.812077e+05
  -7.287482e+04  -4.714743e+05
   2.272890e+05  -4.493756e+05
   3.550093e+05   1.245688e+05
   2.687080e+05   5.711443e+05
  -4.032505e+04   4.422535e+05
  -3.928477e+05  -2.956968e+04
  -4.859852e+05  -2.813573e+05
  -2.439033e+05  -1.007576e+05
   4.455472e+04   1.618849e+05
   8.229517e+04   6.650692e+04
  -4.178957e+04  -3.444195e+05
   8.124989e+03  -5.699561e+05
   3.057621e+05  -2.547110e+05
   4.885888e+05   3.512454e+05
   1.996908e+05   6.430384e+05
  -3.931774e+05   3.322033e+05
  -6.820233e+05  -2.539068e+05
  -2.757867e+05  -5.613609e+05
   5.039658e+05  -3.792324e+05
   8.943327e+05   4.825780e+04
   4.926058e+05   3.663894e+05
  -2.851861e+05   4.194019e+05
  -6.389761e+05   2.578518e+05
  -2.631513e+05   2.607196e+04
   3.268452e+05  -9.102582e+04
   4.026998e+05   3.483454e+04
  -1.453752e+05   2.845946e+05
  -7.115397e+05   2.910372e+05
