
 $NMID
 id='ANONYMOUS ', fmtdat='(2E16.6)'
 volume=1.0
 tramp=1.0
 $END
   3.607943e+06  -1.005049e+06
   2.871266e+06   1.520704e+06
   3.162985e+05   2.562163e+06
  -1.486522e+06   1.571145e+06
  -1.266953e+06  -3.178442e+04
  -1.917406e+04  -6.837423e+05
   6.939567e+05  -1.857241e+05
   4.410401e+05   5.829710e+05
  -1.961840e+05   8.111843e+05
  -6.112190e+05   3.707608e+05
  -5.886441e+05  -2.956150e+05
  -2.020648e+05  -5.867171e+05
   2.286272e+05  -2.398961e+05
   2.801207e+05   3.710274e+05
  -1.317153e+05   5.623737e+05
  -5.593367e+05   8.579035e+04
  -5.025929e+05  -5.960050e+05
   2.107898e+04  -8.610389e+05
   5.556398e+05  -5.682923e+05
   7.290224e+05  -4.229334e+04
   5.281386e+05   3.631399e+05
   1.833539e+05   5.025902e+05
  -3.252186e+04   4.085340e+05
   1.171447e+04   2.456972e+05
   1.511392e+05   2.166155e+05
   4.991780e+04   3.380971e+05
  -3.593184e+05   3.764914e+05
  -6.860193e+05   1.500285e+05
  -5.371933e+05  -1.879947e+05
  -5.394998e+04  -3.280575e+05
   2.557586e+05  -1.930745e+05
   1.573422e+05   1.782860e+04
  -1.059055e+05   1.094381e+05
  -2.295593e+05   4.212576e+04
  -1.803388e+05  -1.331228e+05
  -6.121559e+04  -2.971349e+05
   7.797226e+04  -2.699683e+05
   1.751850e+05  -1.404434e+04
   1.297477e+05   2.006603e+05
  -1.014638e+04   8.525232e+04
  -2.430123e+04  -2.100002e+05
   1.497577e+05  -2.210506e+05
   2.378206e+05   1.612210e+05
  -8.447342e+03   4.542352e+05
  -3.907457e+05   2.149192e+05
  -4.512861e+05  -3.337311e+05
  -5.225928e+04  -5.805710e+05
   4.402476e+05  -2.921168e+05
   5.741178e+05   1.806024e+05
   2.628287e+05   4.000478e+05
  -1.972682e+05   2.770071e+05
  -4.277551e+05   3.584315e+03
  -2.668821e+05  -2.010057e+05
   1.084263e+05  -2.087175e+05
   3.283640e+05  -3.424166e+04
   1.955321e+05   1.414327e+05
  -8.640109e+04   1.262197e+05
  -1.547144e+05  -4.005163e+04
   4.945909e+04  -1.145584e+05
   2.125787e+05   2.535007e+04
   7.722655e+04   2.158834e+05
  -2.274696e+05   2.300159e+05
  -3.779044e+05   4.199597e+04
  -2.431132e+05  -2.092728e+05
   4.379618e+04  -3.921141e+05
   2.969985e+05  -4.131798e+05
   4.123907e+05  -2.055708e+05
   3.521868e+05   1.583753e+05
   1.553917e+05   4.224317e+05
  -3.739548e+04   3.853267e+05
  -9.427734e+04   1.563576e+05
  -4.616969e+04   2.210430e+04
  -4.027072e+04   7.320361e+04
  -1.314261e+05   1.230116e+05
  -2.108461e+05   1.524991e+04
  -1.614369e+05  -1.508783e+05
  -2.733687e+03  -1.768339e+05
   1.439282e+05  -2.692938e+04
   1.679269e+05   1.575247e+05
   3.404798e+04   2.312347e+05
  -1.872126e+05   1.507905e+05
  -3.323606e+05  -3.430442e+04
  -2.716019e+05  -2.145675e+05
  -6.199010e+04  -2.794772e+05
   1.003346e+05  -2.148696e+05
   1.211755e+05  -1.230644e+05
   1.166685e+05  -9.607315e+04
   2.170628e+05  -9.664773e+04
   3.479111e+05  -1.908997e+04
   3.159937e+05   1.555096e+05
   7.636727e+04   3.210647e+05
  -1.954440e+05   3.532861e+05
  -3.008973e+05   2.170693e+05
  -2.076705e+05  -8.637411e+03
  -3.614044e+04  -1.730269e+05
   6.941926e+04  -1.577153e+05
   4.186721e+04  -1.077169e+02
  -7.006441e+04   1.154886e+05
  -1.389622e+05   5.937920e+04
  -8.314853e+04  -7.583280e+04
   2.953961e+04  -9.528195e+04
   5.104235e+04   2.406232e+04
  -5.944840e+04   9.178277e+04
  -1.732801e+05  -3.331342e+04
  -1.438328e+05  -2.442229e+05
   3.019059e+04  -3.191404e+05
   2.223813e+05  -1.831526e+05
   3.091595e+05   4.074743e+04
   2.479512e+05   1.939967e+05
   8.107517e+04   2.145008e+05
  -8.148775e+04   1.353321e+05
  -1.243072e+05   3.734234e+04
  -3.985634e+04   3.743883e+03
   4.048610e+04   5.369224e+04
  -6.915416e+03   1.089999e+05
  -1.336587e+05   7.649886e+04
  -1.725571e+05  -3.043660e+04
  -5.786469e+04  -1.012406e+05
   8.227417e+04  -6.642983e+04
   8.400517e+04   2.263235e+04
  -5.685848e+04   6.558265e+04
  -1.894102e+05   1.901607e+04
  -1.752873e+05  -8.410178e+04
  -1.628530e+04  -1.728387e+05
   1.614958e+05  -1.749196e+05
   2.185252e+05  -6.648639e+04
   1.161930e+05   7.784877e+04
  -4.557272e+04   1.279227e+05
  -1.133871e+05   3.923549e+04
  -2.973970e+04  -7.783121e+04
   1.071022e+05  -8.078645e+04
   1.499512e+05   3.222591e+04
   5.901421e+04   1.268013e+05
  -6.777351e+04   1.024257e+05
  -1.086528e+05   2.313611e+03
  -3.838866e+04  -5.698548e+04
   5.855158e+04  -1.893127e+04
   7.311117e+04   7.052673e+04
  -2.520176e+04   1.200250e+05
  -1.509405e+05   7.124228e+04
  -1.760636e+05  -5.304681e+04
  -6.248416e+04  -1.577371e+05
   8.666084e+04  -1.531496e+05
   1.336501e+05  -4.610057e+04
   5.651919e+04   6.059483e+04
  -3.882681e+04   7.625422e+04
  -5.288508e+04   1.476670e+04
   2.136534e+03  -3.777247e+04
   4.269531e+04  -2.976204e+04
   2.108411e+04   7.616163e+03
  -3.341111e+04   1.132988e+04
  -5.642542e+04  -3.871472e+04
  -7.439895e+03  -9.745571e+04
   9.451088e+04  -9.429458e+04
   1.720079e+05  -2.468787e+01
   1.459419e+05   1.315926e+05
   1.923809e+04   1.975116e+05
  -1.092145e+05   1.420229e+05
  -1.426263e+05   1.839659e+04
  -8.858990e+04  -6.498570e+04
  -3.489031e+04  -5.933708e+04
  -3.358876e+04  -1.597259e+04
  -4.801496e+04  -1.101761e+04
  -1.884720e+04  -5.446600e+04
   5.412687e+04  -8.691794e+04
   1.127796e+05  -5.137214e+04
   9.956305e+04   4.427092e+04
   4.263073e+03   1.270120e+05
  -1.226158e+05   1.158689e+05
  -1.893061e+05  -3.636396e+03
  -1.262990e+05  -1.497095e+05
   3.864302e+04  -2.048629e+05
   1.836512e+05  -1.260868e+05
   2.018059e+05   1.126502e+04
   1.052149e+05   9.390358e+04
   8.615766e+02   8.686290e+04
  -2.995267e+04   5.204081e+04
  -3.869590e+03   5.817575e+04
   8.454716e+03   9.892480e+04
  -3.118807e+04   1.089826e+05
  -9.496545e+04   4.438651e+04
  -1.215196e+05  -6.602250e+04
  -7.234290e+04  -1.427504e+05
   2.856196e+04  -1.238528e+05
   1.034252e+05  -2.045668e+04
   8.659418e+04   8.759439e+04
  -5.309979e+03   1.178664e+05
  -8.261415e+04   5.658737e+04
  -7.659003e+04  -3.493722e+04
  -1.328451e+04  -8.440166e+04
   2.396042e+04  -7.320805e+04
  -1.759408e+03  -3.807588e+04
  -3.789548e+04  -2.147930e+04
  -9.509716e+03  -3.009347e+04
   8.613519e+04  -3.568204e+04
   1.663539e+05  -7.144217e+03
   1.451959e+05   5.557881e+04
   2.399714e+04   1.126660e+05
  -1.038046e+05   1.148710e+05
  -1.407418e+05   5.367206e+04
  -7.705925e+04  -2.127662e+04
   9.182298e+03  -4.717703e+04
   3.931390e+04  -1.320924e+04
   7.877664e+03   2.922151e+04
  -3.306193e+04   2.580683e+04
  -4.287304e+04  -1.995217e+04
  -2.659051e+04  -5.395530e+04
  -1.088356e+04  -3.602146e+04
  -1.078243e+04   1.238451e+04
  -2.199405e+04   3.024903e+04
  -2.630874e+04  -1.411062e+04
  -1.150682e+03  -8.162796e+04
   5.509772e+04  -9.781630e+04
   1.002391e+05  -3.313164e+04
   7.686232e+04   5.883078e+04
  -1.478601e+04   9.324656e+04
  -9.130808e+04   4.274123e+04
  -6.619832e+04  -3.575587e+04
   4.541998e+04  -6.351689e+04
   1.307662e+05  -1.813110e+04
   9.911037e+04   5.422906e+04
  -2.074142e+04   9.085464e+04
  -1.152861e+05   6.628335e+04
  -1.059553e+05   5.288504e+03
  -2.030221e+04  -4.064201e+04
   4.793495e+04  -3.342217e+04
   3.427523e+04   1.602674e+04
  -4.003957e+04   4.814430e+04
  -9.446979e+04   8.737424e+03
  -6.762002e+04  -8.457106e+04
   2.492630e+04  -1.422958e+05
   1.063744e+05  -9.009834e+04
   1.113010e+05   4.304524e+04
   4.239028e+04   1.411790e+05
  -4.064168e+04   1.168254e+05
  -7.832873e+04   1.786138e+03
  -5.498803e+04  -8.964166e+04
   6.675409e+02  -8.380028e+04
   4.337274e+04  -1.678186e+04
   4.502900e+04   2.456682e+04
   1.727767e+04   1.019651e+04
   1.835222e+03  -9.474073e+03
   2.411700e+04   1.657184e+04
   5.444039e+04   6.867151e+04
   3.418419e+04   8.528600e+04
  -4.837075e+04   4.420956e+04
  -1.257975e+05  -1.539292e+04
  -1.179399e+05  -4.892835e+04
  -2.587944e+04  -5.284300e+04
   6.428079e+04  -4.531132e+04
   7.740202e+04  -2.993698e+04
   2.842596e+04  -3.259353e+03
  -9.031044e+03   1.971395e+04
   2.218331e+03   1.937153e+04
   2.468737e+04   6.195427e+03
   4.935779e+03   9.586205e+03
  -5.181878e+04   2.657565e+04
  -8.326211e+04   1.418657e+04
  -4.143323e+04  -4.672879e+04
   5.137218e+04  -1.042455e+05
   1.220334e+05  -8.501369e+04
   1.155897e+05   1.325609e+04
   4.195576e+04   1.083274e+05
  -3.961595e+04   1.210590e+05
  -7.497660e+04   5.718380e+04
  -5.558583e+04  -1.023975e+04
  -1.506740e+04  -2.607068e+04
   5.998009e+03  -3.912411e+03
  -6.276028e+03   4.567751e+03
  -3.103634e+04  -2.472595e+04
  -3.290690e+04  -6.138093e+04
   4.283710e+03  -5.627175e+04
   5.591046e+04   1.131921e+03
   7.132686e+04   6.564028e+04
   2.256784e+04   7.912986e+04
  -5.657815e+04   2.842780e+04
  -9.184354e+04  -4.343547e+04
  -4.301202e+04  -8.089351e+04
   4.618856e+04  -6.318576e+04
   8.911618e+04  -1.093964e+04
   5.134133e+04   3.879060e+04
  -1.144975e+04   5.670661e+04
  -2.277957e+04   3.564900e+04
   2.134176e+04  -1.226200e+03
   5.160559e+04  -1.237678e+04
   1.594152e+04   2.166803e+04
  -5.584502e+04   6.698233e+04
  -9.170755e+04   6.449861e+04
  -6.262815e+04  -1.458127e+02
  -5.729771e+03  -7.009778e+04
   2.914177e+04  -7.695934e+04
   2.898433e+04  -1.915284e+04
   1.015885e+04   3.761999e+04
  -1.225613e+04   3.722951e+04
  -2.948211e+04  -8.043811e+03
  -2.875872e+04  -4.215819e+04
  -2.741610e+03  -3.322552e+04
   3.140141e+04  -1.730549e+03
   4.237765e+04   1.376306e+04
   2.142614e+04   3.043413e+03
  -5.006130e+03  -9.746234e+03
  -8.835373e+03   3.324850e+02
   3.540832e+03   2.766628e+04
   2.420165e+03   4.104098e+04
  -2.130885e+04   1.886601e+04
  -3.912975e+04  -2.381515e+04
  -1.949402e+04  -4.779775e+04
   2.808139e+04  -3.005164e+04
   5.559776e+04   1.253924e+04
   2.779940e+04   4.199928e+04
  -3.434690e+04   3.696417e+04
  -7.024546e+04   7.323352e+03
  -4.350998e+04  -2.258811e+04
   1.659447e+04  -3.530321e+04
   4.620439e+04  -2.684339e+04
   1.840077e+04  -5.831858e+03
  -2.737370e+04   8.442240e+03
  -3.299741e+04  -9.415330e+02
   1.096050e+04  -2.586283e+04
   5.727882e+04  -3.142993e+04
