
 $NMID
 id='ANONYMOUS ', fmtdat='(2E16.6)'
 volume=1.0
 tramp=1.0
 $END
  -4.149019e+07  -8.451257e+05
  -2.510298e+07  -2.458532e+07
   4.663397e+06  -2.746935e+07
   1.987758e+07  -1.209146e+07
   1.275213e+07   3.596161e+06
  -1.688804e+06   6.966123e+06
  -7.501113e+06   1.893920e+05
  -3.036505e+06  -7.065901e+06
   3.978772e+06  -7.976993e+06
   7.293559e+06  -2.299645e+06
   5.499415e+06   4.878664e+06
   5.671382e+05   6.990221e+06
  -3.278964e+06   1.927628e+06
  -2.239122e+06  -4.889558e+06
   2.745101e+06  -5.747974e+06
   6.082267e+06   6.187743e+05
   3.639304e+06   7.748399e+06
  -2.709124e+06   9.079344e+06
  -7.670195e+06   4.364532e+06
  -7.985495e+06  -1.910879e+06
  -4.395996e+06  -5.720952e+06
  -7.087189e+04  -5.931273e+06
   1.745870e+06  -3.881728e+06
   2.414488e+05  -2.215778e+06
  -1.607066e+06  -2.725065e+06
   1.697264e+05  -4.156679e+06
   5.216314e+06  -3.411356e+06
   8.251789e+06   2.449795e+05
   5.425298e+06   3.740608e+06
  -5.399804e+05   3.993310e+06
  -3.700856e+06   1.538389e+06
  -1.997683e+06  -8.316114e+05
   1.412265e+06  -1.417852e+06
   2.945413e+06  -2.190095e+05
   2.011238e+06   2.064006e+06
  -5.425705e+04   3.790083e+06
  -1.805834e+06   2.787117e+06
  -2.057366e+06  -6.930570e+05
  -6.315058e+05  -2.814417e+06
   6.877840e+05  -7.338747e+05
  -1.383549e+05   2.682636e+06
  -2.181715e+06   2.133809e+06
  -2.058180e+06  -2.323830e+06
   1.354280e+06  -4.602235e+06
   4.602033e+06  -8.655030e+05
   3.611813e+06   4.948219e+06
  -1.250441e+06   6.195247e+06
  -5.593583e+06   1.753720e+06
  -5.740067e+06  -3.488169e+06
  -1.872697e+06  -4.954636e+06
   2.774135e+06  -2.532358e+06
   4.633893e+06   9.263756e+05
   2.413672e+06   2.725250e+06
  -1.654763e+06   1.870545e+06
  -3.560466e+06  -5.300476e+05
  -1.674977e+06  -1.994578e+06
   1.277234e+06  -1.081729e+06
   1.594723e+06   7.796506e+05
  -6.604832e+05   1.007008e+06
  -1.960786e+06  -7.261670e+05
  -1.454437e+05  -2.172298e+06
   2.923760e+06  -1.555663e+06
   3.965307e+06   6.040407e+05
   1.936384e+06   2.843729e+06
  -1.620579e+06   4.203518e+06
  -4.512933e+06   3.846999e+06
  -5.229994e+06   1.117210e+06
  -3.467332e+06  -2.867338e+06
  -5.354968e+05  -5.160059e+06
   1.351166e+06  -4.081565e+06
   1.219767e+06  -1.469633e+06
   4.052385e+05  -3.489524e+05
   7.155622e+05  -1.036009e+06
   2.038660e+06  -1.214202e+06
   2.666800e+06   4.058586e+05
   1.607809e+06   2.269248e+06
  -3.757265e+05   2.193431e+06
  -1.798678e+06   8.453359e+04
  -1.653266e+06  -2.182805e+06
   1.585956e+05  -2.764086e+06
   2.580154e+06  -1.228506e+06
   3.696789e+06   1.357975e+06
   2.379704e+06   3.221860e+06
  -2.118933e+05   3.247025e+06
  -1.757424e+06   1.976672e+06
  -1.612677e+06   9.291777e+05
  -1.449294e+06   7.544808e+05
  -2.607117e+06   5.810709e+05
  -3.924259e+06  -5.967408e+05
  -3.184698e+06  -2.484531e+06
  -1.224271e+05  -3.804836e+06
   3.051739e+06  -3.573650e+06
   3.995758e+06  -1.779116e+06
   2.412695e+06   6.406056e+05
  -8.511983e+03   2.154480e+06
  -1.229021e+06   1.679519e+06
  -5.009943e+05  -1.211740e+05
   1.092601e+06  -1.167011e+06
   1.715658e+06  -3.220798e+05
   7.308418e+05   1.089729e+06
  -5.676452e+05   1.041968e+06
  -5.381125e+05  -3.337933e+05
   7.627072e+05  -8.580246e+05
   1.691753e+06   6.898780e+05
   1.011786e+06   2.868855e+06
  -8.860732e+05   3.358144e+06
  -2.684396e+06   1.584481e+06
  -3.328657e+06  -1.004978e+06
  -2.460405e+06  -2.645588e+06
  -5.168099e+05  -2.612476e+06
   1.239276e+06  -1.381913e+06
   1.526444e+06  -1.486351e+05
   4.617188e+05   4.830563e+04
  -3.351006e+05  -6.998517e+05
   3.425587e+05  -1.189603e+06
   1.676288e+06  -5.164600e+05
   1.839254e+06   7.446603e+05
   4.015963e+05   1.246747e+06
  -1.069453e+06   5.586545e+05
  -9.119300e+05  -4.160173e+05
   7.311779e+05  -6.167978e+05
   2.149415e+06   1.392416e+05
   1.836647e+06   1.270892e+06
  -1.330068e+05   1.983910e+06
  -2.192696e+06   1.647982e+06
  -2.623978e+06   2.721897e+05
  -1.118834e+06  -1.144400e+06
   8.359503e+05  -1.317338e+06
   1.367019e+06  -1.433188e+05
   1.280461e+05   9.625732e+05
  -1.405418e+06   6.595575e+05
  -1.611187e+06  -6.973742e+05
  -3.912140e+05  -1.537347e+06
   9.546639e+05  -9.942880e+05
   1.199677e+06   1.921332e+05
   3.046790e+05   6.958655e+05
  -6.926552e+05   6.212190e+04
  -6.584895e+05  -9.763544e+05
   5.732557e+05  -1.312797e+06
   1.893421e+06  -4.606626e+05
   1.882021e+06   1.016411e+06
   3.419292e+05   1.932376e+06
  -1.328804e+06   1.526526e+06
  -1.605385e+06   2.183648e+05
  -5.010997e+05  -7.983821e+05
   6.022936e+05  -7.724483e+05
   6.451854e+05  -6.521652e+04
  -6.742589e+04   4.244257e+05
  -5.299590e+05   2.871991e+05
  -2.600273e+05  -8.107466e+04
   3.405699e+05  -4.701595e+04
   5.205057e+05   5.308044e+05
  -1.302827e+05   1.091328e+06
  -1.275029e+06   8.490709e+05
  -1.948542e+06  -3.893571e+05
  -1.355033e+06  -1.829022e+06
   2.229779e+05  -2.292994e+06
   1.538858e+06  -1.383427e+06
   1.654258e+06   7.703893e+04
   9.041041e+05   9.092301e+05
   3.307382e+05   7.687686e+05
   3.696042e+05   3.079528e+05
   4.888174e+05   2.666876e+05
   6.307476e+04   6.558596e+05
  -7.986923e+05   8.565317e+05
  -1.381011e+06   3.471415e+05
  -1.053354e+06  -7.023876e+05
   1.965477e+05  -1.450275e+06
   1.634369e+06  -1.055173e+06
   2.144099e+06   4.532925e+05
   1.099113e+06   1.966086e+06
  -8.924964e+05   2.210237e+06
  -2.341421e+06   1.004056e+06
  -2.242580e+06  -5.549810e+05
  -1.002811e+06  -1.259161e+06
   1.363039e+05  -9.825788e+05
   4.349391e+05  -5.683722e+05
   2.037287e+05  -7.014880e+05
   1.711228e+05  -1.154792e+06
   6.217070e+05  -1.149061e+06
   1.181340e+06  -2.695294e+05
   1.232353e+06   1.036221e+06
   4.990542e+05   1.793608e+06
  -6.083425e+05   1.348963e+06
  -1.218081e+06   4.174411e+03
  -7.753806e+05  -1.177154e+06
   3.191440e+05  -1.303058e+06
   1.026080e+06  -4.411544e+05
   7.457681e+05   5.541911e+05
  -5.122087e+04   9.479115e+05
  -4.155003e+05   7.418355e+05
  -4.329274e+04   4.282880e+05
   3.880547e+05   3.414531e+05
   4.169170e+04   3.704828e+05
  -1.049535e+06   1.995838e+05
  -1.892302e+06  -3.113119e+05
  -1.512278e+06  -9.560258e+05
  -9.736544e+03  -1.304079e+06
   1.437174e+06  -1.039157e+06
   1.700522e+06  -2.888574e+05
   8.000608e+05   3.933324e+05
  -2.207390e+05   4.962343e+05
  -4.600822e+05   5.856639e+04
   2.257241e+02  -3.514324e+05
   4.451484e+05  -2.266250e+05
   4.416512e+05   3.284809e+05
   1.763943e+05   7.017755e+05
   3.350220e+04   4.581380e+05
   1.353692e+05  -1.270449e+05
   3.070832e+05  -3.226997e+05
   2.675640e+05   2.144470e+05
  -1.688620e+05   9.481779e+05
  -8.536945e+05   9.859966e+05
  -1.220439e+06   1.142786e+05
  -7.300827e+05  -8.734534e+05
   4.028543e+05  -1.018386e+06
   1.153043e+06  -2.526249e+05
   6.790124e+05   5.648523e+05
  -6.532782e+05   6.163392e+05
  -1.521323e+06  -7.238683e+04
  -1.014387e+06  -8.062897e+05
   4.103269e+05  -9.731719e+05
   1.431384e+06  -5.167418e+05
   1.210877e+06   1.487540e+05
   1.510291e+05   4.988026e+05
  -6.085932e+05   2.747168e+05
  -3.429436e+05  -2.647358e+05
   5.827592e+05  -4.641317e+05
   1.114191e+06   1.253976e+05
   5.786245e+05   1.144411e+06
  -6.283973e+05   1.588477e+06
  -1.440259e+06   7.918099e+05
  -1.181575e+06  -7.486774e+05
  -1.691635e+05  -1.713372e+06
   7.145127e+05  -1.248455e+06
   8.850044e+05   1.444068e+05
   4.312622e+05   1.130065e+06
  -1.751855e+05   9.401591e+05
  -5.214855e+05   9.189742e+04
  -4.693144e+05  -3.684832e+05
  -1.873008e+05  -1.412452e+05
  -3.412724e+04   9.993733e+04
  -2.156017e+05  -2.622144e+05
  -4.578792e+05  -9.134184e+05
  -2.113847e+05  -1.032248e+06
   6.374474e+05  -3.745024e+05
   1.404117e+06   4.557433e+05
   1.245583e+06   8.049588e+05
   1.737304e+05   6.575125e+05
  -8.458796e+05   3.886143e+05
  -9.480270e+05   1.768850e+05
  -3.155484e+05  -3.628311e+04
   1.524456e+05  -2.104789e+05
  -7.133650e+02  -2.110299e+05
  -2.893752e+05  -1.108519e+05
  -3.227678e+04  -1.297933e+05
   6.713382e+05  -2.053411e+05
   9.897328e+05   3.268972e+04
   3.498293e+05   6.581499e+05
  -8.468579e+05   1.089675e+06
  -1.598556e+06   6.730938e+05
  -1.292199e+06  -4.466382e+05
  -2.330437e+05  -1.345016e+06
   7.336461e+05  -1.285961e+06
   1.002532e+06  -4.763879e+05
   6.259723e+05   2.463519e+05
   1.084298e+05   3.417604e+05
  -9.832866e+04   4.362508e+04
   6.491415e+04  -3.769550e+04
   2.968655e+05   3.410608e+05
   2.401434e+05   7.690140e+05
  -1.841211e+05   6.364038e+05
  -6.533549e+05  -1.431822e+05
  -6.744750e+05  -9.331966e+05
  -6.465615e+04  -9.791719e+05
   7.380528e+05  -1.993358e+05
   9.674375e+05   7.224773e+05
   3.001886e+05   1.037472e+06
  -6.899577e+05   6.142804e+05
  -1.046847e+06  -9.139288e+04
  -4.801984e+05  -5.670541e+05
   2.786469e+05  -6.135292e+05
   3.394546e+05  -3.376174e+05
  -2.623316e+05  -1.985835e+04
  -6.244262e+05   2.705142e+04
  -1.265851e+05  -2.892965e+05
   7.902390e+05  -6.402056e+05
   1.176938e+06  -5.191786e+05
   6.942122e+05   1.566968e+05
  -1.029623e+05   8.141023e+05
  -5.102174e+05   7.952130e+05
  -3.807436e+05   1.288660e+05
  -3.327789e+04  -4.671724e+05
   2.371475e+05  -3.973136e+05
   3.359309e+05   1.660179e+05
   2.321965e+05   5.517424e+05
  -6.172760e+04   3.845496e+05
  -3.705350e+05  -5.621174e+04
  -4.398270e+05  -2.554642e+05
  -2.281311e+05  -7.953847e+04
   1.839624e+04   1.256245e+05
   7.526973e+04   4.718051e+03
   2.269561e+04  -3.526270e+05
   9.915260e+04  -4.999367e+05
   3.221203e+05  -1.640398e+05
   4.033568e+05   3.934440e+05
   1.029947e+05   6.228739e+05
  -4.028175e+05   2.845684e+05
  -6.143754e+05  -2.874744e+05
  -2.249166e+05  -5.567587e+05
   4.788167e+05  -3.386218e+05
   8.249472e+05   9.078075e+04
   4.449008e+05   3.640698e+05
  -2.838356e+05   3.608195e+05
  -6.045196e+05   1.899922e+05
  -2.210491e+05   1.032818e+04
   3.547885e+05  -4.590425e+04
   3.978102e+05   8.795775e+04
  -1.808144e+05   2.911310e+05
  -7.406188e+05   2.526471e+05
