
 $NMID
 id='ANONYMOUS ', fmtdat='(2E16.6)'
 volume=1.0
 tramp=1.0
 $END
  -5.772436e+07   4.472783e+04
  -3.450438e+07  -3.594755e+07
   7.877020e+06  -3.904935e+07
   2.824406e+07  -1.468945e+07
   1.663180e+07   7.425014e+06
  -3.523519e+06   9.473134e+06
  -9.932628e+06  -1.430857e+06
  -2.651446e+06  -9.951291e+06
   6.376049e+06  -9.319234e+06
   9.786210e+06  -1.903064e+06
   7.114959e+06   6.279225e+06
   8.794404e+05   8.698575e+06
  -4.040495e+06   2.846572e+06
  -2.704602e+06  -5.399664e+06
   3.797797e+06  -6.537228e+06
   7.980209e+06   1.421632e+06
   4.487194e+06   1.038549e+07
  -3.871712e+06   1.199716e+07
  -1.031142e+07   6.047059e+06
  -1.108936e+07  -2.042708e+06
  -6.871154e+06  -7.674138e+06
  -7.430984e+05  -8.966445e+06
   3.102118e+06  -6.265794e+06
   2.079350e+06  -2.631326e+06
  -1.082412e+06  -1.952222e+06
  -4.038474e+05  -4.117232e+06
   5.309110e+06  -4.564075e+06
   9.747101e+06  -6.952838e+05
   7.226187e+06   4.095140e+06
   3.997086e+05   5.197113e+06
  -3.674817e+06   2.769100e+06
  -2.571901e+06   1.703874e+05
   4.014627e+05  -9.157887e+05
   2.134017e+06  -6.255120e+05
   2.261385e+06   1.267712e+06
   8.736702e+05   3.920847e+06
  -1.771252e+06   3.991519e+06
  -3.412424e+06  -3.008304e+04
  -1.866155e+06  -3.749904e+06
   8.290673e+05  -2.093314e+06
   4.830881e+05   2.402768e+06
  -2.425822e+06   2.314579e+06
  -2.459383e+06  -3.258222e+06
   2.555411e+06  -6.230468e+06
   7.190064e+06  -9.740726e+05
   5.247887e+06   7.132451e+06
  -1.997445e+06   8.729575e+06
  -7.587043e+06   2.481572e+06
  -7.027623e+06  -4.482886e+06
  -1.838297e+06  -6.058746e+06
   3.490367e+06  -2.703191e+06
   5.249325e+06   1.546696e+06
   2.390187e+06   3.506017e+06
  -2.480089e+06   2.198546e+06
  -4.589019e+06  -9.588236e+05
  -1.955083e+06  -2.773666e+06
   1.753981e+06  -1.391245e+06
   1.733610e+06   1.028347e+06
  -1.380742e+06   8.659907e+05
  -2.474056e+06  -1.876531e+06
   7.519757e+05  -3.536368e+06
   4.802912e+06  -1.885718e+06
   5.388723e+06   1.449167e+06
   2.327455e+06   4.069806e+06
  -1.781471e+06   5.359954e+06
  -4.983931e+06   4.972505e+06
  -6.253367e+06   1.859856e+06
  -4.716825e+06  -3.146428e+06
  -1.032454e+06  -6.240404e+06
   1.874540e+06  -4.796850e+06
   1.780858e+06  -1.155691e+06
   8.616128e+04   3.218047e+05
  -1.665300e+05  -1.009599e+06
   1.520739e+06  -1.915632e+06
   2.840318e+06  -3.801815e+05
   2.128959e+06   1.845315e+06
   1.322824e+05   2.141207e+06
  -1.502526e+06   2.700709e+05
  -1.709405e+06  -2.005201e+06
  -7.093018e+04  -2.937528e+06
   2.759668e+06  -1.738002e+06
   4.565705e+06   1.120764e+06
   3.339109e+06   3.791581e+06
  -1.260385e+03   4.335002e+06
  -2.329016e+06   2.800615e+06
  -2.293991e+06   1.151156e+06
  -1.853617e+06   6.681548e+05
  -2.945508e+06   4.847489e+05
  -4.368358e+06  -7.347734e+05
  -3.522436e+06  -2.743883e+06
  -1.760036e+05  -4.134814e+06
   3.156694e+06  -3.956536e+06
   4.149183e+06  -2.213915e+06
   2.693903e+06   3.519778e+05
   3.536850e+05   2.242501e+06
  -1.053450e+06   1.986891e+06
  -5.762522e+05  -1.586927e+04
   1.065896e+06  -1.340991e+06
   1.922452e+06  -4.262822e+05
   9.587152e+05   1.213206e+06
  -4.914193e+05   1.129445e+06
  -4.075353e+05  -3.817558e+05
   1.088714e+06  -6.576202e+05
   1.846659e+06   1.364695e+06
   5.836959e+05   3.526517e+06
  -1.654738e+06   3.359793e+06
  -3.140538e+06   1.029845e+06
  -3.259940e+06  -1.459406e+06
  -2.248839e+06  -2.705466e+06
  -4.759510e+05  -2.571382e+06
   1.212487e+06  -1.484468e+06
   1.575380e+06  -2.618313e+05
   4.955460e+05   3.996461e+04
  -3.672240e+05  -7.529904e+05
   4.163977e+05  -1.362503e+06
   1.936355e+06  -5.978872e+05
   2.060435e+06   8.960497e+05
   3.858325e+05   1.435406e+06
  -1.177794e+06   5.780643e+05
  -8.793230e+05  -4.466748e+05
   8.540862e+05  -4.960426e+05
   2.157622e+06   3.319144e+05
   1.717135e+06   1.333043e+06
  -2.460588e+05   1.942887e+06
  -2.290612e+06   1.661757e+06
  -2.778218e+06   2.978442e+05
  -1.237407e+06  -1.272905e+06
   9.230638e+05  -1.538780e+06
   1.592616e+06  -2.066304e+05
   2.234394e+05   1.101823e+06
  -1.525440e+06   7.617508e+05
  -1.732942e+06  -7.806054e+05
  -3.331498e+05  -1.657341e+06
   1.102945e+06  -9.662574e+05
   1.254931e+06   3.287641e+05
   2.311872e+05   7.891985e+05
  -8.150457e+05   5.537232e+04
  -7.590255e+05  -1.059175e+06
   5.591724e+05  -1.447749e+06
   2.016814e+06  -5.789156e+05
   2.068652e+06   1.031867e+06
   4.087613e+05   2.090381e+06
  -1.442777e+06   1.668571e+06
  -1.738511e+06   2.187893e+05
  -5.030235e+05  -8.732243e+05
   6.596885e+05  -8.079243e+05
   6.236343e+05  -8.808496e+04
  -1.217456e+05   3.366635e+05
  -4.664342e+05   1.939732e+05
  -8.506075e+04  -4.801903e+04
   4.643097e+05   1.131071e+05
   5.085529e+05   6.969279e+05
  -2.179118e+05   1.197051e+06
  -1.388860e+06   9.079851e+05
  -2.099633e+06  -3.990381e+05
  -1.497344e+06  -1.943017e+06
   1.894171e+05  -2.433441e+06
   1.601559e+06  -1.420186e+06
   1.677772e+06   1.190829e+05
   8.469791e+05   8.673348e+05
   3.274467e+05   6.057776e+05
   5.119083e+05   1.935761e+05
   6.594018e+05   3.251311e+05
   9.942706e+04   7.869825e+05
  -8.797099e+05   9.080871e+05
  -1.443776e+06   3.277843e+05
  -1.043163e+06  -7.049724e+05
   2.442905e+05  -1.443206e+06
   1.713364e+06  -1.080169e+06
   2.254920e+06   4.644972e+05
   1.147472e+06   2.101474e+06
  -1.012738e+06   2.387017e+06
  -2.559318e+06   1.044780e+06
  -2.354548e+06  -6.595811e+05
  -9.415727e+05  -1.329393e+06
   2.087095e+05  -9.201250e+05
   3.592272e+05  -4.955035e+05
   3.369235e+04  -7.705072e+05
   7.589345e+04  -1.343084e+06
   6.698880e+05  -1.319730e+06
   1.310799e+06  -3.387125e+05
   1.364760e+06   1.069454e+06
   5.864342e+05   1.898071e+06
  -6.045894e+05   1.453865e+06
  -1.289390e+06   8.465571e+03
  -8.223800e+05  -1.291245e+06
   3.956505e+05  -1.406237e+06
   1.181085e+06  -3.941733e+05
   8.185703e+05   7.265353e+05
  -1.393733e+05   1.096771e+06
  -5.594563e+05   7.818282e+05
  -9.019655e+04   4.043911e+05
   4.472893e+05   3.268038e+05
   6.948947e+04   3.827913e+05
  -1.162547e+06   2.186221e+05
  -2.092702e+06  -3.190775e+05
  -1.637031e+06  -1.034016e+06
   4.310705e+04  -1.454122e+06
   1.608835e+06  -1.168156e+06
   1.844088e+06  -2.853154e+05
   8.315956e+05   5.114482e+05
  -2.686223e+05   5.854776e+05
  -5.189410e+05   2.790199e+04
  -4.107922e+04  -4.408460e+05
   4.342936e+05  -2.727383e+05
   4.926508e+05   3.374707e+05
   2.870706e+05   7.220641e+05
   1.232235e+05   4.832924e+05
   1.315540e+05  -8.313127e+04
   2.571927e+05  -2.830406e+05
   2.755266e+05   2.316369e+05
  -1.166149e+05   9.889425e+05
  -8.917038e+05   1.088825e+06
  -1.396159e+06   2.051746e+05
  -8.965333e+05  -9.119143e+05
   4.050932e+05  -1.173228e+06
   1.279852e+06  -3.769523e+05
   7.517370e+05   5.588698e+05
  -7.025248e+05   6.560161e+05
  -1.585819e+06  -8.665541e+04
  -9.900657e+05  -8.554806e+05
   4.937476e+05  -9.767622e+05
   1.488064e+06  -4.678719e+05
   1.216835e+06   1.900715e+05
   1.298786e+05   5.070625e+05
  -6.505676e+05   2.667922e+05
  -3.977190e+05  -2.999105e+05
   5.703198e+05  -5.498539e+05
   1.198144e+06   4.205612e+04
   7.226948e+05   1.170878e+06
  -5.353352e+05   1.740156e+06
  -1.466215e+06   9.400812e+05
  -1.280994e+06  -7.287372e+05
  -2.410723e+05  -1.792693e+06
   7.192281e+05  -1.298984e+06
   9.249350e+05   1.797764e+05
   4.331251e+05   1.190765e+06
  -2.283359e+05   9.592279e+05
  -5.698821e+05   8.151079e+04
  -4.562496e+05  -3.642567e+05
  -1.460878e+05  -1.252076e+05
  -5.464395e+04   8.861849e+04
  -3.157347e+05  -3.118366e+05
  -5.403250e+05  -9.709332e+05
  -1.843868e+05  -1.071921e+06
   7.418885e+05  -3.999284e+05
   1.486631e+06   4.396113e+05
   1.275665e+06   8.146492e+05
   1.945081e+05   7.042131e+05
  -8.269802e+05   4.438022e+05
  -9.760532e+05   1.936902e+05
  -3.821280e+05  -6.385730e+04
   1.328045e+05  -2.337705e+05
   5.894417e+04  -1.884850e+05
  -2.394654e+05  -6.832275e+04
  -6.652221e+04  -1.326834e+05
   6.283458e+05  -2.692804e+05
   1.060036e+06  -2.187720e+04
   4.992673e+05   6.990857e+05
  -7.914049e+05   1.230618e+06
  -1.720172e+06   8.245459e+05
  -1.476481e+06  -3.865601e+05
  -3.259947e+05  -1.406211e+06
   7.496989e+05  -1.415517e+06
   1.048178e+06  -5.918704e+05
   6.640092e+05   1.978784e+05
   1.587342e+05   3.603680e+05
  -4.203542e+04   9.285192e+04
   8.965906e+04   5.861083e+03
   2.945971e+05   3.717695e+05
   2.554256e+05   8.071499e+05
  -1.568105e+05   6.979522e+05
  -6.860256e+05  -7.878784e+04
  -7.952567e+05  -9.179202e+05
  -1.844591e+05  -1.045443e+06
   7.346647e+05  -3.082430e+05
   1.079553e+06   6.660338e+05
   4.059416e+05   1.093405e+06
  -6.968630e+05   7.310464e+05
  -1.149169e+06  -3.473689e+04
  -5.713307e+05  -6.291744e+05
   2.761500e+05  -7.245348e+05
   4.024047e+05  -3.863285e+05
  -2.186285e+05   1.419823e+04
  -6.459290e+05   6.467745e+04
  -1.674436e+05  -3.140769e+05
   8.127837e+05  -7.035404e+05
   1.280293e+06  -5.525293e+05
   8.040522e+05   1.868301e+05
  -7.050424e+04   8.931878e+05
  -5.627941e+05   8.900287e+05
  -4.605632e+05   1.964134e+05
  -8.779360e+04  -4.697481e+05
   2.237825e+05  -4.654031e+05
   3.609049e+05   1.073367e+05
   2.788520e+05   5.740175e+05
  -3.477599e+04   4.614659e+05
  -3.985704e+05  -1.964015e+04
  -4.969304e+05  -2.911559e+05
  -2.458963e+05  -1.091724e+05
   5.232755e+04   1.761821e+05
   8.013867e+04   9.133551e+04
  -6.819143e+04  -3.406973e+05
  -2.475632e+04  -5.970665e+05
   3.009690e+05  -2.896070e+05
   5.198762e+05   3.349030e+05
   2.353155e+05   6.491818e+05
  -3.872442e+05   3.479304e+05
  -7.029083e+05  -2.413292e+05
  -2.925605e+05  -5.591945e+05
   5.103292e+05  -3.891723e+05
   9.137065e+05   3.473015e+04
   5.055449e+05   3.655710e+05
  -2.856758e+05   4.378588e+05
  -6.490996e+05   2.802172e+05
  -2.781535e+05   2.952883e+04
   3.138881e+05  -1.102856e+05
   4.029418e+05   1.274996e+04
  -1.283733e+05   2.805059e+05
  -6.927707e+05   3.049699e+05
