
 $NMID
 id='ANONYMOUS ', fmtdat='(2E16.6)'
 volume=1.0
 tramp=1.0
 $END
  -2.382836e+07  -1.455788e+06
  -1.451398e+07  -1.267302e+07
   1.676303e+06  -1.494663e+07
   1.074072e+07  -8.532708e+06
   7.967575e+06   8.604619e+04
  -1.593596e+04   4.093949e+06
  -4.542473e+06   1.514503e+06
  -2.984148e+06  -3.804726e+06
   1.439730e+06  -5.904165e+06
   4.348114e+06  -2.378578e+06
   3.636721e+06   3.155720e+06
   3.532880e+05   4.845466e+06
  -2.322414e+06   1.046136e+06
  -1.760015e+06  -3.854839e+06
   1.442227e+06  -4.437181e+06
   3.804418e+06  -1.245430e+05
   2.553911e+06   4.696684e+06
  -1.443790e+06   5.673819e+06
  -4.693763e+06   2.521273e+06
  -4.644136e+06  -1.606079e+06
  -1.937526e+06  -3.586211e+06
   5.440502e+05  -2.902619e+06
   5.685603e+05  -1.487699e+06
  -1.244743e+06  -1.462092e+06
  -1.973190e+06  -2.883668e+06
   4.440495e+05  -3.728997e+06
   4.480650e+06  -2.273346e+06
   6.173860e+06   7.807394e+05
   3.479009e+06   2.977065e+06
  -1.154438e+06   2.692393e+06
  -3.325107e+06   5.531777e+05
  -1.438487e+06  -1.480860e+06
   1.925140e+06  -1.783425e+06
   3.249540e+06  -5.225900e+04
   1.713305e+06   2.403962e+06
  -6.652978e+05   3.332360e+06
  -1.645204e+06   1.575967e+06
  -8.491510e+05  -1.189605e+06
   3.893385e+05  -1.840667e+06
   5.917731e+05   4.047381e+05
  -4.852030e+05   2.634042e+06
  -1.667774e+06   1.780590e+06
  -1.497384e+06  -1.278966e+06
   2.270550e+05  -2.706035e+06
   1.991054e+06  -6.036191e+05
   1.868625e+06   2.646809e+06
  -5.189002e+05   3.419977e+06
  -3.346663e+06   9.838271e+05
  -4.057377e+06  -2.191165e+06
  -1.743104e+06  -3.413403e+06
   1.801215e+06  -2.129446e+06
   3.567282e+06   2.164578e+05
   2.171254e+06   1.708471e+06
  -7.686391e+05   1.392994e+06
  -2.312957e+06  -8.709751e+04
  -1.267988e+06  -1.118872e+06
   7.336358e+05  -7.243756e+05
   1.306131e+06   4.459600e+05
   3.968238e+04   9.638090e+05
  -1.247803e+06   2.923877e+05
  -7.960186e+05  -7.548620e+05
   1.065812e+06  -1.040816e+06
   2.313098e+06  -1.360991e+05
   1.378747e+06   1.507965e+06
  -1.266325e+06   2.820824e+06
  -3.571079e+06   2.598834e+06
  -3.820491e+06   4.795308e+05
  -2.137782e+06  -2.297391e+06
  -1.592318e+05  -3.718534e+06
   7.078293e+05  -3.030757e+06
   5.669383e+05  -1.526870e+06
   5.436562e+05  -8.627939e+05
   1.276792e+06  -1.022692e+06
   2.203681e+06  -6.333728e+05
   2.284770e+06   8.862513e+05
   1.128250e+06   2.309868e+06
  -6.367398e+05   2.031339e+06
  -1.825222e+06   2.986190e+04
  -1.508660e+06  -1.997485e+06
   2.316723e+05  -2.321579e+06
   2.128943e+06  -7.594469e+05
   2.637327e+06   1.328818e+06
   1.397359e+06   2.393331e+06
  -3.430982e+05   2.028904e+06
  -1.108991e+06   1.095233e+06
  -8.748848e+05   6.281008e+05
  -9.212074e+05   7.376787e+05
  -1.989033e+06   6.421546e+05
  -3.097250e+06  -3.222285e+05
  -2.588713e+06  -1.898206e+06
  -1.685596e+05  -3.077973e+06
   2.503193e+06  -2.928502e+06
   3.364028e+06  -1.346242e+06
   1.950798e+06   7.259847e+05
  -2.187999e+05   1.856127e+06
  -1.186660e+06   1.300339e+06
  -4.019022e+05  -1.722209e+05
   9.490758e+05  -9.333833e+05
   1.344230e+06  -2.516243e+05
   4.976403e+05   8.545577e+05
  -5.247900e+05   8.838605e+05
  -5.859684e+05  -2.143133e+05
   3.559170e+05  -9.073864e+05
   1.317799e+06   2.451969e+04
   1.261223e+06   1.923304e+06
  -5.626450e+04   2.905778e+06
  -1.889735e+06   1.875259e+06
  -2.967270e+06  -4.076770e+05
  -2.411744e+06  -2.172185e+06
  -5.800670e+05  -2.302244e+06
   1.071932e+06  -1.176682e+06
   1.309998e+06  -9.025945e+04
   3.831429e+05   3.720457e+04
  -2.909151e+05  -5.608260e+05
   2.114693e+05  -9.132286e+05
   1.253688e+06  -4.295017e+05
   1.457332e+06   4.835934e+05
   4.012715e+05   9.295123e+05
  -8.275420e+05   5.101287e+05
  -8.379437e+05  -2.951082e+05
   5.040797e+05  -6.437142e+05
   1.857399e+06  -1.044160e+05
   1.740539e+06   9.859389e+05
   4.764745e+04   1.763438e+06
  -1.787909e+06   1.503138e+06
  -2.175748e+06   2.980952e+05
  -9.214334e+05  -8.760002e+05
   6.372925e+05  -1.007875e+06
   1.026439e+06  -1.074963e+05
   6.407687e+04   7.396044e+05
  -1.122288e+06   5.408347e+05
  -1.337131e+06  -4.973624e+05
  -4.369434e+05  -1.236127e+06
   6.803027e+05  -9.196841e+05
   1.005644e+06   1.740923e+04
   3.487875e+05   5.166294e+05
  -5.000263e+05   7.640485e+04
  -5.218470e+05  -7.694461e+05
   4.770795e+05  -1.059949e+06
   1.553261e+06  -3.641909e+05
   1.536145e+06   8.292269e+05
   3.016676e+05   1.564674e+06
  -1.035621e+06   1.265926e+06
  -1.300405e+06   2.378736e+05
  -4.662240e+05  -6.248034e+05
   4.547296e+05  -6.704861e+05
   5.841220e+05  -7.086818e+04
   1.328789e+04   4.335108e+05
  -4.886505e+05   3.499030e+05
  -3.685304e+05  -6.618595e+04
   1.817294e+05  -1.612287e+05
   4.627979e+05   3.172256e+05
  -2.117585e+04   8.666249e+05
  -1.004121e+06   7.276768e+05
  -1.599757e+06  -2.814718e+05
  -1.127288e+06  -1.480250e+06
   1.559726e+05  -1.912789e+06
   1.256535e+06  -1.234695e+06
   1.433616e+06  -2.117793e+04
   8.767973e+05   7.971786e+05
   3.367270e+05   7.960299e+05
   2.323717e+05   3.650133e+05
   2.933540e+05   1.892308e+05
   3.090135e+04   4.724504e+05
  -6.153872e+05   7.260812e+05
  -1.146278e+06   3.552915e+05
  -9.511078e+05  -5.797036e+05
   8.708959e+04  -1.277291e+06
   1.336080e+06  -9.502184e+05
   1.805148e+06   3.261966e+05
   9.808323e+05   1.581247e+06
  -6.254194e+05   1.815916e+06
  -1.848213e+06   9.097101e+05
  -1.888488e+06  -3.342573e+05
  -9.681920e+05  -1.006641e+06
   1.944286e+04  -9.096746e+05
   4.144396e+05  -5.805063e+05
   2.973496e+05  -5.861196e+05
   2.054153e+05  -8.802726e+05
   4.845320e+05  -8.900316e+05
   9.311938e+05  -2.099618e+05
   1.009480e+06   8.527126e+05
   4.218664e+05   1.481906e+06
  -4.989099e+05   1.122847e+06
  -1.011800e+06   3.779574e+04
  -6.729497e+05  -9.177908e+05
   1.826000e+05  -1.064006e+06
   7.543540e+05  -4.452697e+05
   5.962333e+05   3.287707e+05
   4.352350e+04   7.038012e+05
  -2.255593e+05   6.174431e+05
   1.862956e+04   3.923901e+05
   3.057691e+05   3.060937e+05
   2.413773e+04   3.173698e+05
  -8.255545e+05   1.828514e+05
  -1.508369e+06  -2.236378e+05
  -1.251714e+06  -7.356354e+05
  -8.232129e+04  -1.015662e+06
   1.099089e+06  -8.401780e+05
   1.366535e+06  -3.029483e+05
   6.783372e+05   2.233733e+05
  -1.478106e+05   3.657025e+05
  -3.507606e+05   8.543326e+04
   3.340028e+04  -2.420479e+05
   3.996614e+05  -1.788195e+05
   3.579688e+05   2.729677e+05
   8.699007e+04   6.081335e+05
  -2.996697e+04   3.920219e+05
   1.130816e+05  -1.515267e+05
   2.928586e+05  -3.308521e+05
   2.306292e+05   1.661896e+05
  -1.641420e+05   8.098507e+05
  -6.947449e+05   8.056726e+05
  -9.331006e+05   4.817522e+04
  -5.313709e+05  -7.289323e+05
   3.337993e+05  -7.818669e+05
   9.154776e+05  -1.463861e+05
   5.584467e+05   4.860688e+05
  -5.172052e+05   5.271501e+05
  -1.286011e+06  -5.546593e+03
  -9.339648e+05  -6.298712e+05
   2.591084e+05  -8.571138e+05
   1.187488e+06  -5.382378e+05
   1.059149e+06   5.414477e+04
   1.670878e+05   4.234727e+05
  -4.889389e+05   2.655446e+05
  -2.620772e+05  -1.967915e+05
   5.145806e+05  -3.600439e+05
   9.242845e+05   1.472075e+05
   4.293004e+05   9.798593e+05
  -5.888159e+05   1.306428e+06
  -1.234406e+06   6.241511e+05
  -9.873983e+05  -6.440086e+05
  -1.422654e+05  -1.444326e+06
   5.852710e+05  -1.081339e+06
   7.458211e+05   7.084957e+04
   4.109182e+05   9.274968e+05
  -7.793119e+04   8.096045e+05
  -4.129550e+05   1.021165e+05
  -4.365861e+05  -3.079422e+05
  -2.055556e+05  -1.246157e+05
  -8.108815e+03   9.633352e+04
  -1.108655e+05  -1.937848e+05
  -3.616917e+05  -7.487683e+05
  -2.415762e+05  -8.638448e+05
   4.639052e+05  -3.191632e+05
   1.185542e+06   3.725493e+05
   1.098438e+06   6.579777e+05
   1.533854e+05   5.358815e+05
  -7.520558e+05   3.293290e+05
  -8.058810e+05   1.726783e+05
  -2.205814e+05  -6.220196e+03
   1.453033e+05  -1.745105e+05
  -5.962418e+04  -1.971540e+05
  -3.037410e+05  -1.153084e+05
  -4.254480e+03  -1.138256e+05
   6.252839e+05  -1.573735e+05
   8.196049e+05   4.570221e+04
   2.038742e+05   5.502728e+05
  -7.671843e+05   8.801788e+05
  -1.299406e+06   5.109576e+05
  -1.008356e+06  -4.176726e+05
  -1.698684e+05  -1.135034e+06
   6.007891e+05  -1.048160e+06
   8.399511e+05  -3.543092e+05
   5.331286e+05   2.378364e+05
   6.402934e+04   2.865617e+05
  -1.368031e+05   8.216947e+03
   2.996751e+04  -6.802945e+04
   2.711811e+05   2.631203e+05
   2.222405e+05   6.369615e+05
  -1.676701e+05   5.188000e+05
  -5.601798e+05  -1.580903e+05
  -5.301738e+05  -8.223741e+05
   1.333046e+04  -8.188521e+05
   6.577785e+05  -1.136364e+05
   7.920583e+05   6.598678e+05
   2.080158e+05   8.682612e+05
  -5.929105e+05   4.682889e+05
  -8.461708e+05  -1.013784e+05
  -3.598545e+05  -4.407186e+05
   2.380697e+05  -4.579386e+05
   2.395731e+05  -2.611920e+05
  -2.719415e+05  -3.080598e+04
  -5.347759e+05   1.266888e+04
  -8.499086e+04  -2.345025e+05
   6.605103e+05  -5.369828e+05
   9.347321e+05  -4.594279e+05
   5.221432e+05   1.012169e+05
  -9.704895e+04   6.586696e+05
  -3.880287e+05   6.333185e+05
  -2.728437e+05   6.156882e+04
  -1.103695e+03  -4.142497e+05
   2.135472e+05  -3.034909e+05
   2.881718e+05   1.851671e+05
   1.831289e+05   4.640186e+05
  -7.193817e+04   2.804295e+05
  -3.093568e+05  -6.926269e+04
  -3.447615e+05  -1.861412e+05
  -1.852499e+05  -3.952940e+04
  -1.336298e+04   7.227590e+04
   5.156828e+04  -6.921399e+04
   8.014179e+04  -3.319415e+05
   1.827411e+05  -3.788364e+05
   3.103210e+05  -5.553332e+04
   2.806440e+05   3.937857e+05
   1.268705e+03   5.387052e+05
  -3.644284e+05   2.146646e+05
  -4.834352e+05  -2.792679e+05
  -1.620189e+05  -4.874909e+05
   3.888599e+05  -2.695481e+05
   6.623826e+05   1.066821e+05
   3.544370e+05   3.099606e+05
  -2.442425e+05   2.641856e+05
  -4.991697e+05   1.097360e+05
  -1.497345e+05  -5.770047e+03
   3.517179e+05  -5.958817e+03
   3.583386e+05   1.249123e+05
  -1.897651e+05   2.779719e+05
  -6.876119e+05   2.124810e+05
