
 $NMID
 id='ANONYMOUS ', fmtdat='(2E16.6)'
 volume=1.0
 tramp=1.0
 $END
  -2.158143e+07  -1.567870e+06
  -1.365967e+07  -1.073263e+07
   7.403596e+05  -1.339384e+07
   9.626313e+06  -8.745581e+06
   7.876659e+06  -8.715881e+05
   4.468726e+05   3.859587e+06
  -4.458662e+06   1.989074e+06
  -3.339898e+06  -3.533487e+06
   1.117021e+06  -6.124617e+06
   4.181326e+06  -2.654894e+06
   3.463460e+06   3.065683e+06
   2.233674e+05   4.749793e+06
  -2.259609e+06   8.246127e+05
  -1.622536e+06  -4.082119e+06
   1.434293e+06  -4.611308e+06
   3.701077e+06  -3.270605e+05
   2.571725e+06   4.446128e+06
  -1.239383e+06   5.439501e+06
  -4.352904e+06   2.346671e+06
  -4.180857e+06  -1.618800e+06
  -1.486022e+06  -3.254690e+06
   6.338539e+05  -2.288613e+06
   1.336005e+05  -1.074285e+06
  -1.816206e+06  -1.660701e+06
  -2.119353e+06  -3.447857e+06
   7.827174e+05  -4.001425e+06
   4.850227e+06  -1.990447e+06
   6.198198e+06   1.242489e+06
   3.180335e+06   3.143114e+06
  -1.541227e+06   2.459513e+06
  -3.540543e+06   1.046369e+05
  -1.259714e+06  -1.893761e+06
   2.461490e+06  -1.901061e+06
   3.696104e+06   2.347872e+05
   1.641986e+06   2.828224e+06
  -1.056641e+06   3.450091e+06
  -1.732824e+06   1.328054e+06
  -4.545672e+05  -1.372456e+06
   7.504643e+05  -1.633428e+06
   4.891549e+05   7.997041e+05
  -8.110951e+05   2.860056e+06
  -1.798635e+06   1.842416e+06
  -1.525629e+06  -1.169713e+06
  -5.598945e+04  -2.594093e+06
   1.523179e+06  -7.312525e+05
   1.658940e+06   2.284133e+06
  -3.359897e+05   3.113626e+06
  -3.119098e+06   8.952769e+05
  -4.062235e+06  -2.200847e+06
  -1.842941e+06  -3.493369e+06
   1.841206e+06  -2.231487e+06
   3.735957e+06   1.809019e+05
   2.332582e+06   1.718916e+06
  -6.574317e+05   1.417988e+06
  -2.252844e+06  -1.907546e+04
  -1.288614e+06  -1.027337e+06
   6.864300e+05  -6.882870e+05
   1.364321e+06   4.618736e+05
   1.654475e+05   1.114930e+06
  -1.305236e+06   5.839196e+05
  -1.136810e+06  -5.659062e+05
   7.054503e+05  -1.135049e+06
   2.209707e+06  -3.797028e+05
   1.428794e+06   1.344418e+06
  -1.340392e+06   2.734388e+06
  -3.753355e+06   2.442991e+06
  -3.841109e+06   2.710185e+05
  -1.934369e+06  -2.400832e+06
   1.391130e+04  -3.712306e+06
   6.875715e+05  -3.099983e+06
   5.323652e+05  -1.752578e+06
   7.353346e+05  -1.076873e+06
   1.652318e+06  -1.018458e+06
   2.509547e+06  -3.868249e+05
   2.346858e+06   1.246943e+06
   9.580494e+05   2.621718e+06
  -9.147618e+05   2.141680e+06
  -2.037217e+06  -1.242893e+05
  -1.514437e+06  -2.269805e+06
   3.965980e+05  -2.437124e+06
   2.250688e+06  -6.144354e+05
   2.562336e+06   1.536890e+06
   1.221223e+06   2.422555e+06
  -4.147451e+05   1.888770e+06
  -1.028246e+06   9.833743e+05
  -7.773120e+05   6.519504e+05
  -9.316237e+05   8.228592e+05
  -2.109276e+06   6.713108e+05
  -3.251682e+06  -3.990596e+05
  -2.670948e+06  -2.066156e+06
  -7.182742e+04  -3.258824e+06
   2.776645e+06  -2.992522e+06
   3.626364e+06  -1.228419e+06
   1.985196e+06   9.200536e+05
  -4.019987e+05   1.951602e+06
  -1.355788e+06   1.259655e+06
  -3.906533e+05  -2.318275e+05
   1.067113e+06  -9.205030e+05
   1.402481e+06  -1.945809e+05
   4.454012e+05   8.976056e+05
  -6.223066e+05   8.922365e+05
  -6.557950e+05  -2.680030e+05
   3.687668e+05  -1.041771e+06
   1.448762e+06  -9.084191e+04
   1.449288e+06   2.006588e+06
   1.467675e+04   3.202329e+06
  -2.051130e+06   2.132239e+06
  -3.250946e+06  -4.429239e+05
  -2.584882e+06  -2.444214e+06
  -5.458309e+05  -2.531153e+06
   1.203175e+06  -1.207109e+06
   1.396568e+06  -2.224323e+04
   4.015371e+05   5.287939e+04
  -2.851732e+05  -6.075449e+05
   2.420864e+05  -9.434801e+05
   1.308016e+06  -4.066279e+05
   1.508400e+06   5.375710e+05
   4.006139e+05   9.779817e+05
  -9.000364e+05   5.113103e+05
  -9.053705e+05  -3.639740e+05
   5.627890e+05  -7.260680e+05
   2.042660e+06  -8.654484e+04
   1.886295e+06   1.138140e+06
   3.327179e+03   1.936576e+06
  -1.975176e+06   1.561486e+06
  -2.326368e+06   2.397461e+05
  -9.371028e+05  -9.430196e+05
   6.950437e+05  -1.011412e+06
   1.050565e+06  -7.068261e+04
   1.834620e+04   7.618969e+05
  -1.204154e+06   5.188494e+05
  -1.401510e+06  -5.677937e+05
  -4.400127e+05  -1.330121e+06
   7.437061e+05  -9.791571e+05
   1.081614e+06   3.092485e+04
   3.705229e+05   5.602733e+05
  -5.280268e+05   6.795145e+04
  -5.212021e+05  -8.390537e+05
   5.576814e+05  -1.105960e+06
   1.666940e+06  -3.160348e+05
   1.590696e+06   9.440914e+05
   2.587481e+05   1.664440e+06
  -1.133755e+06   1.300972e+06
  -1.379265e+06   2.124422e+05
  -4.751005e+05  -6.756720e+05
   5.093721e+05  -6.965746e+05
   6.370345e+05  -3.599365e+04
  -6.321814e+03   5.033941e+05
  -5.772774e+05   3.773694e+05
  -4.416153e+05  -1.161281e+05
   1.901440e+05  -2.256345e+05
   5.141648e+05   3.201478e+05
  -2.155769e+04   9.252795e+05
  -1.085722e+06   7.504662e+05
  -1.691631e+06  -3.520015e+05
  -1.141359e+06  -1.610712e+06
   2.402989e+05  -2.028704e+06
   1.390874e+06  -1.281375e+06
   1.548754e+06   2.134835e+04
   9.252964e+05   9.076356e+05
   3.193826e+05   9.081665e+05
   1.961242e+05   4.152159e+05
   2.809367e+05   1.859231e+05
   2.571793e+04   4.800618e+05
  -6.665790e+05   7.640720e+05
  -1.245569e+06   3.597029e+05
  -1.018750e+06  -6.610989e+05
   1.282649e+05  -1.390825e+06
   1.465876e+06  -9.853661e+05
   1.922382e+06   4.106030e+05
   1.001177e+06   1.720137e+06
  -7.097903e+05   1.915010e+06
  -1.986975e+06   9.204866e+05
  -2.014477e+06  -4.059913e+05
  -1.025675e+06  -1.119288e+06
   4.835058e+04  -1.004936e+06
   4.960122e+05  -6.214540e+05
   3.772387e+05  -5.907111e+05
   2.614792e+05  -8.919281e+05
   5.334592e+05  -9.088381e+05
   9.810059e+05  -1.856884e+05
   1.031413e+06   9.448392e+05
   3.856103e+05   1.590483e+06
  -5.783291e+05   1.170675e+06
  -1.081530e+06   3.089111e+03
  -6.914145e+05  -9.932441e+05
   2.151508e+05  -1.129341e+06
   8.066997e+05  -4.761437e+05
   6.344083e+05   3.359896e+05
   5.241112e+04   7.410198e+05
  -2.358055e+05   6.657173e+05
   1.069568e+04   4.341894e+05
   3.058858e+05   3.383134e+05
   1.139461e+04   3.385236e+05
  -8.744887e+05   1.746642e+05
  -1.583827e+06  -2.786347e+05
  -1.307343e+06  -8.187458e+05
  -7.243257e+04  -1.078745e+06
   1.176040e+06  -8.548711e+05
   1.460786e+06  -2.851721e+05
   7.295999e+05   2.431008e+05
  -1.548988e+05   3.763231e+05
  -3.738980e+05   9.169046e+04
   4.204813e+04  -2.358265e+05
   4.329832e+05  -1.665755e+05
   3.655097e+05   2.999909e+05
   4.995527e+04   6.428053e+05
  -6.418703e+04   4.067362e+05
   1.329781e+05  -1.695746e+05
   3.468063e+05  -3.511585e+05
   2.483598e+05   1.842581e+05
  -2.131313e+05   8.584425e+05
  -7.668193e+05   8.305779e+05
  -9.691741e+05   1.665046e+04
  -5.171051e+05  -7.846419e+05
   3.754085e+05  -8.019606e+05
   9.562231e+05  -1.106905e+05
   5.684120e+05   5.405127e+05
  -5.651587e+05   5.458512e+05
  -1.377359e+06  -4.752294e+04
  -9.950173e+05  -7.106517e+05
   2.961558e+05  -9.246146e+05
   1.299358e+06  -5.502292e+05
   1.146947e+06   9.288847e+04
   1.682708e+05   4.655706e+05
  -5.329941e+05   2.721647e+05
  -2.679669e+05  -2.122301e+05
   5.657452e+05  -3.498919e+05
   9.680049e+05   2.057890e+05
   3.973079e+05   1.056202e+06
  -6.921611e+05   1.346280e+06
  -1.336999e+06   5.963521e+05
  -1.017483e+06  -7.287229e+05
  -8.897286e+04  -1.541775e+06
   6.701363e+05  -1.134889e+06
   7.996986e+05   9.566827e+04
   4.126069e+05   1.008131e+06
  -1.061931e+05   8.755564e+05
  -4.439105e+05   1.011117e+05
  -4.618740e+05  -3.544042e+05
  -2.230864e+05  -1.523716e+05
  -1.009831e+04   1.076427e+05
  -9.785957e+04  -1.933089e+05
  -3.492676e+05  -8.038836e+05
  -2.336399e+05  -9.387825e+05
   4.915058e+05  -3.320965e+05
   1.246913e+06   4.458658e+05
   1.154647e+06   7.512770e+05
   1.455538e+05   5.739144e+05
  -8.230540e+05   3.117719e+05
  -8.706908e+05   1.531774e+05
  -2.284670e+05  -2.367894e+03
   1.653766e+05  -1.747225e+05
  -6.587936e+04  -2.261318e+05
  -3.294380e+05  -1.519448e+05
   5.954443e+03  -1.200248e+05
   6.839052e+05  -1.270920e+05
   8.645244e+05   8.658812e+04
   1.729083e+05   5.781039e+05
  -8.605387e+05   8.846698e+05
  -1.384041e+06   4.822074e+05
  -1.029166e+06  -4.832516e+05
  -1.255623e+05  -1.210749e+06
   6.746407e+05  -1.085175e+06
   9.010476e+05  -3.315171e+05
   5.543292e+05   2.848054e+05
   4.981465e+04   3.040486e+05
  -1.538488e+05  -1.265049e+04
   3.556745e+04  -8.390073e+04
   2.864966e+05   2.904779e+05
   2.144967e+05   6.895688e+05
  -2.023935e+05   5.386223e+05
  -5.854773e+05  -2.041707e+05
  -5.124484e+05  -9.006731e+05
   6.507241e+04  -8.571023e+05
   7.032714e+05  -7.303764e+04
   7.993200e+05   7.440174e+05
   1.745058e+05   9.234188e+05
  -6.450464e+05   4.595693e+05
  -8.840871e+05  -1.437584e+05
  -3.606642e+05  -4.691841e+05
   2.642119e+05  -4.640548e+05
   2.530669e+05  -2.704062e+05
  -2.962788e+05  -5.582781e+04
  -5.699731e+05  -1.291241e+04
  -7.736407e+04  -2.471532e+05
   7.244222e+05  -5.427286e+05
   1.005390e+06  -4.626702e+05
   5.420074e+05   1.124317e+05
  -1.296275e+05   6.881474e+05
  -4.243518e+05   6.558276e+05
  -2.738729e+05   5.180519e+04
   2.621104e+04  -4.404834e+05
   2.377242e+05  -3.044612e+05
   2.918008e+05   2.202441e+05
   1.721344e+05   4.991996e+05
  -8.552647e+04   2.819432e+05
  -3.214864e+05  -9.174539e+04
  -3.576738e+05  -2.020525e+05
  -1.984601e+05  -4.248524e+04
  -1.810385e+04   6.396784e+04
   6.793874e+04  -8.989530e+04
   1.196532e+05  -3.467879e+05
   2.258071e+05  -3.679859e+05
   3.265795e+05  -2.006857e+04
   2.570480e+05   4.346096e+05
  -4.358765e+04   5.612052e+05
  -3.981657e+05   2.027165e+05
  -4.882686e+05  -3.202754e+05
  -1.420970e+05  -5.252056e+05
   4.194508e+05  -2.691728e+05
   6.876348e+05   1.434041e+05
   3.583529e+05   3.424419e+05
  -2.656742e+05   2.602938e+05
  -5.244234e+05   8.505849e+04
  -1.477272e+05  -9.350468e+03
   3.806755e+05   2.626847e+04
   3.715923e+05   1.643394e+05
  -2.285276e+05   2.879397e+05
  -7.549132e+05   1.844699e+05
