
 $NMID
 id='ANONYMOUS ', fmtdat='(2E16.6)'
 volume=1.0
 tramp=1.0
 $END
   3.569893e+07   1.329621e+06
   2.139639e+07   2.080650e+07
  -3.878562e+06   2.325688e+07
  -1.686991e+07   1.076752e+07
  -1.106891e+07  -2.474673e+06
   1.179826e+06  -5.949678e+06
   6.470421e+06  -5.762331e+05
   2.956560e+06   5.963302e+06
  -3.149946e+06   7.231260e+06
  -6.294151e+06   2.280987e+06
  -4.854722e+06  -4.324574e+06
  -4.759970e+05  -6.273126e+06
   2.969455e+06  -1.617092e+06
   2.073206e+06   4.554886e+06
  -2.318583e+06   5.297184e+06
  -5.311613e+06  -3.983717e+05
  -3.247714e+06  -6.747239e+06
   2.319996e+06  -7.940014e+06
   6.705847e+06  -3.728626e+06
   6.886681e+06   1.849686e+06
   3.558464e+06   5.058943e+06
  -1.872729e+05   4.944665e+06
  -1.398445e+06   3.055927e+06
   2.621459e+05   1.916908e+06
   1.772569e+06   2.764826e+06
  -2.439911e+05   4.041902e+06
  -5.001922e+06   3.054702e+06
  -7.596155e+06  -4.374729e+05
  -4.778176e+06  -3.519078e+06
   7.731100e+05  -3.581810e+06
   3.609005e+06  -1.212905e+06
   1.839173e+06   1.063666e+06
  -1.569258e+06   1.574364e+06
  -3.061774e+06   1.999260e+05
  -1.948610e+06  -2.169827e+06
   2.370226e+05  -3.659829e+06
   1.765946e+06  -2.395315e+06
   1.671132e+06   8.823774e+05
   2.744497e+05   2.520381e+06
  -6.920212e+05   3.530754e+05
   2.354459e+05  -2.689352e+06
   2.008513e+06  -2.025036e+06
   1.854323e+06   1.978117e+06
  -1.011043e+06   3.947850e+06
  -3.739970e+06   7.245697e+05
  -2.994166e+06  -4.224546e+06
   1.057640e+06  -5.269736e+06
   4.870795e+06  -1.468157e+06
   5.177969e+06   3.076794e+06
   1.823459e+06   4.440845e+06
  -2.447422e+06   2.389844e+06
  -4.269134e+06  -6.902017e+05
  -2.322221e+06  -2.371540e+06
   1.363132e+06  -1.685421e+06
   3.133373e+06   4.019048e+05
   1.520057e+06   1.700003e+06
  -1.103763e+06   9.482901e+05
  -1.492150e+06  -6.662444e+05
   4.230736e+05  -9.700565e+05
   1.692418e+06   3.974187e+05
   3.259738e+05   1.675366e+06
  -2.314615e+06   1.344608e+06
  -3.398731e+06  -3.789337e+05
  -1.733045e+06  -2.403949e+06
   1.513385e+06  -3.755784e+06
   4.215981e+06  -3.450979e+06
   4.784074e+06  -9.062095e+05
   3.036689e+06   2.698648e+06
   4.060983e+05   4.695667e+06
  -1.135830e+06   3.725210e+06
  -9.807122e+05   1.481289e+06
  -4.257737e+05   5.380115e+05
  -9.000832e+05   1.068011e+06
  -2.117650e+06   1.047242e+06
  -2.570711e+06  -5.633447e+05
  -1.469389e+06  -2.295973e+06
   4.560426e+05  -2.155694e+06
   1.814290e+06  -7.763067e+04
   1.617947e+06   2.120442e+06
  -1.784568e+05   2.625556e+06
  -2.441872e+06   1.077886e+06
  -3.360977e+06  -1.357426e+06
  -2.055688e+06  -2.963926e+06
   2.686001e+05  -2.851792e+06
   1.554951e+06  -1.680437e+06
   1.369478e+06  -8.225485e+05
   1.270118e+06  -7.481126e+05
   2.402770e+06  -6.061277e+05
   3.657828e+06   4.996934e+05
   2.997919e+06   2.287895e+06
   1.457565e+05   3.571614e+06
  -2.870203e+06   3.378012e+06
  -3.796079e+06   1.652005e+06
  -2.271339e+06  -6.685381e+05
   7.359890e+04  -2.068271e+06
   1.216907e+06  -1.562597e+06
   4.683903e+05   1.408786e+05
  -1.048887e+06   1.094175e+06
  -1.594691e+06   2.964002e+05
  -6.518608e+05  -1.016170e+06
   5.538298e+05  -9.899102e+05
   5.524315e+05   2.934244e+05
  -6.238913e+05   8.692235e+05
  -1.557628e+06  -4.704610e+05
  -1.091582e+06  -2.544504e+06
   5.972011e+05  -3.195283e+06
   2.402626e+06  -1.683720e+06
   3.206125e+06   7.885318e+05
   2.458679e+06   2.473530e+06
   5.520706e+05   2.510235e+06
  -1.181007e+06   1.323132e+06
  -1.457564e+06   1.354437e+05
  -4.358116e+05  -4.276727e+04
   3.212768e+05   6.554712e+05
  -3.018055e+05   1.099033e+06
  -1.539635e+06   4.858312e+05
  -1.711692e+06  -6.603531e+05
  -3.972305e+05  -1.141121e+06
   9.925629e+05  -5.409696e+05
   8.890789e+05   3.769598e+05
  -6.552340e+05   6.294480e+05
  -2.055642e+06  -4.989937e+04
  -1.813175e+06  -1.169236e+06
   6.441802e+04  -1.912974e+06
   2.055981e+06  -1.609499e+06
   2.477890e+06  -2.880659e+05
   1.054417e+06   1.054655e+06
  -7.724285e+05   1.215696e+06
  -1.255475e+06   1.294869e+05
  -1.046128e+05  -8.919603e+05
   1.314856e+06  -6.219960e+05
   1.522277e+06   6.300949e+05
   4.079321e+05   1.435883e+06
  -8.613432e+05   9.682705e+05
  -1.132704e+06  -1.340199e+05
  -3.160956e+05  -6.352948e+05
   6.336986e+05  -6.442389e+04
   6.177546e+05   9.134908e+05
  -5.420935e+05   1.237570e+06
  -1.787864e+06   4.353876e+05
  -1.775797e+06  -9.535432e+05
  -3.329465e+05  -1.814171e+06
   1.230774e+06  -1.444280e+06
   1.503605e+06  -2.275891e+05
   4.883041e+05   7.392737e+05
  -5.540103e+05   7.383069e+05
  -6.252856e+05   6.726465e+04
   4.005006e+04  -4.291251e+05
   5.169090e+05  -3.121358e+05
   2.988623e+05   7.310592e+04
  -2.857715e+05   8.598805e+04
  -5.032672e+05  -4.577668e+05
   9.041174e+04  -1.019030e+06
   1.185635e+06  -8.153452e+05
   1.839511e+06   3.488031e+05
   1.288481e+06   1.714501e+06
  -1.938537e+05   2.172330e+06
  -1.441894e+06   1.340707e+06
  -1.581856e+06  -3.759074e+04
  -9.004081e+05  -8.657878e+05
  -3.405986e+05  -7.744736e+05
  -3.303427e+05  -3.272579e+05
  -4.272922e+05  -2.429877e+05
  -5.519223e+04  -5.977270e+05
   7.351624e+05  -8.188874e+05
   1.304582e+06  -3.584090e+05
   1.027116e+06   6.562307e+05
  -1.520460e+05   1.396452e+06
  -1.534726e+06   1.030187e+06
  -2.038836e+06  -4.042281e+05
  -1.067584e+06  -1.839667e+06
   8.014899e+05  -2.085873e+06
   2.179948e+06  -9.793142e+05
   2.128602e+06   4.767782e+05
   9.951918e+05   1.172039e+06
  -9.307299e+04   9.580935e+05
  -4.239983e+05   5.761644e+05
  -2.320048e+05   6.691958e+05
  -1.809362e+05   1.069152e+06
  -5.761054e+05   1.067264e+06
  -1.101329e+06   2.527646e+05
  -1.164732e+06  -9.748037e+05
  -4.797909e+05  -1.693397e+06
   5.698740e+05  -1.278959e+06
   1.152197e+06  -1.812628e+04
   7.452511e+05   1.092138e+06
  -2.720474e+05   1.226261e+06
  -9.364936e+05   4.434588e+05
  -6.971359e+05  -4.805733e+05
   1.987424e+04  -8.685723e+05
   3.529352e+05  -7.010725e+05
   2.147876e+04  -4.154478e+05
  -3.642648e+05  -3.286200e+05
  -3.857921e+04  -3.537027e+05
   9.773589e+05  -1.977505e+05
   1.771752e+06   2.776998e+05
   1.432138e+06   8.814188e+05
   3.506010e+04   1.211701e+06
  -1.327724e+06   9.788399e+05
  -1.592139e+06   2.973920e+05
  -7.600980e+05  -3.368790e+05
   1.968423e+05  -4.549173e+05
   4.243673e+05  -6.827941e+04
  -9.677788e+03   3.170654e+05
  -4.288659e+05   2.138785e+05
  -4.160426e+05  -3.086899e+05
  -1.517077e+05  -6.721022e+05
  -1.538547e+04  -4.380528e+05
  -1.264302e+05   1.358170e+05
  -3.005592e+05   3.280472e+05
  -2.581595e+05  -1.978609e+05
   1.621420e+05  -9.066223e+05
   8.006052e+05  -9.331819e+05
   1.131532e+06  -9.668090e+04
   6.712199e+05   8.269698e+05
  -3.786952e+05   9.455152e+05
  -1.078325e+06   2.227653e+05
  -6.432550e+05  -5.371094e+05
   6.071847e+05  -5.897535e+05
   1.445261e+06   4.486604e+04
   9.909250e+05   7.442302e+05
  -3.573382e+05   9.359179e+05
  -1.349532e+06   5.287441e+05
  -1.161821e+06  -1.132844e+05
  -1.579716e+05  -4.734631e+05
   5.692080e+05  -2.731879e+05
   3.177771e+05   2.431406e+05
  -5.604560e+05   4.341845e+05
  -1.055737e+06  -1.285008e+05
  -5.361641e+05  -1.091365e+06
   6.100887e+05  -1.502588e+06
   1.372241e+06  -7.446898e+05
   1.122828e+06   7.105980e+05
   1.674667e+05   1.626837e+06
  -6.678284e+05   1.197623e+06
  -8.404037e+05  -1.177567e+05
  -4.285665e+05  -1.063427e+06
   1.409741e+05  -8.982563e+05
   4.868364e+05  -9.657351e+04
   4.602956e+05   3.469145e+05
   1.934239e+05   1.345876e+05
   2.535719e+04  -9.818038e+04
   1.832478e+05   2.414709e+05
   4.303241e+05   8.600787e+05
   2.240592e+05   9.765498e+05
  -5.813264e+05   3.576703e+05
  -1.335952e+06  -4.238949e+05
  -1.201159e+06  -7.524131e+05
  -1.696768e+05  -6.181421e+05
   8.140038e+05  -3.739751e+05
   9.016291e+05  -1.793238e+05
   2.853712e+05   2.645836e+04
  -1.492678e+05   1.997009e+05
   2.046639e+04   2.050188e+05
   2.948018e+05   1.099238e+05
   2.430456e+04   1.254891e+05
  -6.560209e+05   1.942684e+05
  -9.365236e+05  -3.328197e+04
  -3.065623e+05  -6.245050e+05
   8.177683e+05  -1.027626e+06
   1.502290e+06  -6.271494e+05
   1.205124e+06   4.335775e+05
   2.185950e+05   1.277851e+06
  -6.871856e+05   1.213470e+06
  -9.502990e+05   4.420508e+05
  -5.984034e+05  -2.410260e+05
  -9.589378e+04  -3.247537e+05
   1.107314e+05  -3.418203e+04
  -5.311843e+04   4.690694e+04
  -2.895226e+05  -3.150395e+05
  -2.369250e+05  -7.261493e+05
   1.771152e+05  -6.001800e+05
   6.251955e+05   1.452791e+05
   6.330239e+05   8.961567e+05
   4.379919e+04   9.292907e+05
  -7.125317e+05   1.759082e+05
  -9.155515e+05  -6.988642e+05
  -2.751901e+05  -9.833794e+05
   6.575470e+05  -5.712570e+05
   9.843363e+05   9.094392e+04
   4.439620e+05   5.264116e+05
  -2.646285e+05   5.660043e+05
  -3.075923e+05   3.139649e+05
   2.651152e+05   2.097469e+04
   5.960156e+05  -2.536265e+04
   1.145924e+05   2.718292e+05
  -7.465819e+05   6.103255e+05
  -1.097915e+06   5.033741e+05
  -6.399155e+05  -1.378281e+05
   9.841840e+04  -7.653873e+05
   4.692796e+05  -7.451602e+05
   3.472226e+05  -1.084913e+05
   2.557750e+04   4.505133e+05
  -2.285095e+05   3.690133e+05
  -3.222478e+05  -1.702198e+05
  -2.188764e+05  -5.231807e+05
   6.415061e+04  -3.524357e+05
   3.517190e+05   5.884442e+04
   4.101524e+05   2.324826e+05
   2.142759e+05   6.622755e+04
  -8.333270e+03  -1.095073e+05
  -6.638688e+04   1.824227e+04
  -3.843952e+04   3.470509e+05
  -1.238151e+05   4.640593e+05
  -3.189668e+05   1.322005e+05
  -3.675296e+05  -3.925875e+05
  -7.409420e+04  -5.972397e+05
   3.897526e+05  -2.646701e+05
   5.749459e+05   2.827735e+05
   2.077755e+05   5.342963e+05
  -4.493312e+05   3.184600e+05
  -7.745344e+05  -9.301539e+04
  -4.177655e+05  -3.455387e+05
   2.706329e+05  -3.315475e+05
   5.712782e+05  -1.669154e+05
   1.987502e+05  -5.505337e+03
  -3.538865e+05   3.569570e+04
  -3.862763e+05  -9.740399e+04
   1.816998e+05  -2.880380e+05
   7.222495e+05  -2.438911e+05
