
 $NMID
 id='ANONYMOUS ', fmtdat='(2E16.6)'
 volume=1.0
 tramp=1.0
 $END
  -5.335690e+07   2.901865e+06
  -3.393655e+07  -3.105854e+07
   4.910912e+06  -3.638668e+07
   2.524239e+07  -1.551466e+07
   1.602081e+07   5.521758e+06
  -2.528949e+06   9.003860e+06
  -9.380869e+06  -4.733188e+05
  -3.288146e+06  -9.057919e+06
   5.259686e+06  -9.311736e+06
   9.033560e+06  -2.527890e+06
   7.010102e+06   5.529593e+06
   1.246999e+06   8.190763e+06
  -3.681033e+06   2.807930e+06
  -2.848930e+06  -5.124543e+06
   3.185716e+06  -6.529167e+06
   7.555411e+06   7.849559e+05
   4.812082e+06   9.445366e+06
  -2.923655e+06   1.142395e+07
  -9.277778e+06   6.145064e+06
  -1.035796e+07  -1.411514e+06
  -6.615665e+06  -6.770909e+06
  -1.053761e+06  -8.103842e+06
   2.390441e+06  -5.801560e+06
   1.450626e+06  -2.654211e+06
  -1.304198e+06  -2.116859e+06
  -4.487093e+05  -4.098308e+06
   5.042809e+06  -4.513942e+06
   9.295601e+06  -9.418263e+05
   6.947142e+06   3.617851e+06
   4.198142e+05   4.837108e+06
  -3.525983e+06   2.614921e+06
  -2.390849e+06   3.581031e+04
   6.380249e+05  -1.051015e+06
   2.313699e+06  -6.047692e+05
   2.240597e+06   1.366022e+06
   8.173999e+05   3.824817e+06
  -1.563914e+06   3.753100e+06
  -3.037159e+06  -1.724242e+04
  -1.733433e+06  -3.385597e+06
   6.646979e+05  -1.771618e+06
   4.275442e+05   2.443036e+06
  -2.244810e+06   2.388401e+06
  -2.526391e+06  -2.881292e+06
   1.902305e+06  -5.940434e+06
   6.447811e+06  -1.341050e+06
   5.195497e+06   6.263541e+06
  -1.327798e+06   8.162062e+06
  -6.919840e+06   2.691159e+06
  -6.918787e+06  -3.852656e+06
  -2.161491e+06  -5.674826e+06
   3.164727e+06  -2.839288e+06
   5.170767e+06   1.115384e+06
   2.579838e+06   3.181084e+06
  -2.147266e+06   2.244753e+06
  -4.367468e+06  -6.036897e+05
  -2.027507e+06  -2.464979e+06
   1.553859e+06  -1.401341e+06
   1.750267e+06   8.755357e+05
  -1.149226e+06   9.835522e+05
  -2.448568e+06  -1.439650e+06
   3.158412e+05  -3.224257e+06
   4.202440e+06  -2.064768e+06
   5.093048e+06   9.352338e+05
   2.442589e+06   3.621145e+06
  -1.456616e+06   5.139459e+06
  -4.595278e+06   4.921468e+06
  -5.875070e+06   1.983145e+06
  -4.539613e+06  -2.819707e+06
  -1.221507e+06  -5.891271e+06
   1.488531e+06  -4.705058e+06
   1.579551e+06  -1.336094e+06
   1.987417e+05   1.434799e+05
   2.127669e+04  -9.930463e+05
   1.554441e+06  -1.792164e+06
   2.761424e+06  -3.100182e+05
   2.070564e+06   1.846671e+06
   9.817573e+04   2.139327e+06
  -1.565651e+06   2.869566e+05
  -1.787802e+06  -1.969549e+06
  -1.543824e+05  -2.883327e+06
   2.618111e+06  -1.738085e+06
   4.382601e+06   9.471832e+05
   3.276142e+06   3.459088e+06
   1.726678e+05   4.039327e+06
  -2.024449e+06   2.703311e+06
  -2.051132e+06   1.215751e+06
  -1.714428e+06   7.889011e+05
  -2.833437e+06   6.598111e+05
  -4.287966e+06  -4.776670e+05
  -3.569970e+06  -2.497439e+06
  -3.680696e+05  -4.037207e+06
   2.930012e+06  -4.009222e+06
   3.992918e+06  -2.301247e+06
   2.630132e+06   2.939957e+05
   3.665508e+05   2.195208e+06
  -9.987563e+05   1.951842e+06
  -5.546595e+05  -1.531788e+04
   1.005379e+06  -1.345410e+06
   1.844652e+06  -4.947057e+05
   9.582883e+05   1.129732e+06
  -4.561078e+05   1.127911e+06
  -4.619526e+05  -3.523112e+05
   9.738563e+05  -7.703503e+05
   1.884499e+06   1.091836e+06
   8.816591e+05   3.330334e+06
  -1.286225e+06   3.453984e+06
  -2.978986e+06   1.339216e+06
  -3.357540e+06  -1.180853e+06
  -2.437648e+06  -2.584407e+06
  -6.107049e+05  -2.560225e+06
   1.145749e+06  -1.515269e+06
   1.547321e+06  -3.086244e+05
   4.881301e+05   1.755585e+04
  -3.960201e+05  -7.206303e+05
   3.277378e+05  -1.337936e+06
   1.836587e+06  -6.744717e+05
   2.047394e+06   7.521618e+05
   4.625417e+05   1.366865e+06
  -1.121132e+06   6.317207e+05
  -9.105636e+05  -3.971463e+05
   7.997328e+05  -5.726569e+05
   2.175738e+06   1.754930e+05
   1.815269e+06   1.235737e+06
  -1.225134e+05   1.968264e+06
  -2.183924e+06   1.770941e+06
  -2.722075e+06   4.282456e+05
  -1.269448e+06  -1.176472e+06
   8.213623e+05  -1.525647e+06
   1.520997e+06  -2.706771e+05
   2.535234e+05   1.052119e+06
  -1.454842e+06   8.103559e+05
  -1.739735e+06  -6.724466e+05
  -4.308951e+05  -1.610342e+06
   1.017360e+06  -1.029768e+06
   1.258718e+06   2.308395e+05
   2.904751e+05   7.548094e+05
  -7.803398e+05   9.896719e+04
  -7.853883e+05  -9.987866e+05
   4.903442e+05  -1.438983e+06
   1.953889e+06  -6.475033e+05
   2.069209e+06   9.241431e+05
   4.950152e+05   2.027189e+06
  -1.328943e+06   1.702482e+06
  -1.692174e+06   3.050964e+05
  -5.458033e+05  -8.289868e+05
   6.049658e+05  -8.313326e+05
   6.248575e+05  -1.113237e+05
  -9.279138e+04   3.675732e+05
  -4.762601e+05   2.405359e+05
  -1.339545e+05  -5.627433e+04
   4.396886e+05   4.497429e+04
   5.489680e+05   6.278128e+05
  -1.341581e+05   1.181113e+06
  -1.313277e+06   9.619414e+05
  -2.078938e+06  -2.917661e+05
  -1.555717e+06  -1.837354e+06
   7.789419e+04  -2.404422e+06
   1.515391e+06  -1.489014e+06
   1.677999e+06   2.619742e+04
   9.032704e+05   8.385390e+05
   3.543667e+05   6.334185e+05
   4.810022e+05   1.964597e+05
   6.308204e+05   2.740801e+05
   1.306682e+05   7.462861e+05
  -8.127712e+05   9.386456e+05
  -1.411455e+06   4.045249e+05
  -1.080345e+06  -6.536605e+05
   1.614776e+05  -1.457973e+06
   1.639425e+06  -1.158329e+06
   2.248201e+06   3.500351e+05
   1.239058e+06   2.008983e+06
  -8.616844e+05   2.391381e+06
  -2.449892e+06   1.162081e+06
  -2.358677e+06  -5.155961e+05
  -1.023613e+06  -1.266393e+06
   1.461289e+05  -9.484161e+05
   3.569596e+05  -5.308870e+05
   4.050984e+04  -7.503020e+05
   3.265221e+04  -1.294497e+06
   5.898007e+05  -1.307457e+06
   1.258477e+06  -3.861952e+05
   1.381802e+06   9.919819e+05
   6.569548e+05   1.840150e+06
  -5.332766e+05   1.455042e+06
  -1.269963e+06   7.103400e+04
  -8.746207e+05  -1.220162e+06
   3.051600e+05  -1.399420e+06
   1.121654e+06  -4.670011e+05
   8.378351e+05   6.394423e+05
  -5.973829e+04   1.065603e+06
  -4.824359e+05   8.012193e+05
  -5.866724e+04   4.160875e+05
   4.469938e+05   3.077593e+05
   8.092721e+04   3.755119e+05
  -1.121364e+06   2.721793e+05
  -2.054864e+06  -2.115588e+05
  -1.655425e+06  -9.315074e+05
  -4.438321e+04  -1.417397e+06
   1.503970e+06  -1.215106e+06
   1.792110e+06  -3.782924e+05
   8.503637e+05   4.391493e+05
  -2.256613e+05   5.756439e+05
  -5.025049e+05   6.243467e+04
  -5.330663e+04  -4.140186e+05
   4.229007e+05  -2.811327e+05
   4.954606e+05   3.101191e+05
   2.928664e+05   7.003522e+05
   1.231441e+05   4.687074e+05
   1.294020e+05  -1.011741e+05
   2.576834e+05  -3.051486e+05
   2.851546e+05   2.134416e+05
  -8.169757e+04   9.826643e+05
  -8.267478e+05   1.105490e+06
  -1.337556e+06   2.522464e+05
  -8.970958e+05  -8.548116e+05
   3.445038e+05  -1.151593e+06
   1.225152e+06  -4.083472e+05
   7.591938e+05   5.225625e+05
  -6.568023e+05   6.803844e+05
  -1.573027e+06  -4.830439e+03
  -1.038935e+06  -7.949565e+05
   4.241406e+05  -1.001391e+06
   1.451324e+06  -5.540412e+05
   1.225326e+06   1.201000e+05
   1.601969e+05   4.990394e+05
  -6.267045e+05   3.012112e+05
  -3.983727e+05  -2.702220e+05
   5.453071e+05  -5.543301e+05
   1.176076e+06   4.641332e+03
   7.413945e+05   1.125877e+06
  -4.728831e+05   1.723554e+06
  -1.410685e+06   9.718726e+05
  -1.289196e+06  -6.700366e+05
  -3.101724e+05  -1.758298e+06
   6.541201e+05  -1.320332e+06
   9.237316e+05   1.247917e+05
   4.914752e+05   1.153635e+06
  -1.674283e+05   9.663789e+05
  -5.533162e+05   1.128871e+05
  -4.772847e+05  -3.436512e+05
  -1.628001e+05  -1.233596e+05
  -4.515075e+04   9.468985e+04
  -3.051702e+05  -2.812260e+05
  -5.664416e+05  -9.277599e+05
  -2.441558e+05  -1.053030e+06
   6.941961e+05  -4.312037e+05
   1.485486e+06   3.703617e+05
   1.307180e+06   7.498018e+05
   2.240098e+05   6.819002e+05
  -8.093660e+05   4.686138e+05
  -9.588574e+05   2.369588e+05
  -3.680480e+05  -3.659898e+04
   1.262666e+05  -2.335135e+05
   3.440935e+04  -1.985850e+05
  -2.552128e+05  -6.916795e+04
  -6.390795e+04  -1.280040e+05
   6.254395e+05  -2.816873e+05
   1.039096e+06  -6.003020e+04
   4.940673e+05   6.608537e+05
  -7.437446e+05   1.230048e+06
  -1.644659e+06   8.698373e+05
  -1.444701e+06  -3.272915e+05
  -3.704499e+05  -1.372131e+06
   6.742423e+05  -1.417552e+06
   1.004951e+06  -6.127313e+05
   6.624321e+05   1.779115e+05
   1.631563e+05   3.466965e+05
  -5.151057e+04   8.056547e+04
   8.427983e+04  -1.062653e+04
   3.138416e+05   3.494136e+05
   2.911540e+05   7.843678e+05
  -1.291082e+05   6.885567e+05
  -6.797758e+05  -6.215568e+04
  -8.070384e+05  -8.810341e+05
  -2.043924e+05  -1.016285e+06
   7.183376e+05  -3.145808e+05
   1.080581e+06   6.265406e+05
   4.317483e+05   1.056593e+06
  -6.571856e+05   7.337163e+05
  -1.122353e+06   7.875658e+03
  -5.787910e+05  -5.830647e+05
   2.394243e+05  -7.082615e+05
   3.659518e+05  -3.941628e+05
  -2.288191e+05   1.473943e+04
  -6.362534e+05   8.632529e+04
  -1.722605e+05  -2.984869e+05
   7.714341e+05  -7.263788e+05
   1.225340e+06  -6.076806e+05
   7.844278e+05   1.375991e+05
  -3.433281e+04   8.747921e+05
  -5.037451e+05   8.930532e+05
  -4.283251e+05   2.023804e+05
  -9.600044e+04  -4.636283e+05
   2.033842e+05  -4.577678e+05
   3.581509e+05   1.050031e+05
   2.946143e+05   5.535987e+05
  -1.801169e+04   4.420524e+05
  -3.912498e+05  -9.547284e+03
  -4.965290e+05  -2.564174e+05
  -2.470639e+05  -8.900974e+04
   5.288429e+04   1.594508e+05
   8.512584e+04   6.426927e+04
  -6.014589e+04  -3.386173e+05
  -2.264824e+04  -5.672827e+05
   2.898977e+05  -2.701929e+05
   5.037017e+05   3.228823e+05
   2.319530e+05   6.279305e+05
  -3.732158e+05   3.494006e+05
  -6.899595e+05  -2.177631e+05
  -3.015916e+05  -5.429524e+05
   4.820366e+05  -4.010281e+05
   8.905099e+05   3.630714e+03
   5.070585e+05   3.394522e+05
  -2.623850e+05   4.311456e+05
  -6.217272e+05   2.884485e+05
  -2.610654e+05   3.907084e+04
   3.180890e+05  -1.073692e+05
   4.005505e+05   1.325730e+04
  -1.290609e+05   2.883982e+05
  -6.896744e+05   3.234154e+05
