
 $NMID
 id='ANONYMOUS ', fmtdat='(2E16.6)'
 volume=1.0
 tramp=1.0
 $END
   2.525735e+07   2.618911e+05
   1.652547e+07   1.231315e+07
  -4.860870e+05   1.601062e+07
  -1.103734e+07   1.016408e+07
  -8.948342e+06   6.929424e+05
  -3.868158e+05  -4.484161e+06
   5.030975e+06  -2.059873e+06
   3.649740e+06   4.050046e+06
  -1.287246e+06   6.740722e+06
  -4.693382e+06   2.943085e+06
  -4.044653e+06  -3.265778e+06
  -5.098596e+05  -5.239067e+06
   2.437199e+06  -1.120878e+06
   1.945972e+06   4.284356e+06
  -1.475892e+06   5.040259e+06
  -4.191781e+06   4.022247e+05
  -3.065956e+06  -4.964752e+06
   1.208308e+06  -6.245573e+06
   4.857094e+06  -2.959823e+06
   4.945567e+06   1.482276e+06
   2.128204e+06   3.606315e+06
  -3.915784e+05   2.894195e+06
  -2.573389e+05   1.551115e+06
   1.677477e+06   1.787177e+06
   2.243193e+06   3.420892e+06
  -5.779026e+05   4.198786e+06
  -4.989519e+06   2.456121e+06
  -6.756538e+06  -8.757573e+05
  -3.752568e+06  -3.182097e+06
   1.335585e+06  -2.806357e+06
   3.667729e+06  -4.445087e+05
   1.458530e+06   1.757931e+06
  -2.356293e+06   1.977220e+06
  -3.739689e+06  -6.271511e+04
  -1.846154e+06  -2.768737e+06
   8.256362e+05  -3.653988e+06
   1.730952e+06  -1.650587e+06
   7.312750e+05   1.279573e+06
  -5.001355e+05   1.858999e+06
  -5.296328e+05  -5.964453e+05
   6.491487e+05  -2.965217e+06
   1.849965e+06  -2.032624e+06
   1.732537e+06   1.308498e+06
   6.753424e+03   3.009093e+06
  -1.981388e+06   9.089488e+05
  -2.144587e+06  -2.637786e+06
   2.879915e+05  -3.700320e+06
   3.534638e+06  -1.224248e+06
   4.570780e+06   2.278304e+06
   2.085258e+06   3.768650e+06
  -1.955550e+06   2.454313e+06
  -4.036544e+06  -1.319848e+05
  -2.526587e+06  -1.840947e+06
   7.587420e+05  -1.587859e+06
   2.539028e+06  -2.448494e+04
   1.456715e+06   1.146860e+06
  -7.608569e+05   8.111255e+05
  -1.476870e+06  -4.686385e+05
  -9.694951e+04  -1.159371e+06
   1.458985e+06  -4.903166e+05
   1.105461e+06   7.930859e+05
  -9.893196e+05   1.318105e+06
  -2.552230e+06   3.816153e+05
  -1.642115e+06  -1.542314e+06
   1.298722e+06  -3.104777e+06
   3.888272e+06  -2.892498e+06
   4.159588e+06  -5.733593e+05
   2.324878e+06   2.455579e+06
   2.328700e+05   4.051620e+06
  -6.702854e+05   3.403560e+06
  -5.923848e+05   1.820539e+06
  -6.978939e+05   1.038249e+06
  -1.551391e+06   1.099977e+06
  -2.511215e+06   5.983240e+05
  -2.511854e+06  -1.086224e+06
  -1.175760e+06  -2.627882e+06
   7.961050e+05  -2.256893e+06
   2.086224e+06   3.006783e+04
   1.677315e+06   2.290084e+06
  -2.814695e+05   2.590455e+06
  -2.350346e+06   8.157862e+05
  -2.876206e+06  -1.452959e+06
  -1.539703e+06  -2.559543e+06
   3.019386e+05  -2.164501e+06
   1.111797e+06  -1.215998e+06
   8.944748e+05  -7.648067e+05
   1.012490e+06  -8.929552e+05
   2.240828e+06  -7.753061e+05
   3.495619e+06   3.070569e+05
   2.936213e+06   2.097316e+06
   2.148934e+05   3.462466e+06
  -2.802975e+06   3.302903e+06
  -3.766137e+06   1.497064e+06
  -2.152510e+06  -8.348926e+05
   2.865585e+05  -2.064299e+06
   1.336688e+06  -1.416509e+06
   4.281353e+05   2.083205e+05
  -1.073596e+06   1.032201e+06
  -1.492532e+06   2.800126e+05
  -5.412388e+05  -9.372631e+05
   6.029763e+05  -9.715276e+05
   6.776387e+05   2.657764e+05
  -4.035230e+05   1.081340e+06
  -1.555605e+06   4.592242e+04
  -1.541605e+06  -2.163991e+06
  -1.240751e+04  -3.374393e+06
   2.156149e+06  -2.233225e+06
   3.423070e+06   4.173047e+05
   2.767351e+06   2.478928e+06
   6.591933e+05   2.625484e+06
  -1.208438e+06   1.325427e+06
  -1.467604e+06   9.529628e+04
  -4.281527e+05  -3.821002e+04
   3.283752e+05   6.330052e+05
  -2.247959e+05   1.027010e+06
  -1.394155e+06   4.956342e+05
  -1.640307e+06  -5.239834e+05
  -4.601314e+05  -1.039801e+06
   9.392884e+05  -5.762195e+05
   9.574810e+05   3.515812e+05
  -5.842124e+05   7.645020e+05
  -2.141669e+06   1.365975e+05
  -2.000641e+06  -1.133894e+06
  -5.727227e+04  -2.024382e+06
   2.025459e+06  -1.714724e+06
   2.452308e+06  -3.469788e+05
   1.040132e+06   9.702398e+05
  -6.979485e+05   1.124025e+06
  -1.132792e+06   1.302081e+05
  -6.754452e+04  -8.172005e+05
   1.258066e+06  -6.087973e+05
   1.511439e+06   5.517527e+05
   5.054440e+05   1.397572e+06
  -7.662244e+05   1.053682e+06
  -1.146783e+06  -1.127034e+04
  -4.008089e+05  -5.892785e+05
   5.691651e+05  -9.338988e+04
   5.951534e+05   8.690434e+05
  -5.366046e+05   1.199784e+06
  -1.750369e+06   4.154896e+05
  -1.731804e+06  -9.266927e+05
  -3.485570e+05  -1.757379e+06
   1.153298e+06  -1.431494e+06
   1.458714e+06  -2.783571e+05
   5.262828e+05   7.018131e+05
  -5.149581e+05   7.565559e+05
  -6.619343e+05   6.571716e+04
  -2.077432e+03  -5.140566e+05
   5.817731e+05  -4.002597e+05
   4.375241e+05   1.036120e+05
  -2.144169e+05   2.201094e+05
  -5.522157e+05  -3.433570e+05
  -2.170404e+02  -9.888749e+05
   1.125915e+06  -8.386770e+05
   1.809353e+06   3.031292e+05
   1.281527e+06   1.659035e+06
  -1.666196e+05   2.155988e+06
  -1.418036e+06   1.402364e+06
  -1.628337e+06   2.974698e+04
  -9.936429e+05  -9.111782e+05
  -3.643424e+05  -9.139517e+05
  -2.408512e+05  -4.062149e+05
  -3.295197e+05  -1.896285e+05
  -5.330083e+04  -5.220444e+05
   6.818293e+05  -8.352142e+05
   1.301761e+06  -4.211634e+05
   1.089848e+06   6.555042e+05
  -9.049038e+04   1.461575e+06
  -1.510586e+06   1.092586e+06
  -2.046879e+06  -3.571849e+05
  -1.124393e+06  -1.784407e+06
   6.861276e+05  -2.063612e+06
   2.080371e+06  -1.050903e+06
   2.146065e+06   3.631952e+05
   1.108818e+06   1.146492e+06
  -2.570367e+04   1.046394e+06
  -4.859312e+05   6.563104e+05
  -3.442802e+05   6.400004e+05
  -2.206897e+05   9.720437e+05
  -5.282012e+05   1.000609e+06
  -1.039641e+06   2.456280e+05
  -1.137983e+06  -9.530209e+05
  -4.803847e+05  -1.666119e+06
   5.584873e+05  -1.264835e+06
   1.144007e+06  -4.658218e+04
   7.719240e+05   1.031283e+06
  -1.924410e+05   1.209354e+06
  -8.527057e+05   5.254442e+05
  -6.927223e+05  -3.536515e+05
  -7.232534e+04  -7.998746e+05
   2.436697e+05  -7.158794e+05
  -1.972935e+04  -4.518478e+05
  -3.421570e+05  -3.394705e+05
  -2.913841e+04  -3.556272e+05
   9.270838e+05  -2.213157e+05
   1.701492e+06   2.291011e+05
   1.421885e+06   8.178611e+05
   1.117601e+05   1.152060e+06
  -1.223836e+06   9.642078e+05
  -1.542381e+06   3.567953e+05
  -7.812475e+05  -2.449176e+05
   1.536811e+05  -4.152502e+05
   3.982604e+05  -1.065716e+05
  -2.686876e+04   2.620352e+05
  -4.449509e+05   1.979424e+05
  -4.026326e+05  -3.009886e+05
  -9.441520e+04  -6.725437e+05
   3.718068e+04  -4.306264e+05
  -1.334217e+05   1.755497e+05
  -3.429928e+05   3.733777e+05
  -2.683259e+05  -1.863555e+05
   1.821619e+05  -9.124770e+05
   7.757163e+05  -9.157457e+05
   1.040133e+06  -7.196418e+04
   5.982525e+05   8.049137e+05
  -3.600213e+05   8.786931e+05
  -1.014932e+06   1.743273e+05
  -6.272815e+05  -5.424026e+05
   5.785050e+05  -6.006142e+05
   1.455488e+06  -1.305736e+03
   1.066555e+06   7.154075e+05
  -2.885882e+05   9.823518e+05
  -1.350648e+06   6.190408e+05
  -1.206979e+06  -6.040566e+04
  -1.907479e+05  -4.831791e+05
   5.548156e+05  -3.050306e+05
   2.981325e+05   2.164040e+05
  -5.755642e+05   4.010931e+05
  -1.033245e+06  -1.640251e+05
  -4.794211e+05  -1.092556e+06
   6.563797e+05  -1.458575e+06
   1.379239e+06  -6.992792e+05
   1.108895e+06   7.198348e+05
   1.645009e+05   1.623041e+06
  -6.589309e+05   1.222459e+06
  -8.484980e+05  -7.473088e+04
  -4.719661e+05  -1.050089e+06
   8.603364e+04  -9.253654e+05
   4.689585e+05  -1.220741e+05
   4.950992e+05   3.533975e+05
   2.326768e+05   1.494685e+05
   9.953748e+03  -1.118904e+05
   1.266014e+05   2.044283e+05
   4.105819e+05   8.362618e+05
   2.770323e+05   9.815654e+05
  -5.182191e+05   3.728130e+05
  -1.335973e+06  -4.156673e+05
  -1.243144e+06  -7.443712e+05
  -1.783995e+05  -6.027140e+05
   8.464854e+05  -3.660339e+05
   9.105116e+05  -1.966384e+05
   2.504909e+05  -3.217060e+03
  -1.630739e+05   1.926399e+05
   6.769981e+04   2.322542e+05
   3.420654e+05   1.411107e+05
   3.658399e+03   1.255928e+05
  -7.036025e+05   1.680725e+05
  -9.188624e+05  -4.793524e+04
  -2.273358e+05  -6.023709e+05
   8.564275e+05  -9.804209e+05
   1.447736e+06  -5.839592e+05
   1.124224e+06   4.540859e+05
   1.932050e+05   1.271449e+06
  -6.655934e+05   1.183088e+06
  -9.361661e+05   4.004146e+05
  -5.963883e+05  -2.690043e+05
  -7.193593e+04  -3.184283e+05
   1.517666e+05   9.545886e+02
  -3.889771e+04   8.292605e+04
  -3.114177e+05  -2.983359e+05
  -2.540565e+05  -7.199240e+05
   1.859717e+05  -5.810254e+05
   6.248327e+05   1.808876e+05
   5.896535e+05   9.192300e+05
  -1.548112e+04   9.083431e+05
  -7.312487e+05   1.201951e+05
  -8.820644e+05  -7.380648e+05
  -2.355425e+05  -9.674577e+05
   6.570870e+05  -5.243549e+05
   9.465420e+05   1.061473e+05
   4.111725e+05   4.857020e+05
  -2.565137e+05   5.134625e+05
  -2.636543e+05   3.018200e+05
   3.050455e+05   4.290996e+04
   6.002485e+05  -1.433805e+04
   9.731211e+04   2.590696e+05
  -7.406650e+05   6.064810e+05
  -1.051376e+06   5.302519e+05
  -5.900184e+05  -9.968587e+04
   1.029927e+05  -7.376505e+05
   4.260401e+05  -7.191863e+05
   2.960865e+05  -7.688706e+04
  -2.210475e+03   4.617865e+05
  -2.340507e+05   3.383693e+05
  -3.167537e+05  -2.100233e+05
  -2.070195e+05  -5.190356e+05
   7.309941e+04  -3.101279e+05
   3.439396e+05   7.761980e+04
   3.921211e+05   2.025373e+05
   2.129696e+05   4.128382e+04
   1.016188e+04  -7.489223e+04
  -7.037319e+04   8.329467e+04
  -9.823997e+04   3.640913e+05
  -2.011923e+05   4.067281e+05
  -3.354714e+05   5.263218e+04
  -3.028148e+05  -4.340145e+05
   3.147308e+03  -5.910009e+05
   4.057440e+05  -2.370548e+05
   5.365915e+05   3.080129e+05
   1.793835e+05   5.438557e+05
  -4.331668e+05   3.064634e+05
  -7.386086e+05  -1.135737e+05
  -3.979647e+05  -3.441761e+05
   2.671536e+05  -2.949076e+05
   5.513421e+05  -1.240870e+05
   1.637250e+05  -8.266297e+00
  -3.920592e+05  -3.836593e+03
  -3.948059e+05  -1.461880e+05
   2.205091e+05  -3.075848e+05
   7.753757e+05  -2.290806e+05
