
 $NMID
 id='ANONYMOUS ', fmtdat='(2E16.6)'
 volume=1.0
 tramp=1.0
 $END
   3.175013e+07   1.420244e+06
   2.006953e+07   1.658261e+07
  -1.646727e+06   2.022376e+07
  -1.446711e+07   1.188890e+07
  -1.109888e+07   5.047962e+04
  -8.602779e+04  -5.626157e+06
   6.338031e+06  -2.091395e+06
   4.149707e+06   5.278722e+06
  -2.064316e+06   8.135598e+06
  -5.984158e+06   3.272819e+06
  -4.851387e+06  -4.230977e+06
  -4.036403e+05  -6.466592e+06
   3.049238e+06  -1.325323e+06
   2.190961e+06   5.263190e+06
  -2.088002e+06   6.039371e+06
  -5.210554e+06   2.114648e+05
  -3.515195e+06  -6.332974e+06
   1.853895e+06  -7.691076e+06
   6.209337e+06  -3.467801e+06
   6.148101e+06   2.028324e+06
   2.609656e+06   4.612189e+06
  -5.507336e+05   3.739113e+06
  -5.196835e+05   2.065928e+06
   1.747695e+06   2.245038e+06
   2.483226e+06   4.116614e+06
  -8.225263e+05   4.996298e+06
  -6.091540e+06   2.828413e+06
  -8.194790e+06  -1.260777e+06
  -4.526370e+06  -4.015152e+06
   1.632252e+06  -3.424159e+06
   4.411625e+06  -4.954043e+05
   1.730235e+06   2.072293e+06
  -2.807615e+06   2.220731e+06
  -4.398955e+06  -1.986316e+05
  -2.114119e+06  -3.327219e+06
   1.066882e+06  -4.360201e+06
   2.153389e+06  -2.014369e+06
   9.548269e+05   1.510781e+06
  -5.662651e+05   2.299852e+06
  -6.270056e+05  -6.091744e+05
   8.478504e+05  -3.496538e+06
   2.328857e+06  -2.365332e+06
   2.051888e+06   1.734210e+06
  -2.427865e+05   3.750142e+06
  -2.654650e+06   9.996159e+05
  -2.594970e+06  -3.461919e+06
   5.881641e+05  -4.647735e+06
   4.473190e+06  -1.367828e+06
   5.484787e+06   3.026423e+06
   2.320458e+06   4.706016e+06
  -2.517300e+06   2.866333e+06
  -4.882232e+06  -3.963321e+05
  -2.940107e+06  -2.392753e+06
   1.056374e+06  -1.901498e+06
   3.138563e+06   1.244165e+05
   1.721210e+06   1.514683e+06
  -9.911219e+05   9.687218e+05
  -1.761990e+06  -6.500086e+05
  -1.679343e+02  -1.378950e+06
   1.813241e+06  -4.142644e+05
   1.201864e+06   1.122813e+06
  -1.418898e+06   1.556962e+06
  -3.202454e+06   2.565733e+05
  -1.927581e+06  -2.036917e+06
   1.716062e+06  -3.765034e+06
   4.835005e+06  -3.389953e+06
   5.104545e+06  -5.641342e+05
   2.789301e+06   3.076135e+06
   1.398571e+05   4.966160e+06
  -1.008149e+06   4.111646e+06
  -8.456770e+05   2.120974e+06
  -8.520502e+05   1.146941e+06
  -1.822064e+06   1.245472e+06
  -2.983114e+06   6.722371e+05
  -2.976290e+06  -1.336269e+06
  -1.343650e+06  -3.158457e+06
   1.002129e+06  -2.665022e+06
   2.468773e+06   1.063968e+05
   1.914780e+06   2.797424e+06
  -4.289956e+05   3.106758e+06
  -2.868827e+06   9.211076e+05
  -3.461972e+06  -1.848625e+06
  -1.816715e+06  -3.191899e+06
   4.444673e+05  -2.681787e+06
   1.444536e+06  -1.479830e+06
   1.171160e+06  -8.911898e+05
   1.289115e+06  -1.012177e+06
   2.746295e+06  -8.168677e+05
   4.209179e+06   5.386275e+05
   3.450367e+06   2.666846e+06
   1.071637e+05   4.183905e+06
  -3.512170e+06   3.862791e+06
  -4.590447e+06   1.664795e+06
  -2.568401e+06  -1.067798e+06
   3.994382e+05  -2.468144e+06
   1.647856e+06  -1.668226e+06
   5.128173e+05   2.568682e+05
  -1.327216e+06   1.205600e+06
  -1.819178e+06   2.806679e+05
  -6.293985e+05  -1.158172e+06
   7.564264e+05  -1.147884e+06
   7.878657e+05   3.488612e+05
  -5.575899e+05   1.256036e+06
  -1.872762e+06  -7.590560e+04
  -1.705256e+06  -2.716663e+06
   2.062073e+05  -4.035654e+06
   2.719084e+06  -2.522626e+06
   4.069668e+06   6.948289e+05
   3.182189e+06   3.095155e+06
   6.687415e+05   3.167372e+06
  -1.503831e+06   1.542133e+06
  -1.766986e+06   5.931009e+04
  -5.145896e+05  -6.445381e+04
   3.683825e+05   7.763924e+05
  -3.206656e+05   1.234833e+06
  -1.714344e+06   5.393255e+05
  -1.961195e+06  -7.128354e+05
  -5.052876e+05  -1.281924e+06
   1.157350e+06  -6.514489e+05
   1.127104e+06   4.626363e+05
  -7.415988e+05   8.751132e+05
  -2.566325e+06   5.063860e+04
  -2.331581e+06  -1.449524e+06
   3.088008e+04  -2.419860e+06
   2.508526e+06  -1.963288e+06
   2.965357e+06  -3.087687e+05
   1.213680e+06   1.220088e+06
  -8.936376e+05   1.335881e+06
  -1.383760e+06   1.117948e+05
  -5.454399e+04  -9.943839e+05
   1.543396e+06  -6.830010e+05
   1.796030e+06   7.344587e+05
   5.386025e+05   1.706003e+06
  -9.762547e+05   1.225374e+06
  -1.377035e+06  -7.516891e+04
  -4.486216e+05  -7.302433e+05
   6.939755e+05  -8.623060e+04
   6.815056e+05   1.072233e+06
  -6.938748e+05   1.422524e+06
  -2.123649e+06   4.293488e+05
  -2.048036e+06  -1.187747e+06
  -3.450058e+05  -2.133479e+06
   1.454897e+06  -1.675413e+06
   1.771712e+06  -2.687555e+05
   6.006916e+05   8.702502e+05
  -6.538103e+05   8.870108e+05
  -7.934940e+05   5.368184e+04
   2.296978e+04  -6.052173e+05
   7.053790e+05  -4.448335e+05
   5.019498e+05   1.378178e+05
  -2.761747e+05   2.364667e+05
  -6.418195e+05  -4.513307e+05
   5.357758e+04  -1.191705e+06
   1.395421e+06  -9.571972e+05
   2.164908e+06   4.452444e+05
   1.471885e+06   2.053560e+06
  -2.929395e+05   2.586325e+06
  -1.765486e+06   1.619158e+06
  -1.952694e+06  -4.056738e+04
  -1.144690e+06  -1.131370e+06
  -3.967500e+05  -1.096399e+06
  -2.837014e+05  -4.883820e+05
  -3.999494e+05  -2.487033e+05
  -4.133339e+04  -6.393228e+05
   8.620010e+05  -9.722199e+05
   1.581885e+06  -4.420871e+05
   1.272773e+06   8.341218e+05
  -1.786287e+05   1.743464e+06
  -1.863567e+06   1.240825e+06
  -2.443070e+06  -5.205262e+05
  -1.269807e+06  -2.197315e+06
   9.241588e+05  -2.453795e+06
   2.555846e+06  -1.167838e+06
   2.561938e+06   5.394103e+05
   1.270953e+06   1.426820e+06
  -8.262748e+04   1.245117e+06
  -6.032169e+05   7.582631e+05
  -4.258753e+05   7.586440e+05
  -3.003486e+05   1.171696e+06
  -6.822878e+05   1.189383e+06
  -1.267405e+06   2.531943e+05
  -1.331592e+06  -1.194985e+06
  -5.085310e+05  -2.025416e+06
   7.245776e+05  -1.498816e+06
   1.377520e+06  -5.495681e+03
   8.815640e+05   1.278569e+06
  -2.912311e+05   1.447347e+06
  -1.056706e+06   5.857527e+05
  -8.179342e+05  -4.696272e+05
  -4.201208e+04  -9.725436e+05
   3.359195e+05  -8.479337e+05
  -1.259257e+02  -5.393525e+05
  -3.996522e+05  -4.213528e+05
  -2.091723e+04  -4.285101e+05
   1.129657e+06  -2.238796e+05
   2.043515e+06   3.527313e+05
   1.675678e+06   1.049663e+06
   7.706522e+04   1.395820e+06
  -1.523390e+06   1.109423e+06
  -1.874424e+06   3.577011e+05
  -9.259173e+05  -3.377710e+05
   2.075544e+05  -4.973802e+05
   4.861697e+05  -1.065017e+05
  -4.181695e+04   3.210695e+05
  -5.418069e+05   2.214899e+05
  -4.732467e+05  -3.799459e+05
  -9.239952e+04  -8.129022e+05
   5.609835e+04  -5.173865e+05
  -1.668275e+05   2.002633e+05
  -4.219546e+05   4.285734e+05
  -3.123986e+05  -2.366942e+05
   2.551390e+05  -1.087906e+06
   9.733190e+05  -1.069479e+06
   1.263765e+06  -4.536052e+04
   6.940266e+05   9.952687e+05
  -4.719265e+05   1.048964e+06
  -1.235196e+06   1.727154e+05
  -7.333995e+05  -6.776353e+05
   7.239749e+05  -6.964134e+05
   1.748166e+06   6.475415e+04
   1.242594e+06   9.075812e+05
  -3.962291e+05   1.162630e+06
  -1.648554e+06   6.766429e+05
  -1.442188e+06  -1.290459e+05
  -2.052377e+05  -5.872442e+05
   6.808735e+05  -3.397544e+05
   3.515777e+05   2.755203e+05
  -7.064806e+05   4.621763e+05
  -1.237796e+06  -2.356619e+05
  -5.378383e+05  -1.333143e+06
   8.440997e+05  -1.731636e+06
   1.686454e+06  -7.888989e+05
   1.304888e+06   9.103965e+05
   1.305776e+05   1.958363e+06
  -8.438195e+05   1.438886e+06
  -1.015389e+06  -1.303287e+05
  -5.181714e+05  -1.282930e+06
   1.481912e+05  -1.104686e+06
   5.704121e+05  -1.239227e+05
   5.760493e+05   4.441072e+05
   2.687936e+05   1.869946e+05
   1.836251e+04  -1.324329e+05
   1.502675e+05   2.557734e+05
   4.611399e+05   1.025142e+06
   2.860568e+05   1.190320e+06
  -6.458500e+05   4.243800e+05
  -1.588578e+06  -5.560608e+05
  -1.458166e+06  -9.470515e+05
  -1.880645e+05  -7.336784e+05
   1.028902e+06  -4.059597e+05
   1.101357e+06  -1.964442e+05
   3.051983e+05   1.048487e+04
  -2.023834e+05   2.259137e+05
   6.609261e+04   2.784718e+05
   3.995490e+05   1.796046e+05
   1.551540e+03   1.509980e+05
  -8.469975e+05   1.761866e+05
  -1.104531e+06  -9.406733e+04
  -2.576560e+05  -7.366870e+05
   1.065724e+06  -1.148943e+06
   1.771335e+06  -6.466275e+05
   1.342394e+06   5.907143e+05
   1.823540e+05   1.537259e+06
  -8.520625e+05   1.397703e+06
  -1.143739e+06   4.471316e+05
  -7.058743e+05  -3.446631e+05
  -7.602206e+04  -3.864515e+05
   1.775969e+05   2.957951e+03
  -5.163612e+04   9.353448e+04
  -3.590472e+05  -3.732894e+05
  -2.734091e+05  -8.762642e+05
   2.464832e+05  -6.929701e+05
   7.436843e+05   2.388539e+05
   6.761109e+05   1.126715e+06
  -4.915954e+04   1.094184e+06
  -8.821170e+05   1.211102e+05
  -1.034012e+06  -9.192794e+05
  -2.475899e+05  -1.174921e+06
   8.120463e+05  -6.085902e+05
   1.137904e+06   1.654140e+05
   4.775457e+05   6.059519e+05
  -3.310030e+05   6.125991e+05
  -3.346315e+05   3.528749e+05
   3.603715e+05   6.137836e+04
   7.216277e+05   6.446745e+03
   1.081276e+05   3.171595e+05
  -9.161879e+05   6.986599e+05
  -1.291144e+06   5.901050e+05
  -7.108137e+05  -1.493447e+05
   1.540647e+05  -8.858110e+05
   5.474210e+05  -8.495510e+05
   3.655442e+05  -8.345460e+04
  -1.842717e+04   5.538744e+05
  -2.950177e+05   4.006961e+05
  -3.730062e+05  -2.608960e+05
  -2.286484e+05  -6.330747e+05
   1.000263e+05  -3.749134e+05
   4.112961e+05   1.053447e+05
   4.648801e+05   2.634732e+05
   2.542493e+05   6.152341e+04
   1.336716e+04  -9.388626e+04
  -8.703244e+04   8.937687e+04
  -1.258133e+05   4.319872e+05
  -2.498396e+05   4.881244e+05
  -4.041223e+05   5.910632e+04
  -3.541479e+05  -5.298086e+05
   1.907065e+04  -7.116591e+05
   4.958619e+05  -2.715194e+05
   6.369797e+05   3.898218e+05
   1.964750e+05   6.602083e+05
  -5.354345e+05   3.516301e+05
  -8.875438e+05  -1.650075e+05
  -4.664385e+05  -4.305256e+05
   3.340487e+05  -3.478146e+05
   6.706520e+05  -1.313386e+05
   2.011696e+05   6.426529e+03
  -4.667650e+05  -1.568623e+04
  -4.679226e+05  -1.860663e+05
   2.728891e+05  -3.585530e+05
   9.351987e+05  -2.454559e+05
