
 $NMID
 id='ANONYMOUS ', fmtdat='(2E16.6)'
 volume=1.0
 tramp=1.0
 $END
  -3.392471e+07  -1.099026e+06
  -2.104816e+07  -1.851406e+07
   2.500302e+06  -2.184478e+07
   1.560727e+07  -1.163342e+07
   1.119398e+07   9.983016e+05
  -4.445136e+05   5.820232e+06
  -6.440849e+06   1.467766e+06
  -3.687025e+06  -5.608450e+06
   2.511564e+06  -7.817715e+06
   6.155258e+06  -2.903772e+06
   4.938344e+06   4.269117e+06
   5.014513e+05   6.434016e+06
  -3.026404e+06   1.496412e+06
  -2.202718e+06  -4.973372e+06
   2.161732e+06  -5.780698e+06
   5.310409e+06   1.687673e+04
   3.492752e+06   6.556442e+06
  -2.008157e+06   7.907611e+06
  -6.465953e+06   3.690444e+06
  -6.572840e+06  -1.902817e+06
  -3.120108e+06  -4.838824e+06
   3.522258e+05  -4.336903e+06
   9.065365e+05  -2.545636e+06
  -1.111217e+06  -2.100234e+06
  -2.228020e+06  -3.518105e+06
   5.180489e+05  -4.622735e+06
   5.633030e+06  -3.020711e+06
   8.019771e+06   8.214748e+05
   4.723077e+06   3.788039e+06
  -1.228443e+06   3.543434e+06
  -4.086488e+06   8.647784e+05
  -1.816163e+06  -1.618506e+06
   2.249338e+06  -1.974705e+06
   3.834524e+06  -2.591377e+04
   2.095145e+06   2.806536e+06
  -6.505389e+05   4.091668e+06
  -1.974325e+06   2.231654e+06
  -1.305132e+06  -1.226700e+06
   1.663472e+05  -2.429432e+06
   6.706193e+05   1.684469e+05
  -5.419481e+05   3.172645e+06
  -2.183565e+06   2.258695e+06
  -1.997532e+06  -1.843635e+06
   5.655156e+05  -3.882291e+06
   3.173383e+06  -9.068622e+05
   2.837348e+06   3.828651e+06
  -7.694504e+05   4.991950e+06
  -4.694061e+06   1.470788e+06
  -5.433382e+06  -3.032312e+06
  -2.162500e+06  -4.613402e+06
   2.484477e+06  -2.700339e+06
   4.655341e+06   4.896036e+05
   2.708656e+06   2.376234e+06
  -1.190440e+06   1.825819e+06
  -3.167400e+06  -2.261643e+05
  -1.657186e+06  -1.596319e+06
   1.045262e+06  -9.748538e+05
   1.660529e+06   6.472598e+05
  -1.824387e+05   1.201981e+06
  -1.770136e+06   6.118855e+04
  -8.184516e+05  -1.375437e+06
   1.832535e+06  -1.487802e+06
   3.323855e+06   1.404832e+03
   1.878908e+06   2.208420e+06
  -1.602789e+06   3.820401e+06
  -4.568435e+06   3.505471e+06
  -5.007679e+06   7.793396e+05
  -2.964264e+06  -2.908216e+06
  -3.128435e+05  -4.892941e+06
   1.035478e+06  -3.986318e+06
   8.918270e+05  -1.858396e+06
   6.508380e+05  -8.915877e+05
   1.407026e+06  -1.199380e+06
   2.615171e+06  -8.817974e+05
   2.837444e+06   9.687049e+05
   1.445467e+06   2.784802e+06
  -7.381063e+05   2.468405e+06
  -2.195519e+06  -1.394254e+03
  -1.824281e+06  -2.498994e+06
   2.897159e+05  -2.922400e+06
   2.694729e+06  -1.029653e+06
   3.470762e+06   1.609307e+06
   1.977768e+06   3.103070e+06
  -3.411980e+05   2.792932e+06
  -1.495280e+06   1.603252e+06
  -1.265496e+06   8.825534e+05
  -1.284675e+06   9.157060e+05
  -2.611781e+06   7.563465e+05
  -4.009008e+06  -4.850683e+05
  -3.307452e+06  -2.488069e+06
  -1.667010e+05  -3.948134e+06
   3.218824e+06  -3.717857e+06
   4.259548e+06  -1.722171e+06
   2.469286e+06   8.717331e+05
  -2.311322e+05   2.315154e+06
  -1.451069e+06   1.652153e+06
  -4.985049e+05  -2.027369e+05
   1.203496e+06  -1.179181e+06
   1.732373e+06  -3.062104e+05
   6.558028e+05   1.099459e+06
  -6.612732e+05   1.092223e+06
  -6.902045e+05  -3.219919e+05
   5.843439e+05  -1.096695e+06
   1.750535e+06   2.422081e+05
   1.468281e+06   2.651656e+06
  -3.493603e+05   3.695038e+06
  -2.579054e+06   2.191173e+06
  -3.724144e+06  -7.045410e+05
  -2.914797e+06  -2.811189e+06
  -6.536341e+05  -2.893575e+06
   1.356264e+06  -1.473590e+06
   1.642653e+06  -1.124842e+05
   4.841619e+05   4.975768e+04
  -3.576171e+05  -7.264393e+05
   3.050340e+05  -1.189026e+06
   1.648288e+06  -5.357854e+05
   1.873530e+06   6.792858e+05
   4.708259e+05   1.226365e+06
  -1.089917e+06   6.168002e+05
  -1.034101e+06  -4.201815e+05
   7.038673e+05  -7.803743e+05
   2.361542e+06  -2.946130e+04
   2.133722e+06   1.315176e+06
  -2.373901e+04   2.214525e+06
  -2.309601e+06   1.846566e+06
  -2.770434e+06   3.311729e+05
  -1.164545e+06  -1.145322e+06
   8.352787e+05  -1.302868e+06
   1.338096e+06  -1.335350e+05
   8.634997e+04   9.576728e+05
  -1.449412e+06   6.763593e+05
  -1.696406e+06  -6.780993e+05
  -4.996219e+05  -1.595053e+06
   9.230219e+05  -1.128507e+06
   1.279714e+06   9.149932e+04
   3.974377e+05   6.908656e+05
  -6.753712e+05   8.264067e+04
  -6.708972e+05  -1.006825e+06
   6.189949e+05  -1.361872e+06
   1.990212e+06  -4.580186e+05
   1.957827e+06   1.073756e+06
   3.637828e+05   2.007128e+06
  -1.351680e+06   1.601279e+06
  -1.664260e+06   2.694446e+05
  -5.622445e+05  -8.134575e+05
   6.076546e+05  -8.333668e+05
   7.238072e+05  -6.648669e+04
  -2.710298e+04   5.322000e+05
  -6.240193e+05   3.952888e+05
  -4.159348e+05  -1.061186e+05
   2.824158e+05  -1.739453e+05
   5.912515e+05   4.529426e+05
  -5.860046e+04   1.127247e+06
  -1.305458e+06   9.174834e+05
  -2.044682e+06  -3.843652e+05
  -1.424764e+06  -1.906306e+06
   2.249945e+05  -2.427375e+06
   1.620129e+06  -1.525788e+06
   1.803570e+06   2.052685e+04
   1.055328e+06   1.009427e+06
   3.857545e+05   9.549361e+05
   3.137687e+05   4.156614e+05
   4.209892e+05   2.445423e+05
   5.612459e+04   6.274579e+05
  -8.029782e+05   9.223854e+05
  -1.468279e+06   4.257145e+05
  -1.183523e+06  -7.483286e+05
   1.504852e+05  -1.605756e+06
   1.721299e+06  -1.177364e+06
   2.290348e+06   4.484929e+05
   1.212658e+06   2.045719e+06
  -8.548157e+05   2.321904e+06
  -2.400886e+06   1.119112e+06
  -2.396371e+06  -4.922738e+05
  -1.171251e+06  -1.313459e+06
   7.698583e+04  -1.127353e+06
   5.198551e+05  -6.881396e+05
   3.329806e+05  -7.297500e+05
   2.363764e+05  -1.140645e+06
   6.291520e+05  -1.153521e+06
   1.202855e+06  -2.685701e+05
   1.281584e+06   1.093847e+06
   5.208717e+05   1.890304e+06
  -6.468731e+05   1.421383e+06
  -1.289349e+06   2.439011e+04
  -8.412932e+05  -1.199135e+06
   2.719676e+05  -1.365094e+06
   1.008597e+06  -5.369352e+05
   7.770315e+05   4.728554e+05
   2.329896e+04   9.363272e+05
  -3.403450e+05   7.937336e+05
  -5.214574e+03   4.880161e+05
   3.924458e+05   3.786784e+05
   3.415203e+04   3.984902e+05
  -1.070423e+06   2.262555e+05
  -1.946028e+06  -3.012227e+05
  -1.593360e+06  -9.678205e+05
  -7.184360e+04  -1.327290e+06
   1.440364e+06  -1.077676e+06
   1.762460e+06  -3.519788e+05
   8.634664e+05   3.332047e+05
  -1.999886e+05   4.861989e+05
  -4.625872e+05   9.493317e+04
   2.309798e+04  -3.233785e+05
   4.925738e+05  -2.260009e+05
   4.560197e+05   3.460891e+05
   1.297864e+05   7.552491e+05
  -1.795439e+04   4.865845e+05
   1.481331e+05  -1.743024e+05
   3.666970e+05  -3.908509e+05
   2.942226e+05   2.184691e+05
  -2.033797e+05   1.019421e+06
  -8.942269e+05   1.029521e+06
  -1.217915e+06   8.358708e+04
  -7.025741e+05  -9.215457e+05
   4.232773e+05  -1.018829e+06
   1.175123e+06  -2.114309e+05
   7.069366e+05   6.126014e+05
  -6.713460e+05   6.623477e+05
  -1.628644e+06  -3.909626e+04
  -1.149040e+06  -8.305954e+05
   3.718504e+05  -1.075117e+06
   1.522887e+06  -6.316875e+05
   1.330319e+06   1.096893e+05
   1.911406e+05   5.394549e+05
  -6.341559e+05   3.192410e+05
  -3.430802e+05  -2.605785e+05
   6.421832e+05  -4.618094e+05
   1.170069e+06   1.760418e+05
   5.569935e+05   1.230638e+06
  -7.272319e+05   1.653656e+06
  -1.551618e+06   7.945834e+05
  -1.244451e+06  -8.148269e+05
  -1.688523e+05  -1.825679e+06
   7.578074e+05  -1.351833e+06
   9.476588e+05   1.163336e+05
   4.951440e+05   1.191470e+06
  -1.365526e+05   1.023681e+06
  -5.377315e+05   1.183088e+05
  -5.331377e+05  -3.988949e+05
  -2.382144e+05  -1.626259e+05
  -2.079292e+04   1.181427e+05
  -1.707977e+05  -2.505007e+05
  -4.626585e+05  -9.559171e+05
  -2.716354e+05  -1.102479e+06
   6.199839e+05  -4.051437e+05
   1.495213e+06   4.854567e+05
   1.364822e+06   8.536328e+05
   1.892243e+05   6.869238e+05
  -9.365035e+05   4.058582e+05
  -1.019550e+06   2.015119e+05
  -3.003261e+05  -1.484879e+04
   1.775901e+05  -2.181370e+05
  -4.781770e+04  -2.470293e+05
  -3.567547e+05  -1.456466e+05
  -1.392346e+04  -1.409317e+05
   7.657842e+05  -1.949297e+05
   1.040444e+06   5.571643e+04
   2.916995e+05   6.900498e+05
  -9.507095e+05   1.116539e+06
  -1.660619e+06   6.636612e+05
  -1.300706e+06  -5.101255e+05
  -2.169899e+05  -1.432625e+06
   7.713793e+05  -1.337571e+06
   1.062637e+06  -4.620627e+05
   6.675380e+05   2.933213e+05
   9.031060e+04   3.615653e+05
  -1.479450e+05   1.600452e+04
   5.252864e+04  -7.331393e+04
   3.346687e+05   3.474993e+05
   2.681470e+05   8.144589e+05
  -2.102006e+05   6.604994e+05
  -6.994064e+05  -1.906340e+05
  -6.752106e+05  -1.025491e+06
  -4.990948e+03  -1.030340e+06
   8.115908e+05  -1.569912e+05
   9.999847e+05   8.165558e+05
   2.755540e+05   1.096856e+06
  -7.431528e+05   6.069261e+05
  -1.081766e+06  -1.208482e+05
  -4.744002e+05  -5.714939e+05
   2.975290e+05  -6.021702e+05
   3.229874e+05  -3.428546e+05
  -3.201615e+05  -3.982831e+04
  -6.716174e+05   1.559512e+04
  -1.159194e+05  -2.986338e+05
   8.411373e+05  -6.749290e+05
   1.211308e+06  -5.696884e+05
   6.885121e+05   1.385099e+05
  -1.208862e+05   8.418759e+05
  -5.091857e+05   8.171027e+05
  -3.606254e+05   1.006306e+05
  -7.510753e+03  -5.120326e+05
   2.631348e+05  -3.938734e+05
   3.559833e+05   2.175755e+05
   2.332504e+05   5.870250e+05
  -8.023270e+04   3.701683e+05
  -3.893044e+05  -8.063199e+04
  -4.479534e+05  -2.476503e+05
  -2.395140e+05  -6.210729e+04
  -1.956058e+03   1.025622e+05
   7.822979e+04  -5.751675e+04
   8.198933e+04  -3.979703e+05
   1.879301e+05  -4.848148e+05
   3.675935e+05  -9.838447e+04
   3.699313e+05   4.675439e+05
   3.194494e+04   6.661712e+05
  -4.491551e+05   2.765650e+05
  -6.196075e+05  -3.375864e+05
  -2.108096e+05  -6.070668e+05
   4.982166e+05  -3.459831e+05
   8.471917e+05   1.240630e+05
   4.537387e+05   3.912367e+05
  -3.046809e+05   3.479949e+05
  -6.306771e+05   1.566485e+05
  -2.026609e+05   1.505157e+03
   4.191039e+05  -1.251422e+04
   4.365842e+05   1.420488e+05
  -2.300229e+05   3.320005e+05
  -8.439958e+05   2.563720e+05
