
 $NMID
 id='ANONYMOUS ', fmtdat='(2E16.6)'
 volume=1.0
 tramp=1.0
 $END
   1.781605e+07  -9.781393e+04
   1.239360e+07   8.010678e+06
   4.836421e+05   1.139447e+07
  -7.769254e+06   8.097682e+06
  -6.961054e+06   1.145936e+06
  -6.391289e+05  -3.395255e+06
   3.889319e+06  -1.928089e+06
   3.093587e+06   2.985041e+06
  -7.996552e+05   5.379376e+06
  -3.539341e+06   2.471957e+06
  -3.014928e+06  -2.427975e+06
  -3.208368e+05  -3.954612e+06
   1.811464e+06  -7.406741e+05
   1.388662e+06   3.405589e+06
  -1.141941e+06   3.977204e+06
  -3.170806e+06   4.548863e+05
  -2.385726e+06  -3.639828e+06
   7.761454e+05  -4.645813e+06
   3.480052e+06  -2.178692e+06
   3.475374e+06   1.092535e+06
   1.374619e+06   2.482245e+06
  -2.699563e+05   1.803787e+06
   1.398895e+05   9.905160e+05
   1.603804e+06   1.586882e+06
   1.705882e+06   2.997038e+06
  -7.031505e+05   3.324185e+06
  -4.000231e+06   1.637947e+06
  -5.111886e+06  -9.630167e+05
  -2.668483e+06  -2.494809e+06
   1.219408e+06  -1.954569e+06
   2.874947e+06  -3.983859e+04
   9.444375e+05   1.573594e+06
  -2.163326e+06   1.504892e+06
  -3.102551e+06  -3.090973e+05
  -1.289189e+06  -2.396189e+06
   9.221339e+05  -2.820649e+06
   1.358831e+06  -1.084954e+06
   2.845253e+05   1.045999e+06
  -5.791339e+05   1.237625e+06
  -2.735680e+05  -6.942360e+05
   7.441581e+05  -2.359501e+06
   1.510575e+06  -1.566865e+06
   1.366253e+06   9.402867e+05
   2.153264e+05   2.276740e+06
  -1.227498e+06   8.582685e+05
  -1.566488e+06  -1.736621e+06
   4.163948e+04  -2.649730e+06
   2.530683e+06  -9.157293e+05
   3.491166e+06   1.740664e+06
   1.644875e+06   2.946370e+06
  -1.539318e+06   1.942522e+06
  -3.206425e+06  -1.029806e+05
  -2.039861e+06  -1.454837e+06
   5.145013e+05  -1.270028e+06
   1.925771e+06  -8.000769e+04
   1.154924e+06   8.333218e+05
  -5.438574e+05   6.184680e+05
  -1.172999e+06  -3.800156e+05
  -1.354465e+05  -1.017503e+06
   1.208810e+06  -5.606993e+05
   1.110510e+06   5.437502e+05
  -5.316449e+05   1.131214e+06
  -1.923889e+06   4.633174e+05
  -1.311006e+06  -1.082607e+06
   1.036133e+06  -2.295892e+06
   3.072030e+06  -2.064652e+06
   3.157578e+06  -2.884312e+05
   1.622035e+06   1.916148e+06
   5.954574e+04   3.069644e+06
  -5.206834e+05   2.654532e+06
  -4.809091e+05   1.540891e+06
  -7.018485e+05   8.892214e+05
  -1.425573e+06   7.650921e+05
  -2.067289e+06   2.457178e+05
  -1.896619e+06  -1.068976e+06
  -7.419934e+05  -2.181376e+06
   8.021865e+05  -1.757586e+06
   1.710267e+06   1.498787e+05
   1.248718e+06   1.927091e+06
  -3.381524e+05   2.033085e+06
  -1.854190e+06   5.127406e+05
  -2.116665e+06  -1.236602e+06
  -1.053131e+06  -1.952084e+06
   2.616613e+05  -1.552141e+06
   7.844752e+05  -8.635651e+05
   6.262785e+05  -6.078080e+05
   7.932782e+05  -7.309268e+05
   1.790421e+06  -5.890923e+05
   2.751697e+06   3.123991e+05
   2.264111e+06   1.726450e+06
   7.110106e+04   2.744588e+06
  -2.328072e+06   2.515531e+06
  -3.029670e+06   1.022022e+06
  -1.639618e+06  -7.690649e+05
   3.510407e+05  -1.611087e+06
   1.128318e+06  -1.033998e+06
   3.173711e+05   1.927927e+05
  -8.915208e+05   7.657133e+05
  -1.172784e+06   1.743490e+05
  -3.787633e+05  -7.369580e+05
   5.243521e+05  -7.420499e+05
   5.602790e+05   2.416643e+05
  -3.304007e+05   9.144059e+05
  -1.287478e+06   9.718831e+04
  -1.285896e+06  -1.733850e+06
  -8.842524e+03  -2.783306e+06
   1.792472e+06  -1.846520e+06
   2.792761e+06   3.924260e+05
   2.181522e+06   2.103141e+06
   4.426289e+05   2.149250e+06
  -1.016110e+06   1.008739e+06
  -1.169661e+06   1.253711e+04
  -3.379673e+05  -4.413806e+04
   2.419114e+05   5.111658e+05
  -1.920229e+05   7.997868e+05
  -1.095142e+06   3.594698e+05
  -1.282514e+06  -4.388714e+05
  -3.519507e+05  -8.267868e+05
   7.595091e+05  -4.370804e+05
   7.667644e+05   3.153708e+05
  -4.894577e+05   6.243512e+05
  -1.746241e+06   6.493998e+04
  -1.596520e+06  -9.846448e+05
   1.092664e+04  -1.649586e+06
   1.676917e+06  -1.317495e+06
   1.963535e+06  -2.027790e+05
   7.970006e+05   7.891788e+05
  -5.706073e+05   8.550836e+05
  -8.781536e+05   7.413128e+04
  -2.256808e+04  -6.321213e+05
   1.008977e+06  -4.409160e+05
   1.187365e+06   4.751499e+05
   3.770559e+05   1.130737e+06
  -6.343318e+05   8.387215e+05
  -9.266152e+05  -2.416028e+04
  -3.208611e+05  -4.808458e+05
   4.444184e+05  -6.602889e+04
   4.409200e+05   7.011088e+05
  -4.659655e+05   9.271514e+05
  -1.397601e+06   2.659330e+05
  -1.336856e+06  -7.901289e+05
  -2.223411e+05  -1.399555e+06
   9.508465e+05  -1.101455e+06
   1.165249e+06  -1.842670e+05
   4.052893e+05   5.724572e+05
  -4.300653e+05   5.909041e+05
  -5.370893e+05   2.435709e+04
   1.565591e+04  -4.322872e+05
   5.005714e+05  -3.110997e+05
   3.729114e+05   1.184387e+05
  -1.751911e+05   2.045288e+05
  -4.489094e+05  -2.720042e+05
   1.236595e+04  -7.886670e+05
   9.150989e+05  -6.373961e+05
   1.426214e+06   2.937774e+05
   9.630994e+05   1.353465e+06
  -2.031550e+05   1.708308e+06
  -1.179589e+06   1.080548e+06
  -1.313570e+06  -2.452946e+04
  -7.744456e+05  -7.800499e+05
  -2.490653e+05  -7.742116e+05
  -1.492796e+05  -3.414349e+05
  -2.382691e+05  -1.416304e+05
  -3.021557e+04  -4.001204e+05
   5.623429e+05  -6.486765e+05
   1.056526e+06  -3.024083e+05
   8.578300e+05   5.669491e+05
  -1.172466e+05   1.180357e+06
  -1.242165e+06   8.309852e+05
  -1.622052e+06  -3.486863e+05
  -8.478878e+05  -1.453565e+06
   5.927648e+05  -1.622881e+06
   1.677707e+06  -7.861611e+05
   1.709002e+06   3.428710e+05
   8.687229e+05   9.573874e+05
  -5.151146e+04   8.579669e+05
  -4.320281e+05   5.168988e+05
  -3.198352e+05   4.795932e+05
  -2.107520e+05   7.397192e+05
  -4.395055e+05   7.664050e+05
  -8.215220e+05   1.618640e+05
  -8.668597e+05  -7.922013e+05
  -3.244079e+05  -1.337042e+06
   4.864229e+05  -9.839829e+05
   9.127679e+05  -2.685159e+03
   5.884812e+05   8.373808e+05
  -1.774683e+05   9.589308e+05
  -6.863383e+05   4.135063e+05
  -5.492810e+05  -2.774739e+05
  -5.577949e+04  -6.322268e+05
   1.966098e+05  -5.743687e+05
  -5.187849e+03  -3.723151e+05
  -2.539689e+05  -2.829059e+05
  -8.001328e+03  -2.836112e+05
   7.366059e+05  -1.525243e+05
   1.334317e+06   2.264966e+05
   1.105355e+06   6.871046e+05
   6.996601e+04   9.144894e+05
  -9.840034e+05   7.292120e+05
  -1.234529e+06   2.459682e+05
  -6.261197e+05  -2.044729e+05
   1.238891e+05  -3.199436e+05
   3.184778e+05  -8.144855e+04
  -2.954819e+04   1.935122e+05
  -3.633226e+05   1.363005e+05
  -3.071692e+05  -2.510714e+05
  -3.779424e+04  -5.332825e+05
   5.636286e+04  -3.346776e+05
  -1.178513e+05   1.431855e+05
  -3.003567e+05   2.908986e+05
  -2.101894e+05  -1.564455e+05
   1.831277e+05  -7.189791e+05
   6.432997e+05  -6.989446e+05
   8.073832e+05  -2.248885e+04
   4.324439e+05   6.503943e+05
  -3.078921e+05   6.728094e+05
  -7.950776e+05   9.692108e+04
  -4.753587e+05  -4.540344e+05
   4.766439e+05  -4.620694e+05
   1.164818e+06   4.229422e+04
   8.424842e+05   6.085436e+05
  -2.541091e+05   7.881335e+05
  -1.105906e+06   4.638339e+05
  -9.733573e+05  -8.418502e+04
  -1.407191e+05  -3.966545e+05
   4.522766e+05  -2.310836e+05
   2.274234e+05   1.751591e+05
  -4.728585e+05   2.893667e+05
  -8.077904e+05  -1.739372e+05
  -3.289069e+05  -8.816886e+05
   5.815066e+05  -1.122487e+06
   1.120126e+06  -4.954786e+05
   8.522145e+05   6.137586e+05
   7.170517e+04   1.296272e+06
  -5.689851e+05   9.552346e+05
  -6.783052e+05  -8.131647e+04
  -3.484638e+05  -8.537595e+05
   9.222819e+04  -7.444568e+05
   3.759662e+05  -8.752282e+04
   3.883540e+05   3.039121e+05
   1.871476e+05   1.344243e+05
   9.786958e+03  -9.319508e+04
   8.402263e+04   1.536013e+05
   2.941231e+05   6.730822e+05
   1.962681e+05   7.971609e+05
  -4.130693e+05   2.871642e+05
  -1.048709e+06  -3.773634e+05
  -9.723675e+05  -6.395241e+05
  -1.235044e+05  -4.834019e+05
   6.933941e+05  -2.557101e+05
   7.352539e+05  -1.264950e+05
   1.943644e+05  -3.432640e+03
  -1.391820e+05   1.444681e+05
   5.354450e+04   1.978279e+05
   2.747888e+05   1.361772e+05
  -6.319207e+03   9.817601e+04
  -5.742295e+05   9.783515e+04
  -7.240434e+05  -7.314451e+04
  -1.432547e+05  -4.751348e+05
   7.213083e+05  -7.347663e+05
   1.156797e+06  -4.075068e+05
   8.579162e+05   3.991296e+05
   1.024833e+05   1.014875e+06
  -5.648342e+05   9.124197e+05
  -7.523638e+05   2.765826e+05
  -4.617104e+05  -2.418219e+05
  -4.086769e+04  -2.523261e+05
   1.266828e+05   1.803474e+04
  -3.414025e+04   7.402359e+04
  -2.434662e+05  -2.469876e+05
  -1.804503e+05  -5.822706e+05
   1.692765e+05  -4.504082e+05
   4.871810e+05   1.746144e+05
   4.238709e+05   7.539520e+05
  -5.667385e+04   7.119052e+05
  -5.851893e+05   5.479182e+04
  -6.638434e+05  -6.249614e+05
  -1.448813e+05  -7.710377e+05
   5.373625e+05  -3.828662e+05
   7.393743e+05   1.186890e+05
   3.059767e+05   3.891589e+05
  -2.159967e+05   3.881848e+05
  -2.097203e+05   2.319643e+05
   2.481008e+05   5.388314e+04
   4.780627e+05   1.324782e+04
   6.534173e+04   2.051778e+05
  -6.096530e+05   4.553839e+05
  -8.478493e+05   3.941853e+05
  -4.581945e+05  -8.745132e+04
   1.071417e+05  -5.765230e+05
   3.529141e+05  -5.550006e+05
   2.239038e+05  -4.812071e+04
  -2.582618e+04   3.672918e+05
  -1.968826e+05   2.533300e+05
  -2.394490e+05  -1.870530e+05
  -1.436109e+05  -4.184596e+05
   6.746229e+04  -2.337466e+05
   2.673362e+05   7.774071e+04
   3.034038e+05   1.669475e+05
   1.700078e+05   3.483259e+04
   1.172413e+04  -4.969236e+04
  -6.601977e+04   7.800071e+04
  -1.064490e+05   2.843638e+05
  -1.868902e+05   2.961535e+05
  -2.650874e+05   1.023830e+04
  -2.067357e+05  -3.595829e+05
   4.075701e+04  -4.614868e+05
   3.324601e+05  -1.661833e+05
   4.047838e+05   2.666398e+05
   1.157099e+05   4.387453e+05
  -3.510257e+05   2.269510e+05
  -5.735661e+05  -1.184320e+05
  -2.998351e+05  -2.861343e+05
   2.190498e+05  -2.170314e+05
   4.346842e+05  -7.095250e+04
   1.218660e+05   3.877421e+03
  -3.167001e+05  -2.977409e+04
  -3.061723e+05  -1.424334e+05
   1.971949e+05  -2.374934e+05
   6.358426e+05  -1.458166e+05
