
 $NMID
 id='ANONYMOUS ', fmtdat='(2E16.6)'
 volume=1.0
 tramp=1.0
 $END
   4.864936e+07   3.359468e+06
   2.748949e+07   3.103921e+07
  -7.833232e+06   3.204457e+07
  -2.413151e+07   1.207517e+07
  -1.414146e+07  -5.793330e+06
   2.819701e+06  -7.883806e+06
   8.499020e+06   8.096965e+05
   2.546922e+06   8.399161e+06
  -5.338931e+06   8.416214e+06
  -8.476840e+06   1.799187e+06
  -5.976760e+06  -5.870532e+06
  -3.082565e+05  -7.889720e+06
   3.806929e+06  -2.136001e+06
   2.266438e+06   5.373846e+06
  -3.480754e+06   6.061295e+06
  -6.879720e+06  -1.283379e+06
  -3.582507e+06  -9.145675e+06
   3.767924e+06  -1.023694e+07
   9.157704e+06  -4.620857e+06
   9.270644e+06   2.564949e+06
   5.044274e+06   6.960463e+06
  -1.523157e+05   7.244614e+06
  -2.598063e+06   4.670652e+06
  -9.819479e+05   2.294880e+06
   1.454541e+06   2.594489e+06
  -1.341338e+05   4.348499e+06
  -5.671411e+06   3.736274e+06
  -9.148708e+06  -3.574101e+05
  -6.083496e+06  -4.347104e+06
   4.843417e+05  -4.609672e+06
   3.990642e+06  -1.879620e+06
   2.316909e+06   6.454633e+05
  -1.142624e+06   1.331919e+06
  -2.830839e+06   3.188123e+05
  -2.162892e+06  -1.972993e+06
  -1.070791e+05  -4.057054e+06
   2.062117e+06  -3.241369e+06
   2.621749e+06   6.775059e+05
   8.965985e+05   3.359971e+06
  -8.947271e+05   1.183821e+06
   1.222382e+04  -2.739355e+06
   2.444196e+06  -2.181459e+06
   2.118519e+06   2.837311e+06
  -2.106971e+06   5.191156e+06
  -5.696404e+06   5.674990e+05
  -3.955404e+06  -6.139816e+06
   1.975793e+06  -7.191518e+06
   6.608883e+06  -1.708630e+06
   6.197901e+06   4.273350e+06
   1.668924e+06   5.591026e+06
  -3.232076e+06   2.534352e+06
  -4.944794e+06  -1.389499e+06
  -2.343299e+06  -3.183467e+06
   2.091116e+06  -1.931310e+06
   3.995907e+06   9.048960e+05
   1.703655e+06   2.418644e+06
  -1.551457e+06   1.145189e+06
  -1.657667e+06  -9.632608e+05
   9.543222e+05  -9.198036e+05
   2.096040e+06   1.252978e+06
  -3.351720e+05   2.652972e+06
  -3.755053e+06   1.476105e+06
  -4.515685e+06  -1.167794e+06
  -1.946592e+06  -3.471511e+06
   1.984078e+06  -4.689765e+06
   5.081863e+06  -4.178174e+06
   5.883222e+06  -1.140399e+06
   3.899958e+06   3.300645e+06
   4.513072e+05   5.788914e+06
  -1.786120e+06   4.396522e+06
  -1.487106e+06   1.336078e+06
  -2.761028e+05   1.481571e+05
  -4.849006e+05   1.110500e+06
  -2.045681e+06   1.462995e+06
  -2.877762e+06  -2.699577e+05
  -1.796636e+06  -2.317137e+06
   2.964305e+05  -2.289089e+06
   1.788391e+06  -1.071118e+05
   1.671906e+06   2.275549e+06
  -2.025760e+05   2.945125e+06
  -2.828454e+06   1.340461e+06
  -4.105915e+06  -1.535774e+06
  -2.635679e+06  -3.704576e+06
   3.528934e+05  -3.752011e+06
   2.156733e+06  -2.224643e+06
   1.958206e+06  -9.294695e+05
   1.664829e+06  -6.713110e+05
   2.839804e+06  -4.498037e+05
   4.198921e+06   8.461471e+05
   3.314992e+06   2.815108e+06
  -2.022798e+04   4.077416e+06
  -3.371072e+06   3.725595e+06
  -4.307137e+06   1.838009e+06
  -2.602812e+06  -6.795747e+05
  -2.686130e+04  -2.298145e+06
   1.304535e+06  -1.818843e+06
   5.497835e+05   1.144599e+05
  -1.183648e+06   1.233979e+06
  -1.873492e+06   2.911477e+05
  -7.871860e+05  -1.219066e+06
   6.092700e+05  -1.098064e+06
   4.993236e+05   3.727390e+05
  -9.188800e+05   7.714128e+05
  -1.733857e+06  -1.018919e+06
  -7.521181e+05  -3.209409e+06
   1.303511e+06  -3.401713e+06
   2.961093e+06  -1.327849e+06
   3.367716e+06   1.315190e+06
   2.386652e+06   2.846276e+06
   4.309807e+05   2.719687e+06
  -1.338981e+06   1.428627e+06
  -1.618566e+06   1.329563e+05
  -4.906178e+05  -6.692029e+04
   3.293693e+05   7.605156e+05
  -4.382630e+05   1.276914e+06
  -1.856059e+06   4.826919e+05
  -1.948059e+06  -9.099127e+05
  -3.519914e+05  -1.373215e+06
   1.170439e+06  -5.394821e+05
   9.193474e+05   4.740048e+05
  -8.155883e+05   5.641372e+05
  -2.218553e+06  -2.897872e+05
  -1.818556e+06  -1.401391e+06
   2.463227e+05  -2.036170e+06
   2.375467e+06  -1.630559e+06
   2.793278e+06  -1.834403e+05
   1.151732e+06   1.283665e+06
  -9.641550e+05   1.407139e+06
  -1.507729e+06   1.028283e+05
  -1.190835e+05  -1.059834e+06
   1.534196e+06  -6.592898e+05
   1.684602e+06   8.219186e+05
   3.216775e+05   1.649088e+06
  -1.076937e+06   9.781017e+05
  -1.248454e+06  -2.939945e+05
  -2.592669e+05  -7.602400e+05
   7.631594e+05  -2.688437e+04
   6.759281e+05   1.075655e+06
  -6.507499e+05   1.390743e+06
  -2.037272e+06   4.393817e+05
  -1.981766e+06  -1.146325e+06
  -2.947944e+05  -2.080899e+06
   1.487569e+06  -1.577963e+06
   1.722620e+06  -1.582010e+05
   4.868039e+05   8.738037e+05
  -6.766586e+05   7.885772e+05
  -6.676588e+05   5.356552e+04
   9.748632e+04  -4.049118e+05
   5.332481e+05  -2.524187e+05
   2.109474e+05   6.940217e+04
  -3.855364e+05  -2.721521e+04
  -5.051110e+05  -6.265800e+05
   2.135535e+05  -1.159419e+06
   1.400671e+06  -8.472604e+05
   2.062737e+06   4.918747e+05
   1.381232e+06   2.001970e+06
  -3.158558e+05   2.426928e+06
  -1.675467e+06   1.390049e+06
  -1.722644e+06  -1.568017e+05
  -8.913272e+05  -9.603963e+05
  -3.276306e+05  -7.567560e+05
  -4.301016e+05  -3.066421e+05
  -5.515933e+05  -3.285789e+05
  -4.346188e+04  -7.318387e+05
   8.938752e+05  -8.728696e+05
   1.469355e+06  -2.988153e+05
   1.066476e+06   7.698035e+05
  -2.734780e+05   1.495544e+06
  -1.767764e+06   1.039726e+06
  -2.250191e+06  -5.629623e+05
  -1.076594e+06  -2.134951e+06
   1.064044e+06  -2.316292e+06
   2.548974e+06  -9.549463e+05
   2.341785e+06   7.036388e+05
   9.707285e+05   1.365390e+06
  -1.973692e+05   9.903336e+05
  -4.421210e+05   5.566450e+05
  -1.858374e+05   7.587839e+05
  -2.030682e+05   1.265812e+06
  -7.184731e+05   1.226118e+06
  -1.287733e+06   2.501091e+05
  -1.285778e+06  -1.144718e+06
  -4.744232e+05  -1.926029e+06
   6.892898e+05  -1.416394e+06
   1.291449e+06   4.459699e+04
   7.700877e+05   1.295064e+06
  -4.137333e+05   1.372414e+06
  -1.132030e+06   3.931226e+05
  -7.663301e+05  -6.677072e+05
   1.295607e+05  -1.027351e+06
   5.111423e+05  -7.584638e+05
   7.464114e+04  -4.321173e+05
  -4.123322e+05  -3.692295e+05
  -3.817657e+04  -3.933630e+05
   1.138763e+06  -1.665751e+05
   2.023971e+06   4.118502e+05
   1.573808e+06   1.086175e+06
  -6.752613e+04   1.403182e+06
  -1.601155e+06   1.057996e+06
  -1.827496e+06   2.255040e+05
  -8.189995e+05  -4.807935e+05
   2.710448e+05  -5.344013e+05
   4.981848e+05  -2.903476e+04
  -6.215422e+03   3.990925e+05
  -4.713567e+05   2.359626e+05
  -4.639362e+05  -3.649263e+05
  -1.935436e+05  -7.521177e+05
  -4.635035e+04  -4.933717e+05
  -1.407758e+05   1.127143e+05
  -3.114005e+05   3.148920e+05
  -2.717889e+05  -2.395363e+05
   1.961899e+05  -9.981290e+05
   9.453454e+05  -1.025904e+06
   1.340247e+06  -9.065596e+04
   7.804438e+05   9.616029e+05
  -4.695074e+05   1.096593e+06
  -1.261343e+06   2.523623e+05
  -7.106298e+05  -6.162147e+05
   7.218965e+05  -6.266692e+05
   1.600479e+06   1.409916e+05
   1.013513e+06   8.906037e+05
  -4.909551e+05   9.918896e+05
  -1.523142e+06   4.640242e+05
  -1.252812e+06  -2.135990e+05
  -1.309975e+05  -5.254880e+05
   6.566159e+05  -2.573788e+05
   3.626252e+05   3.041660e+05
  -6.258293e+05   4.912472e+05
  -1.189257e+06  -1.498961e+05
  -6.063780e+05  -1.231975e+06
   6.925253e+05  -1.687820e+06
   1.547684e+06  -8.188160e+05
   1.236759e+06   8.232233e+05
   1.311307e+05   1.820907e+06
  -7.946108e+05   1.289101e+06
  -9.259331e+05  -1.977994e+05
  -4.029024e+05  -1.211928e+06
   2.362217e+05  -9.736624e+05
   5.613244e+05  -6.903566e+04
   4.705306e+05   3.980582e+05
   1.769563e+05   1.450861e+05
   4.515953e+04  -9.724298e+04
   2.444770e+05   3.053797e+05
   4.660088e+05   9.928414e+05
   1.697516e+05   1.092648e+06
  -7.140451e+05   3.664221e+05
  -1.472928e+06  -5.266345e+05
  -1.275478e+06  -8.886241e+05
  -1.598921e+05  -7.077439e+05
   8.921252e+05  -3.933675e+05
   1.003396e+06  -1.526627e+05
   3.471913e+05   6.393261e+04
  -1.614709e+05   2.227728e+05
  -2.531442e+04   2.071922e+05
   2.834440e+05   1.076280e+05
   4.008989e+04   1.399148e+05
  -6.964296e+05   2.139553e+05
  -1.056344e+06  -5.750570e+04
  -3.869269e+05  -7.231349e+05
   9.133104e+05  -1.154374e+06
   1.740552e+06  -6.829575e+05
   1.394742e+06   5.063525e+05
   2.195945e+05   1.435659e+06
  -8.260478e+05   1.353171e+06
  -1.084912e+06   4.940739e+05
  -6.587607e+05  -2.659114e+05
  -1.157064e+05  -3.697608e+05
   8.880463e+04  -6.286090e+04
  -7.379884e+04   2.014591e+04
  -2.930451e+05  -3.758484e+05
  -2.236606e+05  -8.227751e+05
   2.105413e+05  -6.781111e+05
   6.904555e+05   1.537746e+05
   7.093019e+05   9.998377e+05
   6.653206e+04   1.052753e+06
  -7.825078e+05   2.173301e+05
  -1.022151e+06  -7.768168e+05
  -3.054630e+05  -1.117458e+06
   7.518362e+05  -6.525353e+05
   1.124609e+06   1.224933e+05
   5.044842e+05   6.357010e+05
  -3.203798e+05   6.656189e+05
  -3.906166e+05   3.501102e+05
   2.601171e+05   1.525982e+04
   6.607748e+05  -1.622569e+04
   1.328901e+05   3.171948e+05
  -8.580991e+05   6.565252e+05
  -1.280784e+06   4.998887e+05
  -7.510351e+05  -2.073693e+05
   1.322771e+05  -8.723042e+05
   5.851761e+05  -8.362678e+05
   4.331147e+05  -1.365313e+05
   3.569963e+04   4.923758e+05
  -2.621632e+05   4.286440e+05
  -3.564582e+05  -1.671725e+05
  -2.352710e+05  -5.936576e+05
   7.533797e+04  -4.258564e+05
   3.957293e+05   6.193399e+04
   4.645545e+05   2.984480e+05
   2.380179e+05   1.025176e+05
  -2.194790e+04  -1.511220e+05
  -7.285390e+04  -3.731036e+04
  -4.886083e+03   3.691657e+05
  -8.735142e+04   5.590602e+05
  -3.439329e+05   2.029226e+05
  -4.491549e+05  -4.135425e+05
  -1.268907e+05  -6.711010e+05
   4.292244e+05  -3.038707e+05
   6.620915e+05   3.130273e+05
   2.361785e+05   5.935880e+05
  -5.251434e+05   3.492188e+05
  -8.891878e+05  -1.128293e+05
  -4.697720e+05  -4.003410e+05
   3.152174e+05  -3.907657e+05
   6.579934e+05  -2.023822e+05
   2.511259e+05  -4.589094e+03
  -3.620102e+05   5.974044e+04
  -4.182719e+05  -8.106530e+04
   1.801780e+05  -2.967665e+05
   7.676112e+05  -2.571236e+05
