
 $NMID
 id='ANONYMOUS ', fmtdat='(2E16.6)'
 volume=1.0
 tramp=1.0
 $END
  -4.430472e+07  -9.691070e+05
  -2.666532e+07  -2.572509e+07
   4.725005e+06  -2.893621e+07
   2.075183e+07  -1.323345e+07
   1.348159e+07   3.227092e+06
  -1.546888e+06   7.307247e+06
  -7.864989e+06   5.725959e+05
  -3.507334e+06  -7.301101e+06
   3.853882e+06  -8.705009e+06
   7.659904e+06  -2.735778e+06
   6.016597e+06   5.194238e+06
   7.320072e+05   7.617981e+06
  -3.587694e+06   2.090326e+06
  -2.630530e+06  -5.390821e+06
   2.734858e+06  -6.380531e+06
   6.491762e+06   4.828062e+05
   4.048719e+06   8.231799e+06
  -2.752473e+06   9.770611e+06
  -8.201550e+06   4.723576e+06
  -8.580443e+06  -2.103989e+06
  -4.602956e+06  -6.208034e+06
   9.814712e+04  -6.262337e+06
   1.827264e+06  -3.905456e+06
  -1.113079e+05  -2.229781e+06
  -2.141476e+06  -3.078362e+06
   8.013636e+04  -4.791251e+06
   5.858300e+06  -3.910419e+06
   9.205286e+06   2.094238e+05
   5.968662e+06   4.116819e+06
  -7.230847e+05   4.445418e+06
  -4.264074e+06   1.708921e+06
  -2.319669e+06  -1.086971e+06
   1.645702e+06  -1.881990e+06
   3.512625e+06  -4.209681e+05
   2.431765e+06   2.400255e+06
  -4.558361e+04   4.376516e+06
  -2.049671e+06   3.039760e+06
  -2.203607e+06  -9.553381e+05
  -5.283818e+05  -3.136652e+06
   8.790041e+05  -6.119343e+05
  -9.766343e+04   3.166624e+06
  -2.342028e+06   2.465546e+06
  -2.263761e+06  -2.412346e+06
   1.290466e+06  -4.852288e+06
   4.731618e+06  -8.825748e+05
   3.792028e+06   5.239439e+06
  -1.279593e+06   6.550355e+06
  -5.987658e+06   1.901849e+06
  -6.332381e+06  -3.644599e+06
  -2.242579e+06  -5.320734e+06
   2.910213e+06  -2.888971e+06
   5.110736e+06   7.838430e+05
   2.777885e+06   2.823382e+06
  -1.676238e+06   2.039891e+06
  -3.825147e+06  -4.725711e+05
  -1.850842e+06  -2.070148e+06
   1.347041e+06  -1.174661e+06
   1.788453e+06   7.764273e+05
  -5.574215e+05   1.109200e+06
  -2.028647e+06  -5.873532e+05
  -2.634982e+05  -2.108267e+06
   2.946975e+06  -1.626141e+06
   4.171653e+06   5.074233e+05
   2.121411e+06   2.955820e+06
  -1.731631e+06   4.621630e+06
  -4.966744e+06   4.332468e+06
  -5.775574e+06   1.278013e+06
  -3.819629e+06  -3.171585e+06
  -6.505380e+05  -5.685047e+06
   1.317916e+06  -4.500339e+06
   1.169460e+06  -1.712612e+06
   4.143775e+05  -5.721341e+05
   9.087598e+05  -1.320916e+06
   2.423233e+06  -1.416938e+06
   3.104115e+06   4.847330e+05
   1.892242e+06   2.625193e+06
  -3.995356e+05   2.570174e+06
  -2.105295e+06   1.862816e+05
  -1.990248e+06  -2.427006e+06
   1.031194e+05  -3.133380e+06
   2.888784e+06  -1.408852e+06
   4.129948e+06   1.496678e+06
   2.621476e+06   3.542321e+06
  -2.419278e+05   3.522274e+06
  -1.887965e+06   2.115890e+06
  -1.686539e+06   1.014877e+06
  -1.522766e+06   8.948278e+05
  -2.853606e+06   7.654366e+05
  -4.380938e+06  -5.075536e+05
  -3.641535e+06  -2.648545e+06
  -2.803072e+05  -4.251470e+06
   3.304306e+06  -4.120797e+06
   4.459945e+06  -2.120539e+06
   2.748077e+06   6.888117e+05
   2.378728e+04   2.467210e+06
  -1.374109e+06   1.928771e+06
  -5.711142e+05  -1.406062e+05
   1.205198e+06  -1.347824e+06
   1.902315e+06  -4.057264e+05
   8.260290e+05   1.202941e+06
  -6.151419e+05   1.199497e+06
  -6.418842e+05  -3.294237e+05
   7.424602e+05  -1.005365e+06
   1.844521e+06   5.996306e+05
   1.285404e+06   3.033659e+06
  -7.027627e+05   3.754756e+06
  -2.815598e+06   1.970354e+06
  -3.777008e+06  -8.835289e+05
  -2.947427e+06  -2.836076e+06
  -7.278257e+05  -2.934325e+06
   1.350274e+06  -1.612268e+06
   1.724927e+06  -2.192865e+05
   5.198519e+05   3.676806e+04
  -4.019679e+05  -7.708393e+05
   3.373221e+05  -1.325326e+06
   1.837287e+06  -6.223677e+05
   2.062293e+06   7.527456e+05
   4.950858e+05   1.357147e+06
  -1.168211e+06   6.680300e+05
  -1.055136e+06  -4.186510e+05
   7.632628e+05  -7.425780e+05
   2.418245e+06   1.808664e+04
   2.157012e+06   1.323274e+06
  -2.753502e+04   2.247295e+06
  -2.385472e+06   1.961386e+06
  -2.933254e+06   4.162291e+05
  -1.287194e+06  -1.231376e+06
   8.922701e+05  -1.483642e+06
   1.508357e+06  -1.919373e+05
   1.588196e+05   1.070648e+06
  -1.550254e+06   7.841663e+05
  -1.827603e+06  -7.099529e+05
  -5.144053e+05  -1.693263e+06
   1.002964e+06  -1.159472e+06
   1.341584e+06   1.420358e+05
   3.795964e+05   7.484536e+05
  -7.610936e+05   9.077604e+04
  -7.678964e+05  -1.071982e+06
   6.026343e+05  -1.494950e+06
   2.114714e+06  -5.815747e+05
   2.148150e+06   1.076561e+06
   4.532027e+05   2.151564e+06
  -1.425405e+06   1.756231e+06
  -1.782860e+06   3.110392e+05
  -5.965000e+05  -8.660527e+05
   6.386493e+05  -8.906607e+05
   7.333468e+05  -1.031582e+05
  -3.684189e+04   4.937282e+05
  -5.872322e+05   3.752140e+05
  -3.332229e+05  -6.499471e+04
   3.436528e+05  -8.460252e+04
   5.996431e+05   5.445764e+05
  -8.946022e+04   1.214419e+06
  -1.388677e+06   1.002504e+06
  -2.199225e+06  -3.593048e+05
  -1.588227e+06  -2.000429e+06
   1.599998e+05  -2.586921e+06
   1.666515e+06  -1.629089e+06
   1.867344e+06   4.600781e+01
   1.083273e+06   9.839199e+05
   4.323799e+05   8.804344e+05
   4.231943e+05   3.657783e+05
   5.315868e+05   2.871173e+05
   8.384301e+04   7.213501e+05
  -8.528326e+05   9.923763e+05
  -1.533584e+06   4.595105e+05
  -1.230381e+06  -7.402214e+05
   1.401699e+05  -1.648091e+06
   1.787287e+06  -1.263967e+06
   2.430588e+06   4.167886e+05
   1.318686e+06   2.154161e+06
  -9.006805e+05   2.503252e+06
  -2.568745e+06   1.221188e+06
  -2.535241e+06  -5.119732e+05
  -1.199985e+06  -1.356567e+06
   8.596833e+04  -1.121379e+06
   4.684485e+05  -6.863007e+05
   2.324320e+05  -8.122277e+05
   1.740277e+05  -1.294757e+06
   6.580827e+05  -1.297164e+06
   1.310015e+06  -3.372563e+05
   1.420477e+06   1.121448e+06
   6.273204e+05   1.998169e+06
  -6.344752e+05   1.540024e+06
  -1.367344e+06   5.609826e+04
  -9.153170e+05  -1.280457e+06
   2.954967e+05  -1.464889e+06
   1.108290e+06  -5.405467e+05
   8.399985e+05   5.696534e+05
  -1.300758e+04   1.040630e+06
  -4.140359e+05   8.373973e+05
  -1.723185e+04   4.854797e+05
   4.482687e+05   3.760705e+05
   6.000269e+04   4.183636e+05
  -1.161341e+06   2.625310e+05
  -2.123535e+06  -2.793624e+05
  -1.729942e+06  -1.008257e+06
  -6.742137e+04  -1.445000e+06
   1.561452e+06  -1.206759e+06
   1.886170e+06  -3.955293e+05
   9.063959e+05   3.895280e+05
  -2.272465e+05   5.524155e+05
  -5.045694e+05   8.777241e+04
  -6.275780e+02  -3.873504e+05
   4.990809e+05  -2.722601e+05
   5.066227e+05   3.537585e+05
   2.140661e+05   7.944245e+05
   4.293539e+04   5.227427e+05
   1.424010e+05  -1.585394e+05
   3.356296e+05  -3.932119e+05
   3.110757e+05   2.273707e+05
  -1.566840e+05   1.081312e+06
  -9.227777e+05   1.137861e+06
  -1.357418e+06   1.554202e+05
  -8.381671e+05  -9.648931e+05
   4.224373e+05  -1.147019e+06
   1.285542e+06  -3.085266e+05
   7.852863e+05   6.146199e+05
  -7.048954e+05   7.179540e+05
  -1.713082e+06  -1.096680e+04
  -1.186900e+06  -8.510374e+05
   4.023014e+05  -1.111940e+06
   1.579462e+06  -6.579740e+05
   1.372445e+06   1.019109e+05
   1.983249e+05   5.533500e+05
  -6.674984e+05   3.376537e+05
  -3.882767e+05  -2.832178e+05
   6.485151e+05  -5.416063e+05
   1.263028e+06   1.099718e+05
   6.849412e+05   1.278533e+06
  -6.648094e+05   1.814471e+06
  -1.603056e+06   9.402860e+05
  -1.360250e+06  -8.030154e+05
  -2.558731e+05  -1.925682e+06
   7.514891e+05  -1.439700e+06
   9.983647e+05   1.180559e+05
   5.372320e+05   1.247943e+06
  -1.450628e+05   1.063931e+06
  -5.767683e+05   1.262615e+05
  -5.522550e+05  -3.931387e+05
  -2.276060e+05  -1.487658e+05
  -2.901302e+04   1.142709e+05
  -2.349677e+05  -2.892040e+05
  -5.434432e+05  -1.010928e+06
  -2.903533e+05  -1.148250e+06
   6.885476e+05  -4.395535e+05
   1.599980e+06   4.580281e+05
   1.443720e+06   8.509574e+05
   2.207522e+05   7.301895e+05
  -9.473045e+05   4.749204e+05
  -1.061500e+06   2.414202e+05
  -3.449039e+05  -2.824292e+04
   1.679342e+05  -2.440207e+05
  -2.374868e+04  -2.357376e+05
  -3.462122e+05  -1.125898e+05
  -3.709272e+04  -1.488661e+05
   7.640036e+05  -2.601275e+05
   1.116489e+06   4.787197e+03
   3.994097e+05   7.375908e+05
  -9.293730e+05   1.258309e+06
  -1.772783e+06   8.025931e+05
  -1.461079e+06  -4.718276e+05
  -3.084519e+05  -1.511075e+06
   7.783437e+05  -1.468931e+06
   1.116594e+06  -5.649753e+05
   7.200781e+05   2.600641e+05
   1.293595e+05   3.841764e+05
  -1.239853e+05   5.250283e+04
   6.265279e+04  -5.033754e+04
   3.499424e+05   3.660423e+05
   3.031364e+05   8.540750e+05
  -1.883870e+05   7.223971e+05
  -7.485282e+05  -1.440576e+05
  -7.914358e+05  -1.038923e+06
  -9.451551e+04  -1.107508e+06
   8.381841e+05  -2.446019e+05
   1.118623e+06   7.915369e+05
   3.676060e+05   1.161926e+06
  -7.623155e+05   7.095492e+05
  -1.178952e+06  -7.221159e+04
  -5.497984e+05  -6.180235e+05
   2.977955e+05  -6.903944e+05
   3.626959e+05  -3.839574e+05
  -3.087992e+05  -1.008673e+04
  -7.060962e+05   5.310341e+04
  -1.481878e+05  -3.216104e+05
   8.660079e+05  -7.508600e+05
   1.293039e+06  -6.289652e+05
   7.720207e+05   1.502014e+05
  -9.033324e+04   9.170931e+05
  -5.399253e+05   9.038767e+05
  -4.189314e+05   1.447657e+05
  -5.162502e+04  -5.327433e+05
   2.584540e+05  -4.517826e+05
   3.908989e+05   1.836329e+05
   2.800445e+05   6.144922e+05
  -6.379502e+04   4.286596e+05
  -4.216269e+05  -5.440660e+04
  -4.970705e+05  -2.678297e+05
  -2.559002e+05  -7.578066e+04
   1.581471e+04   1.367734e+05
   7.494699e+04  -1.210567e+04
   2.183353e+04  -4.123515e+05
   1.186585e+05  -5.685856e+05
   3.739142e+05  -1.833267e+05
   4.633903e+05   4.479192e+05
   1.227865e+05   7.103025e+05
  -4.514194e+05   3.334114e+05
  -7.002506e+05  -3.123312e+05
  -2.708398e+05  -6.261684e+05
   5.255951e+05  -3.952308e+05
   9.298854e+05   8.094100e+04
   5.114647e+05   3.965257e+05
  -3.116702e+05   4.095539e+05
  -6.774897e+05   2.251548e+05
  -2.423465e+05   1.313756e+04
   4.132264e+05  -6.344345e+04
   4.621128e+05   9.281967e+04
  -1.977076e+05   3.460543e+05
  -8.394328e+05   3.193823e+05
