
 $NMID
 id='ANONYMOUS ', fmtdat='(2E16.6)'
 volume=1.0
 tramp=1.0
 $END
   4.046000e+07  -2.057416e+06
   2.650084e+07   2.156159e+07
  -2.037232e+06   2.692726e+07
  -1.831699e+07   1.388667e+07
  -1.303955e+07  -1.900436e+06
   8.050494e+05  -6.990975e+06
   7.459186e+06  -1.192966e+06
   3.915488e+06   6.650545e+06
  -3.079801e+06   8.560003e+06
  -7.048407e+06   3.134036e+06
  -5.859739e+06  -4.471042e+06
  -1.044897e+06  -7.028434e+06
   3.175360e+06  -2.071849e+06
   2.631528e+06   4.969570e+06
  -2.269583e+06   6.194650e+06
  -6.111892e+06   4.601497e+03
  -4.288847e+06  -7.382394e+06
   1.919751e+06  -9.224424e+06
   7.226159e+06  -4.847151e+06
   7.918207e+06   1.402718e+06
   4.520579e+06   5.289513e+06
   3.743414e+05   5.568729e+06
  -1.202443e+06   3.701235e+06
   3.896970e+05   2.333158e+06
   2.043592e+06   3.041713e+06
  -4.927063e+04   4.489823e+06
  -5.337909e+06   3.731727e+06
  -8.491936e+06   8.557266e+04
  -5.630893e+06  -3.524984e+06
   5.330506e+05  -3.997889e+06
   3.862302e+06  -1.581528e+06
   2.034482e+06   1.012994e+06
  -1.702770e+06   1.735041e+06
  -3.363606e+06   3.143750e+05
  -2.226529e+06  -2.286837e+06
   3.692136e+04  -4.029248e+06
   1.733389e+06  -2.808052e+06
   1.889716e+06   7.489706e+05
   5.670958e+05   2.713759e+06
  -6.242471e+05   4.820068e+05
   1.345074e+05  -2.960592e+06
   2.134966e+06  -2.407737e+06
   2.290205e+06   2.105914e+06
  -7.922326e+05   4.647514e+06
  -4.214398e+06   1.275345e+06
  -3.846612e+06  -4.473388e+06
   6.709394e+05  -6.110414e+06
   5.366032e+06  -2.125393e+06
   6.107237e+06   3.074449e+06
   2.391697e+06   4.919171e+06
  -2.621875e+06   2.888229e+06
  -4.906317e+06  -5.029723e+05
  -2.809346e+06  -2.562002e+06
   1.429733e+06  -2.056012e+06
   3.608168e+06   1.928281e+05
   1.881611e+06   1.820216e+06
  -1.170071e+06   1.179215e+06
  -1.738720e+06  -6.616524e+05
   4.566222e+05  -1.180811e+06
   2.050312e+06   3.343770e+05
   5.694709e+05   1.989365e+06
  -2.541368e+06   1.830001e+06
  -3.956103e+06  -1.237293e+05
  -2.205652e+06  -2.598202e+06
   1.387315e+06  -4.340132e+06
   4.447185e+06  -4.171197e+06
   5.271850e+06  -1.391782e+06
   3.610319e+06   2.749049e+06
   8.252251e+05   5.225722e+06
  -1.019652e+06   4.311680e+06
  -1.068913e+06   1.762216e+06
  -5.089005e+05   5.760268e+05
  -9.331961e+05   1.155984e+06
  -2.236613e+06   1.253100e+06
  -2.839796e+06  -4.583634e+05
  -1.741059e+06  -2.435631e+06
   3.902555e+05  -2.391059e+06
   2.006064e+06  -1.579307e+05
   1.911540e+06   2.284247e+06
  -3.827621e+04   2.937525e+06
  -2.636806e+06   1.369874e+06
  -3.841808e+06  -1.252126e+06
  -2.545369e+06  -3.135405e+06
   3.574271e+04  -3.221003e+06
   1.587654e+06  -2.046480e+06
   1.488282e+06  -1.069617e+06
   1.404749e+06  -9.451608e+05
   2.682642e+06  -8.389484e+05
   4.156378e+06   3.260642e+05
   3.519888e+06   2.381607e+06
   3.870290e+05   4.003468e+06
  -3.006395e+06   3.962887e+06
  -4.132817e+06   2.081012e+06
  -2.562543e+06  -5.946059e+05
  -4.487021e+04  -2.290810e+06
   1.247918e+06  -1.808111e+06
   5.247714e+05   1.232063e+05
  -1.101101e+06   1.285404e+06
  -1.769164e+06   4.405529e+05
  -8.037278e+05  -1.086386e+06
   5.587958e+05  -1.135137e+06
   6.374690e+05   3.144847e+05
  -6.826809e+05   1.036666e+06
  -1.845214e+06  -4.468578e+05
  -1.415057e+06  -2.857871e+06
   5.209611e+05  -3.695273e+06
   2.675092e+06  -2.048381e+06
   3.683676e+06   7.343026e+05
   2.890334e+06   2.669081e+06
   7.468941e+05   2.790971e+06
  -1.244449e+06   1.547006e+06
  -1.618454e+06   2.366496e+05
  -4.913597e+05  -2.146184e+04
   4.015290e+05   7.167680e+05
  -2.649174e+05   1.261419e+06
  -1.700745e+06   6.551504e+05
  -1.977165e+06  -6.322014e+05
  -5.250153e+05  -1.266439e+06
   1.086243e+06  -6.714744e+05
   1.020377e+06   3.799310e+05
  -7.169944e+05   7.505154e+05
  -2.329075e+06   4.884025e+04
  -2.099901e+06  -1.229840e+06
  -2.188199e+04  -2.160609e+06
   2.223361e+06  -1.925175e+06
   2.767019e+06  -4.703620e+05
   1.255102e+06   1.119384e+06
  -7.825973e+05   1.419754e+06
  -1.401709e+06   2.360374e+05
  -1.811694e+05  -9.895966e+05
   1.435553e+06  -7.824344e+05
   1.753375e+06   6.165301e+05
   5.443877e+05   1.599028e+06
  -9.222635e+05   1.146678e+06
  -1.293814e+06  -8.841105e+04
  -3.961715e+05  -7.063255e+05
   7.114988e+05  -1.184177e+05
   7.527038e+05   9.841262e+05
  -5.286120e+05   1.419450e+06
  -1.974369e+06   5.987116e+05
  -2.049547e+06  -9.576796e+05
  -4.872038e+05  -2.015636e+06
   1.293558e+06  -1.701044e+06
   1.678941e+06  -3.481981e+05
   5.948061e+05   8.058623e+05
  -5.806929e+05   8.648350e+05
  -6.956114e+05   1.070245e+05
   3.218831e+04  -4.871003e+05
   5.712562e+05  -3.690808e+05
   3.315945e+05   8.287797e+04
  -3.351987e+05   1.200145e+05
  -6.052599e+05  -4.923706e+05
   3.911547e+04  -1.159666e+06
   1.284223e+06  -9.905546e+05
   2.087456e+06   2.791402e+05
   1.551632e+06   1.844389e+06
  -8.781062e+04   2.448245e+06
  -1.545311e+06   1.588027e+06
  -1.782101e+06   4.257605e+04
  -1.050420e+06  -9.289881e+05
  -4.063738e+05  -8.475372e+05
  -3.798291e+05  -3.325450e+05
  -5.023928e+05  -2.341897e+05
  -1.075878e+05  -6.672461e+05
   7.785012e+05  -9.670522e+05
   1.448351e+06  -4.768826e+05
   1.187056e+06   6.831688e+05
  -9.878688e+04   1.579609e+06
  -1.667148e+06   1.245694e+06
  -2.313183e+06  -3.349439e+05
  -1.310255e+06  -2.006570e+06
   7.742537e+05  -2.399823e+06
   2.396011e+06  -1.237347e+06
   2.427486e+06   4.138986e+05
   1.184426e+06   1.270798e+06
  -6.197272e+04   1.085991e+06
  -4.509406e+05   6.595119e+05
  -2.138570e+05   7.477121e+05
  -1.251946e+05   1.204424e+06
  -5.740974e+05   1.237289e+06
  -1.218826e+06   3.566735e+05
  -1.365274e+06  -1.019874e+06
  -6.406640e+05  -1.868846e+06
   5.612771e+05  -1.467693e+06
   1.293494e+06  -8.859315e+04
   9.068438e+05   1.184330e+06
  -2.319334e+05   1.400891e+06
  -1.036145e+06   5.617769e+05
  -8.270360e+05  -4.992928e+05
  -3.655996e+04  -9.883970e+05
   3.584645e+05  -8.210665e+05
   5.748276e+03  -4.716213e+05
  -4.260119e+05  -3.431988e+05
  -6.383389e+04  -3.923237e+05
   1.087166e+06  -2.854233e+05
   2.008602e+06   1.979153e+05
   1.664755e+06   9.027486e+05
   1.173989e+05   1.367030e+06
  -1.429403e+06   1.189259e+06
  -1.775037e+06   4.323612e+05
  -8.836730e+05  -3.375823e+05
   1.889746e+05  -5.279394e+05
   4.771700e+05  -1.042645e+05
   1.586827e+04   3.542448e+05
  -4.651357e+05   2.625673e+05
  -4.853034e+05  -3.195764e+05
  -2.103642e+05  -7.355205e+05
  -4.506376e+04  -4.823052e+05
  -1.390758e+05   1.576058e+05
  -3.227463e+05   3.780139e+05
  -3.020086e+05  -2.078999e+05
   1.287013e+05  -1.021562e+06
   8.395642e+05  -1.095852e+06
   1.259638e+06  -1.883482e+05
   8.048261e+05   8.765937e+05
  -3.593647e+05   1.085034e+06
  -1.188789e+06   3.227654e+05
  -7.513700e+05  -5.613284e+05
   6.474867e+05  -6.998589e+05
   1.627376e+06  -3.209100e+04
   1.155782e+06   7.866130e+05
  -3.533009e+05   1.077778e+06
  -1.493000e+06   6.692152e+05
  -1.314236e+06  -6.618589e+04
  -2.026262e+05  -5.253872e+05
   6.262263e+05  -3.407738e+05
   3.744114e+05   2.513389e+05
  -5.970283e+05   5.176731e+05
  -1.185170e+06  -7.792774e+04
  -6.654796e+05  -1.182517e+06
   5.877820e+05  -1.712714e+06
   1.486344e+06  -9.143323e+05
   1.297990e+06   7.277107e+05
   2.835460e+05   1.811564e+06
  -6.812951e+05   1.381027e+06
  -9.539530e+05  -8.457200e+04
  -5.433553e+05  -1.172113e+06
   1.100707e+05  -1.021444e+06
   5.434562e+05  -1.388044e+05
   5.341886e+05   3.662541e+05
   2.216179e+05   1.446479e+05
   2.493219e+04  -1.133666e+05
   2.258358e+05   2.522943e+05
   5.361834e+05   9.355531e+05
   3.064297e+05   1.087911e+06
  -6.334435e+05   4.433615e+05
  -1.522070e+06  -3.964756e+05
  -1.389501e+06  -7.782404e+05
  -2.282883e+05  -6.837684e+05
   8.877856e+05  -4.620325e+05
   1.001406e+06  -2.520915e+05
   3.260392e+05   8.501755e+03
  -1.541804e+05   2.305695e+05
   3.005955e+04   2.345652e+05
   3.311540e+05   1.118592e+05
   3.502648e+04   1.360983e+05
  -7.184694e+05   2.497832e+05
  -1.048941e+06   2.054651e+04
  -3.847151e+05  -6.704538e+05
   8.479201e+05  -1.194175e+06
   1.640410e+06  -7.991074e+05
   1.373632e+06   4.028403e+05
   3.211833e+05   1.414599e+06
  -6.943646e+05   1.402844e+06
  -1.032490e+06   5.536531e+05
  -6.802754e+05  -2.338771e+05
  -1.278686e+05  -3.547062e+05
   1.161186e+05  -3.963235e+04
  -6.215301e+04   5.694509e+04
  -3.446504e+05  -3.392334e+05
  -3.085160e+05  -8.018118e+05
   1.601669e+05  -6.816460e+05
   7.035718e+05   1.251800e+05
   7.590772e+05   9.597188e+05
   1.077726e+05   1.030040e+06
  -7.792598e+05   2.372483e+05
  -1.061327e+06  -7.233089e+05
  -3.689269e+05  -1.079699e+06
   6.961021e+05  -6.792785e+05
   1.106170e+06   3.835621e+04
   5.345305e+05   5.595233e+05
  -2.557284e+05   6.515541e+05
  -3.251382e+05   3.761924e+05
   2.941581e+05   1.323505e+04
   6.642450e+05  -6.298813e+04
   1.464294e+05   2.954478e+05
  -7.997879e+05   7.281794e+05
  -1.204699e+06   6.342207e+05
  -7.311245e+05  -1.104369e+05
   6.125180e+04  -8.627752e+05
   4.789386e+05  -8.686676e+05
   3.789539e+05  -1.497970e+05
   5.401159e+04   4.987824e+05
  -2.297373e+05   4.264391e+05
  -3.652516e+05  -1.701255e+05
  -2.766242e+05  -5.714007e+05
   4.493014e+04  -3.979904e+05
   3.947900e+05   4.376868e+04
   4.775817e+05   2.342989e+05
   2.474199e+05   6.191086e+04
  -2.108592e+04  -1.201878e+05
  -8.248943e+04   2.244700e+04
  -2.391443e+04   3.820008e+05
  -1.016786e+05   5.170165e+05
  -3.377284e+05   1.659860e+05
  -4.299724e+05  -4.079840e+05
  -1.204502e+05  -6.535268e+05
   4.166437e+05  -3.175094e+05
   6.575697e+05   2.769209e+05
   2.632230e+05   5.818511e+05
  -4.830744e+05   3.855257e+05
  -8.705636e+05  -5.315613e+04
  -4.886883e+05  -3.596195e+05
   2.784403e+05  -3.883913e+05
   6.242232e+05  -2.241411e+05
   2.221606e+05  -2.292206e+04
  -3.877941e+05   5.609130e+04
  -4.311478e+05  -8.665682e+04
   1.885843e+05  -3.272887e+05
   7.913003e+05  -3.082008e+05
