
 $NMID
 id='ANONYMOUS ', fmtdat='(2E16.6)'
 volume=1.0
 tramp=1.0
 $END
  -4.870228e+03   1.087160e+01
  -2.771187e+03  -3.010397e+03
   9.751858e+02  -3.084168e+03
   2.459745e+03  -8.353561e+02
   9.955019e+02   9.267877e+02
  -8.791364e+02   7.073281e+02
  -1.074741e+03  -5.523361e+02
   3.169483e+01  -1.263204e+03
   9.806274e+02  -8.710674e+02
   1.067335e+03   1.572542e+02
   4.730909e+02   1.008822e+03
  -3.277932e+02   1.001302e+03
  -7.627125e+02   9.793549e+01
  -4.374901e+02  -8.432502e+02
   3.315744e+02  -8.450877e+02
   6.962674e+02   3.482842e+01
   2.765931e+02   7.753192e+02
  -3.999671e+02   6.719456e+02
  -6.487253e+02   4.430814e+01
  -3.929606e+02  -4.214197e+02
   1.551833e+01  -4.817586e+02
   2.884473e+02  -2.814924e+02
   2.612931e+02  -1.095168e+00
  -1.026450e+02   1.375796e+02
  -4.624478e+02  -7.820666e+01
  -2.635088e+02  -4.731463e+02
   4.835547e+02  -4.972638e+02
   9.588348e+02   5.361887e+01
   5.067033e+02   6.295697e+02
  -4.340620e+02   5.826313e+02
  -8.502127e+02  -1.480644e+01
  -4.061619e+02  -5.412194e+02
   3.049260e+02  -5.900184e+02
   6.280673e+02  -2.305156e+02
   4.641033e+02   2.599968e+02
   7.030973e+01   5.450840e+02
  -2.545156e+02   3.268708e+02
  -2.357858e+02  -2.622055e+02
   1.711117e+02  -5.336110e+02
   5.340054e+02  -1.187484e+01
   3.170099e+02   7.693885e+02
  -3.561856e+02   8.106219e+02
  -7.122971e+02   5.488958e+00
  -3.109864e+02  -6.489469e+02
   3.448838e+02  -3.852982e+02
   4.624540e+02   3.556198e+02
  -5.970746e+01   6.195030e+02
  -6.150399e+02   1.648338e+02
  -6.561552e+02  -4.393305e+02
  -1.773639e+02  -6.425308e+02
   4.260236e+02  -3.863157e+02
   6.942768e+02   8.167332e+01
   4.049429e+02   4.417548e+02
  -1.907820e+02   4.230565e+02
  -5.105207e+02   5.205110e+01
  -2.636791e+02  -2.527631e+02
   1.589078e+02  -1.373440e+02
   1.789334e+02   1.906408e+02
  -1.909039e+02   2.335896e+02
  -4.004688e+02  -8.473401e+01
  -1.550108e+02  -3.464367e+02
   2.312853e+02  -2.772124e+02
   3.472212e+02  -5.725292e+01
   1.857007e+02   8.872891e+01
  -3.057210e+01   2.061184e+02
  -2.103994e+02   3.273967e+02
  -3.433926e+02   2.454168e+02
  -3.222113e+02  -1.335863e+02
  -9.456349e+01  -4.795136e+02
   1.418769e+02  -4.256585e+02
   1.570527e+02  -1.044880e+02
   2.623222e+01   4.550818e+01
   1.757364e+01  -8.117214e+01
   1.861199e+02  -1.582035e+02
   3.030092e+02   3.273563e+01
   1.899660e+02   2.857294e+02
  -6.533008e+01   2.894116e+02
  -2.494933e+02   2.890747e+01
  -2.280906e+02  -2.499117e+02
  -2.955580e+00  -3.229131e+02
   2.842306e+02  -1.408154e+02
   3.959463e+02   1.713086e+02
   2.046511e+02   3.834652e+02
  -1.161252e+02   3.365196e+02
  -2.567198e+02   1.201943e+02
  -1.612922e+02  -1.579096e+01
  -8.999417e+01   2.561767e+01
  -2.300257e+02   7.578475e+01
  -4.149860e+02  -4.669103e+01
  -3.518612e+02  -2.919486e+02
  -6.801906e+00  -4.636480e+02
   3.670518e+02  -4.378507e+02
   5.116461e+02  -2.206802e+02
   3.674620e+02   9.270245e+01
   7.030278e+01   3.205491e+02
  -1.453261e+02   2.838627e+02
  -1.074565e+02   3.067447e+01
   1.113827e+02  -1.342940e+02
   2.264807e+02  -5.697698e+00
   6.808143e+01   2.222317e+02
  -1.816895e+02   2.036144e+02
  -2.108999e+02  -6.416319e+01
   1.269091e+01  -2.223717e+02
   2.141266e+02  -4.632565e+01
   1.767043e+02   2.630400e+02
  -3.540247e+01   3.682652e+02
  -2.372602e+02   1.965777e+02
  -3.301512e+02  -6.591280e+01
  -2.888164e+02  -2.398487e+02
  -1.104060e+02  -2.700200e+02
   1.123065e+02  -1.740880e+02
   1.942031e+02  -2.813137e+01
   6.998927e+01   3.904555e+01
  -7.884673e+01  -3.230423e+01
  -4.266465e+01  -1.339779e+02
   1.286933e+02  -1.161731e+02
   1.975060e+02   7.049358e+00
   7.078500e+01   8.115010e+01
  -8.219571e+01   2.744698e+01
  -6.314264e+01  -6.872989e+01
   1.192996e+02  -8.959613e+01
   2.853904e+02  -7.501738e+00
   2.754584e+02   1.335129e+02
   7.466076e+01   2.612568e+02
  -1.819392e+02   2.815365e+02
  -2.998806e+02   1.440994e+02
  -1.896622e+02  -5.424713e+01
   2.239177e+01  -1.258318e+02
   1.043239e+02  -1.450061e+01
  -2.582839e+01   1.133461e+02
  -2.073647e+02   7.280837e+01
  -2.327141e+02  -1.046618e+02
  -7.901106e+01  -2.238862e+02
   9.932669e+01  -1.740555e+02
   1.570875e+02  -3.603245e+01
   8.299399e+01   4.453377e+01
  -2.309444e+01   1.194589e+01
  -4.250111e+01  -7.585531e+01
   6.396982e+01  -1.148639e+02
   1.997020e+02  -3.713038e+01
   2.030660e+02   1.220747e+02
   2.804492e+01   2.300257e+02
  -1.733420e+02   1.776562e+02
  -2.101889e+02   6.656567e+00
  -7.330385e+01  -1.266594e+02
   7.065851e+01  -1.235390e+02
   9.193128e+01  -3.512125e+01
   2.608719e+01   2.723910e+01
  -1.625746e+01   2.296223e+01
   1.054562e+01  -1.745415e+00
   6.662882e+01   1.263033e+01
   8.501657e+01   8.039603e+01
   1.796873e+01   1.564019e+02
  -1.227370e+02   1.576468e+02
  -2.390920e+02   3.454961e+01
  -2.137469e+02  -1.500224e+02
  -4.750340e+01  -2.492070e+02
   1.147598e+02  -1.815565e+02
   1.439479e+02  -2.801808e+01
   7.281125e+01   6.186710e+01
   2.803640e+01   3.980708e+01
   5.439374e+01  -1.202334e+01
   7.945638e+01  -6.760612e+00
   3.797697e+01   4.834378e+01
  -4.416944e+01   8.399135e+01
  -9.769040e+01   5.264804e+01
  -8.010117e+01  -3.264372e+01
   1.163059e+01  -1.062855e+02
   1.367961e+02  -8.789412e+01
   2.002504e+02   4.501345e+01
   1.115660e+02   2.022338e+02
  -1.003395e+02   2.397628e+02
  -2.749544e+02   1.077873e+02
  -2.728429e+02  -8.480109e+01
  -1.197092e+02  -1.853327e+02
   3.841765e+01  -1.568057e+02
   9.986743e+01  -8.976980e+01
   8.559122e+01  -7.251832e+01
   7.186847e+01  -9.318997e+01
   9.587972e+01  -7.508752e+01
   1.313414e+02   2.353140e+01
   1.218759e+02   1.586133e+02
   3.331670e+01   2.337749e+02
  -1.002215e+02   1.811189e+02
  -1.835277e+02   2.616080e+01
  -1.458945e+02  -1.229408e+02
  -2.484123e+01  -1.664316e+02
   6.594229e+01  -1.004220e+02
   6.122494e+01  -6.609695e+00
   8.486102e+00   3.997734e+01
  -4.645661e+00   3.518329e+01
   4.069302e+01   2.095942e+01
   7.991722e+01   2.490566e+01
   4.431778e+01   3.847699e+01
  -6.201666e+01   3.720243e+01
  -1.568790e+02   5.704945e+00
  -1.475035e+02  -4.752492e+01
  -2.219567e+01  -8.772107e+01
   1.187708e+02  -7.727791e+01
   1.495149e+02  -1.774540e+01
   5.179587e+01   3.849768e+01
  -6.188424e+01   3.666419e+01
  -7.753089e+01  -1.949227e+01
  -4.246019e+00  -6.851350e+01
   6.062025e+01  -5.704597e+01
   6.332696e+01   3.477498e+00
   4.076396e+01   5.116316e+01
   4.329923e+01   4.238787e+01
   6.534567e+01   2.282956e+00
   6.858606e+01   1.930628e-01
   3.323735e+01   6.770516e+01
  -3.520097e+01   1.474122e+02
  -1.156295e+02   1.440733e+02
  -1.627923e+02   3.488940e+01
  -1.245352e+02  -9.169412e+01
  -9.062952e+00  -1.271957e+02
   8.570933e+01  -6.089957e+01
   6.087179e+01   1.667519e+01
  -6.112673e+01   2.074371e+01
  -1.432157e+02  -4.473859e+01
  -8.082499e+01  -1.105517e+02
   8.135132e+01  -1.175356e+02
   1.972870e+02  -5.764957e+01
   1.702440e+02   3.127972e+01
   4.149352e+01   8.976915e+01
  -6.121815e+01   7.615196e+01
  -5.074748e+01   1.099309e+01
   3.918584e+01  -2.641231e+01
   9.252092e+01   2.379989e+01
   3.196633e+01   1.230821e+02
  -9.777968e+01   1.585780e+02
  -1.756259e+02   6.189097e+01
  -1.309436e+02  -1.063475e+02
  -9.296191e+00  -2.053931e+02
   8.874603e+01  -1.503106e+02
   1.081483e+02   4.631011e+00
   6.526184e+01   1.204340e+02
   2.864613e+00   1.112540e+02
  -4.508983e+01   2.313864e+01
  -5.622919e+01  -3.154394e+01
  -3.008806e+01  -9.249245e+00
  -3.260308e+00   2.236522e+01
  -1.777262e+01  -1.311556e+01
  -5.705255e+01  -9.040331e+01
  -4.746193e+01  -1.142593e+02
   4.480564e+01  -4.791953e+01
   1.436275e+02   4.100265e+01
   1.368536e+02   7.334125e+01
   1.802704e+01   4.987323e+01
  -9.327498e+01   2.174881e+01
  -9.178582e+01   8.925761e+00
  -8.828363e+00  -5.950304e+00
   4.121094e+01  -2.345515e+01
   1.259253e+01  -2.080545e+01
  -2.440921e+01   6.692927e-01
   6.942681e+00   1.065704e+01
   7.929459e+01   5.808480e+00
   9.365236e+01   2.529017e+01
   3.841583e+00   8.223348e+01
  -1.260377e+02   1.159745e+02
  -1.898516e+02   5.710510e+01
  -1.414954e+02  -7.258926e+01
  -2.398876e+01  -1.676036e+02
   8.072855e+01  -1.521146e+02
   1.164568e+02  -5.746275e+01
   8.288570e+01   2.308241e+01
   2.500880e+01   3.542426e+01
  -5.069792e+00   7.306346e+00
   9.151054e+00   2.513091e+00
   3.512562e+01   4.566863e+01
   2.522576e+01   9.211563e+01
  -2.999841e+01   7.355837e+01
  -8.439168e+01  -2.043210e+01
  -7.800281e+01  -1.139188e+02
  -5.632769e-01  -1.159965e+02
   8.745656e+01  -2.122838e+01
   1.047429e+02   8.162914e+01
   2.973707e+01   1.065781e+02
  -6.932887e+01   5.375541e+01
  -9.824774e+01  -1.395897e+01
  -3.769415e+01  -4.928454e+01
   3.315855e+01  -4.943823e+01
   2.888865e+01  -2.849644e+01
  -3.789458e+01  -1.602323e+00
  -7.157412e+01   5.928366e+00
  -1.398877e+01  -2.498587e+01
   8.172168e+01  -6.784497e+01
   1.167373e+02  -6.206043e+01
   6.275250e+01   1.049622e+01
  -1.719675e+01   8.444407e+01
  -5.268407e+01   8.000615e+01
  -3.503939e+01   3.043845e+00
   7.320555e-01  -5.872531e+01
   2.732193e+01  -4.194057e+01
   3.717849e+01   2.184980e+01
   2.635881e+01   5.557848e+01
  -3.763127e+00   3.112782e+01
  -3.387889e+01  -1.015815e+01
  -3.979515e+01  -2.009717e+01
  -2.103324e+01   2.216789e-01
  -4.747665e-01   1.241184e+01
   7.026260e+00  -7.217226e+00
   1.062335e+01  -3.926153e+01
   2.267016e+01  -4.301354e+01
   3.509739e+01  -2.654375e+00
   2.708688e+01   4.996801e+01
  -7.719742e+00   6.302964e+01
  -4.745988e+01   1.906361e+01
  -5.557670e+01  -4.279573e+01
  -1.276152e+01  -6.582559e+01
   5.568105e+01  -3.388657e+01
   8.942731e+01   1.768289e+01
   4.950039e+01   4.569052e+01
  -2.980705e+01   3.990872e+01
  -6.637179e+01   1.915991e+01
  -2.314351e+01   4.061233e+00
   4.144205e+01   4.403931e+00
   4.020979e+01   1.964813e+01
  -3.435041e+01   3.410149e+01
  -9.835843e+01   1.943761e+01
