
 $NMID
 id='ANONYMOUS ', fmtdat='(2E16.6)'
 volume=1.0
 tramp=1.0
 $END
   4.534257e+03  -5.679125e+01
   2.662886e+03   2.721989e+03
  -7.726160e+02   2.890908e+03
  -2.229119e+03   9.173515e+02
  -9.929517e+02  -7.277846e+02
   7.104005e+02  -6.341794e+02
   9.562684e+02   4.564067e+02
  -1.524850e-01   1.132360e+03
  -8.721321e+02   8.248288e+02
  -9.883624e+02  -1.037499e+02
  -4.721804e+02  -9.106268e+02
   2.589646e+02  -9.366733e+02
   6.790334e+02  -1.214043e+02
   4.117500e+02   7.572666e+02
  -2.827206e+02   7.891310e+02
  -6.411466e+02  -7.760266e+00
  -2.845720e+02  -7.159081e+02
   3.450754e+02  -6.596927e+02
   6.126028e+02  -8.659786e+01
   4.003751e+02   3.740326e+02
   1.267982e+01   4.571126e+02
  -2.553325e+02   2.755691e+02
  -2.285257e+02   1.749502e+01
   1.090810e+02  -9.833916e+01
   4.234596e+02   1.024194e+02
   2.201544e+02   4.425152e+02
  -4.659150e+02   4.401612e+02
  -8.863633e+02  -6.290084e+01
  -4.614194e+02  -5.706774e+02
   4.008439e+02  -5.179352e+02
   7.803477e+02   2.298267e+01
   3.712454e+02   4.991283e+02
  -2.864179e+02   5.452735e+02
  -5.878016e+02   2.169616e+02
  -4.372086e+02  -2.352845e+02
  -7.772148e+01  -4.992750e+02
   2.117572e+02  -3.038032e+02
   1.932576e+02   2.260924e+02
  -1.613546e+02   4.675561e+02
  -4.716926e+02  -4.392191e+00
  -2.732387e+02  -7.077152e+02
   3.238953e+02  -7.432615e+02
   6.406212e+02  -1.391140e+01
   2.847416e+02   5.819367e+02
  -3.034797e+02   3.455851e+02
  -4.133618e+02  -3.298585e+02
   6.015241e+01  -5.728212e+02
   5.756503e+02  -1.512244e+02
   6.219147e+02   4.151377e+02
   1.766537e+02   6.074067e+02
  -3.951342e+02   3.655966e+02
  -6.556875e+02  -7.092503e+01
  -3.931753e+02  -4.014903e+02
   1.600070e+02  -3.886430e+02
   4.674989e+02  -6.209520e+01
   2.564978e+02   2.115462e+02
  -1.279419e+02   1.205664e+02
  -1.588660e+02  -1.624582e+02
   1.696058e+02  -2.048923e+02
   3.677957e+02   7.273717e+01
   1.518255e+02   3.152965e+02
  -2.127845e+02   2.701171e+02
  -3.413173e+02   7.086751e+01
  -1.955488e+02  -8.847042e+01
   2.887140e+01  -2.209730e+02
   2.188358e+02  -3.281362e+02
   3.391415e+02  -2.296552e+02
   3.034158e+02   1.330560e+02
   8.997479e+01   4.515019e+02
  -1.191786e+02   4.036932e+02
  -1.335307e+02   1.158430e+02
  -2.910729e+01  -2.099992e+01
  -3.615148e+01   8.380311e+01
  -1.909040e+02   1.394769e+02
  -2.871611e+02  -4.362398e+01
  -1.728787e+02  -2.741892e+02
   6.624375e+01  -2.691788e+02
   2.349369e+02  -1.938031e+01
   2.108326e+02   2.423502e+02
  -2.549786e+00   3.051269e+02
  -2.716536e+02   1.279329e+02
  -3.760523e+02  -1.654040e+02
  -1.985138e+02  -3.619486e+02
   1.012976e+02  -3.209811e+02
   2.379694e+02  -1.259529e+02
   1.576183e+02  -5.589084e-01
   9.806644e+01  -3.169973e+01
   2.328460e+02  -6.902064e+01
   4.069265e+02   5.142394e+01
   3.422550e+02   2.857378e+02
   4.349789e+00   4.511788e+02
  -3.603581e+02   4.254741e+02
  -4.960236e+02   2.124633e+02
  -3.487578e+02  -8.949461e+01
  -6.350155e+01  -3.030745e+02
   1.321497e+02  -2.666761e+02
   9.040661e+01  -3.292678e+01
  -1.085832e+02   1.176024e+02
  -2.067824e+02   1.072957e+00
  -5.954966e+01  -2.045794e+02
   1.660546e+02  -1.861650e+02
   1.916768e+02   5.888551e+01
  -1.271378e+01   2.039557e+02
  -2.012516e+02   3.993046e+01
  -1.713416e+02  -2.528472e+02
   3.014661e+01  -3.581610e+02
   2.331211e+02  -1.962381e+02
   3.293970e+02   6.276338e+01
   2.833502e+02   2.379588e+02
   1.018522e+02   2.651457e+02
  -1.118590e+02   1.660922e+02
  -1.836048e+02   2.554983e+01
  -6.370531e+01  -3.360990e+01
   7.286536e+01   3.572335e+01
   3.536234e+01   1.277095e+02
  -1.246472e+02   1.069023e+02
  -1.858217e+02  -8.579432e+00
  -6.393675e+01  -7.478224e+01
   8.024143e+01  -2.089423e+01
   5.813818e+01   7.100338e+01
  -1.217088e+02   8.808053e+01
  -2.829931e+02   3.740585e+00
  -2.681270e+02  -1.358305e+02
  -6.698701e+01  -2.563168e+02
   1.812131e+02  -2.696689e+02
   2.885510e+02  -1.357683e+02
   1.784149e+02   5.045248e+01
  -2.207371e+01   1.160126e+02
  -9.577884e+01   1.209064e+01
   2.892714e+01  -1.058593e+02
   1.994216e+02  -6.637842e+01
   2.220081e+02   1.011552e+02
   7.541662e+01   2.135966e+02
  -9.463038e+01   1.654464e+02
  -1.488099e+02   3.341641e+01
  -7.588087e+01  -4.160312e+01
   2.543285e+01  -6.155156e+00
   3.924746e+01   7.985906e+01
  -6.792163e+01   1.134537e+02
  -1.978682e+02   3.325052e+01
  -1.966943e+02  -1.209809e+02
  -2.602237e+01  -2.223620e+02
   1.664776e+02  -1.712396e+02
   2.008307e+02  -8.691936e+00
   7.009842e+01   1.186980e+02
  -6.704280e+01   1.172275e+02
  -8.646979e+01   3.351926e+01
  -2.168109e+01  -2.594952e+01
   1.918705e+01  -2.005308e+01
  -1.039299e+01   5.773255e+00
  -6.947281e+01  -9.964280e+00
  -8.728254e+01  -8.084927e+01
  -1.701948e+01  -1.569835e+02
   1.233270e+02  -1.547430e+02
   2.346914e+02  -3.101968e+01
   2.072763e+02   1.477957e+02
   4.640203e+01   2.413269e+02
  -1.095083e+02   1.756227e+02
  -1.390200e+02   2.892291e+01
  -7.230569e+01  -5.755434e+01
  -2.888274e+01  -3.729425e+01
  -5.369989e+01   1.248127e+01
  -7.954214e+01   6.983749e+00
  -4.058731e+01  -4.914347e+01
   4.263844e+01  -8.667921e+01
   1.003023e+02  -5.454181e+01
   8.337903e+01   3.408685e+01
  -1.221878e+01   1.085785e+02
  -1.387953e+02   8.719183e+01
  -1.979715e+02  -4.694636e+01
  -1.060733e+02  -1.999896e+02
   1.015408e+02  -2.330068e+02
   2.684337e+02  -1.029499e+02
   2.639023e+02   8.274489e+01
   1.152723e+02   1.787270e+02
  -3.709315e+01   1.511966e+02
  -9.575285e+01   8.725194e+01
  -8.112095e+01   7.151094e+01
  -6.798209e+01   9.244175e+01
  -9.309510e+01   7.519649e+01
  -1.294702e+02  -2.159744e+01
  -1.203019e+02  -1.546000e+02
  -3.287709e+01  -2.283378e+02
   9.754076e+01  -1.761778e+02
   1.779465e+02  -2.429221e+01
   1.407408e+02   1.206855e+02
   2.273015e+01   1.616497e+02
  -6.571950e+01   9.564441e+01
  -6.016030e+01   3.261674e+00
  -6.277010e+00  -4.141947e+01
   8.123178e+00  -3.446344e+01
  -3.802447e+01  -1.871926e+01
  -7.962797e+01  -2.297367e+01
  -4.474622e+01  -3.800402e+01
   6.276189e+01  -3.722235e+01
   1.570586e+02  -4.844423e+00
   1.446003e+02   4.870455e+01
   1.827166e+01   8.759805e+01
  -1.190810e+02   7.573202e+01
  -1.461589e+02   1.614590e+01
  -4.970807e+01  -3.950859e+01
   6.048309e+01  -3.762568e+01
   7.650805e+01   1.855289e+01
   6.957422e+00   6.848620e+01
  -5.702248e+01   5.816241e+01
  -6.332072e+01  -2.150592e+00
  -4.327629e+01  -5.029342e+01
  -4.361220e+01  -4.172499e+01
  -6.262877e+01  -1.688817e+00
  -6.685567e+01   6.054729e-02
  -3.488745e+01  -6.742553e+01
   3.254639e+01  -1.462778e+02
   1.147581e+02  -1.425435e+02
   1.630113e+02  -3.468491e+01
   1.240212e+02   9.020594e+01
   8.310053e+00   1.260341e+02
  -8.532861e+01   6.170978e+01
  -6.032179e+01  -1.508781e+01
   5.951101e+01  -2.075782e+01
   1.395451e+02   4.256894e+01
   7.837366e+01   1.074408e+02
  -7.967580e+01   1.145297e+02
  -1.921136e+02   5.548839e+01
  -1.650902e+02  -3.132662e+01
  -3.946822e+01  -8.711712e+01
   6.010899e+01  -7.259859e+01
   4.930966e+01  -9.036691e+00
  -3.863759e+01   2.697252e+01
  -9.125627e+01  -2.214972e+01
  -3.362759e+01  -1.197317e+02
   9.203362e+01  -1.563797e+02
   1.694390e+02  -6.367060e+01
   1.288942e+02   1.011727e+02
   1.175280e+01   1.997811e+02
  -8.511275e+01   1.467466e+02
  -1.055521e+02  -5.045976e+00
  -6.309253e+01  -1.178855e+02
  -8.365948e-01  -1.077128e+02
   4.519209e+01  -2.147241e+01
   5.361790e+01   3.068011e+01
   2.743080e+01   8.429723e+00
   3.460650e+00  -2.115537e+01
   1.955528e+01   1.434176e+01
   5.673412e+01   8.851919e+01
   4.484357e+01   1.103017e+02
  -4.557380e+01   4.627500e+01
  -1.401626e+02  -3.873761e+01
  -1.326480e+02  -7.045057e+01
  -1.802431e+01  -4.950320e+01
   8.948403e+01  -2.280636e+01
   8.924177e+01  -8.837701e+00
   1.007806e+01   6.869401e+00
  -3.920475e+01   2.305740e+01
  -1.330292e+01   1.908463e+01
   2.242788e+01  -1.487938e+00
  -6.274133e+00  -9.524918e+00
  -7.595546e+01  -3.886080e+00
  -9.219579e+01  -2.365123e+01
  -7.341191e+00  -8.088109e+01
   1.200651e+02  -1.154981e+02
   1.861744e+02  -5.902815e+01
   1.417387e+02   6.821689e+01
   2.623295e+01   1.633609e+02
  -7.836903e+01   1.506559e+02
  -1.143034e+02   5.867961e+01
  -8.132910e+01  -2.144957e+01
  -2.504312e+01  -3.512906e+01
   3.743553e+00  -8.296240e+00
  -9.732175e+00  -3.481355e+00
  -3.396106e+01  -4.520823e+01
  -2.415714e+01  -9.015735e+01
   2.887358e+01  -7.224745e+01
   8.218729e+01   1.851914e+01
   7.798427e+01   1.094298e+02
   3.746681e+00   1.132901e+02
  -8.385855e+01   2.349698e+01
  -1.039556e+02  -7.670717e+01
  -3.180775e+01  -1.041357e+02
   6.702190e+01  -5.522794e+01
   9.776334e+01   1.203606e+01
   3.866543e+01   4.979001e+01
  -3.261842e+01   5.090536e+01
  -3.013132e+01   2.820620e+01
   3.538398e+01  -1.132822e-01
   6.983479e+01  -6.885870e+00
   1.464452e+01   2.491525e+01
  -7.931521e+01   6.693182e+01
  -1.149805e+02   6.027607e+01
  -6.313620e+01  -1.108911e+01
   1.571090e+01  -8.332220e+01
   5.219737e+01  -7.951600e+01
   3.624893e+01  -4.776211e+00
   1.127966e+00   5.676184e+01
  -2.602109e+01   4.255535e+01
  -3.680339e+01  -1.926062e+01
  -2.671956e+01  -5.419274e+01
   3.069397e+00  -3.214308e+01
   3.336973e+01   8.867565e+00
   3.958624e+01   2.040270e+01
   2.058823e+01   4.915525e-01
  -2.647228e-01  -1.352710e+01
  -6.605373e+00   4.506498e+00
  -7.628589e+00   3.761542e+01
  -1.847510e+01   4.435555e+01
  -3.334740e+01   6.216864e+00
  -2.951915e+01  -4.656997e+01
   3.611297e+00  -6.173622e+01
   4.540130e+01  -2.031951e+01
   5.630157e+01   4.011052e+01
   1.427057e+01   6.379948e+01
  -5.474806e+01   3.409620e+01
  -8.881955e+01  -1.571193e+01
  -4.929159e+01  -4.417767e+01
   2.888625e+01  -4.044851e+01
   6.507735e+01  -2.087639e+01
   2.375276e+01  -4.585898e+00
  -3.868005e+01  -2.556052e+00
  -3.871817e+01  -1.670472e+01
   3.153850e+01  -3.245119e+01
   9.321726e+01  -2.035973e+01
