
 $NMID
 id='ANONYMOUS ', fmtdat='(2E16.6)'
 volume=1.0
 tramp=1.0
 $END
   4.832029e+03   3.400127e+01
   2.689270e+03   3.013772e+03
  -1.026149e+03   3.017517e+03
  -2.431491e+03   7.546265e+02
  -9.252825e+02  -9.516383e+02
   9.198791e+02  -6.749636e+02
   1.063169e+03   5.869876e+02
  -6.107188e+01   1.261846e+03
  -9.898523e+02   8.445021e+02
  -1.050368e+03  -1.779669e+02
  -4.462873e+02  -1.006482e+03
   3.455392e+02  -9.795294e+02
   7.605071e+02  -7.434208e+01
   4.206748e+02   8.490974e+02
  -3.425912e+02   8.305412e+02
  -6.876540e+02  -4.872716e+01
  -2.601939e+02  -7.671820e+02
   4.008858e+02  -6.475266e+02
   6.299996e+02  -2.831426e+01
   3.722744e+02   4.175622e+02
  -2.447174e+01   4.687428e+02
  -2.889979e+02   2.702518e+02
  -2.598702e+02  -9.913822e+00
   1.072489e+02  -1.494344e+02
   4.702924e+02   7.341902e+01
   2.676960e+02   4.789348e+02
  -4.857606e+02   5.033689e+02
  -9.592965e+02  -5.702876e+01
  -4.990229e+02  -6.372934e+02
   4.434920e+02  -5.837056e+02
   8.519198e+02   2.032606e+01
   4.015315e+02   5.444334e+02
  -3.073881e+02   5.871012e+02
  -6.246520e+02   2.255837e+02
  -4.565733e+02  -2.622024e+02
  -6.037896e+01  -5.417954e+02
   2.632885e+02  -3.165721e+02
   2.360295e+02   2.754924e+02
  -1.812711e+02   5.395748e+02
  -5.437548e+02   6.056812e+00
  -3.150257e+02  -7.763815e+02
   3.650820e+02  -8.056456e+02
   7.132350e+02   8.163149e+00
   3.005103e+02   6.558996e+02
  -3.547879e+02   3.802669e+02
  -4.629218e+02  -3.619720e+02
   6.294028e+01  -6.185074e+02
   6.126038e+02  -1.617499e+02
   6.483698e+02   4.360788e+02
   1.714941e+02   6.341612e+02
  -4.250121e+02   3.794106e+02
  -6.858388e+02  -8.449916e+01
  -3.922636e+02  -4.404478e+02
   1.994468e+02  -4.163088e+02
   5.067766e+02  -4.211286e+01
   2.505074e+02   2.574092e+02
  -1.673073e+02   1.322214e+02
  -1.749563e+02  -1.976974e+02
   1.975246e+02  -2.328301e+02
   3.977171e+02   9.015561e+01
   1.476446e+02   3.457471e+02
  -2.291764e+02   2.698618e+02
  -3.351154e+02   5.446683e+01
  -1.787752e+02  -8.110387e+01
   2.324510e+01  -1.958770e+02
   1.974826e+02  -3.236739e+02
   3.367293e+02  -2.472295e+02
   3.211448e+02   1.311952e+02
   9.195134e+01   4.755049e+02
  -1.457198e+02   4.165877e+02
  -1.555623e+02   9.352970e+01
  -1.823207e+01  -5.079643e+01
  -9.427330e+00   8.373126e+01
  -1.828594e+02   1.637335e+02
  -3.034340e+02  -2.887830e+01
  -1.908102e+02  -2.840236e+02
   6.516712e+01  -2.891615e+02
   2.497199e+02  -3.033452e+01
   2.286223e+02   2.474489e+02
   3.885878e+00   3.213894e+02
  -2.823524e+02   1.413387e+02
  -3.922253e+02  -1.689094e+02
  -2.001384e+02  -3.789409e+02
   1.175574e+02  -3.297214e+02
   2.524571e+02  -1.132858e+02
   1.536657e+02   1.936121e+01
   8.296951e+01  -2.655486e+01
   2.238998e+02  -7.980118e+01
   4.084023e+02   4.064475e+01
   3.476402e+02   2.840723e+02
   1.009981e+01   4.557682e+02
  -3.569466e+02   4.330777e+02
  -5.022244e+02   2.198136e+02
  -3.638369e+02  -9.160508e+01
  -6.989554e+01  -3.184497e+02
   1.466445e+02  -2.798572e+02
   1.088681e+02  -2.572418e+01
  -1.122398e+02   1.366430e+02
  -2.278461e+02   4.425335e+00
  -6.689369e+01  -2.233424e+02
   1.839683e+02  -2.016262e+02
   2.106452e+02   6.674678e+01
  -1.460290e+01   2.223770e+02
  -2.136397e+02   4.630722e+01
  -1.743058e+02  -2.583430e+02
   3.400741e+01  -3.605604e+02
   2.296480e+02  -1.934564e+02
   3.215504e+02   6.088195e+01
   2.855143e+02   2.316801e+02
   1.123973e+02   2.652801e+02
  -1.093741e+02   1.733323e+02
  -1.926902e+02   2.778563e+01
  -6.906094e+01  -4.055590e+01
   8.002941e+01   3.101236e+01
   4.383368e+01   1.338722e+02
  -1.276000e+02   1.165580e+02
  -1.964208e+02  -7.050026e+00
  -7.031576e+01  -8.197749e+01
   8.211388e+01  -2.932124e+01
   6.460449e+01   6.675623e+01
  -1.145744e+02   8.998058e+01
  -2.794851e+02   1.165940e+01
  -2.728622e+02  -1.275834e+02
  -7.719459e+01  -2.570041e+02
   1.768848e+02  -2.799847e+02
   2.958458e+02  -1.436770e+02
   1.877652e+02   5.463611e+01
  -2.299849e+01   1.257574e+02
  -1.047062e+02   1.383590e+01
   2.477370e+01  -1.138988e+02
   2.051637e+02  -7.341249e+01
   2.302614e+02   1.028744e+02
   7.811262e+01   2.210836e+02
  -9.824924e+01   1.721013e+02
  -1.557425e+02   3.564767e+01
  -8.276904e+01  -4.517321e+01
   2.323916e+01  -1.442380e+01
   4.455773e+01   7.292720e+01
  -5.986820e+01   1.142316e+02
  -1.955441e+02   3.953367e+01
  -2.009737e+02  -1.182264e+02
  -2.885124e+01  -2.264761e+02
   1.702888e+02  -1.753003e+02
   2.068293e+02  -6.009113e+00
   7.178556e+01   1.256928e+02
  -7.003558e+01   1.221363e+02
  -9.116788e+01   3.436641e+01
  -2.677075e+01  -2.782258e+01
   1.542584e+01  -2.431877e+01
  -9.135157e+00   5.351735e-01
  -6.336361e+01  -1.141210e+01
  -8.325132e+01  -7.630417e+01
  -2.007047e+01  -1.520656e+02
   1.179659e+02  -1.561726e+02
   2.346202e+02  -3.671117e+01
   2.114542e+02   1.456655e+02
   4.769844e+01   2.446851e+02
  -1.125765e+02   1.786132e+02
  -1.410050e+02   2.752451e+01
  -7.062638e+01  -6.072329e+01
  -2.684137e+01  -3.890844e+01
  -5.286283e+01   1.209638e+01
  -7.714932e+01   7.610542e+00
  -3.702669e+01  -4.553895e+01
   4.156152e+01  -8.106277e+01
   9.300423e+01  -5.271704e+01
   7.778668e+01   2.929548e+01
  -9.039487e+00   1.030504e+02
  -1.315219e+02   8.818873e+01
  -1.967727e+02  -4.114385e+01
  -1.124013e+02  -1.975903e+02
   9.596587e+01  -2.371720e+02
   2.695706e+02  -1.082793e+02
   2.689097e+02   8.204135e+01
   1.185187e+02   1.820961e+02
  -3.728702e+01   1.545123e+02
  -9.799152e+01   8.833366e+01
  -8.400996e+01   7.077484e+01
  -7.011699e+01   9.079370e+01
  -9.314062e+01   7.354710e+01
  -1.281810e+02  -2.226510e+01
  -1.201099e+02  -1.544297e+02
  -3.417378e+01  -2.289026e+02
   9.734288e+01  -1.784148e+02
   1.805501e+02  -2.693542e+01
   1.446284e+02   1.198592e+02
   2.572440e+01   1.637478e+02
  -6.425593e+01   1.000637e+02
  -6.079008e+01   8.007070e+00
  -9.905857e+00  -3.897346e+01
   3.160737e+00  -3.552622e+01
  -4.008421e+01  -2.131377e+01
  -7.765524e+01  -2.384573e+01
  -4.338412e+01  -3.687351e+01
   5.961508e+01  -3.725455e+01
   1.527966e+02  -7.998263e+00
   1.454504e+02   4.471733e+01
   2.398515e+01   8.623623e+01
  -1.148932e+02   7.739341e+01
  -1.467862e+02   1.883685e+01
  -5.187600e+01  -3.704728e+01
   5.989693e+01  -3.581949e+01
   7.577345e+01   1.850818e+01
   4.202567e+00   6.585648e+01
  -5.903498e+01   5.496192e+01
  -6.130285e+01  -2.944597e+00
  -3.933032e+01  -4.879661e+01
  -4.242764e+01  -4.078619e+01
  -6.431088e+01  -2.300665e+00
  -6.722450e+01   1.662989e-01
  -3.266819e+01  -6.505994e+01
   3.342002e+01  -1.435430e+02
   1.112972e+02  -1.420169e+02
   1.579564e+02  -3.628798e+01
   1.221821e+02   8.816910e+01
   1.044690e+01   1.242512e+02
  -8.248006e+01   6.006892e+01
  -5.918801e+01  -1.605989e+01
   5.971367e+01  -2.055007e+01
   1.405217e+02   4.333319e+01
   8.003910e+01   1.081776e+02
  -7.896953e+01   1.159572e+02
  -1.934708e+02   5.797697e+01
  -1.677442e+02  -2.959774e+01
  -4.147571e+01  -8.821765e+01
   5.991435e+01  -7.574123e+01
   5.025218e+01  -1.158827e+01
  -3.779181e+01   2.590421e+01
  -9.029336e+01  -2.278962e+01
  -3.129887e+01  -1.199328e+02
   9.544770e+01  -1.547066e+02
   1.715215e+02  -6.028609e+01
   1.280439e+02   1.039390e+02
   9.453199e+00   2.008311e+02
  -8.649607e+01   1.475706e+02
  -1.062517e+02  -3.655343e+00
  -6.509855e+01  -1.177493e+02
  -3.917171e+00  -1.099307e+02
   4.401547e+01  -2.368218e+01
   5.572420e+01   3.095698e+01
   3.000725e+01   9.611771e+00
   3.153643e+00  -2.224792e+01
   1.726704e+01   1.162957e+01
   5.631193e+01   8.789492e+01
   4.742850e+01   1.125511e+02
  -4.318830e+01   4.798032e+01
  -1.407802e+02  -3.966263e+01
  -1.346785e+02  -7.163628e+01
  -1.811540e+01  -4.841220e+01
   9.137195e+01  -2.101408e+01
   9.003323e+01  -9.229745e+00
   8.544120e+00   5.025851e+00
  -4.053400e+01   2.293664e+01
  -1.224376e+01   2.116240e+01
   2.413427e+01  -1.583324e-01
  -6.786960e+00  -1.082428e+01
  -7.774949e+01  -6.137465e+00
  -9.147812e+01  -2.427613e+01
  -3.368456e+00  -7.940490e+01
   1.231053e+02  -1.130204e+02
   1.846038e+02  -5.649413e+01
   1.373672e+02   7.003286e+01
   2.369952e+01   1.634846e+02
  -7.766674e+01   1.489223e+02
  -1.128913e+02   5.650564e+01
  -8.100258e+01  -2.229994e+01
  -2.472457e+01  -3.422099e+01
   4.967752e+00  -6.489763e+00
  -9.035297e+00  -1.852099e+00
  -3.503818e+01  -4.444927e+01
  -2.557337e+01  -9.023044e+01
   2.892776e+01  -7.208670e+01
   8.255530e+01   1.997331e+01
   7.618096e+01   1.112287e+02
   3.467449e-01   1.128244e+02
  -8.530911e+01   2.010433e+01
  -1.018857e+02  -7.979601e+01
  -2.903721e+01  -1.034985e+02
   6.704872e+01  -5.213506e+01
   9.541110e+01   1.299652e+01
   3.719382e+01   4.701968e+01
  -3.135175e+01   4.795077e+01
  -2.742368e+01   2.857229e+01
   3.719904e+01   2.302559e+00
   6.985111e+01  -5.941279e+00
   1.372731e+01   2.396274e+01
  -7.963323e+01   6.673512e+01
  -1.138365e+02   6.203855e+01
  -6.126597e+01  -9.069977e+00
   1.638008e+01  -8.234533e+01
   5.048452e+01  -7.859461e+01
   3.318622e+01  -3.240062e+00
  -1.062135e+00   5.724809e+01
  -2.625516e+01   4.062407e+01
  -3.585685e+01  -2.168102e+01
  -2.589702e+01  -5.406645e+01
   3.167850e+00  -2.982958e+01
   3.290079e+01   9.977975e+00
   3.915609e+01   1.898478e+01
   2.081140e+01  -5.968616e-01
   2.066349e-01  -1.152511e+01
  -7.648316e+00   7.848745e+00
  -1.121746e+01   3.801453e+01
  -2.241246e+01   4.054911e+01
  -3.365201e+01   1.441104e+00
  -2.530434e+01  -4.863417e+01
   8.317788e+00  -6.067845e+01
   4.621851e+01  -1.821377e+01
   5.367444e+01   4.153298e+01
   1.225887e+01   6.409582e+01
  -5.396563e+01   3.340181e+01
  -8.690190e+01  -1.679068e+01
  -4.842803e+01  -4.433232e+01
   2.860366e+01  -3.881248e+01
   6.425202e+01  -1.863792e+01
   2.212848e+01  -4.275951e+00
  -4.073055e+01  -5.094613e+00
  -3.902592e+01  -1.992775e+01
   3.432379e+01  -3.336747e+01
   9.681281e+01  -1.848960e+01
