
 $NMID
 id='ANONYMOUS ', fmtdat='(2E16.6)'
 volume=1.0
 tramp=1.0
 $END
  -4.519549e+03  -5.039755e+01
  -2.587219e+03  -2.761536e+03
   8.252229e+02  -2.848251e+03
   2.220389e+03  -8.663715e+02
   9.602973e+02   7.268211e+02
  -7.166543e+02   5.969913e+02
  -9.298877e+02  -4.793992e+02
   3.137184e+01  -1.121104e+03
   8.843572e+02  -7.971104e+02
   9.769882e+02   1.241970e+02
   4.479207e+02   9.127595e+02
  -2.760113e+02   9.220934e+02
  -6.729310e+02   1.030696e+02
  -3.886150e+02  -7.622786e+02
   2.985329e+02  -7.769899e+02
   6.352914e+02   2.199398e+01
   2.683146e+02   7.168979e+02
  -3.527960e+02   6.494646e+02
  -6.077991e+02   7.736546e+01
  -3.913174e+02  -3.761808e+02
  -5.496383e+00  -4.534505e+02
   2.582454e+02  -2.682055e+02
   2.245205e+02  -1.141899e+01
  -1.170574e+02   9.424402e+01
  -4.236162e+02  -1.168554e+02
  -2.063809e+02  -4.509259e+02
   4.808267e+02  -4.276069e+02
   8.842050e+02   8.697592e+01
   4.430195e+02   5.807651e+02
  -4.160380e+02   5.038820e+02
  -7.783226e+02  -4.482915e+01
  -3.567230e+02  -5.077745e+02
   3.001605e+02  -5.370138e+02
   5.919389e+02  -2.026872e+02
   4.300549e+02   2.441374e+02
   6.533496e+01   4.975108e+02
  -2.162225e+02   2.942218e+02
  -1.818541e+02  -2.323092e+02
   1.770524e+02  -4.597944e+02
   4.701533e+02   2.139206e+01
   2.516072e+02   7.152873e+02
  -3.424399e+02   7.313898e+02
  -6.359686e+02  -4.291932e+00
  -2.660283e+02  -5.861075e+02
   3.114335e+02  -3.334139e+02
   4.023535e+02   3.417671e+02
  -7.524320e+01   5.704027e+02
  -5.788537e+02   1.368940e+02
  -6.124428e+02  -4.286974e+02
  -1.638484e+02  -6.098248e+02
   4.023328e+02  -3.554947e+02
   6.528336e+02   8.508172e+01
   3.827419e+02   4.069844e+02
  -1.681683e+02   3.807695e+02
  -4.652568e+02   5.073071e+01
  -2.484524e+02  -2.133157e+02
   1.295927e+02  -1.134672e+02
   1.515145e+02   1.655749e+02
  -1.752874e+02   1.977577e+02
  -3.638099e+02  -8.175603e+01
  -1.434674e+02  -3.165363e+02
   2.169994e+02  -2.652137e+02
   3.417303e+02  -6.678568e+01
   1.962262e+02   9.044495e+01
  -3.008201e+01   2.229592e+02
  -2.255403e+02   3.278791e+02
  -3.460180e+02   2.237582e+02
  -3.011347e+02  -1.407045e+02
  -7.957738e+01  -4.530551e+02
   1.264574e+02  -3.988263e+02
   1.320654e+02  -1.124335e+02
   2.591546e+01   1.871965e+01
   3.905558e+01  -8.649542e+01
   1.969715e+02  -1.362081e+02
   2.879456e+02   5.129299e+01
   1.665145e+02   2.793471e+02
  -7.337479e+01   2.677497e+02
  -2.363126e+02   1.312023e+01
  -2.056584e+02  -2.483137e+02
   9.994464e+00  -3.056869e+02
   2.754663e+02  -1.216442e+02
   3.728434e+02   1.739050e+02
   1.907306e+02   3.654734e+02
  -1.071775e+02   3.176429e+02
  -2.384361e+02   1.211578e+02
  -1.558793e+02  -6.275327e-01
  -9.902504e+01   3.212630e+01
  -2.362857e+02   6.568326e+01
  -4.081670e+02  -5.922461e+01
  -3.380807e+02  -2.929544e+02
   4.176755e+00  -4.527250e+02
   3.695173e+02  -4.203056e+02
   5.013278e+02  -2.033808e+02
   3.470013e+02   9.729992e+01
   5.635004e+01   3.047988e+02
  -1.377834e+02   2.626590e+02
  -8.937274e+01   2.968680e+01
   1.128674e+02  -1.145985e+02
   2.065667e+02   5.082427e+00
   5.362603e+01   2.059419e+02
  -1.704790e+02   1.808657e+02
  -1.892066e+02  -6.409080e+01
   1.827079e+01  -2.030260e+02
   2.024925e+02  -3.481126e+01
   1.666265e+02   2.564137e+02
  -3.640717e+01   3.578989e+02
  -2.368673e+02   1.932624e+02
  -3.297165e+02  -6.771571e+01
  -2.805611e+02  -2.439258e+02
  -9.699430e+01  -2.687178e+02
   1.159257e+02  -1.644772e+02
   1.842501e+02  -2.129990e+01
   6.218972e+01   3.503513e+01
  -7.259765e+01  -3.813042e+01
  -3.210322e+01  -1.292722e+02
   1.277298e+02  -1.041726e+02
   1.857281e+02   1.308537e+01
   6.163633e+01   7.641269e+01
  -8.166682e+01   1.891383e+01
  -5.721674e+01  -7.313507e+01
   1.240881e+02  -8.693796e+01
   2.848166e+02   1.087125e+00
   2.671406e+02   1.417041e+02
   6.215249e+01   2.592052e+02
  -1.876627e+02   2.671631e+02
  -2.920744e+02   1.298934e+02
  -1.769896e+02  -5.448436e+01
   2.519132e+01  -1.152863e+02
   9.594261e+01  -9.352804e+00
  -3.195445e+01   1.056731e+02
  -2.015341e+02   6.209110e+01
  -2.201623e+02  -1.060495e+02
  -7.093204e+01  -2.152996e+02
   9.825866e+01  -1.634438e+02
   1.496212e+02  -3.002951e+01
   7.456989e+01   4.360977e+01
  -2.667434e+01   5.558014e+00
  -3.850434e+01  -8.169463e+01
   7.052717e+01  -1.134536e+02
   1.997463e+02  -2.989174e+01
   1.951805e+02   1.252604e+02
   2.165985e+01   2.234342e+02
  -1.700587e+02   1.681373e+02
  -2.008169e+02   4.725867e+00
  -6.733150e+01  -1.199992e+02
   6.961371e+01  -1.157487e+02
   8.709455e+01  -3.152933e+01
   2.080380e+01   2.687422e+01
  -2.026723e+01   1.998668e+01
   9.971406e+00  -6.029775e+00
   6.961436e+01   1.038598e+01
   8.684442e+01   8.229436e+01
   1.479224e+01   1.582493e+02
  -1.267003e+02   1.535449e+02
  -2.364297e+02   2.679582e+01
  -2.052620e+02  -1.522732e+02
  -4.193110e+01  -2.426518e+02
   1.129468e+02  -1.736455e+02
   1.395682e+02  -2.645880e+01
   7.120923e+01   5.856016e+01
   2.823175e+01   3.755125e+01
   5.403600e+01  -1.171111e+01
   8.004336e+01  -5.888004e+00
   4.044832e+01   4.972382e+01
  -4.361885e+01   8.657101e+01
  -1.016345e+02   5.390110e+01
  -8.384045e+01  -3.518834e+01
   1.362299e+01  -1.092804e+02
   1.411010e+02  -8.581899e+01
   1.983660e+02   5.059812e+01
   1.028530e+02   2.031247e+02
  -1.065294e+02   2.322432e+02
  -2.713724e+02   9.819456e+01
  -2.629196e+02  -8.806063e+01
  -1.119257e+02  -1.813093e+02
   4.013563e+01  -1.507168e+02
   9.747225e+01  -8.550184e+01
   8.229214e+01  -6.999361e+01
   6.941346e+01  -9.133259e+01
   9.439932e+01  -7.386220e+01
   1.293904e+02   2.367225e+01
   1.179708e+02   1.569973e+02
   2.892189e+01   2.295481e+02
  -1.010442e+02   1.748259e+02
  -1.789439e+02   2.086943e+01
  -1.388988e+02  -1.238627e+02
  -1.962244e+01  -1.626501e+02
   6.809514e+01  -9.468281e+01
   6.087463e+01  -1.920661e+00
   5.679453e+00   4.217289e+01
  -9.113654e+00   3.492668e+01
   3.738290e+01   1.951564e+01
   7.942152e+01   2.411059e+01
   4.440384e+01   3.875617e+01
  -6.371069e+01   3.660182e+01
  -1.580945e+02   2.506013e+00
  -1.445229e+02  -5.159295e+01
  -1.667824e+01  -8.884894e+01
   1.210615e+02  -7.427512e+01
   1.470527e+02  -1.347452e+01
   4.932172e+01   4.082961e+01
  -6.108544e+01   3.684300e+01
  -7.641181e+01  -1.981849e+01
  -6.254878e+00  -6.858003e+01
   5.766903e+01  -5.725661e+01
   6.344346e+01   2.959870e+00
   4.289861e+01   5.076715e+01
   4.317207e+01   4.247702e+01
   6.258539e+01   2.925603e+00
   6.700420e+01   1.128970e+00
   3.420877e+01   6.804219e+01
  -3.475427e+01   1.461016e+02
  -1.175761e+02   1.413446e+02
  -1.644312e+02   3.248733e+01
  -1.231015e+02  -9.242376e+01
  -6.273748e+00  -1.268093e+02
   8.653711e+01  -6.081346e+01
   6.014978e+01   1.596942e+01
  -5.996805e+01   1.977725e+01
  -1.390008e+02  -4.512296e+01
  -7.654789e+01  -1.091822e+02
   8.201803e+01  -1.134419e+02
   1.937235e+02  -5.204911e+01
   1.649994e+02   3.461650e+01
   3.783920e+01   8.816830e+01
  -6.186323e+01   7.159854e+01
  -4.982565e+01   7.972616e+00
   3.910713e+01  -2.652972e+01
   9.106494e+01   2.361296e+01
   3.176000e+01   1.203006e+02
  -9.454208e+01   1.548601e+02
  -1.704142e+02   6.086014e+01
  -1.271874e+02  -1.033629e+02
  -8.367915e+00  -2.001206e+02
   8.783784e+01  -1.454287e+02
   1.058352e+02   7.013565e+00
   6.113701e+01   1.194756e+02
  -1.419511e+00   1.082187e+02
  -4.598193e+01   2.077201e+01
  -5.307566e+01  -3.189700e+01
  -2.707783e+01  -9.155591e+00
  -3.973044e+00   2.112376e+01
  -1.979123e+01  -1.458416e+01
  -5.544905e+01  -8.967565e+01
  -4.266723e+01  -1.115053e+02
   4.679240e+01  -4.579257e+01
   1.396852e+02   4.124309e+01
   1.315077e+02   7.305196e+01
   1.734326e+01   4.999295e+01
  -8.977259e+01   2.120559e+01
  -8.960307e+01   7.222156e+00
  -1.027904e+01  -6.975147e+00
   3.960530e+01  -2.229302e+01
   1.395680e+01  -1.891626e+01
  -2.226098e+01   9.794221e-01
   5.947905e+00   9.645745e+00
   7.570860e+01   5.282656e+00
   9.196991e+01   2.516332e+01
   6.357370e+00   8.080793e+01
  -1.218664e+02   1.134912e+02
  -1.873993e+02   5.630220e+01
  -1.409192e+02  -7.018980e+01
  -2.362329e+01  -1.638847e+02
   8.095657e+01  -1.498388e+02
   1.153899e+02  -5.714235e+01
   8.106897e+01   2.280484e+01
   2.462378e+01   3.564812e+01
  -3.619391e+00   8.203488e+00
   9.921431e+00   3.659629e+00
   3.329988e+01   4.605753e+01
   2.259142e+01   9.093912e+01
  -3.015195e+01   7.192365e+01
  -8.187251e+01  -1.993156e+01
  -7.618149e+01  -1.107097e+02
  -2.053717e+00  -1.132443e+02
   8.398243e+01  -2.212850e+01
   1.026351e+02   7.825620e+01
   3.032292e+01   1.046300e+02
  -6.775791e+01   5.437027e+01
  -9.779505e+01  -1.340844e+01
  -3.830451e+01  -5.053866e+01
   3.328493e+01  -5.076833e+01
   3.086673e+01  -2.805320e+01
  -3.509138e+01  -5.753726e-01
  -7.000285e+01   5.757287e+00
  -1.441199e+01  -2.516583e+01
   8.060142e+01  -6.570590e+01
   1.165401e+02  -5.849372e+01
   6.342580e+01   1.208030e+01
  -1.702067e+01   8.321977e+01
  -5.365760e+01   7.905645e+01
  -3.639561e+01   4.605540e+00
  -2.196773e-01  -5.663178e+01
   2.657046e+01  -4.228334e+01
   3.632735e+01   1.969645e+01
   2.591403e+01   5.468487e+01
  -3.350592e+00   3.227457e+01
  -3.319071e+01  -9.344936e+00
  -3.951708e+01  -2.114966e+01
  -2.074248e+01  -9.270574e-01
   2.922313e-01   1.361276e+01
   7.032180e+00  -4.107816e+00
   8.146954e+00  -3.713333e+01
   1.862561e+01  -4.388338e+01
   3.295850e+01  -5.876458e+00
   2.877264e+01   4.658262e+01
  -4.303966e+00   6.132453e+01
  -4.556508e+01   1.960653e+01
  -5.571885e+01  -4.078386e+01
  -1.328530e+01  -6.394073e+01
   5.541665e+01  -3.336793e+01
   8.873133e+01   1.698457e+01
   4.867859e+01   4.501247e+01
  -2.946770e+01   4.016743e+01
  -6.536660e+01   2.002706e+01
  -2.393483e+01   4.396418e+00
   3.832289e+01   3.328130e+00
   3.813108e+01   1.727138e+01
  -3.212624e+01   3.161555e+01
  -9.337426e+01   1.849480e+01
