
 $NMID
 id='ANONYMOUS ', fmtdat='(2E16.6)'
 volume=1.0
 tramp=1.0
 $END
   4.457746e+03  -2.262122e+01
   2.610104e+03   2.666614e+03
  -7.390228e+02   2.824141e+03
  -2.160473e+03   9.215399e+02
  -9.736297e+02  -6.664614e+02
   6.694614e+02  -5.905467e+02
   9.107165e+02   4.450830e+02
  -8.510922e+00   1.093843e+03
  -8.503669e+02   8.012453e+02
  -9.633532e+02  -9.795162e+01
  -4.622491e+02  -8.861796e+02
   2.473364e+02  -9.138691e+02
   6.535197e+02  -1.185396e+02
   3.942817e+02   7.390114e+02
  -2.770420e+02   7.706603e+02
  -6.246857e+02  -6.612116e+00
  -2.814544e+02  -7.016483e+02
   3.315859e+02  -6.543200e+02
   6.003957e+02  -9.685124e+01
   4.002224e+02   3.605144e+02
   1.892730e+01   4.492669e+02
  -2.474126e+02   2.715131e+02
  -2.170843e+02   1.861303e+01
   1.181982e+02  -8.643514e+01
   4.176615e+02   1.178802e+02
   2.025800e+02   4.428014e+02
  -4.731273e+02   4.219416e+02
  -8.715914e+02  -7.776921e+01
  -4.416020e+02  -5.628041e+02
   4.030174e+02  -4.956747e+02
   7.652295e+02   3.659928e+01
   3.565706e+02   4.948638e+02
  -2.897027e+02   5.325050e+02
  -5.819653e+02   2.083707e+02
  -4.287115e+02  -2.332149e+02
  -7.428376e+01  -4.874529e+02
   2.024571e+02  -2.926565e+02
   1.750304e+02   2.220103e+02
  -1.693993e+02   4.477916e+02
  -4.571179e+02  -1.938942e+01
  -2.514687e+02  -6.999925e+02
   3.260933e+02  -7.226418e+02
   6.210177e+02  -6.352793e+00
   2.685714e+02   5.684880e+02
  -2.980469e+02   3.291648e+02
  -3.965917e+02  -3.315982e+02
   6.799243e+01  -5.625200e+02
   5.699615e+02  -1.420472e+02
   6.127659e+02   4.163308e+02
   1.728799e+02   6.017211e+02
  -3.916635e+02   3.575280e+02
  -6.475037e+02  -7.382879e+01
  -3.872012e+02  -3.935198e+02
   1.560522e+02  -3.761577e+02
   4.559321e+02  -5.983653e+01
   2.506594e+02   2.004780e+02
  -1.208868e+02   1.114249e+02
  -1.493533e+02  -1.572452e+02
   1.681579e+02  -1.938165e+02
   3.584481e+02   7.419933e+01
   1.476630e+02   3.082429e+02
  -2.097195e+02   2.677135e+02
  -3.409622e+02   7.536156e+01
  -2.010067e+02  -8.802514e+01
   2.658069e+01  -2.282921e+02
   2.242253e+02  -3.329700e+02
   3.436563e+02  -2.257404e+02
   2.998762e+02   1.371655e+02
   8.502725e+01   4.471639e+02
  -1.158539e+02   3.969325e+02
  -1.251144e+02   1.176166e+02
  -2.689896e+01  -1.220338e+01
  -4.274691e+01   8.826600e+01
  -1.973916e+02   1.349441e+02
  -2.861780e+02  -5.036684e+01
  -1.668857e+02  -2.756034e+02
   7.033570e+01  -2.650160e+02
   2.336947e+02  -1.400401e+01
   2.057737e+02   2.448728e+02
  -7.249831e+00   3.029052e+02
  -2.720456e+02   1.227937e+02
  -3.721088e+02  -1.681676e+02
  -1.951629e+02  -3.592301e+02
   9.958038e+01  -3.167417e+02
   2.331536e+02  -1.264870e+02
   1.556575e+02  -5.697022e+00
   1.010975e+02  -3.527747e+01
   2.373299e+02  -6.764045e+01
   4.090715e+02   5.503753e+01
   3.414561e+02   2.881783e+02
   1.473335e+00   4.519492e+02
  -3.638706e+02   4.244724e+02
  -4.971138e+02   2.092946e+02
  -3.453749e+02  -9.221196e+01
  -5.909471e+01  -3.011661e+02
   1.315461e+02  -2.614971e+02
   8.506551e+01  -3.156882e+01
  -1.112203e+02   1.125136e+02
  -2.027163e+02  -3.494145e+00
  -5.452521e+01  -2.018057e+02
   1.649364e+02  -1.796630e+02
   1.861601e+02   6.052892e+01
  -1.562246e+01   1.996421e+02
  -1.998052e+02   3.613665e+01
  -1.696644e+02  -2.528246e+02
   3.028264e+01  -3.576463e+02
   2.343130e+02  -1.974744e+02
   3.321493e+02   6.262885e+01
   2.840298e+02   2.407816e+02
   9.906812e+01   2.675422e+02
  -1.141396e+02   1.649156e+02
  -1.822158e+02   2.328233e+01
  -6.137192e+01  -3.299489e+01
   7.200556e+01   3.820908e+01
   3.219291e+01   1.279326e+02
  -1.259450e+02   1.041226e+02
  -1.839027e+02  -1.099750e+01
  -6.124878e+01  -7.435869e+01
   8.136105e+01  -1.848213e+01
   5.727982e+01   7.331256e+01
  -1.241229e+02   8.875791e+01
  -2.857047e+02   1.943240e+00
  -2.686531e+02  -1.393052e+02
  -6.413722e+01  -2.584490e+02
   1.847519e+02  -2.681511e+02
   2.889133e+02  -1.324832e+02
   1.757817e+02   5.137536e+01
  -2.367555e+01   1.137335e+02
  -9.414464e+01   1.008750e+01
   3.146359e+01  -1.047791e+02
   1.997123e+02  -6.356294e+01
   2.200404e+02   1.026677e+02
   7.334997e+01   2.128108e+02
  -9.531993e+01   1.634476e+02
  -1.478767e+02   3.157444e+01
  -7.374005e+01  -4.208108e+01
   2.736137e+01  -4.503203e+00
   3.904713e+01   8.260885e+01
  -7.030589e+01   1.146920e+02
  -1.999064e+02   3.185747e+01
  -1.963168e+02  -1.229165e+02
  -2.435460e+01  -2.223386e+02
   1.668580e+02  -1.697199e+02
   1.993889e+02  -8.037393e+00
   6.850302e+01   1.176621e+02
  -6.746027e+01   1.156955e+02
  -8.571849e+01   3.247676e+01
  -2.016073e+01  -2.641735e+01
   2.085187e+01  -1.965179e+01
  -9.875307e+00   7.224072e+00
  -7.082479e+01  -8.765573e+00
  -8.902597e+01  -8.159669e+01
  -1.685608e+01  -1.590060e+02
   1.253572e+02  -1.553795e+02
   2.361669e+02  -2.933559e+01
   2.067981e+02   1.496386e+02
   4.523302e+01   2.413092e+02
  -1.097830e+02   1.745851e+02
  -1.386534e+02   2.875878e+01
  -7.224422e+01  -5.676528e+01
  -2.910514e+01  -3.670286e+01
  -5.396924e+01   1.264358e+01
  -8.039142e+01   7.101308e+00
  -4.202344e+01  -4.959782e+01
   4.221980e+01  -8.830279e+01
   1.020504e+02  -5.610381e+01
   8.560707e+01   3.453715e+01
  -1.229182e+01   1.106187e+02
  -1.411297e+02   8.807687e+01
  -1.995267e+02  -4.857211e+01
  -1.048279e+02  -2.021811e+02
   1.041539e+02  -2.332218e+02
   2.697531e+02  -1.012471e+02
   2.632212e+02   8.434355e+01
   1.138831e+02   1.790112e+02
  -3.791757e+01   1.506202e+02
  -9.573802e+01   8.664701e+01
  -8.059894e+01   7.122768e+01
  -6.750100e+01   9.256423e+01
  -9.313579e+01   7.558010e+01
  -1.298997e+02  -2.149291e+01
  -1.203603e+02  -1.551317e+02
  -3.215535e+01  -2.289385e+02
   9.845062e+01  -1.758716e+02
   1.781598e+02  -2.298567e+01
   1.400297e+02   1.220008e+02
   2.144613e+01   1.620047e+02
  -6.708382e+01   9.491014e+01
  -6.090868e+01   1.929341e+00
  -5.748594e+00  -4.268882e+01
   9.557432e+00  -3.507131e+01
  -3.715751e+01  -1.853599e+01
  -8.008300e+01  -2.262758e+01
  -4.528280e+01  -3.820754e+01
   6.371186e+01  -3.769506e+01
   1.589206e+02  -4.524883e+00
   1.452584e+02   5.014155e+01
   1.701515e+01   8.906160e+01
  -1.207253e+02   7.596757e+01
  -1.467733e+02   1.518572e+01
  -4.962403e+01  -4.061444e+01
   6.051854e+01  -3.812735e+01
   7.681680e+01   1.861247e+01
   7.940763e+00   6.882083e+01
  -5.623812e+01   5.862409e+01
  -6.380101e+01  -1.745345e+00
  -4.446627e+01  -5.018819e+01
  -4.406658e+01  -4.191719e+01
  -6.225321e+01  -1.925153e+00
  -6.692221e+01  -1.379470e-01
  -3.575912e+01  -6.782911e+01
   3.220916e+01  -1.470356e+02
   1.159782e+02  -1.433291e+02
   1.648742e+02  -3.491606e+01
   1.248933e+02   9.079076e+01
   7.891383e+00   1.270804e+02
  -8.602386e+01   6.254624e+01
  -6.053366e+01  -1.480489e+01
   5.958647e+01  -2.071628e+01
   1.394023e+02   4.286905e+01
   7.783466e+01   1.078887e+02
  -8.043452e+01   1.144032e+02
  -1.926820e+02   5.446110e+01
  -1.650223e+02  -3.251524e+01
  -3.874293e+01  -8.742573e+01
   6.091214e+01  -7.192591e+01
   4.961489e+01  -8.208525e+00
  -3.879180e+01   2.735503e+01
  -9.153279e+01  -2.204100e+01
  -3.401769e+01  -1.196091e+02
   9.140059e+01  -1.563914e+02
   1.688485e+02  -6.398539e+01
   1.287421e+02   1.008002e+02
   1.181737e+01   1.995878e+02
  -8.533978e+01   1.464825e+02
  -1.058189e+02  -5.681569e+00
  -6.256455e+01  -1.185930e+02
   4.409395e-01  -1.079051e+02
   4.596127e+01  -2.110227e+01
   5.312750e+01   3.110967e+01
   2.666507e+01   8.628878e+00
   3.754313e+00  -2.098153e+01
   2.055825e+01   1.468185e+01
   5.690272e+01   8.887834e+01
   4.376554e+01   1.104861e+02
  -4.659312e+01   4.627194e+01
  -1.400873e+02  -3.893420e+01
  -1.321234e+02  -7.086646e+01
  -1.813252e+01  -4.991126e+01
   8.896460e+01  -2.282369e+01
   8.931462e+01  -8.482238e+00
   1.075296e+01   7.092669e+00
  -3.898707e+01   2.285152e+01
  -1.395298e+01   1.877623e+01
   2.185282e+01  -1.494083e+00
  -5.937473e+00  -9.327628e+00
  -7.531088e+01  -3.775656e+00
  -9.241548e+01  -2.359055e+01
  -8.408401e+00  -8.076848e+01
   1.193792e+02  -1.156312e+02
   1.866221e+02  -5.969416e+01
   1.426652e+02   6.745448e+01
   2.659529e+01   1.633009e+02
  -7.867270e+01   1.513611e+02
  -1.146231e+02   5.935513e+01
  -8.140008e+01  -2.137545e+01
  -2.525845e+01  -3.540929e+01
   3.179580e+00  -8.540353e+00
  -1.017719e+01  -3.781600e+00
  -3.381968e+01  -4.571506e+01
  -2.370323e+01  -9.059600e+01
   2.901659e+01  -7.237665e+01
   8.200099e+01   1.840872e+01
   7.809830e+01   1.090646e+02
   4.450607e+00   1.130894e+02
  -8.317372e+01   2.397891e+01
  -1.040331e+02  -7.596704e+01
  -3.246224e+01  -1.041068e+02
   6.674540e+01  -5.596296e+01
   9.835064e+01   1.161558e+01
   3.946167e+01   5.038180e+01
  -3.259557e+01   5.186664e+01
  -3.094802e+01   2.856469e+01
   3.463105e+01  -3.367251e-01
   6.983298e+01  -7.004698e+00
   1.500617e+01   2.507034e+01
  -7.948400e+01   6.693025e+01
  -1.158787e+02   5.996892e+01
  -6.402193e+01  -1.139858e+01
   1.556620e+01  -8.359193e+01
   5.269984e+01  -8.008905e+01
   3.681479e+01  -5.588608e+00
   1.478759e+00   5.640897e+01
  -2.577762e+01   4.302254e+01
  -3.668011e+01  -1.863040e+01
  -2.689968e+01  -5.424633e+01
   2.731479e+00  -3.274122e+01
   3.335532e+01   8.600861e+00
   3.996586e+01   2.078116e+01
   2.075291e+01   8.239852e-01
  -6.797456e-01  -1.395765e+01
  -6.919336e+00   3.536161e+00
  -6.914681e+00   3.700226e+01
  -1.702945e+01   4.468696e+01
  -3.257904e+01   7.265635e+00
  -3.017384e+01  -4.553859e+01
   2.426515e+00  -6.134657e+01
   4.499219e+01  -2.065520e+01
   5.674674e+01   3.952231e+01
   1.462458e+01   6.355773e+01
  -5.499299e+01   3.436632e+01
  -8.925911e+01  -1.532603e+01
  -4.949936e+01  -4.417514e+01
   2.881653e+01  -4.091970e+01
   6.508089e+01  -2.147799e+01
   2.414753e+01  -4.892583e+00
  -3.785316e+01  -2.352537e+00
  -3.817305e+01  -1.608401e+01
   3.114104e+01  -3.179349e+01
   9.228038e+01  -2.010732e+01
