
 $NMID
 id='ANONYMOUS ', fmtdat='(2E16.6)'
 volume=1.0
 tramp=1.0
 $END
   4.783575e+03  -9.412092e+01
   2.819933e+03   2.916949e+03
  -8.721881e+02   3.102461e+03
  -2.440637e+03   9.306372e+02
  -1.076791e+03  -8.768481e+02
   7.987746e+02  -7.486087e+02
   1.071046e+03   4.823403e+02
   1.864153e+01   1.234153e+03
  -9.388593e+02   8.902058e+02
  -1.064788e+03  -1.211358e+02
  -5.018815e+02  -9.851716e+02
   2.923417e+02  -1.007862e+03
   7.481239e+02  -1.324970e+02
   4.546485e+02   8.104992e+02
  -3.043768e+02   8.443778e+02
  -6.908103e+02  -1.212910e+01
  -2.936346e+02  -7.654201e+02
   3.889636e+02  -6.881069e+02
   6.591940e+02  -6.414073e+01
   4.113759e+02   4.171859e+02
  -3.129973e+00   4.877129e+02
  -2.800816e+02   2.905247e+02
  -2.583237e+02   1.790299e+01
   8.845313e+01  -1.184942e+02
   4.357980e+02   7.717186e+01
   2.540407e+02   4.470359e+02
  -4.600988e+02   4.766859e+02
  -9.292212e+02  -4.075644e+01
  -5.079253e+02  -5.977451e+02
   4.029002e+02  -5.683093e+02
   8.226515e+02   5.172400e-01
   4.043296e+02   5.183095e+02
  -2.888520e+02   5.781934e+02
  -6.130169e+02   2.332468e+02
  -4.624203e+02  -2.478993e+02
  -8.468179e+01  -5.350087e+02
   2.350142e+02  -3.353718e+02
   2.336490e+02   2.335143e+02
  -1.460909e+02   5.124376e+02
  -5.049825e+02   2.609873e+01
  -3.168582e+02  -7.337017e+02
   3.285742e+02  -7.969871e+02
   6.924843e+02  -2.952094e+01
   3.222493e+02   6.197018e+02
  -3.189723e+02   3.854209e+02
  -4.513642e+02  -3.322526e+02
   4.953391e+01  -6.026703e+02
   5.988892e+02  -1.672357e+02
   6.482894e+02   4.281164e+02
   1.817168e+02   6.346572e+02
  -4.135436e+02   3.863219e+02
  -6.856299e+02  -7.312016e+01
  -4.125436e+02  -4.307998e+02
   1.717664e+02  -4.230464e+02
   5.023035e+02  -6.665150e+01
   2.769998e+02   2.404233e+02
  -1.426387e+02   1.437853e+02
  -1.822427e+02  -1.746570e+02
   1.742137e+02  -2.304891e+02
   3.938641e+02   7.261374e+01
   1.625663e+02   3.376528e+02
  -2.273561e+02   2.797120e+02
  -3.538300e+02   5.801472e+01
  -1.879228e+02  -9.757864e+01
   4.169784e+01  -2.120992e+02
   2.210150e+02  -3.198125e+02
   3.398304e+02  -2.353214e+02
   3.136796e+02   1.309782e+02
   9.717381e+01   4.701881e+02
  -1.319077e+02   4.270962e+02
  -1.567916e+02   1.172593e+02
  -3.859625e+01  -3.880640e+01
  -2.725457e+01   7.266421e+01
  -1.821710e+02   1.456057e+02
  -2.918841e+02  -3.507062e+01
  -1.841026e+02  -2.776246e+02
   6.169650e+01  -2.809859e+02
   2.406685e+02  -2.765600e+01
   2.210056e+02   2.438575e+02
   3.180004e+00   3.145590e+02
  -2.768312e+02   1.368992e+02
  -3.890801e+02  -1.678349e+02
  -2.056932e+02  -3.777624e+02
   1.102793e+02  -3.366744e+02
   2.559176e+02  -1.265555e+02
   1.681504e+02   1.147440e+01
   9.664152e+01  -2.196534e+01
   2.297282e+02  -6.736337e+01
   4.096725e+02   5.305086e+01
   3.462412e+02   2.928436e+02
   2.566669e+00   4.591040e+02
  -3.683334e+02   4.301123e+02
  -5.076259e+02   2.154228e+02
  -3.612413e+02  -9.002846e+01
  -7.010241e+01  -3.130482e+02
   1.382241e+02  -2.818862e+02
   1.033409e+02  -3.782551e+01
  -1.050767e+02   1.276997e+02
  -2.177290e+02   9.191022e+00
  -6.937843e+01  -2.135457e+02
   1.719952e+02  -2.018439e+02
   2.057769e+02   5.718978e+01
  -8.143821e+00   2.159843e+02
  -2.077491e+02   4.612656e+01
  -1.748082e+02  -2.609398e+02
   3.617539e+01  -3.673319e+02
   2.401873e+02  -1.940382e+02
   3.308024e+02   7.137934e+01
   2.834659e+02   2.429385e+02
   1.044278e+02   2.668774e+02
  -1.120031e+02   1.695020e+02
  -1.901228e+02   2.853545e+01
  -6.979298e+01  -3.549805e+01
   7.450272e+01   3.224698e+01
   4.049649e+01   1.292648e+02
  -1.253032e+02   1.124604e+02
  -1.928406e+02  -5.871691e+00
  -6.998238e+01  -7.709500e+01
   7.897438e+01  -2.443435e+01
   5.893234e+01   6.850348e+01
  -1.215177e+02   8.557888e+01
  -2.834293e+02   1.464270e+00
  -2.695123e+02  -1.366731e+02
  -6.913432e+01  -2.577712e+02
   1.819784e+02  -2.744953e+02
   2.952989e+02  -1.408747e+02
   1.868150e+02   5.132053e+01
  -2.003317e+01   1.222833e+02
  -1.005880e+02   1.577172e+01
   2.560531e+01  -1.088313e+02
   2.032689e+02  -7.033505e+01
   2.289676e+02   1.031076e+02
   7.839477e+01   2.205279e+02
  -9.716727e+01   1.716365e+02
  -1.539041e+02   3.605188e+01
  -8.116652e+01  -4.175072e+01
   2.134176e+01  -8.254682e+00
   3.786310e+01   7.670991e+01
  -6.719572e+01   1.113142e+02
  -1.983109e+02   3.260568e+01
  -1.992444e+02  -1.229699e+02
  -2.644506e+01  -2.273507e+02
   1.717339e+02  -1.755803e+02
   2.084449e+02  -7.718576e+00
   7.366445e+01   1.240004e+02
  -6.892481e+01   1.218876e+02
  -9.010210e+01   3.544526e+01
  -2.464547e+01  -2.517903e+01
   1.636617e+01  -2.017337e+01
  -1.255800e+01   3.049522e+00
  -6.885935e+01  -1.449881e+01
  -8.412329e+01  -8.362017e+01
  -1.414326e+01  -1.568469e+02
   1.250263e+02  -1.541156e+02
   2.369880e+02  -3.060968e+01
   2.098999e+02   1.507440e+02
   4.598671e+01   2.473576e+02
  -1.139238e+02   1.800693e+02
  -1.435252e+02   2.788262e+01
  -7.365844e+01  -6.171032e+01
  -2.882968e+01  -3.999514e+01
  -5.473991e+01   1.143436e+01
  -7.991004e+01   5.169169e+00
  -3.759538e+01  -5.082153e+01
   4.679382e+01  -8.498538e+01
   1.008700e+02  -5.011755e+01
   8.005363e+01   3.652187e+01
  -1.520762e+01   1.068028e+02
  -1.392755e+02   8.400702e+01
  -1.979730e+02  -4.880811e+01
  -1.067770e+02  -2.014365e+02
   1.025769e+02  -2.351882e+02
   2.730316e+02  -1.038530e+02
   2.695030e+02   8.543336e+01
   1.178399e+02   1.836318e+02
  -3.847282e+01   1.550022e+02
  -9.921128e+01   8.904842e+01
  -8.517311e+01   7.277308e+01
  -7.218647e+01   9.357495e+01
  -9.669718e+01   7.469442e+01
  -1.314330e+02  -2.467309e+01
  -1.202965e+02  -1.592550e+02
  -3.110745e+01  -2.328035e+02
   1.007605e+02  -1.790052e+02
   1.815356e+02  -2.453539e+01
   1.429465e+02   1.228469e+02
   2.308113e+01   1.645405e+02
  -6.570003e+01   9.767578e+01
  -5.944364e+01   4.689717e+00
  -6.167661e+00  -3.965436e+01
   6.269697e+00  -3.317180e+01
  -4.050888e+01  -1.971371e+01
  -8.043468e+01  -2.577625e+01
  -4.400714e+01  -3.952099e+01
   6.319697e+01  -3.563595e+01
   1.569717e+02  -2.075236e+00
   1.452120e+02   4.965321e+01
   1.908574e+01   8.636944e+01
  -1.199662e+02   7.428059e+01
  -1.482061e+02   1.579215e+01
  -4.986014e+01  -3.897323e+01
   6.275398e+01  -3.650656e+01
   7.739756e+01   2.029150e+01
   3.822832e+00   7.009155e+01
  -6.119943e+01   5.810920e+01
  -6.405134e+01  -4.316405e+00
  -4.112731e+01  -5.305797e+01
  -4.295885e+01  -4.329368e+01
  -6.476314e+01  -2.071991e+00
  -6.823724e+01  -6.583651e-01
  -3.263936e+01  -6.926154e+01
   3.680955e+01  -1.479204e+02
   1.177844e+02  -1.418803e+02
   1.638425e+02  -3.141582e+01
   1.234662e+02   9.367880e+01
   6.761573e+00   1.268670e+02
  -8.742179e+01   5.973873e+01
  -6.125308e+01  -1.712750e+01
   6.111642e+01  -2.033503e+01
   1.423676e+02   4.519022e+01
   7.938676e+01   1.101263e+02
  -8.185943e+01   1.158664e+02
  -1.959760e+02   5.549958e+01
  -1.680965e+02  -3.231546e+01
  -4.032376e+01  -8.886206e+01
   6.075670e+01  -7.433123e+01
   4.959435e+01  -9.983658e+00
  -3.989981e+01   2.613300e+01
  -9.259872e+01  -2.454336e+01
  -3.175536e+01  -1.236380e+02
   9.811710e+01  -1.589765e+02
   1.759576e+02  -6.211462e+01
   1.308736e+02   1.064108e+02
   8.746252e+00   2.052448e+02
  -8.896864e+01   1.493356e+02
  -1.071499e+02  -5.731829e+00
  -6.340610e+01  -1.200501e+02
  -1.609273e+00  -1.092748e+02
   4.487179e+01  -2.160856e+01
   5.519408e+01   3.116382e+01
   2.941892e+01   8.273226e+00
   3.198443e+00  -2.181306e+01
   1.756684e+01   1.483934e+01
   5.613169e+01   9.094532e+01
   4.623715e+01   1.127654e+02
  -4.534874e+01   4.612472e+01
  -1.429788e+02  -4.152309e+01
  -1.355681e+02  -7.319829e+01
  -1.721813e+01  -5.022007e+01
   9.309630e+01  -2.213559e+01
   9.121407e+01  -8.283712e+00
   8.713680e+00   7.097922e+00
  -4.086846e+01   2.351140e+01
  -1.244649e+01   1.961965e+01
   2.417451e+01  -1.446902e+00
  -7.062341e+00  -1.008496e+01
  -7.910873e+01  -5.107762e+00
  -9.362747e+01  -2.596859e+01
  -4.076670e+00  -8.375131e+01
   1.263325e+02  -1.164260e+02
   1.910853e+02  -5.582430e+01
   1.425673e+02   7.422816e+01
   2.349336e+01   1.680619e+02
  -8.247686e+01   1.514282e+02
  -1.177327e+02   5.668802e+01
  -8.284431e+01  -2.348571e+01
  -2.448977e+01  -3.592949e+01
   5.250472e+00  -8.232988e+00
  -8.844231e+00  -3.344227e+00
  -3.406967e+01  -4.574837e+01
  -2.396898e+01  -9.160257e+01
   3.052817e+01  -7.318848e+01
   8.431605e+01   2.043755e+01
   7.804704e+01   1.141617e+02
   6.548332e-01   1.168771e+02
  -8.792740e+01   2.207183e+01
  -1.054533e+02  -8.181687e+01
  -2.955648e+01  -1.075814e+02
   7.049859e+01  -5.411539e+01
   9.895682e+01   1.509093e+01
   3.685225e+01   5.083594e+01
  -3.479073e+01   4.965409e+01
  -2.984075e+01   2.723717e+01
   3.789974e+01   5.234443e-01
   7.170610e+01  -5.671020e+00
   1.377233e+01   2.563086e+01
  -8.198456e+01   6.717446e+01
  -1.167546e+02   6.001739e+01
  -6.251299e+01  -1.222030e+01
   1.788893e+01  -8.461017e+01
   5.403397e+01  -7.915682e+01
   3.647495e+01  -2.343098e+00
  -3.031570e-01   5.906145e+01
  -2.808909e+01   4.233496e+01
  -3.796359e+01  -2.155177e+01
  -2.608649e+01  -5.592747e+01
   4.672769e+00  -3.182675e+01
   3.420321e+01   1.016478e+01
   3.923848e+01   2.096890e+01
   2.056838e+01   2.463599e-01
   1.023703e+00  -1.319692e+01
  -5.688536e+00   6.326687e+00
  -9.565212e+00   4.003039e+01
  -2.277562e+01   4.520981e+01
  -3.637768e+01   4.082447e+00
  -2.867720e+01  -5.063212e+01
   6.923899e+00  -6.459149e+01
   4.784579e+01  -1.959940e+01
   5.641020e+01   4.343752e+01
   1.297832e+01   6.625873e+01
  -5.627272e+01   3.334858e+01
  -9.002008e+01  -1.856178e+01
  -4.934204e+01  -4.616722e+01
   3.063626e+01  -4.003099e+01
   6.730386e+01  -1.908875e+01
   2.375731e+01  -3.475520e+00
  -4.137287e+01  -3.231775e+00
  -4.082378e+01  -1.872454e+01
   3.330027e+01  -3.427583e+01
   9.759192e+01  -2.033893e+01
