
 $NMID
 id='ANONYMOUS ', fmtdat='(2E16.6)'
 volume=1.0
 tramp=1.0
 $END
  -3.418954e+03  -6.922697e+01
  -2.201352e+03  -1.792303e+03
   7.442796e+01  -2.153934e+03
   1.348926e+03  -1.235221e+03
   9.687758e+02  -1.405687e+02
  -2.039841e+01   2.245238e+02
  -4.129957e+02  -1.382788e+02
  -4.022492e+01  -6.047975e+02
   4.988182e+02  -6.055564e+02
   6.865268e+02  -6.931843e+01
   4.391503e+02   5.547453e+02
  -1.896216e+01   6.855536e+02
  -3.382097e+02   1.817130e+02
  -2.582910e+02  -4.548423e+02
   1.360661e+02  -5.729117e+02
   4.324038e+02  -7.162865e+01
   3.013322e+02   5.175233e+02
  -1.458734e+02   6.407998e+02
  -4.904668e+02   2.675101e+02
  -4.494541e+02  -1.953865e+02
  -1.251726e+02  -3.776540e+02
   1.360329e+02  -2.535226e+02
   8.474865e+01  -7.486018e+01
  -1.827018e+02  -8.675444e+01
  -2.936002e+02  -2.767394e+02
   3.555307e+00  -3.805345e+02
   4.887966e+02  -1.831551e+02
   6.420121e+02   1.934572e+02
   2.388032e+02   3.933250e+02
  -3.438248e+02   2.262854e+02
  -5.358573e+02  -1.371809e+02
  -2.014028e+02  -3.875615e+02
   2.776799e+02  -3.707532e+02
   4.790110e+02  -1.320855e+02
   3.365879e+02   1.739778e+02
   8.008245e+01   3.332860e+02
  -4.910463e+01   1.950220e+02
   2.503824e+01  -1.061537e+02
   1.896861e+02  -1.849782e+02
   2.296082e+02   1.410319e+02
   2.646756e+01   5.267129e+02
  -2.712369e+02   4.715881e+02
  -3.600366e+02  -7.527592e+00
  -1.294439e+02  -3.474288e+02
   1.711742e+02  -1.558035e+02
   1.934841e+02   2.879704e+02
  -1.190239e+02   4.117049e+02
  -4.672499e+02   5.827806e+01
  -5.024707e+02  -3.915693e+02
  -1.534693e+02  -5.181405e+02
   3.176880e+02  -2.770292e+02
   5.394688e+02   7.311767e+01
   3.477014e+02   2.733897e+02
  -6.069517e+01   2.428789e+02
  -3.092125e+02   7.846360e+01
  -2.224482e+02  -4.558016e+01
   3.110423e+00  -2.912162e+01
   5.627827e+01   5.961096e+01
  -1.091963e+02   6.867640e+01
  -2.422702e+02  -5.471533e+01
  -1.260352e+02  -2.077423e+02
   1.620071e+02  -2.515716e+02
   3.516623e+02  -1.328353e+02
   2.678262e+02   1.004476e+02
  -2.364925e+01   3.232559e+02
  -3.022888e+02   3.723825e+02
  -3.806345e+02   1.656629e+02
  -2.437811e+02  -1.703817e+02
  -4.564034e+01  -3.763923e+02
   4.843274e+01  -3.289622e+02
   3.033742e+01  -1.698069e+02
   3.235261e+01  -1.004124e+02
   1.362361e+02  -1.177707e+02
   2.566078e+02  -5.931748e+01
   2.502355e+02   1.242975e+02
   9.278254e+01   2.689350e+02
  -1.015226e+02   2.010625e+02
  -1.991133e+02  -4.333978e+01
  -1.384434e+02  -2.544318e+02
   5.240573e+01  -2.591932e+02
   2.567010e+02  -6.254388e+01
   3.162034e+02   1.832739e+02
   1.679564e+02   3.126077e+02
  -6.102962e+01   2.729196e+02
  -1.764052e+02   1.519528e+02
  -1.505296e+02   7.508719e+01
  -1.494566e+02   6.768091e+01
  -2.846088e+02   3.710111e+01
  -4.213402e+02  -1.019795e+02
  -3.251416e+02  -3.108117e+02
   3.150000e+01  -4.499826e+02
   3.976494e+02  -4.024180e+02
   4.960034e+02  -1.717463e+02
   2.956732e+02   1.091446e+02
   1.616631e+01   2.616513e+02
  -1.032670e+02   2.028909e+02
  -1.636167e+01   3.532922e+01
   1.230701e+02  -4.340931e+01
   1.377246e+02   4.132557e+01
   6.514856e+00   1.500076e+02
  -1.264518e+02   1.076313e+02
  -1.149780e+02  -5.848803e+01
   3.288325e+01  -1.377817e+02
   1.683503e+02   2.020555e+00
   1.517550e+02   2.446228e+02
  -2.687578e+01   3.507080e+02
  -2.507852e+02   2.095794e+02
  -3.652912e+02  -6.791695e+01
  -2.835759e+02  -2.738481e+02
  -5.957378e+01  -2.846706e+02
   1.353531e+02  -1.434708e+02
   1.570685e+02  -2.906270e+00
   3.606587e+01   1.671827e+01
  -5.307884e+01  -6.393518e+01
   5.171427e+00  -1.186952e+02
   1.302431e+02  -6.738416e+01
   1.522196e+02   3.118413e+01
   3.140681e+01   5.901199e+01
  -8.568621e+01  -1.349661e+01
  -3.933569e+01  -9.701721e+01
   1.542303e+02  -8.905820e+01
   3.109371e+02   2.664675e+01
   2.631757e+02   1.798649e+02
   2.479258e+01   2.725241e+02
  -2.186549e+02   2.385764e+02
  -2.797657e+02   9.448085e+01
  -1.413570e+02  -5.124822e+01
   3.346924e+01  -8.093616e+01
   6.729986e+01   7.015411e+00
  -5.672522e+01   8.293945e+01
  -1.921538e+02   3.073097e+01
  -1.917715e+02  -1.114593e+02
  -5.337314e+01  -1.950571e+02
   9.473620e+01  -1.377977e+02
   1.296555e+02  -1.429814e+01
   4.685128e+01   3.934789e+01
  -4.423380e+01  -2.180589e+01
  -2.744332e+01  -1.140520e+02
   1.019396e+02  -1.212441e+02
   2.184814e+02  -9.687188e+00
   1.856223e+02   1.426164e+02
   6.539784e+00   2.154790e+02
  -1.641495e+02   1.514817e+02
  -1.795137e+02   7.174625e+00
  -5.419715e+01  -9.883566e+01
   6.578745e+01  -9.640181e+01
   7.262543e+01  -2.349392e+01
   6.276917e-01   2.628744e+01
  -3.896651e+01   9.054614e+00
   8.863247e+00  -2.638112e+01
   9.113848e+01  -1.239422e+00
   1.075986e+02   9.581924e+01
   9.007906e+00   1.820138e+02
  -1.501775e+02   1.564727e+02
  -2.469764e+02   6.053129e+00
  -1.954559e+02  -1.677398e+02
  -3.344865e+01  -2.360960e+02
   1.076071e+02  -1.619441e+02
   1.332275e+02  -2.928880e+01
   7.472315e+01   4.645098e+01
   3.414140e+01   3.016552e+01
   5.754846e+01  -1.405216e+01
   9.069804e+01  -6.134794e+00
   5.780128e+01   5.970142e+01
  -4.224199e+01   1.093002e+02
  -1.277525e+02   6.916128e+01
  -1.105954e+02  -4.708321e+01
   1.950345e+01  -1.344958e+02
   1.710152e+02  -9.127817e+01
   2.122344e+02   7.163660e+01
   8.375618e+01   2.224653e+02
  -1.337361e+02   2.268998e+02
  -2.779578e+02   7.847467e+01
  -2.496829e+02  -9.843449e+01
  -9.774057e+01  -1.760967e+02
   4.425488e+01  -1.408922e+02
   9.247041e+01  -8.020825e+01
   7.262648e+01  -7.032391e+01
   6.130818e+01  -9.617965e+01
   9.418022e+01  -8.067295e+01
   1.353426e+02   2.062544e+01
   1.202940e+02   1.603416e+02
   2.337291e+01   2.328081e+02
  -1.064505e+02   1.695300e+02
  -1.754957e+02   8.225076e+00
  -1.276904e+02  -1.336317e+02
  -6.305438e+00  -1.611442e+02
   7.969997e+01  -8.171625e+01
   6.488563e+01   1.604781e+01
  -4.722563e+00   5.573647e+01
  -2.844570e+01   3.715792e+01
   2.762316e+01   1.288953e+01
   8.679042e+01   1.941701e+01
   5.117831e+01   4.209186e+01
  -7.625104e+01   4.038558e+01
  -1.795677e+02  -4.579474e+00
  -1.480999e+02  -6.821276e+01
   2.411431e+00  -1.016218e+02
   1.402251e+02  -7.378057e+01
   1.502367e+02  -2.834740e+00
   4.492348e+01   5.293851e+01
  -6.230708e+01   4.441915e+01
  -8.030059e+01  -1.972734e+01
  -1.899897e+01  -7.614117e+01
   4.797909e+01  -6.731501e+01
   7.086632e+01  -1.899350e+00
   5.933377e+01   5.274207e+01
   4.906140e+01   4.537611e+01
   5.685730e+01   2.834709e+00
   6.688703e+01   2.149119e+00
   4.518813e+01   7.532558e+01
  -2.959120e+01   1.572762e+02
  -1.318389e+02   1.490406e+02
  -1.872361e+02   3.234625e+01
  -1.337255e+02  -9.962332e+01
  -2.576474e-01  -1.377124e+02
   9.659168e+01  -7.062282e+01
   6.409237e+01   1.165433e+01
  -6.005153e+01   2.043701e+01
  -1.367673e+02  -4.462952e+01
  -7.063652e+01  -1.104081e+02
   8.785240e+01  -1.106835e+02
   1.949374e+02  -4.181329e+01
   1.599501e+02   4.488639e+01
   2.972144e+01   8.799731e+01
  -6.729879e+01   6.146457e+01
  -5.010713e+01  -2.300425e+00
   4.169269e+01  -3.163417e+01
   9.524379e+01   2.090785e+01
   4.007538e+01   1.190575e+02
  -8.240828e+01   1.593378e+02
  -1.621268e+02   7.120950e+01
  -1.289374e+02  -9.453767e+01
  -1.500038e+01  -1.970848e+02
   8.566317e+01  -1.430283e+02
   1.065726e+02   1.325224e+01
   5.468380e+01   1.243484e+02
  -1.535516e+01   1.054186e+02
  -5.350054e+01   1.430994e+01
  -4.594402e+01  -3.393071e+01
  -1.688956e+01  -7.994327e+00
  -6.426356e+00   1.786005e+01
  -3.133605e+01  -2.211880e+01
  -5.829322e+01  -9.310093e+01
  -3.119589e+01  -1.082323e+02
   5.820018e+01  -4.290133e+01
   1.385907e+02   3.970926e+01
   1.247957e+02   7.264537e+01
   1.835572e+01   5.490168e+01
  -8.251115e+01   2.563375e+01
  -8.867727e+01   4.765840e+00
  -1.800627e+01  -1.206237e+01
   3.539789e+01  -2.149134e+01
   2.037431e+01  -1.286950e+01
  -1.499826e+01   3.821562e+00
   2.721211e+00   5.708286e+00
   6.796141e+01  -5.150004e-01
   9.529124e+01   2.281323e+01
   2.217276e+01   8.305662e+01
  -1.105038e+02   1.205215e+02
  -1.934927e+02   6.752004e+01
  -1.567506e+02  -6.037370e+01
  -3.249271e+01  -1.633821e+02
   8.335781e+01  -1.590727e+02
   1.201344e+02  -6.712556e+01
   8.255805e+01   2.000407e+01
   2.707402e+01   3.922940e+01
   2.718187e+00   1.347807e+01
   1.439701e+01   8.849700e+00
   3.066206e+01   5.085127e+01
   1.748931e+01   9.381243e+01
  -3.049780e+01   7.352753e+01
  -8.020825e+01  -1.568169e+01
  -8.158415e+01  -1.042729e+02
  -1.450793e+01  -1.130054e+02
   7.642592e+01  -3.284619e+01
   1.080995e+02   6.642297e+01
   4.118920e+01   1.056567e+02
  -6.550296e+01   6.617007e+01
  -1.067687e+02  -7.856321e+00
  -4.716057e+01  -5.983865e+01
   3.527072e+01  -6.355713e+01
   4.162980e+01  -3.010768e+01
  -2.643430e+01   5.996388e+00
  -7.005926e+01   9.019482e+00
  -1.893548e+01  -2.803764e+01
   8.076364e+01  -6.688577e+01
   1.247189e+02  -5.400516e+01
   7.341603e+01   1.767698e+01
  -1.406177e+01   8.730844e+01
  -5.993593e+01   8.541101e+01
  -4.634039e+01   1.351130e+01
  -7.400854e+00  -5.337220e+01
   2.414699e+01  -4.959578e+01
   3.758189e+01   1.035437e+01
   2.927329e+01   5.520326e+01
  -5.788991e-01   4.102459e+01
  -3.416131e+01  -5.077367e+00
  -4.322634e+01  -2.625402e+01
  -2.148549e+01  -5.179585e+00
   4.180182e+00   2.053044e+01
   7.117234e+00   9.056611e+00
  -4.098109e+00  -3.228639e+01
   6.399813e-01  -5.388894e+01
   2.710779e+01  -2.274872e+01
   4.199825e+01   3.530711e+01
   1.357783e+01   6.089578e+01
  -4.108547e+01   2.646806e+01
  -6.439407e+01  -3.357714e+01
  -2.022575e+01  -6.172501e+01
   5.847848e+01  -3.711480e+01
   9.584678e+01   1.151950e+01
   5.227688e+01   4.438516e+01
  -2.927618e+01   4.694619e+01
  -6.698718e+01   2.913861e+01
  -2.985238e+01   7.317284e+00
   2.872488e+01  -3.368975e+00
   3.400810e+01   6.396386e+00
  -2.372932e+01   2.563205e+01
  -7.992024e+01   2.124880e+01
