
 $NMID
 id='ANONYMOUS ', fmtdat='(2E16.6)'
 volume=1.0
 tramp=1.0
 $END
   3.297041e+03  -4.595845e+01
   2.166242e+03   1.726341e+03
  -9.018521e+01   2.126080e+03
  -1.362751e+03   1.170569e+03
  -9.498764e+02   3.727330e+01
   7.548656e+01  -2.967316e+02
   4.671842e+02   1.311816e+02
   6.827364e+01   6.256463e+02
  -4.889509e+02   6.136770e+02
  -6.819285e+02   6.727059e+01
  -4.366925e+02  -5.509445e+02
   2.548713e+01  -6.796349e+02
   3.560286e+02  -1.839840e+02
   2.793071e+02   4.466744e+02
  -1.260173e+02   5.667288e+02
  -4.297714e+02   7.290244e+01
  -2.935775e+02  -5.017948e+02
   1.520603e+02  -6.093135e+02
   4.773488e+02  -2.380568e+02
   4.230345e+02   2.011798e+02
   1.107100e+02   3.650186e+02
  -1.367811e+02   2.458362e+02
  -9.831476e+01   7.162080e+01
   1.508661e+02   6.098840e+01
   2.802848e+02   2.257928e+02
   3.035149e+01   3.475087e+02
  -4.342045e+02   2.036015e+02
  -6.187932e+02  -1.440141e+02
  -2.617294e+02  -3.709496e+02
   3.068775e+02  -2.509828e+02
   5.207803e+02   9.472830e+01
   2.169378e+02   3.611435e+02
  -2.451828e+02   3.676597e+02
  -4.511330e+02   1.432146e+02
  -3.292466e+02  -1.598086e+02
  -8.655244e+01  -3.282630e+02
   5.687906e+01  -2.035926e+02
   1.060063e+01   1.004367e+02
  -1.546622e+02   2.052915e+02
  -2.352108e+02  -9.856388e+01
  -6.909966e+01  -4.956488e+02
   2.379423e+02  -4.751995e+02
   3.661446e+02  -1.494523e+01
   1.551513e+02   3.400427e+02
  -1.621954e+02   1.762325e+02
  -2.106430e+02  -2.576894e+02
   9.038629e+01  -3.987202e+02
   4.403899e+02  -7.559223e+01
   4.851579e+02   3.545298e+02
   1.549439e+02   4.884424e+02
  -2.962485e+02   2.748121e+02
  -5.147033e+02  -5.596262e+01
  -3.377292e+02  -2.630172e+02
   5.753400e+01  -2.488524e+02
   3.058373e+02  -8.272275e+01
   2.202943e+02   5.803907e+01
  -1.222995e+01   4.507634e+01
  -7.084420e+01  -6.112864e+01
   1.000254e+02  -8.436396e+01
   2.411640e+02   4.348087e+01
   1.280245e+02   2.028400e+02
  -1.529357e+02   2.399184e+02
  -3.272593e+02   1.184426e+02
  -2.400260e+02  -9.343382e+01
   2.546795e+01  -2.881488e+02
   2.695648e+02  -3.380773e+02
   3.429012e+02  -1.623558e+02
   2.326073e+02   1.479341e+02
   5.534833e+01   3.550650e+02
  -4.604881e+01   3.184882e+02
  -4.195965e+01   1.572603e+02
  -3.566396e+01   7.878962e+01
  -1.153152e+02   1.006902e+02
  -2.250354e+02   6.312856e+01
  -2.329849e+02  -1.012782e+02
  -9.833941e+01  -2.446100e+02
   8.421789e+01  -1.934857e+02
   1.857306e+02   2.886006e+01
   1.386442e+02   2.291211e+02
  -3.767078e+01   2.434753e+02
  -2.355370e+02   6.898878e+01
  -3.010343e+02  -1.615326e+02
  -1.650913e+02  -2.925145e+02
   5.614599e+01  -2.617053e+02
   1.710366e+02  -1.429759e+02
   1.440402e+02  -6.255228e+01
   1.339439e+02  -5.690739e+01
   2.556328e+02  -3.783863e+01
   3.870905e+02   8.554449e+01
   3.049903e+02   2.813294e+02
  -2.077139e+01   4.157121e+02
  -3.593671e+02   3.774601e+02
  -4.561193e+02   1.686620e+02
  -2.804097e+02  -9.314463e+01
  -2.539042e+01  -2.447367e+02
   9.370226e+01  -1.983609e+02
   2.380081e+01  -3.687527e+01
  -1.077675e+02   4.938182e+01
  -1.338969e+02  -2.806512e+01
  -1.685185e+01  -1.425184e+02
   1.165049e+02  -1.125934e+02
   1.163203e+02   4.884458e+01
  -2.304524e+01   1.348042e+02
  -1.576651e+02   6.541699e+00
  -1.457816e+02  -2.253460e+02
   2.168555e+01  -3.265850e+02
   2.293408e+02  -1.940646e+02
   3.348438e+02   6.109910e+01
   2.634191e+02   2.471342e+02
   6.176265e+01   2.587271e+02
  -1.201308e+02   1.356431e+02
  -1.475065e+02   8.345634e+00
  -3.785953e+01  -1.560132e+01
   5.054882e+01   5.432062e+01
   1.627743e+00   1.088799e+02
  -1.172472e+02   6.806649e+01
  -1.441636e+02  -2.291537e+01
  -3.444231e+01  -5.445545e+01
   7.697337e+01   7.954913e+00
   3.811370e+01   8.544610e+01
  -1.384143e+02   8.202453e+01
  -2.835552e+02  -1.986070e+01
  -2.437898e+02  -1.588894e+02
  -2.957403e+01  -2.481789e+02
   1.943755e+02  -2.248180e+02
   2.572849e+02  -9.559784e+01
   1.359340e+02   4.402006e+01
  -2.693489e+01   7.889062e+01
  -6.477487e+01  -1.985498e+00
   4.723064e+01  -7.857386e+01
   1.767539e+02  -3.491469e+01
   1.818840e+02   9.866231e+01
   5.496823e+01   1.813611e+02
  -8.500721e+01   1.319499e+02
  -1.213019e+02   1.781799e+01
  -4.739533e+01  -3.466938e+01
   3.738344e+01   1.757081e+01
   2.593790e+01   1.007816e+02
  -8.983577e+01   1.105015e+02
  -1.987388e+02   1.260139e+01
  -1.735352e+02  -1.273657e+02
  -1.074589e+01  -1.994888e+02
   1.500019e+02  -1.444756e+02
   1.688746e+02  -9.696107e+00
   5.419881e+01   9.262231e+01
  -5.908979e+01   9.255898e+01
  -6.821472e+01   2.443942e+01
  -3.308062e+00  -2.312727e+01
   3.307264e+01  -8.928191e+00
  -9.342992e+00   2.218365e+01
  -8.257961e+01  -5.937422e-01
  -9.739169e+01  -8.726886e+01
  -9.534552e+00  -1.652891e+02
   1.347579e+02  -1.447469e+02
   2.261103e+02  -1.013566e+01
   1.830708e+02   1.507350e+02
   3.501918e+01   2.185422e+02
  -9.776376e+01   1.529148e+02
  -1.240050e+02   2.866909e+01
  -7.007532e+01  -4.385864e+01
  -3.172297e+01  -2.881515e+01
  -5.287728e+01   1.315060e+01
  -8.268597e+01   5.979274e+00
  -5.149935e+01  -5.457313e+01
   3.952363e+01  -9.908740e+01
   1.154247e+02  -6.199678e+01
   9.901811e+01   4.267161e+01
  -1.747963e+01   1.214148e+02
  -1.541753e+02   8.388409e+01
  -1.943786e+02  -6.238142e+01
  -8.107818e+01  -2.016072e+02
   1.177808e+02  -2.105408e+02
   2.545395e+02  -7.768596e+01
   2.332603e+02   8.633118e+01
   9.449472e+01   1.617367e+02
  -3.831477e+01   1.318905e+02
  -8.501628e+01   7.626009e+01
  -6.765824e+01   6.651358e+01
  -5.699070e+01   8.969977e+01
  -8.679596e+01   7.496644e+01
  -1.250692e+02  -1.834567e+01
  -1.127028e+02  -1.469272e+02
  -2.467770e+01  -2.146282e+02
   9.573844e+01  -1.584833e+02
   1.620592e+02  -1.128327e+01
   1.204577e+02   1.204823e+02
   9.302868e+00   1.485144e+02
  -7.070959e+01   7.737149e+01
  -5.865544e+01  -1.226432e+01
   3.383028e+00  -4.940173e+01
   2.377897e+01  -3.323608e+01
  -2.730884e+01  -1.179953e+01
  -8.002296e+01  -1.804977e+01
  -4.685004e+01  -3.845327e+01
   6.892671e+01  -3.700213e+01
   1.633636e+02   2.776813e+00
   1.364435e+02   5.979108e+01
   3.485267e-01   9.141678e+01
  -1.267505e+02   6.872827e+01
  -1.380631e+02   5.351061e+00
  -4.194709e+01  -4.681534e+01
   5.755376e+01  -4.085263e+01
   7.413651e+01   1.764065e+01
   1.644410e+01   7.022339e+01
  -4.548459e+01   6.229901e+01
  -6.504215e+01   1.494075e+00
  -5.345971e+01  -4.900332e+01
  -4.505870e+01  -4.151419e+01
  -5.337942e+01  -1.642611e+00
  -6.192376e+01  -1.121313e+00
  -4.091896e+01  -6.909885e+01
   2.699061e+01  -1.449972e+02
   1.192535e+02  -1.376794e+02
   1.703406e+02  -3.059859e+01
   1.232390e+02   9.061067e+01
   1.785012e+00   1.258681e+02
  -8.811017e+01   6.467492e+01
  -5.929725e+01  -1.084837e+01
   5.542564e+01  -1.950989e+01
   1.274651e+02   3.973847e+01
   6.727074e+01   1.009566e+02
  -7.927479e+01   1.034448e+02
  -1.792933e+02   4.202521e+01
  -1.485902e+02  -3.826122e+01
  -2.947810e+01  -8.067837e+01
   6.036127e+01  -5.853265e+01
   4.574807e+01   3.726670e-01
  -3.828289e+01   2.899001e+01
  -8.812175e+01  -1.889777e+01
  -3.752655e+01  -1.105042e+02
   7.628984e+01  -1.487307e+02
   1.510171e+02  -6.704602e+01
   1.208219e+02   8.729391e+01
   1.547990e+01   1.831569e+02
  -7.786385e+01   1.338451e+02
  -9.837014e+01  -1.039971e+01
  -5.248212e+01  -1.135768e+02
   1.122031e+01  -9.725557e+01
   4.808922e+01  -1.413622e+01
   4.364751e+01   3.022281e+01
   1.701659e+01   6.707541e+00
   5.255211e+00  -1.684511e+01
   2.741691e+01   1.997807e+01
   5.446610e+01   8.535864e+01
   3.166366e+01   9.955926e+01
  -5.189027e+01   3.999788e+01
  -1.290303e+02  -3.535723e+01
  -1.172140e+02  -6.552423e+01
  -1.717641e+01  -5.012772e+01
   7.728299e+01  -2.459088e+01
   8.203417e+01  -5.746711e+00
   1.556894e+01   1.085951e+01
  -3.299683e+01   2.066006e+01
  -1.758088e+01   1.245600e+01
   1.489317e+01  -3.829576e+00
  -3.217534e+00  -5.519763e+00
  -6.422990e+01   1.032855e+00
  -8.826615e+01  -2.056528e+01
  -1.943296e+01  -7.742016e+01
   1.028123e+02  -1.127375e+02
   1.784549e+02  -6.295835e+01
   1.445934e+02   5.635650e+01
   3.088122e+01   1.515889e+02
  -7.574688e+01   1.470060e+02
  -1.105965e+02   6.201339e+01
  -7.668800e+01  -1.804145e+01
  -2.499131e+01  -3.576473e+01
  -1.578031e+00  -1.222934e+01
  -1.257046e+01  -7.704883e+00
  -2.897095e+01  -4.602153e+01
  -1.766099e+01  -8.602966e+01
   2.749401e+01  -6.822634e+01
   7.493075e+01   1.403581e+01
   7.648490e+01   9.678328e+01
   1.322308e+01   1.053256e+02
  -7.200203e+01   3.047481e+01
  -1.009603e+02  -6.207848e+01
  -3.796224e+01  -9.797241e+01
   6.095484e+01  -6.075276e+01
   9.826273e+01   7.325165e+00
   4.269855e+01   5.435825e+01
  -3.254139e+01   5.761073e+01
  -3.707553e+01   2.741802e+01
   2.586411e+01  -5.615834e+00
   6.498993e+01  -8.738103e+00
   1.712814e+01   2.570517e+01
  -7.411873e+01   6.269329e+01
  -1.136594e+02   5.141389e+01
  -6.665033e+01  -1.552969e+01
   1.266920e+01  -8.072308e+01
   5.422501e+01  -7.861678e+01
   4.215517e+01  -1.133618e+01
   6.799202e+00   5.019564e+01
  -2.256902e+01   4.548792e+01
  -3.536800e+01  -1.036447e+01
  -2.729184e+01  -5.095730e+01
   9.679033e-01  -3.713961e+01
   3.185249e+01   4.893490e+00
   3.956147e+01   2.346710e+01
   1.959851e+01   4.101229e+00
  -3.196913e+00  -1.839399e+01
  -5.845011e+00  -6.749998e+00
   3.005748e+00   3.121319e+01
  -2.770399e+00   4.987349e+01
  -2.662386e+01   1.973645e+01
  -3.843462e+01  -3.441793e+01
  -1.115161e+01  -5.743957e+01
   3.872926e+01  -2.443885e+01
   5.944070e+01   3.179467e+01
   1.873236e+01   5.765066e+01
  -5.362631e+01   3.438311e+01
  -8.840273e+01  -1.071041e+01
  -4.852249e+01  -4.083428e+01
   2.704977e+01  -4.301216e+01
   6.210786e+01  -2.654369e+01
   2.705065e+01  -6.384262e+00
  -2.813455e+01   3.252613e+00
  -3.275084e+01  -6.578391e+00
   2.231204e+01  -2.524839e+01
   7.556148e+01  -2.109365e+01
