
 $NMID
 id='ANONYMOUS ', fmtdat='(2E16.6)'
 volume=1.0
 tramp=1.0
 $END
  -4.630978e+03  -3.026900e+01
  -2.647226e+03  -2.837125e+03
   8.681099e+02  -2.921828e+03
   2.292144e+03  -8.604577e+02
   9.715873e+02   7.842471e+02
  -7.647930e+02   6.290434e+02
  -9.731744e+02  -5.014577e+02
   3.142200e+01  -1.164215e+03
   9.134690e+02  -8.203290e+02
   1.004859e+03   1.334042e+02
   4.564869e+02   9.418720e+02
  -2.908644e+02   9.466937e+02
  -6.998445e+02   1.018975e+02
  -4.036876e+02  -7.870841e+02
   3.082287e+02  -7.983156e+02
   6.540528e+02   2.540419e+01
   2.717632e+02   7.349390e+02
  -3.663240e+02   6.574753e+02
  -6.204446e+02   6.865355e+01
  -3.928328e+02  -3.893771e+02
   7.686517e-02  -4.623716e+02
   2.671954e+02  -2.726982e+02
   2.353717e+02  -8.456966e+00
  -1.136001e+02   1.070868e+02
  -4.362737e+02  -1.059941e+02
  -2.235098e+02  -4.586675e+02
   4.829295e+02  -4.490969e+02
   9.080580e+02   7.724369e+01
   4.625037e+02   5.960830e+02
  -4.222964e+02   5.278766e+02
  -8.010347e+02  -3.606301e+01
  -3.720139e+02  -5.185315e+02
   3.020431e+02  -5.537711e+02
   6.036613e+02  -2.115655e+02
   4.409701e+02   2.489746e+02
   6.712994e+01   5.121934e+02
  -2.275307e+02   3.041140e+02
  -1.976079e+02  -2.416776e+02
   1.759340e+02  -4.821866e+02
   4.898149e+02   1.201837e+01
   2.712397e+02   7.327465e+02
  -3.469689e+02   7.560299e+02
  -6.593001e+02  -1.417436e+00
  -2.796190e+02  -6.054737e+02
   3.217601e+02  -3.490473e+02
   4.207456e+02   3.466055e+02
  -7.071815e+01   5.860246e+02
  -5.906585e+02   1.456185e+02
  -6.268845e+02  -4.323519e+02
  -1.686386e+02  -6.205248e+02
   4.098614e+02  -3.654582e+02
   6.663763e+02   8.381097e+01
   3.902186e+02   4.175290e+02
  -1.748907e+02   3.937083e+02
  -4.791862e+02   5.143105e+01
  -2.532776e+02  -2.248222e+02
   1.383132e+02  -1.203894e+02
   1.596353e+02   1.731642e+02
  -1.802472e+02   2.084949e+02
  -3.751970e+02  -8.266319e+01
  -1.472426e+02  -3.257136e+02
   2.213277e+02  -2.694457e+02
   3.439413e+02  -6.470097e+01
   1.938906e+02   8.978021e+01
  -2.978219e+01   2.187882e+02
  -2.213258e+02   3.290657e+02
  -3.460467e+02   2.309979e+02
  -3.081478e+02  -1.388235e+02
  -8.440753e+01  -4.617327e+02
   1.308423e+02  -4.074490e+02
   1.392218e+02  -1.103897e+02
   2.580685e+01   2.631989e+01
   3.288227e+01  -8.549634e+01
   1.944293e+02  -1.431913e+02
   2.932138e+02   4.590131e+01
   1.739213e+02   2.818644e+02
  -7.111817e+01   2.747548e+02
  -2.407920e+02   1.783283e+01
  -2.128807e+02  -2.493286e+02
   6.084561e+00  -3.114900e+02
   2.786687e+02  -1.276941e+02
   3.806108e+02   1.733038e+02
   1.955001e+02   3.713560e+02
  -1.097148e+02   3.238499e+02
  -2.440238e+02   1.213446e+02
  -1.576402e+02  -4.751727e+00
  -9.659719e+01   3.060858e+01
  -2.351183e+02   6.912863e+01
  -4.113482e+02  -5.529101e+01
  -3.432795e+02  -2.930531e+02
   5.237651e-01  -4.570819e+02
   3.693136e+02  -4.269069e+02
   5.053960e+02  -2.094244e+02
   3.538632e+02   9.594913e+01
   6.072536e+01   3.100940e+02
  -1.401065e+02   2.694477e+02
  -9.468640e+01   2.997728e+01
   1.127743e+02  -1.206492e+02
   2.128513e+02   1.951275e+00
   5.798421e+01   2.111511e+02
  -1.740615e+02   1.878952e+02
  -1.959213e+02  -6.422715e+01
   1.664490e+01  -2.091038e+02
   2.063702e+02  -3.833458e+01
   1.702086e+02   2.587969e+02
  -3.579520e+01   3.617993e+02
  -2.373226e+02   1.950345e+02
  -3.307881e+02  -6.689016e+01
  -2.840109e+02  -2.430567e+02
  -1.014220e+02  -2.697635e+02
   1.150519e+02  -1.678243e+02
   1.875749e+02  -2.345396e+01
   6.456372e+01   3.625159e+01
  -7.467014e+01  -3.653597e+01
  -3.531638e+01  -1.309971e+02
   1.282993e+02  -1.080128e+02
   1.896160e+02   1.126066e+01
   6.444465e+01   7.795451e+01
  -8.208646e+01   2.149402e+01
  -5.919558e+01  -7.205040e+01
   1.229432e+02  -8.814566e+01
   2.857896e+02  -1.759824e+00
   2.704673e+02   1.394335e+02
   6.621443e+01   2.604812e+02
  -1.862723e+02   2.722466e+02
  -2.949809e+02   1.345927e+02
  -1.811074e+02  -5.442894e+01
   2.440502e+01  -1.186309e+02
   9.859981e+01  -1.088586e+01
  -3.022590e+01   1.082261e+02
  -2.037162e+02   6.551882e+01
  -2.244435e+02  -1.057323e+02
  -7.362513e+01  -2.182552e+02
   9.868065e+01  -1.669946e+02
   1.521326e+02  -3.194641e+01
   7.719819e+01   4.396189e+01
  -2.578848e+01   7.459974e+00
  -3.991802e+01  -8.023204e+01
   6.869370e+01  -1.143141e+02
   2.002698e+02  -3.231441e+01
   1.981252e+02   1.244685e+02
   2.378310e+01   2.258999e+02
  -1.712697e+02   1.714729e+02
  -2.039901e+02   5.480991e+00
  -6.929821e+01  -1.221522e+02
   6.999733e+01  -1.183382e+02
   8.867564e+01  -3.270276e+01
   2.238861e+01   2.707163e+01
  -1.918498e+01   2.095345e+01
   1.010358e+01  -4.839878e+00
   6.893456e+01   1.091198e+01
   8.668766e+01   8.181451e+01
   1.598430e+01   1.581361e+02
  -1.257125e+02   1.553238e+02
  -2.378222e+02   2.938170e+01
  -2.084317e+02  -1.518056e+02
  -4.390397e+01  -2.451165e+02
   1.135722e+02  -1.764706e+02
   1.411370e+02  -2.712662e+01
   7.189292e+01   5.955566e+01
   2.827858e+01   3.824053e+01
   5.425908e+01  -1.190533e+01
   8.007890e+01  -6.275231e+00
   3.993873e+01   4.937087e+01
  -4.372777e+01   8.611655e+01
  -1.006789e+02   5.387537e+01
  -8.307178e+01  -3.439077e+01
   1.289798e+01  -1.087484e+02
   1.401311e+02  -8.687874e+01
   1.995340e+02   4.886916e+01
   1.058908e+02   2.033246e+02
  -1.047805e+02   2.351822e+02
  -2.730272e+02   1.015226e+02
  -2.665572e+02  -8.707593e+01
  -1.146372e+02  -1.828229e+02
   3.959217e+01  -1.528984e+02
   9.831499e+01  -8.704431e+01
   8.335688e+01  -7.097095e+01
   7.016780e+01  -9.216455e+01
   9.495943e+01  -7.451894e+01
   1.303048e+02   2.352086e+01
   1.195889e+02   1.577167e+02
   3.053440e+01   2.313268e+02
  -1.008738e+02   1.772067e+02
  -1.807184e+02   2.263664e+01
  -1.414233e+02  -1.237824e+02
  -2.135048e+01  -1.641575e+02
   6.757815e+01  -9.667090e+01
   6.117490e+01  -3.340325e+00
   6.575248e+00   4.167899e+01
  -7.821839e+00   3.514921e+01
   3.842774e+01   1.995411e+01
   7.978860e+01   2.428381e+01
   4.455160e+01   3.870756e+01
  -6.334305e+01   3.697693e+01
  -1.581784e+02   3.666461e+00
  -1.458511e+02  -5.038799e+01
  -1.842725e+01  -8.878786e+01
   1.206390e+02  -7.551698e+01
   1.481460e+02  -1.490979e+01
   5.023244e+01   4.022527e+01
  -6.140850e+01   3.696693e+01
  -7.695373e+01  -1.967455e+01
  -5.804124e+00  -6.870233e+01
   5.856255e+01  -5.739434e+01
   6.356860e+01   3.018443e+00
   4.247279e+01   5.091994e+01
   4.338060e+01   4.249573e+01
   6.353583e+01   2.687974e+00
   6.763245e+01   7.843830e-01
   3.412425e+01   6.805628e+01
  -3.476537e+01   1.468867e+02
  -1.171398e+02   1.426684e+02
  -1.643579e+02   3.351138e+01
  -1.239620e+02  -9.228202e+01
  -7.263721e+00  -1.272583e+02
   8.643063e+01  -6.112814e+01
   6.052144e+01   1.612797e+01
  -6.042804e+01   2.017716e+01
  -1.406151e+02  -4.496682e+01
  -7.809899e+01  -1.097772e+02
   8.191124e+01  -1.150155e+02
   1.952031e+02  -5.401524e+01
   1.669872e+02   3.357023e+01
   3.908293e+01   8.882678e+01
  -6.177907e+01   7.316711e+01
  -5.023294e+01   8.912215e+00
   3.918699e+01  -2.662033e+01
   9.173916e+01   2.360581e+01
   3.204665e+01   1.213458e+02
  -9.550710e+01   1.564075e+02
  -1.722394e+02   6.150145e+01
  -1.286920e+02  -1.043199e+02
  -8.891770e+00  -2.021145e+02
   8.815284e+01  -1.472975e+02
   1.067926e+02   6.224256e+00
   6.262602e+01   1.200013e+02
  -8.181190e-02   1.093990e+02
  -4.583961e+01   2.157256e+01
  -5.415348e+01  -3.183258e+01
  -2.801112e+01  -9.197630e+00
  -3.763256e+00   2.154213e+01
  -1.930677e+01  -1.415345e+01
  -5.616783e+01  -9.004212e+01
  -4.426824e+01  -1.125543e+02
   4.630228e+01  -4.660119e+01
   1.412167e+02   4.111399e+01
   1.334577e+02   7.318022e+01
   1.765606e+01   5.006630e+01
  -9.096462e+01   2.150798e+01
  -9.045425e+01   7.832214e+00
  -9.915436e+00  -6.671329e+00
   4.013913e+01  -2.271957e+01
   1.359785e+01  -1.953448e+01
  -2.292059e+01   9.037396e-01
   6.247962e+00   9.958423e+00
   7.691670e+01   5.371422e+00
   9.271351e+01   2.514416e+01
   5.765217e+00   8.137793e+01
  -1.232125e+02   1.146154e+02
  -1.884898e+02   5.692272e+01
  -1.415145e+02  -7.084279e+01
  -2.398912e+01  -1.653187e+02
   8.089756e+01  -1.509826e+02
   1.159006e+02  -5.753642e+01
   8.181809e+01   2.284010e+01
   2.485007e+01   3.564187e+01
  -4.017395e+00   7.959574e+00
   9.746032e+00   3.320938e+00
   3.397333e+01   4.603346e+01
   2.351665e+01   9.149591e+01
  -3.009516e+01   7.261383e+01
  -8.281593e+01  -2.002921e+01
  -7.701831e+01  -1.118035e+02
  -1.774949e+00  -1.142891e+02
   8.513484e+01  -2.201607e+01
   1.035695e+02   7.927870e+01
   3.036736e+01   1.053933e+02
  -6.828569e+01   5.441623e+01
  -9.818287e+01  -1.345776e+01
  -3.831653e+01  -5.024684e+01
   3.324289e+01  -5.056990e+01
   3.034710e+01  -2.831657e+01
  -3.596327e+01  -8.460772e-01
  -7.061710e+01   5.907092e+00
  -1.436764e+01  -2.515207e+01
   8.104690e+01  -6.658440e+01
   1.168406e+02  -5.982192e+01
   6.342957e+01   1.156041e+01
  -1.700302e+01   8.379898e+01
  -5.340954e+01   7.961433e+01
  -3.607905e+01   4.243532e+00
  -1.198234e-02  -5.735639e+01
   2.678355e+01  -4.232375e+01
   3.666554e+01   2.031120e+01
   2.617661e+01   5.504172e+01
  -3.415467e+00   3.203130e+01
  -3.347406e+01  -9.556956e+00
  -3.973797e+01  -2.084899e+01
  -2.089081e+01  -5.763447e-01
   1.089741e-01   1.329800e+01
   7.075872e+00  -5.009431e+00
   8.836886e+00  -3.781463e+01
   1.974345e+01  -4.373091e+01
   3.360341e+01  -5.004210e+00
   2.839977e+01   4.759754e+01
  -5.209811e+00   6.193083e+01
  -4.618125e+01   1.954906e+01
  -5.585725e+01  -4.137191e+01
  -1.324477e+01  -6.460984e+01
   5.558683e+01  -3.367809e+01
   8.916901e+01   1.710083e+01
   4.909314e+01   4.525425e+01
  -2.957539e+01   4.023512e+01
  -6.577637e+01   1.991789e+01
  -2.376063e+01   4.356665e+00
   3.929596e+01   3.618223e+00
   3.881550e+01   1.795399e+01
  -3.281705e+01   3.242268e+01
  -9.500345e+01   1.889281e+01
