
 $NMID
 id='ANONYMOUS ', fmtdat='(2E16.6)'
 volume=1.0
 tramp=1.0
 $END
   2.779525e+03   5.350096e+01
   1.831174e+03   1.429502e+03
   4.252645e+00   1.771436e+03
  -1.078923e+03   1.082993e+03
  -8.391106e+02   1.837964e+02
  -4.965860e+01  -1.761706e+02
   3.120201e+02   7.649487e+01
   4.959306e+01   4.671589e+02
  -3.858307e+02   4.997561e+02
  -5.582265e+02   7.756804e+01
  -3.741081e+02  -4.389236e+02
  -7.259274e+00  -5.630324e+02
   2.595318e+02  -1.659841e+02
   2.112966e+02   3.546842e+02
  -9.914981e+01   4.677421e+02
  -3.493539e+02   7.052965e+01
  -2.577745e+02  -4.211072e+02
   1.094234e+02  -5.422704e+02
   4.092579e+02  -2.404731e+02
   3.860438e+02   1.537010e+02
   1.146364e+02   3.150621e+02
  -1.054157e+02   2.141514e+02
  -6.174072e+01   7.140470e+01
   1.535064e+02   9.107181e+01
   2.295730e+02   2.444010e+02
  -2.127100e+01   3.081316e+02
  -4.060030e+02   1.298501e+02
  -5.149400e+02  -1.693216e+02
  -1.859164e+02  -3.109060e+02
   2.768872e+02  -1.664816e+02
   4.264953e+02   1.201175e+02
   1.568054e+02   3.127547e+02
  -2.294804e+02   2.962910e+02
  -3.920152e+02   1.048280e+02
  -2.756807e+02  -1.400937e+02
  -7.066819e+01  -2.672348e+02
   2.593130e+01  -1.597394e+02
  -3.566900e+01   7.286387e+01
  -1.542709e+02   1.307735e+02
  -1.685799e+02  -1.235807e+02
  -4.872940e+00  -4.208562e+02
   2.181532e+02  -3.745471e+02
   2.792729e+02   1.609107e+00
   1.013943e+02   2.691327e+02
  -1.283510e+02   1.186592e+02
  -1.445596e+02  -2.331329e+02
   1.022088e+02  -3.306312e+02
   3.815195e+02  -4.218920e+01
   4.112832e+02   3.263743e+02
   1.269904e+02   4.284461e+02
  -2.596230e+02   2.262974e+02
  -4.435966e+02  -6.107910e+01
  -2.909396e+02  -2.199684e+02
   3.994384e+01  -1.950177e+02
   2.480329e+02  -7.033913e+01
   1.889494e+02   2.508727e+01
   1.005269e+01   2.080983e+01
  -4.177152e+01  -3.902862e+01
   8.319686e+01  -4.793613e+01
   1.937399e+02   4.208876e+01
   1.059495e+02   1.658372e+02
  -1.328794e+02   2.106020e+02
  -2.990000e+02   1.144467e+02
  -2.300582e+02  -8.901398e+01
   2.427029e+01  -2.800052e+02
   2.641739e+02  -3.124440e+02
   3.222758e+02  -1.307721e+02
   1.980503e+02   1.457653e+02
   3.499012e+01   3.092263e+02
  -3.453820e+01   2.723257e+02
  -1.969739e+01   1.500167e+02
  -3.163549e+01   9.393957e+01
  -1.242553e+02   9.800176e+01
  -2.189215e+02   4.002436e+01
  -2.042622e+02  -1.112469e+02
  -7.021628e+01  -2.237327e+02
   8.723513e+01  -1.618922e+02
   1.623568e+02   4.150337e+01
   1.087787e+02   2.134210e+02
  -4.810706e+01   2.123760e+02
  -2.129422e+02   4.634433e+01
  -2.594200e+02  -1.554157e+02
  -1.384899e+02  -2.587698e+02
   4.808412e+01  -2.263935e+02
   1.449041e+02  -1.307121e+02
   1.285928e+02  -6.853325e+01
   1.312220e+02  -5.744800e+01
   2.426553e+02  -2.551414e+01
   3.532551e+02   9.251817e+01
   2.694795e+02   2.645274e+02
  -3.177625e+01   3.768912e+02
  -3.387466e+02   3.331175e+02
  -4.166244e+02   1.383842e+02
  -2.430583e+02  -9.334154e+01
  -9.586336e+00  -2.152535e+02
   8.365642e+01  -1.656907e+02
   8.032972e+00  -3.201843e+01
  -1.026306e+02   2.939193e+01
  -1.086905e+02  -3.684057e+01
  -2.011856e+00  -1.201263e+02
   1.013204e+02  -8.462405e+01
   9.014194e+01   4.745631e+01
  -2.803485e+01   1.096829e+02
  -1.375808e+02  -5.015184e+00
  -1.248956e+02  -2.051883e+02
   2.400306e+01  -2.941370e+02
   2.137592e+02  -1.753519e+02
   3.094229e+02   6.055776e+01
   2.358190e+02   2.346256e+02
   4.453138e+01   2.399139e+02
  -1.157692e+02   1.173294e+02
  -1.292171e+02   5.567147e-01
  -2.849689e+01  -1.205542e+01
   4.182536e+01   5.571535e+01
  -7.995312e+00   9.779889e+01
  -1.091095e+02   5.257317e+01
  -1.243868e+02  -2.785692e+01
  -2.392284e+01  -4.752425e+01
   7.136047e+01   1.475075e+01
   3.023966e+01   8.329977e+01
  -1.327776e+02   7.312730e+01
  -2.625612e+02  -2.737464e+01
  -2.185187e+02  -1.560208e+02
  -1.546805e+01  -2.292501e+02
   1.871770e+02  -1.957168e+02
   2.337223e+02  -7.482676e+01
   1.155214e+02   4.279716e+01
  -2.844156e+01   6.467384e+01
  -5.365745e+01  -6.952553e+00
   4.968956e+01  -6.672290e+01
   1.600264e+02  -2.212691e+01
   1.578375e+02   9.465315e+01
   4.257976e+01   1.620859e+02
  -7.955759e+01   1.130750e+02
  -1.069390e+02   1.034448e+01
  -3.688936e+01  -3.227619e+01
   3.774447e+01   2.139086e+01
   2.047187e+01   9.842431e+01
  -8.932404e+01   1.009701e+02
  -1.846566e+02   4.437601e+00
  -1.537093e+02  -1.222983e+02
  -2.961356e+00  -1.800163e+02
   1.380166e+02  -1.249115e+02
   1.491607e+02  -5.573681e+00
   4.432964e+01   8.128867e+01
  -5.509481e+01   7.902867e+01
  -5.975358e+01   1.895872e+01
   1.326141e+00  -2.149618e+01
   3.407122e+01  -5.918760e+00
  -8.086344e+00   2.383757e+01
  -7.869911e+01   8.046016e-01
  -9.111600e+01  -8.294156e+01
  -5.188603e+00  -1.548228e+02
   1.293006e+02  -1.300449e+02
   2.078734e+02  -1.364592e+00
   1.618289e+02   1.433099e+02
   2.594596e+01   1.978206e+02
  -9.076318e+01   1.344904e+02
  -1.116856e+02   2.409982e+01
  -6.308450e+01  -3.862430e+01
  -2.917241e+01  -2.512197e+01
  -4.880638e+01   1.151142e+01
  -7.714531e+01   4.262559e+00
  -4.933611e+01  -5.186361e+01
   3.674387e+01  -9.348287e+01
   1.104126e+02  -5.780061e+01
   9.451565e+01   4.203996e+01
  -1.848692e+01   1.148205e+02
  -1.469668e+02   7.516258e+01
  -1.784183e+02  -6.378601e+01
  -6.671948e+01  -1.885944e+02
   1.160596e+02  -1.885381e+02
   2.340987e+02  -6.219287e+01
   2.077183e+02   8.493371e+01
   7.986365e+01   1.478098e+02
  -3.823186e+01   1.171398e+02
  -7.768423e+01   6.644699e+01
  -6.070511e+01   5.887555e+01
  -5.162619e+01   8.101329e+01
  -7.985172e+01   6.770924e+01
  -1.141538e+02  -1.816725e+01
  -1.000716e+02  -1.358902e+02
  -1.748287e+01  -1.958896e+02
   9.091615e+01  -1.411174e+02
   1.468780e+02  -4.737826e+00
   1.051638e+02   1.136710e+02
   3.114898e+00   1.349509e+02
  -6.814702e+01   6.671055e+01
  -5.425619e+01  -1.554227e+01
   5.589009e+00  -4.765111e+01
   2.583412e+01  -3.068812e+01
  -2.248283e+01  -1.020143e+01
  -7.353155e+01  -1.671822e+01
  -4.318710e+01  -3.618041e+01
   6.549615e+01  -3.338459e+01
   1.524471e+02   6.257616e+00
   1.238141e+02   5.981962e+01
  -4.668686e+00   8.591881e+01
  -1.199157e+02   6.046558e+01
  -1.262275e+02   3.710573e-01
  -3.668478e+01  -4.568268e+01
   5.296354e+01  -3.749317e+01
   6.766089e+01   1.722530e+01
   1.630082e+01   6.508233e+01
  -4.023674e+01   5.733188e+01
  -6.030780e+01   1.313864e+00
  -5.081131e+01  -4.533235e+01
  -4.132361e+01  -3.886479e+01
  -4.727525e+01  -2.610545e+00
  -5.614648e+01  -2.348320e+00
  -3.817047e+01  -6.450636e+01
   2.581546e+01  -1.330151e+02
   1.131992e+02  -1.245750e+02
   1.594436e+02  -2.525982e+01
   1.123651e+02   8.551422e+01
  -1.529898e+00   1.164578e+02
  -8.274954e+01   5.922150e+01
  -5.421704e+01  -9.978728e+00
   5.062098e+01  -1.681082e+01
   1.144315e+02   3.833758e+01
   5.806115e+01   9.319410e+01
  -7.498937e+01   9.200319e+01
  -1.638994e+02   3.290035e+01
  -1.333811e+02  -3.953755e+01
  -2.369159e+01  -7.390626e+01
   5.714846e+01  -5.018433e+01
   4.182996e+01   3.145061e+00
  -3.560253e+01   2.664935e+01
  -8.030307e+01  -1.810912e+01
  -3.358142e+01  -1.004293e+02
   6.944219e+01  -1.340118e+02
   1.362960e+02  -5.980471e+01
   1.080680e+02   7.962717e+01
   1.188388e+01   1.656198e+02
  -7.271207e+01   1.194411e+02
  -8.934435e+01  -1.241021e+01
  -4.441766e+01  -1.050875e+02
   1.471757e+01  -8.785595e+01
   4.550420e+01  -1.091079e+01
   3.771690e+01   2.880220e+01
   1.331443e+01   6.460315e+00
   5.639399e+00  -1.462233e+01
   2.693869e+01   1.974285e+01
   4.848262e+01   7.898853e+01
   2.459441e+01   9.056763e+01
  -5.007172e+01   3.509463e+01
  -1.161209e+02  -3.415986e+01
  -1.038029e+02  -6.168029e+01
  -1.499655e+01  -4.669308e+01
   6.901467e+01  -2.153660e+01
   7.439577e+01  -3.213343e+00
   1.555492e+01   1.089356e+01
  -2.951556e+01   1.786015e+01
  -1.758062e+01   9.993101e+00
   1.209699e+01  -3.541968e+00
  -2.083566e+00  -4.398050e+00
  -5.661343e+01   6.596510e-01
  -8.024846e+01  -1.971687e+01
  -1.932058e+01  -7.055307e+01
   9.291453e+01  -1.013975e+02
   1.638513e+02  -5.617254e+01
   1.328771e+02   5.141198e+01
   2.693165e+01   1.376957e+02
  -7.158321e+01   1.337873e+02
  -1.020665e+02   5.627923e+01
  -6.942819e+01  -1.718167e+01
  -2.258579e+01  -3.351301e+01
  -2.578724e+00  -1.195588e+01
  -1.226963e+01  -8.090058e+00
  -2.506188e+01  -4.326626e+01
  -1.354410e+01  -7.904429e+01
   2.620281e+01  -6.169297e+01
   6.725895e+01   1.332725e+01
   6.845573e+01   8.777944e+01
   1.246043e+01   9.536421e+01
  -6.409695e+01   2.817272e+01
  -9.114572e+01  -5.571043e+01
  -3.476156e+01  -8.943646e+01
   5.562177e+01  -5.619386e+01
   9.055445e+01   7.113982e+00
   3.970207e+01   5.161910e+01
  -3.058421e+01   5.417461e+01
  -3.614102e+01   2.489076e+01
   2.170477e+01  -5.640380e+00
   5.901905e+01  -7.367410e+00
   1.601750e+01   2.405035e+01
  -6.836375e+01   5.573602e+01
  -1.057239e+02   4.391989e+01
  -6.224731e+01  -1.609624e+01
   1.227872e+01  -7.368222e+01
   5.164359e+01  -7.171194e+01
   4.010149e+01  -1.150949e+01
   6.539969e+00   4.481591e+01
  -2.062478e+01   4.218181e+01
  -3.186285e+01  -8.210612e+00
  -2.448260e+01  -4.671770e+01
   7.735496e-01  -3.527223e+01
   2.886415e+01   4.170292e+00
   3.631050e+01   2.288376e+01
   1.796366e+01   4.875775e+00
  -3.509102e+00  -1.796260e+01
  -5.568563e+00  -8.762358e+00
   4.376857e+00   2.708097e+01
   3.257998e-01   4.659712e+01
  -2.289945e+01   2.049719e+01
  -3.645584e+01  -2.936842e+01
  -1.249700e+01  -5.170614e+01
   3.451307e+01  -2.265112e+01
   5.479390e+01   2.828646e+01
   1.720960e+01   5.200309e+01
  -4.974686e+01   3.101215e+01
  -8.119475e+01  -1.007363e+01
  -4.393575e+01  -3.769724e+01
   2.508844e+01  -3.981527e+01
   5.686551e+01  -2.473990e+01
   2.570666e+01  -6.026861e+00
  -2.353588e+01   3.452997e+00
  -2.847883e+01  -4.586739e+00
   1.924931e+01  -2.109920e+01
   6.624407e+01  -1.789761e+01
