
 $NMID
 id='ANONYMOUS ', fmtdat='(2E16.6)'
 volume=1.0
 tramp=1.0
 $END
  -3.537189e+03  -3.219272e+01
  -2.238730e+03  -1.897123e+03
   1.777046e+02  -2.226072e+03
   1.453565e+03  -1.161023e+03
   9.438867e+02  -3.596827e+00
  -1.351085e+02   2.799313e+02
  -4.914298e+02  -1.899937e+02
  -3.206773e+01  -6.785126e+02
   5.476923e+02  -6.297029e+02
   7.202275e+02  -4.198029e+01
   4.367322e+02   5.990505e+02
  -5.499886e+01   7.109897e+02
  -3.852534e+02   1.674612e+02
  -2.787623e+02  -4.950354e+02
   1.551490e+02  -5.967199e+02
   4.567615e+02  -5.850831e+01
   2.948017e+02   5.374116e+02
  -1.707266e+02   6.306423e+02
  -4.969730e+02   2.354424e+02
  -4.324846e+02  -2.167266e+02
  -1.065569e+02  -3.812029e+02
   1.511217e+02  -2.520705e+02
   1.053827e+02  -6.321935e+01
  -1.698220e+02  -5.268545e+01
  -3.131664e+02  -2.420557e+02
  -3.534513e+01  -3.857323e+02
   4.769574e+02  -2.256523e+02
   6.724563e+02   1.659741e+02
   2.717628e+02   4.151782e+02
  -3.478245e+02   2.716240e+02
  -5.677447e+02  -1.142820e+02
  -2.271190e+02  -3.985327e+02
   2.727018e+02  -3.942036e+02
   4.874258e+02  -1.460202e+02
   3.472693e+02   1.790535e+02
   7.903521e+01   3.533155e+02
  -7.430615e+01   2.076990e+02
  -1.062152e+01  -1.261791e+02
   1.829489e+02  -2.293155e+02
   2.672427e+02   1.167829e+02
   6.845019e+01   5.485287e+02
  -2.737767e+02   5.084389e+02
  -3.991859e+02  -4.009439e+00
  -1.525564e+02  -3.796365e+02
   1.902467e+02  -1.837254e+02
   2.274643e+02   2.900750e+02
  -1.055965e+02   4.316476e+02
  -4.764924e+02   7.485611e+01
  -5.151512e+02  -3.852096e+02
  -1.574445e+02  -5.218020e+02
   3.229820e+02  -2.878474e+02
   5.486794e+02   6.833760e+01
   3.492528e+02   2.867858e+02
  -7.535549e+01   2.614293e+02
  -3.283124e+02   7.505427e+01
  -2.223466e+02  -7.038660e+01
   2.414735e+01  -4.218875e+01
   7.131842e+01   7.588210e+01
  -1.178509e+02   8.980144e+01
  -2.583404e+02  -5.602201e+01
  -1.283266e+02  -2.205826e+02
   1.653990e+02  -2.505122e+02
   3.415330e+02  -1.230559e+02
   2.518170e+02   9.369879e+01
  -2.042646e+01   3.005038e+02
  -2.794830e+02   3.612818e+02
  -3.659377e+02   1.763564e+02
  -2.505676e+02  -1.597360e+02
  -5.416710e+01  -3.815341e+02
   5.724287e+01  -3.344795e+02
   4.468371e+01  -1.568995e+02
   2.913358e+01  -7.897101e+01
   1.160134e+02  -1.120979e+02
   2.413473e+02  -7.396674e+01
   2.532880e+02   1.071747e+02
   1.061291e+02   2.647487e+02
  -9.295677e+01   2.094883e+02
  -2.021403e+02  -3.108863e+01
  -1.497258e+02  -2.472553e+02
   4.171289e+01  -2.626530e+02
   2.544142e+02  -7.387289e+01
   3.215324e+02   1.749870e+02
   1.716599e+02   3.136617e+02
  -6.478666e+01   2.755816e+02
  -1.815950e+02   1.455372e+02
  -1.474232e+02   6.260008e+01
  -1.372963e+02   6.223125e+01
  -2.707519e+02   4.438104e+01
  -4.122443e+02  -8.831028e+01
  -3.244078e+02  -2.983833e+02
   2.152018e+01  -4.421741e+02
   3.810175e+02  -4.019836e+02
   4.855727e+02  -1.789970e+02
   2.997280e+02   1.020791e+02
   2.519986e+01   2.637621e+02
  -1.050736e+02   2.099129e+02
  -2.782269e+01   3.360847e+01
   1.187871e+02  -5.580008e+01
   1.471199e+02   3.326104e+01
   1.564621e+01   1.565401e+02
  -1.304673e+02   1.189553e+02
  -1.257401e+02  -5.733466e+01
   2.857574e+01  -1.464049e+02
   1.709465e+02  -5.839157e+00
   1.538779e+02   2.402856e+02
  -2.421297e+01   3.453754e+02
  -2.413050e+02   2.055435e+02
  -3.530199e+02  -6.252150e+01
  -2.806339e+02  -2.605088e+02
  -6.777333e+01  -2.760034e+02
   1.280346e+02  -1.457220e+02
   1.586007e+02  -7.500398e+00
   3.983632e+01   1.916042e+01
  -5.608880e+01  -5.789808e+01
  -2.378495e+00  -1.183571e+02
   1.267188e+02  -7.362183e+01
   1.552651e+02   2.605520e+01
   3.640893e+01   6.054836e+01
  -8.362343e+01  -6.896451e+00
  -4.268583e+01  -9.080201e+01
   1.452568e+02  -8.874706e+01
   3.009460e+02   1.843807e+01
   2.608157e+02   1.672143e+02
   3.351488e+01   2.649038e+02
  -2.068048e+02   2.411880e+02
  -2.755254e+02   1.015125e+02
  -1.451027e+02  -4.941384e+01
   3.070132e+01  -8.548909e+01
   7.091121e+01   3.534847e+00
  -5.069193e+01   8.582680e+01
  -1.897883e+02   3.739176e+01
  -1.940117e+02  -1.064507e+02
  -5.728476e+01  -1.941530e+02
   9.210928e+01  -1.404117e+02
   1.303825e+02  -1.796085e+01
   5.097392e+01   3.889841e+01
  -4.078494e+01  -1.628065e+01
  -3.010017e+01  -1.061958e+02
   9.339971e+01  -1.188088e+02
   2.111013e+02  -1.528128e+01
   1.852189e+02   1.350085e+02
   1.121527e+01   2.126234e+02
  -1.603977e+02   1.530667e+02
  -1.795079e+02   8.472420e+00
  -5.632003e+01  -9.992132e+01
   6.419154e+01  -9.845461e+01
   7.341176e+01  -2.510428e+01
   4.260245e+00   2.594509e+01
  -3.503751e+01   1.119002e+01
   8.518114e+00  -2.256732e+01
   8.572890e+01  -3.334983e-01
   1.031329e+02   9.047922e+01
   1.183785e+01   1.744540e+02
  -1.416684e+02   1.546545e+02
  -2.404517e+02   1.208227e+01
  -1.951658e+02  -1.598565e+02
  -3.672272e+01  -2.322950e+02
   1.047236e+02  -1.618964e+02
   1.313832e+02  -2.965471e+01
   7.314439e+01   4.675795e+01
   3.279114e+01   3.042584e+01
   5.568998e+01  -1.401980e+01
   8.709971e+01  -6.986806e+00
   5.446592e+01   5.619820e+01
  -4.039826e+01   1.038425e+02
  -1.201268e+02   6.674471e+01
  -1.045424e+02  -4.290343e+01
   1.660986e+01  -1.279192e+02
   1.617188e+02  -9.054627e+01
   2.066617e+02   6.441523e+01
   8.777757e+01   2.141091e+02
  -1.241989e+02   2.249363e+02
  -2.707143e+02   8.324955e+01
  -2.481541e+02  -9.217282e+01
  -1.000838e+02  -1.725645e+02
   4.123799e+01  -1.402949e+02
   9.067567e+01  -8.051208e+01
   7.207853e+01  -6.965092e+01
   6.042498e+01  -9.413761e+01
   9.150470e+01  -7.898508e+01
   1.319414e+02   1.926168e+01
   1.193105e+02   1.553838e+02
   2.635390e+01   2.275307e+02
  -1.016919e+02   1.682948e+02
  -1.726346e+02   1.204322e+01
  -1.285584e+02  -1.280901e+02
  -1.012630e+01  -1.582599e+02
   7.539490e+01  -8.319554e+01
   6.320026e+01   1.203001e+01
  -2.248378e+00   5.248532e+01
  -2.426448e+01   3.644377e+01
   2.883008e+01   1.348553e+01
   8.407306e+01   1.886646e+01
   4.952195e+01   4.014743e+01
  -7.223739e+01   3.983723e+01
  -1.725879e+02  -1.304401e+00
  -1.454312e+02  -6.252036e+01
  -1.955943e+00  -9.762240e+01
   1.335271e+02  -7.401013e+01
   1.468085e+02  -6.176745e+00
   4.540048e+01   4.942960e+01
  -6.039364e+01   4.296867e+01
  -7.830966e+01  -1.848568e+01
  -1.735020e+01  -7.315602e+01
   4.790807e+01  -6.481341e+01
   6.821890e+01  -1.839405e+00
   5.601747e+01   5.069520e+01
   4.762721e+01   4.346694e+01
   5.674278e+01   2.206869e+00
   6.563944e+01   1.220850e+00
   4.331727e+01   7.212837e+01
  -2.815241e+01   1.526679e+02
  -1.252834e+02   1.463400e+02
  -1.794642e+02   3.383590e+01
  -1.304613e+02  -9.502230e+01
  -2.772805e+00  -1.332494e+02
   9.225258e+01  -6.869332e+01
   6.230377e+01   1.144687e+01
  -5.865435e+01   2.057563e+01
  -1.349705e+02  -4.239070e+01
  -7.144401e+01  -1.073325e+02
   8.400357e+01  -1.099658e+02
   1.905536e+02  -4.480569e+01
   1.582173e+02   4.060940e+01
   3.144303e+01   8.603507e+01
  -6.446913e+01   6.270732e+01
  -4.915371e+01  -4.360791e-03
   4.009680e+01  -3.062737e+01
   9.291832e+01   1.991806e+01
   3.918480e+01   1.165011e+02
  -8.111315e+01   1.563468e+02
  -1.595708e+02   6.981284e+01
  -1.271317e+02  -9.279208e+01
  -1.570530e+01  -1.935929e+02
   8.284444e+01  -1.415719e+02
   1.045532e+02   1.081022e+01
   5.605327e+01   1.205679e+02
  -1.161424e+01   1.040626e+02
  -5.108219e+01   1.571234e+01
  -4.661595e+01  -3.246915e+01
  -1.834346e+01  -7.890211e+00
  -5.713550e+00   1.813689e+01
  -2.906945e+01  -2.005538e+01
  -5.770186e+01  -9.009311e+01
  -3.365365e+01  -1.063927e+02
   5.472249e+01  -4.321990e+01
   1.365121e+02   3.771536e+01
   1.242781e+02   6.999507e+01
   1.843852e+01   5.282034e+01
  -8.183478e+01   2.525675e+01
  -8.707422e+01   6.030435e+00
  -1.651736e+01  -1.075878e+01
   3.518744e+01  -2.157308e+01
   1.879435e+01  -1.387132e+01
  -1.586789e+01   3.407355e+00
   3.253277e+00   6.237404e+00
   6.791170e+01  -2.377470e-01
   9.312962e+01   2.173005e+01
   2.000470e+01   8.077828e+01
  -1.089431e+02   1.181596e+02
  -1.879677e+02   6.643962e+01
  -1.516884e+02  -5.910378e+01
  -3.213429e+01  -1.599239e+02
   7.960521e+01  -1.553577e+02
   1.162624e+02  -6.546732e+01
   8.091657e+01   1.919370e+01
   2.657542e+01   3.757385e+01
   1.772679e+00   1.228489e+01
   1.348620e+01   7.641891e+00
   3.107176e+01   4.874913e+01
   1.901822e+01   9.134986e+01
  -2.905599e+01   7.216580e+01
  -7.908644e+01  -1.523356e+01
  -8.019856e+01  -1.024346e+02
  -1.336053e+01  -1.106572e+02
   7.581578e+01  -3.121432e+01
   1.057649e+02   6.593252e+01
   3.971641e+01   1.029595e+02
  -6.385867e+01   6.361568e+01
  -1.032701e+02  -7.452487e+00
  -4.544718e+01  -5.659146e+01
   3.352832e+01  -6.058005e+01
   3.869894e+01  -2.966885e+01
  -2.727807e+01   5.035458e+00
  -6.858570e+01   9.052101e+00
  -1.812593e+01  -2.679646e+01
   7.845281e+01  -6.626137e+01
   1.203798e+02  -5.507635e+01
   7.053983e+01   1.557742e+01
  -1.333214e+01   8.507720e+01
  -5.679011e+01   8.336466e+01
  -4.360729e+01   1.229829e+01
  -6.619946e+00  -5.277729e+01
   2.352522e+01  -4.766653e+01
   3.672184e+01   1.130467e+01
   2.874037e+01   5.372258e+01
  -5.576751e-01   3.876746e+01
  -3.337711e+01  -5.321118e+00
  -4.207186e+01  -2.441763e+01
  -2.101726e+01  -4.137047e+00
   3.696664e+00   1.892022e+01
   7.111414e+00   6.609153e+00
  -2.304578e+00  -3.238071e+01
   3.012483e+00  -5.111759e+01
   2.725258e+01  -1.976339e+01
   3.931644e+01   3.600528e+01
   1.098389e+01   5.957716e+01
  -4.072854e+01   2.523536e+01
  -6.203454e+01  -3.340702e+01
  -1.933031e+01  -6.065783e+01
   5.642472e+01  -3.641011e+01
   9.290896e+01   1.115426e+01
   5.113885e+01   4.305737e+01
  -2.821331e+01   4.522050e+01
  -6.507475e+01   2.777931e+01
  -2.819860e+01   7.030577e+00
   2.970897e+01  -2.459022e+00
   3.406596e+01   7.737239e+00
  -2.441826e+01   2.635727e+01
  -8.038006e+01   2.118504e+01
