
 $NMID
 id='ANONYMOUS ', fmtdat='(2E16.6)'
 volume=1.0
 tramp=1.0
 $END
   3.080090e+03  -4.270471e+01
   2.131005e+03   1.456183e+03
   1.784273e+02   1.963320e+03
  -1.091644e+03   1.353030e+03
  -9.707447e+02   3.670661e+02
  -1.622020e+02  -1.516108e+02
   2.938368e+02   2.877447e+01
   8.609703e+01   4.691972e+02
  -3.754046e+02   5.694917e+02
  -6.057140e+02   1.389152e+02
  -4.509472e+02  -4.459879e+02
  -6.617147e+01  -6.215975e+02
   2.487130e+02  -2.142783e+02
   2.413684e+02   3.612116e+02
  -7.445891e+01   5.193090e+02
  -3.752518e+02   1.086810e+02
  -3.206720e+02  -4.519439e+02
   7.754360e+01  -6.337230e+02
   4.504620e+02  -3.219788e+02
   4.630746e+02   1.387299e+02
   1.621619e+02   3.514835e+02
  -9.727722e+01   2.511169e+02
  -4.958523e+01   9.440468e+01
   1.909617e+02   1.253888e+02
   2.579491e+02   2.976042e+02
  -4.221099e+01   3.490352e+02
  -4.679689e+02   1.323446e+02
  -5.712633e+02  -1.917998e+02
  -1.997264e+02  -3.279755e+02
   3.051935e+02  -1.654476e+02
   4.665172e+02   1.359973e+02
   1.727123e+02   3.406881e+02
  -2.521716e+02   3.300804e+02
  -4.359457e+02   1.271436e+02
  -3.129200e+02  -1.424374e+02
  -9.463270e+01  -2.850834e+02
   5.727505e-01  -1.730399e+02
  -6.747300e+01   6.823561e+01
  -1.758505e+02   1.195339e+02
  -1.669968e+02  -1.537122e+02
   9.498169e+00  -4.625696e+02
   2.290964e+02  -4.076154e+02
   2.862133e+02  -8.656483e+00
   1.093569e+02   2.755473e+02
  -1.249060e+02   1.182048e+02
  -1.478706e+02  -2.578037e+02
   1.121417e+02  -3.661258e+02
   4.263159e+02  -5.278661e+01
   4.753806e+02   3.584460e+02
   1.627034e+02   4.804907e+02
  -2.813020e+02   2.621865e+02
  -5.022983e+02  -5.224966e+01
  -3.419536e+02  -2.259224e+02
   2.381232e+01  -2.091250e+02
   2.639261e+02  -9.532167e+01
   2.172039e+02  -1.535913e+00
   3.025444e+01   1.215499e+01
  -3.686294e+01  -2.886951e+01
   8.552840e+01  -4.094840e+01
   2.099222e+02   3.761569e+01
   1.272186e+02   1.735468e+02
  -1.387441e+02   2.481157e+02
  -3.447415e+02   1.537400e+02
  -2.809066e+02  -9.616969e+01
   1.670969e+01  -3.405333e+02
   3.059861e+02  -3.795475e+02
   3.745005e+02  -1.562338e+02
   2.278149e+02   1.659971e+02
   4.785745e+01   3.474635e+02
  -1.875602e+01   3.082865e+02
  -3.001792e+00   1.833138e+02
  -3.421412e+01   1.270857e+02
  -1.543449e+02   1.229774e+02
  -2.612756e+02   4.410683e+01
  -2.364169e+02  -1.317000e+02
  -7.991212e+01  -2.559258e+02
   9.910114e+01  -1.822285e+02
   1.851105e+02   4.989716e+01
   1.252497e+02   2.447774e+02
  -5.368756e+01   2.422389e+02
  -2.431406e+02   5.379593e+01
  -2.996633e+02  -1.720312e+02
  -1.678065e+02  -2.881716e+02
   4.074703e+01  -2.588777e+02
   1.548466e+02  -1.619024e+02
   1.462309e+02  -9.519872e+01
   1.574674e+02  -7.673739e+01
   2.878970e+02  -3.490809e+01
   4.160869e+02   1.000456e+02
   3.216362e+02   2.997490e+02
  -2.633902e+01   4.390365e+02
  -3.850431e+02   3.977698e+02
  -4.783582e+02   1.724369e+02
  -2.790027e+02  -1.008320e+02
  -1.381376e+01  -2.438467e+02
   8.604238e+01  -1.875415e+02
  -2.085006e+00  -3.840270e+01
  -1.195606e+02   2.814192e+01
  -1.181294e+02  -4.367019e+01
  -4.106149e-01  -1.317322e+02
   1.083404e+02  -9.208447e+01
   9.625933e+01   5.086856e+01
  -3.037346e+01   1.194719e+02
  -1.553535e+02  -5.678101e+00
  -1.510103e+02  -2.321397e+02
   1.531171e+01  -3.419331e+02
   2.438009e+02  -2.143393e+02
   3.670737e+02   5.863636e+01
   2.835701e+02   2.679723e+02
   5.571420e+01   2.794474e+02
  -1.328141e+02   1.378996e+02
  -1.464077e+02   3.050580e+00
  -2.996392e+01  -1.033886e+01
   4.800957e+01   6.676904e+01
  -1.075264e+01   1.125045e+02
  -1.251681e+02   6.016082e+01
  -1.409947e+02  -3.012454e+01
  -2.542811e+01  -5.187927e+01
   8.406710e+01   1.895492e+01
   3.582499e+01   9.901940e+01
  -1.558046e+02   9.037589e+01
  -3.099667e+02  -2.538087e+01
  -2.594612e+02  -1.783805e+02
  -2.152373e+01  -2.677923e+02
   2.144523e+02  -2.307064e+02
   2.671401e+02  -9.101379e+01
   1.309838e+02   4.485119e+01
  -3.171615e+01   7.147815e+01
  -5.863556e+01  -8.288244e+00
   5.866165e+01  -7.628041e+01
   1.838805e+02  -2.747941e+01
   1.831750e+02   1.047436e+02
   5.328054e+01   1.839885e+02
  -8.765872e+01   1.309424e+02
  -1.211405e+02   1.394321e+01
  -4.025855e+01  -3.549245e+01
   4.713206e+01   2.727123e+01
   2.599073e+01   1.181713e+02
  -1.043966e+02   1.218784e+02
  -2.171384e+02   9.383548e+00
  -1.820530e+02  -1.387359e+02
  -8.228270e+00  -2.080737e+02
   1.548550e+02  -1.482021e+02
   1.702489e+02  -1.255468e+01
   5.284217e+01   8.984999e+01
  -6.048177e+01   9.129944e+01
  -6.672216e+01   2.322344e+01
   3.538907e+00  -2.494230e+01
   4.199233e+01  -6.638316e+00
  -8.356594e+00   3.087276e+01
  -9.449804e+01   5.550142e+00
  -1.120071e+02  -9.486576e+01
  -1.112532e+01  -1.831383e+02
   1.486524e+02  -1.565440e+02
   2.431062e+02  -6.632408e+00
   1.922656e+02   1.625921e+02
   3.656158e+01   2.280987e+02
  -9.962909e+01   1.582234e+02
  -1.280574e+02   3.269923e+01
  -7.533417e+01  -4.080710e+01
  -3.571579e+01  -2.706795e+01
  -5.680276e+01   1.557657e+01
  -9.102763e+01   7.932322e+00
  -6.176610e+01  -5.982938e+01
   3.897758e+01  -1.132828e+02
   1.298375e+02  -7.353967e+01
   1.152351e+02   4.695553e+01
  -1.794958e+01   1.377344e+02
  -1.721970e+02   9.375248e+01
  -2.118148e+02  -7.029407e+01
  -8.210709e+01  -2.194190e+02
   1.315301e+02  -2.228904e+02
   2.707190e+02  -7.851177e+01
   2.429153e+02   9.224293e+01
   9.654197e+01   1.680664e+02
  -4.053626e+01   1.362906e+02
  -8.707979e+01   7.950029e+01
  -6.698101e+01   7.083772e+01
  -5.579999e+01   9.686075e+01
  -9.023304e+01   8.273790e+01
  -1.342636e+02  -1.633521e+01
  -1.218812e+02  -1.546468e+02
  -2.704687e+01  -2.275525e+02
   1.010622e+02  -1.668189e+02
   1.701065e+02  -9.366823e+00
   1.250535e+02   1.295002e+02
   6.927176e+00   1.565712e+02
  -7.829352e+01   7.835165e+01
  -6.422333e+01  -1.851116e+01
   6.143139e+00  -5.750555e+01
   3.156886e+01  -3.696312e+01
  -2.517522e+01  -1.006473e+01
  -8.717413e+01  -1.597647e+01
  -5.254431e+01  -4.088941e+01
   7.663518e+01  -4.184070e+01
   1.804924e+02   2.454238e+00
   1.467377e+02   6.714360e+01
  -4.821903e+00   1.018466e+02
  -1.397966e+02   7.480717e+01
  -1.471914e+02   3.772165e+00
  -4.377638e+01  -5.340170e+01
   6.032736e+01  -4.668033e+01
   7.987608e+01   1.743046e+01
   2.321836e+01   7.612130e+01
  -4.324722e+01   6.961925e+01
  -7.111568e+01   4.507406e+00
  -6.311155e+01  -5.105903e+01
  -5.035700e+01  -4.402005e+01
  -5.426889e+01  -1.207231e+00
  -6.535707e+01  -7.239976e-01
  -4.837898e+01  -7.457385e+01
   2.421598e+01  -1.572196e+02
   1.288567e+02  -1.502438e+02
   1.876148e+02  -3.542996e+01
   1.354037e+02   9.614897e+01
   1.826075e+00   1.369883e+02
  -9.536662e+01   7.338799e+01
  -6.397878e+01  -8.928640e+00
   5.822878e+01  -2.157653e+01
   1.342115e+02   4.012606e+01
   7.025033e+01   1.063048e+02
  -8.448556e+01   1.094557e+02
  -1.894747e+02   4.309622e+01
  -1.558864e+02  -4.229762e+01
  -2.924174e+01  -8.499569e+01
   6.527804e+01  -5.911718e+01
   4.878693e+01   3.492210e+00
  -4.074385e+01   3.306017e+01
  -9.465298e+01  -1.760916e+01
  -4.405459e+01  -1.153244e+02
   7.392362e+01  -1.591196e+02
   1.550424e+02  -7.621041e+01
   1.289584e+02   8.721888e+01
   2.108745e+01   1.917032e+02
  -7.966827e+01   1.413306e+02
  -1.044572e+02  -1.188324e+01
  -5.476192e+01  -1.211654e+02
   1.569530e+01  -1.023123e+02
   5.353685e+01  -1.351704e+01
   4.395892e+01   3.232309e+01
   1.430576e+01   6.829103e+00
   6.337073e+00  -1.675925e+01
   3.368463e+01   2.299042e+01
   5.979070e+01   9.047050e+01
   3.046369e+01   1.038971e+02
  -5.846953e+01   4.230681e+01
  -1.361763e+02  -3.505950e+01
  -1.221204e+02  -6.768216e+01
  -1.936085e+01  -5.440589e+01
   7.841252e+01  -2.830998e+01
   8.624913e+01  -6.241446e+00
   1.957832e+01   1.279044e+01
  -3.304681e+01   2.178907e+01
  -2.095018e+01   1.144043e+01
   1.291805e+01  -4.986393e+00
  -2.144119e+00  -4.480315e+00
  -6.472552e+01   3.752472e+00
  -9.453078e+01  -1.952939e+01
  -2.737391e+01  -8.162749e+01
   1.025750e+02  -1.224516e+02
   1.892326e+02  -7.314801e+01
   1.586948e+02   5.333825e+01
   3.782557e+01   1.590147e+02
  -7.845847e+01   1.595901e+02
  -1.171980e+02   7.073610e+01
  -8.159677e+01  -1.693079e+01
  -2.788321e+01  -3.860617e+01
  -4.336378e+00  -1.454705e+01
  -1.519638e+01  -9.667350e+00
  -3.042308e+01  -5.001616e+01
  -1.805767e+01  -9.178709e+01
   2.815621e+01  -7.296061e+01
   7.848768e+01   1.232618e+01
   8.371904e+01   9.855185e+01
   1.987966e+01   1.103881e+02
  -7.240580e+01   3.671744e+01
  -1.088888e+02  -5.964069e+01
  -4.536024e+01  -1.028172e+02
   6.222094e+01  -6.912047e+01
   1.068252e+02   4.039209e+00
   4.936768e+01   5.981014e+01
  -3.377949e+01   6.594805e+01
  -4.257717e+01   3.060102e+01
   2.381825e+01  -8.316883e+00
   6.835408e+01  -1.128139e+01
   2.017426e+01   2.775782e+01
  -7.738098e+01   6.758877e+01
  -1.223886e+02   5.447864e+01
  -7.438509e+01  -1.712633e+01
   1.104767e+01  -8.671905e+01
   5.818843e+01  -8.624180e+01
   4.758723e+01  -1.615203e+01
   1.032697e+01   5.141157e+01
  -2.203601e+01   5.086128e+01
  -3.754818e+01  -7.022831e+00
  -3.072443e+01  -5.346021e+01
  -8.288172e-01  -4.226864e+01
   3.386175e+01   3.148740e+00
   4.360924e+01   2.593586e+01
   2.117335e+01   5.577000e+00
  -5.303936e+00  -2.172289e+01
  -6.808282e+00  -1.181562e+01
   7.842516e+00   3.065640e+01
   4.665905e+00   5.558618e+01
  -2.504188e+01   2.707435e+01
  -4.537393e+01  -3.119074e+01
  -1.901006e+01  -5.960220e+01
   3.864435e+01  -2.862257e+01
   6.601485e+01   2.979476e+01
   2.297348e+01   5.950578e+01
  -5.708841e+01   3.848415e+01
  -9.579562e+01  -7.849007e+00
  -5.303305e+01  -4.206715e+01
   2.762817e+01  -4.820346e+01
   6.540992e+01  -3.221494e+01
   3.049015e+01  -8.393748e+00
  -2.589971e+01   5.862089e+00
  -3.272461e+01  -2.718732e+00
   2.039461e+01  -2.444243e+01
   7.446289e+01  -2.374518e+01
