
 $NMID
 id='ANONYMOUS ', fmtdat='(2E16.6)'
 volume=1.0
 tramp=1.0
 $END
   4.220743e+03   4.708074e+01
   2.488552e+03   2.472325e+03
  -5.924447e+02   2.643624e+03
  -1.949653e+03   9.846227e+02
  -9.523371e+02  -4.530758e+02
   5.117725e+02  -4.716013e+02
   7.713813e+02   3.845092e+02
  -1.448894e+01   9.687056e+02
  -7.706718e+02   7.415984e+02
  -8.908948e+02  -6.444749e+01
  -4.472818e+02  -8.056536e+02
   1.967324e+02  -8.518189e+02
   5.713923e+02  -1.247751e+02
   3.494983e+02   6.738918e+02
  -2.494513e+02   7.186206e+02
  -5.753601e+02   6.923532e+00
  -2.820305e+02  -6.579261e+02
   2.854817e+02  -6.500915e+02
   5.703654e+02  -1.398439e+02
   4.113492e+02   3.176967e+02
   4.502782e+01   4.303966e+02
  -2.204014e+02   2.649412e+02
  -1.809192e+02   2.919099e+01
   1.434679e+02  -4.176307e+01
   3.932466e+02   1.679255e+02
   1.449554e+02   4.378788e+02
  -4.914962e+02   3.602960e+02
  -8.213088e+02  -1.200666e+02
  -3.833091e+02  -5.299014e+02
   4.012915e+02  -4.238158e+02
   7.134513e+02   7.413032e+01
   3.128459e+02   4.765315e+02
  -2.960275e+02   4.925103e+02
  -5.626534e+02   1.848415e+02
  -4.052295e+02  -2.233152e+02
  -7.030786e+01  -4.499327e+02
   1.663127e+02  -2.629708e+02
   1.172645e+02   1.998278e+02
  -1.868398e+02   3.804859e+02
  -4.034883e+02  -6.194321e+01
  -1.847563e+02  -6.679079e+02
   3.245126e+02  -6.584299e+02
   5.560575e+02   7.764539e+00
   2.241834e+02   5.188871e+02
  -2.729231e+02   2.797963e+02
  -3.426347e+02  -3.308946e+02
   8.906486e+01  -5.284676e+02
   5.507464e+02  -1.158115e+02
   5.870756e+02   4.187480e+02
   1.652921e+02   5.858541e+02
  -3.787892e+02   3.357207e+02
  -6.242351e+02  -7.934753e+01
  -3.753292e+02  -3.665569e+02
   1.368034e+02  -3.396629e+02
   4.196575e+02  -5.956205e+01
   2.395934e+02   1.613433e+02
  -9.284036e+01   8.551541e+01
  -1.215222e+02  -1.355602e+02
   1.584425e+02  -1.589760e+02
   3.293207e+02   7.435018e+01
   1.391098e+02   2.847621e+02
  -1.997677e+02   2.639440e+02
  -3.454673e+02   9.173780e+01
  -2.217322e+02  -9.030644e+01
   2.305532e+01  -2.565979e+02
   2.471586e+02  -3.496056e+02
   3.598641e+02  -2.122413e+02
   2.884501e+02   1.502170e+02
   7.176909e+01   4.338045e+02
  -1.015902e+02   3.796816e+02
  -9.865887e+01   1.295844e+02
  -2.464162e+01   1.880323e+01
  -6.800483e+01   1.005405e+02
  -2.186230e+02   1.172843e+02
  -2.817560e+02  -7.299286e+01
  -1.474897e+02  -2.795071e+02
   8.236706e+01  -2.511149e+02
   2.286316e+02   3.263131e+00
   1.892687e+02   2.527531e+02
  -2.182485e+01   2.955655e+02
  -2.729567e+02   1.064563e+02
  -3.607736e+02  -1.766704e+02
  -1.873908e+02  -3.513730e+02
   9.209558e+01  -3.063727e+02
   2.192301e+02  -1.323617e+02
   1.533730e+02  -2.439571e+01
   1.143401e+02  -4.610102e+01
   2.539629e+02  -6.120458e+01
   4.181980e+02   6.878006e+01
   3.407623e+02   2.985135e+02
  -8.430273e+00   4.571963e+02
  -3.783917e+02   4.233133e+02
  -5.035775e+02   2.002056e+02
  -3.356693e+02  -1.001753e+02
  -4.596192e+01  -2.949981e+02
   1.276450e+02  -2.468079e+02
   6.695179e+01  -3.033211e+01
  -1.182700e+02   9.488034e+01
  -1.882454e+02  -1.660146e+01
  -3.968093e+01  -1.914177e+02
   1.589058e+02  -1.600243e+02
   1.682989e+02   6.344042e+01
  -2.307726e+01   1.852478e+02
  -1.946111e+02   2.454360e+01
  -1.657415e+02  -2.540772e+02
   3.051623e+01  -3.592131e+02
   2.411439e+02  -2.030035e+02
   3.447370e+02   6.411321e+01
   2.875667e+02   2.528400e+02
   8.936333e+01   2.765613e+02
  -1.221878e+02   1.612577e+02
  -1.779222e+02   1.670503e+01
  -5.439936e+01  -2.986034e+01
   6.838372e+01   4.647467e+01
   2.169267e+01   1.280827e+02
  -1.299001e+02   9.501399e+01
  -1.777625e+02  -1.810814e+01
  -5.298905e+01  -7.206337e+01
   8.455193e+01  -9.886832e+00
   5.364572e+01   8.131985e+01
  -1.338144e+02   9.060514e+01
  -2.965834e+02  -5.495056e+00
  -2.710924e+02  -1.525423e+02
  -5.402408e+01  -2.664699e+02
   1.974787e+02  -2.636404e+02
   2.909257e+02  -1.225572e+02
   1.680113e+02   5.339289e+01
  -2.797528e+01   1.061788e+02
  -8.834611e+01   4.367021e+00
   3.969266e+01  -1.006853e+02
   2.009491e+02  -5.456613e+01
   2.146447e+02   1.075191e+02
   6.760410e+01   2.109353e+02
  -9.732646e+01   1.578737e+02
  -1.450421e+02   2.624028e+01
  -6.692502e+01  -4.284297e+01
   3.322736e+01   2.135129e+00
   3.723102e+01   9.258284e+01
  -7.969012e+01   1.186707e+02
  -2.079009e+02   2.640095e+01
  -1.958679e+02  -1.303088e+02
  -1.907531e+01  -2.233962e+02
   1.687566e+02  -1.660505e+02
   1.959997e+02  -6.831353e+00
   6.439326e+01   1.143103e+02
  -6.857443e+01   1.113923e+02
  -8.336666e+01   2.972303e+01
  -1.494242e+01  -2.738154e+01
   2.645960e+01  -1.754615e+01
  -9.027691e+00   1.251529e+01
  -7.676473e+01  -5.500608e+00
  -9.541036e+01  -8.583366e+01
  -1.541503e+01  -1.672668e+02
   1.336930e+02  -1.579342e+02
   2.424301e+02  -2.320842e+01
   2.061751e+02   1.569048e+02
   4.185189e+01   2.428345e+02
  -1.110549e+02   1.726223e+02
  -1.386059e+02   2.876641e+01
  -7.319837e+01  -5.454265e+01
  -3.049174e+01  -3.514942e+01
  -5.547617e+01   1.319483e+01
  -8.409387e+01   7.136770e+00
  -4.706766e+01  -5.239384e+01
   4.206056e+01  -9.490879e+01
   1.097942e+02  -6.100869e+01
   9.374286e+01   3.759834e+01
  -1.374099e+01   1.185522e+02
  -1.508292e+02   9.067815e+01
  -2.057967e+02  -5.530359e+01
  -1.004751e+02  -2.107553e+02
   1.139814e+02  -2.347367e+02
   2.757478e+02  -9.584342e+01
   2.625390e+02   9.001553e+01
   1.101923e+02   1.808065e+02
  -4.065339e+01   1.496412e+02
  -9.619412e+01   8.547866e+01
  -7.938252e+01   7.128325e+01
  -6.651627e+01   9.416672e+01
  -9.432191e+01   7.762950e+01
  -1.326547e+02  -2.150296e+01
  -1.214890e+02  -1.583571e+02
  -2.981147e+01  -2.327070e+02
   1.021843e+02  -1.760370e+02
   1.798098e+02  -1.875808e+01
   1.382682e+02   1.271257e+02
   1.719027e+01   1.639970e+02
  -7.187236e+01   9.258262e+01
  -6.326791e+01  -2.959937e+00
  -3.317757e+00  -4.709692e+01
   1.483750e+01  -3.665956e+01
  -3.468053e+01  -1.757512e+01
  -8.259219e+01  -2.187390e+01
  -4.743948e+01  -3.953388e+01
   6.778068e+01  -3.915699e+01
   1.665546e+02  -2.528482e+00
   1.480797e+02   5.577342e+01
   1.213835e+01   9.414708e+01
  -1.275304e+02   7.662800e+01
  -1.496897e+02   1.181369e+01
  -4.920627e+01  -4.467218e+01
   6.146951e+01  -4.020705e+01
   7.856674e+01   1.911706e+01
   1.120658e+01   7.115676e+01
  -5.433088e+01   6.122245e+01
  -6.626297e+01  -6.184310e-01
  -4.901503e+01  -5.094976e+01
  -4.594152e+01  -4.319433e+01
  -6.143293e+01  -2.494242e+00
  -6.766673e+01  -8.089638e-01
  -3.886851e+01  -7.030923e+01
   3.170552e+01  -1.512046e+02
   1.215681e+02  -1.467284e+02
   1.728602e+02  -3.507839e+01
   1.287560e+02   9.404722e+01
   6.031940e+00   1.315875e+02
  -8.962884e+01   6.563498e+01
  -6.199269e+01  -1.406645e+01
   6.036793e+01  -2.076495e+01
   1.400887e+02   4.412427e+01
   7.655271e+01   1.100728e+02
  -8.362516e+01   1.146730e+02
  -1.958125e+02   5.128618e+01
  -1.656953e+02  -3.671491e+01
  -3.652628e+01  -8.886291e+01
   6.378699e+01  -6.990439e+01
   5.064496e+01  -5.333275e+00
  -3.988029e+01   2.884806e+01
  -9.340942e+01  -2.197929e+01
  -3.580613e+01  -1.205205e+02
   9.002304e+01  -1.583202e+02
   1.685747e+02  -6.609608e+01
   1.297130e+02   1.003201e+02
   1.238141e+01   2.008425e+02
  -8.667430e+01   1.468915e+02
  -1.073658e+02  -7.977449e+00
  -6.103586e+01  -1.217747e+02
   4.822728e+00  -1.088524e+02
   4.878264e+01  -1.963839e+01
   5.174022e+01   3.255040e+01
   2.421024e+01   8.936367e+00
   4.675007e+00  -2.042554e+01
   2.397287e+01   1.652916e+01
   5.786348e+01   9.099518e+01
   4.048369e+01   1.115162e+02
  -5.046147e+01   4.615006e+01
  -1.410656e+02  -3.983880e+01
  -1.313969e+02  -7.256704e+01
  -1.847089e+01  -5.181670e+01
   8.803595e+01  -2.344688e+01
   9.019749e+01  -7.370086e+00
   1.302304e+01   8.292442e+00
  -3.848512e+01   2.251560e+01
  -1.610466e+01   1.754747e+01
   2.010960e+01  -1.867952e+00
  -4.968237e+00  -8.551801e+00
  -7.389795e+01  -3.024960e+00
  -9.408133e+01  -2.367381e+01
  -1.222373e+01  -8.174626e+01
   1.181800e+02  -1.176350e+02
   1.902403e+02  -6.238022e+01
   1.476279e+02   6.593817e+01
   2.821133e+01   1.648250e+02
  -8.074988e+01   1.550587e+02
  -1.171342e+02   6.209782e+01
  -8.246359e+01  -2.131492e+01
  -2.609086e+01  -3.680031e+01
   1.428219e+00  -9.770428e+00
  -1.161601e+01  -5.081720e+00
  -3.340037e+01  -4.776518e+01
  -2.219432e+01  -9.266734e+01
   2.980358e+01  -7.343462e+01
   8.221564e+01   1.805109e+01
   7.949601e+01   1.088692e+02
   7.065621e+00   1.138695e+02
  -8.189124e+01   2.627983e+01
  -1.057427e+02  -7.415033e+01
  -3.507067e+01  -1.053404e+02
   6.681721e+01  -5.918316e+01
   1.015162e+02   1.056906e+01
   4.223267e+01   5.329124e+01
  -3.333689e+01   5.565140e+01
  -3.419672e+01   2.960792e+01
   3.252827e+01  -1.545772e+00
   7.054801e+01  -7.518497e+00
   1.630291e+01   2.602834e+01
  -8.076366e+01   6.750985e+01
  -1.198086e+02   5.905570e+01
  -6.746371e+01  -1.301765e+01
   1.532243e+01  -8.538696e+01
   5.517645e+01  -8.253754e+01
   3.953852e+01  -8.101343e+00
   2.918015e+00   5.594062e+01
  -2.543183e+01   4.516755e+01
  -3.697565e+01  -1.657450e+01
  -2.776800e+01  -5.502477e+01
   1.928364e+00  -3.527285e+01
   3.377710e+01   7.747852e+00
   4.142987e+01   2.245146e+01
   2.131992e+01   2.040295e+00
  -1.859851e+00  -1.578486e+01
  -7.498997e+00   1.028422e-01
  -4.186946e+00   3.567820e+01
  -1.244314e+01   4.706152e+01
  -3.086718e+01   1.134863e+01
  -3.329215e+01  -4.281900e+01
  -1.830369e+00  -6.127424e+01
   4.420487e+01  -2.224870e+01
   5.914998e+01   3.811506e+01
   1.614027e+01   6.352762e+01
  -5.647419e+01   3.550275e+01
  -9.182030e+01  -1.435393e+01
  -5.070010e+01  -4.466980e+01
   2.909269e+01  -4.296206e+01
   6.603343e+01  -2.376076e+01
   2.588548e+01  -5.771282e+00
  -3.552015e+01  -1.192631e+00
  -3.704395e+01  -1.379680e+01
   2.969376e+01  -3.010520e+01
   8.981527e+01  -2.002764e+01
