
 $NMID
 id='ANONYMOUS ', fmtdat='(2E16.6)'
 volume=1.0
 tramp=1.0
 $END
   3.412796e+03  -3.721876e+01
   2.196002e+03   1.811089e+03
  -1.546466e+02   2.171940e+03
  -1.417457e+03   1.133486e+03
  -9.252724e+02  -1.941068e+01
   1.406281e+02  -3.024921e+02
   4.994923e+02   1.735780e+02
   4.986484e+01   6.677042e+02
  -5.245291e+02   6.242089e+02
  -7.026943e+02   4.857223e+01
  -4.331949e+02  -5.797836e+02
   4.791252e+01  -6.947359e+02
   3.803023e+02  -1.704568e+02
   2.845216e+02   4.767058e+02
  -1.420112e+02   5.827761e+02
  -4.451548e+02   6.282623e+01
  -2.910387e+02  -5.178152e+02
   1.639409e+02  -6.094131e+02
   4.814732e+02  -2.258502e+02
   4.177002e+02   2.107596e+02
   1.031847e+02   3.687446e+02
  -1.456722e+02   2.459777e+02
  -1.068673e+02   6.311473e+01
   1.546770e+02   4.386491e+01
   3.010171e+02   2.180103e+02
   4.727164e+01   3.638182e+02
  -4.450359e+02   2.285702e+02
  -6.485432e+02  -1.405893e+02
  -2.762298e+02  -3.940424e+02
   3.234237e+02  -2.747244e+02
   5.486239e+02   9.283940e+01
   2.297170e+02   3.775864e+02
  -2.520596e+02   3.853069e+02
  -4.653765e+02   1.499372e+02
  -3.383750e+02  -1.671308e+02
  -8.313655e+01  -3.425687e+02
   7.201532e+01  -2.073477e+02
   2.269008e+01   1.187197e+02
  -1.636005e+02   2.301570e+02
  -2.612492e+02  -9.722544e+01
  -8.448508e+01  -5.226058e+02
   2.509877e+02  -4.991129e+02
   3.906889e+02  -8.367910e+00
   1.612526e+02   3.652036e+02
  -1.794928e+02   1.877109e+02
  -2.289852e+02  -2.701495e+02
   9.015219e+01  -4.171337e+02
   4.553640e+02  -8.223165e+01
   5.000974e+02   3.603493e+02
   1.583280e+02   4.990419e+02
  -3.059215e+02   2.830063e+02
  -5.283394e+02  -5.686596e+01
  -3.410530e+02  -2.738881e+02
   6.915536e+01  -2.582458e+02
   3.188514e+02  -7.837706e+01
   2.186064e+02   7.032117e+01
  -2.476022e+01   4.729881e+01
  -7.537381e+01  -7.272724e+01
   1.100979e+02  -9.347222e+01
   2.521327e+02   4.828207e+01
   1.283759e+02   2.125411e+02
  -1.568635e+02   2.426063e+02
  -3.260256e+02   1.179614e+02
  -2.380963e+02  -8.862011e+01
   1.973098e+01  -2.832319e+02
   2.614363e+02  -3.433117e+02
   3.441957e+02  -1.728496e+02
   2.417052e+02   1.470626e+02
   5.890070e+01   3.650643e+02
  -5.209911e+01   3.243518e+02
  -4.649744e+01   1.509395e+02
  -3.028963e+01   7.101872e+01
  -1.068738e+02   1.039991e+02
  -2.249313e+02   7.395196e+01
  -2.417815e+02  -9.590993e+01
  -1.068025e+02  -2.495937e+02
   8.357309e+01  -2.022700e+02
   1.927376e+02   2.448761e+01
   1.474714e+02   2.320725e+02
  -3.426524e+01   2.512959e+02
  -2.407955e+02   7.565537e+01
  -3.100923e+02  -1.616749e+02
  -1.691485e+02  -2.986538e+02
   5.944244e+01  -2.664025e+02
   1.749076e+02  -1.412504e+02
   1.423858e+02  -5.851176e+01
   1.294984e+02  -5.788604e+01
   2.551016e+02  -4.459188e+01
   3.921840e+02   7.897941e+01
   3.121885e+02   2.802827e+02
  -1.509907e+01   4.211071e+02
  -3.577884e+02   3.868434e+02
  -4.604878e+02   1.767497e+02
  -2.883192e+02  -9.243884e+01
  -2.936474e+01  -2.516403e+02
   9.762722e+01  -2.043923e+02
   2.904606e+01  -3.426913e+01
  -1.102345e+02   5.668086e+01
  -1.420576e+02  -2.690518e+01
  -1.983655e+01  -1.497648e+02
   1.226825e+02  -1.186908e+02
   1.233434e+02   5.144554e+01
  -2.334537e+01   1.418373e+02
  -1.631010e+02   9.605340e+00
  -1.499699e+02  -2.275913e+02
   1.983729e+01  -3.300909e+02
   2.280350e+02  -1.973367e+02
   3.358976e+02   5.719568e+01
   2.691372e+02   2.446282e+02
   6.822891e+01   2.608066e+02
  -1.193150e+02   1.403950e+02
  -1.516028e+02   1.018552e+01
  -3.967154e+01  -1.777856e+01
   5.400084e+01   5.313011e+01
   5.109575e+00   1.121139e+02
  -1.189217e+02   7.271563e+01
  -1.489925e+02  -2.166547e+01
  -3.693308e+01  -5.711962e+01
   7.869493e+01   4.684580e+00
   4.154075e+01   8.475370e+01
  -1.365850e+02   8.507368e+01
  -2.854115e+02  -1.446323e+01
  -2.493389e+02  -1.553595e+02
  -3.553104e+01  -2.506577e+02
   1.928358e+02  -2.321285e+02
   2.611169e+02  -1.011556e+02
   1.402406e+02   4.475754e+01
  -2.711531e+01   8.282936e+01
  -6.821457e+01  -1.227335e+00
   4.591053e+01  -8.243328e+01
   1.800095e+02  -3.894183e+01
   1.869120e+02   9.855804e+01
   5.776661e+01   1.847829e+02
  -8.581845e+01   1.358283e+02
  -1.244086e+02   1.957157e+01
  -5.012756e+01  -3.592592e+01
   3.759350e+01   1.463783e+01
   2.919060e+01   9.944521e+01
  -8.696663e+01   1.129827e+02
  -1.998454e+02   1.682820e+01
  -1.777637e+02  -1.259916e+02
  -1.356869e+01  -2.024667e+02
   1.511593e+02  -1.483047e+02
   1.719282e+02  -1.037834e+01
   5.578756e+01   9.510918e+01
  -5.980830e+01   9.532711e+01
  -7.004396e+01   2.537899e+01
  -5.074533e+00  -2.412134e+01
   3.228804e+01  -1.086151e+01
  -8.542911e+00   2.088656e+01
  -8.129080e+01   9.543736e-02
  -9.806034e+01  -8.537569e+01
  -1.250751e+01  -1.651784e+02
   1.327858e+02  -1.480471e+02
   2.281464e+02  -1.432765e+01
   1.875564e+02   1.496482e+02
   3.779730e+01   2.211179e+02
  -9.811424e+01   1.559790e+02
  -1.252966e+02   2.964694e+01
  -7.042902e+01  -4.441390e+01
  -3.156536e+01  -2.913469e+01
  -5.290195e+01   1.372385e+01
  -8.259525e+01   7.191757e+00
  -5.155102e+01  -5.319638e+01
   3.822314e+01  -9.861383e+01
   1.133760e+02  -6.348507e+01
   9.876563e+01   4.023667e+01
  -1.511242e+01   1.210314e+02
  -1.523705e+02   8.683476e+01
  -1.965478e+02  -5.902969e+01
  -8.592271e+01  -2.020129e+02
   1.150584e+02  -2.150814e+02
   2.564790e+02  -8.256036e+01
   2.376924e+02   8.467926e+01
   9.779469e+01   1.633270e+02
  -3.750216e+01   1.344113e+02
  -8.569490e+01   7.799782e+01
  -6.840693e+01   6.739100e+01
  -5.713168e+01   9.041228e+01
  -8.668261e+01   7.596419e+01
  -1.258636e+02  -1.735966e+01
  -1.150994e+02  -1.469310e+02
  -2.746625e+01  -2.164033e+02
   9.495572e+01  -1.614971e+02
   1.642379e+02  -1.374187e+01
   1.239562e+02   1.201805e+02
   1.174045e+01   1.504595e+02
  -7.026218e+01   8.019733e+01
  -5.969952e+01  -1.030954e+01
   1.648243e+00  -4.926013e+01
   2.213451e+01  -3.433279e+01
  -2.817528e+01  -1.253018e+01
  -8.021501e+01  -1.755455e+01
  -4.726441e+01  -3.787191e+01
   6.813758e+01  -3.818256e+01
   1.635736e+02  -7.387820e-02
   1.386558e+02   5.768133e+01
   3.145404e+00   9.202829e+01
  -1.258712e+02   7.132790e+01
  -1.394866e+02   7.625405e+00
  -4.357651e+01  -4.611026e+01
   5.734179e+01  -4.124760e+01
   7.470770e+01   1.697613e+01
   1.656894e+01   6.968168e+01
  -4.569687e+01   6.218511e+01
  -6.489831e+01   2.024899e+00
  -5.324673e+01  -4.820086e+01
  -4.553577e+01  -4.104543e+01
  -5.433760e+01  -1.381798e+00
  -6.257185e+01  -4.795098e-01
  -4.139088e+01  -6.840525e+01
   2.586564e+01  -1.455838e+02
   1.177238e+02  -1.400562e+02
   1.699419e+02  -3.335247e+01
   1.247207e+02   8.937218e+01
   3.848909e+00   1.264450e+02
  -8.720808e+01   6.574473e+01
  -5.950033e+01  -1.057840e+01
   5.574031e+01  -2.016685e+01
   1.292036e+02   3.904721e+01
   6.935350e+01   1.014189e+02
  -7.872151e+01   1.056024e+02
  -1.809021e+02   4.492960e+01
  -1.511366e+02  -3.664243e+01
  -3.112693e+01  -8.149049e+01
   6.035583e+01  -6.063354e+01
   4.655295e+01  -8.466543e-01
  -3.798707e+01   2.933184e+01
  -8.871741e+01  -1.830317e+01
  -3.823565e+01  -1.109885e+02
   7.638438e+01  -1.500628e+02
   1.520729e+02  -6.799471e+01
   1.223238e+02   8.760433e+01
   1.671918e+01   1.847401e+02
  -7.761102e+01   1.359504e+02
  -9.958362e+01  -9.074864e+00
  -5.472063e+01  -1.140395e+02
   9.459122e+00  -9.902610e+01
   4.808458e+01  -1.549721e+01
   4.496734e+01   3.021601e+01
   1.797583e+01   7.084696e+00
   5.083342e+00  -1.739644e+01
   2.726712e+01   1.890201e+01
   5.569516e+01   8.529431e+01
   3.364915e+01   1.008941e+02
  -5.124858e+01   4.151468e+01
  -1.306166e+02  -3.464614e+01
  -1.194412e+02  -6.533662e+01
  -1.791636e+01  -5.003193e+01
   7.817750e+01  -2.493628e+01
   8.292557e+01  -6.721241e+00
   1.542033e+01   1.013798e+01
  -3.346967e+01   2.106830e+01
  -1.736960e+01   1.344255e+01
   1.544694e+01  -3.514805e+00
  -3.397960e+00  -5.964487e+00
  -6.520579e+01   9.087848e-01
  -8.895764e+01  -1.999041e+01
  -1.921899e+01  -7.720915e+01
   1.033412e+02  -1.138086e+02
   1.786794e+02  -6.459982e+01
   1.449200e+02   5.569519e+01
   3.189670e+01   1.524495e+02
  -7.456328e+01   1.485007e+02
  -1.103326e+02   6.305485e+01
  -7.736848e+01  -1.765419e+01
  -2.551167e+01  -3.550620e+01
  -1.422054e+00  -1.168970e+01
  -1.261597e+01  -7.095907e+00
  -3.005935e+01  -4.592256e+01
  -1.913155e+01  -8.665724e+01
   2.703134e+01  -6.902428e+01
   7.574328e+01   1.385620e+01
   7.746391e+01   9.727878e+01
   1.337384e+01   1.057552e+02
  -7.257688e+01   3.033549e+01
  -1.016402e+02  -6.242410e+01
  -3.844899e+01  -9.806373e+01
   6.069568e+01  -6.091576e+01
   9.837348e+01   6.562306e+00
   4.328769e+01   5.343345e+01
  -3.167968e+01   5.756226e+01
  -3.627326e+01   2.827442e+01
   2.647178e+01  -5.083344e+00
   6.540055e+01  -9.182059e+00
   1.729445e+01   2.540039e+01
  -7.418221e+01   6.389990e+01
  -1.138065e+02   5.361744e+01
  -6.687866e+01  -1.425093e+01
   1.210719e+01  -8.118731e+01
   5.328805e+01  -7.962429e+01
   4.135618e+01  -1.153276e+01
   6.662201e+00   5.058904e+01
  -2.226854e+01   4.548284e+01
  -3.535444e+01  -1.079875e+01
  -2.779142e+01  -5.102175e+01
   5.120460e-01  -3.673008e+01
   3.196704e+01   4.931661e+00
   4.006692e+01   2.279140e+01
   1.992705e+01   3.604340e+00
  -3.362950e+00  -1.786474e+01
  -6.453057e+00  -5.751154e+00
   2.208613e+00   3.139166e+01
  -3.327225e+00   4.893343e+01
  -2.650456e+01   1.866471e+01
  -3.768820e+01  -3.474969e+01
  -1.041325e+01  -5.724220e+01
   3.895363e+01  -2.434124e+01
   5.937069e+01   3.176564e+01
   1.883650e+01   5.793288e+01
  -5.344106e+01   3.504142e+01
  -8.859634e+01  -1.013533e+01
  -4.906839e+01  -4.068222e+01
   2.666480e+01  -4.315017e+01
   6.198481e+01  -2.674262e+01
   2.668690e+01  -6.697815e+00
  -2.885310e+01   2.673821e+00
  -3.302988e+01  -7.320615e+00
   2.315520e+01  -2.583843e+01
   7.700823e+01  -2.128429e+01
