
 $NMID
 id='ANONYMOUS ', fmtdat='(2E16.6)'
 volume=1.0
 tramp=1.0
 $END
  -4.609179e+03   5.145882e+01
  -2.680895e+03  -2.787208e+03
   8.267348e+02  -2.928394e+03
   2.280082e+03  -8.850539e+02
   9.812453e+02   7.831561e+02
  -7.610326e+02   6.501001e+02
  -9.867177e+02  -4.849016e+02
   1.021243e+01  -1.165924e+03
   8.990886e+02  -8.339421e+02
   1.005294e+03   1.188107e+02
   4.695510e+02   9.337862e+02
  -2.775916e+02   9.493950e+02
  -7.000079e+02   1.126775e+02
  -4.175672e+02  -7.789972e+02
   2.949334e+02  -8.011333e+02
   6.534399e+02   1.561284e+01
   2.810748e+02   7.282688e+02
  -3.575745e+02   6.581691e+02
  -6.175423e+02   7.363362e+01
  -3.947826e+02  -3.843782e+02
  -4.632822e+00  -4.604742e+02
   2.631369e+02  -2.753694e+02
   2.368698e+02  -1.168839e+01
  -1.073148e+02   1.116031e+02
  -4.349046e+02  -9.291064e+01
  -2.340616e+02  -4.500618e+02
   4.683179e+02  -4.576899e+02
   9.045282e+02   5.758141e+01
   4.735563e+02   5.853993e+02
  -4.088569e+02   5.363258e+02
  -7.981818e+02  -1.882274e+01
  -3.809702e+02  -5.088282e+02
   2.893365e+02  -5.568068e+02
   5.961132e+02  -2.213227e+02
   4.430387e+02   2.404719e+02
   7.539662e+01   5.099578e+02
  -2.237377e+02   3.084293e+02
  -2.056202e+02  -2.372525e+02
   1.637208e+02  -4.864964e+02
   4.896427e+02  -9.210863e-01
   2.869701e+02   7.233089e+02
  -3.310347e+02   7.604127e+02
  -6.591737e+02   1.136702e+01
  -2.915733e+02  -5.994212e+02
   3.148203e+02  -3.560323e+02
   4.272805e+02   3.358110e+02
  -5.841304e+01   5.843675e+02
  -5.841379e+02   1.560813e+02
  -6.298196e+02  -4.180528e+02
  -1.773786e+02  -6.134947e+02
   4.012798e+02  -3.705405e+02
   6.634445e+02   7.200531e+01
   3.945263e+02   4.101565e+02
  -1.684165e+02   3.966573e+02
  -4.774643e+02   5.895762e+01
  -2.562492e+02  -2.225601e+02
   1.373810e+02  -1.245626e+02
   1.639884e+02   1.706338e+02
  -1.755571e+02   2.128967e+02
  -3.757470e+02  -7.558397e+01
  -1.520937e+02  -3.225564e+02
   2.161180e+02  -2.707734e+02
   3.396411e+02  -6.743954e+01
   1.912420e+02   8.631971e+01
  -2.729015e+01   2.143943e+02
  -2.124379e+02   3.269853e+02
  -3.373636e+02   2.348819e+02
  -3.080888e+02  -1.313419e+02
  -9.210239e+01  -4.570818e+02
   1.245535e+02  -4.075677e+02
   1.391890e+02  -1.108457e+02
   2.692870e+01   2.873120e+01
   2.907140e+01  -8.332709e+01
   1.878949e+02  -1.459589e+02
   2.909861e+02   3.874184e+01
   1.782866e+02   2.757290e+02
  -6.482110e+01   2.742826e+02
  -2.383136e+02   2.308500e+01
  -2.160053e+02  -2.425985e+02
  -2.312987e-01  -3.089838e+02
   2.736232e+02  -1.322205e+02
   3.804723e+02   1.648745e+02
   2.001101e+02   3.655032e+02
  -1.043576e+02   3.236014e+02
  -2.414259e+02   1.235563e+02
  -1.568862e+02  -4.181476e+00
  -9.415819e+01   3.034590e+01
  -2.300262e+02   7.219698e+01
  -4.069915e+02  -4.750579e+01
  -3.441662e+02  -2.841082e+02
  -7.126929e+00  -4.519565e+02
   3.579692e+02  -4.280710e+02
   4.965916e+02  -2.156746e+02
   3.526826e+02   8.874943e+01
   6.620938e+01   3.065276e+02
  -1.348030e+02   2.705152e+02
  -9.511798e+01   3.165894e+01
   1.087735e+02  -1.227619e+02
   2.119751e+02  -2.887609e+00
   6.229973e+01   2.089514e+02
  -1.697365e+02   1.907926e+02
  -1.967174e+02  -5.998164e+01
   1.228829e+01  -2.086110e+02
   2.040673e+02  -4.231583e+01
   1.727841e+02   2.535775e+02
  -3.009901e+01   3.587106e+02
  -2.316115e+02   1.959736e+02
  -3.273247e+02  -6.149927e+01
  -2.842572e+02  -2.353994e+02
  -1.052074e+02  -2.645431e+02
   1.105685e+02  -1.680982e+02
   1.857040e+02  -2.677511e+01
   6.525791e+01   3.509138e+01
  -7.466035e+01  -3.416438e+01
  -3.796909e+01  -1.289514e+02
   1.248539e+02  -1.096993e+02
   1.884125e+02   7.479337e+00
   6.586716e+01   7.628238e+01
  -8.045545e+01   2.328879e+01
  -5.986817e+01  -6.959457e+01
   1.195360e+02  -8.870782e+01
   2.817640e+02  -6.463746e+00
   2.693865e+02   1.328230e+02
   7.026362e+01   2.559619e+02
  -1.790702e+02   2.725513e+02
  -2.897226e+02   1.386274e+02
  -1.809123e+02  -5.083108e+01
   2.179819e+01  -1.185105e+02
   9.793704e+01  -1.295765e+01
  -2.740888e+01   1.078501e+02
  -2.004552e+02   6.878527e+01
  -2.242893e+02  -1.007753e+02
  -7.678027e+01  -2.151251e+02
   9.492369e+01  -1.673717e+02
   1.503588e+02  -3.450077e+01
   7.777578e+01   4.215471e+01
  -2.468371e+01   8.292866e+00
  -4.066675e+01  -7.783152e+01
   6.549903e+01  -1.136155e+02
   1.969446e+02  -3.532910e+01
   1.979443e+02   1.195889e+02
   2.741020e+01   2.231542e+02
  -1.668096e+02   1.726966e+02
  -2.022689e+02   8.658443e+00
  -7.094083e+01  -1.201920e+02
   6.735656e+01  -1.186492e+02
   8.751129e+01  -3.403851e+01
   2.307479e+01   2.625768e+01
  -1.807887e+01   2.111241e+01
   1.014832e+01  -4.435011e+00
   6.792293e+01   1.025535e+01
   8.633206e+01   7.947746e+01
   1.812183e+01   1.555267e+02
  -1.214347e+02   1.552472e+02
  -2.343385e+02   3.309071e+01
  -2.085785e+02  -1.465202e+02
  -4.742279e+01  -2.418880e+02
   1.096933e+02  -1.766349e+02
   1.393906e+02  -2.896211e+01
   7.204812e+01   5.816509e+01
   2.847481e+01   3.764442e+01
   5.342656e+01  -1.250503e+01
   7.885112e+01  -7.310191e+00
   3.971743e+01   4.814917e+01
  -4.220817e+01   8.528572e+01
  -9.826194e+01   5.417615e+01
  -8.190040e+01  -3.272066e+01
   1.120854e+01  -1.070721e+02
   1.365959e+02  -8.763246e+01
   1.975620e+02   4.492022e+01
   1.081232e+02   1.988472e+02
  -9.934330e+01   2.340996e+02
  -2.681809e+02   1.049988e+02
  -2.652325e+02  -8.170460e+01
  -1.165800e+02  -1.791055e+02
   3.664761e+01  -1.520563e+02
   9.600982e+01  -8.777712e+01
   8.163010e+01  -7.155359e+01
   6.826694e+01  -9.218863e+01
   9.287725e+01  -7.498218e+01
   1.291328e+02   2.142831e+01
   1.205953e+02   1.541397e+02
   3.381821e+01   2.282293e+02
  -9.691083e+01   1.769029e+02
  -1.783878e+02   2.548471e+01
  -1.419604e+02  -1.199457e+02
  -2.395962e+01  -1.619694e+02
   6.496252e+01  -9.686642e+01
   6.018618e+01  -4.647857e+00
   7.267026e+00   4.068334e+01
  -6.736049e+00   3.464246e+01
   3.862759e+01   1.922918e+01
   7.915381e+01   2.300398e+01
   4.445238e+01   3.759623e+01
  -6.181759e+01   3.731861e+01
  -1.558005e+02   5.993078e+00
  -1.447862e+02  -4.724743e+01
  -1.993297e+01  -8.703906e+01
   1.177011e+02  -7.635433e+01
   1.461355e+02  -1.723208e+01
   5.029263e+01   3.867955e+01
  -6.022844e+01   3.729386e+01
  -7.632303e+01  -1.833660e+01
  -6.384894e+00  -6.780527e+01
   5.740496e+01  -5.750129e+01
   6.278703e+01   2.218711e+00
   4.234916e+01   4.983725e+01
   4.337815e+01   4.136366e+01
   6.303674e+01   1.642670e+00
   6.690702e+01  -2.757511e-01
   3.443693e+01   6.672694e+01
  -3.240497e+01   1.455941e+02
  -1.134268e+02   1.425677e+02
  -1.614953e+02   3.542007e+01
  -1.236815e+02  -8.932870e+01
  -9.159293e+00  -1.254386e+02
   8.441200e+01  -6.143019e+01
   6.005439e+01   1.518500e+01
  -5.947417e+01   2.085720e+01
  -1.398395e+02  -4.234163e+01
  -7.905682e+01  -1.073197e+02
   7.910921e+01  -1.150275e+02
   1.921460e+02  -5.663719e+01
   1.657203e+02   3.036786e+01
   4.021433e+01   8.720045e+01
  -5.976642e+01   7.351702e+01
  -4.944787e+01   9.834978e+00
   3.834484e+01  -2.677172e+01
   9.102656e+01   2.207059e+01
   3.334010e+01   1.196629e+02
  -9.245797e+01   1.561705e+02
  -1.697593e+02   6.326514e+01
  -1.289247e+02  -1.014849e+02
  -1.171914e+01  -1.999392e+02
   8.500111e+01  -1.471246e+02
   1.056540e+02   4.388021e+00
   6.388391e+01   1.175699e+02
   1.957528e+00   1.081537e+02
  -4.476378e+01   2.212455e+01
  -5.421209e+01  -3.054706e+01
  -2.811793e+01  -8.603774e+00
  -3.302073e+00   2.142537e+01
  -1.894602e+01  -1.362981e+01
  -5.681976e+01  -8.815977e+01
  -4.581856e+01  -1.106391e+02
   4.477849e+01  -4.676127e+01
   1.403575e+02   3.855884e+01
   1.332996e+02   7.031280e+01
   1.815021e+01   4.914350e+01
  -8.988412e+01   2.261247e+01
  -8.935832e+01   9.189410e+00
  -9.663567e+00  -6.395534e+00
   3.946044e+01  -2.314384e+01
   1.293306e+01  -1.962025e+01
  -2.287152e+01   1.240125e+00
   6.451767e+00   9.824607e+00
   7.642083e+01   4.219511e+00
   9.203199e+01   2.356017e+01
   6.512450e+00   8.050946e+01
  -1.205028e+02   1.151771e+02
  -1.855472e+02   5.881936e+01
  -1.407539e+02  -6.833784e+01
  -2.601446e+01  -1.632696e+02
   7.776600e+01  -1.503200e+02
   1.137546e+02  -5.837124e+01
   8.127022e+01   2.143958e+01
   2.502450e+01   3.481360e+01
  -4.065859e+00   7.862603e+00
   9.526755e+00   3.049475e+00
   3.432394e+01   4.487423e+01
   2.475026e+01   9.002882e+01
  -2.867700e+01   7.224158e+01
  -8.230890e+01  -1.864986e+01
  -7.780630e+01  -1.096456e+02
  -3.173509e+00  -1.131560e+02
   8.417860e+01  -2.287001e+01
   1.036293e+02   7.720733e+01
   3.135032e+01   1.038754e+02
  -6.689655e+01   5.458573e+01
  -9.715311e+01  -1.205365e+01
  -3.834829e+01  -4.897435e+01
   3.219247e+01  -5.018346e+01
   2.933734e+01  -2.831315e+01
  -3.587173e+01  -3.742214e-01
  -6.979554e+01   6.829804e+00
  -1.445066e+01  -2.463415e+01
   7.917040e+01  -6.706173e+01
   1.144212e+02  -6.098000e+01
   6.261149e+01   1.043029e+01
  -1.566496e+01   8.307686e+01
  -5.152946e+01   7.934110e+01
  -3.545987e+01   4.421016e+00
  -7.304216e-01  -5.688982e+01
   2.598616e+01  -4.211061e+01
   3.663686e+01   1.978576e+01
   2.663750e+01   5.407049e+01
  -3.049236e+00   3.154219e+01
  -3.327449e+01  -9.064430e+00
  -3.948067e+01  -1.992856e+01
  -2.061351e+01  -1.529657e-01
   1.429296e-01   1.301521e+01
   6.792662e+00  -5.395814e+00
   8.431946e+00  -3.778295e+01
   1.942206e+01  -4.347977e+01
   3.347825e+01  -5.088271e+00
   2.858882e+01   4.706884e+01
  -4.664948e+00   6.152678e+01
  -4.556721e+01   1.990728e+01
  -5.573118e+01  -4.034668e+01
  -1.392611e+01  -6.383562e+01
   5.443531e+01  -3.403152e+01
   8.833808e+01   1.577356e+01
   4.916343e+01   4.407294e+01
  -2.871762e+01   4.007855e+01
  -6.481232e+01   2.045222e+01
  -2.331644e+01   4.537587e+00
   3.923554e+01   3.059921e+00
   3.887937e+01   1.740775e+01
  -3.212607e+01   3.280373e+01
  -9.405974e+01   2.018979e+01
