
 $NMID
 id='ANONYMOUS ', fmtdat='(2E16.6)'
 volume=1.0
 tramp=1.0
 $END
   4.636448e+03   3.579417e+01
   2.637930e+03   2.864217e+03
  -9.026920e+02   2.932670e+03
  -2.322679e+03   8.325182e+02
  -9.693654e+02  -8.268229e+02
   7.907907e+02  -6.485808e+02
   9.923791e+02   5.110110e+02
  -3.292458e+01   1.179466e+03
  -9.249194e+02   8.224375e+02
  -1.011206e+03  -1.429276e+02
  -4.524063e+02  -9.524708e+02
   3.025185e+02  -9.509891e+02
   7.114872e+02  -9.808356e+01
   4.067316e+02   7.945993e+02
  -3.143601e+02   8.010222e+02
  -6.587408e+02  -3.036207e+01
  -2.661778e+02  -7.391099e+02
   3.764594e+02  -6.517242e+02
   6.229138e+02  -5.630835e+01
   3.860126e+02   3.975181e+02
  -7.692026e+00   4.629849e+02
  -2.718566e+02   2.708738e+02
  -2.411804e+02   5.910067e+00
   1.065470e+02  -1.139475e+02
   4.352262e+02   9.646900e+01
   2.309084e+02   4.550992e+02
  -4.755210e+02   4.544275e+02
  -9.085883e+02  -7.160465e+01
  -4.679609e+02  -5.985253e+02
   4.197659e+02  -5.356294e+02
   8.032340e+02   3.109528e+01
   3.752521e+02   5.185523e+02
  -3.000789e+02   5.551230e+02
  -6.027992e+02   2.115551e+02
  -4.407268e+02  -2.507105e+02
  -6.546809e+01  -5.156950e+02
   2.339058e+02  -3.073497e+02
   2.071187e+02   2.434884e+02
  -1.714893e+02   4.902734e+02
  -4.951740e+02  -4.291515e+00
  -2.793173e+02  -7.323778e+02
   3.466963e+02  -7.605935e+02
   6.664650e+02   3.671624e-01
   2.842918e+02   6.106514e+02
  -3.246418e+02   3.550642e+02
  -4.261524e+02  -3.444640e+02
   6.813755e+01  -5.867724e+02
   5.894108e+02  -1.468378e+02
   6.239430e+02   4.309264e+02
   1.654823e+02   6.190414e+02
  -4.103744e+02   3.646704e+02
  -6.645724e+02  -8.517685e+01
  -3.875401e+02  -4.213711e+02
   1.785412e+02  -3.973401e+02
   4.827472e+02  -4.929785e+01
   2.532020e+02   2.321290e+02
  -1.428172e+02   1.247644e+02
  -1.636479e+02  -1.762058e+02
   1.808039e+02  -2.131076e+02
   3.773996e+02   8.322220e+01
   1.464917e+02   3.282986e+02
  -2.229164e+02   2.668018e+02
  -3.408286e+02   5.850134e+01
  -1.872249e+02  -9.032225e+01
   3.246103e+01  -2.108652e+02
   2.170705e+02  -3.205957e+02
   3.405302e+02  -2.291465e+02
   3.065183e+02   1.363506e+02
   8.406156e+01   4.604643e+02
  -1.345417e+02   4.070564e+02
  -1.445265e+02   1.069099e+02
  -2.687018e+01  -3.262517e+01
  -2.822988e+01   8.117585e+01
  -1.885658e+02   1.437451e+02
  -2.905144e+02  -4.239927e+01
  -1.745850e+02  -2.789558e+02
   6.918537e+01  -2.743792e+02
   2.392486e+02  -1.998292e+01
   2.126627e+02   2.462091e+02
  -4.633432e+00   3.097288e+02
  -2.762312e+02   1.282492e+02
  -3.782501e+02  -1.719075e+02
  -1.933847e+02  -3.705929e+02
   1.119076e+02  -3.226853e+02
   2.456520e+02  -1.180088e+02
   1.572673e+02   9.478179e+00
   9.350046e+01  -2.708008e+01
   2.297586e+02  -6.790981e+01
   4.049935e+02   5.469407e+01
   3.382596e+02   2.903150e+02
  -1.368973e+00   4.515761e+02
  -3.655081e+02   4.206436e+02
  -5.004910e+02   2.061993e+02
  -3.518847e+02  -9.524929e+01
  -6.124867e+01  -3.085484e+02
   1.408168e+02  -2.693742e+02
   9.775127e+01  -2.997134e+01
  -1.104616e+02   1.223395e+02
  -2.135305e+02  -2.423962e-02
  -5.961673e+01  -2.113003e+02
   1.742642e+02  -1.894469e+02
   1.974073e+02   6.365633e+01
  -1.574333e+01   2.098915e+02
  -2.054655e+02   3.933019e+01
  -1.679057e+02  -2.571152e+02
   3.764916e+01  -3.580084e+02
   2.351203e+02  -1.904929e+02
   3.247533e+02   6.836792e+01
   2.788867e+02   2.401857e+02
   1.006277e+02   2.657695e+02
  -1.132371e+02   1.661359e+02
  -1.867207e+02   2.362270e+01
  -6.531882e+01  -3.674649e+01
   7.427386e+01   3.482097e+01
   3.639494e+01   1.296713e+02
  -1.266862e+02   1.080457e+02
  -1.889026e+02  -1.062350e+01
  -6.519174e+01  -7.785942e+01
   8.054307e+01  -2.249721e+01
   5.873533e+01   6.997758e+01
  -1.204112e+02   8.592527e+01
  -2.807378e+02   1.231396e+00
  -2.662783e+02  -1.371294e+02
  -6.590810e+01  -2.565538e+02
   1.834452e+02  -2.692239e+02
   2.924125e+02  -1.336177e+02
   1.807118e+02   5.436288e+01
  -2.376417e+01   1.188583e+02
  -9.880798e+01   1.157105e+01
   2.876170e+01  -1.076665e+02
   2.017416e+02  -6.554227e+01
   2.227669e+02   1.049519e+02
   7.291015e+01   2.169502e+02
  -9.820514e+01   1.660025e+02
  -1.513826e+02   3.194685e+01
  -7.763746e+01  -4.365711e+01
   2.417015e+01  -8.434831e+00
   3.914042e+01   7.761810e+01
  -6.693660e+01   1.117510e+02
  -1.968314e+02   3.170465e+01
  -1.954611e+02  -1.229897e+02
  -2.327872e+01  -2.236308e+02
   1.702534e+02  -1.696114e+02
   2.028626e+02  -4.564856e+00
   6.890544e+01   1.220417e+02
  -6.971264e+01   1.177181e+02
  -8.848001e+01   3.252497e+01
  -2.308157e+01  -2.659737e+01
   1.790432e+01  -2.091124e+01
  -1.038632e+01   3.660682e+00
  -6.711764e+01  -1.209657e+01
  -8.395536e+01  -8.092208e+01
  -1.492929e+01  -1.550490e+02
   1.238640e+02  -1.523804e+02
   2.343690e+02  -2.876714e+01
   2.055513e+02   1.501644e+02
   4.269368e+01   2.427590e+02
  -1.132876e+02   1.745753e+02
  -1.400454e+02   2.603548e+01
  -7.076257e+01  -5.994705e+01
  -2.755586e+01  -3.843521e+01
  -5.354800e+01   1.131009e+01
  -7.862902e+01   5.613158e+00
  -3.814505e+01  -4.874593e+01
   4.409582e+01  -8.371135e+01
   9.864307e+01  -5.152077e+01
   8.032931e+01   3.420197e+01
  -1.338537e+01   1.059982e+02
  -1.374597e+02   8.440913e+01
  -1.959331e+02  -4.842681e+01
  -1.043551e+02  -2.002151e+02
   1.032558e+02  -2.318182e+02
   2.697707e+02  -9.990788e+01
   2.636077e+02   8.669424e+01
   1.132232e+02   1.813824e+02
  -3.955520e+01   1.514076e+02
  -9.782492e+01   8.590246e+01
  -8.329139e+01   6.986112e+01
  -7.034861e+01   9.061452e+01
  -9.437410e+01   7.281621e+01
  -1.284217e+02  -2.417818e+01
  -1.172324e+02  -1.563858e+02
  -2.923965e+01  -2.285782e+02
   1.002621e+02  -1.748598e+02
   1.787573e+02  -2.217618e+01
   1.396167e+02   1.223997e+02
   2.099609e+01   1.622649e+02
  -6.648232e+01   9.573158e+01
  -6.000048e+01   3.886352e+00
  -6.632482e+00  -4.034990e+01
   6.913599e+00  -3.428913e+01
  -3.850981e+01  -2.012779e+01
  -7.842900e+01  -2.478205e+01
  -4.342861e+01  -3.842048e+01
   6.219650e+01  -3.583159e+01
   1.551298e+02  -2.857112e+00
   1.434753e+02   4.972922e+01
   1.858318e+01   8.688924e+01
  -1.186153e+02   7.376224e+01
  -1.461937e+02   1.449595e+01
  -4.949903e+01  -3.930827e+01
   6.094815e+01  -3.580344e+01
   7.576548e+01   1.991096e+01
   4.585155e+00   6.773853e+01
  -5.886214e+01   5.604745e+01
  -6.250378e+01  -3.686039e+00
  -4.081476e+01  -5.070435e+01
  -4.230557e+01  -4.216898e+01
  -6.310312e+01  -2.901101e+00
  -6.684534e+01  -1.067542e+00
  -3.268339e+01  -6.723344e+01
   3.557335e+01  -1.445092e+02
   1.158908e+02  -1.398010e+02
   1.614283e+02  -3.193671e+01
   1.213890e+02   9.164403e+01
   6.678472e+00   1.251639e+02
  -8.537046e+01   5.930355e+01
  -5.960172e+01  -1.654710e+01
   5.984654e+01  -1.959839e+01
   1.389021e+02   4.516903e+01
   7.693734e+01   1.087672e+02
  -8.121228e+01   1.133354e+02
  -1.930258e+02   5.292041e+01
  -1.650158e+02  -3.341936e+01
  -3.861513e+01  -8.789603e+01
   6.100225e+01  -7.247017e+01
   4.953069e+01  -9.096718e+00
  -3.881638e+01   2.580090e+01
  -9.038635e+01  -2.401778e+01
  -3.062906e+01  -1.203178e+02
   9.593897e+01  -1.540740e+02
   1.711894e+02  -5.948457e+01
   1.267250e+02   1.042890e+02
   7.440526e+00   2.001133e+02
  -8.798289e+01   1.453204e+02
  -1.054033e+02  -6.380970e+00
  -6.156138e+01  -1.185911e+02
  -1.441960e-01  -1.080820e+02
   4.492446e+01  -2.131930e+01
   5.372021e+01   3.152866e+01
   2.820636e+01   9.141670e+00
   3.649591e+00  -2.141310e+01
   1.827903e+01   1.386609e+01
   5.485633e+01   8.916227e+01
   4.384615e+01   1.114931e+02
  -4.535783e+01   4.580819e+01
  -1.394718e+02  -4.143661e+01
  -1.319195e+02  -7.294907e+01
  -1.706618e+01  -4.933760e+01
   9.049184e+01  -2.066835e+01
   8.947160e+01  -7.422212e+00
   9.275697e+00   6.493185e+00
  -4.000983e+01   2.236068e+01
  -1.310630e+01   1.946545e+01
   2.309553e+01  -7.353086e-01
  -6.358586e+00  -1.003758e+01
  -7.651321e+01  -5.896982e+00
  -9.138203e+01  -2.551132e+01
  -4.399034e+00  -8.060059e+01
   1.231103e+02  -1.124687e+02
   1.864743e+02  -5.460607e+01
   1.388352e+02   7.153124e+01
   2.239602e+01   1.637152e+02
  -8.076430e+01   1.483076e+02
  -1.147716e+02   5.567369e+01
  -8.072809e+01  -2.317331e+01
  -2.419580e+01  -3.520845e+01
   4.432946e+00  -7.663426e+00
  -9.297884e+00  -3.124558e+00
  -3.341467e+01  -4.538480e+01
  -2.300481e+01  -9.033808e+01
   3.013136e+01  -7.153702e+01
   8.192008e+01   2.042858e+01
   7.537149e+01   1.113493e+02
   5.030381e-01   1.131960e+02
  -8.484421e+01   2.086871e+01
  -1.018666e+02  -7.962306e+01
  -2.887967e+01  -1.044570e+02
   6.808779e+01  -5.284539e+01
   9.659605e+01   1.424532e+01
   3.700197e+01   4.950865e+01
  -3.321436e+01   4.910527e+01
  -2.960175e+01   2.756027e+01
   3.611216e+01   1.239734e+00
   6.988713e+01  -5.300214e+00
   1.378735e+01   2.485457e+01
  -8.047252e+01   6.533952e+01
  -1.153056e+02   5.864950e+01
  -6.202359e+01  -1.160978e+01
   1.746178e+01  -8.257976e+01
   5.297105e+01  -7.799157e+01
   3.529360e+01  -3.379105e+00
  -6.176364e-01   5.698563e+01
  -2.693781e+01   4.134778e+01
  -3.621854e+01  -2.078702e+01
  -2.540583e+01  -5.457114e+01
   3.824796e+00  -3.122193e+01
   3.305586e+01   9.863449e+00
   3.889877e+01   2.059944e+01
   2.054350e+01   4.613469e-01
   2.755787e-01  -1.283634e+01
  -6.813035e+00   5.618702e+00
  -9.511027e+00   3.778487e+01
  -2.085969e+01   4.287120e+01
  -3.381826e+01   3.961372e+00
  -2.729605e+01  -4.800685e+01
   6.419485e+00  -6.149451e+01
   4.609933e+01  -1.878949e+01
   5.465221e+01   4.170600e+01
   1.242319e+01   6.416473e+01
  -5.501857e+01   3.275870e+01
  -8.776459e+01  -1.776694e+01
  -4.811556e+01  -4.507870e+01
   2.955930e+01  -3.926277e+01
   6.518055e+01  -1.883859e+01
   2.323977e+01  -3.936788e+00
  -3.944472e+01  -3.989531e+00
  -3.866743e+01  -1.846687e+01
   3.296568e+01  -3.233244e+01
   9.477648e+01  -1.824743e+01
