
 $NMID
 id='ANONYMOUS ', fmtdat='(2E16.6)'
 volume=1.0
 tramp=1.0
 $END
   4.042496e+03   1.245694e+01
   2.465930e+03   2.334764e+03
  -4.762063e+02   2.592472e+03
  -1.875458e+03   1.065272e+03
  -1.014435e+03  -3.635178e+02
   3.990555e+02  -4.791165e+02
   7.283183e+02   3.054070e+02
   2.629014e+01   9.044172e+02
  -7.111942e+02   7.343868e+02
  -8.638023e+02  -2.853177e+01
  -4.614492e+02  -7.611322e+02
   1.563035e+02  -8.351586e+02
   5.353642e+02  -1.541968e+02
   3.482557e+02   6.241317e+02
  -2.201909e+02   6.978089e+02
  -5.539839e+02   2.734886e+01
  -2.906957e+02  -6.346387e+02
   2.674980e+02  -6.560143e+02
   5.697008e+02  -1.620468e+02
   4.248621e+02   3.047971e+02
   5.859742e+01   4.282621e+02
  -2.064865e+02   2.679504e+02
  -1.689972e+02   4.613485e+01
   1.334240e+02  -1.232875e+01
   3.565583e+02   1.784134e+02
   1.189287e+02   4.077009e+02
  -4.698063e+02   3.198102e+02
  -7.723311e+02  -1.212641e+02
  -3.644276e+02  -4.893660e+02
   3.694019e+02  -3.874768e+02
   6.676980e+02   7.257885e+01
   2.950752e+02   4.477272e+02
  -2.822913e+02   4.652000e+02
  -5.394608e+02   1.763165e+02
  -3.927559e+02  -2.102801e+02
  -7.931941e+01  -4.282274e+02
   1.401334e+02  -2.612304e+02
   1.006285e+02   1.659026e+02
  -1.667958e+02   3.404923e+02
  -3.592874e+02  -5.912140e+01
  -1.638071e+02  -6.206889e+02
   2.988372e+02  -6.224554e+02
   5.174598e+02  -8.684412e+00
   2.197753e+02   4.763552e+02
  -2.416703e+02   2.647869e+02
  -3.145238e+02  -3.069836e+02
   8.659793e+01  -4.987037e+02
   5.260627e+02  -1.072377e+02
   5.645822e+02   4.084704e+02
   1.616128e+02   5.700277e+02
  -3.625788e+02   3.247394e+02
  -6.037862e+02  -7.619668e+01
  -3.735210e+02  -3.494424e+02
   1.154482e+02  -3.275865e+02
   4.002682e+02  -6.990352e+01
   2.466572e+02   1.414791e+02
  -7.083992e+01   8.497042e+01
  -1.167811e+02  -1.149662e+02
   1.396343e+02  -1.459231e+02
   3.128482e+02   6.429149e+01
   1.410753e+02   2.694642e+02
  -1.938868e+02   2.612605e+02
  -3.499796e+02   9.207186e+01
  -2.250559e+02  -1.003079e+02
   3.511176e+01  -2.653293e+02
   2.624494e+02  -3.398367e+02
   3.575384e+02  -1.944448e+02
   2.734873e+02   1.510136e+02
   6.742822e+01   4.179112e+02
  -9.084778e+01   3.727873e+02
  -9.304159e+01   1.424324e+02
  -3.625521e+01   3.128739e+01
  -8.274256e+01   9.303947e+01
  -2.176636e+02   9.831193e+01
  -2.663450e+02  -8.135845e+01
  -1.339944e+02  -2.705449e+02
   8.236381e+01  -2.366921e+02
   2.164751e+02   9.786829e+00
   1.749286e+02   2.472326e+02
  -2.668934e+01   2.825572e+02
  -2.638243e+02   9.598370e+01
  -3.464953e+02  -1.759929e+02
  -1.820557e+02  -3.419571e+02
   8.630121e+01  -3.004571e+02
   2.143673e+02  -1.366672e+02
   1.582440e+02  -3.094924e+01
   1.227324e+02  -4.329317e+01
   2.548481e+02  -4.892778e+01
   4.098495e+02   8.044823e+01
   3.291024e+02   3.010654e+02
  -1.817688e+01   4.488920e+02
  -3.819898e+02   4.079622e+02
  -4.972156e+02   1.870450e+02
  -3.232337e+02  -1.007825e+02
  -4.026043e+01  -2.836159e+02
   1.204872e+02  -2.382620e+02
   5.876653e+01  -3.627071e+01
  -1.129967e+02   8.286687e+01
  -1.745756e+02  -1.714491e+01
  -3.600306e+01  -1.790561e+02
   1.477388e+02  -1.513446e+02
   1.573530e+02   5.783763e+01
  -2.134591e+01   1.739024e+02
  -1.854203e+02   2.018428e+01
  -1.592980e+02  -2.509079e+02
   3.387725e+01  -3.545775e+02
   2.444910e+02  -1.975503e+02
   3.437774e+02   7.188103e+01
   2.779553e+02   2.579590e+02
   7.835367e+01   2.730892e+02
  -1.235197e+02   1.533205e+02
  -1.712901e+02   1.417162e+01
  -5.198156e+01  -2.585128e+01
   6.227783e+01   4.814864e+01
   1.617721e+01   1.222925e+02
  -1.267512e+02   8.747074e+01
  -1.699033e+02  -1.961895e+01
  -4.939054e+01  -6.726769e+01
   8.121175e+01  -4.397995e+00
   4.754572e+01   8.228938e+01
  -1.372750e+02   8.499517e+01
  -2.936815e+02  -1.526379e+01
  -2.616485e+02  -1.588956e+02
  -4.383033e+01  -2.622815e+02
   2.001204e+02  -2.514294e+02
   2.847313e+02  -1.137501e+02
   1.614337e+02   5.169940e+01
  -2.707676e+01   9.980974e+01
  -8.259490e+01   3.708101e+00
   4.152588e+01  -9.402907e+01
   1.954816e+02  -4.812465e+01
   2.067370e+02   1.075535e+02
   6.343276e+01   2.055630e+02
  -9.584196e+01   1.519181e+02
  -1.400121e+02   2.374213e+01
  -6.269620e+01  -4.033912e+01
   3.232079e+01   7.358764e+00
   3.116079e+01   9.476533e+01
  -8.487687e+01   1.140899e+02
  -2.061672e+02   1.889684e+01
  -1.889035e+02  -1.328801e+02
  -1.444170e+01  -2.187712e+02
   1.671053e+02  -1.601607e+02
   1.915826e+02  -5.993053e+00
   6.232253e+01   1.103217e+02
  -6.726002e+01   1.071704e+02
  -8.044696e+01   2.850412e+01
  -1.208893e+01  -2.537805e+01
   2.756331e+01  -1.397567e+01
  -1.084344e+01   1.466700e+01
  -7.931089e+01  -7.236467e+00
  -9.412971e+01  -8.972564e+01
  -9.853743e+00  -1.677365e+02
   1.374893e+02  -1.522370e+02
   2.392539e+02  -1.590200e+01
   1.988288e+02   1.590814e+02
   3.728872e+01   2.390947e+02
  -1.106986e+02   1.680503e+02
  -1.369479e+02   2.722202e+01
  -7.301758e+01  -5.394855e+01
  -3.095106e+01  -3.489337e+01
  -5.564265e+01   1.214314e+01
  -8.446040e+01   4.828028e+00
  -4.679727e+01  -5.522473e+01
   4.492938e+01  -9.588778e+01
   1.138242e+02  -5.798681e+01
   9.405349e+01   4.239202e+01
  -1.836185e+01   1.193074e+02
  -1.543699e+02   8.521214e+01
  -2.022091e+02  -6.146794e+01
  -9.212988e+01  -2.102865e+02
   1.188511e+02  -2.271487e+02
   2.729254e+02  -8.765620e+01
   2.556210e+02   9.293787e+01
   1.049945e+02   1.784688e+02
  -4.203015e+01   1.457625e+02
  -9.530930e+01   8.286010e+01
  -7.845734e+01   7.015836e+01
  -6.668197e+01   9.334485e+01
  -9.499353e+01   7.608357e+01
  -1.317313e+02  -2.346430e+01
  -1.176130e+02  -1.589440e+02
  -2.498409e+01  -2.302968e+02
   1.038018e+02  -1.713137e+02
   1.764347e+02  -1.466433e+01
   1.325317e+02   1.278361e+02
   1.310117e+01   1.609451e+02
  -7.258582e+01   8.785432e+01
  -6.129969e+01  -6.316244e+00
  -1.298184e-01  -4.720094e+01
   1.764318e+01  -3.449412e+01
  -3.349118e+01  -1.624550e+01
  -8.256370e+01  -2.300906e+01
  -4.675336e+01  -4.079343e+01
   6.936552e+01  -3.695440e+01
   1.664547e+02   2.810765e+00
   1.443852e+02   5.960679e+01
   7.205980e+00   9.294916e+01
  -1.293537e+02   7.198023e+01
  -1.475063e+02   7.884453e+00
  -4.633825e+01  -4.588467e+01
   6.219213e+01  -3.955684e+01
   7.780795e+01   2.043355e+01
   1.076332e+01   7.252333e+01
  -5.443206e+01   6.171538e+01
  -6.677110e+01  -1.740378e+00
  -4.936921e+01  -5.282531e+01
  -4.515557e+01  -4.425720e+01
  -6.002500e+01  -2.866872e+00
  -6.675357e+01  -1.936094e+00
  -3.793636e+01  -7.191392e+01
   3.406360e+01  -1.507006e+02
   1.247143e+02  -1.427358e+02
   1.739688e+02  -2.993619e+01
   1.263743e+02   9.669983e+01
   2.271819e+00   1.308364e+02
  -9.162540e+01   6.370723e+01
  -6.189721e+01  -1.471017e+01
   6.004534e+01  -1.967014e+01
   1.375613e+02   4.547877e+01
   7.318807e+01   1.095473e+02
  -8.480709e+01   1.112046e+02
  -1.934997e+02   4.641761e+01
  -1.616743e+02  -3.952401e+01
  -3.382881e+01  -8.761516e+01
   6.380092e+01  -6.645369e+01
   4.922597e+01  -3.295250e+00
  -4.061416e+01   2.825178e+01
  -9.270480e+01  -2.321476e+01
  -3.461834e+01  -1.202677e+02
   9.039371e+01  -1.567129e+02
   1.675966e+02  -6.469767e+01
   1.276697e+02   1.002648e+02
   1.021622e+01   1.989309e+02
  -8.742483e+01   1.437709e+02
  -1.054991e+02  -1.030164e+01
  -5.728001e+01  -1.212445e+02
   7.766628e+00  -1.059076e+02
   4.878160e+01  -1.723721e+01
   4.963341e+01   3.253826e+01
   2.272715e+01   8.136571e+00
   4.914584e+00  -1.951616e+01
   2.407634e+01   1.861876e+01
   5.581236e+01   9.146081e+01
   3.729334e+01   1.094007e+02
  -5.161664e+01   4.346669e+01
  -1.388177e+02  -4.124311e+01
  -1.280168e+02  -7.305638e+01
  -1.713307e+01  -5.214534e+01
   8.693086e+01  -2.300233e+01
   8.892050e+01  -5.712969e+00
   1.316594e+01   9.682622e+00
  -3.782030e+01   2.195756e+01
  -1.636694e+01   1.581657e+01
   1.932828e+01  -2.529078e+00
  -4.769051e+00  -7.780699e+00
  -7.262507e+01  -2.742059e+00
  -9.321223e+01  -2.486206e+01
  -1.244475e+01  -8.267497e+01
   1.179222e+02  -1.162990e+02
   1.906805e+02  -5.948207e+01
   1.476037e+02   6.773136e+01
   2.643406e+01   1.640721e+02
  -8.328161e+01   1.528493e+02
  -1.181607e+02   6.029760e+01
  -8.159770e+01  -2.213496e+01
  -2.517840e+01  -3.740023e+01
   1.314743e+00  -1.081783e+01
  -1.144186e+01  -6.203053e+00
  -3.154071e+01  -4.802220e+01
  -1.967515e+01  -9.178134e+01
   3.075799e+01  -7.227131e+01
   8.117290e+01   1.845147e+01
   7.811288e+01   1.085565e+02
   6.699599e+00   1.137503e+02
  -8.144186e+01   2.664412e+01
  -1.050800e+02  -7.403136e+01
  -3.420805e+01  -1.057479e+02
   6.775279e+01  -5.903081e+01
   1.017002e+02   1.217308e+01
   4.109241e+01   5.518438e+01
  -3.518851e+01   5.577652e+01
  -3.566857e+01   2.799264e+01
   3.177686e+01  -2.576807e+00
   7.013876e+01  -6.725209e+00
   1.597199e+01   2.671358e+01
  -8.096993e+01   6.560830e+01
  -1.198300e+02   5.527656e+01
  -6.710876e+01  -1.544636e+01
   1.647654e+01  -8.489069e+01
   5.708606e+01  -8.088440e+01
   4.115192e+01  -7.517925e+00
   3.153539e+00   5.561019e+01
  -2.621069e+01   4.531040e+01
  -3.728624e+01  -1.598569e+01
  -2.694234e+01  -5.516791e+01
   2.923766e+00  -3.608643e+01
   3.376370e+01   7.770210e+00
   4.056122e+01   2.374305e+01
   2.073556e+01   2.896692e+00
  -1.412084e+00  -1.677657e+01
  -6.220250e+00  -1.530644e+00
  -2.833599e+00   3.575769e+01
  -1.186379e+01   4.910988e+01
  -3.154704e+01   1.321540e+01
  -3.479635e+01  -4.273733e+01
  -2.966631e+00  -6.216650e+01
   4.413736e+01  -2.251074e+01
   5.952870e+01   3.853361e+01
   1.598214e+01   6.340723e+01
  -5.704529e+01   3.437645e+01
  -9.183935e+01  -1.560621e+01
  -4.989497e+01  -4.517402e+01
   3.000234e+01  -4.281003e+01
   6.663804e+01  -2.337383e+01
   2.661514e+01  -5.104184e+00
  -3.459542e+01  -7.470908e-02
  -3.691905e+01  -1.257474e+01
   2.829388e+01  -2.937997e+01
   8.777390e+01  -1.996951e+01
