
 $NMID
 id='ANONYMOUS ', fmtdat='(2E16.6)'
 volume=1.0
 tramp=1.0
 $END
  -3.477560e+03   7.897387e+01
  -2.261383e+03  -1.835347e+03
   1.472710e+02  -2.231216e+03
   1.456936e+03  -1.165324e+03
   9.560277e+02   3.478352e+01
  -1.478747e+02   3.308891e+02
  -5.255233e+02  -1.691407e+02
  -6.372850e+01  -6.885674e+02
   5.321177e+02  -6.471598e+02
   7.217500e+02  -5.473612e+01
   4.494290e+02   5.924727e+02
  -4.558033e+01   7.143943e+02
  -3.932901e+02   1.801434e+02
  -3.000379e+02  -4.849581e+02
   1.399688e+02  -5.986540e+02
   4.568370e+02  -6.818815e+01
   3.007404e+02   5.278529e+02
  -1.674736e+02   6.223902e+02
  -4.931352e+02   2.292480e+02
  -4.265174e+02  -2.166849e+02
  -1.052048e+02  -3.770970e+02
   1.486556e+02  -2.527135e+02
   1.124016e+02  -6.614322e+01
  -1.511593e+02  -4.115390e+01
  -3.048839e+02  -2.127234e+02
  -5.578574e+01  -3.647458e+02
   4.435732e+02  -2.386179e+02
   6.599252e+02   1.313916e+02
   2.901699e+02   3.969971e+02
  -3.213113e+02   2.873228e+02
  -5.589132e+02  -8.383939e+01
  -2.404074e+02  -3.801817e+02
   2.500100e+02  -3.952994e+02
   4.711627e+02  -1.580324e+02
   3.468814e+02   1.669947e+02
   8.913547e+01   3.502722e+02
  -7.336567e+01   2.161754e+02
  -3.097447e+01  -1.181264e+02
   1.579584e+02  -2.394856e+02
   2.674464e+02   8.904956e+01
   9.721048e+01   5.275414e+02
  -2.473480e+02   5.136502e+02
  -4.013849e+02   1.663521e+01
  -1.733458e+02  -3.710221e+02
   1.798429e+02  -1.979292e+02
   2.388439e+02   2.687665e+02
  -8.471453e+01   4.250806e+02
  -4.611323e+02   8.961559e+01
  -5.110547e+02  -3.606732e+02
  -1.648606e+02  -5.060932e+02
   3.083706e+02  -2.914892e+02
   5.377301e+02   5.278167e+01
   3.502352e+02   2.777580e+02
  -6.803138e+01   2.671710e+02
  -3.264066e+02   8.373456e+01
  -2.259519e+02  -7.327929e+01
   2.572283e+01  -5.273199e+01
   8.114076e+01   7.343215e+01
  -1.095122e+02   9.947251e+01
  -2.586938e+02  -4.552426e+01
  -1.337661e+02  -2.165122e+02
   1.585296e+02  -2.477999e+02
   3.306744e+02  -1.191981e+02
   2.395486e+02   8.998754e+01
  -2.108033e+01   2.846441e+02
  -2.622921e+02   3.459096e+02
  -3.454336e+02   1.770207e+02
  -2.458842e+02  -1.457420e+02
  -6.379923e+01  -3.700995e+02
   5.135956e+01  -3.318118e+02
   4.991796e+01  -1.540102e+02
   3.289347e+01  -6.922250e+01
   1.062305e+02  -1.028364e+02
   2.242139e+02  -7.623032e+01
   2.443019e+02   9.346141e+01
   1.111144e+02   2.506455e+02
  -8.149494e+01   2.059231e+02
  -1.947036e+02  -2.178811e+01
  -1.516691e+02  -2.325071e+02
   3.151142e+01  -2.545359e+02
   2.424047e+02  -7.941834e+01
   3.156063e+02   1.606791e+02
   1.742725e+02   3.021071e+02
  -5.892524e+01   2.719177e+02
  -1.784283e+02   1.444861e+02
  -1.456656e+02   5.831682e+01
  -1.304748e+02   5.724446e+01
  -2.562334e+02   4.584398e+01
  -3.959908e+02  -7.745959e+01
  -3.171152e+02  -2.815073e+02
   1.265841e+01  -4.256691e+02
   3.592561e+02  -3.929014e+02
   4.645915e+02  -1.818297e+02
   2.930766e+02   9.077925e+01
   3.275812e+01   2.545658e+02
  -9.725533e+01   2.094095e+02
  -3.098353e+01   3.635237e+01
   1.094471e+02  -5.921905e+01
   1.445888e+02   2.419770e+01
   2.308783e+01   1.516379e+02
  -1.229132e+02   1.233110e+02
  -1.268361e+02  -4.992485e+01
   2.115788e+01  -1.447621e+02
   1.649323e+02  -1.207151e+01
   1.534236e+02   2.295497e+02
  -1.859183e+01   3.345206e+02
  -2.299188e+02   2.000837e+02
  -3.394000e+02  -5.712947e+01
  -2.727534e+02  -2.457202e+02
  -7.072420e+01  -2.624139e+02
   1.191863e+02  -1.426567e+02
   1.535589e+02  -1.203787e+01
   4.122657e+01   1.761932e+01
  -5.474067e+01  -5.250039e+01
  -6.758542e+00  -1.128214e+02
   1.191181e+02  -7.489861e+01
   1.512120e+02   2.006992e+01
   3.870794e+01   5.733138e+01
  -7.883388e+01  -3.748405e+00
  -4.228520e+01  -8.464119e+01
   1.372091e+02  -8.599478e+01
   2.877421e+02   1.334069e+01
   2.522707e+02   1.551305e+02
   3.764551e+01   2.523547e+02
  -1.927348e+02   2.357369e+02
  -2.632477e+02   1.046464e+02
  -1.429951e+02  -4.390454e+01
   2.609073e+01  -8.452250e+01
   6.930144e+01  -8.959354e-02
  -4.501202e+01   8.357566e+01
  -1.814829e+02   4.115330e+01
  -1.901187e+02  -9.810728e+01
  -6.016733e+01  -1.867815e+02
   8.571238e+01  -1.385054e+02
   1.258954e+02  -2.118705e+01
   5.160758e+01   3.558789e+01
  -3.709998e+01  -1.443199e+01
  -2.951075e+01  -9.953359e+01
   8.696680e+01  -1.138538e+02
   2.012899e+02  -1.797870e+01
   1.802981e+02   1.260763e+02
   1.518719e+01   2.046655e+02
  -1.520371e+02   1.512895e+02
  -1.744715e+02   1.173115e+01
  -5.767140e+01  -9.616206e+01
   5.972815e+01  -9.726471e+01
   7.090473e+01  -2.651613e+01
   5.708189e+00   2.394087e+01
  -3.196145e+01   1.095832e+01
   9.036510e+00  -2.075066e+01
   8.205314e+01   2.742849e-01
   9.886481e+01   8.611791e+01
   1.301100e+01   1.664438e+02
  -1.332385e+02   1.498401e+02
  -2.301115e+02   1.577780e+01
  -1.903666e+02  -1.500076e+02
  -3.961397e+01  -2.235483e+02
   9.842007e+01  -1.586869e+02
   1.268677e+02  -3.066552e+01
   7.167797e+01   4.496877e+01
   3.211638e+01   2.963626e+01
   5.344851e+01  -1.400202e+01
   8.332232e+01  -7.413113e+00
   5.180431e+01   5.376942e+01
  -3.877245e+01   9.950172e+01
  -1.142102e+02   6.383964e+01
  -9.927319e+01  -4.060673e+01
   1.517605e+01  -1.218607e+02
   1.532570e+02  -8.778135e+01
   1.983936e+02   5.867546e+01
   8.787405e+01   2.031747e+02
  -1.147163e+02   2.176951e+02
  -2.585787e+02   8.502825e+01
  -2.409949e+02  -8.406135e+01
  -1.001592e+02  -1.646259e+02
   3.701363e+01  -1.363223e+02
   8.635185e+01  -7.956260e+01
   6.913712e+01  -6.872976e+01
   5.768800e+01  -9.183929e+01
   8.753036e+01  -7.713178e+01
   1.273918e+02   1.718725e+01
   1.170345e+02   1.481390e+02
   2.884851e+01   2.186740e+02
  -9.510555e+01   1.638699e+02
  -1.659336e+02   1.502759e+01
  -1.260273e+02  -1.205757e+02
  -1.290893e+01  -1.519408e+02
   7.018068e+01  -8.150899e+01
   5.996563e+01   9.849115e+00
  -1.517638e+00   4.932120e+01
  -2.186288e+01   3.435778e+01
   2.893885e+01   1.247459e+01
   8.120244e+01   1.766500e+01
   4.778105e+01   3.818739e+01
  -6.858612e+01   3.858736e+01
  -1.648986e+02   5.017516e-01
  -1.401295e+02  -5.744314e+01
  -3.742618e+00  -9.240007e+01
   1.266145e+02  -7.234233e+01
   1.408121e+02  -8.527435e+00
   4.413515e+01   4.609272e+01
  -5.798397e+01   4.181270e+01
  -7.559876e+01  -1.692387e+01
  -1.663616e+01  -7.056347e+01
   4.640073e+01  -6.314084e+01
   6.561370e+01  -2.073446e+00
   5.369977e+01   4.886269e+01
   4.607596e+01   4.139655e+01
   5.512518e+01   1.017916e+00
   6.330431e+01   1.697192e-01
   4.179552e+01   6.912256e+01
  -2.586967e+01   1.473205e+02
  -1.183457e+02   1.417875e+02
  -1.713174e+02   3.402488e+01
  -1.262324e+02  -8.994833e+01
  -4.366811e+00  -1.275657e+02
   8.794995e+01  -6.649169e+01
   6.027420e+01   1.061482e+01
  -5.632881e+01   2.065088e+01
  -1.309960e+02  -3.887654e+01
  -7.075939e+01  -1.021524e+02
   7.898410e+01  -1.071631e+02
   1.826045e+02  -4.650729e+01
   1.529983e+02   3.603831e+01
   3.206240e+01   8.214294e+01
  -6.044754e+01   6.174212e+01
  -4.686751e+01   1.294207e+00
   3.836573e+01  -2.968794e+01
   8.983583e+01   1.826643e+01
   3.905318e+01   1.123599e+02
  -7.697598e+01   1.523949e+02
  -1.540018e+02   6.947521e+01
  -1.243602e+02  -8.832376e+01
  -1.769877e+01  -1.870978e+02
   7.790530e+01  -1.380445e+02
   1.006623e+02   8.600244e+00
   5.593845e+01   1.148991e+02
  -8.740430e+00   1.000031e+02
  -4.827581e+01   1.587836e+01
  -4.575899e+01  -3.016252e+01
  -1.847682e+01  -6.880103e+00
  -4.934918e+00   1.764530e+01
  -2.725437e+01  -1.909810e+01
  -5.661807e+01  -8.604828e+01
  -3.484992e+01  -1.017601e+02
   5.135213e+01  -4.205496e+01
   1.324039e+02   3.446511e+01
   1.213357e+02   6.542280e+01
   1.822921e+01   5.046338e+01
  -7.926184e+01   2.566528e+01
  -8.385410e+01   7.262122e+00
  -1.536518e+01  -1.025122e+01
   3.384865e+01  -2.158996e+01
   1.723566e+01  -1.367242e+01
  -1.584180e+01   3.730965e+00
   3.627625e+00   6.034162e+00
   6.628788e+01  -1.269964e+00
   9.009770e+01   1.994540e+01
   1.940577e+01   7.835674e+01
  -1.044655e+02   1.157565e+02
  -1.806442e+02   6.581629e+01
  -1.467897e+02  -5.626950e+01
  -3.280134e+01  -1.543440e+02
   7.492618e+01  -1.503691e+02
   1.114862e+02  -6.399385e+01
   7.840954e+01   1.760318e+01
   2.584662e+01   3.579029e+01
   1.232675e+00   1.185070e+01
   1.258283e+01   7.109327e+00
   3.058244e+01   4.616780e+01
   1.981084e+01   8.742848e+01
  -2.706439e+01   6.993451e+01
  -7.685015e+01  -1.372750e+01
  -7.887145e+01  -9.835258e+01
  -1.375409e+01  -1.072511e+02
   7.371872e+01  -3.097052e+01
   1.032977e+02   6.308860e+01
   3.910086e+01   9.928679e+01
  -6.146015e+01   6.171791e+01
  -9.951178e+01  -6.512205e+00
  -4.364681e+01  -5.386923e+01
   3.203997e+01  -5.807109e+01
   3.638543e+01  -2.849133e+01
  -2.710751e+01   5.318492e+00
  -6.621579e+01   9.521975e+00
  -1.745408e+01  -2.566427e+01
   7.479925e+01  -6.498094e+01
   1.146398e+02  -5.470209e+01
   6.739829e+01   1.421505e+01
  -1.203460e+01   8.219440e+01
  -5.356359e+01   8.054306e+01
  -4.178116e+01   1.143902e+01
  -6.891752e+00  -5.140101e+01
   2.254504e+01  -4.602492e+01
   3.601368e+01   1.100011e+01
   2.827528e+01   5.157009e+01
  -6.085229e-01   3.704225e+01
  -3.244916e+01  -4.959312e+00
  -4.045495e+01  -2.285028e+01
  -2.006959e+01  -3.477753e+00
   3.242426e+00   1.799861e+01
   6.255537e+00   5.500181e+00
  -2.219496e+00  -3.214443e+01
   3.766913e+00  -4.972366e+01
   2.724997e+01  -1.877062e+01
   3.826504e+01   3.554309e+01
   1.041687e+01   5.829747e+01
  -3.956375e+01   2.476384e+01
  -6.020216e+01  -3.222880e+01
  -1.922777e+01  -5.874788e+01
   5.393721e+01  -3.555698e+01
   8.967312e+01   1.012922e+01
   4.978040e+01   4.103864e+01
  -2.694321e+01   4.364567e+01
  -6.277610e+01   2.711206e+01
  -2.691133e+01   6.702455e+00
   2.955231e+01  -2.909746e+00
   3.379926e+01   7.402579e+00
  -2.336321e+01   2.657981e+01
  -7.819472e+01   2.214217e+01
