
 $NMID
 id='ANONYMOUS ', fmtdat='(2E16.6)'
 volume=1.0
 tramp=1.0
 $END
   2.910696e+03   5.239228e+01
   1.951038e+03   1.435178e+03
   9.832887e+01   1.836603e+03
  -1.054329e+03   1.219661e+03
  -8.947023e+02   3.137466e+02
  -1.291662e+02  -1.310762e+02
   2.729820e+02   5.230503e+01
   5.587258e+01   4.476926e+02
  -3.748833e+02   5.193027e+02
  -5.704326e+02   1.075007e+02
  -4.047598e+02  -4.332646e+02
  -3.948492e+01  -5.813534e+02
   2.403713e+02  -1.857760e+02
   2.126494e+02   3.521738e+02
  -8.837879e+01   4.846700e+02
  -3.549094e+02   8.756492e+01
  -2.861600e+02  -4.328768e+02
   8.862832e+01  -5.881463e+02
   4.259131e+02  -2.875731e+02
   4.263991e+02   1.404523e+02
   1.415395e+02   3.311462e+02
  -9.852653e+01   2.307411e+02
  -4.860886e+01   8.286586e+01
   1.811563e+02   1.172620e+02
   2.427661e+02   2.862637e+02
  -4.572767e+01   3.340492e+02
  -4.491829e+02   1.186136e+02
  -5.393080e+02  -1.970319e+02
  -1.786163e+02  -3.205510e+02
   2.989497e+02  -1.511503e+02
   4.416047e+02   1.427104e+02
   1.542122e+02   3.296376e+02
  -2.485684e+02   3.067715e+02
  -4.157256e+02   1.085274e+02
  -2.904781e+02  -1.437110e+02
  -7.835550e+01  -2.716107e+02
   9.124133e+00  -1.592051e+02
  -6.548093e+01   7.038805e+01
  -1.752478e+02   1.129641e+02
  -1.605673e+02  -1.529406e+02
   2.040404e+01  -4.434476e+02
   2.317661e+02  -3.799957e+02
   2.730114e+02   5.374496e+00
   9.236063e+01   2.682724e+02
  -1.267085e+02   1.070458e+02
  -1.351534e+02  -2.518641e+02
   1.165835e+02  -3.452142e+02
   4.054013e+02  -3.900175e+01
   4.399792e+02   3.499312e+02
   1.408198e+02   4.562865e+02
  -2.729503e+02   2.394158e+02
  -4.721490e+02  -6.251234e+01
  -3.134808e+02  -2.219527e+02
   3.195444e+01  -1.948760e+02
   2.512629e+02  -7.947810e+01
   1.997138e+02   5.954895e+00
   2.403910e+01   9.600499e+00
  -3.236870e+01  -3.203316e+01
   8.576135e+01  -3.667634e+01
   1.974072e+02   4.336282e+01
   1.132208e+02   1.676077e+02
  -1.364695e+02   2.289873e+02
  -3.249798e+02   1.369374e+02
  -2.613146e+02  -9.380113e+01
   1.974335e+01  -3.180637e+02
   2.927627e+02  -3.520778e+02
   3.561753e+02  -1.411050e+02
   2.123775e+02   1.617409e+02
   3.631933e+01   3.294601e+02
  -2.684489e+01   2.880450e+02
  -6.260477e+00   1.685005e+02
  -3.121415e+01   1.172617e+02
  -1.452473e+02   1.147947e+02
  -2.477361e+02   3.898180e+01
  -2.221036e+02  -1.285295e+02
  -7.069866e+01  -2.443043e+02
   9.826053e+01  -1.709661e+02
   1.750529e+02   5.085644e+01
   1.139002e+02   2.343209e+02
  -5.601740e+01   2.283851e+02
  -2.314695e+02   4.597537e+01
  -2.791798e+02  -1.691064e+02
  -1.507301e+02  -2.754986e+02
   4.536586e+01  -2.417382e+02
   1.487129e+02  -1.468442e+02
   1.372252e+02  -8.532901e+01
   1.477830e+02  -6.989794e+01
   2.713508e+02  -2.881710e+01
   3.899923e+02   1.013491e+02
   2.969109e+02   2.881916e+02
  -3.321775e+01   4.128102e+02
  -3.698538e+02   3.671032e+02
  -4.538858e+02   1.527547e+02
  -2.611859e+02  -1.016093e+02
  -7.439510e+00  -2.311346e+02
   8.676715e+01  -1.743437e+02
  -3.419639e-01  -3.397369e+01
  -1.147828e+02   2.532902e+01
  -1.121049e+02  -4.484596e+01
   3.182021e+00  -1.258967e+02
   1.063259e+02  -8.412237e+01
   9.029803e+01   5.190476e+01
  -3.257619e+01   1.129679e+02
  -1.473765e+02  -8.898240e+00
  -1.371246e+02  -2.217223e+02
   2.155309e+01  -3.208062e+02
   2.327028e+02  -1.966946e+02
   3.432478e+02   6.141433e+01
   2.619003e+02   2.569536e+02
   4.773852e+01   2.645259e+02
  -1.278754e+02   1.277611e+02
  -1.385253e+02  -5.754734e-01
  -2.778916e+01  -1.130833e+01
   4.477942e+01   6.389296e+01
  -1.213509e+01   1.067003e+02
  -1.198206e+02   5.460786e+01
  -1.328557e+02  -3.182273e+01
  -2.278035e+01  -5.035337e+01
   7.947633e+01   1.892679e+01
   3.260923e+01   9.393239e+01
  -1.477233e+02   8.263246e+01
  -2.911048e+02  -2.894409e+01
  -2.413674e+02  -1.723750e+02
  -1.577003e+01  -2.529265e+02
   2.064924e+02  -2.137658e+02
   2.540010e+02  -8.032178e+01
   1.225787e+02   4.581559e+01
  -3.208945e+01   6.723835e+01
  -5.579009e+01  -9.545837e+00
   5.694549e+01  -7.152000e+01
   1.743449e+02  -2.231451e+01
   1.705671e+02   1.028082e+02
   4.605587e+01   1.747202e+02
  -8.575745e+01   1.215385e+02
  -1.148262e+02   1.033212e+01
  -3.738085e+01  -3.499929e+01
   4.427506e+01   2.568842e+01
   2.313263e+01   1.114203e+02
  -9.987051e+01   1.132169e+02
  -2.045270e+02   5.291231e+00
  -1.689125e+02  -1.340251e+02
  -3.558471e+00  -1.962116e+02
   1.490182e+02  -1.362215e+02
   1.604433e+02  -7.756976e+00
   4.743698e+01   8.614516e+01
  -5.925521e+01   8.473668e+01
  -6.358499e+01   2.018848e+01
   3.560879e+00  -2.394639e+01
   3.964065e+01  -6.080936e+00
  -7.905990e+00   2.852831e+01
  -8.827405e+01   3.777781e+00
  -1.034448e+02  -9.059745e+01
  -7.550236e+00  -1.721360e+02
   1.423939e+02  -1.447470e+02
   2.290002e+02  -1.962449e+00
   1.779816e+02   1.566778e+02
   2.972859e+01   2.153854e+02
  -9.717898e+01   1.466883e+02
  -1.209843e+02   2.794736e+01
  -6.957702e+01  -3.991524e+01
  -3.272667e+01  -2.608106e+01
  -5.356841e+01   1.356862e+01
  -8.553434e+01   5.934196e+00
  -5.688411e+01  -5.681909e+01
   3.826003e+01  -1.053093e+02
   1.226706e+02  -6.703559e+01
   1.073055e+02   4.549721e+01
  -1.881933e+01   1.288759e+02
  -1.631014e+02   8.542504e+01
  -1.980244e+02  -6.959487e+01
  -7.357920e+01  -2.080827e+02
   1.278142e+02  -2.076490e+02
   2.564070e+02  -6.882270e+01
   2.268805e+02   9.175673e+01
   8.740286e+01   1.603200e+02
  -4.103257e+01   1.275031e+02
  -8.362844e+01   7.289097e+01
  -6.447525e+01   6.494275e+01
  -5.433941e+01   8.959936e+01
  -8.624601e+01   7.583840e+01
  -1.256601e+02  -1.790370e+01
  -1.114944e+02  -1.476298e+02
  -2.103756e+01  -2.144630e+02
   9.836660e+01  -1.549526e+02
   1.604275e+02  -5.480378e+00
   1.153471e+02   1.243605e+02
   3.522891e+00   1.476530e+02
  -7.533795e+01   7.256498e+01
  -6.042981e+01  -1.831354e+01
   6.391679e+00  -5.401771e+01
   3.006983e+01  -3.461841e+01
  -2.340069e+01  -1.032862e+01
  -8.135518e+01  -1.660858e+01
  -4.855532e+01  -3.923105e+01
   7.256184e+01  -3.808689e+01
   1.694473e+02   5.203443e+00
   1.369573e+02   6.568818e+01
  -5.938170e+00   9.596503e+01
  -1.325972e+02   6.804812e+01
  -1.386357e+02   8.419151e-01
  -4.047071e+01  -5.100846e+01
   5.738447e+01  -4.258607e+01
   7.464768e+01   1.786413e+01
   2.033405e+01   7.152147e+01
  -4.187451e+01   6.413664e+01
  -6.667023e+01   2.958247e+00
  -5.810893e+01  -4.874207e+01
  -4.643742e+01  -4.216012e+01
  -5.104408e+01  -2.382249e+00
  -6.142619e+01  -1.974967e+00
  -4.402263e+01  -7.062400e+01
   2.564805e+01  -1.469400e+02
   1.236600e+02  -1.388950e+02
   1.766806e+02  -3.019233e+01
   1.253634e+02   9.264570e+01
  -6.276163e-01   1.287719e+02
  -9.065549e+01   6.720086e+01
  -5.975956e+01  -9.615124e+00
   5.512335e+01  -1.910364e+01
   1.253217e+02   4.045387e+01
   6.400102e+01   1.014391e+02
  -8.156729e+01   1.013618e+02
  -1.791667e+02   3.688501e+01
  -1.459888e+02  -4.285825e+01
  -2.588550e+01  -8.067967e+01
   6.272922e+01  -5.453769e+01
   4.605870e+01   4.105665e+00
  -3.876290e+01   3.025257e+01
  -8.845037e+01  -1.835513e+01
  -3.894014e+01  -1.090208e+02
   7.267836e+01  -1.476270e+02
   1.470222e+02  -6.813248e+01
   1.191534e+02   8.459992e+01
   1.580677e+01   1.804008e+02
  -7.777827e+01   1.311756e+02
  -9.807846e+01  -1.314482e+01
  -4.926221e+01  -1.150577e+02
   1.667777e+01  -9.625445e+01
   5.065315e+01  -1.193428e+01
   4.081497e+01   3.142350e+01
   1.341341e+01   7.007833e+00
   6.347864e+00  -1.573539e+01
   3.124536e+01   2.184272e+01
   5.443065e+01   8.607299e+01
   2.661443e+01   9.860216e+01
  -5.570779e+01   3.894790e+01
  -1.272237e+02  -3.571458e+01
  -1.134748e+02  -6.623028e+01
  -1.723028e+01  -5.141029e+01
   7.421728e+01  -2.476655e+01
   8.124766e+01  -4.149421e+00
   1.817801e+01   1.211924e+01
  -3.156728e+01   1.970471e+01
  -1.999640e+01   1.059697e+01
   1.225730e+01  -4.181648e+00
  -1.857972e+00  -4.398687e+00
  -6.083416e+01   1.932757e+00
  -8.831913e+01  -2.017640e+01
  -2.393530e+01  -7.676442e+01
   9.878387e+01  -1.125877e+02
   1.788628e+02  -6.496847e+01
   1.475477e+02   5.297319e+01
   3.222797e+01   1.499222e+02
  -7.661255e+01   1.483254e+02
  -1.111840e+02   6.411985e+01
  -7.623069e+01  -1.753464e+01
  -2.549595e+01  -3.671250e+01
  -3.846019e+00  -1.350219e+01
  -1.417101e+01  -9.188150e+00
  -2.775937e+01  -4.761188e+01
  -1.528593e+01  -8.670976e+01
   2.786284e+01  -6.797963e+01
   7.340382e+01   1.325562e+01
   7.643704e+01   9.420805e+01
   1.629502e+01   1.037683e+02
  -6.856672e+01   3.269084e+01
  -1.007099e+02  -5.822247e+01
  -4.044593e+01  -9.719122e+01
   5.954009e+01  -6.347603e+01
   1.000114e+02   5.751058e+00
   4.533317e+01   5.680403e+01
  -3.266613e+01   6.117004e+01
  -4.040984e+01   2.817974e+01
   2.247913e+01  -7.002073e+00
   6.435799e+01  -9.191210e+00
   1.842042e+01   2.631626e+01
  -7.402214e+01   6.194961e+01
  -1.160999e+02   4.903830e+01
  -6.957147e+01  -1.721671e+01
   1.203750e+01  -8.112068e+01
   5.612965e+01  -7.996160e+01
   4.464548e+01  -1.438523e+01
   8.484444e+00   4.835420e+01
  -2.154704e+01   4.717952e+01
  -3.485766e+01  -7.442365e+00
  -2.776933e+01  -5.074281e+01
  -1.445967e-01  -3.953274e+01
   3.161927e+01   3.666447e+00
   4.055118e+01   2.506467e+01
   1.989374e+01   5.583182e+00
  -4.692369e+00  -2.031082e+01
  -6.533777e+00  -1.105348e+01
   6.449461e+00   2.868100e+01
   3.309079e+00   5.167323e+01
  -2.367218e+01   2.453947e+01
  -4.150750e+01  -2.999385e+01
  -1.641187e+01  -5.588058e+01
   3.674941e+01  -2.589994e+01
   6.110828e+01   2.916740e+01
   2.023852e+01   5.620459e+01
  -5.426069e+01   3.505482e+01
  -8.959995e+01  -9.162029e+00
  -4.892243e+01  -4.049246e+01
   2.673266e+01  -4.464128e+01
   6.182202e+01  -2.888284e+01
   2.865163e+01  -7.405440e+00
  -2.439531e+01   4.625496e+00
  -3.044224e+01  -3.475772e+00
   1.993729e+01  -2.240328e+01
   7.054822e+01  -2.040362e+01
