
 $NMID
 id='ANONYMOUS ', fmtdat='(2E16.6)'
 volume=1.0
 tramp=1.0
 $END
   4.624095e+03   7.710903e+01
   2.586915e+03   2.864636e+03
  -9.260702e+02   2.883209e+03
  -2.288670e+03   7.898230e+02
  -9.181891e+02  -8.184326e+02
   8.075402e+02  -6.085583e+02
   9.714498e+02   5.355125e+02
  -5.777679e+01   1.171778e+03
  -9.292966e+02   8.016188e+02
  -9.972008e+02  -1.546027e+02
  -4.345203e+02  -9.476711e+02
   3.107645e+02  -9.341748e+02
   7.040301e+02  -8.132862e+01
   3.911802e+02   7.979363e+02
  -3.214303e+02   7.904868e+02
  -6.512475e+02  -3.898838e+01
  -2.573363e+02  -7.334329e+02
   3.722504e+02  -6.392745e+02
   6.091627e+02  -5.245564e+01
   3.760592e+02   3.906482e+02
  -9.715523e+00   4.543609e+02
  -2.704417e+02   2.641297e+02
  -2.365583e+02  -1.291451e+00
   1.166492e+02  -1.181952e+02
   4.442277e+02   1.017149e+02
   2.284451e+02   4.652839e+02
  -4.865171e+02   4.561992e+02
  -9.127952e+02  -8.113663e+01
  -4.584568e+02  -6.066156e+02
   4.324913e+02  -5.319589e+02
   8.066635e+02   4.134637e+01
   3.696817e+02   5.244139e+02
  -3.062589e+02   5.537737e+02
  -6.041537e+02   2.073838e+02
  -4.365362e+02  -2.532256e+02
  -5.811937e+01  -5.129051e+02
   2.375528e+02  -2.975418e+02
   2.001492e+02   2.542366e+02
  -1.850323e+02   4.905350e+02
  -5.010244e+02  -1.621563e+01
  -2.710391e+02  -7.423982e+02
   3.573024e+02  -7.559199e+02
   6.646862e+02   1.350238e+01
   2.722735e+02   6.155952e+02
  -3.325432e+02   3.472524e+02
  -4.235144e+02  -3.538264e+02
   7.436675e+01  -5.880862e+02
   5.916528e+02  -1.428624e+02
   6.222283e+02   4.329051e+02
   1.628370e+02   6.169314e+02
  -4.119264e+02   3.607066e+02
  -6.623548e+02  -8.815438e+01
  -3.805871e+02  -4.201108e+02
   1.842164e+02  -3.905966e+02
   4.793522e+02  -4.231386e+01
   2.435112e+02   2.316160e+02
  -1.468416e+02   1.174676e+02
  -1.576731e+02  -1.805825e+02
   1.869605e+02  -2.094431e+02
   3.750941e+02   8.829654e+01
   1.412445e+02   3.275769e+02
  -2.216094e+02   2.638992e+02
  -3.354742e+02   6.083170e+01
  -1.877920e+02  -8.465066e+01
   2.507620e+01  -2.100413e+02
   2.119448e+02  -3.255443e+02
   3.418056e+02  -2.324706e+02
   3.081810e+02   1.377506e+02
   8.169009e+01   4.607102e+02
  -1.361443e+02   4.018420e+02
  -1.400008e+02   1.011960e+02
  -1.970473e+01  -3.197849e+01
  -2.579587e+01   8.702531e+01
  -1.919099e+02   1.480017e+02
  -2.943475e+02  -4.296891e+01
  -1.749794e+02  -2.816653e+02
   7.153032e+01  -2.756695e+02
   2.418768e+02  -1.897804e+01
   2.137725e+02   2.484071e+02
  -5.740909e+00   3.114289e+02
  -2.783125e+02   1.282560e+02
  -3.786604e+02  -1.727600e+02
  -1.916461e+02  -3.698169e+02
   1.125134e+02  -3.195398e+02
   2.423923e+02  -1.152432e+02
   1.522384e+02   8.898311e+00
   9.091031e+01  -3.059883e+01
   2.304545e+02  -7.193122e+01
   4.067170e+02   5.148577e+01
   3.399656e+02   2.883762e+02
   9.713986e-01   4.519243e+02
  -3.631940e+02   4.231514e+02
  -4.998066e+02   2.080437e+02
  -3.520985e+02  -9.614935e+01
  -6.014548e+01  -3.097506e+02
   1.425523e+02  -2.672542e+02
   9.694811e+01  -2.597187e+01
  -1.138022e+02   1.232102e+02
  -2.151095e+02  -3.042017e+00
  -5.719809e+01  -2.132189e+02
   1.771658e+02  -1.871659e+02
   1.968333e+02   6.690214e+01
  -1.851400e+01   2.102490e+02
  -2.068883e+02   3.826903e+01
  -1.681188e+02  -2.563348e+02
   3.599003e+01  -3.565839e+02
   2.323783e+02  -1.920884e+02
   3.241939e+02   6.419478e+01
   2.812262e+02   2.377512e+02
   1.027773e+02   2.667148e+02
  -1.132658e+02   1.674600e+02
  -1.871613e+02   2.292971e+01
  -6.421143e+01  -3.786852e+01
   7.582177e+01   3.549934e+01
   3.635947e+01   1.313618e+02
  -1.279592e+02   1.085819e+02
  -1.895084e+02  -1.158978e+01
  -6.436843e+01  -7.911196e+01
   8.215931e+01  -2.312082e+01
   6.040679e+01   7.053887e+01
  -1.194537e+02   8.818016e+01
  -2.814678e+02   4.377183e+00
  -2.685851e+02  -1.354939e+02
  -6.794785e+01  -2.577149e+02
   1.831590e+02  -2.713398e+02
   2.929718e+02  -1.340943e+02
   1.802826e+02   5.537413e+01
  -2.513113e+01   1.191436e+02
  -9.945003e+01   1.033665e+01
   2.946864e+01  -1.090194e+02
   2.026980e+02  -6.589457e+01
   2.230229e+02   1.051401e+02
   7.266356e+01   2.169783e+02
  -9.855997e+01   1.658431e+02
  -1.517190e+02   3.147376e+01
  -7.738959e+01  -4.478885e+01
   2.572313e+01  -9.613373e+00
   4.142940e+01   7.785024e+01
  -6.564703e+01   1.137112e+02
  -1.973115e+02   3.384520e+01
  -1.966277e+02  -1.221283e+02
  -2.396477e+01  -2.237667e+02
   1.698280e+02  -1.696962e+02
   2.020905e+02  -4.377620e+00
   6.808812e+01   1.221007e+02
  -7.003474e+01   1.175243e+02
  -8.852882e+01   3.203707e+01
  -2.312404e+01  -2.762205e+01
   1.840408e+01  -2.208916e+01
  -9.093819e+00   3.641504e+00
  -6.628004e+01  -1.037459e+01
  -8.498454e+01  -7.895342e+01
  -1.719519e+01  -1.548655e+02
   1.224779e+02  -1.540527e+02
   2.347874e+02  -3.062500e+01
   2.067238e+02   1.491823e+02
   4.351473e+01   2.423261e+02
  -1.126997e+02   1.743646e+02
  -1.393165e+02   2.634949e+01
  -7.014890e+01  -5.916304e+01
  -2.723806e+01  -3.780834e+01
  -5.318543e+01   1.178847e+01
  -7.835272e+01   6.683020e+00
  -3.891355e+01  -4.733320e+01
   4.211504e+01  -8.362792e+01
   9.713849e+01  -5.351140e+01
   8.101090e+01   3.202442e+01
  -1.121998e+01   1.061219e+02
  -1.362569e+02   8.674942e+01
  -1.969110e+02  -4.635290e+01
  -1.063381e+02  -2.002146e+02
   1.019943e+02  -2.333698e+02
   2.696277e+02  -1.015117e+02
   2.639464e+02   8.578525e+01
   1.135781e+02   1.810865e+02
  -3.919858e+01   1.514330e+02
  -9.738355e+01   8.588745e+01
  -8.263825e+01   6.952846e+01
  -6.934288e+01   9.024464e+01
  -9.327737e+01   7.311319e+01
  -1.279932e+02  -2.303122e+01
  -1.179601e+02  -1.551346e+02
  -3.062060e+01  -2.280834e+02
   9.932093e+01  -1.752321e+02
   1.788804e+02  -2.289163e+01
   1.404810e+02   1.219501e+02
   2.174193e+01   1.624842e+02
  -6.654783e+01   9.652635e+01
  -6.089924e+01   4.451213e+00
  -7.663602e+00  -4.083024e+01
   6.568374e+00  -3.540638e+01
  -3.810341e+01  -2.044992e+01
  -7.805040e+01  -2.382416e+01
  -4.371828e+01  -3.765362e+01
   6.158513e+01  -3.683683e+01
   1.550923e+02  -5.019021e+00
   1.443441e+02   4.857009e+01
   1.978855e+01   8.769655e+01
  -1.178893e+02   7.537291e+01
  -1.463333e+02   1.545804e+01
  -5.031020e+01  -3.918742e+01
   6.010838e+01  -3.611160e+01
   7.564819e+01   1.919482e+01
   5.409824e+00   6.673724e+01
  -5.776390e+01   5.561906e+01
  -6.204478e+01  -2.875162e+00
  -4.109799e+01  -4.932644e+01
  -4.259264e+01  -4.145132e+01
  -6.292792e+01  -2.891885e+00
  -6.671719e+01  -7.007168e-01
  -3.340565e+01  -6.618536e+01
   3.398488e+01  -1.439680e+02
   1.143063e+02  -1.409042e+02
   1.607874e+02  -3.412994e+01
   1.219811e+02   9.005371e+01
   8.018102e+00   1.251272e+02
  -8.419299e+01   6.021725e+01
  -5.925555e+01  -1.592692e+01
   5.952180e+01  -1.987806e+01
   1.387146e+02   4.440185e+01
   7.738927e+01   1.083816e+02
  -8.051363e+01   1.138089e+02
  -1.927898e+02   5.390935e+01
  -1.653428e+02  -3.271440e+01
  -3.897840e+01  -8.791887e+01
   6.103965e+01  -7.292669e+01
   4.996151e+01  -9.361235e+00
  -3.824800e+01   2.609864e+01
  -9.008946e+01  -2.319055e+01
  -3.113154e+01  -1.192871e+02
   9.452819e+01  -1.534140e+02
   1.697245e+02  -5.975497e+01
   1.263932e+02   1.031722e+02
   8.344370e+00   1.990794e+02
  -8.706442e+01   1.452490e+02
  -1.055098e+02  -5.732845e+00
  -6.233543e+01  -1.182953e+02
  -5.716157e-01  -1.086138e+02
   4.506904e+01  -2.196418e+01
   5.386092e+01   3.157323e+01
   2.810263e+01   9.579791e+00
   3.719355e+00  -2.151989e+01
   1.876284e+01   1.302019e+01
   5.539917e+01   8.842278e+01
   4.413550e+01   1.116220e+02
  -4.514770e+01   4.662110e+01
  -1.391985e+02  -4.060767e+01
  -1.319115e+02  -7.241229e+01
  -1.758938e+01  -4.903662e+01
   8.984069e+01  -2.066711e+01
   8.931745e+01  -7.840213e+00
   9.595437e+00   5.951607e+00
  -3.981685e+01   2.226028e+01
  -1.332919e+01   1.987208e+01
   2.284967e+01  -4.184318e-01
  -6.155146e+00  -1.016938e+01
  -7.596693e+01  -5.927305e+00
  -9.111210e+01  -2.472653e+01
  -4.971749e+00  -7.937477e+01
   1.216949e+02  -1.121288e+02
   1.849397e+02  -5.585303e+01
   1.382268e+02   6.958420e+01
   2.320870e+01   1.625689e+02
  -7.914102e+01   1.484674e+02
  -1.135169e+02   5.643726e+01
  -8.044884e+01  -2.256624e+01
  -2.453878e+01  -3.482158e+01
   4.055128e+00  -7.279273e+00
  -9.604895e+00  -2.791135e+00
  -3.386063e+01  -4.522740e+01
  -2.361343e+01  -9.025662e+01
   2.954810e+01  -7.151535e+01
   8.153345e+01   2.001523e+01
   7.537572e+01   1.102740e+02
   1.116037e+00   1.121010e+02
  -8.382480e+01   2.081802e+01
  -1.012877e+02  -7.848971e+01
  -2.943794e+01  -1.033271e+02
   6.687454e+01  -5.293133e+01
   9.605337e+01   1.311960e+01
   3.773607e+01   4.861835e+01
  -3.206427e+01   4.926748e+01
  -2.923736e+01   2.830038e+01
   3.561140e+01   1.563367e+00
   6.945346e+01  -5.676132e+00
   1.406032e+01   2.442932e+01
  -7.980166e+01   6.560415e+01
  -1.149160e+02   5.961570e+01
  -6.224806e+01  -1.062246e+01
   1.670261e+01  -8.225393e+01
   5.199552e+01  -7.843997e+01
   3.462863e+01  -4.172413e+00
  -4.979330e-01   5.638334e+01
  -2.618297e+01   4.122853e+01
  -3.565767e+01  -2.044775e+01
  -2.566591e+01  -5.406500e+01
   3.106281e+00  -3.098303e+01
   3.275323e+01   9.591521e+00
   3.921052e+01   2.009719e+01
   2.074523e+01   3.009917e-01
  -2.187904e-01  -1.256350e+01
  -7.564997e+00   5.644195e+00
  -9.568206e+00   3.697926e+01
  -1.994875e+01   4.176453e+01
  -3.266717e+01   3.781731e+00
  -2.679537e+01  -4.690668e+01
   6.084206e+00  -6.025857e+01
   4.544073e+01  -1.871734e+01
   5.428412e+01   4.075046e+01
   1.260809e+01   6.348377e+01
  -5.444687e+01   3.315487e+01
  -8.727256e+01  -1.679326e+01
  -4.818640e+01  -4.445975e+01
   2.884105e+01  -3.930031e+01
   6.432884e+01  -1.924451e+01
   2.297193e+01  -4.415424e+00
  -3.894171e+01  -4.343991e+00
  -3.799257e+01  -1.844879e+01
   3.305387e+01  -3.190767e+01
   9.422785e+01  -1.789914e+01
