
 $NMID
 id='ANONYMOUS ', fmtdat='(2E16.6)'
 volume=1.0
 tramp=1.0
 $END
  -4.528647e+03   1.002387e+02
  -2.724281e+03  -2.711874e+03
   7.301277e+02  -2.952419e+03
   2.269103e+03  -9.865629e+02
   1.075081e+03   7.247031e+02
  -6.679395e+02   6.875119e+02
  -9.755227e+02  -4.120488e+02
  -3.694749e+01  -1.132164e+03
   8.596734e+02  -8.501455e+02
   1.004026e+03   8.466281e+01
   4.970301e+02   9.122795e+02
  -2.437185e+02   9.575643e+02
  -6.836679e+02   1.477557e+02
  -4.302985e+02  -7.462680e+02
   2.711403e+02  -8.001946e+02
   6.485982e+02  -5.566541e+00
   2.964099e+02   7.220780e+02
  -3.504502e+02   6.787039e+02
  -6.332586e+02   9.473133e+01
  -4.166829e+02  -3.831243e+02
  -1.671130e+01  -4.698210e+02
   2.561222e+02  -2.851790e+02
   2.327615e+02  -2.993491e+01
  -9.457711e+01   8.591937e+01
  -4.046863e+02  -1.002966e+02
  -2.163928e+02  -4.251358e+02
   4.504828e+02  -4.284215e+02
   8.731006e+02   5.474453e+01
   4.689836e+02   5.550952e+02
  -3.807962e+02   5.147970e+02
  -7.685331e+02  -1.264589e+01
  -3.738866e+02  -4.885043e+02
   2.786866e+02  -5.418583e+02
   5.840876e+02  -2.189349e+02
   4.406782e+02   2.317776e+02
   8.766056e+01   5.002960e+02
  -2.030472e+02   3.165411e+02
  -1.982681e+02  -2.060237e+02
   1.417740e+02  -4.592247e+02
   4.558159e+02  -9.723530e+00
   2.773409e+02   6.879265e+02
  -3.086057e+02   7.428213e+02
  -6.367284e+02   3.220837e+01
  -2.981251e+02  -5.692779e+02
   2.886690e+02  -3.524372e+02
   4.106521e+02   3.152893e+02
  -5.411461e+01   5.664278e+02
  -5.701222e+02   1.526879e+02
  -6.199341e+02  -4.145214e+02
  -1.775453e+02  -6.098219e+02
   3.925477e+02  -3.681632e+02
   6.563718e+02   6.929672e+01
   4.018572e+02   4.024531e+02
  -1.499314e+02   3.955804e+02
  -4.696412e+02   7.193592e+01
  -2.709522e+02  -2.094962e+02
   1.186201e+02  -1.298662e+02
   1.655047e+02   1.533233e+02
  -1.588161e+02   2.067696e+02
  -3.682340e+02  -6.562777e+01
  -1.584646e+02  -3.146382e+02
   2.151193e+02  -2.735798e+02
   3.510967e+02  -6.689027e+01
   1.961243e+02   9.932181e+01
  -4.225038e+01   2.249709e+02
  -2.313498e+02   3.200455e+02
  -3.393923e+02   2.208376e+02
  -2.985667e+02  -1.332556e+02
  -9.059511e+01  -4.498185e+02
   1.167336e+02  -4.101153e+02
   1.390999e+02  -1.262217e+02
   4.112801e+01   1.909679e+01
   4.326598e+01  -7.472566e+01
   1.877849e+02  -1.293714e+02
   2.796959e+02   4.621432e+01
   1.688580e+02   2.705059e+02
  -6.459992e+01   2.650518e+02
  -2.298116e+02   1.827794e+01
  -2.059887e+02  -2.401483e+02
   3.508537e+00  -3.012231e+02
   2.685477e+02  -1.249338e+02
   3.731741e+02   1.663979e+02
   1.989303e+02   3.631457e+02
  -1.008926e+02   3.246696e+02
  -2.425944e+02   1.301415e+02
  -1.659570e+02   7.283200e-01
  -1.039523e+02   2.625107e+01
  -2.334796e+02   6.031459e+01
  -4.043526e+02  -6.017798e+01
  -3.376906e+02  -2.914945e+02
   2.759955e+00  -4.508099e+02
   3.675142e+02  -4.190785e+02
   4.984809e+02  -2.059396e+02
   3.467504e+02   9.028057e+01
   6.264405e+01   3.004520e+02
  -1.298874e+02   2.680549e+02
  -9.004658e+01   3.926659e+01
   1.039931e+02  -1.137352e+02
   2.024519e+02  -4.007131e+00
   6.124286e+01   2.003452e+02
  -1.611719e+02   1.872224e+02
  -1.904549e+02  -5.441454e+01
   9.611391e+00  -2.016798e+02
   1.983111e+02  -3.963907e+01
   1.692981e+02   2.549264e+02
  -3.465194e+01   3.603867e+02
  -2.392779e+02   1.928380e+02
  -3.311159e+02  -7.157911e+01
  -2.783810e+02  -2.445094e+02
  -9.587460e+01  -2.647059e+02
   1.133053e+02  -1.628075e+02
   1.823970e+02  -2.522155e+01
   6.471195e+01   3.162427e+01
  -6.961247e+01  -3.569738e+01
  -3.375136e+01  -1.248789e+02
   1.232518e+02  -1.044090e+02
   1.839842e+02   8.476058e+00
   6.413421e+01   7.262825e+01
  -7.781400e+01   1.856614e+01
  -5.451974e+01  -7.106098e+01
   1.246591e+02  -8.375659e+01
   2.826512e+02   3.739226e+00
   2.635815e+02   1.411240e+02
   6.122271e+01   2.552501e+02
  -1.841015e+02   2.645407e+02
  -2.882069e+02   1.325245e+02
  -1.780123e+02  -4.969263e+01
   2.066529e+01  -1.145729e+02
   9.407173e+01  -1.319502e+01
  -2.900405e+01   1.029030e+02
  -1.980592e+02   6.390013e+01
  -2.204002e+02  -1.022663e+02
  -7.422955e+01  -2.135528e+02
   9.491163e+01  -1.646073e+02
   1.479903e+02  -3.298817e+01
   7.537492e+01   4.004510e+01
  -2.335657e+01   3.328750e+00
  -3.472011e+01  -8.059095e+01
   7.156812e+01  -1.100822e+02
   1.978610e+02  -2.807491e+01
   1.939427e+02   1.240304e+02
   2.326778e+01   2.221965e+02
  -1.680703e+02   1.698387e+02
  -2.017181e+02   7.967431e+00
  -7.050007e+01  -1.184941e+02
   6.708898e+01  -1.167367e+02
   8.623992e+01  -3.366304e+01
   2.094563e+01   2.435965e+01
  -1.897029e+01   1.770519e+01
   1.255685e+01  -6.290112e+00
   7.142465e+01   1.291666e+01
   8.572063e+01   8.501790e+01
   1.223253e+01   1.581030e+02
  -1.271839e+02   1.514415e+02
  -2.345793e+02   2.609705e+01
  -2.043668e+02  -1.510704e+02
  -4.350531e+01  -2.422701e+02
   1.113782e+02  -1.751622e+02
   1.403072e+02  -2.772486e+01
   7.314668e+01   5.897278e+01
   2.938033e+01   3.832477e+01
   5.449727e+01  -1.145680e+01
   8.036939e+01  -4.771913e+00
   3.951781e+01   5.201552e+01
  -4.640737e+01   8.723518e+01
  -1.038613e+02   5.110503e+01
  -8.281103e+01  -3.851218e+01
   1.659082e+01  -1.090352e+02
   1.421537e+02  -8.271921e+01
   1.965635e+02   5.207979e+01
   1.012201e+02   2.012024e+02
  -1.057073e+02   2.298529e+02
  -2.695688e+02   9.833363e+01
  -2.626832e+02  -8.603725e+01
  -1.133866e+02  -1.798208e+02
   3.865141e+01  -1.507770e+02
   9.689249e+01  -8.665958e+01
   8.239509e+01  -7.166871e+01
   6.999327e+01  -9.286565e+01
   9.538629e+01  -7.441200e+01
   1.302979e+02   2.415533e+01
   1.183674e+02   1.575272e+02
   2.918810e+01   2.295621e+02
  -1.002805e+02   1.749810e+02
  -1.778864e+02   2.179788e+01
  -1.384190e+02  -1.225391e+02
  -2.025622e+01  -1.614627e+02
   6.648243e+01  -9.366882e+01
   5.882040e+01  -1.514378e+00
   4.057500e+00   4.103603e+01
  -9.405286e+00   3.263450e+01
   3.836259e+01   1.822697e+01
   8.037380e+01   2.489881e+01
   4.425894e+01   3.963964e+01
  -6.435474e+01   3.532182e+01
  -1.578071e+02   1.889931e-01
  -1.430613e+02  -5.190241e+01
  -1.528404e+01  -8.674116e+01
   1.212851e+02  -7.242052e+01
   1.461837e+02  -1.346380e+01
   4.804991e+01   4.032740e+01
  -6.215808e+01   3.700082e+01
  -7.674852e+01  -2.017700e+01
  -5.546248e+00  -7.043402e+01
   5.895078e+01  -5.886245e+01
   6.430736e+01   3.724314e+00
   4.298696e+01   5.291101e+01
   4.308467e+01   4.326292e+01
   6.279612e+01   2.047842e+00
   6.710519e+01   9.465288e-01
   3.362229e+01   6.959730e+01
  -3.588344e+01   1.473811e+02
  -1.186297e+02   1.403574e+02
  -1.649691e+02   3.014552e+01
  -1.228897e+02  -9.378401e+01
  -5.227128e+00  -1.265026e+02
   8.794764e+01  -6.001122e+01
   6.095513e+01   1.634886e+01
  -6.020350e+01   1.999298e+01
  -1.396447e+02  -4.462869e+01
  -7.691674e+01  -1.086101e+02
   8.167240e+01  -1.132941e+02
   1.929559e+02  -5.254168e+01
   1.643339e+02   3.370187e+01
   3.819026e+01   8.734225e+01
  -6.062525e+01   7.127969e+01
  -4.867690e+01   8.057113e+00
   3.982479e+01  -2.641380e+01
   9.179262e+01   2.397321e+01
   3.236949e+01   1.216720e+02
  -9.497980e+01   1.571821e+02
  -1.721110e+02   6.259680e+01
  -1.290106e+02  -1.035702e+02
  -9.327105e+00  -2.016048e+02
   8.744453e+01  -1.464179e+02
   1.054271e+02   6.876481e+00
   6.101773e+01   1.189235e+02
  -8.381494e-01   1.068187e+02
  -4.529443e+01   1.998929e+01
  -5.305632e+01  -3.097278e+01
  -2.730343e+01  -7.824371e+00
  -3.527828e+00   2.088401e+01
  -1.898638e+01  -1.606792e+01
  -5.544917e+01  -9.020676e+01
  -4.347546e+01  -1.103109e+02
   4.650752e+01  -4.461843e+01
   1.404569e+02   4.087402e+01
   1.321720e+02   7.210650e+01
   1.691626e+01   5.026297e+01
  -9.055495e+01   2.244577e+01
  -8.957452e+01   7.588977e+00
  -9.717402e+00  -7.966725e+00
   3.956486e+01  -2.300090e+01
   1.321397e+01  -1.818416e+01
  -2.266673e+01   1.968892e+00
   6.479102e+00   9.240956e+00
   7.668375e+01   4.102780e+00
   9.265675e+01   2.541940e+01
   6.363419e+00   8.307193e+01
  -1.228303e+02   1.156561e+02
  -1.893275e+02   5.625394e+01
  -1.428785e+02  -7.202429e+01
  -2.422755e+01  -1.654979e+02
   8.201497e+01  -1.502890e+02
   1.169106e+02  -5.707463e+01
   8.176295e+01   2.284828e+01
   2.435692e+01   3.602729e+01
  -4.253690e+00   9.060665e+00
   9.325127e+00   4.230419e+00
   3.291803e+01   4.581086e+01
   2.252427e+01   9.055441e+01
  -3.027014e+01   7.220865e+01
  -8.273336e+01  -1.955947e+01
  -7.756230e+01  -1.115455e+02
  -2.432091e+00  -1.151960e+02
   8.553633e+01  -2.341676e+01
   1.047029e+02   7.890095e+01
   3.060903e+01   1.062824e+02
  -6.932842e+01   5.505960e+01
  -9.889600e+01  -1.431197e+01
  -3.742367e+01  -5.176269e+01
   3.488822e+01  -5.082308e+01
   3.119674e+01  -2.687662e+01
  -3.601091e+01   6.320633e-01
  -7.063772e+01   5.964530e+00
  -1.418024e+01  -2.579550e+01
   8.085281e+01  -6.612335e+01
   1.162452e+02  -5.794721e+01
   6.300168e+01   1.323804e+01
  -1.736675e+01   8.393533e+01
  -5.445866e+01   7.869475e+01
  -3.766837e+01   3.492085e+00
  -8.063599e-01  -5.771890e+01
   2.746522e+01  -4.282900e+01
   3.768703e+01   1.979296e+01
   2.609160e+01   5.522901e+01
  -4.373103e+00   3.277477e+01
  -3.387049e+01  -9.397038e+00
  -3.907498e+01  -2.160530e+01
  -2.028067e+01  -9.852763e-01
  -5.311419e-01   1.417451e+01
   5.382286e+00  -4.081658e+00
   7.420711e+00  -3.881022e+01
   1.977308e+01  -4.638974e+01
   3.516557e+01  -6.782977e+00
   3.046467e+01   4.829564e+01
  -4.039241e+00   6.380168e+01
  -4.651915e+01   2.038306e+01
  -5.695656e+01  -4.184657e+01
  -1.380266e+01  -6.499185e+01
   5.600198e+01  -3.325275e+01
   8.979313e+01   1.768945e+01
   4.905375e+01   4.549031e+01
  -3.031849e+01   4.042955e+01
  -6.669317e+01   2.009418e+01
  -2.439507e+01   3.736817e+00
   3.927301e+01   2.002245e+00
   3.966473e+01   1.666993e+01
  -3.136614e+01   3.284607e+01
  -9.394194e+01   2.051156e+01
