
 $NMID
 id='ANONYMOUS ', fmtdat='(2E16.6)'
 volume=1.0
 tramp=1.0
 $END
   3.383507e+03   9.321613e+01
   2.068524e+03   1.893514e+03
  -2.862428e+02   2.118228e+03
  -1.448637e+03   1.000090e+03
  -8.602222e+02  -1.041319e+02
   2.083245e+02  -2.883612e+02
   5.025219e+02   2.255412e+02
   5.723297e+00   6.816213e+02
  -5.587446e+02   5.892418e+02
  -6.944917e+02   3.763856e+00
  -3.909678e+02  -5.981665e+02
   9.183412e+01  -6.779620e+02
   3.932724e+02  -1.364374e+02
   2.603958e+02   4.957799e+02
  -1.720025e+02   5.686053e+02
  -4.432703e+02   3.473732e+01
  -2.582311e+02  -5.215636e+02
   1.893815e+02  -5.780953e+02
   4.726601e+02  -1.880629e+02
   3.876012e+02   2.252945e+02
   7.889867e+01   3.602294e+02
  -1.565939e+02   2.305802e+02
  -1.125401e+02   4.830625e+01
   1.510264e+02   3.087127e+01
   3.013761e+02   2.123831e+02
   4.869827e+01   3.666444e+02
  -4.456390e+02   2.276531e+02
  -6.456266e+02  -1.545722e+02
  -2.644996e+02  -4.098927e+02
   3.361574e+02  -2.746392e+02
   5.496013e+02   1.068261e+02
   2.190560e+02   3.860407e+02
  -2.619646e+02   3.774877e+02
  -4.651088e+02   1.338255e+02
  -3.271471e+02  -1.791067e+02
  -6.418183e+01  -3.448457e+02
   9.086273e+01  -1.993481e+02
   2.875150e+01   1.326653e+02
  -1.741547e+02   2.387343e+02
  -2.722911e+02  -1.017022e+02
  -7.708605e+01  -5.303313e+02
   2.710081e+02  -4.924322e+02
   3.982082e+02   1.253144e+01
   1.470969e+02   3.800417e+02
  -1.955547e+02   1.842646e+02
  -2.275416e+02  -2.793998e+02
   1.010370e+02  -4.144995e+02
   4.539099e+02  -6.917764e+01
   4.812180e+02   3.685337e+02
   1.376168e+02   4.940120e+02
  -3.124660e+02   2.683684e+02
  -5.175400e+02  -7.386131e+01
  -3.203311e+02  -2.847340e+02
   8.665445e+01  -2.538026e+02
   3.206719e+02  -5.957500e+01
   2.050283e+02   8.666842e+01
  -3.754567e+01   4.619115e+01
  -7.372640e+01  -8.364984e+01
   1.187642e+02  -9.428156e+01
   2.504215e+02   5.989806e+01
   1.157763e+02   2.174576e+02
  -1.624902e+02   2.296076e+02
  -3.152439e+02   1.015081e+02
  -2.234518e+02  -8.831492e+01
   2.283724e+01  -2.661957e+02
   2.545582e+02  -3.254405e+02
   3.373620e+02  -1.640209e+02
   2.354513e+02   1.486489e+02
   4.708559e+01   3.616557e+02
  -6.704629e+01   3.145148e+02
  -5.387258e+01   1.367844e+02
  -2.597191e+01   5.969465e+01
  -9.791076e+01   9.952102e+01
  -2.183565e+02   7.368011e+01
  -2.371354e+02  -9.526874e+01
  -1.018564e+02  -2.479512e+02
   8.667028e+01  -1.995130e+02
   1.908037e+02   2.605266e+01
   1.418513e+02   2.305928e+02
  -3.838332e+01   2.473406e+02
  -2.386606e+02   7.055929e+01
  -3.004149e+02  -1.659630e+02
  -1.556260e+02  -2.980541e+02
   6.940170e+01  -2.576995e+02
   1.761161e+02  -1.275928e+02
   1.367004e+02  -4.736682e+01
   1.218051e+02  -5.216269e+01
   2.457112e+02  -4.059157e+01
   3.783033e+02   8.288181e+01
   2.966226e+02   2.784812e+02
  -2.352520e+01   4.084584e+02
  -3.548628e+02   3.676570e+02
  -4.518289e+02   1.613571e+02
  -2.808281e+02  -9.800972e+01
  -2.316509e+01  -2.489722e+02
   1.045362e+02  -1.982420e+02
   3.398761e+01  -2.914280e+01
  -1.102165e+02   5.753708e+01
  -1.431571e+02  -2.979170e+01
  -1.653699e+01  -1.513160e+02
   1.278081e+02  -1.152435e+02
   1.231527e+02   5.627067e+01
  -2.774601e+01   1.419246e+02
  -1.619980e+02   6.418068e+00
  -1.399337e+02  -2.255364e+02
   2.859752e+01  -3.191118e+02
   2.241070e+02  -1.845496e+02
   3.211023e+02   6.252079e+01
   2.552008e+02   2.413808e+02
   6.267872e+01   2.545005e+02
  -1.185049e+02   1.351025e+02
  -1.496593e+02   6.228988e+00
  -3.908838e+01  -2.056085e+01
   5.332142e+01   5.172571e+01
   4.330300e+00   1.108669e+02
  -1.182275e+02   7.007066e+01
  -1.467601e+02  -2.480205e+01
  -3.576273e+01  -5.866371e+01
   7.703618e+01   4.067615e+00
   4.026103e+01   8.208738e+01
  -1.321281e+02   7.988671e+01
  -2.750070e+02  -1.843124e+01
  -2.391435e+02  -1.541619e+02
  -3.118300e+01  -2.440285e+02
   1.914776e+02  -2.230073e+02
   2.575843e+02  -9.328094e+01
   1.370102e+02   4.853804e+01
  -2.912213e+01   8.225752e+01
  -6.868466e+01  -2.889237e+00
   4.566528e+01  -8.121350e+01
   1.771254e+02  -3.496468e+01
   1.806299e+02   1.008974e+02
   5.164688e+01   1.824590e+02
  -8.779299e+01   1.309653e+02
  -1.229579e+02   1.610215e+01
  -4.941301e+01  -3.744955e+01
   3.583420e+01   1.247796e+01
   2.777896e+01   9.511598e+01
  -8.450329e+01   1.078106e+02
  -1.933079e+02   1.336593e+01
  -1.701989e+02  -1.256183e+02
  -8.728048e+00  -1.974703e+02
   1.511683e+02  -1.406342e+02
   1.680939e+02  -4.637378e+00
   5.166948e+01   9.550876e+01
  -6.135761e+01   9.196787e+01
  -6.979253e+01   2.277799e+01
  -5.715209e+00  -2.431319e+01
   3.062119e+01  -1.120686e+01
  -8.078596e+00   1.849754e+01
  -7.668213e+01  -1.967056e+00
  -9.177600e+01  -8.335052e+01
  -9.236636e+00  -1.587166e+02
   1.305047e+02  -1.406123e+02
   2.212422e+02  -9.938365e+00
   1.790158e+02   1.489095e+02
   3.128176e+01   2.157791e+02
  -9.978838e+01   1.490849e+02
  -1.223682e+02   2.504061e+01
  -6.630160e+01  -4.551298e+01
  -2.909245e+01  -2.929977e+01
  -5.120844e+01   1.190231e+01
  -7.935209e+01   5.253084e+00
  -4.768718e+01  -5.140534e+01
   3.871584e+01  -9.278736e+01
   1.088834e+02  -5.848642e+01
   9.311825e+01   3.956048e+01
  -1.630356e+01   1.151830e+02
  -1.473359e+02   8.094010e+01
  -1.885594e+02  -6.010151e+01
  -8.012867e+01  -1.970838e+02
   1.151191e+02  -2.066833e+02
   2.506502e+02  -7.502457e+01
   2.292444e+02   8.780935e+01
   9.128773e+01   1.615074e+02
  -3.982313e+01   1.299977e+02
  -8.549930e+01   7.348277e+01
  -6.860790e+01   6.307238e+01
  -5.799347e+01   8.538014e+01
  -8.558387e+01   7.081210e+01
  -1.208283e+02  -2.000019e+01
  -1.076117e+02  -1.448174e+02
  -2.158051e+01  -2.101342e+02
   9.585114e+01  -1.544720e+02
   1.600548e+02  -9.872915e+00
   1.180884e+02   1.192271e+02
   8.412515e+00   1.465558e+02
  -6.973359e+01   7.720953e+01
  -5.793877e+01  -1.005983e+01
   1.574773e+00  -4.707457e+01
   2.082931e+01  -3.326645e+01
  -2.738628e+01  -1.370599e+01
  -7.647586e+01  -1.908458e+01
  -4.442458e+01  -3.735620e+01
   6.587652e+01  -3.543839e+01
   1.570609e+02   2.753608e+00
   1.331247e+02   5.803946e+01
   2.562441e+00   8.898955e+01
  -1.222960e+02   6.661059e+01
  -1.353894e+02   4.703520e+00
  -4.178989e+01  -4.504858e+01
   5.616611e+01  -3.796309e+01
   7.159078e+01   1.819210e+01
   1.364283e+01   6.682164e+01
  -4.611299e+01   5.791720e+01
  -6.214131e+01   2.470461e-01
  -4.920606e+01  -4.722232e+01
  -4.271653e+01  -4.044968e+01
  -5.296174e+01  -2.957886e+00
  -6.059683e+01  -1.994225e+00
  -3.781475e+01  -6.630980e+01
   2.868194e+01  -1.392404e+02
   1.161938e+02  -1.325586e+02
   1.637055e+02  -2.884835e+01
   1.179524e+02   8.875153e+01
   1.355259e+00   1.219361e+02
  -8.497829e+01   6.109837e+01
  -5.686527e+01  -1.191154e+01
   5.443172e+01  -1.805073e+01
   1.241932e+02   4.121608e+01
   6.500442e+01   1.000759e+02
  -7.858020e+01   1.006241e+02
  -1.765515e+02   3.964397e+01
  -1.461083e+02  -3.879007e+01
  -2.861847e+01  -7.999849e+01
   5.997548e+01  -5.808180e+01
   4.546311e+01  -3.760891e-01
  -3.712906e+01   2.715539e+01
  -8.499242e+01  -2.000991e+01
  -3.352742e+01  -1.081585e+02
   7.845386e+01  -1.424889e+02
   1.491061e+02  -6.085704e+01
   1.156805e+02   8.847543e+01
   1.086820e+01   1.791843e+02
  -7.883943e+01   1.296835e+02
  -9.634393e+01  -1.085182e+01
  -5.070208e+01  -1.116775e+02
   1.079844e+01  -9.635107e+01
   4.665183e+01  -1.452938e+01
   4.334026e+01   3.052922e+01
   1.789995e+01   7.801001e+00
   5.317574e+00  -1.703755e+01
   2.537909e+01   1.799678e+01
   5.165751e+01   8.361815e+01
   3.068148e+01   9.919691e+01
  -4.995978e+01   3.952763e+01
  -1.255506e+02  -3.702207e+01
  -1.143967e+02  -6.658140e+01
  -1.618346e+01  -4.849031e+01
   7.664627e+01  -2.153447e+01
   8.059469e+01  -4.525933e+00
   1.431356e+01   9.537431e+00
  -3.326456e+01   1.942746e+01
  -1.693408e+01   1.325228e+01
   1.544759e+01  -2.517518e+00
  -3.211888e+00  -6.268441e+00
  -6.345846e+01  -1.506389e+00
  -8.525716e+01  -2.165747e+01
  -1.558622e+01  -7.443371e+01
   1.034622e+02  -1.065593e+02
   1.737078e+02  -5.739655e+01
   1.373192e+02   5.768484e+01
   2.632263e+01   1.480500e+02
  -7.542418e+01   1.412565e+02
  -1.076637e+02   5.768238e+01
  -7.421350e+01  -1.920478e+01
  -2.375051e+01  -3.466379e+01
  -8.324018e-01  -1.072307e+01
  -1.191369e+01  -6.642375e+00
  -2.829765e+01  -4.497541e+01
  -1.678104e+01  -8.435604e+01
   2.783774e+01  -6.601385e+01
   7.290597e+01   1.571536e+01
   7.184844e+01   9.637801e+01
   9.342045e+00   1.022233e+02
  -7.113669e+01   2.644169e+01
  -9.592075e+01  -6.364491e+01
  -3.397112e+01  -9.539174e+01
   5.999675e+01  -5.647413e+01
   9.418280e+01   8.907694e+00
   4.026446e+01   5.180722e+01
  -3.148548e+01   5.406617e+01
  -3.497868e+01   2.671637e+01
   2.611077e+01  -3.432237e+00
   6.340012e+01  -6.985049e+00
   1.587932e+01   2.464191e+01
  -7.337188e+01   5.987275e+01
  -1.111099e+02   4.963015e+01
  -6.387090e+01  -1.470706e+01
   1.384244e+01  -7.785910e+01
   5.290954e+01  -7.549649e+01
   3.925888e+01  -9.860700e+00
   4.513492e+00   4.908300e+01
  -2.259962e+01   4.283330e+01
  -3.348397e+01  -1.197354e+01
  -2.537481e+01  -4.992206e+01
   1.287104e+00  -3.480114e+01
   3.057575e+01   5.856744e+00
   3.813270e+01   2.257095e+01
   1.930897e+01   3.664067e+00
  -2.793169e+00  -1.672826e+01
  -6.611747e+00  -4.786161e+00
   2.686832e-01   3.030280e+01
  -5.362243e+00   4.585053e+01
  -2.588252e+01   1.595009e+01
  -3.419835e+01  -3.488041e+01
  -7.320241e+00  -5.499367e+01
   3.837312e+01  -2.189623e+01
   5.574600e+01   3.243460e+01
   1.616722e+01   5.643661e+01
  -5.225161e+01   3.240252e+01
  -8.476501e+01  -1.218314e+01
  -4.616969e+01  -4.053097e+01
   2.665636e+01  -4.058950e+01
   6.020025e+01  -2.371167e+01
   2.546170e+01  -5.825194e+00
  -2.841635e+01   9.932646e-01
  -3.164718e+01  -8.869530e+00
   2.390751e+01  -2.451318e+01
   7.593025e+01  -1.790529e+01
