
 $NMID
 id='ANONYMOUS ', fmtdat='(2E16.6)'
 volume=1.0
 tramp=1.0
 $END
  -3.081354e+03  -3.044844e+01
  -2.007814e+03  -1.596048e+03
   4.206957e+01  -1.951020e+03
   1.210872e+03  -1.136382e+03
   8.853317e+02  -1.376775e+02
  -8.020087e+00   2.092884e+02
  -3.747555e+02  -1.139689e+02
  -4.655016e+01  -5.436591e+02
   4.424258e+02  -5.532945e+02
   6.203280e+02  -7.121059e+01
   4.041158e+02   4.963195e+02
  -8.807086e+00   6.210722e+02
  -3.033557e+02   1.706835e+02
  -2.387853e+02  -4.058417e+02
   1.162126e+02  -5.189683e+02
   3.900737e+02  -7.018431e+01
   2.776956e+02   4.649893e+02
  -1.268832e+02   5.821696e+02
  -4.432423e+02   2.469817e+02
  -4.096953e+02  -1.736456e+02
  -1.168235e+02  -3.414821e+02
   1.205432e+02  -2.311821e+02
   7.604723e+01  -7.024830e+01
  -1.636430e+02  -7.938479e+01
  -2.638360e+02  -2.478005e+02
   1.642596e+00  -3.406540e+02
   4.375183e+02  -1.663823e+02
   5.780574e+02   1.689438e+02
   2.188612e+02   3.502227e+02
  -3.053970e+02   2.053609e+02
  -4.820422e+02  -1.185836e+02
  -1.845154e+02  -3.462686e+02
   2.465991e+02  -3.355977e+02
   4.303618e+02  -1.228480e+02
   3.052524e+02   1.537172e+02
   7.629128e+01   2.997511e+02
  -4.097837e+01   1.778915e+02
   2.179663e+01  -9.259827e+01
   1.669691e+02  -1.661699e+02
   2.050963e+02   1.239051e+02
   2.765232e+01   4.715795e+02
  -2.387439e+02   4.266562e+02
  -3.234349e+02  -1.411683e+00
  -1.209145e+02  -3.098720e+02
   1.506395e+02  -1.422738e+02
   1.756447e+02   2.561051e+02
  -1.035897e+02   3.709525e+02
  -4.200413e+02   5.604599e+01
  -4.557379e+02  -3.493840e+02
  -1.424957e+02  -4.664895e+02
   2.839454e+02  -2.525033e+02
   4.871117e+02   6.164817e+01
   3.170022e+02   2.437824e+02
  -5.108981e+01   2.201805e+02
  -2.782308e+02   7.468082e+01
  -2.031283e+02  -3.856639e+01
   7.715573e-01  -2.737082e+01
   5.187523e+01   5.165844e+01
  -9.621381e+01   6.261862e+01
  -2.186905e+02  -4.641820e+01
  -1.162202e+02  -1.860541e+02
   1.444644e+02  -2.287184e+02
   3.178415e+02  -1.221781e+02
   2.428035e+02   9.026568e+01
  -2.085190e+01   2.928544e+02
  -2.721188e+02   3.373147e+02
  -3.424308e+02   1.508719e+02
  -2.203759e+02  -1.520679e+02
  -4.399187e+01  -3.388267e+02
   4.059976e+01  -2.979429e+02
   2.655818e+01  -1.552031e+02
   3.022923e+01  -9.156597e+01
   1.234540e+02  -1.060901e+02
   2.308926e+02  -5.370793e+01
   2.255400e+02   1.109334e+02
   8.490654e+01   2.414349e+02
  -8.996891e+01   1.813777e+02
  -1.791391e+02  -3.797774e+01
  -1.259081e+02  -2.282784e+02
   4.563679e+01  -2.335748e+02
   2.306763e+02  -5.772634e+01
   2.861247e+02   1.632027e+02
   1.539103e+02   2.808489e+02
  -5.280227e+01   2.471480e+02
  -1.585189e+02   1.391862e+02
  -1.364907e+02   6.919092e+01
  -1.354160e+02   6.153194e+01
  -2.568409e+02   3.424530e+01
  -3.806900e+02  -9.030185e+01
  -2.950583e+02  -2.789655e+02
   2.618354e+01  -4.062763e+02
   3.569959e+02  -3.651662e+02
   4.466862e+02  -1.576604e+02
   2.671855e+02   9.643465e+01
   1.628980e+01   2.354773e+02
  -9.121644e+01   1.838735e+02
  -1.418865e+01   3.295757e+01
   1.101052e+02  -3.928215e+01
   1.237258e+02   3.595771e+01
   7.089386e+00   1.345111e+02
  -1.124387e+02   9.798243e+01
  -1.037635e+02  -5.124378e+01
   2.823680e+01  -1.240281e+02
   1.513964e+02   7.304947e-01
   1.384444e+02   2.198905e+02
  -2.224415e+01   3.170126e+02
  -2.257065e+02   1.905880e+02
  -3.305597e+02  -5.984059e+01
  -2.572649e+02  -2.460784e+02
  -5.489608e+01  -2.564553e+02
   1.213562e+02  -1.299421e+02
   1.414567e+02  -3.691012e+00
   3.272979e+01   1.446036e+01
  -4.783733e+01  -5.738906e+01
   4.142857e+00  -1.067068e+02
   1.168398e+02  -6.129670e+01
   1.372222e+02   2.704720e+01
   2.870991e+01   5.264347e+01
  -7.709022e+01  -1.199251e+01
  -3.563534e+01  -8.735397e+01
   1.390606e+02  -8.090703e+01
   2.808594e+02   2.289757e+01
   2.381845e+02   1.612580e+02
   2.344665e+01   2.456535e+02
  -1.960722e+02   2.161029e+02
  -2.516799e+02   8.677063e+01
  -1.277728e+02  -4.506448e+01
   2.941938e+01  -7.296246e+01
   6.043789e+01   5.721040e+00
  -5.066897e+01   7.476401e+01
  -1.729519e+02   2.870487e+01
  -1.735730e+02  -9.933012e+01
  -4.939938e+01  -1.755567e+02
   8.449034e+01  -1.248591e+02
   1.167137e+02  -1.376058e+01
   4.240609e+01   3.491476e+01
  -3.984204e+01  -1.985858e+01
  -2.492160e+01  -1.029461e+02
   9.173354e+01  -1.097209e+02
   1.971690e+02  -9.554939e+00
   1.681568e+02   1.278221e+02
   7.065166e+00   1.943651e+02
  -1.472160e+02   1.376804e+02
  -1.620093e+02   7.727763e+00
  -4.966805e+01  -8.868518e+01
   5.864031e+01  -8.735557e+01
   6.528169e+01  -2.174187e+01
   5.847496e-01   2.348396e+01
  -3.513314e+01   8.081482e+00
   8.114112e+00  -2.402330e+01
   8.260468e+01  -1.412141e+00
   9.767147e+01   8.632585e+01
   8.775745e+00   1.644458e+02
  -1.350054e+02   1.418701e+02
  -2.228683e+02   6.524819e+00
  -1.771964e+02  -1.504480e+02
  -3.150783e+01  -2.129370e+02
   9.615123e+01  -1.468528e+02
   1.201821e+02  -2.726918e+01
   6.792193e+01   4.152447e+01
   3.113305e+01   2.709218e+01
   5.196047e+01  -1.297276e+01
   8.196679e+01  -5.895148e+00
   5.251858e+01   5.390176e+01
  -3.784879e+01   9.912187e+01
  -1.153895e+02   6.292794e+01
  -1.001765e+02  -4.235158e+01
   1.725228e+01  -1.216838e+02
   1.542511e+02  -8.302682e+01
   1.919202e+02   6.388244e+01
   7.648241e+01   2.003884e+02
  -1.196960e+02   2.052983e+02
  -2.504527e+02   7.216592e+01
  -2.258501e+02  -8.747748e+01
  -8.920722e+01  -1.583317e+02
   3.912284e+01  -1.273898e+02
   8.299942e+01  -7.297677e+01
   6.516809e+01  -6.403704e+01
   5.487267e+01  -8.734142e+01
   8.472495e+01  -7.342375e+01
   1.224426e+02   1.796061e+01
   1.094942e+02   1.442426e+02
   2.228402e+01   2.101215e+02
  -9.521606e+01   1.536049e+02
  -1.582996e+02   8.332317e+00
  -1.158637e+02  -1.199469e+02
  -6.492519e+00  -1.453502e+02
   7.146655e+01  -7.401146e+01
   5.849672e+01   1.431496e+01
  -4.205362e+00   5.032877e+01
  -2.564905e+01   3.348803e+01
   2.504149e+01   1.132909e+01
   7.860883e+01   1.713657e+01
   4.645689e+01   3.785419e+01
  -6.878995e+01   3.675557e+01
  -1.622778e+02  -3.490398e+00
  -1.339581e+02  -6.097523e+01
   1.917950e+00  -9.165001e+01
   1.263876e+02  -6.715312e+01
   1.355802e+02  -3.257156e+00
   4.068214e+01   4.760146e+01
  -5.614728e+01   4.049157e+01
  -7.266767e+01  -1.743760e+01
  -1.755721e+01  -6.888610e+01
   4.304270e+01  -6.125021e+01
   6.411272e+01  -2.033530e+00
   5.396051e+01   4.754378e+01
   4.456207e+01   4.081822e+01
   5.133851e+01   2.182940e+00
   6.041701e+01   1.587792e+00
   4.120160e+01   6.798491e+01
  -2.599392e+01   1.423638e+02
  -1.184804e+02   1.352054e+02
  -1.691029e+02   2.993392e+01
  -1.213065e+02  -8.945334e+01
  -7.947302e-01  -1.243891e+02
   8.706141e+01  -6.424829e+01
   5.803709e+01   1.020548e+01
  -5.414387e+01   1.878597e+01
  -1.237730e+02  -3.954921e+01
  -6.434430e+01  -9.928639e+01
   7.876667e+01  -1.003601e+02
   1.757417e+02  -3.873363e+01
   1.445615e+02   3.969111e+01
   2.726884e+01   7.922523e+01
  -6.036892e+01   5.574772e+01
  -4.514646e+01  -1.879352e+00
   3.757250e+01  -2.879916e+01
   8.620704e+01   1.841057e+01
   3.690798e+01   1.074267e+02
  -7.356304e+01   1.445538e+02
  -1.461443e+02   6.536435e+01
  -1.170987e+02  -8.466956e+01
  -1.468778e+01  -1.780103e+02
   7.656839e+01  -1.296688e+02
   9.626433e+01   1.144901e+01
   4.995945e+01   1.119810e+02
  -1.336000e+01   9.511320e+01
  -4.821756e+01   1.307643e+01
  -4.161140e+01  -3.032656e+01
  -1.524791e+01  -6.994770e+00
  -5.683906e+00   1.611540e+01
  -2.840421e+01  -2.000622e+01
  -5.313073e+01  -8.384361e+01
  -2.872660e+01  -9.743330e+01
   5.237963e+01  -3.890234e+01
   1.254143e+02   3.510258e+01
   1.130792e+02   6.486425e+01
   1.681978e+01   4.953884e+01
  -7.440376e+01   2.371760e+01
  -8.003973e+01   4.776228e+00
  -1.631564e+01  -1.092974e+01
   3.182237e+01  -1.965079e+01
   1.830044e+01  -1.161423e+01
  -1.351627e+01   3.642389e+00
   2.517431e+00   5.075547e+00
   6.140978e+01  -9.647839e-01
   8.625009e+01   2.012293e+01
   2.054802e+01   7.512015e+01
  -9.918703e+01   1.096484e+02
  -1.746009e+02   6.202416e+01
  -1.421429e+02  -5.383119e+01
  -3.029045e+01  -1.475175e+02
   7.457620e+01  -1.441669e+02
   1.083142e+02  -6.128351e+01
   7.472695e+01   1.762767e+01
   2.463703e+01   3.534485e+01
   2.502133e+00   1.227421e+01
   1.301582e+01   8.006761e+00
   2.789221e+01   4.576736e+01
   1.623186e+01   8.460134e+01
  -2.717691e+01   6.658702e+01
  -7.257906e+01  -1.368674e+01
  -7.437023e+01  -9.377878e+01
  -1.379456e+01  -1.021555e+02
   6.894568e+01  -3.024440e+01
   9.818708e+01   5.941261e+01
   3.783013e+01   9.536255e+01
  -5.894824e+01   6.022748e+01
  -9.661444e+01  -6.601339e+00
  -4.286110e+01  -5.397127e+01
   3.169336e+01  -5.765806e+01
   3.753837e+01  -2.729712e+01
  -2.387279e+01   5.709947e+00
  -6.327771e+01   8.543351e+00
  -1.724784e+01  -2.530051e+01
   7.261116e+01  -6.085660e+01
   1.123655e+02  -4.931946e+01
   6.640564e+01   1.573615e+01
  -1.226627e+01   7.900494e+01
  -5.380296e+01   7.743518e+01
  -4.196350e+01   1.238551e+01
  -7.058939e+00  -4.824090e+01
   2.162257e+01  -4.500726e+01
   3.412915e+01   9.106956e+00
   2.675378e+01   4.975389e+01
  -3.953211e-01   3.715223e+01
  -3.094524e+01  -4.387837e+00
  -3.914681e+01  -2.356330e+01
  -1.938683e+01  -4.600413e+00
   3.824000e+00   1.861654e+01
   6.312158e+00   8.228961e+00
  -4.015296e+00  -2.926534e+01
   2.988766e-01  -4.897285e+01
   2.453934e+01  -2.087725e+01
   3.835411e+01   3.176150e+01
   1.271252e+01   5.515705e+01
  -3.702812e+01   2.422979e+01
  -5.849424e+01  -3.004771e+01
  -1.867375e+01  -5.572095e+01
   5.269170e+01  -3.382503e+01
   8.675518e+01   9.945987e+00
   4.749092e+01   3.985415e+01
  -2.627769e+01   4.260979e+01
  -6.047869e+01   2.671865e+01
  -2.700157e+01   6.714077e+00
   2.595144e+01  -3.361558e+00
   3.086424e+01   5.473152e+00
  -2.116750e+01   2.334780e+01
  -7.202571e+01   1.981001e+01
