
 $NMID
 id='ANONYMOUS ', fmtdat='(2E16.6)'
 volume=1.0
 tramp=1.0
 $END
  -3.833647e+03   1.299255e+01
  -2.385199e+03  -2.141729e+03
   3.457288e+02  -2.445714e+03
   1.701679e+03  -1.105846e+03
   9.831074e+02   2.214267e+02
  -2.989629e+02   4.065727e+02
  -6.405866e+02  -2.570434e+02
  -3.476419e+01  -8.170919e+02
   6.419673e+02  -6.970753e+02
   8.062608e+02  -3.561352e+00
   4.550660e+02   6.939810e+02
  -1.124494e+02   7.856866e+02
  -4.765539e+02   1.616489e+02
  -3.256846e+02  -5.709758e+02
   1.898957e+02  -6.583185e+02
   5.149269e+02  -4.255759e+01
   2.950829e+02   5.928627e+02
  -2.254678e+02   6.440804e+02
  -5.378554e+02   1.916563e+02
  -4.267231e+02  -2.674377e+02
  -7.877300e+01  -4.076346e+02
   1.830071e+02  -2.618647e+02
   1.445867e+02  -5.301563e+01
  -1.457388e+02  -9.591545e+00
  -3.404649e+02  -1.970016e+02
  -9.168260e+01  -3.964092e+02
   4.667749e+02  -2.880748e+02
   7.325151e+02   1.301924e+02
   3.326095e+02   4.567605e+02
  -3.563613e+02   3.464731e+02
  -6.281536e+02  -8.169398e+01
  -2.723504e+02  -4.248026e+02
   2.732099e+02  -4.389659e+02
   5.156915e+02  -1.686636e+02
   3.753881e+02   1.944712e+02
   8.196442e+01   3.977549e+02
  -1.136662e+02   2.411111e+02
  -6.900353e+01  -1.501855e+02
   1.690457e+02  -2.999387e+02
   3.247293e+02   7.667834e+01
   1.336109e+02   5.896441e+02
  -2.829898e+02   5.798031e+02
  -4.715634e+02   7.929780e+00
  -1.978236e+02  -4.369158e+02
   2.197525e+02  -2.357850e+02
   2.837980e+02   2.965237e+02
  -8.879508e+01   4.720935e+02
  -5.038840e+02   9.922770e+01
  -5.463650e+02  -3.926201e+02
  -1.636807e+02  -5.473789e+02
   3.432460e+02  -3.122049e+02
   5.804500e+02   6.789253e+01
   3.648988e+02   3.214715e+02
  -9.783611e+01   3.024221e+02
  -3.711002e+02   7.432829e+01
  -2.370540e+02  -1.130812e+02
   5.317339e+01  -6.944431e+01
   1.005018e+02   9.944014e+01
  -1.299162e+02   1.259474e+02
  -2.916839e+02  -5.846428e+01
  -1.375954e+02  -2.489430e+02
   1.801203e+02  -2.570994e+02
   3.434973e+02  -1.054890e+02
   2.338506e+02   9.511546e+01
  -2.709827e+01   2.762253e+02
  -2.635742e+02   3.474728e+02
  -3.564052e+02   1.897808e+02
  -2.647348e+02  -1.507983e+02
  -6.565757e+01  -4.014471e+02
   7.517036e+01  -3.570665e+02
   7.379006e+01  -1.471200e+02
   3.290668e+01  -4.836340e+01
   9.310946e+01  -1.000982e+02
   2.238554e+02  -9.096243e+01
   2.606541e+02   8.774508e+01
   1.254268e+02   2.655461e+02
  -8.364971e+01   2.260822e+02
  -2.100304e+02  -1.551292e+01
  -1.668510e+02  -2.441034e+02
   2.950896e+01  -2.737668e+02
   2.578820e+02  -8.966052e+01
   3.366574e+02   1.715013e+02
   1.798775e+02   3.278988e+02
  -7.552658e+01   2.900748e+02
  -1.999015e+02   1.405478e+02
  -1.528049e+02   4.334884e+01
  -1.265729e+02   5.090327e+01
  -2.583159e+02   4.927644e+01
  -4.085447e+02  -7.908860e+01
  -3.277067e+02  -2.951228e+02
   1.535747e+01  -4.434868e+02
   3.754016e+02  -4.062657e+02
   4.879431e+02  -1.871226e+02
   3.134372e+02   9.784141e+01
   3.696208e+01   2.742511e+02
  -1.122115e+02   2.274150e+02
  -4.700147e+01   3.539770e+01
   1.136942e+02  -7.363734e+01
   1.637785e+02   2.140955e+01
   2.991512e+01   1.695507e+02
  -1.393894e+02   1.398994e+02
  -1.454537e+02  -5.605528e+01
   2.241459e+01  -1.630805e+02
   1.788442e+02  -1.645677e+01
   1.583640e+02   2.439747e+02
  -2.714147e+01   3.490167e+02
  -2.398463e+02   2.011201e+02
  -3.452116e+02  -6.497217e+01
  -2.792082e+02  -2.545943e+02
  -7.642397e+01  -2.715682e+02
   1.229591e+02  -1.506255e+02
   1.654594e+02  -1.311307e+01
   4.746429e+01   2.289524e+01
  -6.010363e+01  -5.077893e+01
  -1.218243e+01  -1.199583e+02
   1.251559e+02  -8.301368e+01
   1.636807e+02   2.037722e+01
   4.495485e+01   6.403508e+01
  -8.152326e+01   1.058465e+00
  -4.624174e+01  -8.435695e+01
   1.383859e+02  -8.697717e+01
   2.943426e+02   1.368026e+01
   2.609312e+02   1.584561e+02
   4.214403e+01   2.610331e+02
  -1.989486e+02   2.477768e+02
  -2.785012e+02   1.110093e+02
  -1.548969e+02  -4.920028e+01
   2.738909e+01  -9.424682e+01
   7.784738e+01  -1.750427e+00
  -4.372906e+01   9.084962e+01
  -1.917035e+02   4.562705e+01
  -2.016608e+02  -1.046636e+02
  -6.251834e+01  -1.995124e+02
   9.256829e+01  -1.475485e+02
   1.354069e+02  -2.267772e+01
   5.841083e+01   3.905842e+01
  -3.522889e+01  -1.016017e+01
  -3.145524e+01  -9.790722e+01
   8.629286e+01  -1.157559e+02
   2.063214e+02  -1.930221e+01
   1.874212e+02   1.310675e+02
   1.506370e+01   2.149166e+02
  -1.621665e+02   1.579133e+02
  -1.858460e+02   8.440046e+00
  -6.064148e+01  -1.053162e+02
   6.480118e+01  -1.038686e+02
   7.713522e+01  -2.775052e+01
   9.433473e+00   2.533999e+01
  -2.992987e+01   1.316613e+01
   9.762566e+00  -1.746454e+01
   8.105875e+01   3.752588e+00
   9.746425e+01   8.848338e+01
   1.199675e+01   1.688468e+02
  -1.366612e+02   1.532454e+02
  -2.378669e+02   1.652328e+01
  -1.975049e+02  -1.565129e+02
  -3.887217e+01  -2.346482e+02
   1.063471e+02  -1.655939e+02
   1.337377e+02  -2.906189e+01
   7.297462e+01   5.035999e+01
   3.166743e+01   3.276982e+01
   5.514776e+01  -1.321344e+01
   8.474862e+01  -6.317752e+00
   4.969102e+01   5.472712e+01
  -4.210912e+01   9.841353e+01
  -1.147091e+02   6.173289e+01
  -9.750391e+01  -4.139126e+01
   1.651376e+01  -1.216855e+02
   1.551225e+02  -8.790317e+01
   2.029180e+02   6.029113e+01
   9.178217e+01   2.093790e+02
  -1.179446e+02   2.258166e+02
  -2.694589e+02   8.783336e+01
  -2.519493e+02  -8.981463e+01
  -1.040219e+02  -1.742055e+02
   4.020693e+01  -1.431390e+02
   9.226835e+01  -8.224004e+01
   7.501332e+01  -7.012814e+01
   6.315486e+01  -9.351206e+01
   9.239238e+01  -7.738946e+01
   1.310523e+02   2.064515e+01
   1.187529e+02   1.555076e+02
   2.729234e+01   2.274490e+02
  -1.008325e+02   1.699153e+02
  -1.737132e+02   1.514444e+01
  -1.312915e+02  -1.258845e+02
  -1.333717e+01  -1.587472e+02
   7.233275e+01  -8.621836e+01
   6.163142e+01   7.764491e+00
  -2.770695e-01   4.876507e+01
  -1.956899e+01   3.513779e+01
   3.171561e+01   1.487922e+01
   8.269380e+01   2.063672e+01
   4.776270e+01   3.984879e+01
  -6.955894e+01   3.834407e+01
  -1.674789e+02  -7.630220e-01
  -1.442718e+02  -5.895615e+01
  -6.119928e+00  -9.392526e+01
   1.292849e+02  -7.334863e+01
   1.461515e+02  -8.503871e+00
   4.609614e+01   4.642505e+01
  -6.074340e+01   4.102722e+01
  -7.760226e+01  -1.891035e+01
  -1.367578e+01  -7.210246e+01
   5.115964e+01  -6.282138e+01
   6.680867e+01  -1.417638e-01
   5.184155e+01   5.122021e+01
   4.609968e+01   4.325216e+01
   5.844861e+01   2.105340e+00
   6.589496e+01   1.090119e+00
   4.021776e+01   7.111758e+01
  -3.038338e+01   1.505970e+02
  -1.227644e+02   1.441027e+02
  -1.744120e+02   3.266794e+01
  -1.277719e+02  -9.428685e+01
  -3.591835e+00  -1.307467e+02
   9.061361e+01  -6.583945e+01
   6.171283e+01   1.289759e+01
  -5.894559e+01   2.037049e+01
  -1.360399e+02  -4.286652e+01
  -7.299065e+01  -1.073498e+02
   8.295384e+01  -1.107097e+02
   1.906786e+02  -4.718673e+01
   1.596447e+02   3.823817e+01
   3.349360e+01   8.614756e+01
  -6.302767e+01   6.520615e+01
  -4.884115e+01   2.523712e+00
   3.988067e+01  -2.925129e+01
   9.230703e+01   2.106180e+01
   3.703208e+01   1.177408e+02
  -8.507192e+01   1.562065e+02
  -1.629473e+02   6.748284e+01
  -1.274047e+02  -9.577314e+01
  -1.381081e+01  -1.954927e+02
   8.392568e+01  -1.427032e+02
   1.045058e+02   9.493630e+00
   5.749126e+01   1.196492e+02
  -8.170217e+00   1.045876e+02
  -4.911492e+01   1.701013e+01
  -4.848798e+01  -3.186641e+01
  -2.107065e+01  -7.817614e+00
  -5.002353e+00   1.893286e+01
  -2.585897e+01  -1.876025e+01
  -5.688220e+01  -8.982493e+01
  -3.666805e+01  -1.072458e+02
   5.198070e+01  -4.353917e+01
   1.373496e+02   3.849134e+01
   1.263945e+02   7.034805e+01
   1.793711e+01   5.185903e+01
  -8.428076e+01   2.437412e+01
  -8.757869e+01   6.552148e+00
  -1.435975e+01  -9.863669e+00
   3.642239e+01  -2.197978e+01
   1.699038e+01  -1.516697e+01
  -1.792865e+01   2.973574e+00
   4.253178e+00   7.141639e+00
   7.043388e+01   1.051439e+00
   9.272049e+01   2.275348e+01
   1.576675e+01   8.125880e+01
  -1.128530e+02   1.171166e+02
  -1.877990e+02   6.319437e+01
  -1.485566e+02  -6.285736e+01
  -2.969121e+01  -1.611631e+02
   8.002804e+01  -1.533668e+02
   1.160878e+02  -6.273687e+01
   8.095199e+01   2.021878e+01
   2.582629e+01   3.696873e+01
  -1.002383e-01   1.125844e+01
   1.215299e+01   6.560881e+00
   3.157335e+01   4.766803e+01
   2.010059e+01   9.080791e+01
  -2.930120e+01   7.197978e+01
  -7.999473e+01  -1.647450e+01
  -7.921644e+01  -1.049061e+02
  -1.000608e+01  -1.117419e+02
   7.859630e+01  -2.876574e+01
   1.051790e+02   6.969266e+01
   3.683971e+01   1.036714e+02
  -6.533954e+01   6.081825e+01
  -1.016181e+02  -9.503714e+00
  -4.284579e+01  -5.491085e+01
   3.383098e+01  -5.739344e+01
   3.624296e+01  -2.872161e+01
  -2.990865e+01   3.687919e+00
  -6.901444e+01   8.112106e+00
  -1.686151e+01  -2.640159e+01
   7.891970e+01  -6.606893e+01
   1.186941e+02  -5.586320e+01
   6.799315e+01   1.477727e+01
  -1.449421e+01   8.448072e+01
  -5.585418e+01   8.169303e+01
  -4.164313e+01   9.544903e+00
  -4.838212e+00  -5.415671e+01
   2.465646e+01  -4.604353e+01
   3.693283e+01   1.387863e+01
   2.786678e+01   5.401465e+01
  -1.727517e+00   3.679934e+01
  -3.343986e+01  -6.547966e+00
  -4.102407e+01  -2.345220e+01
  -2.072147e+01  -3.136095e+00
   2.376619e+00   1.739724e+01
   6.536967e+00   3.273228e+00
   6.862760e-01  -3.429350e+01
   8.179064e+00  -4.953066e+01
   2.963680e+01  -1.571003e+01
   3.649762e+01   3.970064e+01
   6.335917e+00   6.072877e+01
  -4.239481e+01   2.368967e+01
  -6.030796e+01  -3.589538e+01
  -1.760219e+01  -6.181680e+01
   5.610682e+01  -3.535343e+01
   9.168017e+01   1.309745e+01
   5.036751e+01   4.365466e+01
  -2.876276e+01   4.361861e+01
  -6.537740e+01   2.535397e+01
  -2.693582e+01   5.997393e+00
   3.259156e+01  -1.104410e+00
   3.572050e+01   1.045246e+01
  -2.647029e+01   2.831730e+01
  -8.433005e+01   2.098605e+01
