
 $NMID
 id='ANONYMOUS ', fmtdat='(2E16.6)'
 volume=1.0
 tramp=1.0
 $END
  -4.025016e+03  -1.305165e+01
  -2.427567e+03  -2.321967e+03
   4.953236e+02  -2.549135e+03
   1.846653e+03  -1.019540e+03
   9.618467e+02   3.740051e+02
  -4.292602e+02   4.557495e+02
  -7.228056e+02  -3.288010e+02
  -9.774861e+00  -9.054770e+02
   7.142448e+02  -7.209445e+02
   8.524589e+02   3.772096e+01
   4.476241e+02   7.570793e+02
  -1.635743e+02   8.209163e+02
  -5.333448e+02   1.398382e+02
  -3.408043e+02  -6.277927e+02
   2.235838e+02  -6.899068e+02
   5.481830e+02  -2.103040e+01
   2.840300e+02   6.271469e+02
  -2.625800e+02   6.405033e+02
  -5.542215e+02   1.550695e+02
  -4.120729e+02  -2.982099e+02
  -5.562637e+01  -4.181961e+02
   2.049637e+02  -2.613997e+02
   1.676263e+02  -3.863802e+01
  -1.381988e+02   2.329260e+01
  -3.663291e+02  -1.723136e+02
  -1.262553e+02  -4.133203e+02
   4.709897e+02  -3.302448e+02
   7.767493e+02   1.178497e+02
   3.634352e+02   4.942917e+02
  -3.754331e+02   3.927895e+02
  -6.722246e+02  -7.170592e+01
  -2.961798e+02  -4.494411e+02
   2.812869e+02  -4.670036e+02
   5.370191e+02  -1.777689e+02
   3.897815e+02   2.092169e+02
   7.521160e+01   4.260896e+02
  -1.453309e+02   2.545207e+02
  -1.021460e+02  -1.768300e+02
   1.732369e+02  -3.479045e+02
   3.691811e+02   6.148264e+01
   1.679630e+02   6.275262e+02
  -3.018255e+02   6.230464e+02
  -5.196888e+02   1.783284e+00
  -2.157760e+02  -4.817368e+02
   2.484099e+02  -2.633494e+02
   3.186137e+02   3.108001e+02
  -8.523713e+01   5.005029e+02
  -5.250699e+02   1.098027e+02
  -5.640496e+02  -4.021133e+02
  -1.626927e+02  -5.636481e+02
   3.600555e+02  -3.234843e+02
   5.996979e+02   7.322402e+01
   3.675208e+02   3.459525e+02
  -1.200196e+02   3.239069e+02
  -3.977185e+02   6.552496e+01
  -2.376634e+02  -1.432336e+02
   7.720599e+01  -8.129570e+01
   1.146368e+02   1.201525e+02
  -1.444315e+02   1.468265e+02
  -3.121422e+02  -6.623371e+01
  -1.378642e+02  -2.684289e+02
   1.903040e+02  -2.579413e+02
   3.403215e+02  -9.367849e+01
   2.213532e+02   9.206190e+01
  -2.636300e+01   2.584259e+02
  -2.495465e+02   3.409206e+02
  -3.517621e+02   2.001587e+02
  -2.751181e+02  -1.471735e+02
  -6.934392e+01  -4.155344e+02
   9.078757e+01  -3.673259e+02
   9.046543e+01  -1.347017e+02
   2.920527e+01  -2.763022e+01
   7.553866e+01  -9.662006e+01
   2.151726e+02  -1.053858e+02
   2.686457e+02   7.613367e+01
   1.376856e+02   2.690630e+02
  -8.047100e+01   2.381646e+02
  -2.176807e+02  -6.739903e+00
  -1.783493e+02  -2.446505e+02
   2.347452e+01  -2.826900e+02
   2.624912e+02  -9.920131e+01
   3.464152e+02   1.714963e+02
   1.821948e+02   3.377584e+02
  -8.493127e+01   2.966683e+02
  -2.101740e+02   1.334857e+02
  -1.520718e+02   2.978547e+01
  -1.169990e+02   4.561934e+01
  -2.504767e+02   5.497918e+01
  -4.069374e+02  -7.183732e+01
  -3.298568e+02  -2.926148e+02
   1.122218e+01  -4.443913e+02
   3.712825e+02  -4.093736e+02
   4.896445e+02  -1.918238e+02
   3.224266e+02   9.728221e+01
   4.265693e+01   2.826278e+02
  -1.198205e+02   2.368677e+02
  -5.966337e+01   3.272644e+01
   1.135390e+02  -8.612491e+01
   1.765201e+02   1.680408e+01
   3.667846e+01   1.803423e+02
  -1.488325e+02   1.514904e+02
  -1.581739e+02  -5.884358e+01
   2.150777e+01  -1.747151e+02
   1.855804e+02  -2.189749e+01
   1.603250e+02   2.464848e+02
  -2.941509e+01   3.499032e+02
  -2.372341e+02   1.981893e+02
  -3.387924e+02  -6.458324e+01
  -2.789076e+02  -2.495768e+02
  -8.292962e+01  -2.696108e+02
   1.201828e+02  -1.545092e+02
   1.705730e+02  -1.550466e+01
   5.157751e+01   2.672632e+01
  -6.399520e+01  -4.676208e+01
  -1.829950e+01  -1.226022e+02
   1.255933e+02  -8.930266e+01
   1.698498e+02   1.816253e+01
   4.975239e+01   6.777878e+01
  -8.150860e+01   6.702257e+00
  -4.976547e+01  -8.060973e+01
   1.331380e+02  -8.705886e+01
   2.902204e+02   9.020589e+00
   2.621649e+02   1.521632e+02
   4.860700e+01   2.594932e+02
  -1.944199e+02   2.531056e+02
  -2.814804e+02   1.165192e+02
  -1.609315e+02  -5.073831e+01
   2.681501e+01  -1.003617e+02
   8.318769e+01  -3.875215e+00
  -4.000677e+01   9.527844e+01
  -1.940264e+02   5.063087e+01
  -2.065314e+02  -1.045731e+02
  -6.485486e+01  -2.034481e+02
   9.391093e+01  -1.517775e+02
   1.392242e+02  -2.479953e+01
   6.308767e+01   4.047768e+01
  -3.273882e+01  -5.034449e+00
  -3.396180e+01  -9.250447e+01
   8.075428e+01  -1.149333e+02
   2.034460e+02  -2.296741e+01
   1.892352e+02   1.284461e+02
   1.724180e+01   2.165838e+02
  -1.637167e+02   1.604236e+02
  -1.894592e+02   7.294595e+00
  -6.230923e+01  -1.093461e+02
   6.601028e+01  -1.070423e+02
   7.984971e+01  -2.872386e+01
   1.290900e+01   2.589113e+01
  -2.691066e+01   1.544472e+01
   9.526644e+00  -1.386526e+01
   7.700784e+01   5.414176e+00
   9.398550e+01   8.575923e+01
   1.330532e+01   1.647782e+02
  -1.326479e+02   1.530177e+02
  -2.364193e+02   2.006130e+01
  -1.992835e+02  -1.542314e+02
  -3.988701e+01  -2.359487e+02
   1.077184e+02  -1.673218e+02
   1.347739e+02  -2.824123e+01
   7.200132e+01   5.247633e+01
   3.041757e+01   3.395990e+01
   5.448023e+01  -1.280466e+01
   8.285983e+01  -6.395971e+00
   4.678963e+01   5.264690e+01
  -4.196272e+01   9.432158e+01
  -1.098496e+02   5.947009e+01
  -9.300270e+01  -3.883625e+01
   1.508421e+01  -1.173447e+02
   1.498361e+02  -8.737410e+01
   2.008078e+02   5.655490e+01
   9.523744e+01   2.064677e+02
  -1.135643e+02   2.271152e+02
  -2.687634e+02   9.103839e+01
  -2.542834e+02  -8.859385e+01
  -1.061192e+02  -1.755043e+02
   3.987809e+01  -1.448428e+02
   9.333455e+01  -8.290398e+01
   7.676048e+01  -6.973357e+01
   6.456471e+01  -9.237006e+01
   9.234943e+01  -7.604562e+01
   1.298715e+02   2.121127e+01
   1.181740e+02   1.549731e+02
   2.802481e+01   2.269570e+02
  -1.001925e+02   1.707669e+02
  -1.745530e+02   1.704362e+01
  -1.332531e+02  -1.245531e+02
  -1.541706e+01  -1.592654e+02
   7.067905e+01  -8.861417e+01
   6.129501e+01   4.614879e+00
   1.775584e+00   4.660710e+01
  -1.618136e+01   3.513630e+01
   3.324379e+01   1.628874e+01
   8.124624e+01   2.139568e+01
   4.658329e+01   3.916521e+01
  -6.731018e+01   3.785454e+01
  -1.638230e+02   7.286544e-01
  -1.438848e+02  -5.614233e+01
  -9.611348e+00  -9.208953e+01
   1.259982e+02  -7.366174e+01
   1.457893e+02  -1.023778e+01
   4.705434e+01   4.445062e+01
  -6.039522e+01   3.963598e+01
  -7.686838e+01  -1.893587e+01
  -1.151624e+01  -7.049259e+01
   5.269524e+01  -6.076056e+01
   6.538102e+01   6.314141e-01
   4.892778e+01   5.056255e+01
   4.506139e+01   4.266100e+01
   5.942391e+01   2.323777e+00
   6.591313e+01   1.000787e+00
   3.835230e+01   6.963045e+01
  -3.122629e+01   1.484373e+02
  -1.202486e+02   1.428601e+02
  -1.704117e+02   3.295469e+01
  -1.259051e+02  -9.292920e+01
  -4.710228e+00  -1.289328e+02
   8.869491e+01  -6.420482e+01
   6.088990e+01   1.364116e+01
  -5.892233e+01   2.017227e+01
  -1.363146e+02  -4.316582e+01
  -7.388338e+01  -1.073241e+02
   8.211157e+01  -1.111720e+02
   1.906868e+02  -4.873427e+01
   1.606465e+02   3.675173e+01
   3.478292e+01   8.637007e+01
  -6.236501e+01   6.699063e+01
  -4.900464e+01   4.259665e+00
   3.934063e+01  -2.835364e+01
   9.145675e+01   2.155622e+01
   3.538372e+01   1.177814e+02
  -8.726850e+01   1.549891e+02
  -1.641979e+02   6.525337e+01
  -1.267330e+02  -9.741013e+01
  -1.232286e+01  -1.958256e+02
   8.451660e+01  -1.429135e+02
   1.044650e+02   8.521485e+00
   5.854844e+01   1.189734e+02
  -5.931890e+00   1.053365e+02
  -4.794881e+01   1.823442e+01
  -4.971976e+01  -3.172094e+01
  -2.280736e+01  -8.270268e+00
  -4.668863e+00   1.954393e+01
  -2.397426e+01  -1.721643e+01
  -5.632247e+01  -8.920668e+01
  -3.844597e+01  -1.080809e+02
   5.009018e+01  -4.421220e+01
   1.374077e+02   3.895056e+01
   1.274208e+02   7.070855e+01
   1.779392e+01   5.098424e+01
  -8.545394e+01   2.332066e+01
  -8.777219e+01   6.843321e+00
  -1.310383e+01  -8.819721e+00
   3.719119e+01  -2.197129e+01
   1.601646e+01  -1.633732e+01
  -1.913243e+01   2.292094e+00
   4.719158e+00   7.903852e+00
   7.163317e+01   2.327658e+00
   9.202550e+01   2.320474e+01
   1.294058e+01   8.050885e+01
  -1.147972e+02   1.154475e+02
  -1.865034e+02   6.109930e+01
  -1.454385e+02  -6.439629e+01
  -2.790785e+01  -1.610371e+02
   7.957816e+01  -1.516467e+02
   1.150799e+02  -6.092227e+01
   8.057469e+01   2.077463e+01
   2.541940e+01   3.630981e+01
  -1.105934e+00   1.019290e+01
   1.147260e+01   5.568980e+00
   3.206608e+01   4.691331e+01
   2.092881e+01   9.041270e+01
  -2.928970e+01   7.164308e+01
  -8.014167e+01  -1.735318e+01
  -7.796431e+01  -1.059786e+02
  -7.674214e+00  -1.114824e+02
   7.969005e+01  -2.661278e+01
   1.038341e+02   7.175326e+01
   3.481432e+01   1.032639e+02
  -6.553000e+01   5.859928e+01
  -9.987917e+01  -1.040612e+01
  -4.141621e+01  -5.312744e+01
   3.326536e+01  -5.513792e+01
   3.434204e+01  -2.854226e+01
  -3.127045e+01   2.308016e+00
  -6.891879e+01   7.449687e+00
  -1.609381e+01  -2.581283e+01
   7.892426e+01  -6.573907e+01
   1.173956e+02  -5.665190e+01
   6.632758e+01   1.366321e+01
  -1.502699e+01   8.365201e+01
  -5.470470e+01   8.061881e+01
  -3.970685e+01   8.150139e+00
  -3.438614e+00  -5.455492e+01
   2.497038e+01  -4.466364e+01
   3.647614e+01   1.552687e+01
   2.721032e+01   5.386746e+01
  -2.066527e+00   3.519404e+01
  -3.315563e+01  -7.313859e+00
  -4.044320e+01  -2.252419e+01
  -2.067400e+01  -2.402853e+00
   1.826220e+00   1.609975e+01
   6.805956e+00   9.787031e-01
   2.977565e+00  -3.485710e+01
   1.116301e+01  -4.735729e+01
   3.029691e+01  -1.258844e+01
   3.387285e+01   4.141281e+01
   3.119990e+00   6.039591e+01
  -4.304222e+01   2.232779e+01
  -5.856458e+01  -3.702974e+01
  -1.625308e+01  -6.205202e+01
   5.551579e+01  -3.467996e+01
   9.026661e+01   1.401130e+01
   4.964966e+01   4.373565e+01
  -2.869384e+01   4.237667e+01
  -6.490337e+01   2.370273e+01
  -2.583579e+01   5.580059e+00
   3.411064e+01   3.207691e-01
   3.617448e+01   1.248681e+01
  -2.809730e+01   2.913258e+01
  -8.661767e+01   2.008959e+01
