
 $NMID
 id='ANONYMOUS ', fmtdat='(2E16.6)'
 volume=1.0
 tramp=1.0
 $END
  -3.134035e+03  -4.927786e+01
  -2.104977e+03  -1.546757e+03
  -1.043166e+02  -1.983621e+03
   1.142498e+03  -1.313333e+03
   9.678554e+02  -3.298485e+02
   1.363759e+02   1.491238e+02
  -2.996906e+02  -5.481725e+01
  -6.326037e+01  -4.852630e+02
   4.043079e+02  -5.619498e+02
   6.163892e+02  -1.159392e+02
   4.373157e+02   4.681712e+02
   4.198600e+01   6.281734e+02
  -2.613875e+02   2.014186e+02
  -2.315548e+02  -3.796255e+02
   9.482465e+01  -5.232700e+02
   3.834699e+02  -9.471966e+01
   3.083806e+02   4.668252e+02
  -9.703031e+01   6.332916e+02
  -4.599735e+02   3.080824e+02
  -4.588427e+02  -1.529177e+02
  -1.515050e+02  -3.572393e+02
   1.067562e+02  -2.488201e+02
   5.380035e+01  -8.959316e+01
  -1.925654e+02  -1.252157e+02
  -2.602538e+02  -3.053719e+02
   4.719734e+01  -3.576002e+02
   4.804962e+02  -1.288677e+02
   5.800454e+02   2.092403e+02
   1.946299e+02   3.441637e+02
  -3.195083e+02   1.647852e+02
  -4.752626e+02  -1.509427e+02
  -1.675197e+02  -3.537905e+02
   2.660045e+02  -3.307258e+02
   4.468312e+02  -1.177115e+02
   3.131254e+02   1.543106e+02
   8.516549e+01   2.930933e+02
  -1.036479e+01   1.730340e+02
   6.782918e+01  -7.486427e+01
   1.860206e+02  -1.231623e+02
   1.732012e+02   1.615644e+02
  -1.902393e+01   4.758693e+02
  -2.476316e+02   4.104595e+02
  -2.952374e+02  -3.743812e+00
  -1.019257e+02  -2.888797e+02
   1.357952e+02  -1.173164e+02
   1.469762e+02   2.693341e+02
  -1.238458e+02   3.715160e+02
  -4.356266e+02   4.309899e+01
  -4.734183e+02  -3.755019e+02
  -1.517499e+02  -4.907289e+02
   2.933041e+02  -2.582070e+02
   5.079751e+02   6.662843e+01
   3.378443e+02   2.392886e+02
  -3.415582e+01   2.111478e+02
  -2.712824e+02   8.622245e+01
  -2.159994e+02  -7.568285e+00
  -2.553178e+01  -1.195279e+01
   3.628947e+01   3.446332e+01
  -9.160387e+01   4.082034e+01
  -2.131028e+02  -4.593798e+01
  -1.224784e+02  -1.807516e+02
   1.470110e+02  -2.463751e+02
   3.495509e+02  -1.462910e+02
   2.799714e+02   1.013935e+02
  -2.224235e+01   3.408801e+02
  -3.144171e+02   3.769994e+02
  -3.818935e+02   1.514796e+02
  -2.281795e+02  -1.731643e+02
  -3.965675e+01  -3.541577e+02
   2.904329e+01  -3.104715e+02
   8.041363e+00  -1.813341e+02
   3.448791e+01  -1.249756e+02
   1.555842e+02  -1.221950e+02
   2.650339e+02  -4.181360e+01
   2.381577e+02   1.373338e+02
   7.640739e+01   2.619161e+02
  -1.049002e+02   1.838266e+02
  -1.878021e+02  -5.401333e+01
  -1.226318e+02  -2.511493e+02
   5.962116e+01  -2.452562e+02
   2.482942e+02  -4.982000e+01
   3.000734e+02   1.812740e+02
   1.622933e+02   2.961869e+02
  -4.886536e+01   2.602887e+02
  -1.605113e+02   1.578719e+02
  -1.480662e+02   9.103135e+01
  -1.586620e+02   7.431231e+01
  -2.908543e+02   3.061067e+01
  -4.183406e+02  -1.088754e+02
  -3.186480e+02  -3.094601e+02
   3.570850e+01  -4.431297e+02
   3.970911e+02  -3.939370e+02
   4.873457e+02  -1.640469e+02
   2.807317e+02   1.087962e+02
   8.484868e+00   2.482415e+02
  -9.308126e+01   1.879037e+02
  -2.437462e-01   3.702043e+01
   1.226516e+02  -2.758162e+01
   1.205974e+02   4.742019e+01
  -2.703682e+00   1.352534e+02
  -1.139949e+02   9.117203e+01
  -9.754315e+01  -5.525743e+01
   3.443326e+01  -1.216756e+02
   1.582368e+02   9.104792e+00
   1.473323e+02   2.381799e+02
  -2.336334e+01   3.446513e+02
  -2.500639e+02   2.108662e+02
  -3.683318e+02  -6.645169e+01
  -2.808530e+02  -2.759251e+02
  -5.125719e+01  -2.837085e+02
   1.371038e+02  -1.371349e+02
   1.488295e+02   3.533962e-01
   3.017709e+01   1.209305e+01
  -4.799388e+01  -6.830062e+01
   1.273801e+01  -1.143703e+02
   1.284092e+02  -5.882679e+01
   1.427705e+02   3.386074e+01
   2.479669e+01   5.398387e+01
  -8.505770e+01  -2.016639e+01
  -3.490753e+01  -1.005817e+02
   1.584938e+02  -8.839845e+01
   3.122229e+02   3.128300e+01
   2.588417e+02   1.849609e+02
   1.695161e+01   2.712512e+02
  -2.214440e+02   2.294173e+02
  -2.726525e+02   8.646506e+01
  -1.319086e+02  -4.902475e+01
   3.417268e+01  -7.238300e+01
   5.999567e+01   9.938926e+00
  -6.083842e+01   7.674896e+01
  -1.870779e+02   2.416371e+01
  -1.832886e+02  -1.102557e+02
  -4.964356e+01  -1.876858e+02
   9.200131e+01  -1.306940e+02
   1.233513e+02  -1.129914e+01
   4.036448e+01   3.742492e+01
  -4.718705e+01  -2.755050e+01
  -2.460123e+01  -1.193477e+02
   1.071558e+02  -1.212229e+02
   2.193599e+02  -5.557303e+00
   1.812572e+02   1.438400e+02
   3.874066e+00   2.106677e+02
  -1.600393e+02   1.463750e+02
  -1.724945e+02   8.379652e+00
  -5.115668e+01  -9.260152e+01
   6.356754e+01  -9.114201e+01
   6.834570e+01  -2.181595e+01
  -3.684034e+00   2.556076e+01
  -4.235084e+01   6.440036e+00
   8.677443e+00  -3.049033e+01
   9.473693e+01  -3.745261e+00
   1.107781e+02   9.742649e+01
   7.856422e+00   1.846504e+02
  -1.528654e+02   1.551574e+02
  -2.456982e+02   2.035500e+00
  -1.909997e+02  -1.681862e+02
  -3.190733e+01  -2.313180e+02
   1.044070e+02  -1.576071e+02
   1.300206e+02  -2.996747e+01
   7.476774e+01   4.302957e+01
   3.514516e+01   2.813256e+01
   5.753158e+01  -1.449346e+01
   9.178737e+01  -6.233569e+00
   6.084786e+01   6.112000e+01
  -4.134573e+01   1.129160e+02
  -1.317119e+02   7.159724e+01
  -1.149207e+02  -4.905213e+01
   2.044723e+01  -1.381623e+02
   1.750393e+02  -9.136480e+01
   2.123590e+02   7.481939e+01
   7.888121e+01   2.232257e+02
  -1.371537e+02   2.227538e+02
  -2.752118e+02   7.384774e+01
  -2.436221e+02  -9.850460e+01
  -9.391430e+01  -1.721607e+02
   4.403959e+01  -1.369495e+02
   8.985577e+01  -7.830910e+01
   6.936000e+01  -6.977976e+01
   5.851388e+01  -9.622054e+01
   9.272854e+01  -8.134481e+01
   1.349234e+02   1.937663e+01
   1.196051e+02   1.586132e+02
   2.247472e+01   2.302718e+02
  -1.056579e+02   1.663495e+02
  -1.722237e+02   5.906592e+00
  -1.238078e+02  -1.334705e+02
  -3.802044e+00  -1.584833e+02
   8.076734e+01  -7.789056e+01
   6.471664e+01   1.960359e+01
  -6.927665e+00   5.782605e+01
  -3.218905e+01   3.699114e+01
   2.525026e+01   1.107985e+01
   8.734451e+01   1.798135e+01
   5.204540e+01   4.219195e+01
  -7.788930e+01   4.073144e+01
  -1.817617e+02  -5.811168e+00
  -1.468889e+02  -7.053721e+01
   6.395853e+00  -1.028139e+02
   1.423011e+02  -7.285091e+01
   1.487834e+02  -8.714534e-01
   4.336963e+01   5.468184e+01
  -6.170652e+01   4.563389e+01
  -8.012978e+01  -1.926375e+01
  -2.163845e+01  -7.686865e+01
   4.516389e+01  -6.885577e+01
   7.158652e+01  -3.040380e+00
   6.223829e+01   5.249882e+01
   4.977904e+01   4.533263e+01
   5.486177e+01   2.546041e+00
   6.596144e+01   2.151097e+00
   4.709519e+01   7.590783e+01
  -2.776417e+01   1.577501e+02
  -1.328485e+02   1.489214e+02
  -1.895971e+02   3.213591e+01
  -1.344422e+02  -9.960739e+01
   7.959681e-01  -1.381678e+02
   9.740568e+01  -7.196220e+01
   6.417848e+01   1.042719e+01
  -5.921736e+01   2.047651e+01
  -1.345868e+02  -4.351100e+01
  -6.870589e+01  -1.089269e+02
   8.759912e+01  -1.087828e+02
   1.923530e+02  -3.956768e+01
   1.567173e+02   4.600365e+01
   2.781152e+01   8.660102e+01
  -6.728303e+01   5.856522e+01
  -4.937996e+01  -4.363799e+00
   4.167010e+01  -3.240748e+01
   9.497157e+01   1.982155e+01
   4.169975e+01   1.171843e+02
  -7.827296e+01   1.585634e+02
  -1.580836e+02   7.306791e+01
  -1.279705e+02  -9.101225e+01
  -1.683708e+01  -1.938298e+02
   8.361118e+01  -1.408648e+02
   1.052703e+02   1.413796e+01
   5.284360e+01   1.235121e+02
  -1.784574e+01   1.032749e+02
  -5.430033e+01   1.277421e+01
  -4.385150e+01  -3.370209e+01
  -1.448642e+01  -7.462965e+00
  -6.783243e+00   1.690036e+01
  -3.339722e+01  -2.351280e+01
  -5.835454e+01  -9.247078e+01
  -2.863261e+01  -1.058464e+02
   5.974494e+01  -4.172551e+01
   1.366322e+02   3.843910e+01
   1.218802e+02   7.115068e+01
   1.842623e+01   5.519522e+01
  -7.981177e+01   2.657608e+01
  -8.724764e+01   4.430958e+00
  -1.941721e+01  -1.305005e+01
   3.393976e+01  -2.118159e+01
   2.138658e+01  -1.136281e+01
  -1.324323e+01   4.519303e+00
   2.047780e+00   4.729182e+00
   6.543879e+01  -2.055301e+00
   9.483309e+01   2.176804e+01
   2.552173e+01   8.256557e+01
  -1.063018e+02   1.208908e+02
  -1.921769e+02   6.952998e+01
  -1.583877e+02  -5.718237e+01
  -3.445541e+01  -1.611058e+02
   8.242756e+01  -1.591610e+02
   1.194918e+02  -6.868096e+01
   8.186937e+01   1.891220e+01
   2.731228e+01   3.943669e+01
   4.033116e+00   1.451393e+01
   1.513911e+01   9.873225e+00
   2.976470e+01   5.109454e+01
   1.637760e+01   9.307153e+01
  -2.997659e+01   7.297583e+01
  -7.887106e+01  -1.430084e+01
  -8.204227e+01  -1.013152e+02
  -1.734406e+01  -1.115542e+02
   7.380002e+01  -3.504544e+01
   1.081753e+02   6.272385e+01
   4.328740e+01   1.044838e+02
  -6.409397e+01   6.806357e+01
  -1.073823e+02  -6.351489e+00
  -4.851130e+01  -6.103464e+01
   3.520684e+01  -6.556308e+01
   4.335246e+01  -3.013859e+01
  -2.426275e+01   7.525075e+00
  -6.914958e+01   9.805849e+00
  -1.971001e+01  -2.828864e+01
   7.954450e+01  -6.647539e+01
   1.246220e+02  -5.256174e+01
   7.458809e+01   1.857090e+01
  -1.303319e+01   8.710636e+01
  -6.033497e+01   8.574410e+01
  -4.795286e+01   1.527634e+01
  -9.053737e+00  -5.201721e+01
   2.324624e+01  -5.062033e+01
   3.749567e+01   8.094415e+00
   2.976236e+01   5.453627e+01
   4.077553e-02   4.241356e+01
  -3.398222e+01  -3.997031e+00
  -4.346704e+01  -2.693529e+01
  -2.132269e+01  -5.982766e+00
   4.943129e+00   2.179515e+01
   6.905704e+00   1.177757e+01
  -6.855288e+00  -3.093930e+01
  -3.308204e+00  -5.556464e+01
   2.561532e+01  -2.625991e+01
   4.454908e+01   3.242702e+01
   1.746060e+01   6.016852e+01
  -3.957156e+01   2.777674e+01
  -6.560213e+01  -3.148548e+01
  -2.166589e+01  -6.044598e+01
   5.830301e+01  -3.756160e+01
   9.621179e+01   9.992928e+00
   5.249383e+01   4.355144e+01
  -2.879297e+01   4.787747e+01
  -6.647284e+01   3.089963e+01
  -3.075447e+01   7.866751e+00
   2.632719e+01  -4.977984e+00
   3.280838e+01   3.800691e+00
  -2.144164e+01   2.415879e+01
  -7.590162e+01   2.195406e+01
