
 $NMID
 id='ANONYMOUS ', fmtdat='(2E16.6)'
 volume=1.0
 tramp=1.0
 $END
   3.736420e+03   1.392600e+01
   2.326595e+03   2.050291e+03
  -2.815847e+02   2.352002e+03
  -1.592343e+03   1.123640e+03
  -9.513995e+02  -1.214460e+02
   2.392690e+02  -3.385077e+02
   5.740993e+02   2.407914e+02
   2.454954e+01   7.620592e+02
  -6.078134e+02   6.668089e+02
  -7.703618e+02   1.668491e+01
  -4.449124e+02  -6.563596e+02
   9.074320e+01  -7.533987e+02
   4.381808e+02  -1.589672e+02
   3.030767e+02   5.445736e+02
  -1.782736e+02   6.336776e+02
  -4.912128e+02   4.711301e+01
  -2.951528e+02  -5.710712e+02
   2.003712e+02  -6.388150e+02
   5.181756e+02  -2.116172e+02
   4.289653e+02   2.438049e+02
   9.146786e+01   3.957047e+02
  -1.696888e+02   2.573735e+02
  -1.269517e+02   5.478187e+01
   1.620428e+02   2.536500e+01
   3.368662e+02   2.191967e+02
   6.877447e+01   3.999894e+02
  -4.795540e+02   2.665732e+02
  -7.160510e+02  -1.487350e+02
  -3.067348e+02  -4.460955e+02
   3.609236e+02  -3.172999e+02
   6.101020e+02   9.912864e+01
   2.543149e+02   4.194316e+02
  -2.770074e+02   4.241488e+02
  -5.084400e+02   1.601901e+02
  -3.654268e+02  -1.897299e+02
  -7.915650e+01  -3.809282e+02
   9.907336e+01  -2.247980e+02
   4.211826e+01   1.463180e+02
  -1.819566e+02   2.734440e+02
  -3.063835e+02  -9.897342e+01
  -1.051620e+02  -5.818820e+02
   2.848883e+02  -5.534465e+02
   4.443175e+02   1.872147e+00
   1.760674e+02   4.183656e+02
  -2.123018e+02   2.128442e+02
  -2.621909e+02  -3.000228e+02
   9.819027e+01  -4.600953e+02
   4.975358e+02  -8.947187e+01
   5.383986e+02   3.922157e+02
   1.629099e+02   5.398965e+02
  -3.375037e+02   3.038402e+02
  -5.713084e+02  -6.831640e+01
  -3.591730e+02  -3.079478e+02
   9.100387e+01  -2.848704e+02
   3.544691e+02  -7.308704e+01
   2.286466e+02   9.509792e+01
  -4.311496e+01   5.523262e+01
  -8.652590e+01  -9.216754e+01
   1.285318e+02  -1.104594e+02
   2.792668e+02   5.948053e+01
   1.331519e+02   2.384058e+02
  -1.740806e+02   2.557489e+02
  -3.428034e+02   1.159978e+02
  -2.440486e+02  -9.191974e+01
   2.013737e+01  -2.885824e+02
   2.690781e+02  -3.595340e+02
   3.635874e+02  -1.884788e+02
   2.623507e+02   1.557494e+02
   6.149052e+01   3.964986e+02
  -6.794045e+01   3.484192e+02
  -5.954641e+01   1.500298e+02
  -2.802566e+01   6.210622e+01
  -1.021132e+02   1.091262e+02
  -2.345222e+02   8.732342e+01
  -2.619471e+02  -9.618044e+01
  -1.193995e+02  -2.684577e+02
   8.873708e+01  -2.219498e+02
   2.098577e+02   2.205181e+01
   1.623808e+02   2.481193e+02
  -3.460215e+01   2.723943e+02
  -2.594095e+02   8.458944e+01
  -3.339666e+02  -1.738521e+02
  -1.781722e+02  -3.238556e+02
   7.105959e+01  -2.852425e+02
   1.919479e+02  -1.431797e+02
   1.493390e+02  -5.259599e+01
   1.308116e+02  -5.820223e+01
   2.660144e+02  -5.036639e+01
   4.147684e+02   8.087934e+01
   3.309247e+02   2.971576e+02
  -1.560550e+01   4.470498e+02
  -3.787145e+02   4.103913e+02
  -4.903336e+02   1.877280e+02
  -3.108182e+02  -9.995537e+01
  -3.264361e+01  -2.727034e+02
   1.103199e+02  -2.213665e+02
   3.883444e+01  -3.318453e+01
  -1.182150e+02   6.753075e+01
  -1.590172e+02  -2.753606e+01
  -2.352552e+01  -1.663830e+02
   1.378124e+02  -1.316360e+02
   1.383187e+02   5.819431e+01
  -2.603434e+01   1.577241e+02
  -1.777183e+02   1.216693e+01
  -1.587190e+02  -2.437049e+02
   2.427668e+01  -3.499540e+02
   2.406401e+02  -2.062574e+02
   3.514740e+02   6.144982e+01
   2.841702e+02   2.573035e+02
   7.531395e+01   2.760454e+02
  -1.257313e+02   1.508958e+02
  -1.641939e+02   1.103932e+01
  -4.420575e+01  -2.191295e+01
   5.983703e+01   5.436748e+01
   8.507894e+00   1.211106e+02
  -1.272702e+02   8.042591e+01
  -1.619252e+02  -2.290955e+01
  -4.154981e+01  -6.358963e+01
   8.389679e+01   1.737041e+00
   4.620918e+01   8.794335e+01
  -1.417747e+02   8.999446e+01
  -3.001089e+02  -1.339463e+01
  -2.647709e+02  -1.619573e+02
  -4.065638e+01  -2.653885e+02
   2.031123e+02  -2.488043e+02
   2.796232e+02  -1.090671e+02
   1.520760e+02   4.973062e+01
  -2.939113e+01   9.160417e+01
  -7.590965e+01  -8.141824e-01
   4.710870e+01  -9.031346e+01
   1.929003e+02  -4.331479e+01
   2.006548e+02   1.058075e+02
   6.135774e+01   1.988291e+02
  -9.290500e+01   1.460461e+02
  -1.345711e+02   2.107864e+01
  -5.579047e+01  -3.969670e+01
   3.865653e+01   1.215769e+01
   3.255796e+01   1.022781e+02
  -8.907520e+01   1.192660e+02
  -2.103230e+02   1.943655e+01
  -1.891038e+02  -1.328933e+02
  -1.456355e+01  -2.158595e+02
   1.621578e+02  -1.577991e+02
   1.844132e+02  -9.010420e+00
   5.928576e+01   1.038096e+02
  -6.494882e+01   1.026064e+02
  -7.618185e+01   2.688273e+01
  -7.433427e+00  -2.627969e+01
   3.254573e+01  -1.310482e+01
  -8.651134e+00   1.979079e+01
  -8.335183e+01  -9.886420e-01
  -1.014774e+02  -8.886100e+01
  -1.363996e+01  -1.725722e+02
   1.388398e+02  -1.564094e+02
   2.411995e+02  -1.641779e+01
   1.992997e+02   1.582219e+02
   3.942331e+01   2.353939e+02
  -1.058071e+02   1.657184e+02
  -1.334833e+02   3.012964e+01
  -7.354958e+01  -4.868426e+01
  -3.236865e+01  -3.167218e+01
  -5.564742e+01   1.406854e+01
  -8.633402e+01   7.428585e+00
  -5.267813e+01  -5.499965e+01
   4.050694e+01  -1.016584e+02
   1.170926e+02  -6.569565e+01
   1.017836e+02   4.105040e+01
  -1.528826e+01   1.254949e+02
  -1.584225e+02   9.138922e+01
  -2.069360e+02  -6.094307e+01
  -9.249517e+01  -2.129332e+02
   1.203206e+02  -2.285385e+02
   2.720206e+02  -8.827076e+01
   2.530048e+02   9.038856e+01
   1.039829e+02   1.745846e+02
  -4.038414e+01   1.433352e+02
  -9.194421e+01   8.251195e+01
  -7.390731e+01   7.061567e+01
  -6.179010e+01   9.461604e+01
  -9.206777e+01   7.916989e+01
  -1.324389e+02  -1.929087e+01
  -1.208601e+02  -1.558592e+02
  -2.849813e+01  -2.291640e+02
   1.011085e+02  -1.712158e+02
   1.747993e+02  -1.484731e+01
   1.320957e+02   1.273029e+02
   1.294637e+01   1.600026e+02
  -7.402643e+01   8.630561e+01
  -6.328950e+01  -9.171291e+00
   4.669500e-01  -5.099374e+01
   2.144769e+01  -3.659285e+01
  -3.062918e+01  -1.447907e+01
  -8.388533e+01  -1.935867e+01
  -4.918618e+01  -3.981119e+01
   7.088971e+01  -4.000653e+01
   1.710913e+02  -5.526258e-01
   1.466277e+02   5.997878e+01
   5.284198e+00   9.667844e+01
  -1.316380e+02   7.544216e+01
  -1.477553e+02   8.507957e+00
  -4.673972e+01  -4.790075e+01
   6.060207e+01  -4.254143e+01
   7.858548e+01   1.831592e+01
   1.596231e+01   7.265969e+01
  -4.951953e+01   6.416656e+01
  -6.777103e+01   1.452751e+00
  -5.435188e+01  -5.063024e+01
  -4.742004e+01  -4.323782e+01
  -5.816624e+01  -1.982341e+00
  -6.630907e+01  -7.763598e-01
  -4.244337e+01  -7.154400e+01
   2.848589e+01  -1.526299e+02
   1.237046e+02  -1.472203e+02
   1.776697e+02  -3.503489e+01
   1.306040e+02   9.427192e+01
   4.321959e+00   1.329239e+02
  -9.133566e+01   6.833862e+01
  -6.237903e+01  -1.191246e+01
   5.912330e+01  -2.095160e+01
   1.368283e+02   4.225701e+01
   7.352761e+01   1.078779e+02
  -8.345114e+01   1.118523e+02
  -1.920456e+02   4.765841e+01
  -1.607219e+02  -3.874556e+01
  -3.336279e+01  -8.676603e+01
   6.400729e+01  -6.513886e+01
   4.960124e+01  -1.756903e+00
  -3.996056e+01   3.035427e+01
  -9.329976e+01  -2.008464e+01
  -3.886871e+01  -1.176467e+02
   8.299491e+01  -1.575861e+02
   1.620484e+02  -6.969023e+01
   1.285467e+02   9.443195e+01
   1.576573e+01   1.958744e+02
  -8.332924e+01   1.437061e+02
  -1.055256e+02  -9.500319e+00
  -5.812973e+01  -1.207709e+02
   9.167755e+00  -1.055663e+02
   5.039351e+01  -1.707253e+01
   4.829075e+01   3.227306e+01
   2.008049e+01   8.061922e+00
   5.321383e+00  -1.883036e+01
   2.772968e+01   1.898684e+01
   5.826479e+01   9.019928e+01
   3.618831e+01   1.077786e+02
  -5.335961e+01   4.433690e+01
  -1.381927e+02  -3.768315e+01
  -1.268271e+02  -7.017216e+01
  -1.871652e+01  -5.252141e+01
   8.360422e+01  -2.521963e+01
   8.804266e+01  -6.859544e+00
   1.557936e+01   1.002441e+01
  -3.606209e+01   2.206575e+01
  -1.796060e+01   1.500108e+01
   1.709059e+01  -3.086128e+00
  -3.793557e+00  -6.873203e+00
  -6.973184e+01  -3.147785e-01
  -9.364973e+01  -2.186098e+01
  -1.821686e+01  -8.113580e+01
   1.111592e+02  -1.187717e+02
   1.885935e+02  -6.629402e+01
   1.510866e+02   6.043819e+01
   3.186787e+01   1.614186e+02
  -7.930465e+01   1.558787e+02
  -1.163891e+02   6.516323e+01
  -8.157795e+01  -1.942461e+01
  -2.664746e+01  -3.728447e+01
  -9.041831e-01  -1.160671e+01
  -1.298930e+01  -6.877396e+00
  -3.199994e+01  -4.837081e+01
  -2.039200e+01  -9.173464e+01
   2.895481e+01  -7.277144e+01
   8.018126e+01   1.565205e+01
   8.065261e+01   1.040284e+02
   1.214607e+01   1.117127e+02
  -7.753883e+01   3.026904e+01
  -1.062890e+02  -6.785399e+01
  -3.896333e+01  -1.036291e+02
   6.452197e+01  -6.277531e+01
   1.029783e+02   7.870608e+00
   4.484026e+01   5.554456e+01
  -3.327374e+01   5.942400e+01
  -3.733463e+01   2.983970e+01
   2.881149e+01  -4.225708e+00
   6.920835e+01  -8.972292e+00
   1.775502e+01   2.654491e+01
  -7.889272e+01   6.710111e+01
  -1.200909e+02   5.685098e+01
  -6.981830e+01  -1.456269e+01
   1.350820e+01  -8.536426e+01
   5.602179e+01  -8.350341e+01
   4.249005e+01  -1.129793e+01
   5.856116e+00   5.374835e+01
  -2.389328e+01   4.715187e+01
  -3.694305e+01  -1.263927e+01
  -2.877116e+01  -5.403869e+01
   7.921369e-01  -3.784400e+01
   3.358292e+01   5.855127e+00
   4.204835e+01   2.369891e+01
   2.113477e+01   3.445200e+00
  -3.244407e+00  -1.805458e+01
  -7.206821e+00  -4.676363e+00
   6.470298e-01   3.340511e+01
  -5.483829e+00   5.013100e+01
  -2.829276e+01   1.756268e+01
  -3.788990e+01  -3.785267e+01
  -8.699051e+00  -6.016631e+01
   4.167701e+01  -2.464586e+01
   6.150096e+01   3.451884e+01
   1.876461e+01   6.149185e+01
  -5.635204e+01   3.647250e+01
  -9.280982e+01  -1.164491e+01
  -5.130428e+01  -4.333556e+01
   2.830602e+01  -4.478443e+01
   6.533925e+01  -2.699537e+01
   2.755863e+01  -6.797912e+00
  -3.141862e+01   1.615946e+00
  -3.504622e+01  -9.280892e+00
   2.579299e+01  -2.761811e+01
   8.307926e+01  -2.134747e+01
