
 $NMID
 id='ANONYMOUS ', fmtdat='(2E16.6)'
 volume=1.0
 tramp=1.0
 $END
   3.619398e+03   3.903243e+01
   2.320254e+03   1.950767e+03
  -1.629089e+02   2.317645e+03
  -1.517413e+03   1.233264e+03
  -1.024726e+03   1.299290e+01
   1.018328e+02  -3.140569e+02
   5.070615e+02   1.657684e+02
   5.159447e+01   6.895105e+02
  -5.549895e+02   6.560695e+02
  -7.468660e+02   5.223858e+01
  -4.599132e+02  -6.155704e+02
   4.883353e+01  -7.407696e+02
   3.951374e+02  -1.871146e+02
   2.918860e+02   4.998424e+02
  -1.550247e+02   6.164767e+02
  -4.720283e+02   6.620900e+01
  -3.067915e+02  -5.565731e+02
   1.813377e+02  -6.599702e+02
   5.250970e+02  -2.465970e+02
   4.549370e+02   2.297174e+02
   1.109908e+02   4.003536e+02
  -1.562606e+02   2.640857e+02
  -1.092372e+02   7.322713e+01
   1.664510e+02   6.713264e+01
   3.059798e+02   2.539153e+02
   2.649210e+01   3.853286e+02
  -4.837842e+02   2.159652e+02
  -6.782212e+02  -1.740759e+02
  -2.770641e+02  -4.168368e+02
   3.467618e+02  -2.693813e+02
   5.717536e+02   1.181958e+02
   2.290132e+02   4.036763e+02
  -2.792792e+02   3.982583e+02
  -4.990166e+02   1.457928e+02
  -3.565201e+02  -1.841653e+02
  -8.469973e+01  -3.622906e+02
   6.983915e+01  -2.195092e+02
   9.087308e+00   1.149731e+02
  -1.784000e+02   2.240932e+02
  -2.596263e+02  -1.160638e+02
  -6.378480e+01  -5.496065e+02
   2.757441e+02  -5.160730e+02
   4.035595e+02  -3.699984e+00
   1.595581e+02   3.800103e+02
  -1.856720e+02   1.885241e+02
  -2.259855e+02  -2.906839e+02
   1.098006e+02  -4.366440e+02
   4.859586e+02  -7.211296e+01
   5.237580e+02   4.005599e+02
   1.576745e+02   5.388275e+02
  -3.321896e+02   2.936649e+02
  -5.628956e+02  -7.427872e+01
  -3.619565e+02  -2.968213e+02
   7.166738e+01  -2.704406e+02
   3.373619e+02  -8.101261e+01
   2.370905e+02   7.016043e+01
  -1.698712e+01   4.757263e+01
  -7.520105e+01  -7.105512e+01
   1.141533e+02  -9.019042e+01
   2.636136e+02   5.510726e+01
   1.340224e+02   2.259854e+02
  -1.731889e+02   2.584588e+02
  -3.593793e+02   1.222683e+02
  -2.602286e+02  -1.059652e+02
   3.224103e+01  -3.137793e+02
   3.006747e+02  -3.652383e+02
   3.794222e+02  -1.715554e+02
   2.524708e+02   1.675771e+02
   5.198704e+01   3.910400e+02
  -5.909244e+01   3.468026e+02
  -4.914337e+01   1.688758e+02
  -3.851193e+01   8.450861e+01
  -1.268935e+02   1.092026e+02
  -2.484425e+02   6.607816e+01
  -2.544690e+02  -1.157846e+02
  -1.029171e+02  -2.711859e+02
   9.720038e+01  -2.110641e+02
   2.039894e+02   3.567234e+01
   1.475897e+02   2.548235e+02
  -4.683042e+01   2.668293e+02
  -2.604490e+02   7.070780e+01
  -3.266974e+02  -1.840787e+02
  -1.737348e+02  -3.244975e+02
   6.820283e+01  -2.847902e+02
   1.902141e+02  -1.514584e+02
   1.576528e+02  -6.462483e+01
   1.466981e+02  -6.002007e+01
   2.806306e+02  -3.711561e+01
   4.224498e+02   1.011946e+02
   3.282464e+02   3.144062e+02
  -3.133927e+01   4.550122e+02
  -4.013384e+02   4.061298e+02
  -5.033452e+02   1.751062e+02
  -3.055715e+02  -1.086834e+02
  -2.219429e+01  -2.694755e+02
   1.081250e+02  -2.150166e+02
   2.738597e+01  -3.849557e+01
  -1.201621e+02   5.258367e+01
  -1.472059e+02  -3.445219e+01
  -1.484927e+01  -1.576700e+02
   1.315890e+02  -1.206247e+02
   1.268318e+02   5.729405e+01
  -2.910881e+01   1.478863e+02
  -1.736473e+02   3.541907e+00
  -1.546882e+02  -2.500700e+02
   3.086394e+01  -3.568373e+02
   2.546752e+02  -2.076203e+02
   3.648285e+02   7.331976e+01
   2.835483e+02   2.757098e+02
   6.273311e+01   2.849737e+02
  -1.345396e+02   1.464346e+02
  -1.621761e+02   5.689161e+00
  -4.101014e+01  -1.850741e+01
   5.480522e+01   6.063287e+01
  -3.774289e-01   1.199498e+02
  -1.303871e+02   7.238280e+01
  -1.579074e+02  -2.856655e+01
  -3.650089e+01  -6.102056e+01
   8.461088e+01   9.971642e+00
   4.048829e+01   9.442010e+01
  -1.529027e+02   8.735195e+01
  -3.101121e+02  -2.704367e+01
  -2.641461e+02  -1.787727e+02
  -2.768296e+01  -2.727711e+02
   2.177100e+02  -2.427266e+02
   2.843313e+02  -9.926861e+01
   1.480923e+02   5.171890e+01
  -3.168645e+01   8.622224e+01
  -7.139599e+01  -3.908819e+00
   5.353424e+01  -8.563547e+01
   1.948171e+02  -3.458084e+01
   1.973099e+02   1.122832e+02
   5.611046e+01   2.001353e+02
  -9.631347e+01   1.427688e+02
  -1.335868e+02   1.671528e+01
  -5.130732e+01  -3.947837e+01
   4.086914e+01   1.946000e+01
   2.692857e+01   1.107465e+02
  -1.002307e+02   1.195165e+02
  -2.179508e+02   1.009790e+01
  -1.876087e+02  -1.430740e+02
  -7.528741e+00  -2.188824e+02
   1.675674e+02  -1.549760e+02
   1.851637e+02  -6.631341e+00
   5.709169e+01   1.029360e+02
  -6.700629e+01   1.001476e+02
  -7.544337e+01   2.511472e+01
  -3.301968e+00  -2.574538e+01
   3.640904e+01  -9.502842e+00
  -1.034095e+01   2.387555e+01
  -8.995743e+01  -2.119378e+00
  -1.047875e+02  -9.707378e+01
  -7.409869e+00  -1.809768e+02
   1.502756e+02  -1.559440e+02
   2.479364e+02  -6.678302e+00
   1.975176e+02   1.688719e+02
   3.365400e+01   2.401166e+02
  -1.104851e+02   1.652835e+02
  -1.363202e+02   2.860889e+01
  -7.551070e+01  -4.952805e+01
  -3.392077e+01  -3.216724e+01
  -5.807189e+01   1.331310e+01
  -9.051441e+01   4.980161e+00
  -5.522457e+01  -6.041353e+01
   4.495838e+01  -1.073705e+02
   1.271212e+02  -6.573082e+01
   1.074287e+02   4.821024e+01
  -2.119729e+01   1.323789e+02
  -1.701328e+02   8.901893e+01
  -2.116498e+02  -7.194747e+01
  -8.497632e+01  -2.225151e+02
   1.332043e+02  -2.284471e+02
   2.804966e+02  -7.992057e+01
   2.537473e+02   9.956119e+01
   1.000204e+02   1.793004e+02
  -4.486220e+01   1.436866e+02
  -9.479357e+01   8.161375e+01
  -7.553278e+01   7.118114e+01
  -6.425500e+01   9.676828e+01
  -9.645439e+01   8.013651e+01
  -1.363742e+02  -2.264715e+01
  -1.202642e+02  -1.631070e+02
  -2.256845e+01  -2.354733e+02
   1.081752e+02  -1.715545e+02
   1.778474e+02  -8.967818e+00
   1.295479e+02   1.345148e+02
   7.128208e+00   1.629770e+02
  -7.914760e+01   8.349897e+01
  -6.421526e+01  -1.443018e+01
   4.412486e+00  -5.405508e+01
   2.651244e+01  -3.619381e+01
  -2.960553e+01  -1.372555e+01
  -8.704136e+01  -2.135873e+01
  -5.045481e+01  -4.292302e+01
   7.603373e+01  -3.922359e+01
   1.786527e+02   6.051616e+00
   1.483166e+02   6.810926e+01
  -1.154477e+00   1.002761e+02
  -1.400025e+02   7.287558e+01
  -1.513656e+02   3.084495e+00
  -4.516966e+01  -5.209069e+01
   6.370358e+01  -4.344190e+01
   8.072175e+01   2.080694e+01
   1.652838e+01   7.690219e+01
  -5.100397e+01   6.695031e+01
  -7.105747e+01   3.460944e-01
  -5.735321e+01  -5.444829e+01
  -4.842979e+01  -4.625458e+01
  -5.843167e+01  -3.031423e+00
  -6.776251e+01  -2.531658e+00
  -4.334752e+01  -7.622399e+01
   3.245576e+01  -1.579145e+02
   1.331565e+02  -1.483304e+02
   1.868590e+02  -3.028647e+01
   1.329815e+02   1.015165e+02
  -4.635828e-01   1.377920e+02
  -9.752832e+01   6.900249e+01
  -6.455018e+01  -1.309657e+01
   6.105640e+01  -2.017239e+01
   1.386625e+02   4.623253e+01
   7.155533e+01   1.120024e+02
  -8.894303e+01   1.116559e+02
  -1.972737e+02   4.230711e+01
  -1.620300e+02  -4.501651e+01
  -3.062101e+01  -8.906225e+01
   6.742884e+01  -6.296589e+01
   5.023800e+01   1.279102e+00
  -4.239486e+01   3.091477e+01
  -9.595072e+01  -2.249733e+01
  -3.862969e+01  -1.215891e+02
   8.666857e+01  -1.608920e+02
   1.665774e+02  -6.993233e+01
   1.302004e+02   9.813871e+01
   1.294693e+01   2.006767e+02
  -8.810878e+01   1.448085e+02
  -1.075370e+02  -1.339521e+01
  -5.517395e+01  -1.254770e+02
   1.426336e+01  -1.064693e+02
   5.297400e+01  -1.464416e+01
   4.722668e+01   3.410825e+01
   1.855144e+01   7.893396e+00
   6.144066e+00  -1.839661e+01
   2.961123e+01   2.216972e+01
   5.783308e+01   9.448517e+01
   3.258773e+01   1.098590e+02
  -5.758262e+01   4.290290e+01
  -1.404393e+02  -4.146007e+01
  -1.269399e+02  -7.431356e+01
  -1.781396e+01  -5.515928e+01
   8.508284e+01  -2.510464e+01
   8.994900e+01  -4.556988e+00
   1.682915e+01   1.203006e+01
  -3.660038e+01   2.184272e+01
  -1.955377e+01   1.342820e+01
   1.639442e+01  -3.720087e+00
  -3.363014e+00  -6.201948e+00
  -7.027897e+01  -4.209047e-01
  -9.608751e+01  -2.433736e+01
  -1.952422e+01  -8.483445e+01
   1.148788e+02  -1.209314e+02
   1.963723e+02  -6.512682e+01
   1.567255e+02   6.454292e+01
   3.049527e+01   1.663933e+02
  -8.582169e+01   1.592328e+02
  -1.221249e+02   6.551709e+01
  -8.347877e+01  -2.136693e+01
  -2.663383e+01  -3.959281e+01
  -1.504919e+00  -1.325593e+01
  -1.364574e+01  -8.571396e+00
  -3.083932e+01  -5.098170e+01
  -1.760263e+01  -9.458684e+01
   3.150176e+01  -7.407362e+01
   8.164313e+01   1.701550e+01
   8.148835e+01   1.074976e+02
   1.212318e+01   1.153240e+02
  -7.931850e+01   3.159361e+01
  -1.089114e+02  -7.008400e+01
  -3.938946e+01  -1.078180e+02
   6.780305e+01  -6.504757e+01
   1.071996e+02   9.987563e+00
   4.566245e+01   6.014986e+01
  -3.658596e+01   6.227772e+01
  -4.102094e+01   2.939363e+01
   2.838438e+01  -5.383944e+00
   7.124878e+01  -8.157609e+00
   1.821037e+01   2.838683e+01
  -8.241810e+01   6.703141e+01
  -1.254798e+02   5.404450e+01
  -7.262042e+01  -1.817789e+01
   1.552821e+01  -8.798211e+01
   6.083682e+01  -8.494140e+01
   4.612426e+01  -1.161023e+01
   6.254510e+00   5.497734e+01
  -2.555343e+01   4.919288e+01
  -3.830763e+01  -1.215354e+01
  -2.876671e+01  -5.627911e+01
   1.714627e+00  -4.049516e+01
   3.466949e+01   6.051117e+00
   4.285517e+01   2.640714e+01
   2.143024e+01   4.851701e+00
  -3.197444e+00  -2.006550e+01
  -6.487975e+00  -7.390404e+00
   2.431120e+00   3.404719e+01
  -4.071826e+00   5.410935e+01
  -2.930558e+01   2.077807e+01
  -4.101155e+01  -3.834529e+01
  -1.081816e+01  -6.278031e+01
   4.281933e+01  -2.578263e+01
   6.416911e+01   3.596400e+01
   1.917660e+01   6.338346e+01
  -5.932029e+01   3.651253e+01
  -9.635583e+01  -1.351580e+01
  -5.219252e+01  -4.565663e+01
   3.039393e+01  -4.643328e+01
   6.835330e+01  -2.767955e+01
   2.963283e+01  -6.493057e+00
  -3.082526e+01   2.731694e+00
  -3.554487e+01  -8.064665e+00
   2.513492e+01  -2.706227e+01
   8.321062e+01  -2.121836e+01
