
 $NMID
 id='ANONYMOUS ', fmtdat='(2E16.6)'
 volume=1.0
 tramp=1.0
 $END
   4.246277e+03  -3.834382e+01
   2.566445e+03   2.464000e+03
  -5.604167e+02   2.709721e+03
  -1.992151e+03   1.034231e+03
  -1.006839e+03  -4.751119e+02
   5.065366e+02  -5.275631e+02
   8.084297e+02   3.587512e+02
   1.942220e+01   9.871590e+02
  -7.662028e+02   7.732750e+02
  -9.106049e+02  -4.854099e+01
  -4.723682e+02  -8.128865e+02
   1.860479e+02  -8.744676e+02
   5.849598e+02  -1.454006e+02
   3.746625e+02   6.725514e+02
  -2.384216e+02   7.347596e+02
  -5.863942e+02   1.901586e+01
  -2.956100e+02  -6.639086e+02
   2.882367e+02  -6.634623e+02
   5.844335e+02  -1.434966e+02
   4.215644e+02   3.247130e+02
   4.777704e+01   4.393662e+02
  -2.217972e+02   2.734861e+02
  -1.886736e+02   3.671487e+01
   1.298013e+02  -4.348167e+01
   3.871252e+02   1.533208e+02
   1.570174e+02   4.256192e+02
  -4.738686e+02   3.683529e+02
  -8.210687e+02  -9.847829e+01
  -4.025472e+02  -5.204489e+02
   3.838532e+02  -4.374596e+02
   7.140902e+02   5.341164e+01
   3.263184e+02   4.684947e+02
  -2.839982e+02   4.992424e+02
  -5.600705e+02   1.958514e+02
  -4.126513e+02  -2.176971e+02
  -8.175262e+01  -4.548154e+02
   1.638203e+02  -2.766397e+02
   1.318888e+02   1.898576e+02
  -1.675318e+02   3.879857e+02
  -4.027584e+02  -4.170891e+01
  -2.054857e+02  -6.577171e+02
   3.073975e+02  -6.708591e+02
   5.632601e+02  -1.173149e+01
   2.448209e+02   5.158063e+02
  -2.644977e+02   2.944764e+02
  -3.529404e+02  -3.176276e+02
   7.571046e+01  -5.299941e+02
   5.478957e+02  -1.270308e+02
   5.933800e+02   4.101563e+02
   1.732987e+02   5.864605e+02
  -3.745770e+02   3.442863e+02
  -6.277426e+02  -7.014725e+01
  -3.855773e+02  -3.663907e+02
   1.298720e+02  -3.505149e+02
   4.251963e+02  -7.001125e+01
   2.511472e+02   1.635571e+02
  -9.084297e+01   9.617561e+01
  -1.313248e+02  -1.320756e+02
   1.514797e+02  -1.673106e+02
   3.344225e+02   6.618977e+01
   1.473149e+02   2.859639e+02
  -1.992701e+02   2.681640e+02
  -3.484790e+02   9.031238e+01
  -2.190000e+02  -9.354728e+01
   2.855105e+01  -2.537459e+02
   2.460186e+02  -3.438879e+02
   3.538834e+02  -2.128259e+02
   2.884318e+02   1.444471e+02
   7.909918e+01   4.330547e+02
  -9.795688e+01   3.864807e+02
  -1.046493e+02   1.344496e+02
  -3.182181e+01   1.493356e+01
  -6.661516e+01   9.362344e+01
  -2.112784e+02   1.164661e+02
  -2.781584e+02  -6.730782e+01
  -1.511574e+02  -2.742364e+02
   7.629346e+01  -2.512701e+02
   2.258737e+02  -1.601234e+00
   1.915460e+02   2.472844e+02
  -1.651739e+01   2.939375e+02
  -2.690142e+02   1.102492e+02
  -3.620031e+02  -1.712395e+02
  -1.924231e+02  -3.503063e+02
   8.938222e+01  -3.104963e+02
   2.221922e+02  -1.359684e+02
   1.579716e+02  -2.302406e+01
   1.147406e+02  -4.224209e+01
   2.501435e+02  -5.987716e+01
   4.147788e+02   6.668244e+01
   3.406469e+02   2.954729e+02
  -5.732685e+00   4.549362e+02
  -3.743133e+02   4.228785e+02
  -5.002791e+02   2.030655e+02
  -3.363372e+02  -9.520809e+01
  -5.089368e+01  -2.931590e+02
   1.238136e+02  -2.508656e+02
   6.926016e+01  -3.495276e+01
  -1.129762e+02   9.665384e+01
  -1.878019e+02  -1.048166e+01
  -4.524353e+01  -1.896953e+02
   1.547894e+02  -1.653194e+02
   1.708444e+02   5.822957e+01
  -1.782611e+01   1.860836e+02
  -1.929398e+02   2.846764e+01
  -1.676303e+02  -2.525100e+02
   2.896496e+01  -3.596210e+02
   2.406519e+02  -2.022528e+02
   3.434128e+02   6.496298e+01
   2.861277e+02   2.507070e+02
   9.037301e+01   2.730091e+02
  -1.195170e+02   1.608842e+02
  -1.772550e+02   1.959492e+01
  -5.635602e+01  -2.851799e+01
   6.741744e+01   4.416328e+01
   2.390713e+01   1.257916e+02
  -1.269758e+02   9.629375e+01
  -1.774312e+02  -1.478041e+01
  -5.516918e+01  -7.038071e+01
   8.224025e+01  -1.089589e+01
   5.290262e+01   7.917298e+01
  -1.325240e+02   8.901885e+01
  -2.937988e+02  -5.263819e+00
  -2.689932e+02  -1.499329e+02
  -5.521053e+01  -2.631457e+02
   1.934996e+02  -2.628989e+02
   2.881926e+02  -1.252867e+02
   1.692275e+02   5.054966e+01
  -2.513830e+01   1.066286e+02
  -8.802426e+01   6.972565e+00
   3.709956e+01  -9.980737e+01
   1.987664e+02  -5.675441e+01
   2.152383e+02   1.046225e+02
   7.008351e+01   2.098777e+02
  -9.509298e+01   1.589902e+02
  -1.443399e+02   2.846217e+01
  -6.807723e+01  -4.091865e+01
   3.094981e+01   2.299319e+00
   3.581953e+01   9.065778e+01
  -7.869124e+01   1.165946e+02
  -2.056800e+02   2.656061e+01
  -1.952656e+02  -1.282772e+02
  -2.082761e+01  -2.222905e+02
   1.670248e+02  -1.673047e+02
   1.964771e+02  -8.816244e+00
   6.644393e+01   1.137087e+02
  -6.695986e+01   1.123009e+02
  -8.306041e+01   3.113708e+01
  -1.565768e+01  -2.603762e+01
   2.511591e+01  -1.676993e+01
  -1.027811e+01   1.199735e+01
  -7.676646e+01  -6.901973e+00
  -9.412902e+01  -8.625627e+01
  -1.469613e+01  -1.659014e+02
   1.324000e+02  -1.566449e+02
   2.403804e+02  -2.403119e+01
   2.057829e+02   1.548370e+02
   4.335932e+01   2.419909e+02
  -1.096757e+02   1.734696e+02
  -1.386647e+02   2.955555e+01
  -7.395206e+01  -5.477076e+01
  -3.086721e+01  -3.557495e+01
  -5.538998e+01   1.309274e+01
  -8.364597e+01   6.763871e+00
  -4.605471e+01  -5.293640e+01
   4.311360e+01  -9.434175e+01
   1.095925e+02  -5.923865e+01
   9.220865e+01   3.852149e+01
  -1.468766e+01   1.173164e+02
  -1.497303e+02   8.907052e+01
  -2.039752e+02  -5.470402e+01
  -1.004679e+02  -2.083059e+02
   1.118010e+02  -2.332745e+02
   2.735610e+02  -9.690407e+01
   2.622378e+02   8.776953e+01
   1.114549e+02   1.793999e+02
  -3.929863e+01   1.496099e+02
  -9.555316e+01   8.618484e+01
  -7.930980e+01   7.207325e+01
  -6.661402e+01   9.464407e+01
  -9.433080e+01   7.768114e+01
  -1.325587e+02  -2.144155e+01
  -1.216255e+02  -1.577232e+02
  -3.059554e+01  -2.318161e+02
   1.008886e+02  -1.759820e+02
   1.787898e+02  -1.999221e+01
   1.382619e+02   1.254346e+02
   1.826577e+01   1.629058e+02
  -7.026626e+01   9.237313e+01
  -6.194134e+01  -2.439157e+00
  -2.945513e+00  -4.596200e+01
   1.424666e+01  -3.538271e+01
  -3.540117e+01  -1.700445e+01
  -8.263099e+01  -2.213621e+01
  -4.710841e+01  -3.962650e+01
   6.740304e+01  -3.845406e+01
   1.652244e+02  -2.007830e+00
   1.469254e+02   5.487332e+01
   1.223581e+01   9.238978e+01
  -1.264623e+02   7.580490e+01
  -1.486681e+02   1.246995e+01
  -4.867231e+01  -4.378966e+01
   6.167047e+01  -4.007704e+01
   7.841536e+01   1.904354e+01
   1.060341e+01   7.158830e+01
  -5.494295e+01   6.164682e+01
  -6.625488e+01  -9.804739e-01
  -4.852334e+01  -5.166669e+01
  -4.567988e+01  -4.324465e+01
  -6.152925e+01  -1.904947e+00
  -6.751179e+01  -5.180707e-01
  -3.829209e+01  -7.053640e+01
   3.195076e+01  -1.510980e+02
   1.209067e+02  -1.458470e+02
   1.717960e+02  -3.424500e+01
   1.281545e+02   9.388546e+01
   6.007613e+00   1.306750e+02
  -8.957290e+01   6.495278e+01
  -6.210984e+01  -1.419051e+01
   6.024259e+01  -2.093522e+01
   1.401486e+02   4.341320e+01
   7.695092e+01   1.092218e+02
  -8.273147e+01   1.145352e+02
  -1.946612e+02   5.216916e+01
  -1.650987e+02  -3.542341e+01
  -3.705613e+01  -8.809451e+01
   6.263763e+01  -7.000065e+01
   4.989913e+01  -5.801087e+00
  -3.995912e+01   2.864161e+01
  -9.340280e+01  -2.194200e+01
  -3.603527e+01  -1.207723e+02
   8.994411e+01  -1.590566e+02
   1.689808e+02  -6.684249e+01
   1.304021e+02   1.000637e+02
   1.310595e+01   2.010134e+02
  -8.591599e+01   1.472107e+02
  -1.068276e+02  -7.427294e+00
  -6.128720e+01  -1.208226e+02
   3.821466e+00  -1.079221e+02
   4.801088e+01  -1.951154e+01
   5.187075e+01   3.180292e+01
   2.458349e+01   8.228308e+00
   4.314640e+00  -2.035631e+01
   2.318497e+01   1.691729e+01
   5.782001e+01   9.072557e+01
   4.138631e+01   1.105819e+02
  -4.969735e+01   4.564141e+01
  -1.411397e+02  -3.923257e+01
  -1.317026e+02  -7.156378e+01
  -1.829931e+01  -5.159135e+01
   8.831496e+01  -2.406566e+01
   8.991348e+01  -7.826469e+00
   1.248694e+01   8.566166e+00
  -3.842020e+01   2.291440e+01
  -1.544643e+01   1.735866e+01
   2.046729e+01  -2.311766e+00
  -5.335681e+00  -8.435163e+00
  -7.439629e+01  -2.430857e+00
  -9.408319e+01  -2.356725e+01
  -1.190094e+01  -8.250894e+01
   1.183494e+02  -1.184108e+02
   1.902574e+02  -6.228446e+01
   1.478079e+02   6.657760e+01
   2.855361e+01   1.650542e+02
  -8.056420e+01   1.547121e+02
  -1.172201e+02   6.185130e+01
  -8.255596e+01  -2.115341e+01
  -2.589307e+01  -3.669776e+01
   1.908591e+00  -1.000311e+01
  -1.115988e+01  -5.158194e+00
  -3.330760e+01  -4.726436e+01
  -2.247855e+01  -9.204590e+01
   2.957745e+01  -7.337073e+01
   8.248059e+01   1.774025e+01
   8.003111e+01   1.089460e+02
   7.125678e+00   1.144680e+02
  -8.257200e+01   2.670377e+01
  -1.064475e+02  -7.434318e+01
  -3.502627e+01  -1.057096e+02
   6.730786e+01  -5.913878e+01
   1.014920e+02   1.090327e+01
   4.152436e+01   5.333735e+01
  -3.382528e+01   5.519190e+01
  -3.384715e+01   2.895637e+01
   3.314467e+01  -2.013305e+00
   7.062150e+01  -7.670340e+00
   1.606215e+01   2.612891e+01
  -8.046509e+01   6.766847e+01
  -1.188921e+02   5.903686e+01
  -6.676781e+01  -1.320864e+01
   1.532648e+01  -8.538568e+01
   5.500222e+01  -8.204200e+01
   3.971562e+01  -7.348978e+00
   3.114017e+00   5.639650e+01
  -2.575765e+01   4.513269e+01
  -3.753330e+01  -1.676844e+01
  -2.780098e+01  -5.503755e+01
   2.425425e+00  -3.514391e+01
   3.399641e+01   7.798219e+00
   4.102364e+01   2.234628e+01
   2.100794e+01   1.878523e+00
  -1.366634e+00  -1.579421e+01
  -6.659125e+00   5.154232e-01
  -4.106667e+00   3.655456e+01
  -1.341080e+01   4.787238e+01
  -3.201272e+01   1.131449e+01
  -3.371947e+01  -4.379747e+01
  -1.553044e+00  -6.231415e+01
   4.462171e+01  -2.245919e+01
   5.940205e+01   3.859780e+01
   1.628713e+01   6.387726e+01
  -5.640502e+01   3.535889e+01
  -9.187373e+01  -1.459963e+01
  -5.072631e+01  -4.466099e+01
   2.932182e+01  -4.281976e+01
   6.637364e+01  -2.360089e+01
   2.583466e+01  -5.401498e+00
  -3.617819e+01  -6.546710e-01
  -3.784671e+01  -1.370243e+01
   2.941216e+01  -3.087680e+01
   9.018290e+01  -2.109622e+01
