
 $NMID
 id='ANONYMOUS ', fmtdat='(2E16.6)'
 volume=1.0
 tramp=1.0
 $END
   3.108107e+03   5.097158e+00
   2.088718e+03   1.537193e+03
   7.814981e+01   1.972934e+03
  -1.154175e+03   1.267614e+03
  -9.419186e+02   2.723004e+02
  -9.158221e+01  -1.740377e+02
   3.278617e+02   6.754854e+01
   6.627995e+01   5.038651e+02
  -4.094764e+02   5.645117e+02
  -6.167503e+02   1.084990e+02
  -4.322042e+02  -4.725007e+02
  -3.231572e+01  -6.259724e+02
   2.738325e+02  -1.957175e+02
   2.394824e+02   3.843081e+02
  -9.536978e+01   5.226920e+02
  -3.846683e+02   9.134288e+01
  -3.030631e+02  -4.624960e+02
   1.011725e+02  -6.169335e+02
   4.519843e+02  -2.916583e+02
   4.438886e+02   1.559579e+02
   1.431845e+02   3.506355e+02
  -1.088014e+02   2.441961e+02
  -6.096632e+01   8.449260e+01
   1.817676e+02   1.081759e+02
   2.621083e+02   2.815484e+02
  -2.779130e+01   3.494800e+02
  -4.613349e+02   1.454885e+02
  -5.787686e+02  -1.876961e+02
  -2.070595e+02  -3.417788e+02
   3.099640e+02  -1.816137e+02
   4.768436e+02   1.331824e+02
   1.770615e+02   3.474395e+02
  -2.542969e+02   3.340771e+02
  -4.383828e+02   1.241266e+02
  -3.116154e+02  -1.500818e+02
  -8.598506e+01  -2.939441e+02
   1.831600e+01  -1.757811e+02
  -5.024480e+01   7.948059e+01
  -1.755496e+02   1.389904e+02
  -1.839672e+02  -1.446932e+02
  -2.780780e+00  -4.713475e+02
   2.380116e+02  -4.177071e+02
   3.040333e+02  -2.114574e+00
   1.127761e+02   2.931331e+02
  -1.378703e+02   1.279219e+02
  -1.591991e+02  -2.609839e+02
   1.119281e+02  -3.710623e+02
   4.281048e+02  -5.225233e+01
   4.698406e+02   3.604423e+02
   1.533948e+02   4.797492e+02
  -2.863527e+02   2.589486e+02
  -5.002436e+02  -5.922684e+01
  -3.331805e+02  -2.368526e+02
   3.671946e+01  -2.149014e+02
   2.723941e+02  -8.586688e+01
   2.125933e+02   1.591475e+01
   1.737885e+01   1.803609e+01
  -4.272164e+01  -3.905151e+01
   9.143023e+01  -4.951129e+01
   2.150821e+02   4.300943e+01
   1.225974e+02   1.808249e+02
  -1.434345e+02   2.415221e+02
  -3.371279e+02   1.407530e+02
  -2.674272e+02  -9.547094e+01
   1.954303e+01  -3.239241e+02
   2.962410e+02  -3.646625e+02
   3.656180e+02  -1.539816e+02
   2.262122e+02   1.629997e+02
   4.486081e+01   3.473607e+02
  -2.950284e+01   3.063369e+02
  -1.318906e+01   1.729436e+02
  -3.287711e+01   1.135519e+02
  -1.434437e+02   1.169417e+02
  -2.516909e+02   4.758774e+01
  -2.338295e+02  -1.255463e+02
  -8.152281e+01  -2.529379e+02
   9.732467e+01  -1.831984e+02
   1.843504e+02   4.642069e+01
   1.256101e+02   2.410323e+02
  -5.211512e+01   2.408005e+02
  -2.406903e+02   5.475612e+01
  -2.960793e+02  -1.714786e+02
  -1.621270e+02  -2.885430e+02
   4.735400e+01  -2.559773e+02
   1.582676e+02  -1.530867e+02
   1.435927e+02  -8.474447e+01
   1.499954e+02  -7.075202e+01
   2.780096e+02  -3.393995e+01
   4.050453e+02   9.865616e+01
   3.124025e+02   2.953232e+02
  -2.839470e+01   4.295205e+02
  -3.787456e+02   3.864258e+02
  -4.705036e+02   1.658460e+02
  -2.762560e+02  -1.013513e+02
  -1.370939e+01  -2.428209e+02
   8.999785e+01  -1.871711e+02
   4.696481e+00  -3.618457e+01
  -1.171959e+02   3.248816e+01
  -1.214459e+02  -4.172126e+01
  -2.327670e+00  -1.342539e+02
   1.117074e+02  -9.464721e+01
   9.993940e+01   5.222576e+01
  -3.057870e+01   1.223312e+02
  -1.552530e+02  -4.523683e+00
  -1.461559e+02  -2.298907e+02
   1.977767e+01  -3.346447e+02
   2.393882e+02  -2.055347e+02
   3.551215e+02   6.105000e+01
   2.743029e+02   2.625748e+02
   5.475288e+01   2.729162e+02
  -1.299833e+02   1.353841e+02
  -1.457733e+02   2.589248e+00
  -3.123234e+01  -1.236614e+01
   4.819779e+01   6.381447e+01
  -8.670839e+00   1.112520e+02
  -1.232920e+02   6.063509e+01
  -1.406519e+02  -2.988768e+01
  -2.669458e+01  -5.289900e+01
   8.202302e+01   1.661245e+01
   3.575183e+01   9.535476e+01
  -1.507034e+02   8.677286e+01
  -3.008009e+02  -2.579086e+01
  -2.524598e+02  -1.740736e+02
  -2.141984e+01  -2.613611e+02
   2.099405e+02  -2.259956e+02
   2.637248e+02  -8.888433e+01
   1.306209e+02   4.605873e+01
  -3.152011e+01   7.262061e+01
  -5.993206e+01  -7.693184e+00
   5.633885e+01  -7.619811e+01
   1.812944e+02  -2.739588e+01
   1.804415e+02   1.043664e+02
   5.128391e+01   1.824719e+02
  -8.781401e+01   1.292193e+02
  -1.205315e+02   1.338242e+01
  -4.132245e+01  -3.586966e+01
   4.457443e+01   2.459775e+01
   2.542801e+01   1.131452e+02
  -1.006197e+02   1.176785e+02
  -2.110164e+02   8.696511e+00
  -1.774618e+02  -1.363157e+02
  -6.900046e+00  -2.044062e+02
   1.538063e+02  -1.445167e+02
   1.684232e+02  -9.864568e+00
   5.152864e+01   9.045372e+01
  -6.074169e+01   9.021625e+01
  -6.685859e+01   2.247059e+01
   1.991220e+00  -2.464393e+01
   3.963442e+01  -7.195001e+00
  -8.368919e+00   2.830088e+01
  -9.043455e+01   3.601354e+00
  -1.067863e+02  -9.259052e+01
  -9.590003e+00  -1.771793e+02
   1.450344e+02  -1.513948e+02
   2.370946e+02  -5.658168e+00
   1.871739e+02   1.599239e+02
   3.381210e+01   2.241036e+02
  -9.981550e+01   1.545174e+02
  -1.260920e+02   3.018952e+01
  -7.273564e+01  -4.176683e+01
  -3.400581e+01  -2.744230e+01
  -5.537827e+01   1.442214e+01
  -8.815578e+01   6.829209e+00
  -5.831718e+01  -5.811510e+01
   3.923852e+01  -1.083144e+02
   1.253140e+02  -6.941216e+01
   1.099438e+02   4.585407e+01
  -1.829413e+01   1.323318e+02
  -1.667476e+02   8.959378e+01
  -2.053402e+02  -6.913067e+01
  -7.968326e+01  -2.140068e+02
   1.288243e+02  -2.172235e+02
   2.652420e+02  -7.548303e+01
   2.377310e+02   9.220549e+01
   9.365140e+01   1.660446e+02
  -4.094310e+01   1.336978e+02
  -8.654300e+01   7.713777e+01
  -6.713181e+01   6.834939e+01
  -5.630468e+01   9.354445e+01
  -8.909753e+01   7.927023e+01
  -1.305276e+02  -1.769056e+01
  -1.172432e+02  -1.522642e+02
  -2.438005e+01  -2.225694e+02
   1.002988e+02  -1.624778e+02
   1.668753e+02  -8.284182e+00
   1.218894e+02   1.273197e+02
   6.135276e+00   1.534529e+02
  -7.658521e+01   7.698704e+01
  -6.245080e+01  -1.721254e+01
   5.586914e+00  -5.509777e+01
   2.957195e+01  -3.582188e+01
  -2.526947e+01  -1.082387e+01
  -8.434849e+01  -1.693064e+01
  -5.035768e+01  -4.020130e+01
   7.426211e+01  -3.985973e+01
   1.746537e+02   3.571219e+00
   1.425935e+02   6.582175e+01
  -4.051365e+00   9.864040e+01
  -1.358647e+02   7.182703e+01
  -1.438046e+02   2.981185e+00
  -4.272472e+01  -5.170648e+01
   5.931369e+01  -4.430764e+01
   7.755646e+01   1.791042e+01
   2.081613e+01   7.387254e+01
  -4.379648e+01   6.657927e+01
  -6.887431e+01   3.265286e+00
  -5.971447e+01  -5.026477e+01
  -4.825539e+01  -4.328617e+01
  -5.354346e+01  -1.875429e+00
  -6.391415e+01  -1.363502e+00
  -4.558380e+01  -7.269151e+01
   2.577729e+01  -1.524007e+02
   1.263538e+02  -1.449316e+02
   1.818469e+02  -3.279788e+01
   1.304526e+02   9.478676e+01
   8.857325e-01   1.330772e+02
  -9.307765e+01   6.993464e+01
  -6.205395e+01  -9.785129e+00
   5.716033e+01  -2.037676e+01
   1.309512e+02   4.082779e+01
   6.800555e+01   1.046986e+02
  -8.337119e+01   1.063662e+02
  -1.857590e+02   4.088821e+01
  -1.524953e+02  -4.229317e+01
  -2.832904e+01  -8.354714e+01
   6.414461e+01  -5.800695e+01
   4.776049e+01   3.069735e+00
  -3.992329e+01   3.144613e+01
  -9.194454e+01  -1.847758e+01
  -4.102045e+01  -1.132604e+02
   7.508798e+01  -1.541918e+02
   1.530479e+02  -7.174400e+01
   1.248304e+02   8.748863e+01
   1.782177e+01   1.878518e+02
  -7.971786e+01   1.374559e+02
  -1.020048e+02  -1.225295e+01
  -5.278542e+01  -1.187402e+02
   1.532764e+01  -1.002670e+02
   5.192010e+01  -1.326242e+01
   4.325797e+01   3.201209e+01
   1.478342e+01   7.065439e+00
   6.212316e+00  -1.662813e+01
   3.175743e+01   2.206242e+01
   5.722255e+01   8.879947e+01
   2.956333e+01   1.023525e+02
  -5.668730e+01   4.109029e+01
  -1.328177e+02  -3.597335e+01
  -1.192081e+02  -6.767916e+01
  -1.828224e+01  -5.297237e+01
   7.756501e+01  -2.631201e+01
   8.450764e+01  -5.324408e+00
   1.838465e+01   1.218964e+01
  -3.293441e+01   2.094585e+01
  -2.012742e+01   1.155297e+01
   1.328530e+01  -4.391572e+00
  -2.278582e+00  -4.787663e+00
  -6.392957e+01   2.332376e+00
  -9.188235e+01  -2.033314e+01
  -2.448355e+01  -7.972892e+01
   1.025850e+02  -1.178025e+02
   1.851760e+02  -6.846135e+01
   1.530488e+02   5.461575e+01
   3.439426e+01   1.558343e+02
  -7.820124e+01   1.543633e+02
  -1.148530e+02   6.701350e+01
  -7.942059e+01  -1.770713e+01
  -2.665258e+01  -3.772005e+01
  -3.586103e+00  -1.373442e+01
  -1.442078e+01  -9.117181e+00
  -2.946464e+01  -4.886101e+01
  -1.709140e+01  -8.975752e+01
   2.830821e+01  -7.087786e+01
   7.669046e+01   1.333481e+01
   8.018161e+01   9.780147e+01
   1.709206e+01   1.080210e+02
  -7.173661e+01   3.404817e+01
  -1.051612e+02  -6.051407e+01
  -4.224451e+01  -1.008178e+02
   6.167172e+01  -6.581497e+01
   1.035467e+02   5.538258e+00
   4.692818e+01   5.811837e+01
  -3.344647e+01   6.300234e+01
  -4.101192e+01   2.938703e+01
   2.405628e+01  -7.181522e+00
   6.691330e+01  -9.968760e+00
   1.904940e+01   2.706245e+01
  -7.639544e+01   6.510079e+01
  -1.196206e+02   5.236366e+01
  -7.172887e+01  -1.697994e+01
   1.199543e+01  -8.426689e+01
   5.724625e+01  -8.317967e+01
   4.573348e+01  -1.459575e+01
   8.845915e+00   5.057897e+01
  -2.224486e+01   4.880917e+01
  -3.640731e+01  -8.092573e+00
  -2.914479e+01  -5.253116e+01
  -1.950437e-01  -4.053850e+01
   3.293400e+01   3.823874e+00
   4.208085e+01   2.536286e+01
   2.062503e+01   5.313445e+00
  -4.684229e+00  -2.064793e+01
  -6.675779e+00  -1.048044e+01
   6.191825e+00   3.033484e+01
   2.483677e+00   5.330704e+01
  -2.509512e+01   2.464283e+01
  -4.271607e+01  -3.183268e+01
  -1.634368e+01  -5.830788e+01
   3.841480e+01  -2.689167e+01
   6.335923e+01   3.040338e+01
   2.115216e+01   5.854841e+01
  -5.594013e+01   3.668753e+01
  -9.288281e+01  -9.152829e+00
  -5.105064e+01  -4.174282e+01
   2.749397e+01  -4.622089e+01
   6.406484e+01  -2.997800e+01
   2.935388e+01  -7.677550e+00
  -2.614393e+01   4.735354e+00
  -3.219047e+01  -4.029092e+00
   2.102329e+01  -2.408455e+01
   7.421209e+01  -2.196414e+01
