
 $NMID
 id='ANONYMOUS ', fmtdat='(2E16.6)'
 volume=1.0
 tramp=1.0
 $END
  -3.655477e+03  -8.206720e+01
  -2.194714e+03  -2.036895e+03
   3.448443e+02  -2.238410e+03
   1.534360e+03  -1.008305e+03
   8.467403e+02   1.440456e+02
  -2.873955e+02   2.842225e+02
  -5.475030e+02  -2.859025e+02
   1.782182e+01  -7.502415e+02
   6.142868e+02  -6.231542e+02
   7.393210e+02   1.098701e+01
   4.042754e+02   6.461124e+02
  -1.128198e+02   7.161619e+02
  -4.287607e+02   1.251178e+02
  -2.754304e+02  -5.472843e+02
   1.917954e+02  -6.077398e+02
   4.743848e+02  -2.790103e+01
   2.707784e+02   5.549865e+02
  -1.983254e+02   6.015654e+02
  -4.879568e+02   1.905832e+02
  -3.986460e+02  -2.349847e+02
  -7.990055e+01  -3.746968e+02
   1.683296e+02  -2.400783e+02
   1.223806e+02  -3.950245e+01
  -1.695444e+02  -1.097668e+01
  -3.454957e+02  -2.145591e+02
  -7.114154e+01  -4.066175e+02
   4.821673e+02  -2.707750e+02
   7.113574e+02   1.555878e+02
   2.913248e+02   4.536992e+02
  -3.730719e+02   3.135569e+02
  -6.074559e+02  -1.088785e+02
  -2.442862e+02  -4.215400e+02
   2.799671e+02  -4.162144e+02
   5.007291e+02  -1.512268e+02
   3.520743e+02   1.916676e+02
   6.447781e+01   3.727611e+02
  -1.091512e+02   2.076067e+02
  -3.894425e+01  -1.634912e+02
   1.968679e+02  -2.770962e+02
   3.161284e+02   1.094372e+02
   9.806447e+01   5.880296e+02
  -2.965442e+02   5.407224e+02
  -4.403629e+02  -2.218301e+01
  -1.579209e+02  -4.239835e+02
   2.242569e+02  -2.020572e+02
   2.588155e+02   3.080424e+02
  -1.037145e+02   4.551333e+02
  -4.912632e+02   8.322591e+01
  -5.239663e+02  -3.864074e+02
  -1.535304e+02  -5.252109e+02
   3.341778e+02  -2.916817e+02
   5.559822e+02   7.245336e+01
   3.391692e+02   3.034771e+02
  -1.019434e+02   2.721466e+02
  -3.458138e+02   5.863504e+01
  -2.084309e+02  -9.912504e+01
   5.331829e+01  -4.622074e+01
   7.893010e+01   1.006618e+02
  -1.369819e+02   1.069645e+02
  -2.726960e+02  -6.703193e+01
  -1.216866e+02  -2.352492e+02
   1.699085e+02  -2.441742e+02
   3.246392e+02  -1.125819e+02
   2.345537e+02   8.086697e+01
  -9.412966e+00   2.746502e+02
  -2.510869e+02   3.539782e+02
  -3.538060e+02   1.896349e+02
  -2.592747e+02  -1.525812e+02
  -5.677269e+01  -3.886636e+02
   7.236912e+01  -3.332918e+02
   5.567544e+01  -1.345848e+02
   1.638362e+01  -5.616250e+01
   9.162278e+01  -1.131266e+02
   2.303229e+02  -9.388426e+01
   2.614113e+02   9.168000e+01
   1.190631e+02   2.653506e+02
  -8.891372e+01   2.200315e+02
  -2.091783e+02  -2.095476e+01
  -1.616232e+02  -2.442336e+02
   3.401564e+01  -2.688733e+02
   2.559109e+02  -8.409125e+01
   3.268662e+02   1.703469e+02
   1.706717e+02   3.158533e+02
  -7.243247e+01   2.739732e+02
  -1.844076e+02   1.331784e+02
  -1.378202e+02   4.841404e+01
  -1.211218e+02   5.997395e+01
  -2.573502e+02   5.554711e+01
  -4.045088e+02  -7.279026e+01
  -3.237406e+02  -2.855280e+02
   1.143454e+01  -4.346064e+02
   3.638761e+02  -4.021233e+02
   4.756193e+02  -1.853183e+02
   3.040293e+02   9.852472e+01
   3.117931e+01   2.684296e+02
  -1.116066e+02   2.140443e+02
  -3.965989e+01   2.593521e+01
   1.194538e+02  -6.962246e+01
   1.595839e+02   3.002866e+01
   2.088014e+01   1.668013e+02
  -1.402508e+02   1.272047e+02
  -1.364444e+02  -6.185848e+01
   2.911431e+01  -1.563588e+02
   1.761219e+02  -1.141835e+01
   1.545277e+02   2.362579e+02
  -2.222480e+01   3.378718e+02
  -2.293703e+02   2.014271e+02
  -3.387517e+02  -5.415735e+01
  -2.787030e+02  -2.454908e+02
  -7.732936e+01  -2.688808e+02
   1.215968e+02  -1.490931e+02
   1.612315e+02  -1.012094e+01
   4.232408e+01   2.381225e+01
  -6.111060e+01  -5.282531e+01
  -9.531274e+00  -1.205611e+02
   1.255145e+02  -8.016936e+01
   1.594722e+02   2.325236e+01
   4.025617e+01   6.442302e+01
  -8.368416e+01   4.393646e-01
  -4.792563e+01  -8.529982e+01
   1.351226e+02  -9.034537e+01
   2.913070e+02   7.857048e+00
   2.603141e+02   1.537294e+02
   4.353899e+01   2.588959e+02
  -1.959646e+02   2.454846e+02
  -2.730439e+02   1.075113e+02
  -1.484016e+02  -5.023938e+01
   3.041127e+01  -9.074746e+01
   7.586085e+01   2.096006e+00
  -4.592793e+01   9.055797e+01
  -1.891832e+02   4.350130e+01
  -1.961616e+02  -1.031882e+02
  -5.952916e+01  -1.940519e+02
   9.117495e+01  -1.424380e+02
   1.320334e+02  -2.014403e+01
   5.488245e+01   4.052130e+01
  -3.907566e+01  -8.969419e+00
  -3.527514e+01  -9.833896e+01
   8.347302e+01  -1.181932e+02
   2.041492e+02  -2.247764e+01
   1.854524e+02   1.273901e+02
   1.535225e+01   2.101295e+02
  -1.573690e+02   1.536881e+02
  -1.788001e+02   7.981897e+00
  -5.667713e+01  -1.018860e+02
   6.390845e+01  -1.000064e+02
   7.469906e+01  -2.555251e+01
   8.078316e+00   2.708045e+01
  -3.157750e+01   1.487287e+01
   6.559992e+00  -1.830621e+01
   7.875877e+01  -9.424187e-01
   9.898811e+01   8.297219e+01
   1.650573e+01   1.662862e+02
  -1.320541e+02   1.539258e+02
  -2.343725e+02   1.908423e+01
  -1.953174e+02  -1.519005e+02
  -3.936657e+01  -2.282384e+02
   1.024130e+02  -1.608434e+02
   1.288321e+02  -2.932162e+01
   7.023882e+01   4.675962e+01
   3.063471e+01   3.019297e+01
   5.336375e+01  -1.415654e+01
   8.296767e+01  -8.616853e+00
   5.143849e+01   5.097630e+01
  -3.664158e+01   9.752232e+01
  -1.104649e+02   6.585741e+01
  -9.861285e+01  -3.631498e+01
   1.162630e+01  -1.209191e+02
   1.509313e+02  -9.165098e+01
   2.016419e+02   5.561337e+01
   9.311712e+01   2.060930e+02
  -1.142532e+02   2.241582e+02
  -2.637741e+02   8.835439e+01
  -2.464985e+02  -8.648262e+01
  -1.017147e+02  -1.694851e+02
   3.879754e+01  -1.395218e+02
   8.898598e+01  -8.011459e+01
   7.133226e+01  -6.789165e+01
   5.902694e+01  -9.097033e+01
   8.791988e+01  -7.682307e+01
   1.276437e+02   1.742206e+01
   1.179960e+02   1.495553e+02
   2.948372e+01   2.216604e+02
  -9.688186e+01   1.667882e+02
  -1.700585e+02   1.565214e+01
  -1.297387e+02  -1.227789e+02
  -1.391114e+01  -1.557508e+02
   7.165237e+01  -8.536625e+01
   6.259366e+01   7.433346e+00
   1.417612e+00   4.964718e+01
  -1.956579e+01   3.705151e+01
   2.951216e+01   1.488047e+01
   8.052125e+01   1.773853e+01
   4.781351e+01   3.746741e+01
  -6.746252e+01   4.003031e+01
  -1.651358e+02   3.703397e+00
  -1.433681e+02  -5.610241e+01
  -7.533123e+00  -9.453147e+01
   1.260607e+02  -7.538904e+01
   1.435346e+02  -9.836824e+00
   4.667138e+01   4.590783e+01
  -5.761847e+01   4.131314e+01
  -7.591490e+01  -1.688097e+01
  -1.603604e+01  -6.876022e+01
   4.698032e+01  -6.112737e+01
   6.479830e+01  -2.272882e+00
   5.238791e+01   4.712815e+01
   4.612534e+01   4.088216e+01
   5.644574e+01   2.035382e+00
   6.418633e+01   3.014662e-01
   4.166862e+01   6.767408e+01
  -2.582204e+01   1.468376e+02
  -1.174354e+02   1.439863e+02
  -1.706380e+02   3.691880e+01
  -1.270303e+02  -8.911709e+01
  -6.171065e+00  -1.285381e+02
   8.663191e+01  -6.710193e+01
   5.985122e+01   1.095236e+01
  -5.695385e+01   2.060640e+01
  -1.325624e+02  -4.018528e+01
  -7.208150e+01  -1.042558e+02
   7.996001e+01  -1.092374e+02
   1.861372e+02  -4.777577e+01
   1.566521e+02   3.646356e+01
   3.309375e+01   8.434457e+01
  -6.210060e+01   6.421402e+01
  -4.878771e+01   2.431288e+00
   3.790090e+01  -2.961348e+01
   8.991613e+01   1.857356e+01
   3.788755e+01   1.128103e+02
  -7.931026e+01   1.516418e+02
  -1.556310e+02   6.728549e+01
  -1.240308e+02  -9.065144e+01
  -1.596577e+01  -1.887784e+02
   7.991878e+01  -1.393344e+02
   1.025540e+02   8.212317e+00
   5.760925e+01   1.167203e+02
  -7.893090e+00   1.033777e+02
  -4.885599e+01   1.770416e+01
  -4.732579e+01  -3.141198e+01
  -1.975391e+01  -8.570530e+00
  -5.205457e+00   1.856698e+01
  -2.711409e+01  -1.691084e+01
  -5.706610e+01  -8.644093e+01
  -3.582477e+01  -1.050390e+02
   5.109896e+01  -4.426624e+01
   1.337206e+02   3.569965e+01
   1.232522e+02   6.760481e+01
   1.879836e+01   5.037138e+01
  -8.055325e+01   2.412098e+01
  -8.529698e+01   7.203482e+00
  -1.525380e+01  -8.741837e+00
   3.494577e+01  -2.123117e+01
   1.752852e+01  -1.538781e+01
  -1.653887e+01   2.368065e+00
   3.501758e+00   7.043445e+00
   6.720953e+01   7.407289e-01
   9.032864e+01   2.034703e+01
   1.770177e+01   7.688360e+01
  -1.065326e+02   1.142710e+02
  -1.806825e+02   6.535223e+01
  -1.449757e+02  -5.650094e+01
  -3.143908e+01  -1.550869e+02
   7.479282e+01  -1.510130e+02
   1.110570e+02  -6.373602e+01
   7.867777e+01   1.824067e+01
   2.620007e+01   3.552366e+01
   1.148915e+00   1.047424e+01
   1.286436e+01   5.987219e+00
   3.174196e+01   4.658838e+01
   2.072938e+01   8.885705e+01
  -2.737691e+01   7.048757e+01
  -7.730295e+01  -1.492533e+01
  -7.786084e+01  -9.982936e+01
  -1.194681e+01  -1.068557e+02
   7.413889e+01  -2.869599e+01
   1.019525e+02   6.490550e+01
   3.798383e+01   9.895828e+01
  -6.105628e+01   6.043860e+01
  -9.876851e+01  -6.411489e+00
  -4.413620e+01  -5.229643e+01
   3.062781e+01  -5.732185e+01
   3.530885e+01  -2.990775e+01
  -2.759907e+01   3.282285e+00
  -6.655851e+01   8.989168e+00
  -1.739741e+01  -2.505183e+01
   7.572294e+01  -6.532371e+01
   1.157779e+02  -5.657260e+01
   6.766281e+01   1.257434e+01
  -1.228473e+01   8.218653e+01
  -5.284074e+01   8.134998e+01
  -3.986185e+01   1.168597e+01
  -5.448412e+00  -5.143206e+01
   2.227121e+01  -4.523933e+01
   3.494963e+01   1.223642e+01
   2.806499e+01   5.174509e+01
   1.062378e-01   3.601191e+01
  -3.209860e+01  -5.529096e+00
  -4.107995e+01  -2.213016e+01
  -2.078014e+01  -2.969716e+00
   3.684766e+00   1.683525e+01
   8.104095e+00   3.960249e+00
   4.419234e-02  -3.143569e+01
   4.830497e+00  -4.658400e+01
   2.603512e+01  -1.601024e+01
   3.540007e+01   3.566352e+01
   8.063959e+00   5.660439e+01
  -3.971965e+01   2.344243e+01
  -5.871906e+01  -3.251956e+01
  -1.807150e+01  -5.881497e+01
   5.380164e+01  -3.572325e+01
   8.904296e+01   1.027748e+01
   4.967057e+01   4.128138e+01
  -2.651044e+01   4.318809e+01
  -6.215047e+01   2.629172e+01
  -2.611907e+01   7.132273e+00
   3.016113e+01  -6.920145e-01
   3.317258e+01   9.515688e+00
  -2.558413e+01   2.637841e+01
  -8.045022e+01   1.991638e+01
