
 $NMID
 id='ANONYMOUS ', fmtdat='(2E16.6)'
 volume=1.0
 tramp=1.0
 $END
  -4.048919e+03  -4.666125e+01
  -2.415382e+03  -2.334783e+03
   5.031587e+02  -2.533621e+03
   1.828691e+03  -1.011283e+03
   9.387562e+02   3.528966e+02
  -4.311489e+02   4.239134e+02
  -7.054082e+02  -3.437265e+02
   7.093163e+00  -9.007075e+02
   7.191308e+02  -7.112901e+02
   8.477844e+02   4.266136e+01
   4.404869e+02   7.563890e+02
  -1.663079e+02   8.149541e+02
  -5.277437e+02   1.312443e+02
  -3.308987e+02  -6.322794e+02
   2.285741e+02  -6.873299e+02
   5.459183e+02  -1.695678e+01
   2.821723e+02   6.276511e+02
  -2.587987e+02   6.405485e+02
  -5.496674e+02   1.588290e+02
  -4.121521e+02  -2.934966e+02
  -5.761284e+01  -4.163069e+02
   2.041718e+02  -2.598637e+02
   1.633540e+02  -3.539317e+01
  -1.492467e+02   2.221367e+01
  -3.750429e+02  -1.828706e+02
  -1.209109e+02  -4.252633e+02
   4.864418e+02  -3.301389e+02
   7.853614e+02   1.297042e+02
   3.565639e+02   5.032127e+02
  -3.888079e+02   3.888988e+02
  -6.787407e+02  -8.298027e+01
  -2.924060e+02  -4.576668e+02
   2.897548e+02  -4.686995e+02
   5.433541e+02  -1.752666e+02
   3.900872e+02   2.127187e+02
   7.103145e+01   4.264247e+02
  -1.462421e+02   2.486211e+02
  -9.339497e+01  -1.842866e+02
   1.862461e+02  -3.464245e+02
   3.730116e+02   7.428158e+01
   1.584746e+02   6.396723e+02
  -3.127451e+02   6.223344e+02
  -5.193694e+02  -8.215949e+00
  -2.065379e+02  -4.868188e+02
   2.546213e+02  -2.570472e+02
   3.160998e+02   3.211590e+02
  -9.247008e+01   5.049619e+02
  -5.318597e+02   1.062449e+02
  -5.682146e+02  -4.090219e+02
  -1.625343e+02  -5.683606e+02
   3.646969e+02  -3.232313e+02
   6.041727e+02   7.661140e+01
   3.668138e+02   3.471655e+02
  -1.235420e+02   3.203460e+02
  -3.973836e+02   6.180437e+01
  -2.333906e+02  -1.410516e+02
   7.825284e+01  -7.506331e+01
   1.095684e+02   1.226202e+02
  -1.495568e+02   1.430774e+02
  -3.120819e+02  -7.047737e+01
  -1.354719e+02  -2.693284e+02
   1.910150e+02  -2.591923e+02
   3.417837e+02  -9.814990e+01
   2.267457e+02   8.969204e+01
  -2.139002e+01   2.641026e+02
  -2.516330e+02   3.505150e+02
  -3.589099e+02   2.038934e+02
  -2.789162e+02  -1.513015e+02
  -6.752435e+01  -4.200656e+02
   9.165453e+01  -3.672109e+02
   8.611402e+01  -1.338761e+02
   2.458829e+01  -3.140696e+01
   7.733090e+01  -1.030370e+02
   2.223446e+02  -1.080273e+02
   2.744614e+02   7.965496e+01
   1.380290e+02   2.748822e+02
  -8.423342e+01   2.409598e+02
  -2.219204e+02  -9.106559e+00
  -1.799959e+02  -2.501663e+02
   2.586658e+01  -2.869801e+02
   2.675232e+02  -9.905222e+01
   3.503602e+02   1.751395e+02
   1.828425e+02   3.410485e+02
  -8.571439e+01   2.976312e+02
  -2.094966e+02   1.340594e+02
  -1.505538e+02   3.239753e+01
  -1.181145e+02   4.965312e+01
  -2.559295e+02   5.785663e+01
  -4.145180e+02  -7.189483e+01
  -3.354855e+02  -2.962185e+02
   1.066026e+01  -4.511783e+02
   3.760891e+02  -4.165936e+02
   4.964297e+02  -1.949060e+02
   3.260534e+02   9.990039e+01
   4.130589e+01   2.866818e+02
  -1.221894e+02   2.372972e+02
  -5.820125e+01   3.039136e+01
   1.179744e+02  -8.621996e+01
   1.786010e+02   2.026569e+01
   3.418071e+01   1.830810e+02
  -1.521913e+02   1.501832e+02
  -1.582501e+02  -6.206015e+01
   2.432860e+01  -1.759627e+02
   1.885581e+02  -2.041821e+01
   1.623285e+02   2.494041e+02
  -2.865314e+01   3.538703e+02
  -2.392400e+02   2.025340e+02
  -3.442472e+02  -6.274030e+01
  -2.846613e+02  -2.524385e+02
  -8.462741e+01  -2.747577e+02
   1.225739e+02  -1.571749e+02
   1.727768e+02  -1.466050e+01
   5.087872e+01   2.753030e+01
  -6.556601e+01  -4.862834e+01
  -1.754822e+01  -1.254127e+02
   1.285135e+02  -9.003408e+01
   1.719850e+02   1.969900e+01
   4.910462e+01   6.930956e+01
  -8.400285e+01   6.407101e+00
  -5.123125e+01  -8.283690e+01
   1.352174e+02  -8.995749e+01
   2.957012e+02   7.687474e+00
   2.675430e+02   1.543492e+02
   4.972281e+01   2.645587e+02
  -1.980369e+02   2.575778e+02
  -2.858543e+02   1.175365e+02
  -1.621042e+02  -5.226381e+01
   2.848370e+01  -1.012030e+02
   8.419509e+01  -2.573672e+00
  -4.178997e+01   9.709820e+01
  -1.974152e+02   5.073809e+01
  -2.090216e+02  -1.065419e+02
  -6.506768e+01  -2.060438e+02
   9.558607e+01  -1.532251e+02
   1.410688e+02  -2.434104e+01
   6.313853e+01   4.184510e+01
  -3.478477e+01  -4.941721e+00
  -3.580167e+01  -9.486466e+01
   8.186292e+01  -1.182067e+02
   2.072959e+02  -2.423434e+01
   1.925767e+02   1.302843e+02
   1.747758e+01   2.197209e+02
  -1.658081e+02   1.623491e+02
  -1.911970e+02   7.194049e+00
  -6.224174e+01  -1.105408e+02
   6.720799e+01  -1.079732e+02
   8.073875e+01  -2.854265e+01
   1.262027e+01   2.701840e+01
  -2.814368e+01   1.624758e+01
   8.707844e+00  -1.454866e+01
   7.806458e+01   4.007668e+00
   9.658178e+01   8.599458e+01
   1.489981e+01   1.676851e+02
  -1.342901e+02   1.564922e+02
  -2.405120e+02   2.104257e+01
  -2.027546e+02  -1.563257e+02
  -4.070688e+01  -2.390088e+02
   1.088774e+02  -1.692946e+02
   1.361107e+02  -2.886539e+01
   7.267353e+01   5.243866e+01
   3.075886e+01   3.384805e+01
   5.512066e+01  -1.336332e+01
   8.415545e+01  -7.219837e+00
   4.843384e+01   5.267576e+01
  -4.117368e+01   9.618998e+01
  -1.110658e+02   6.210339e+01
  -9.551033e+01  -3.818090e+01
   1.395441e+01  -1.197861e+02
   1.519793e+02  -9.040974e+01
   2.048070e+02   5.653761e+01
   9.748903e+01   2.100771e+02
  -1.151567e+02   2.314144e+02
  -2.728802e+02   9.289212e+01
  -2.579260e+02  -8.967936e+01
  -1.074865e+02  -1.778447e+02
   4.041279e+01  -1.467469e+02
   9.433590e+01  -8.393110e+01
   7.723757e+01  -7.048224e+01
   6.465718e+01  -9.354719e+01
   9.297019e+01  -7.749519e+01
   1.316208e+02   2.070599e+01
   1.204107e+02   1.565289e+02
   2.915484e+01   2.300701e+02
  -1.012472e+02   1.733782e+02
  -1.771659e+02   1.738782e+01
  -1.355040e+02  -1.264091e+02
  -1.575347e+01  -1.617675e+02
   7.212360e+01  -9.014513e+01
   6.295710e+01   4.753756e+00
   2.267285e+00   4.798365e+01
  -1.666757e+01   3.651721e+01
   3.319146e+01   1.662709e+01
   8.234344e+01   2.095685e+01
   4.762570e+01   3.930221e+01
  -6.819821e+01   3.919643e+01
  -1.667575e+02   2.029107e+00
  -1.467065e+02  -5.663850e+01
  -1.010240e+01  -9.436708e+01
   1.278623e+02  -7.583214e+01
   1.481440e+02  -1.072985e+01
   4.820722e+01   4.535250e+01
  -6.073813e+01   4.059335e+01
  -7.800772e+01  -1.874639e+01
  -1.255172e+01  -7.100325e+01
   5.248287e+01  -6.156076e+01
   6.619947e+01  -2.404214e-02
   5.022872e+01   5.039153e+01
   4.605517e+01   4.287412e+01
   6.003794e+01   2.390882e+00
   6.679616e+01   8.190143e-01
   3.966954e+01   7.010610e+01
  -3.050899e+01   1.505012e+02
  -1.213293e+02   1.458937e+02
  -1.730590e+02   3.492247e+01
  -1.284043e+02  -9.341476e+01
  -5.520464e+00  -1.310932e+02
   8.944549e+01  -6.600422e+01
   6.162966e+01   1.332846e+01
  -5.957768e+01   2.065127e+01
  -1.381199e+02  -4.333107e+01
  -7.509217e+01  -1.087202e+02
   8.304316e+01  -1.130457e+02
   1.934138e+02  -4.979690e+01
   1.631247e+02   3.714729e+01
   3.530627e+01   8.769113e+01
  -6.349940e+01   6.802836e+01
  -5.005752e+01   4.230457e+00
   3.959397e+01  -2.908989e+01
   9.268724e+01   2.127089e+01
   3.639764e+01   1.187751e+02
  -8.734821e+01   1.568607e+02
  -1.654136e+02   6.655947e+01
  -1.283502e+02  -9.791629e+01
  -1.319105e+01  -1.979175e+02
   8.514981e+01  -1.448688e+02
   1.061082e+02   8.400891e+00
   5.974283e+01   1.206868e+02
  -6.122727e+00   1.072181e+02
  -4.896395e+01   1.878450e+01
  -5.036512e+01  -3.230961e+01
  -2.281579e+01  -8.700424e+00
  -4.862855e+00   1.982935e+01
  -2.495415e+01  -1.705631e+01
  -5.756331e+01  -9.011674e+01
  -3.887264e+01  -1.097289e+02
   5.099164e+01  -4.535702e+01
   1.391975e+02   3.898336e+01
   1.290962e+02   7.144735e+01
   1.842941e+01   5.165527e+01
  -8.608817e+01   2.371517e+01
  -8.894699e+01   7.128671e+00
  -1.371485e+01  -8.689328e+00
   3.751582e+01  -2.217915e+01
   1.658565e+01  -1.671782e+01
  -1.906147e+01   2.151148e+00
   4.556440e+00   8.024510e+00
   7.210860e+01   2.292585e+00
   9.326198e+01   2.298396e+01
   1.388155e+01   8.087567e+01
  -1.152742e+02   1.170080e+02
  -1.883487e+02   6.306181e+01
  -1.474995e+02  -6.379467e+01
  -2.902029e+01  -1.626026e+02
   7.974173e+01  -1.541885e+02
   1.160343e+02  -6.254914e+01
   8.159098e+01   2.062837e+01
   2.608221e+01   3.667282e+01
  -6.987934e-01   1.019244e+01
   1.197279e+01   5.543501e+00
   3.277098e+01   4.763571e+01
   2.149611e+01   9.178257e+01
  -2.935817e+01   7.271136e+01
  -8.099843e+01  -1.726163e+01
  -7.918485e+01  -1.066669e+02
  -8.462406e+00  -1.123407e+02
   7.996496e+01  -2.717807e+01
   1.050393e+02   7.177632e+01
   3.593304e+01   1.040245e+02
  -6.560497e+01   5.977624e+01
  -1.011807e+02  -9.673433e+00
  -4.274722e+01  -5.352429e+01
   3.300796e+01  -5.636579e+01
   3.487008e+01  -2.953295e+01
  -3.115989e+01   2.245141e+00
  -6.963376e+01   7.866414e+00
  -1.662492e+01  -2.596789e+01
   7.965825e+01  -6.688341e+01
   1.190966e+02  -5.800747e+01
   6.771249e+01   1.332925e+01
  -1.468257e+01   8.474769e+01
  -5.501627e+01   8.226200e+01
  -4.006109e+01   9.040280e+00
  -3.714664e+00  -5.484935e+01
   2.476284e+01  -4.540222e+01
   3.662915e+01   1.530715e+01
   2.784925e+01   5.433085e+01
  -1.529786e+00   3.575568e+01
  -3.344648e+01  -7.142963e+00
  -4.134705e+01  -2.264578e+01
  -2.114510e+01  -2.440056e+00
   2.297947e+00   1.631059e+01
   7.457199e+00   1.301464e+00
   2.788338e+00  -3.466697e+01
   1.025744e+01  -4.749101e+01
   2.977322e+01  -1.303616e+01
   3.430586e+01   4.097371e+01
   3.806290e+00   6.038390e+01
  -4.310773e+01   2.274495e+01
  -5.935322e+01  -3.674777e+01
  -1.675612e+01  -6.243501e+01
   5.602329e+01  -3.553759e+01
   9.141414e+01   1.343856e+01
   5.049710e+01   4.395372e+01
  -2.862137e+01   4.317999e+01
  -6.530324e+01   2.452892e+01
  -2.617320e+01   6.065666e+00
   3.401582e+01   4.441426e-01
   3.611041e+01   1.241850e+01
  -2.839436e+01   2.908985e+01
  -8.719024e+01   2.014108e+01
