
 $NMID
 id='ANONYMOUS ', fmtdat='(2E16.6)'
 volume=1.0
 tramp=1.0
 $END
   3.343870e+03  -5.717325e+01
   2.224505e+03   1.702529e+03
  -2.088957e+01   2.143576e+03
  -1.326534e+03   1.250070e+03
  -9.742627e+02   1.246744e+02
   2.214028e+01  -2.637898e+02
   4.366374e+02   1.126217e+02
   7.344790e+01   6.054475e+02
  -4.741036e+02   6.207443e+02
  -6.815782e+02   8.817813e+01
  -4.532686e+02  -5.393230e+02
   1.985503e+00  -6.835729e+02
   3.387388e+02  -1.957555e+02
   2.783334e+02   4.389518e+02
  -1.156711e+02   5.714938e+02
  -4.280721e+02   8.452322e+01
  -3.102726e+02  -5.025508e+02
   1.346154e+02  -6.324571e+02
   4.816556e+02  -2.675239e+02
   4.449449e+02   1.886884e+02
   1.281582e+02   3.707593e+02
  -1.298504e+02   2.541696e+02
  -8.834326e+01   7.849402e+01
   1.674212e+02   7.671596e+01
   2.865188e+02   2.494614e+02
   1.530109e+01   3.603502e+02
  -4.566616e+02   1.954932e+02
  -6.280333e+02  -1.583029e+02
  -2.551475e+02  -3.721162e+02
   3.169435e+02  -2.391559e+02
   5.249562e+02   1.066137e+02
   2.139442e+02   3.672538e+02
  -2.535407e+02   3.710642e+02
  -4.608417e+02   1.454911e+02
  -3.355650e+02  -1.591927e+02
  -9.160452e+01  -3.269792e+02
   4.463841e+01  -2.009742e+02
  -8.619540e+00   9.776392e+01
  -1.659500e+02   1.918982e+02
  -2.277078e+02  -1.158197e+02
  -5.351604e+01  -5.044823e+02
   2.425056e+02  -4.740282e+02
   3.577771e+02  -1.344661e+01
   1.485348e+02   3.350767e+02
  -1.587368e+02   1.671266e+02
  -2.029709e+02  -2.662594e+02
   9.736149e+01  -4.039220e+02
   4.505815e+02  -7.414089e+01
   4.994155e+02   3.640657e+02
   1.638138e+02   5.003196e+02
  -3.005432e+02   2.811482e+02
  -5.274761e+02  -5.448387e+01
  -3.493066e+02  -2.600733e+02
   5.087973e+01  -2.460065e+02
   3.040741e+02  -8.868797e+01
   2.248274e+02   4.416534e+01
  -2.895896e+00   3.722859e+01
  -6.405962e+01  -5.568515e+01
   1.003169e+02  -7.638153e+01
   2.408861e+02   4.302522e+01
   1.319147e+02   2.011920e+02
  -1.526471e+02   2.495901e+02
  -3.398764e+02   1.328569e+02
  -2.578910e+02  -9.455568e+01
   2.113527e+01  -3.096217e+02
   2.837771e+02  -3.609216e+02
   3.604096e+02  -1.684333e+02
   2.397660e+02   1.558067e+02
   5.678559e+01   3.639183e+02
  -3.942596e+01   3.251191e+02
  -3.214217e+01   1.675275e+02
  -3.461522e+01   9.316118e+01
  -1.272370e+02   1.109103e+02
  -2.409739e+02   6.256193e+01
  -2.422853e+02  -1.105268e+02
  -9.837796e+01  -2.548376e+02
   8.975907e+01  -1.974564e+02
   1.919663e+02   3.396472e+01
   1.411853e+02   2.395934e+02
  -4.153594e+01   2.512158e+02
  -2.446364e+02   6.877667e+01
  -3.109640e+02  -1.675181e+02
  -1.721379e+02  -2.994169e+02
   5.282441e+01  -2.688090e+02
   1.709962e+02  -1.523681e+02
   1.477041e+02  -7.325044e+01
   1.429238e+02  -6.484868e+01
   2.711967e+02  -4.049060e+01
   4.068044e+02   8.889982e+01
   3.202921e+02   2.923621e+02
  -1.998526e+01   4.343208e+02
  -3.740753e+02   3.964653e+02
  -4.744584e+02   1.776670e+02
  -2.892757e+02  -9.646990e+01
  -2.454537e+01  -2.521528e+02
   9.396864e+01  -2.019933e+02
   1.794751e+01  -3.775384e+01
  -1.142848e+02   4.656042e+01
  -1.346866e+02  -3.250956e+01
  -1.375258e+01  -1.445859e+02
   1.180530e+02  -1.113474e+02
   1.152428e+02   5.080311e+01
  -2.529143e+01   1.354668e+02
  -1.622022e+02   4.482470e+00
  -1.528327e+02  -2.329647e+02
   1.868133e+01  -3.401960e+02
   2.382855e+02  -2.065089e+02
   3.531557e+02   5.972791e+01
   2.782120e+02   2.578329e+02
   6.406409e+01   2.715224e+02
  -1.261334e+02   1.412894e+02
  -1.518259e+02   8.021329e+00
  -3.700382e+01  -1.481732e+01
   5.209303e+01   5.883669e+01
  -6.995662e-01   1.134199e+02
  -1.226285e+02   6.901904e+01
  -1.480879e+02  -2.473438e+01
  -3.348303e+01  -5.555934e+01
   8.140397e+01   1.029868e+01
   3.953219e+01   9.123954e+01
  -1.462256e+02   8.776333e+01
  -2.989004e+02  -1.962055e+01
  -2.564006e+02  -1.668051e+02
  -3.032182e+01  -2.606035e+02
   2.038879e+02  -2.346520e+02
   2.671591e+02  -9.896922e+01
   1.390975e+02   4.500944e+01
  -2.873422e+01   7.974340e+01
  -6.542719e+01  -3.435565e+00
   5.113222e+01  -8.096450e+01
   1.839035e+02  -3.525604e+01
   1.884009e+02   1.021865e+02
   5.722286e+01   1.872820e+02
  -8.759579e+01   1.362195e+02
  -1.249665e+02   1.802275e+01
  -4.728569e+01  -3.588602e+01
   4.127420e+01   2.001418e+01
   2.774728e+01   1.079717e+02
  -9.524673e+01   1.175189e+02
  -2.093129e+02   1.373173e+01
  -1.818667e+02  -1.328949e+02
  -1.171582e+01  -2.076695e+02
   1.549058e+02  -1.506797e+02
   1.742102e+02  -1.159065e+01
   5.590543e+01   9.451875e+01
  -6.079023e+01   9.540236e+01
  -6.983104e+01   2.518869e+01
  -1.899763e+00  -2.445278e+01
   3.628327e+01  -9.060580e+00
  -9.024571e+00   2.500679e+01
  -8.783739e+01   1.654205e+00
  -1.045933e+02  -9.086945e+01
  -1.156432e+01  -1.745910e+02
   1.411836e+02  -1.531173e+02
   2.371924e+02  -1.122059e+01
   1.919908e+02   1.570256e+02
   3.784630e+01   2.273005e+02
  -1.002605e+02   1.594119e+02
  -1.285041e+02   3.127480e+01
  -7.362938e+01  -4.393618e+01
  -3.376227e+01  -2.898686e+01
  -5.530954e+01   1.452582e+01
  -8.715613e+01   7.298339e+00
  -5.600782e+01  -5.696447e+01
   3.968135e+01  -1.057624e+02
   1.218190e+02  -6.770762e+01
   1.063401e+02   4.405162e+01
  -1.704257e+01   1.292054e+02
  -1.625674e+02   9.014948e+01
  -2.050998e+02  -6.472910e+01
  -8.532731e+01  -2.116546e+02
   1.233044e+02  -2.209545e+02
   2.658177e+02  -8.200540e+01
   2.433203e+02   8.893942e+01
   9.887091e+01   1.676613e+02
  -3.922598e+01   1.372336e+02
  -8.762372e+01   7.986253e+01
  -6.908542e+01   6.991918e+01
  -5.776911e+01   9.443604e+01
  -8.967170e+01   7.968842e+01
  -1.311580e+02  -1.751123e+01
  -1.193441e+02  -1.524468e+02
  -2.746931e+01  -2.241223e+02
   9.890676e+01  -1.659797e+02
   1.689514e+02  -1.221091e+01
   1.261136e+02   1.256079e+02
   9.989065e+00   1.550206e+02
  -7.429428e+01   8.053805e+01
  -6.204223e+01  -1.371069e+01
   3.679910e+00  -5.298448e+01
   2.613522e+01  -3.550213e+01
  -2.762607e+01  -1.165437e+01
  -8.423940e+01  -1.747858e+01
  -4.993409e+01  -3.981762e+01
   7.258353e+01  -3.988268e+01
   1.725292e+02   1.462178e+00
   1.436252e+02   6.242127e+01
  -1.455532e-01   9.689552e+01
  -1.332751e+02   7.332306e+01
  -1.445119e+02   6.089802e+00
  -4.409565e+01  -4.958600e+01
   5.960775e+01  -4.389412e+01
   7.787912e+01   1.758388e+01
   1.912970e+01   7.352541e+01
  -4.579199e+01   6.615360e+01
  -6.841308e+01   2.782327e+00
  -5.775748e+01  -5.044851e+01
  -4.800886e+01  -4.300901e+01
  -5.521481e+01  -1.288556e+00
  -6.464064e+01  -6.447898e-01
  -4.449831e+01  -7.211885e+01
   2.604372e+01  -1.524558e+02
   1.241706e+02  -1.458221e+02
   1.794553e+02  -3.407185e+01
   1.305834e+02   9.374631e+01
   2.807112e+00   1.324068e+02
  -9.198760e+01   6.943056e+01
  -6.224650e+01  -1.027198e+01
   5.763805e+01  -2.097121e+01
   1.332040e+02   4.019913e+01
   7.071098e+01   1.049066e+02
  -8.226189e+01   1.086125e+02
  -1.869903e+02   4.476746e+01
  -1.552018e+02  -3.944812e+01
  -3.084947e+01  -8.404378e+01
   6.308511e+01  -6.090134e+01
   4.797326e+01   8.290558e-01
  -3.978537e+01   3.113332e+01
  -9.245890e+01  -1.852108e+01
  -4.096667e+01  -1.146652e+02
   7.697372e+01  -1.561161e+02
   1.559884e+02  -7.221273e+01
   1.269287e+02   8.907994e+01
   1.850091e+01   1.905766e+02
  -7.977631e+01   1.401935e+02
  -1.029454e+02  -1.040482e+01
  -5.542971e+01  -1.185545e+02
   1.201861e+01  -1.016338e+02
   5.083084e+01  -1.481393e+01
   4.526340e+01   3.142443e+01
   1.690664e+01   6.931597e+00
   5.596655e+00  -1.739332e+01
   2.997354e+01   2.100512e+01
   5.800600e+01   8.877532e+01
   3.296198e+01   1.035195e+02
  -5.480961e+01   4.223044e+01
  -1.348728e+02  -3.549748e+01
  -1.223722e+02  -6.730668e+01
  -1.861075e+01  -5.254928e+01
   7.967616e+01  -2.667525e+01
   8.551574e+01  -6.580427e+00
   1.713490e+01   1.146918e+01
  -3.387398e+01   2.173384e+01
  -1.890623e+01   1.277093e+01
   1.480898e+01  -4.249067e+00
  -3.050676e+00  -5.446823e+00
  -6.621966e+01   2.072125e+00
  -9.255803e+01  -2.030804e+01
  -2.248384e+01  -8.047795e+01
   1.050262e+02  -1.190599e+02
   1.859063e+02  -6.858425e+01
   1.526430e+02   5.619044e+01
   3.450501e+01   1.576585e+02
  -7.760517e+01   1.550189e+02
  -1.150097e+02   6.678644e+01
  -8.028087e+01  -1.778681e+01
  -2.672236e+01  -3.733791e+01
  -2.430363e+00  -1.308232e+01
  -1.369106e+01  -8.281134e+00
  -3.055505e+01  -4.820964e+01
  -1.889684e+01  -8.995277e+01
   2.800911e+01  -7.161806e+01
   7.810143e+01   1.356013e+01
   8.112467e+01   9.956097e+01
   1.593701e+01   1.095088e+02
  -7.395506e+01   3.330889e+01
  -1.062171e+02  -6.262653e+01
  -4.156570e+01  -1.017318e+02
   6.256894e+01  -6.499570e+01
   1.032900e+02   5.997878e+00
   4.606235e+01   5.693830e+01
  -3.330243e+01   6.160525e+01
  -3.931992e+01   2.937656e+01
   2.604274e+01  -6.521961e+00
   6.767166e+01  -1.005376e+01
   1.858444e+01   2.681510e+01
  -7.671096e+01   6.626799e+01
  -1.189023e+02   5.455433e+01
  -7.069530e+01  -1.583300e+01
   1.207464e+01  -8.466309e+01
   5.622599e+01  -8.326283e+01
   4.457221e+01  -1.323036e+01
   8.160736e+00   5.188328e+01
  -2.273919e+01   4.828647e+01
  -3.693433e+01  -9.617971e+00
  -2.929304e+01  -5.288186e+01
   2.216656e-01  -3.947868e+01
   3.328775e+01   4.395004e+00
   4.194514e+01   2.446825e+01
   2.064274e+01   4.442856e+00
  -3.998968e+00  -1.969237e+01
  -6.437299e+00  -8.139470e+00
   4.425735e+00   3.187177e+01
  -6.150993e-01   5.259100e+01
  -2.673530e+01   2.222512e+01
  -4.138640e+01  -3.427897e+01
  -1.377071e+01  -5.943380e+01
   3.964122e+01  -2.640152e+01
   6.296262e+01   3.178025e+01
   2.068739e+01   5.964032e+01
  -5.581189e+01   3.680446e+01
  -9.287313e+01  -9.673542e+00
  -5.134507e+01  -4.200120e+01
   2.764625e+01  -4.574536e+01
   6.450706e+01  -2.915044e+01
   2.862563e+01  -7.306470e+00
  -2.835048e+01   4.070695e+00
  -3.366282e+01  -5.666083e+00
   2.241413e+01  -2.587681e+01
   7.740444e+01  -2.273790e+01
