
 $NMID
 id='ANONYMOUS ', fmtdat='(2E16.6)'
 volume=1.0
 tramp=1.0
 $END
  -3.722312e+03   6.312210e+01
  -2.377371e+03  -2.020035e+03
   2.440708e+02  -2.390060e+03
   1.613243e+03  -1.164406e+03
   9.958514e+02   1.336653e+02
  -2.260099e+02   3.849403e+02
  -5.995312e+02  -2.118853e+02
  -5.637027e+01  -7.688220e+02
   5.959631e+02  -6.893682e+02
   7.804757e+02  -3.276931e+01
   4.646363e+02   6.552630e+02
  -7.815773e+01   7.668427e+02
  -4.446207e+02   1.776391e+02
  -3.228131e+02  -5.365709e+02
   1.655461e+02  -6.420926e+02
   4.960735e+02  -5.864811e+01
   3.056047e+02   5.708470e+02
  -2.000565e+02   6.464917e+02
  -5.267020e+02   2.149144e+02
  -4.358177e+02  -2.472568e+02
  -9.420806e+01  -4.006131e+02
   1.687974e+02  -2.632529e+02
   1.320108e+02  -6.199089e+01
  -1.485861e+02  -2.549859e+01
  -3.271369e+02  -2.057068e+02
  -7.720612e+01  -3.848641e+02
   4.597406e+02  -2.693638e+02
   7.080571e+02   1.289951e+02
   3.202129e+02   4.323469e+02
  -3.414103e+02   3.247752e+02
  -6.037555e+02  -8.033348e+01
  -2.632435e+02  -4.078298e+02
   2.638036e+02  -4.254994e+02
   5.013189e+02  -1.682372e+02
   3.686588e+02   1.826883e+02
   8.916920e+01   3.812018e+02
  -9.455429e+01   2.349815e+02
  -5.342958e+01  -1.346311e+02
   1.627850e+02  -2.756360e+02
   3.009845e+02   8.062302e+01
   1.211873e+02   5.662449e+02
  -2.664661e+02   5.582964e+02
  -4.451371e+02   1.609413e+01
  -1.925159e+02  -4.102043e+02
   2.016104e+02  -2.231883e+02
   2.676551e+02   2.850219e+02
  -8.573168e+01   4.565122e+02
  -4.901888e+02   9.816445e+01
  -5.389597e+02  -3.813758e+02
  -1.686690e+02  -5.357680e+02
   3.305081e+02  -3.086124e+02
   5.692580e+02   5.954910e+01
   3.655855e+02   3.045541e+02
  -8.300034e+01   2.915813e+02
  -3.556306e+02   8.235765e+01
  -2.375332e+02  -9.504678e+01
   3.971567e+01  -6.401508e+01
   9.411684e+01   8.723828e+01
  -1.204709e+02   1.161215e+02
  -2.807831e+02  -5.133766e+01
  -1.395274e+02  -2.368458e+02
   1.720335e+02  -2.575648e+02
   3.433464e+02  -1.141381e+02
   2.403085e+02   9.463295e+01
  -2.538230e+01   2.847546e+02
  -2.671299e+02   3.516992e+02
  -3.558038e+02   1.867393e+02
  -2.597035e+02  -1.497039e+02
  -6.725327e+01  -3.921922e+02
   6.356849e+01  -3.515349e+02
   6.389863e+01  -1.540363e+02
   3.471861e+01  -5.915217e+01
   1.011181e+02  -1.020147e+02
   2.265478e+02  -8.493390e+01
   2.561746e+02   9.107851e+01
   1.210086e+02   2.615299e+02
  -8.284200e+01   2.197318e+02
  -2.053327e+02  -1.805402e+01
  -1.624470e+02  -2.413567e+02
   3.001388e+01  -2.683749e+02
   2.536861e+02  -8.672432e+01
   3.319636e+02   1.678602e+02
   1.810917e+02   3.201253e+02
  -6.778929e+01   2.865407e+02
  -1.928606e+02   1.456624e+02
  -1.525835e+02   5.152643e+01
  -1.307863e+02   5.436454e+01
  -2.609903e+02   4.821474e+01
  -4.085647e+02  -7.911827e+01
  -3.279918e+02  -2.926013e+02
   1.363285e+01  -4.416075e+02
   3.727586e+02  -4.064512e+02
   4.837593e+02  -1.882846e+02
   3.085758e+02   9.494409e+01
   3.640755e+01   2.685783e+02
  -1.057629e+02   2.228840e+02
  -4.003810e+01   3.732220e+01
   1.125188e+02  -6.789666e+01
   1.567299e+02   2.206605e+01
   2.798214e+01   1.630103e+02
  -1.326078e+02   1.348183e+02
  -1.389218e+02  -5.292493e+01
   2.117999e+01  -1.566906e+02
   1.745158e+02  -1.525127e+01
   1.589671e+02   2.404761e+02
  -2.286748e+01   3.476873e+02
  -2.387469e+02   2.039782e+02
  -3.479498e+02  -6.213250e+01
  -2.805248e+02  -2.539708e+02
  -7.508880e+01  -2.709034e+02
   1.226246e+02  -1.491153e+02
   1.621057e+02  -1.335086e+01
   4.545046e+01   2.034607e+01
  -5.824403e+01  -5.209973e+01
  -1.005402e+01  -1.179666e+02
   1.236801e+02  -8.056331e+01
   1.600764e+02   1.993162e+01
   4.294535e+01   6.140356e+01
  -8.114008e+01  -1.170808e+00
  -4.491128e+01  -8.555373e+01
   1.399027e+02  -8.772834e+01
   2.955332e+02   1.361120e+01
   2.606642e+02   1.589352e+02
   4.086191e+01   2.604811e+02
  -1.984110e+02   2.458138e+02
  -2.749801e+02   1.102349e+02
  -1.517134e+02  -4.679374e+01
   2.666625e+01  -9.099208e+01
   7.476707e+01  -1.418047e+00
  -4.464636e+01   8.855611e+01
  -1.893781e+02   4.457330e+01
  -1.993688e+02  -1.025411e+02
  -6.289007e+01  -1.962348e+02
   9.021953e+01  -1.456921e+02
   1.327471e+02  -2.274035e+01
   5.615895e+01   3.760041e+01
  -3.638687e+01  -1.253041e+01
  -3.078312e+01  -1.000641e+02
   8.790331e+01  -1.164289e+02
   2.068932e+02  -1.904917e+01
   1.869347e+02   1.303527e+02
   1.575993e+01   2.131731e+02
  -1.594270e+02   1.575134e+02
  -1.833136e+02   1.066995e+01
  -6.056100e+01  -1.023291e+02
   6.300826e+01  -1.024620e+02
   7.521801e+01  -2.787019e+01
   7.830092e+00   2.482044e+01
  -3.123688e+01   1.213803e+01
   9.775472e+00  -1.935050e+01
   8.295613e+01   2.266738e+00
   9.964872e+01   8.883873e+01
   1.264362e+01   1.702699e+02
  -1.369828e+02   1.539489e+02
  -2.376217e+02   1.664414e+01
  -1.972283e+02  -1.554527e+02
  -4.025430e+01  -2.328492e+02
   1.038339e+02  -1.650923e+02
   1.325285e+02  -3.055761e+01
   7.371260e+01   4.849257e+01
   3.251529e+01   3.179944e+01
   5.520719e+01  -1.384060e+01
   8.539257e+01  -6.944270e+00
   5.145743e+01   5.525747e+01
  -4.128588e+01   1.005672e+02
  -1.163660e+02   6.358668e+01
  -9.981802e+01  -4.183414e+01
   1.624514e+01  -1.236465e+02
   1.566085e+02  -8.911025e+01
   2.037848e+02   6.033287e+01
   9.142488e+01   2.093428e+02
  -1.178657e+02   2.253230e+02
  -2.681160e+02   8.817779e+01
  -2.506560e+02  -8.794687e+01
  -1.041113e+02  -1.720265e+02
   3.898487e+01  -1.421232e+02
   9.069478e+01  -8.243718e+01
   7.326878e+01  -7.077939e+01
   6.143884e+01  -9.436523e+01
   9.147490e+01  -7.862141e+01
   1.314211e+02   1.918534e+01
   1.199831e+02   1.542675e+02
   2.876113e+01   2.267070e+02
  -9.935991e+01   1.697658e+02
  -1.725388e+02   1.561538e+01
  -1.308947e+02  -1.249962e+02
  -1.358580e+01  -1.578004e+02
   7.216488e+01  -8.527981e+01
   6.160608e+01   8.849493e+00
  -9.652637e-01   4.968363e+01
  -2.095863e+01   3.512244e+01
   3.097538e+01   1.379774e+01
   8.336362e+01   1.949656e+01
   4.854407e+01   3.968648e+01
  -7.017649e+01   3.902201e+01
  -1.687983e+02  -1.724418e-01
  -1.444460e+02  -5.899204e+01
  -5.058600e+00  -9.444460e+01
   1.299277e+02  -7.398624e+01
   1.457506e+02  -8.822061e+00
   4.580599e+01   4.688110e+01
  -6.040054e+01   4.212617e+01
  -7.788959e+01  -1.818507e+01
  -1.533463e+01  -7.262552e+01
   4.969926e+01  -6.415130e+01
   6.734279e+01  -1.085285e+00
   5.360586e+01   5.100700e+01
   4.684441e+01   4.304218e+01
   5.777350e+01   1.465077e+00
   6.567630e+01   5.681053e-01
   4.163097e+01   7.134707e+01
  -2.860045e+01   1.514976e+02
  -1.224546e+02   1.452731e+02
  -1.756249e+02   3.382518e+01
  -1.290988e+02  -9.362323e+01
  -4.083920e+00  -1.312030e+02
   9.077845e+01  -6.720709e+01
   6.206152e+01   1.195799e+01
  -5.859323e+01   2.091052e+01
  -1.358232e+02  -4.139984e+01
  -7.320690e+01  -1.063670e+02
   8.215981e+01  -1.107995e+02
   1.896118e+02  -4.786299e+01
   1.588980e+02   3.749501e+01
   3.345776e+01   8.543610e+01
  -6.256926e+01   6.459367e+01
  -4.853925e+01   2.037700e+00
   3.979675e+01  -2.995076e+01
   9.263414e+01   1.996294e+01
   3.877333e+01   1.170483e+02
  -8.234082e+01   1.570960e+02
  -1.612303e+02   6.983643e+01
  -1.281867e+02  -9.353242e+01
  -1.621712e+01  -1.945888e+02
   8.211708e+01  -1.428554e+02
   1.042448e+02   9.071810e+00
   5.776557e+01   1.190920e+02
  -8.392097e+00   1.038805e+02
  -4.938712e+01   1.671712e+01
  -4.796034e+01  -3.139690e+01
  -2.017771e+01  -7.342025e+00
  -4.984222e+00   1.859015e+01
  -2.687987e+01  -1.931472e+01
  -5.774187e+01  -8.937378e+01
  -3.656166e+01  -1.061105e+02
   5.240263e+01  -4.345444e+01
   1.372066e+02   3.694935e+01
   1.260567e+02   6.882674e+01
   1.837882e+01   5.199085e+01
  -8.320817e+01   2.558506e+01
  -8.712835e+01   7.133689e+00
  -1.502661e+01  -1.027429e+01
   3.571622e+01  -2.223926e+01
   1.728557e+01  -1.463671e+01
  -1.723430e+01   3.494573e+00
   4.074281e+00   6.677495e+00
   6.961555e+01  -2.404743e-01
   9.297942e+01   2.166475e+01
   1.785977e+01   8.130176e+01
  -1.105051e+02   1.186015e+02
  -1.873533e+02   6.565408e+01
  -1.502524e+02  -6.064378e+01
  -3.189507e+01  -1.604798e+02
   7.871892e+01  -1.544296e+02
   1.157272e+02  -6.444442e+01
   8.106545e+01   1.917861e+01
   2.625547e+01   3.697544e+01
   4.960693e-01   1.179447e+01
   1.250172e+01   6.962735e+00
   3.160729e+01   4.762187e+01
   2.037516e+01   9.052509e+01
  -2.860107e+01   7.216810e+01
  -7.981419e+01  -1.527707e+01
  -8.052447e+01  -1.033522e+02
  -1.213291e+01  -1.114700e+02
   7.756806e+01  -3.048152e+01
   1.061680e+02   6.752218e+01
   3.864741e+01   1.032666e+02
  -6.454967e+01   6.233108e+01
  -1.022842e+02  -8.169658e+00
  -4.387980e+01  -5.531587e+01
   3.356652e+01  -5.865142e+01
   3.686610e+01  -2.899219e+01
  -2.910096e+01   4.674152e+00
  -6.878078e+01   9.017705e+00
  -1.741800e+01  -2.649075e+01
   7.809850e+01  -6.669842e+01
   1.184820e+02  -5.626125e+01
   6.873643e+01   1.475696e+01
  -1.346367e+01   8.476693e+01
  -5.558786e+01   8.243598e+01
  -4.245548e+01   1.055374e+01
  -6.019153e+00  -5.375895e+01
   2.404615e+01  -4.682435e+01
   3.719991e+01   1.267201e+01
   2.857480e+01   5.368774e+01
  -1.263339e+00   3.753148e+01
  -3.354856e+01  -5.848994e+00
  -4.137220e+01  -2.351613e+01
  -2.069000e+01  -3.329114e+00
   2.776827e+00   1.800286e+01
   6.358007e+00   4.389710e+00
  -8.079793e-01  -3.394067e+01
   6.225879e+00  -5.062363e+01
   2.912557e+01  -1.754253e+01
   3.811170e+01   3.842327e+01
   8.494434e+00   6.071182e+01
  -4.174446e+01   2.469333e+01
  -6.134291e+01  -3.470822e+01
  -1.877731e+01  -6.136796e+01
   5.593917e+01  -3.605462e+01
   9.224137e+01   1.182421e+01
   5.094917e+01   4.305216e+01
  -2.835525e+01   4.436342e+01
  -6.522395e+01   2.667632e+01
  -2.737409e+01   6.402419e+00
   3.171660e+01  -2.148737e+00
   3.549823e+01   9.049159e+00
  -2.528145e+01   2.806121e+01
  -8.270585e+01   2.214962e+01
