
 $NMID
 id='ANONYMOUS ', fmtdat='(2E16.6)'
 volume=1.0
 tramp=1.0
 $END
  -4.419408e+03   8.095026e+01
  -2.610301e+03  -2.640107e+03
   7.394307e+02  -2.823186e+03
   2.170201e+03  -9.045725e+02
   9.720076e+02   7.074443e+02
  -6.909402e+02   6.240866e+02
  -9.364107e+02  -4.400668e+02
  -6.320393e+00  -1.105007e+03
   8.462766e+02  -8.091739e+02
   9.645098e+02   9.625129e+01
   4.651340e+02   8.857838e+02
  -2.480287e+02   9.148537e+02
  -6.621747e+02   1.219574e+02
  -4.059752e+02  -7.363410e+02
   2.715446e+02  -7.710145e+02
   6.253749e+02   4.293677e+00
   2.809914e+02   6.965168e+02
  -3.334732e+02   6.444852e+02
  -5.968602e+02   8.682972e+01
  -3.918054e+02  -3.630140e+02
  -1.430618e+01  -4.455440e+02
   2.476996e+02  -2.699101e+02
   2.231638e+02  -1.817248e+01
  -1.050725e+02   9.704227e+01
  -4.131503e+02  -9.653897e+01
  -2.177532e+02  -4.296555e+02
   4.508656e+02  -4.321027e+02
   8.642474e+02   5.570120e+01
   4.534966e+02   5.537305e+02
  -3.874209e+02   5.077772e+02
  -7.608463e+02  -1.745500e+01
  -3.649852e+02  -4.843117e+02
   2.758319e+02  -5.331935e+02
   5.715630e+02  -2.148288e+02
   4.274567e+02   2.269590e+02
   7.849195e+01   4.864847e+02
  -2.051897e+02   2.976420e+02
  -1.905180e+02  -2.193479e+02
   1.541239e+02  -4.573178e+02
   4.601819e+02   8.430072e-01
   2.710957e+02   6.881043e+02
  -3.113521e+02   7.266721e+02
  -6.249229e+02   1.737951e+01
  -2.813131e+02  -5.659698e+02
   2.940141e+02  -3.391186e+02
   4.052410e+02   3.188872e+02
  -5.509763e+01   5.586837e+02
  -5.600556e+02   1.507976e+02
  -6.082482e+02  -4.009204e+02
  -1.753702e+02  -5.908663e+02
   3.830581e+02  -3.585240e+02
   6.393052e+02   6.549058e+01
   3.852907e+02   3.894048e+02
  -1.540181e+02   3.800503e+02
  -4.556129e+02   6.303761e+01
  -2.512444e+02  -2.053603e+02
   1.243793e+02  -1.186632e+02
   1.561478e+02   1.576708e+02
  -1.641459e+02   2.010857e+02
  -3.590827e+02  -6.881402e+01
  -1.497343e+02  -3.066604e+02
   2.059920e+02  -2.642592e+02
   3.320093e+02  -7.045559e+01
   1.905012e+02   8.519202e+01
  -2.715861e+01   2.148382e+02
  -2.110686e+02   3.202818e+02
  -3.287333e+02   2.255768e+02
  -2.963203e+02  -1.277244e+02
  -9.024797e+01  -4.394172e+02
   1.141687e+02  -3.941232e+02
   1.299744e+02  -1.133922e+02
   2.862426e+01   2.085873e+01
   3.436224e+01  -8.146792e+01
   1.847292e+02  -1.370483e+02
   2.798616e+02   4.056935e+01
   1.701096e+02   2.659735e+02
  -6.284477e+01   2.626839e+02
  -2.287126e+02   2.042213e+01
  -2.068370e+02  -2.347108e+02
   6.121712e-01  -2.972326e+02
   2.638036e+02  -1.262827e+02
   3.672410e+02   1.589353e+02
   1.953628e+02   3.515686e+02
  -9.708644e+01   3.133283e+02
  -2.313744e+02   1.238358e+02
  -1.536120e+02   1.024369e+00
  -9.514029e+01   3.112319e+01
  -2.260682e+02   6.846485e+01
  -3.963234e+02  -4.776648e+01
  -3.347459e+02  -2.763064e+02
  -6.722400e+00  -4.392174e+02
   3.484671e+02  -4.161642e+02
   4.817970e+02  -2.096035e+02
   3.402413e+02   8.516892e+01
   6.366957e+01   2.948777e+02
  -1.273281e+02   2.606672e+02
  -8.819843e+01   3.262959e+01
   1.049342e+02  -1.153797e+02
   2.015784e+02  -2.411351e+00
   5.936193e+01   1.990495e+02
  -1.607798e+02   1.825363e+02
  -1.872816e+02  -5.622922e+01
   1.113313e+01  -1.989188e+02
   1.958283e+02  -4.015768e+01
   1.682304e+02   2.453104e+02
  -2.751312e+01   3.489182e+02
  -2.259091e+02   1.921777e+02
  -3.208678e+02  -5.944792e+01
  -2.770509e+02  -2.300669e+02
  -1.006957e+02  -2.574794e+02
   1.079139e+02  -1.623581e+02
   1.787216e+02  -2.596664e+01
   6.235292e+01   3.243063e+01
  -7.117560e+01  -3.424678e+01
  -3.528758e+01  -1.241402e+02
   1.207251e+02  -1.048991e+02
   1.810882e+02   7.241014e+00
   6.281072e+01   7.250410e+01
  -7.794065e+01   2.090562e+01
  -5.701690e+01  -6.868460e+01
   1.179012e+02  -8.633020e+01
   2.753414e+02  -5.193233e+00
   2.617143e+02   1.306625e+02
   6.670853e+01   2.490779e+02
  -1.748306e+02   2.635793e+02
  -2.802250e+02   1.338785e+02
  -1.741421e+02  -4.814343e+01
   2.078793e+01  -1.132123e+02
   9.329354e+01  -1.239713e+01
  -2.745689e+01   1.032802e+02
  -1.938029e+02   6.583017e+01
  -2.168012e+02  -9.725302e+01
  -7.465846e+01  -2.076309e+02
   9.124194e+01  -1.617005e+02
   1.447748e+02  -3.341920e+01
   7.423216e+01   4.008130e+01
  -2.460090e+01   6.222485e+00
  -3.862454e+01  -7.737761e+01
   6.540457e+01  -1.107245e+02
   1.923520e+02  -3.346794e+01
   1.921507e+02   1.166648e+02
   2.658074e+01   2.163701e+02
  -1.611898e+02   1.676783e+02
  -1.955897e+02   9.536475e+00
  -6.896613e+01  -1.152759e+02
   6.464628e+01  -1.145811e+02
   8.406670e+01  -3.314861e+01
   2.133932e+01   2.511961e+01
  -1.847035e+01   1.964276e+01
   1.012884e+01  -5.582500e+00
   6.761178e+01   9.429771e+00
   8.528195e+01   7.823325e+01
   1.737599e+01   1.526322e+02
  -1.191610e+02   1.512500e+02
  -2.282524e+02   3.150482e+01
  -2.025980e+02  -1.427251e+02
  -4.648843e+01  -2.347331e+02
   1.057066e+02  -1.716242e+02
   1.352353e+02  -2.888339e+01
   7.070294e+01   5.572060e+01
   2.830064e+01   3.620396e+01
   5.220556e+01  -1.241539e+01
   7.735787e+01  -7.195277e+00
   3.967514e+01   4.761843e+01
  -4.110643e+01   8.451152e+01
  -9.727599e+01   5.351048e+01
  -8.121219e+01  -3.274294e+01
   1.134560e+01  -1.056501e+02
   1.345483e+02  -8.553903e+01
   1.928924e+02   4.460016e+01
   1.043742e+02   1.940363e+02
  -9.750944e+01   2.273671e+02
  -2.607490e+02   1.017154e+02
  -2.574149e+02  -7.911279e+01
  -1.132389e+02  -1.734092e+02
   3.528896e+01  -1.474395e+02
   9.278500e+01  -8.548297e+01
   7.865272e+01  -7.006279e+01
   6.575177e+01  -9.034905e+01
   9.025894e+01  -7.366721e+01
   1.261444e+02   2.037604e+01
   1.179183e+02   1.498812e+02
   3.322198e+01   2.221168e+02
  -9.401306e+01   1.720539e+02
  -1.731188e+02   2.464506e+01
  -1.376927e+02  -1.167017e+02
  -2.303890e+01  -1.572500e+02
   6.340984e+01  -9.350425e+01
   5.850635e+01  -3.566331e+00
   6.352631e+00   4.021288e+01
  -7.642893e+00   3.355286e+01
   3.717572e+01   1.804081e+01
   7.762078e+01   2.198628e+01
   4.372678e+01   3.676383e+01
  -6.085981e+01   3.652873e+01
  -1.527773e+02   5.532562e+00
  -1.409941e+02  -4.659342e+01
  -1.831365e+01  -8.509912e+01
   1.154537e+02  -7.432485e+01
   1.421850e+02  -1.652697e+01
   4.860238e+01   3.814276e+01
  -5.869818e+01   3.691139e+01
  -7.456834e+01  -1.767104e+01
  -7.059158e+00  -6.662968e+01
   5.527665e+01  -5.689546e+01
   6.163510e+01   1.798621e+00
   4.231724e+01   4.875962e+01
   4.264698e+01   4.039304e+01
   6.101191e+01   1.307821e+00
   6.509016e+01  -4.129533e-01
   3.425540e+01   6.544942e+01
  -3.096718e+01   1.425451e+02
  -1.109329e+02   1.393213e+02
  -1.584229e+02   3.458222e+01
  -1.211581e+02  -8.716318e+01
  -8.758009e+00  -1.226043e+02
   8.272519e+01  -6.046417e+01
   5.879809e+01   1.440162e+01
  -5.783319e+01   2.051763e+01
  -1.360967e+02  -4.071563e+01
  -7.689211e+01  -1.041809e+02
   7.694372e+01  -1.119266e+02
   1.867317e+02  -5.507286e+01
   1.609036e+02   2.958168e+01
   3.891973e+01   8.459929e+01
  -5.810125e+01   7.103466e+01
  -4.794244e+01   9.102977e+00
   3.747409e+01  -2.643440e+01
   8.894937e+01   2.110862e+01
   3.332894e+01   1.164171e+02
  -8.885297e+01   1.527343e+02
  -1.646923e+02   6.284148e+01
  -1.260286e+02  -9.787437e+01
  -1.246018e+01  -1.944740e+02
   8.210685e+01  -1.433340e+02
   1.027793e+02   4.334012e+00
   6.206494e+01   1.144120e+02
   1.446502e+00   1.048555e+02
  -4.384151e+01   2.115890e+01
  -5.239303e+01  -2.956893e+01
  -2.680042e+01  -8.051932e+00
  -3.241860e+00   2.062620e+01
  -1.904755e+01  -1.384612e+01
  -5.568024e+01  -8.587638e+01
  -4.429524e+01  -1.071527e+02
   4.407172e+01  -4.528577e+01
   1.366744e+02   3.698896e+01
   1.295479e+02   6.788950e+01
   1.779404e+01   4.808188e+01
  -8.704531e+01   2.266375e+01
  -8.684106e+01   9.083472e+00
  -9.803334e+00  -6.625199e+00
   3.806813e+01  -2.266470e+01
   1.281204e+01  -1.866759e+01
  -2.186701e+01   1.565078e+00
   6.180103e+00   9.253590e+00
   7.401768e+01   3.400578e+00
   8.987531e+01   2.256247e+01
   7.492393e+00   7.872551e+01
  -1.163591e+02   1.130645e+02
  -1.809451e+02   5.838009e+01
  -1.382985e+02  -6.574987e+01
  -2.635336e+01  -1.589313e+02
   7.551943e+01  -1.470430e+02
   1.109763e+02  -5.767357e+01
   7.929313e+01   2.047459e+01
   2.454822e+01   3.405900e+01
  -3.640010e+00   8.083291e+00
   9.463823e+00   3.322273e+00
   3.330504e+01   4.381128e+01
   2.400924e+01   8.763029e+01
  -2.773570e+01   7.048391e+01
  -8.013054e+01  -1.761829e+01
  -7.648399e+01  -1.061746e+02
  -4.181844e+00  -1.103040e+02
   8.157686e+01  -2.327805e+01
   1.016082e+02   7.420492e+01
   3.145993e+01   1.012360e+02
  -6.499600e+01   5.406972e+01
  -9.521456e+01  -1.124933e+01
  -3.784802e+01  -4.824646e+01
   3.150480e+01  -4.966966e+01
   2.914255e+01  -2.759121e+01
  -3.450135e+01   2.794031e-01
  -6.796162e+01   7.053540e+00
  -1.436224e+01  -2.417585e+01
   7.687431e+01  -6.557418e+01
   1.115863e+02  -5.929279e+01
   6.147217e+01   1.045808e+01
  -1.488213e+01   8.119188e+01
  -5.038675e+01   7.765015e+01
  -3.523669e+01   4.780920e+00
  -1.366798e+00  -5.528582e+01
   2.513621e+01  -4.153858e+01
   3.594316e+01   1.860587e+01
   2.628100e+01   5.262674e+01
  -2.848548e+00   3.127512e+01
  -3.253841e+01  -8.480878e+00
  -3.862225e+01  -1.964036e+01
  -2.003680e+01  -3.526027e-01
   2.983738e-01   1.314335e+01
   6.384487e+00  -4.483128e+00
   7.279485e+00  -3.670640e+01
   1.785689e+01  -4.326617e+01
   3.249133e+01  -6.158594e+00
   2.894138e+01   4.526230e+01
  -3.276065e+00   6.015897e+01
  -4.412995e+01   1.999625e+01
  -5.499757e+01  -3.880669e+01
  -1.419870e+01  -6.206388e+01
   5.311774e+01  -3.345973e+01
   8.653443e+01   1.487130e+01
   4.820605e+01   4.276380e+01
  -2.792548e+01   3.950092e+01
  -6.325946e+01   2.062020e+01
  -2.307963e+01   4.565143e+00
   3.772898e+01   2.301253e+00
   3.782171e+01   1.610526e+01
  -3.056566e+01   3.180191e+01
  -9.071872e+01   2.031961e+01
