
 $NMID
 id='ANONYMOUS ', fmtdat='(2E16.6)'
 volume=1.0
 tramp=1.0
 $END
  -3.535670e+03   8.516933e-01
  -2.320109e+03  -1.824542e+03
   4.530012e+01  -2.251446e+03
   1.400886e+03  -1.304891e+03
   1.021163e+03  -1.387717e+02
  -1.991585e+01   2.595521e+02
  -4.463009e+02  -1.279578e+02
  -6.266480e+01  -6.331702e+02
   5.074152e+02  -6.435602e+02
   7.164522e+02  -8.421068e+01
   4.688408e+02   5.718930e+02
  -9.413170e+00   7.173872e+02
  -3.543773e+02   1.994422e+02
  -2.824955e+02  -4.664649e+02
   1.302921e+02  -5.993338e+02
   4.504402e+02  -8.293771e+01
   3.210497e+02   5.334839e+02
  -1.465088e+02   6.669798e+02
  -5.093801e+02   2.805160e+02
  -4.687499e+02  -2.010998e+02
  -1.329629e+02  -3.920066e+02
   1.388868e+02  -2.662003e+02
   9.087198e+01  -8.104488e+01
  -1.819615e+02  -8.585084e+01
  -3.023575e+02  -2.742870e+02
  -6.612787e+00  -3.860723e+02
   4.927975e+02  -1.979742e+02
   6.633846e+02   1.823534e+02
   2.594412e+02   3.989124e+02
  -3.437427e+02   2.438231e+02
  -5.540711e+02  -1.259169e+02
  -2.179346e+02  -3.936623e+02
   2.766750e+02  -3.880118e+02
   4.909321e+02  -1.458735e+02
   3.518697e+02   1.735762e+02
   9.080895e+01   3.452819e+02
  -4.837617e+01   2.080634e+02
   1.681902e+01  -1.053493e+02
   1.842350e+02  -1.969809e+02
   2.383781e+02   1.327944e+02
   4.302971e+01   5.377553e+02
  -2.669512e+02   4.948583e+02
  -3.752679e+02   4.825980e+00
  -1.468339e+02  -3.559767e+02
   1.713784e+02  -1.697111e+02
   2.076374e+02   2.884658e+02
  -1.121127e+02   4.261771e+02
  -4.793790e+02   6.997090e+01
  -5.240891e+02  -3.943328e+02
  -1.665101e+02  -5.323964e+02
   3.227133e+02  -2.923869e+02
   5.579100e+02   6.595323e+01
   3.652665e+02   2.786491e+02
  -5.745848e+01   2.562645e+02
  -3.207999e+02   8.838508e+01
  -2.348793e+02  -4.673002e+01
   2.617486e+00  -3.546084e+01
   6.356858e+01   5.968813e+01
  -1.087404e+02   7.625451e+01
  -2.527773e+02  -5.032781e+01
  -1.355544e+02  -2.136777e+02
   1.643943e+02  -2.623785e+02
   3.619447e+02  -1.388972e+02
   2.748144e+02   1.023579e+02
  -2.398702e+01   3.309328e+02
  -3.066406e+02   3.829636e+02
  -3.870654e+02   1.745100e+02
  -2.526514e+02  -1.701610e+02
  -5.406603e+01  -3.868414e+02
   4.546476e+01  -3.424544e+02
   3.299265e+01  -1.769958e+02
   3.572850e+01  -1.011743e+02
   1.379309e+02  -1.189854e+02
   2.596751e+02  -6.338766e+01
   2.570730e+02   1.225135e+02
   1.000396e+02   2.733816e+02
  -9.957594e+01   2.081964e+02
  -2.041275e+02  -4.016650e+01
  -1.461909e+02  -2.578634e+02
   4.880018e+01  -2.666033e+02
   2.617448e+02  -6.880345e+01
   3.278661e+02   1.830192e+02
   1.781731e+02   3.198232e+02
  -5.921750e+01   2.835205e+02
  -1.817993e+02   1.595103e+02
  -1.563788e+02   7.760913e+01
  -1.530756e+02   6.900201e+01
  -2.904140e+02   4.030676e+01
  -4.327309e+02  -9.982650e+01
  -3.373817e+02  -3.152382e+02
   2.684576e+01  -4.621774e+02
   4.033221e+02  -4.175577e+02
   5.071718e+02  -1.827776e+02
   3.057687e+02   1.071511e+02
   2.158058e+01   2.683835e+02
  -1.027291e+02   2.119078e+02
  -1.796582e+01   3.865846e+01
   1.236561e+02  -4.698988e+01
   1.422064e+02   3.816632e+01
   1.095568e+01   1.537321e+02
  -1.273722e+02   1.147715e+02
  -1.204058e+02  -5.667250e+01
   2.999992e+01  -1.427755e+02
   1.725970e+02  -1.515829e+00
   1.593499e+02   2.495869e+02
  -2.373051e+01   3.612869e+02
  -2.557748e+02   2.174903e+02
  -3.756341e+02  -6.690829e+01
  -2.935712e+02  -2.779627e+02
  -6.457867e+01  -2.905588e+02
   1.365673e+02  -1.487789e+02
   1.613858e+02  -5.898527e+00
   3.831632e+01   1.632305e+01
  -5.483677e+01  -6.406366e+01
   2.991115e+00  -1.211293e+02
   1.319757e+02  -7.131559e+01
   1.569021e+02   2.901257e+01
   3.403923e+01   5.971217e+01
  -8.716353e+01  -1.245568e+01
  -4.110018e+01  -9.831281e+01
   1.570901e+02  -9.228279e+01
   3.186893e+02   2.431140e+01
   2.714394e+02   1.811935e+02
   2.876710e+01   2.785041e+02
  -2.207145e+02   2.472553e+02
  -2.857202e+02   1.012508e+02
  -1.466553e+02  -5.009085e+01
   3.230203e+01  -8.396073e+01
   6.929372e+01   5.281086e+00
  -5.624253e+01   8.554899e+01
  -1.964184e+02   3.458048e+01
  -1.987457e+02  -1.115031e+02
  -5.797055e+01  -1.997839e+02
   9.515459e+01  -1.432971e+02
   1.330256e+02  -1.703613e+01
   4.924782e+01   3.915917e+01
  -4.454217e+01  -2.196737e+01
  -2.867152e+01  -1.160106e+02
   1.031283e+02  -1.246535e+02
   2.235396e+02  -1.215638e+01
   1.920459e+02   1.439645e+02
   9.619736e+00   2.211414e+02
  -1.666908e+02   1.580353e+02
  -1.849510e+02   9.963788e+00
  -5.770629e+01  -1.010039e+02
   6.604822e+01  -1.003121e+02
   7.442808e+01  -2.555003e+01
   1.327720e+00   2.640512e+01
  -3.927546e+01   9.361451e+00
   9.473335e+00  -2.687562e+01
   9.364552e+01  -1.393077e+00
   1.108702e+02   9.772026e+01
   1.063316e+01   1.864079e+02
  -1.523314e+02   1.617384e+02
  -2.530109e+02   8.997081e+00
  -2.024950e+02  -1.697132e+02
  -3.734453e+01  -2.422215e+02
   1.085875e+02  -1.680604e+02
   1.368546e+02  -3.171999e+01
   7.764311e+01   4.726891e+01
   3.555117e+01   3.095828e+01
   5.901823e+01  -1.492724e+01
   9.298859e+01  -6.969492e+00
   5.944983e+01   6.109556e+01
  -4.295718e+01   1.124556e+02
  -1.305689e+02   7.141601e+01
  -1.133544e+02  -4.779806e+01
   1.924480e+01  -1.378382e+02
   1.744299e+02  -9.469461e+01
   2.180757e+02   7.135491e+01
   8.831105e+01   2.268444e+02
  -1.343283e+02   2.340021e+02
  -2.841721e+02   8.389781e+01
  -2.577055e+02  -9.785289e+01
  -1.028479e+02  -1.796280e+02
   4.356876e+01  -1.453927e+02
   9.411612e+01  -8.373183e+01
   7.408420e+01  -7.339150e+01
   6.227455e+01  -9.971700e+01
   9.615486e+01  -8.385510e+01
   1.393560e+02   1.995835e+01
   1.252898e+02   1.635345e+02
   2.659091e+01   2.388603e+02
  -1.073136e+02   1.753947e+02
  -1.800089e+02   1.072723e+01
  -1.326531e+02  -1.354541e+02
  -8.548248e+00  -1.652183e+02
   8.042371e+01  -8.477013e+01
   6.625403e+01   1.557555e+01
  -4.469286e+00   5.678001e+01
  -2.854610e+01   3.787435e+01
   2.892779e+01   1.276900e+01
   8.945089e+01   1.932417e+01
   5.284970e+01   4.285985e+01
  -7.783365e+01   4.189968e+01
  -1.840448e+02  -3.267719e+00
  -1.524297e+02  -6.830323e+01
   1.402764e+00  -1.036749e+02
   1.429825e+02  -7.681065e+01
   1.540382e+02  -4.665059e+00
   4.647438e+01   5.357076e+01
  -6.378154e+01   4.617340e+01
  -8.270427e+01  -1.952115e+01
  -1.989852e+01  -7.832594e+01
   4.907912e+01  -6.984694e+01
   7.284916e+01  -2.411369e+00
   6.121386e+01   5.404423e+01
   5.073940e+01   4.624035e+01
   5.859543e+01   2.113641e+00
   6.876067e+01   1.451681e+00
   4.685602e+01   7.715006e+01
  -2.913607e+01   1.619729e+02
  -1.338783e+02   1.540927e+02
  -1.917131e+02   3.460945e+01
  -1.381575e+02  -1.011479e+02
  -1.552778e+00  -1.411900e+02
   9.864635e+01  -7.317507e+01
   6.608173e+01   1.147968e+01
  -6.153315e+01   2.165650e+01
  -1.411577e+02  -4.432020e+01
  -7.390690e+01  -1.125281e+02
   8.891035e+01  -1.146298e+02
   1.996156e+02  -4.528372e+01
   1.647136e+02   4.404205e+01
   3.168013e+01   8.989494e+01
  -6.809918e+01   6.395150e+01
  -5.121691e+01  -1.631934e+00
   4.262650e+01  -3.280630e+01
   9.815591e+01   2.062817e+01
   4.239398e+01   1.222431e+02
  -8.333679e+01   1.650134e+02
  -1.663744e+02   7.505672e+01
  -1.338404e+02  -9.599514e+01
  -1.755890e+01  -2.027196e+02
   8.646413e+01  -1.481009e+02
   1.095059e+02   1.235997e+01
   5.755627e+01   1.269508e+02
  -1.428193e+01   1.081699e+02
  -5.450654e+01   1.518740e+01
  -4.767761e+01  -3.412037e+01
  -1.767748e+01  -7.739310e+00
  -6.263883e+00   1.841724e+01
  -3.201156e+01  -2.261334e+01
  -6.079555e+01  -9.510059e+01
  -3.357689e+01  -1.106362e+02
   5.906222e+01  -4.444695e+01
   1.429893e+02   3.929628e+01
   1.292382e+02   7.311451e+01
   1.930409e+01   5.618264e+01
  -8.482007e+01   2.740357e+01
  -9.105774e+01   5.948859e+00
  -1.834351e+01  -1.234813e+01
   3.620971e+01  -2.262955e+01
   2.049867e+01  -1.336874e+01
  -1.560080e+01   4.265915e+00
   3.042402e+00   5.812053e+00
   7.018907e+01  -1.408650e+00
   9.823059e+01   2.255340e+01
   2.334493e+01   8.559476e+01
  -1.127132e+02   1.253438e+02
  -1.984215e+02   7.114675e+01
  -1.618283e+02  -6.102010e+01
  -3.505221e+01  -1.678999e+02
   8.419290e+01  -1.642126e+02
   1.229932e+02  -6.999957e+01
   8.515678e+01   1.975690e+01
   2.810946e+01   4.004339e+01
   2.661453e+00   1.392512e+01
   1.465481e+01   8.982219e+00
   3.198315e+01   5.177222e+01
   1.901782e+01   9.604472e+01
  -3.058979e+01   7.588825e+01
  -8.279698e+01  -1.526817e+01
  -8.512164e+01  -1.065931e+02
  -1.593351e+01  -1.164114e+02
   7.868490e+01  -3.464394e+01
   1.121320e+02   6.749050e+01
   4.327403e+01   1.084903e+02
  -6.702363e+01   6.859975e+01
  -1.098602e+02  -7.284710e+00
  -4.869067e+01  -6.110301e+01
   3.592238e+01  -6.543133e+01
   4.233206e+01  -3.103965e+01
  -2.747575e+01   6.601379e+00
  -7.202870e+01   9.980587e+00
  -1.960264e+01  -2.870403e+01
   8.233132e+01  -6.962596e+01
   1.273385e+02  -5.672368e+01
   7.531406e+01   1.757206e+01
  -1.367888e+01   8.993188e+01
  -6.076129e+01   8.815710e+01
  -4.758488e+01   1.392663e+01
  -8.162880e+00  -5.507362e+01
   2.455192e+01  -5.119385e+01
   3.901776e+01   1.044484e+01
   3.062409e+01   5.652705e+01
  -4.668195e-01   4.210681e+01
  -3.529115e+01  -4.953973e+00
  -4.450243e+01  -2.653654e+01
  -2.200059e+01  -5.032878e+00
   4.236712e+00   2.105314e+01
   7.007401e+00   8.990642e+00
  -4.490543e+00  -3.361801e+01
   7.100752e-01  -5.578122e+01
   2.825089e+01  -2.355332e+01
   4.366973e+01   3.645695e+01
   1.430940e+01   6.301952e+01
  -4.224485e+01   2.767453e+01
  -6.663443e+01  -3.421557e+01
  -2.141210e+01  -6.349328e+01
   5.977280e+01  -3.863594e+01
   9.870352e+01   1.111169e+01
   5.418618e+01   4.518083e+01
  -2.979631e+01   4.846698e+01
  -6.880125e+01   3.047403e+01
  -3.059118e+01   7.613398e+00
   2.988095e+01  -3.952133e+00
   3.544754e+01   6.276853e+00
  -2.408517e+01   2.698450e+01
  -8.226787e+01   2.308989e+01
