
 $NMID
 id='ANONYMOUS ', fmtdat='(2E16.6)'
 volume=1.0
 tramp=1.0
 $END
   2.415489e+03  -4.266989e+01
   1.558934e+03   1.296241e+03
  -1.293227e+02   1.555545e+03
  -1.034191e+03   7.881094e+02
  -6.636192e+02  -5.384206e+01
   1.189850e+02  -2.428737e+02
   3.767390e+02   1.237475e+02
   4.225847e+01   4.874606e+02
  -3.778450e+02   4.493486e+02
  -5.051728e+02   3.036508e+01
  -3.080847e+02  -4.189667e+02
   4.064512e+01  -4.986164e+02
   2.808112e+02  -1.220785e+02
   2.091535e+02   3.416996e+02
  -1.023602e+02   4.168207e+02
  -3.202122e+02   4.319708e+01
  -2.038530e+02  -3.697516e+02
   1.244802e+02  -4.280160e+02
   3.447528e+02  -1.499634e+02
   2.912787e+02   1.568889e+02
   6.716550e+01   2.625449e+02
  -1.067964e+02   1.739390e+02
  -8.195063e+01   4.425122e+01
   9.986542e+01   2.490265e+01
   2.097270e+02   1.422621e+02
   4.229762e+01   2.504207e+02
  -3.032027e+02   1.673666e+02
  -4.573425e+02  -8.916586e+01
  -2.038162e+02  -2.773170e+02
   2.215344e+02  -2.032465e+02
   3.885162e+02   5.627733e+01
   1.678115e+02   2.640971e+02
  -1.730525e+02   2.742475e+02
  -3.265803e+02   1.083385e+02
  -2.400533e+02  -1.178054e+02
  -6.003754e+01  -2.454429e+02
   5.532985e+01  -1.521103e+02
   2.734174e+01   8.266513e+01
  -1.068967e+02   1.706051e+02
  -1.882616e+02  -5.722682e+01
  -7.120585e+01  -3.654245e+02
   1.724238e+02  -3.584609e+02
   2.829028e+02  -1.154989e+01
   1.225092e+02   2.607934e+02
  -1.267486e+02   1.407839e+02
  -1.682849e+02  -1.853416e+02
   5.814138e+01  -2.949027e+02
   3.191418e+02  -6.168563e+01
   3.515235e+02   2.506488e+02
   1.109450e+02   3.505838e+02
  -2.149488e+02   2.008721e+02
  -3.716730e+02  -3.893308e+01
  -2.406501e+02  -1.960912e+02
   5.000127e+01  -1.876009e+02
   2.289414e+02  -5.605515e+01
   1.568239e+02   5.605814e+01
  -2.062373e+01   3.952352e+01
  -5.879641e+01  -5.286513e+01
   7.631483e+01  -7.167330e+01
   1.807099e+02   3.247155e+01
   9.186171e+01   1.521691e+02
  -1.117115e+02   1.698270e+02
  -2.279384e+02   7.770107e+01
  -1.616591e+02  -6.369670e+01
   1.745563e+01  -1.924121e+02
   1.804816e+02  -2.335808e+02
   2.365645e+02  -1.204138e+02
   1.689718e+02   1.001948e+02
   4.301470e+01   2.560159e+02
  -3.884076e+01   2.299022e+02
  -3.857060e+01   1.047204e+02
  -2.398589e+01   4.394816e+01
  -7.117760e+01   6.804703e+01
  -1.519043e+02   5.234649e+01
  -1.672721e+02  -6.333442e+01
  -7.669031e+01  -1.722025e+02
   5.582196e+01  -1.422520e+02
   1.338672e+02   1.431045e+01
   1.042856e+02   1.596379e+02
  -2.166253e+01   1.752298e+02
  -1.667135e+02   5.468623e+01
  -2.168707e+02  -1.114548e+02
  -1.186917e+02  -2.095602e+02
   4.301241e+01  -1.877799e+02
   1.253079e+02  -9.769376e+01
   1.011629e+02  -3.703338e+01
   8.882646e+01  -3.695434e+01
   1.744427e+02  -3.008780e+01
   2.703164e+02   5.466430e+01
   2.158439e+02   1.945259e+02
  -1.068069e+01   2.916769e+02
  -2.480156e+02   2.673521e+02
  -3.196671e+02   1.225997e+02
  -2.017046e+02  -6.335050e+01
  -2.232389e+01  -1.755989e+02
   6.843159e+01  -1.449570e+02
   2.353464e+01  -2.528203e+01
  -7.448448e+01   4.174820e+01
  -1.005391e+02  -1.588309e+01
  -1.667417e+01  -1.052242e+02
   8.559825e+01  -8.619814e+01
   8.874704e+01   3.450303e+01
  -1.442461e+01   1.007884e+02
  -1.137750e+02   8.540872e+00
  -1.042521e+02  -1.586154e+02
   1.511992e+01  -2.296008e+02
   1.587718e+02  -1.351522e+02
   2.314350e+02   4.173040e+01
   1.850989e+02   1.695170e+02
   4.766581e+01   1.796420e+02
  -8.194031e+01   9.745207e+01
  -1.059623e+02   8.021247e+00
  -2.905095e+01  -1.260045e+01
   3.748611e+01   3.547116e+01
   5.020654e+00   7.735212e+01
  -8.176169e+01   5.157432e+01
  -1.043192e+02  -1.393178e+01
  -2.716823e+01  -3.975619e+01
   5.362161e+01   2.238129e+00
   2.870805e+01   5.750239e+01
  -9.386333e+01   5.773786e+01
  -1.963033e+02  -1.057763e+01
  -1.717514e+02  -1.069597e+02
  -2.506782e+01  -1.726000e+02
   1.326011e+02  -1.609082e+02
   1.812257e+02  -7.114434e+01
   9.879245e+01   3.078736e+01
  -1.788700e+01   5.865833e+01
  -4.815533e+01   3.337938e-01
   3.052010e+01  -5.740931e+01
   1.246925e+02  -2.799052e+01
   1.304784e+02   6.810342e+01
   4.072509e+01   1.288802e+02
  -5.953663e+01   9.517110e+01
  -8.687733e+01   1.433400e+01
  -3.596164e+01  -2.459281e+01
   2.460766e+01   9.562401e+00
   1.958159e+01   6.746779e+01
  -5.960575e+01   7.700522e+01
  -1.374666e+02   1.139098e+01
  -1.229313e+02  -8.707805e+01
  -9.573434e+00  -1.405414e+02
   1.052611e+02  -1.032850e+02
   1.203442e+02  -7.048960e+00
   3.949131e+01   6.677982e+01
  -4.151580e+01   6.688600e+01
  -4.912055e+01   1.808380e+01
  -4.315614e+00  -1.627832e+01
   2.137626e+01  -7.425591e+00
  -6.559683e+00   1.362828e+01
  -5.579967e+01  -1.247590e+00
  -6.654929e+01  -5.953949e+01
  -7.768458e+00  -1.135368e+02
   9.174546e+01  -1.015949e+02
   1.574381e+02  -9.787630e+00
   1.297061e+02   1.036062e+02
   2.600907e+01   1.536772e+02
  -6.856798e+01   1.085669e+02
  -8.741324e+01   2.019022e+01
  -4.888915e+01  -3.167333e+01
  -2.174433e+01  -2.079405e+01
  -3.667594e+01   9.157589e+00
  -5.690701e+01   4.432232e+00
  -3.461021e+01  -3.711065e+01
   2.749730e+01  -6.738437e+01
   7.818193e+01  -4.237247e+01
   6.697760e+01   2.843044e+01
  -1.128499e+01   8.273509e+01
  -1.049200e+02   5.876977e+01
  -1.351059e+02  -4.109422e+01
  -5.928087e+01  -1.392085e+02
   7.930195e+01  -1.484441e+02
   1.775314e+02  -5.710858e+01
   1.650021e+02   5.881199e+01
   6.806074e+01   1.135673e+02
  -2.606622e+01   9.348513e+01
  -5.982845e+01   5.419926e+01
  -4.813272e+01   4.677306e+01
  -4.043174e+01   6.255906e+01
  -6.060727e+01   5.214774e+01
  -8.712767e+01  -1.275803e+01
  -7.920881e+01  -1.022953e+02
  -1.848233e+01  -1.500244e+02
   6.609695e+01  -1.118646e+02
   1.138766e+02  -9.605002e+00
   8.586342e+01   8.314329e+01
   8.242604e+00   1.042062e+02
  -4.822253e+01   5.568854e+01
  -4.078069e+01  -6.693691e+00
   1.209021e+00  -3.334668e+01
   1.471229e+01  -2.317456e+01
  -2.009716e+01  -8.830811e+00
  -5.542247e+01  -1.284364e+01
  -3.230521e+01  -2.647655e+01
   4.698572e+01  -2.579449e+01
   1.124455e+02   7.433919e-01
   9.547668e+01   3.989093e+01
   2.363118e+00   6.286456e+01
  -8.678251e+01   4.862063e+01
  -9.644289e+01   5.191585e+00
  -2.997346e+01  -3.152732e+01
   4.008078e+01  -2.808143e+01
   5.163451e+01   1.213959e+01
   1.052970e+01   4.842147e+01
  -3.259704e+01   4.282254e+01
  -4.485944e+01   7.905682e-01
  -3.604453e+01  -3.396728e+01
  -3.114325e+01  -2.866984e+01
  -3.795864e+01  -1.004179e+00
  -4.340997e+01  -4.995514e-01
  -2.784567e+01  -4.758754e+01
   1.895090e+01  -1.006173e+02
   8.177636e+01  -9.612767e+01
   1.170969e+02  -2.200446e+01
   8.563226e+01   6.241962e+01
   2.223442e+00   8.716456e+01
  -6.057428e+01   4.466633e+01
  -4.120446e+01  -7.828542e+00
   3.877207e+01  -1.377802e+01
   8.965722e+01   2.750848e+01
   4.801536e+01   7.043209e+01
  -5.468358e+01   7.300335e+01
  -1.254114e+02   3.097627e+01
  -1.047391e+02  -2.538407e+01
  -2.167873e+01  -5.647334e+01
   4.161408e+01  -4.217691e+01
   3.204594e+01  -8.602533e-01
  -2.648542e+01   1.994760e+01
  -6.140770e+01  -1.322724e+01
  -2.583842e+01  -7.743137e+01
   5.416119e+01  -1.040150e+02
   1.064018e+02  -4.644501e+01
   8.475582e+01   6.164496e+01
   1.076903e+01   1.285846e+02
  -5.436683e+01   9.425823e+01
  -6.890362e+01  -6.390692e+00
  -3.774688e+01  -7.897325e+01
   6.238251e+00  -6.847280e+01
   3.294602e+01  -1.067979e+01
   3.136282e+01   2.086069e+01
   1.291703e+01   4.772351e+00
   3.401026e+00  -1.213544e+01
   1.818033e+01   1.318183e+01
   3.816100e+01   5.931942e+01
   2.358437e+01   6.999838e+01
  -3.515468e+01   2.847813e+01
  -9.063053e+01  -2.453144e+01
  -8.298022e+01  -4.560691e+01
  -1.209905e+01  -3.460514e+01
   5.477042e+01  -1.703596e+01
   5.756079e+01  -4.510865e+00
   1.021149e+01   7.066664e+00
  -2.346302e+01   1.464979e+01
  -1.167661e+01   9.368212e+00
   1.111523e+01  -2.448338e+00
  -2.574871e+00  -4.238516e+00
  -4.573981e+01   3.560180e-01
  -6.159636e+01  -1.436250e+01
  -1.234599e+01  -5.395927e+01
   7.278015e+01  -7.863018e+01
   1.242667e+02  -4.359945e+01
   9.997314e+01   3.996940e+01
   2.125494e+01   1.061709e+02
  -5.239127e+01   1.023687e+02
  -7.684714e+01   4.284648e+01
  -5.364957e+01  -1.267459e+01
  -1.739261e+01  -2.464121e+01
  -5.443243e-01  -8.053136e+00
  -8.411428e+00  -4.859446e+00
  -2.070034e+01  -3.170729e+01
  -1.312976e+01  -5.996473e+01
   1.902366e+01  -4.774178e+01
   5.270536e+01   1.001537e+01
   5.336896e+01   6.819724e+01
   8.397423e+00   7.377531e+01
  -5.107198e+01   2.054183e+01
  -7.040187e+01  -4.431812e+01
  -2.586467e+01  -6.842808e+01
   4.273024e+01  -4.162922e+01
   6.801716e+01   5.352547e+00
   2.925319e+01   3.706242e+01
  -2.242224e+01   3.925159e+01
  -2.486672e+01   1.914406e+01
   1.892633e+01  -3.375463e+00
   4.550656e+01  -6.010031e+00
   1.165270e+01   1.768096e+01
  -5.173164e+01   4.404692e+01
  -7.871607e+01   3.681504e+01
  -4.580628e+01  -1.013200e+01
   8.909403e+00  -5.621226e+01
   3.715133e+01  -5.465822e+01
   2.854493e+01  -7.234345e+00
   4.227564e+00   3.545699e+01
  -1.589911e+01   3.124354e+01
  -2.468463e+01  -8.046123e+00
  -1.896036e+01  -3.557211e+01
   8.187020e-01  -2.518964e+01
   2.223794e+01   3.738514e+00
   2.744700e+01   1.583189e+01
   1.368087e+01   2.406986e+00
  -1.933705e+00  -1.221429e+01
  -4.125118e+00  -3.454501e+00
   1.025518e+00   2.231155e+01
  -3.494933e+00   3.397940e+01
  -1.913450e+01   1.229247e+01
  -2.576083e+01  -2.506218e+01
  -6.280929e+00  -4.023601e+01
   2.748489e+01  -1.658284e+01
   4.091306e+01   2.277684e+01
   1.263698e+01   4.054538e+01
  -3.717733e+01   2.390401e+01
  -6.129557e+01  -7.748924e+00
  -3.378291e+01  -2.852262e+01
   1.883406e+01  -2.957609e+01
   4.327574e+01  -1.792192e+01
   1.836764e+01  -4.284830e+00
  -2.061433e+01   1.713157e+00
  -2.335089e+01  -5.554218e+00
   1.636831e+01  -1.832232e+01
   5.416848e+01  -1.473207e+01
