
 $NMID
 id='ANONYMOUS ', fmtdat='(2E16.6)'
 volume=1.0
 tramp=1.0
 $END
  -3.970366e+03  -1.264398e+02
  -2.335917e+03  -2.337782e+03
   5.318264e+02  -2.489037e+03
   1.821051e+03  -9.765231e+02
   9.360884e+02   3.558408e+02
  -4.145586e+02   4.152500e+02
  -6.844793e+02  -3.391973e+02
   1.741746e+01  -8.798045e+02
   7.159355e+02  -6.878032e+02
   8.337175e+02   5.380396e+01
   4.226624e+02   7.502717e+02
  -1.748771e+02   8.005902e+02
  -5.191868e+02   1.247425e+02
  -3.143420e+02  -6.233202e+02
   2.355204e+02  -6.716450e+02
   5.370161e+02  -8.927091e+00
   2.671365e+02   6.231872e+02
  -2.676027e+02   6.294533e+02
  -5.481504e+02   1.486945e+02
  -4.040124e+02  -2.979099e+02
  -5.004689e+01  -4.132513e+02
   2.053951e+02  -2.534384e+02
   1.607454e+02  -3.500257e+01
  -1.450033e+02   1.313861e+01
  -3.591172e+02  -1.901993e+02
  -1.058149e+02  -4.165131e+02
   4.829793e+02  -3.081795e+02
   7.641828e+02   1.448443e+02
   3.389090e+02   4.973543e+02
  -3.859401e+02   3.697909e+02
  -6.605470e+02  -9.573798e+01
  -2.762566e+02  -4.531517e+02
   2.937325e+02  -4.520733e+02
   5.366519e+02  -1.599822e+02
   3.789830e+02   2.164331e+02
   6.297237e+01   4.195577e+02
  -1.452421e+02   2.432242e+02
  -8.619035e+01  -1.771527e+02
   1.867626e+02  -3.313011e+02
   3.586932e+02   7.983611e+01
   1.396577e+02   6.263344e+02
  -3.173635e+02   6.022855e+02
  -5.066395e+02  -1.544686e+01
  -1.938062e+02  -4.778351e+02
   2.511185e+02  -2.466423e+02
   3.006485e+02   3.192225e+02
  -1.015413e+02   4.916009e+02
  -5.233831e+02   9.202696e+01
  -5.485395e+02  -4.148889e+02
  -1.474616e+02  -5.627263e+02
   3.646444e+02  -3.097368e+02
   5.919548e+02   8.839966e+01
   3.550862e+02   3.485058e+02
  -1.249890e+02   3.124824e+02
  -3.911237e+02   5.468895e+01
  -2.297518e+02  -1.413412e+02
   7.481995e+01  -7.319899e+01
   1.054200e+02   1.196163e+02
  -1.470582e+02   1.362401e+02
  -3.042311e+02  -7.434466e+01
  -1.287321e+02  -2.666390e+02
   1.937116e+02  -2.516454e+02
   3.412536e+02  -8.902073e+01
   2.224505e+02   9.608302e+01
  -3.000919e+01   2.619674e+02
  -2.596586e+02   3.383355e+02
  -3.585915e+02   1.899409e+02
  -2.694083e+02  -1.557058e+02
  -5.680514e+01  -4.137917e+02
   9.682219e+01  -3.601718e+02
   8.770547e+01  -1.331597e+02
   2.782355e+01  -3.247550e+01
   8.147455e+01  -9.806373e+01
   2.214995e+02  -9.800686e+01
   2.662787e+02   8.619740e+01
   1.278525e+02   2.728161e+02
  -8.834779e+01   2.335615e+02
  -2.166595e+02  -1.496185e+01
  -1.696360e+02  -2.499847e+02
   3.269431e+01  -2.805226e+02
   2.647175e+02  -9.006855e+01
   3.397153e+02   1.806854e+02
   1.722565e+02   3.395430e+02
  -9.033606e+01   2.914798e+02
  -2.095602e+02   1.287686e+02
  -1.508882e+02   2.963321e+01
  -1.195186e+02   4.548264e+01
  -2.541811e+02   4.883709e+01
  -4.062468e+02  -8.270722e+01
  -3.225698e+02  -3.008409e+02
   2.261548e+01  -4.440186e+02
   3.817886e+02  -4.001755e+02
   4.938041e+02  -1.789211e+02
   3.177318e+02   1.060226e+02
   3.352728e+01   2.820749e+02
  -1.246400e+02   2.304917e+02
  -5.691050e+01   3.019694e+01
   1.171877e+02  -8.039827e+01
   1.734929e+02   2.376107e+01
   2.932429e+01   1.793217e+02
  -1.514999e+02   1.437592e+02
  -1.531692e+02  -6.353374e+01
   2.736580e+01  -1.713346e+02
   1.850130e+02  -1.532393e+01
   1.536305e+02   2.495950e+02
  -3.704582e+01   3.483213e+02
  -2.417918e+02   1.935701e+02
  -3.385538e+02  -7.154859e+01
  -2.736142e+02  -2.569383e+02
  -7.530121e+01  -2.726249e+02
   1.248434e+02  -1.510109e+02
   1.698428e+02  -1.025126e+01
   4.937261e+01   2.753347e+01
  -6.246106e+01  -4.970979e+01
  -1.359180e+01  -1.231060e+02
   1.282954e+02  -8.471641e+01
   1.680610e+02   2.346773e+01
   4.644623e+01   6.861689e+01
  -8.236725e+01   3.442263e+00
  -4.751550e+01  -8.307595e+01
   1.362959e+02  -8.459974e+01
   2.913552e+02   1.627855e+01
   2.589467e+02   1.597639e+02
   4.120099e+01   2.616171e+02
  -2.019086e+02   2.476798e+02
  -2.839213e+02   1.081349e+02
  -1.579088e+02  -5.487297e+01
   3.009848e+01  -9.823085e+01
   8.218874e+01  -6.877883e-01
  -4.368827e+01   9.369595e+01
  -1.951251e+02   4.455258e+01
  -2.027252e+02  -1.099384e+02
  -5.896664e+01  -2.041025e+02
   9.758420e+01  -1.482318e+02
   1.390192e+02  -2.050723e+01
   6.075181e+01   4.220055e+01
  -3.390650e+01  -6.683749e+00
  -3.193112e+01  -9.485297e+01
   8.455657e+01  -1.139160e+02
   2.049708e+02  -1.774977e+01
   1.859901e+02   1.335750e+02
   1.145469e+01   2.166522e+02
  -1.672262e+02   1.556432e+02
  -1.883908e+02   2.681009e+00
  -5.874875e+01  -1.099251e+02
   6.856409e+01  -1.044639e+02
   7.990598e+01  -2.623274e+01
   1.137606e+01   2.651262e+01
  -2.828984e+01   1.467355e+01
   9.393014e+00  -1.453712e+01
   7.755336e+01   6.221216e+00
   9.312744e+01   8.801849e+01
   9.730395e+00   1.660818e+02
  -1.369884e+02   1.504033e+02
  -2.374777e+02   1.391632e+01
  -1.953928e+02  -1.594779e+02
  -3.396173e+01  -2.364472e+02
   1.113811e+02  -1.640438e+02
   1.349185e+02  -2.515009e+01
   7.065337e+01   5.343621e+01
   2.973789e+01   3.416424e+01
   5.482385e+01  -1.172370e+01
   8.338964e+01  -4.717495e+00
   4.651716e+01   5.377400e+01
  -4.356473e+01   9.426558e+01
  -1.119733e+02   5.809374e+01
  -9.345531e+01  -4.093887e+01
   1.752384e+01  -1.181250e+02
   1.529078e+02  -8.468223e+01
   2.003208e+02   6.175133e+01
   8.992954e+01   2.096398e+02
  -1.199400e+02   2.245443e+02
  -2.711997e+02   8.404660e+01
  -2.515696e+02  -9.500126e+01
  -1.012589e+02  -1.777493e+02
   4.350215e+01  -1.433998e+02
   9.498641e+01  -8.034857e+01
   7.781252e+01  -6.773743e+01
   6.613081e+01  -9.086046e+01
   9.383334e+01  -7.416224e+01
   1.294516e+02   2.388973e+01
   1.146809e+02   1.575909e+02
   2.263825e+01   2.275866e+02
  -1.043091e+02   1.681522e+02
  -1.748232e+02   1.241153e+01
  -1.299416e+02  -1.280990e+02
  -1.114108e+01  -1.596175e+02
   7.338856e+01  -8.653497e+01
   6.164399e+01   6.745119e+00
   4.983164e-01   4.740882e+01
  -1.779899e+01   3.519733e+01
   3.226462e+01   1.691084e+01
   8.091141e+01   2.286568e+01
   4.601009e+01   4.020257e+01
  -6.859211e+01   3.669035e+01
  -1.647622e+02  -2.912852e+00
  -1.429206e+02  -6.003915e+01
  -6.879937e+00  -9.314656e+01
   1.284099e+02  -7.105246e+01
   1.462014e+02  -6.485520e+00
   4.601925e+01   4.610451e+01
  -6.113856e+01   3.858395e+01
  -7.652394e+01  -2.058475e+01
  -1.062279e+01  -7.077439e+01
   5.338448e+01  -5.976439e+01
   6.553624e+01   1.755843e+00
   4.850607e+01   5.139416e+01
   4.436183e+01   4.365670e+01
   5.904014e+01   3.778139e+00
   6.582836e+01   2.547974e+00
   3.736191e+01   7.054483e+01
  -3.411986e+01   1.479654e+02
  -1.238624e+02   1.405810e+02
  -1.720048e+02   2.946732e+01
  -1.242658e+02  -9.581170e+01
  -1.705257e+00  -1.295017e+02
   9.032384e+01  -6.275039e+01
   6.060636e+01   1.473943e+01
  -5.930451e+01   1.883993e+01
  -1.350641e+02  -4.623762e+01
  -7.111062e+01  -1.090496e+02
   8.486418e+01  -1.091610e+02
   1.918257e+02  -4.389687e+01
   1.595908e+02   4.092780e+01
   3.240508e+01   8.720862e+01
  -6.425754e+01   6.513688e+01
  -4.925348e+01   2.677820e+00
   3.996070e+01  -2.770724e+01
   9.099925e+01   2.340957e+01
   3.301758e+01   1.182356e+02
  -9.005693e+01   1.527971e+02
  -1.649189e+02   6.175497e+01
  -1.242818e+02  -9.974642e+01
  -8.096917e+00  -1.956155e+02
   8.761751e+01  -1.406749e+02
   1.043029e+02   1.115825e+01
   5.557315e+01   1.205128e+02
  -9.008983e+00   1.052180e+02
  -4.877344e+01   1.697168e+01
  -4.865495e+01  -3.304394e+01
  -2.210729e+01  -8.920915e+00
  -5.281921e+00   1.931341e+01
  -2.422354e+01  -1.786483e+01
  -5.442237e+01  -9.048681e+01
  -3.535828e+01  -1.089006e+02
   5.161229e+01  -4.310727e+01
   1.362838e+02   4.198307e+01
   1.253519e+02   7.363546e+01
   1.675291e+01   5.153424e+01
  -8.547122e+01   2.141251e+01
  -8.783124e+01   4.708990e+00
  -1.333643e+01  -9.191889e+00
   3.747205e+01  -2.098310e+01
   1.677680e+01  -1.580124e+01
  -1.877799e+01   1.845059e+00
   4.312091e+00   7.884464e+00
   7.103465e+01   3.838686e+00
   9.149759e+01   2.510161e+01
   1.185609e+01   8.051134e+01
  -1.166406e+02   1.128056e+02
  -1.877417e+02   5.741164e+01
  -1.443385e+02  -6.688296e+01
  -2.460546e+01  -1.612943e+02
   8.286999e+01  -1.501267e+02
   1.163588e+02  -5.877804e+01
   8.002336e+01   2.242817e+01
   2.474358e+01   3.696247e+01
  -9.478103e-01   1.027516e+01
   1.163510e+01   5.974409e+00
   3.093298e+01   4.785704e+01
   1.867016e+01   9.101239e+01
  -3.087114e+01   7.097349e+01
  -7.949765e+01  -1.899498e+01
  -7.558612e+01  -1.072344e+02
  -5.690781e+00  -1.112802e+02
   7.965565e+01  -2.511246e+01
   1.021048e+02   7.339057e+01
   3.293843e+01   1.037765e+02
  -6.646028e+01   5.753442e+01
  -9.982950e+01  -1.224313e+01
  -4.073960e+01  -5.426276e+01
   3.432819e+01  -5.493694e+01
   3.540226e+01  -2.802642e+01
  -3.076788e+01   1.727878e+00
  -6.894914e+01   6.022457e+00
  -1.574838e+01  -2.619367e+01
   8.031379e+01  -6.392418e+01
   1.190066e+02  -5.386705e+01
   6.650118e+01   1.522083e+01
  -1.670047e+01   8.334314e+01
  -5.664037e+01   7.968971e+01
  -4.012916e+01   7.831841e+00
  -2.457928e+00  -5.428509e+01
   2.570823e+01  -4.433039e+01
   3.595984e+01   1.589003e+01
   2.611595e+01   5.438397e+01
  -2.572136e+00   3.545161e+01
  -3.291379e+01  -7.847185e+00
  -4.014998e+01  -2.357990e+01
  -2.071027e+01  -3.049753e+00
   1.766435e+00   1.636332e+01
   7.030483e+00   1.729628e+00
   3.302557e+00  -3.429536e+01
   1.121890e+01  -4.716113e+01
   2.996080e+01  -1.254059e+01
   3.327829e+01   4.137085e+01
   2.547448e+00   6.003701e+01
  -4.316606e+01   2.154946e+01
  -5.791176e+01  -3.782642e+01
  -1.509595e+01  -6.211718e+01
   5.630866e+01  -3.360555e+01
   9.006315e+01   1.566479e+01
   4.874896e+01   4.471774e+01
  -2.948705e+01   4.197958e+01
  -6.526788e+01   2.264397e+01
  -2.614646e+01   5.231375e+00
   3.349979e+01   9.747174e-01
   3.545389e+01   1.287932e+01
  -2.845974e+01   2.802751e+01
  -8.631030e+01   1.796457e+01
