
 $NMID
 id='ANONYMOUS ', fmtdat='(2E16.6)'
 volume=1.0
 tramp=1.0
 $END
  -3.641345e+03  -3.564733e+01
  -2.339611e+03  -1.969423e+03
   1.684532e+02  -2.343525e+03
   1.541646e+03  -1.242112e+03
   1.042348e+03  -6.998347e-01
  -1.038126e+02   3.295507e+02
  -5.184757e+02  -1.630885e+02
  -5.675839e+01  -6.980052e+02
   5.599612e+02  -6.641180e+02
   7.554567e+02  -5.234596e+01
   4.649090e+02   6.226871e+02
  -5.051388e+01   7.494696e+02
  -4.016196e+02   1.908918e+02
  -2.970840e+02  -5.034298e+02
   1.562133e+02  -6.224786e+02
   4.773021e+02  -6.697083e+01
   3.085266e+02   5.620826e+02
  -1.864011e+02   6.649269e+02
  -5.320664e+02   2.454568e+02
  -4.579591e+02  -2.349637e+02
  -1.098729e+02  -4.048146e+02
   1.587510e+02  -2.664789e+02
   1.122369e+02  -7.472995e+01
  -1.631698e+02  -6.742869e+01
  -3.045725e+02  -2.524009e+02
  -2.811912e+01  -3.839531e+02
   4.822168e+02  -2.168701e+02
   6.803069e+02   1.724606e+02
   2.812705e+02   4.177621e+02
  -3.451503e+02   2.726410e+02
  -5.739405e+02  -1.160872e+02
  -2.315574e+02  -4.045391e+02
   2.793228e+02  -4.003795e+02
   5.011822e+02  -1.467649e+02
   3.589909e+02   1.853524e+02
   8.606760e+01   3.656200e+02
  -7.089113e+01   2.236210e+02
  -1.263538e+01  -1.131825e+02
   1.752957e+02  -2.264684e+02
   2.603050e+02   1.124615e+02
   6.694668e+01   5.497835e+02
  -2.751745e+02   5.202707e+02
  -4.074418e+02   6.622127e+00
  -1.637285e+02  -3.819172e+02
   1.854569e+02  -1.923499e+02
   2.283873e+02   2.896611e+02
  -1.089374e+02   4.384270e+02
  -4.876383e+02   7.294227e+01
  -5.255285e+02  -4.025778e+02
  -1.576192e+02  -5.419639e+02
   3.340010e+02  -2.954218e+02
   5.657399e+02   7.506618e+01
   3.644851e+02   2.999547e+02
  -7.174557e+01   2.740997e+02
  -3.407289e+02   8.221476e+01
  -2.405915e+02  -7.248813e+01
   1.703029e+01  -5.051616e+01
   7.778393e+01   7.102403e+01
  -1.134047e+02   9.231072e+01
  -2.658490e+02  -5.462342e+01
  -1.355004e+02  -2.280144e+02
   1.751071e+02  -2.596548e+02
   3.620751e+02  -1.204491e+02
   2.598488e+02   1.084558e+02
  -3.532202e+01   3.138816e+02
  -3.031848e+02   3.635828e+02
  -3.801251e+02   1.705689e+02
  -2.526895e+02  -1.679515e+02
  -5.214696e+01  -3.927250e+02
   6.027759e+01  -3.496573e+02
   5.187578e+01  -1.703784e+02
   4.087383e+01  -8.342713e+01
   1.273742e+02  -1.071764e+02
   2.477367e+02  -6.503165e+01
   2.540131e+02   1.159120e+02
   1.030195e+02   2.714075e+02
  -9.703113e+01   2.115399e+02
  -2.039539e+02  -3.548684e+01
  -1.475781e+02  -2.551242e+02
   4.691542e+01  -2.672766e+02
   2.608208e+02  -7.074608e+01
   3.274252e+02   1.850096e+02
   1.740820e+02   3.264134e+02
  -6.928309e+01   2.866441e+02
  -1.925485e+02   1.519277e+02
  -1.597348e+02   6.358912e+01
  -1.475499e+02   5.847301e+01
  -2.808113e+02   3.557802e+01
  -4.226424e+02  -1.030666e+02
  -3.279070e+02  -3.164191e+02
   3.299043e+01  -4.559978e+02
   4.037837e+02  -4.055785e+02
   5.052837e+02  -1.740375e+02
   3.064437e+02   1.093384e+02
   2.225590e+01   2.702168e+02
  -1.087031e+02   2.164226e+02
  -2.840387e+01   3.965671e+01
   1.195209e+02  -5.276745e+01
   1.476082e+02   3.370224e+01
   1.561265e+01   1.580098e+02
  -1.317316e+02   1.218979e+02
  -1.278075e+02  -5.683859e+01
   2.860312e+01  -1.486331e+02
   1.739612e+02  -3.750496e+00
   1.545273e+02   2.514061e+02
  -3.238474e+01   3.581381e+02
  -2.565132e+02   2.069093e+02
  -3.654283e+02  -7.562557e+01
  -2.828696e+02  -2.775603e+02
  -6.187594e+01  -2.854285e+02
   1.350627e+02  -1.462602e+02
   1.626971e+02  -5.666551e+00
   4.161545e+01   1.847845e+01
  -5.450314e+01  -6.050066e+01
   3.459413e-01  -1.198410e+02
   1.304948e+02  -7.239863e+01
   1.583388e+02   2.858658e+01
   3.694182e+01   6.104100e+01
  -8.428817e+01  -1.011326e+01
  -4.001729e+01  -9.438843e+01
   1.535274e+02  -8.651403e+01
   3.103876e+02   2.858180e+01
   2.637247e+02   1.800270e+02
   2.679959e+01   2.730681e+02
  -2.186725e+02   2.424209e+02
  -2.852270e+02   9.898105e+01
  -1.487656e+02  -5.194037e+01
   3.150384e+01  -8.656775e+01
   7.161874e+01   3.590812e+00
  -5.346002e+01   8.551285e+01
  -1.951880e+02   3.435238e+01
  -1.976950e+02  -1.129466e+02
  -5.598276e+01  -2.009380e+02
   9.682979e+01  -1.431555e+02
   1.340327e+02  -1.670293e+01
   5.164719e+01   3.940538e+01
  -4.031747e+01  -1.972472e+01
  -2.614375e+01  -1.107479e+02
   1.008891e+02  -1.189271e+02
   2.182223e+02  -9.129624e+00
   1.874662e+02   1.439992e+02
   6.937591e+00   2.194774e+02
  -1.685427e+02   1.550707e+02
  -1.860526e+02   6.229242e+00
  -5.733520e+01  -1.034958e+02
   6.735697e+01  -1.004559e+02
   7.580226e+01  -2.520497e+01
   3.405527e+00   2.552088e+01
  -3.621799e+01   9.182784e+00
   1.081585e+01  -2.374351e+01
   9.024273e+01   2.951075e+00
   1.043336e+02   9.803986e+01
   6.366308e+00   1.813020e+02
  -1.512444e+02   1.554496e+02
  -2.483623e+02   5.715968e+00
  -1.973372e+02  -1.699378e+02
  -3.298043e+01  -2.409847e+02
   1.113855e+02  -1.655890e+02
   1.370009e+02  -2.823046e+01
   7.573016e+01   5.017086e+01
   3.397083e+01   3.257836e+01
   5.832737e+01  -1.304348e+01
   9.074500e+01  -4.453544e+00
   5.484175e+01   6.103241e+01
  -4.592974e+01   1.073621e+02
  -1.278236e+02   6.486843e+01
  -1.071528e+02  -4.913557e+01
   2.216323e+01  -1.324093e+02
   1.708791e+02  -8.808956e+01
   2.115990e+02   7.307949e+01
   8.422185e+01   2.231178e+02
  -1.342394e+02   2.282821e+02
  -2.813825e+02   7.912859e+01
  -2.541525e+02  -1.006123e+02
  -9.984801e+01  -1.801266e+02
   4.539675e+01  -1.440130e+02
   9.540370e+01  -8.163577e+01
   7.617097e+01  -7.127017e+01
   6.501827e+01  -9.692186e+01
   9.721783e+01  -7.995628e+01
   1.367369e+02   2.340178e+01
   1.199325e+02   1.641513e+02
   2.168850e+01   2.362377e+02
  -1.090983e+02   1.716553e+02
  -1.783085e+02   8.451091e+00
  -1.293838e+02  -1.352193e+02
  -6.639996e+00  -1.633515e+02
   7.943301e+01  -8.339019e+01
   6.404209e+01   1.463801e+01
  -4.771854e+00   5.392345e+01
  -2.660569e+01   3.587140e+01
   2.984869e+01   1.379356e+01
   8.725675e+01   2.194757e+01
   5.033359e+01   4.335211e+01
  -7.639464e+01   3.880745e+01
  -1.789155e+02  -7.081590e+00
  -1.482356e+02  -6.884429e+01
   1.596633e+00  -1.001787e+02
   1.405840e+02  -7.224501e+01
   1.516849e+02  -2.528126e+00
   4.495355e+01   5.226508e+01
  -6.420705e+01   4.323997e+01
  -8.087504e+01  -2.126867e+01
  -1.603056e+01  -7.736686e+01
   5.170171e+01  -6.703463e+01
   7.130913e+01   1.072077e-01
   5.714120e+01   5.511490e+01
   4.830360e+01   4.667627e+01
   5.867103e+01   3.185538e+00
   6.796513e+01   2.803401e+00
   4.296379e+01   7.676875e+01
  -3.343583e+01   1.582963e+02
  -1.342002e+02   1.479862e+02
  -1.873979e+02   2.925956e+01
  -1.328022e+02  -1.025047e+02
   1.146105e+00  -1.380552e+02
   9.820403e+01  -6.858445e+01
   6.474880e+01   1.350684e+01
  -6.135404e+01   1.998551e+01
  -1.389715e+02  -4.691834e+01
  -7.137752e+01  -1.125620e+02
   8.959613e+01  -1.116021e+02
   1.979316e+02  -4.172545e+01
   1.622727e+02   4.564699e+01
   3.044146e+01   8.935540e+01
  -6.769511e+01   6.291003e+01
  -5.023151e+01  -1.396305e+00
   4.272262e+01  -3.075757e+01
   9.618859e+01   2.305547e+01
   3.821045e+01   1.223032e+02
  -8.779858e+01   1.612403e+02
  -1.676687e+02   6.953273e+01
  -1.303699e+02  -9.910771e+01
  -1.216556e+01  -2.015425e+02
   8.897356e+01  -1.449976e+02
   1.077364e+02   1.383033e+01
   5.483166e+01   1.259729e+02
  -1.456780e+01   1.065685e+02
  -5.303648e+01   1.441579e+01
  -4.728059e+01  -3.427907e+01
  -1.869551e+01  -7.839251e+00
  -6.163171e+00   1.842388e+01
  -2.939087e+01  -2.248348e+01
  -5.756278e+01  -9.505287e+01
  -3.241240e+01  -1.102041e+02
   5.779751e+01  -4.265438e+01
   1.407801e+02   4.216527e+01
   1.271357e+02   7.497246e+01
   1.756080e+01   5.538849e+01
  -8.561127e+01   2.492226e+01
  -9.023916e+01   4.245796e+00
  -1.668224e+01  -1.221806e+01
   3.683821e+01  -2.184434e+01
   1.951565e+01  -1.334532e+01
  -1.657864e+01   3.758671e+00
   3.443580e+00   6.220214e+00
   7.068096e+01   6.341222e-01
   9.632053e+01   2.488493e+01
   1.906279e+01   8.543754e+01
  -1.159766e+02   1.209943e+02
  -1.974254e+02   6.434692e+01
  -1.570062e+02  -6.574572e+01
  -2.984979e+01  -1.672277e+02
   8.688513e+01  -1.592970e+02
   1.229215e+02  -6.507289e+01
   8.370569e+01   2.182760e+01
   2.648187e+01   3.984111e+01
   1.311185e+00   1.336149e+01
   1.353058e+01   8.680683e+00
   3.068274e+01   5.119094e+01
   1.727901e+01   9.486697e+01
  -3.193118e+01   7.417520e+01
  -8.193445e+01  -1.741590e+01
  -8.138272e+01  -1.083383e+02
  -1.158512e+01  -1.159680e+02
   7.995944e+01  -3.140295e+01
   1.091376e+02   7.096082e+01
   3.896778e+01   1.085094e+02
  -6.850925e+01   6.491960e+01
  -1.075282e+02  -1.065397e+01
  -4.533836e+01  -6.059636e+01
   3.715252e+01  -6.218834e+01
   4.121215e+01  -2.913134e+01
  -2.868974e+01   5.367772e+00
  -7.157493e+01   7.865219e+00
  -1.806780e+01  -2.860371e+01
   8.298543e+01  -6.690986e+01
   1.259726e+02  -5.362607e+01
   7.260738e+01   1.864500e+01
  -1.603144e+01   8.822634e+01
  -6.143189e+01   8.481961e+01
  -4.638031e+01   1.121714e+01
  -6.039544e+00  -5.533580e+01
   2.598106e+01  -4.922703e+01
   3.852878e+01   1.245693e+01
   2.859602e+01   5.663560e+01
  -2.053385e+00   4.058895e+01
  -3.482270e+01  -6.267475e+00
  -4.277474e+01  -2.668318e+01
  -2.140636e+01  -4.927612e+00
   2.977661e+00   2.014556e+01
   6.263711e+00   7.320895e+00
  -2.267076e+00  -3.441716e+01
   4.635366e+00  -5.447678e+01
   2.981894e+01  -2.066860e+01
   4.105627e+01   3.896176e+01
   1.044139e+01   6.333240e+01
  -4.322201e+01   2.570570e+01
  -6.427719e+01  -3.655408e+01
  -1.895630e+01  -6.380900e+01
   5.970118e+01  -3.631042e+01
   9.664938e+01   1.411894e+01
   5.216039e+01   4.608677e+01
  -3.079726e+01   4.640694e+01
  -6.883000e+01   2.738487e+01
  -2.975196e+01   6.270953e+00
   3.113888e+01  -2.710922e+00
   3.584823e+01   8.269305e+00
  -2.530931e+01   2.724457e+01
  -8.374703e+01   2.114732e+01
