
 $NMID
 id='ANONYMOUS ', fmtdat='(2E16.6)'
 volume=1.0
 tramp=1.0
 $END
  -2.143353e+03  -2.372416e+02
  -1.200728e+03  -1.315349e+03
   3.092216e+02  -1.319678e+03
   9.714379e+02  -5.359959e+02
   5.214286e+02   1.267261e+02
  -1.662185e+02   1.691392e+02
  -3.112428e+02  -1.812269e+02
   3.854469e+01  -4.386853e+02
   3.905818e+02  -3.413801e+02
   4.396136e+02   3.987334e+01
   2.112978e+02   4.024108e+02
  -9.970809e+01   4.224507e+02
  -2.598172e+02   5.984631e+01
  -1.379078e+02  -3.325400e+02
   1.420457e+02  -3.506556e+02
   2.829963e+02   4.736165e+00
   1.331207e+02   3.436763e+02
  -1.515359e+02   3.505764e+02
  -3.053934e+02   8.903824e+01
  -2.282133e+02  -1.632912e+02
  -2.823834e+01  -2.297062e+02
   1.123653e+02  -1.356013e+02
   7.520982e+01  -2.133284e+01
  -9.439310e+01  -2.145847e+01
  -1.841762e+02  -1.459265e+02
  -1.671832e+01  -2.370382e+02
   2.938898e+02  -1.271126e+02
   4.046728e+02   1.291459e+02
   1.481108e+02   2.771831e+02
  -2.298411e+02   1.614317e+02
  -3.465446e+02  -9.491010e+01
  -1.206207e+02  -2.577509e+02
   1.854563e+02  -2.276604e+02
   3.018109e+02  -6.150241e+01
   1.976812e+02   1.310940e+02
   2.087278e+01   2.229578e+02
  -7.193279e+01   1.204736e+02
  -1.457543e+01  -9.058323e+01
   1.244997e+02  -1.479065e+02
   1.732319e+02   7.768405e+01
   2.524183e+01   3.440318e+02
  -1.991798e+02   3.007625e+02
  -2.555908e+02  -3.104749e+01
  -7.358765e+01  -2.529955e+02
   1.374053e+02  -1.081915e+02
   1.333044e+02   1.905307e+02
  -8.466001e+01   2.594278e+02
  -2.917630e+02   2.170226e+01
  -2.860624e+02  -2.567919e+02
  -6.140609e+01  -3.187345e+02
   2.120162e+02  -1.538338e+02
   3.234808e+02   7.319847e+01
   1.860245e+02   1.976174e+02
  -7.110476e+01   1.566106e+02
  -2.071927e+02   1.896731e+01
  -1.225302e+02  -6.850459e+01
   2.995728e+01  -2.724361e+01
   4.285017e+01   5.988323e+01
  -8.247192e+01   5.542787e+01
  -1.565916e+02  -5.205221e+01
  -6.093281e+01  -1.447392e+02
   1.144410e+02  -1.356802e+02
   2.013872e+02  -4.709982e+01
   1.343762e+02   6.485197e+01
  -2.580032e+01   1.634264e+02
  -1.728770e+02   1.919551e+02
  -2.195367e+02   8.848795e+01
  -1.422815e+02  -1.047248e+02
  -1.176966e+01  -2.313673e+02
   6.003788e+01  -1.944893e+02
   4.188233e+01  -8.035278e+01
   1.724653e+01  -3.351882e+01
   6.347852e+01  -5.841774e+01
   1.402492e+02  -3.836591e+01
   1.460944e+02   7.003092e+01
   5.350023e+01   1.617453e+02
  -6.429769e+01   1.229201e+02
  -1.201118e+02  -2.476675e+01
  -7.951327e+01  -1.523040e+02
   3.568589e+01  -1.549836e+02
   1.543887e+02  -3.385558e+01
   1.818732e+02   1.191720e+02
   8.299836e+01   1.959863e+02
  -5.766721e+01   1.586326e+02
  -1.175797e+02   6.990839e+01
  -8.701556e+01   2.128912e+01
  -7.720565e+01   2.677326e+01
  -1.553583e+02   1.500809e+01
  -2.335969e+02  -6.900603e+01
  -1.731895e+02  -1.887119e+02
   3.382554e+01  -2.555074e+02
   2.398706e+02  -2.143297e+02
   2.917327e+02  -8.010006e+01
   1.727740e+02   7.547479e+01
   2.834546e+00   1.588594e+02
  -7.679304e+01   1.201730e+02
  -2.432960e+01   1.542739e+01
   7.271299e+01  -3.258243e+01
   9.048407e+01   2.575629e+01
   3.350314e+00   9.769308e+01
  -8.781290e+01   6.717023e+01
  -7.616761e+01  -4.245090e+01
   2.486259e+01  -8.940525e+01
   1.032472e+02   3.425582e+00
   7.707371e+01   1.486798e+02
  -3.362649e+01   1.987847e+02
  -1.488722e+02   1.047815e+02
  -1.975518e+02  -5.413776e+01
  -1.488060e+02  -1.629330e+02
  -2.816231e+01  -1.628163e+02
   8.068727e+01  -7.980200e+01
   9.506465e+01   3.274802e+00
   2.385964e+01   1.558942e+01
  -3.178674e+01  -3.469830e+01
   1.913568e+00  -7.053867e+01
   7.800898e+01  -3.914501e+01
   9.189486e+01   2.269750e+01
   2.004835e+01   3.936574e+01
  -4.850598e+01  -5.448131e+00
  -2.206747e+01  -5.313166e+01
   8.598134e+01  -4.413885e+01
   1.713605e+02   2.381881e+01
   1.432186e+02   1.073715e+02
   8.872967e+00   1.547926e+02
  -1.305293e+02   1.317671e+02
  -1.668497e+02   4.674079e+01
  -8.437024e+01  -3.764112e+01
   2.254190e+01  -5.110697e+01
   4.384502e+01   5.163683e+00
  -3.231191e+01   4.963075e+01
  -1.134531e+02   1.398982e+01
  -1.091664e+02  -7.227110e+01
  -2.371417e+01  -1.176487e+02
   6.182800e+01  -7.845316e+01
   7.858685e+01  -4.248045e+00
   2.976724e+01   2.637597e+01
  -2.187154e+01  -8.655505e+00
  -1.357931e+01  -6.040398e+01
   5.734347e+01  -6.383187e+01
   1.217444e+02   1.772025e-01
   1.011744e+02   8.671648e+01
  -3.800128e+00   1.246756e+02
  -1.019624e+02   8.122200e+01
  -1.061041e+02  -5.557032e+00
  -2.779812e+01  -6.307331e+01
   4.328479e+01  -5.511735e+01
   4.532305e+01  -1.089740e+01
   2.873378e+00   1.583638e+01
  -1.947227e+01   6.085344e+00
   5.681071e+00  -1.072336e+01
   4.732579e+01   4.876034e+00
   5.326488e+01   5.607139e+01
  -1.361664e+00   9.952056e+01
  -8.802947e+01   8.218446e+01
  -1.392969e+02  -3.780668e+00
  -1.055604e+02  -1.017959e+02
  -9.330047e+00  -1.371132e+02
   7.005882e+01  -8.888915e+01
   7.805588e+01  -9.653629e+00
   3.912980e+01   3.196510e+01
   1.658851e+01   1.986020e+01
   3.257297e+01  -4.997107e+00
   4.976890e+01   3.734804e-01
   2.717817e+01   3.404662e+01
  -2.844327e+01   5.578123e+01
  -7.027128e+01   3.147179e+01
  -5.605148e+01  -2.862123e+01
   1.525998e+01  -7.095598e+01
   9.552562e+01  -4.398647e+01
   1.153547e+02   4.607768e+01
   4.149558e+01   1.272963e+02
  -8.159711e+01   1.246099e+02
  -1.609508e+02   3.554088e+01
  -1.400078e+02  -6.606327e+01
  -4.972885e+01  -1.060182e+02
   3.128440e+01  -7.990198e+01
   5.735455e+01  -4.201829e+01
   4.628449e+01  -3.610278e+01
   4.059827e+01  -5.052278e+01
   5.698852e+01  -4.012928e+01
   7.463316e+01   1.834301e+01
   6.051397e+01   9.589328e+01
   3.595007e+00   1.328346e+02
  -6.750450e+01   9.246797e+01
  -1.011237e+02  -1.271396e+00
  -6.872593e+01  -8.039988e+01
   1.493003e+00  -9.255221e+01
   4.737466e+01  -4.553894e+01
   3.602628e+01   8.622099e+00
  -2.811450e+00   2.928724e+01
  -1.418328e+01   2.009568e+01
   1.664411e+01   1.021291e+01
   4.680362e+01   1.565068e+01
   2.595536e+01   2.538942e+01
  -4.267450e+01   1.915236e+01
  -9.797741e+01  -8.805609e+00
  -8.086045e+01  -4.237076e+01
   2.044791e+00  -5.592124e+01
   7.946935e+01  -3.618375e+01
   8.522192e+01   3.274142e+00
   2.432202e+01   3.004906e+01
  -3.691245e+01   2.094739e+01
  -4.393185e+01  -1.480057e+01
  -5.155644e+00  -4.220060e+01
   3.178455e+01  -3.372651e+01
   3.874047e+01   2.839471e+00
   2.823477e+01   3.169563e+01
   2.474926e+01   2.727058e+01
   3.320497e+01   4.491922e+00
   3.792609e+01   4.146137e+00
   2.037692e+01   4.307594e+01
  -2.464600e+01   8.561003e+01
  -7.880955e+01   7.757511e+01
  -1.035322e+02   1.055275e+01
  -6.956311e+01  -6.101597e+01
   4.719195e+00  -7.637560e+01
   5.585818e+01  -3.414909e+01
   3.493500e+01   1.024990e+01
  -3.499502e+01   8.686172e+00
  -7.594991e+01  -3.187302e+01
  -3.610587e+01  -6.595295e+01
   5.403275e+01  -5.947537e+01
   1.127593e+02  -1.661901e+01
   9.003612e+01   3.119856e+01
   1.428294e+01   5.167447e+01
  -4.043499e+01   3.385525e+01
  -2.867682e+01  -1.710318e+00
   2.445774e+01  -1.516328e+01
   5.220389e+01   1.664220e+01
   1.560867e+01   6.935299e+01
  -5.627872e+01   8.530325e+01
  -9.648300e+01   3.062583e+01
  -6.811984e+01  -6.123692e+01
   2.009398e+00  -1.128736e+02
   5.577492e+01  -7.756087e+01
   5.997657e+01   1.128854e+01
   2.664404e+01   7.246394e+01
  -1.112924e+01   6.017986e+01
  -2.987928e+01   7.127796e+00
  -2.590739e+01  -2.129202e+01
  -1.106988e+01  -5.932332e+00
  -4.146719e+00   1.054148e+01
  -1.489428e+01  -1.216275e+01
  -2.835692e+01  -5.480776e+01
  -1.468433e+01  -6.393610e+01
   3.301421e+01  -2.262139e+01
   7.696132e+01   2.931529e+01
   6.868992e+01   4.737404e+01
   7.864498e+00   3.106166e+01
  -4.920951e+01   9.605188e+00
  -5.082204e+01  -9.983534e-01
  -8.413922e+00  -6.438007e+00
   2.190724e+01  -1.053896e+01
   1.119923e+01  -7.731605e+00
  -9.935799e+00   6.615324e-01
   1.729089e+00   4.225212e+00
   3.982026e+01   4.249325e+00
   5.231577e+01   1.769271e+01
   5.857942e+00   4.714593e+01
  -7.017754e+01   6.151763e+01
  -1.113991e+02   2.746422e+01
  -8.283178e+01  -4.278206e+01
  -9.167672e+00  -9.399928e+01
   5.391143e+01  -8.478137e+01
   7.004188e+01  -3.083175e+01
   4.554348e+01   1.566042e+01
   1.322290e+01   2.276394e+01
  -6.305092e-02   6.548825e+00
   7.125171e+00   4.552623e+00
   1.571434e+01   2.949726e+01
   6.624285e+00   5.372211e+01
  -2.060523e+01   4.002932e+01
  -4.494313e+01  -1.348942e+01
  -4.020004e+01  -6.397330e+01
  -6.450214e-01  -6.438154e+01
   4.590392e+01  -1.279774e+01
   5.679180e+01   4.472748e+01
   1.647605e+01   6.127696e+01
  -4.022413e+01   3.222289e+01
  -5.834879e+01  -1.011669e+01
  -2.269069e+01  -3.408304e+01
   2.211383e+01  -3.212528e+01
   2.294341e+01  -1.518352e+01
  -1.664447e+01   6.146152e-01
  -4.004899e+01   1.253588e+00
  -8.710224e+00  -1.608532e+01
   4.887757e+01  -3.399276e+01
   7.195044e+01  -2.600253e+01
   3.920074e+01   1.202072e+01
  -1.243798e+01   4.802537e+01
  -3.657780e+01   4.474718e+01
  -2.473370e+01   4.235023e+00
  -2.526706e-01  -3.096963e+01
   1.618367e+01  -2.556990e+01
   2.025589e+01   9.319637e+00
   1.344050e+01   3.246920e+01
  -2.417249e+00   2.151995e+01
  -1.880829e+01  -5.229827e+00
  -2.281849e+01  -1.581812e+01
  -1.197934e+01  -3.117878e+00
   9.587773e-01   1.040767e+01
   4.109489e+00   3.013263e+00
   1.646435e+00  -1.894871e+01
   5.839447e+00  -2.799880e+01
   1.688609e+01  -8.278946e+00
   1.929461e+01   2.358778e+01
   1.522057e+00   3.458734e+01
  -2.512268e+01   1.165947e+01
  -3.309226e+01  -2.306429e+01
  -7.228523e+00  -3.612196e+01
   3.420378e+01  -1.776461e+01
   5.232899e+01   1.174307e+01
   2.691192e+01   2.760362e+01
  -1.857601e+01   2.401285e+01
  -3.872437e+01   1.178546e+01
  -1.606851e+01   2.447509e+00
   1.799300e+01   1.042887e+00
   1.935542e+01   7.399801e+00
  -1.645773e+01   1.423716e+01
  -4.875427e+01   7.310578e+00
