
 $NMID
 id='ANONYMOUS ', fmtdat='(2E16.6)'
 volume=1.0
 tramp=1.0
 $END
   4.112247e+03  -1.026494e+02
   2.562151e+03   2.290735e+03
  -4.068637e+02   2.624787e+03
  -1.848327e+03   1.125294e+03
  -1.012093e+03  -3.255208e+02
   3.992143e+02  -4.735935e+02
   7.373884e+02   3.015290e+02
   4.194638e+01   9.145167e+02
  -7.010316e+02   7.593708e+02
  -8.714386e+02  -5.726040e+00
  -4.854173e+02  -7.553908e+02
   1.344695e+02  -8.450058e+02
   5.342378e+02  -1.649783e+02
   3.662174e+02   6.255599e+02
  -2.040885e+02   7.116835e+02
  -5.582341e+02   4.198806e+01
  -3.131877e+02  -6.324051e+02
   2.457579e+02  -6.701133e+02
   5.653776e+02  -1.836968e+02
   4.376033e+02   2.903023e+02
   7.411540e+01   4.285215e+02
  -1.996543e+02   2.759763e+02
  -1.670114e+02   4.828646e+01
   1.430364e+02  -1.965804e+01
   3.760158e+02   1.735761e+02
   1.334004e+02   4.186246e+02
  -4.756744e+02   3.434278e+02
  -7.944017e+02  -1.032215e+02
  -3.818761e+02  -4.912670e+02
   3.717295e+02  -4.049325e+02
   6.853568e+02   5.773948e+01
   3.125739e+02   4.499453e+02
  -2.756582e+02   4.831668e+02
  -5.446454e+02   1.959806e+02
  -4.049526e+02  -2.020207e+02
  -9.112392e+01  -4.315161e+02
   1.355840e+02  -2.642810e+02
   1.029323e+02   1.727587e+02
  -1.675791e+02   3.525272e+02
  -3.719111e+02  -5.630747e+01
  -1.826585e+02  -6.337779e+02
   2.898492e+02  -6.415222e+02
   5.253791e+02  -1.811008e+01
   2.323067e+02   4.807593e+02
  -2.421454e+02   2.726487e+02
  -3.292490e+02  -3.083563e+02
   7.507521e+01  -5.122571e+02
   5.340724e+02  -1.251282e+02
   5.890290e+02   3.978410e+02
   1.833674e+02   5.740029e+02
  -3.591117e+02   3.412129e+02
  -6.167889e+02  -5.821484e+01
  -3.885766e+02  -3.418067e+02
   1.096737e+02  -3.331117e+02
   4.029308e+02  -8.082235e+01
   2.498147e+02   1.345522e+02
  -7.159894e+01   8.378547e+01
  -1.187075e+02  -1.158083e+02
   1.413352e+02  -1.508202e+02
   3.194255e+02   5.788223e+01
   1.498172e+02   2.689820e+02
  -1.873641e+02   2.714038e+02
  -3.500702e+02   1.083319e+02
  -2.338755e+02  -9.035378e+01
   2.112937e+01  -2.717662e+02
   2.523181e+02  -3.597596e+02
   3.588750e+02  -2.132898e+02
   2.853920e+02   1.454010e+02
   8.193898e+01   4.238749e+02
  -8.020614e+01   3.796791e+02
  -8.628167e+01   1.448479e+02
  -3.086187e+01   3.411646e+01
  -7.974931e+01   1.021127e+02
  -2.211423e+02   1.107916e+02
  -2.772140e+02  -7.416457e+01
  -1.463859e+02  -2.731154e+02
   7.733054e+01  -2.451001e+02
   2.229289e+02   3.166040e+00
   1.878453e+02   2.475690e+02
  -1.807002e+01   2.902700e+02
  -2.671441e+02   1.071454e+02
  -3.598978e+02  -1.678182e+02
  -1.966661e+02  -3.416527e+02
   7.757032e+01  -3.072651e+02
   2.113145e+02  -1.452742e+02
   1.567973e+02  -3.792218e+01
   1.220451e+02  -5.116341e+01
   2.589434e+02  -6.174809e+01
   4.223069e+02   6.534002e+01
   3.476946e+02   2.941219e+02
  -9.614433e-01   4.588911e+02
  -3.736460e+02   4.315927e+02
  -5.001268e+02   2.097899e+02
  -3.333579e+02  -9.195448e+01
  -5.028835e+01  -2.886203e+02
   1.155102e+02  -2.456934e+02
   5.782732e+01  -3.631774e+01
  -1.147154e+02   8.893433e+01
  -1.795863e+02  -1.351009e+01
  -4.125776e+01  -1.825453e+02
   1.472054e+02  -1.578217e+02
   1.619353e+02   5.564897e+01
  -1.756624e+01   1.782046e+02
  -1.893368e+02   2.633743e+01
  -1.715935e+02  -2.497177e+02
   2.069253e+01  -3.619602e+02
   2.405209e+02  -2.114808e+02
   3.530662e+02   5.812351e+01
   2.944731e+02   2.516646e+02
   9.107507e+01   2.765581e+02
  -1.206412e+02   1.617002e+02
  -1.744702e+02   2.002512e+01
  -5.308541e+01  -2.523886e+01
   6.627815e+01   4.747359e+01
   2.071220e+01   1.253462e+02
  -1.271031e+02   9.401627e+01
  -1.743553e+02  -1.469210e+01
  -5.210618e+01  -6.768398e+01
   8.385441e+01  -7.707010e+00
   5.255986e+01   8.274461e+01
  -1.364645e+02   9.321921e+01
  -3.008006e+02  -2.963250e+00
  -2.742460e+02  -1.517646e+02
  -5.538751e+01  -2.669065e+02
   1.951132e+02  -2.650668e+02
   2.867952e+02  -1.264381e+02
   1.661250e+02   4.767877e+01
  -2.505121e+01   1.028766e+02
  -8.448405e+01   5.806592e+00
   3.959790e+01  -9.828843e+01
   1.983683e+02  -5.621837e+01
   2.148527e+02   1.025019e+02
   7.182813e+01   2.074146e+02
  -9.259538e+01   1.582204e+02
  -1.421687e+02   2.883666e+01
  -6.513343e+01  -3.969716e+01
   3.439679e+01   5.626881e+00
   3.674742e+01   9.585969e+01
  -8.173399e+01   1.208463e+02
  -2.100854e+02   2.807714e+01
  -1.982721e+02  -1.282870e+02
  -2.297876e+01  -2.227633e+02
   1.644540e+02  -1.693821e+02
   1.946367e+02  -1.283869e+01
   6.690722e+01   1.102973e+02
  -6.500803e+01   1.115420e+02
  -8.104227e+01   3.158498e+01
  -1.319601e+01  -2.617925e+01
   2.804440e+01  -1.603151e+01
  -9.627066e+00   1.541464e+01
  -8.067151e+01  -3.295752e+00
  -1.000481e+02  -8.685069e+01
  -1.761885e+01  -1.707499e+02
   1.339541e+02  -1.614277e+02
   2.438772e+02  -2.600322e+01
   2.093384e+02   1.545737e+02
   4.713558e+01   2.422886e+02
  -1.065079e+02   1.752270e+02
  -1.382201e+02   3.289997e+01
  -7.601000e+01  -5.183861e+01
  -3.262517e+01  -3.402780e+01
  -5.609686e+01   1.472306e+01
  -8.584840e+01   8.697094e+00
  -5.032571e+01  -5.371814e+01
   4.101796e+01  -9.946647e+01
   1.131032e+02  -6.468762e+01
   9.805686e+01   3.840578e+01
  -1.297133e+01   1.225670e+02
  -1.537255e+02   9.412394e+01
  -2.092506e+02  -5.411087e+01
  -1.028378e+02  -2.113359e+02
   1.123618e+02  -2.370788e+02
   2.752589e+02  -1.002430e+02
   2.643216e+02   8.509001e+01
   1.137008e+02   1.781132e+02
  -3.743936e+01   1.502055e+02
  -9.395473e+01   8.791834e+01
  -7.704830e+01   7.415419e+01
  -6.396327e+01   9.738136e+01
  -9.343198e+01   8.125725e+01
  -1.349659e+02  -1.841584e+01
  -1.262013e+02  -1.571016e+02
  -3.467108e+01  -2.337448e+02
   9.914625e+01  -1.787437e+02
   1.795670e+02  -2.172286e+01
   1.403568e+02   1.254162e+02
   1.959327e+01   1.638935e+02
  -7.100941e+01   9.274242e+01
  -6.341667e+01  -3.923864e+00
  -2.505094e+00  -4.854282e+01
   1.659816e+01  -3.661848e+01
  -3.442985e+01  -1.558022e+01
  -8.482385e+01  -1.983515e+01
  -4.938930e+01  -3.942452e+01
   6.907051e+01  -4.090415e+01
   1.699887e+02  -4.573455e+00
   1.500710e+02   5.490473e+01
   1.144989e+01   9.519394e+01
  -1.289692e+02   7.919446e+01
  -1.503298e+02   1.395231e+01
  -4.947257e+01  -4.512062e+01
   6.145579e+01  -4.282734e+01
   8.005017e+01   1.756432e+01
   1.420056e+01   7.293584e+01
  -5.252401e+01   6.465016e+01
  -6.789422e+01   1.198347e+00
  -5.251969e+01  -5.117275e+01
  -4.787772e+01  -4.304866e+01
  -6.120184e+01  -7.732151e-01
  -6.808774e+01   6.640824e-01
  -4.182506e+01  -7.130908e+01
   2.823434e+01  -1.546393e+02
   1.210856e+02  -1.508948e+02
   1.760661e+02  -3.830176e+01
   1.328517e+02   9.305651e+01
   7.912525e+00   1.334267e+02
  -9.041927e+01   6.895381e+01
  -6.345118e+01  -1.234502e+01
   6.033377e+01  -2.241432e+01
   1.418397e+02   4.094539e+01
   7.888456e+01   1.088899e+02
  -8.208591e+01   1.168158e+02
  -1.956087e+02   5.493191e+01
  -1.665806e+02  -3.409182e+01
  -3.787180e+01  -8.820075e+01
   6.276817e+01  -7.036613e+01
   5.041158e+01  -5.268928e+00
  -4.003946e+01   3.050509e+01
  -9.522377e+01  -1.978185e+01
  -4.000325e+01  -1.207437e+02
   8.559232e+01  -1.626782e+02
   1.676274e+02  -7.222920e+01
   1.336185e+02   9.692061e+01
   1.819253e+01   2.018674e+02
  -8.340870e+01   1.497553e+02
  -1.080870e+02  -6.308478e+00
  -6.329584e+01  -1.214698e+02
   3.891155e+00  -1.086989e+02
   4.928576e+01  -1.975959e+01
   5.187636e+01   3.146416e+01
   2.336857e+01   7.793170e+00
   4.375110e+00  -2.015096e+01
   2.561358e+01   1.757005e+01
   6.060618e+01   9.081656e+01
   4.212077e+01   1.103679e+02
  -5.100624e+01   4.675437e+01
  -1.429142e+02  -3.653155e+01
  -1.331965e+02  -6.958630e+01
  -1.971588e+01  -5.239869e+01
   8.738941e+01  -2.659159e+01
   9.041015e+01  -9.291237e+00
   1.403277e+01   9.047096e+00
  -3.765231e+01   2.368142e+01
  -1.631459e+01   1.698585e+01
   1.943056e+01  -3.059054e+00
  -4.988959e+00  -7.846217e+00
  -7.378502e+01  -2.021227e-01
  -9.581611e+01  -2.147561e+01
  -1.611329e+01  -8.305596e+01
   1.151237e+02  -1.226619e+02
   1.913710e+02  -6.842211e+01
   1.526527e+02   6.242710e+01
   3.343824e+01   1.656517e+02
  -7.837867e+01   1.590759e+02
  -1.175412e+02   6.631835e+01
  -8.385492e+01  -1.923141e+01
  -2.727636e+01  -3.700136e+01
   6.657438e-01  -1.083417e+01
  -1.212829e+01  -5.705145e+00
  -3.420086e+01  -4.777742e+01
  -2.376327e+01  -9.289537e+01
   2.839127e+01  -7.482875e+01
   8.320266e+01   1.561904e+01
   8.360149e+01   1.071897e+02
   1.137779e+01   1.150503e+02
  -8.139892e+01   3.009985e+01
  -1.094729e+02  -7.093895e+01
  -3.911447e+01  -1.058826e+02
   6.615804e+01  -6.275503e+01
   1.038524e+02   7.974132e+00
   4.444775e+01   5.424545e+01
  -3.310899e+01   5.832822e+01
  -3.517652e+01   3.036346e+01
   3.194588e+01  -3.561757e+00
   7.101810e+01  -9.644571e+00
   1.745963e+01   2.639710e+01
  -7.979867e+01   7.002442e+01
  -1.200446e+02   6.134351e+01
  -6.921840e+01  -1.268883e+01
   1.323293e+01  -8.698951e+01
   5.469259e+01  -8.490562e+01
   4.128862e+01  -9.731843e+00
   5.315727e+00   5.619131e+01
  -2.458422e+01   4.711056e+01
  -3.822516e+01  -1.470462e+01
  -2.965618e+01  -5.497156e+01
   1.178300e+00  -3.678838e+01
   3.451791e+01   6.514421e+00
   4.246622e+01   2.244173e+01
   2.140465e+01   2.117655e+00
  -2.402176e+00  -1.690080e+01
  -6.930003e+00  -1.370552e+00
  -1.607876e+00   3.600086e+01
  -9.642570e+00   4.979062e+01
  -3.088465e+01   1.454771e+01
  -3.672759e+01  -4.154653e+01
  -5.550666e+00  -6.245268e+01
   4.374965e+01  -2.451998e+01
   6.188815e+01   3.649040e+01
   1.872838e+01   6.363683e+01
  -5.658480e+01   3.740542e+01
  -9.394265e+01  -1.193653e+01
  -5.258564e+01  -4.387097e+01
   2.857625e+01  -4.480312e+01
   6.656339e+01  -2.654902e+01
   2.680699e+01  -6.506180e+00
  -3.491134e+01   9.359271e-01
  -3.762848e+01  -1.145753e+01
   2.784918e+01  -3.066688e+01
   8.840693e+01  -2.327720e+01
