
 $NMID
 id='ANONYMOUS ', fmtdat='(2E16.6)'
 volume=1.0
 tramp=1.0
 $END
  -4.252641e+03  -7.567171e+01
  -2.445088e+03  -2.602416e+03
   7.565971e+02  -2.693923e+03
   2.091762e+03  -8.519512e+02
   9.382383e+02   6.515976e+02
  -6.358827e+02   5.596131e+02
  -8.604310e+02  -4.322288e+02
   2.384884e+01  -1.040924e+03
   8.257565e+02  -7.508511e+02
   9.206665e+02   1.099785e+02
   4.274039e+02   8.559396e+02
  -2.521041e+02   8.716819e+02
  -6.259837e+02   1.055781e+02
  -3.629500e+02  -7.104629e+02
   2.790288e+02  -7.315296e+02
   5.974932e+02   1.693753e+01
   2.557487e+02   6.778693e+02
  -3.326310e+02   6.231399e+02
  -5.813669e+02   8.221168e+01
  -3.792553e+02  -3.553931e+02
  -9.476314e+00  -4.330746e+02
   2.423198e+02  -2.562478e+02
   2.078820e+02  -1.662337e+01
  -1.118497e+02   7.444630e+01
  -3.901313e+02  -1.241025e+02
  -1.797318e+02  -4.230508e+02
   4.588049e+02  -3.862866e+02
   8.257978e+02   9.460642e+01
   4.087067e+02   5.430038e+02
  -3.914045e+02   4.606055e+02
  -7.254410e+02  -5.185249e+01
  -3.281515e+02  -4.780014e+02
   2.878442e+02  -4.997086e+02
   5.597122e+02  -1.849193e+02
   4.044657e+02   2.319333e+02
   6.205641e+01   4.667817e+02
  -1.967044e+02   2.775683e+02
  -1.612624e+02  -2.097896e+02
   1.677234e+02  -4.190962e+02
   4.299490e+02   2.706662e+01
   2.222409e+02   6.684205e+02
  -3.247038e+02   6.805911e+02
  -5.903723e+02  -4.069067e+00
  -2.453429e+02  -5.444817e+02
   2.876380e+02  -3.076947e+02
   3.683916e+02   3.223637e+02
  -7.761332e+01   5.331083e+02
  -5.461094e+02   1.215292e+02
  -5.743879e+02  -4.128005e+02
  -1.508056e+02  -5.796771e+02
   3.818975e+02  -3.323795e+02
   6.167263e+02   8.592744e+01
   3.628856e+02   3.848791e+02
  -1.545934e+02   3.565762e+02
  -4.366671e+02   4.911413e+01
  -2.386785e+02  -1.956334e+02
   1.144712e+02  -1.053613e+02
   1.399038e+02   1.504551e+02
  -1.619412e+02   1.804962e+02
  -3.399954e+02  -7.751147e+01
  -1.354000e+02  -2.972233e+02
   2.072961e+02  -2.518318e+02
   3.309112e+02  -6.333127e+01
   1.910750e+02   9.228035e+01
  -3.469242e+01   2.199423e+02
  -2.269921e+02   3.112982e+02
  -3.347736e+02   2.044986e+02
  -2.816068e+02  -1.389544e+02
  -7.021392e+01  -4.286578e+02
   1.190778e+02  -3.780063e+02
   1.230814e+02  -1.129650e+02
   2.885902e+01   1.055848e+01
   4.606451e+01  -8.119956e+01
   1.919242e+02  -1.206533e+02
   2.701030e+02   5.669013e+01
   1.510291e+02   2.666499e+02
  -7.362723e+01   2.499943e+02
  -2.221228e+02   6.774084e+00
  -1.888286e+02  -2.387861e+02
   1.507061e+01  -2.880659e+02
   2.622390e+02  -1.093672e+02
   3.505165e+02   1.703966e+02
   1.778062e+02   3.482744e+02
  -1.024447e+02   3.011789e+02
  -2.268223e+02   1.167996e+02
  -1.513430e+02   2.475468e+00
  -9.976398e+01   3.012754e+01
  -2.294165e+02   5.617429e+01
  -3.894696e+02  -6.557403e+01
  -3.182336e+02  -2.858890e+02
   1.193515e+01  -4.323285e+02
   3.608435e+02  -3.952458e+02
   4.813963e+02  -1.859195e+02
   3.270974e+02   9.703508e+01
   4.850187e+01   2.884203e+02
  -1.312791e+02   2.467359e+02
  -8.130012e+01   2.994825e+01
   1.079986e+02  -1.031038e+02
   1.919447e+02   7.871301e+00
   4.720392e+01   1.926571e+02
  -1.603908e+02   1.673884e+02
  -1.755171e+02  -6.116992e+01
   1.912716e+01  -1.893170e+02
   1.908813e+02  -2.921258e+01
   1.554132e+02   2.465167e+02
  -3.889615e+01   3.419990e+02
  -2.308928e+02   1.824230e+02
  -3.171166e+02  -7.052453e+01
  -2.645036e+02  -2.394803e+02
  -8.617267e+01  -2.584557e+02
   1.138567e+02  -1.538577e+02
   1.742930e+02  -1.752718e+01
   5.791961e+01   3.232785e+01
  -6.684672e+01  -3.858554e+01
  -2.682772e+01  -1.222942e+02
   1.226925e+02  -9.545752e+01
   1.748252e+02   1.518952e+01
   5.651944e+01   7.186424e+01
  -7.766376e+01   1.470133e+01
  -5.181205e+01  -7.181483e+01
   1.220740e+02  -8.069740e+01
   2.735871e+02   7.496388e+00
   2.523233e+02   1.417465e+02
   5.303384e+01   2.486969e+02
  -1.844715e+02   2.503091e+02
  -2.794535e+02   1.184042e+02
  -1.664435e+02  -5.321768e+01
   2.513347e+01  -1.074789e+02
   8.954875e+01  -7.481559e+00
  -3.295251e+01   9.841877e+01
  -1.921637e+02   5.490334e+01
  -2.072727e+02  -1.039911e+02
  -6.445115e+01  -2.051905e+02
   9.524898e+01  -1.535481e+02
   1.418245e+02  -2.630251e+01
   6.909205e+01   4.159088e+01
  -2.589399e+01   2.563378e+00
  -3.395697e+01  -8.053946e+01
   7.142507e+01  -1.071549e+02
   1.922447e+02  -2.392694e+01
   1.839557e+02   1.234495e+02
   1.692715e+01   2.132005e+02
  -1.641911e+02   1.577336e+02
  -1.909966e+02   2.627429e+00
  -6.263485e+01  -1.139794e+02
   6.735393e+01  -1.087048e+02
   8.259569e+01  -2.892918e+01
   1.822616e+01   2.532040e+01
  -2.056769e+01   1.752239e+01
   1.021785e+01  -7.027016e+00
   6.831988e+01   1.082466e+01
   8.296152e+01   8.155773e+01
   1.083519e+01   1.531106e+02
  -1.250708e+02   1.447043e+02
  -2.267619e+02   2.069037e+01
  -1.932827e+02  -1.493171e+02
  -3.646845e+01  -2.321872e+02
   1.097844e+02  -1.641015e+02
   1.336609e+02  -2.381385e+01
   6.800343e+01   5.635243e+01
   2.714893e+01   3.604075e+01
   5.220671e+01  -1.051343e+01
   7.743461e+01  -4.209915e+00
   3.887558e+01   4.939059e+01
  -4.359692e+01   8.384611e+01
  -1.002826e+02   5.037988e+01
  -8.118363e+01  -3.650205e+01
   1.575292e+01  -1.059296e+02
   1.384409e+02  -7.962246e+01
   1.894686e+02   5.301556e+01
   9.379068e+01   1.965560e+02
  -1.068166e+02   2.196579e+02
  -2.609659e+02   8.876823e+01
  -2.493040e+02  -8.817729e+01
  -1.039018e+02  -1.743190e+02
   4.044838e+01  -1.429641e+02
   9.399096e+01  -8.033690e+01
   7.911681e+01  -6.622283e+01
   6.732956e+01  -8.708006e+01
   9.160125e+01  -6.988485e+01
   1.240542e+02   2.442948e+01
   1.108434e+02   1.522310e+02
   2.406855e+01   2.202115e+02
  -9.932819e+01   1.654717e+02
  -1.709734e+02   1.679851e+01
  -1.302254e+02  -1.207810e+02
  -1.572003e+01  -1.554634e+02
   6.684575e+01  -8.847907e+01
   5.799268e+01   3.220553e-01
   3.726070e+00   4.102031e+01
  -1.056388e+01   3.283499e+01
   3.509026e+01   1.843912e+01
   7.635389e+01   2.410057e+01
   4.232507e+01   3.815783e+01
  -6.245869e+01   3.401455e+01
  -1.525991e+02  -9.380914e-01
  -1.373622e+02  -5.260105e+01
  -1.306432e+01  -8.552542e+01
   1.181868e+02  -6.879803e+01
   1.408447e+02  -1.007326e+01
   4.597624e+01   4.043098e+01
  -5.931847e+01   3.490200e+01
  -7.314980e+01  -2.014302e+01
  -5.650740e+00  -6.666476e+01
   5.568182e+01  -5.501375e+01
   6.135482e+01   3.621706e+00
   4.140649e+01   4.986063e+01
   4.105000e+01   4.164558e+01
   5.950335e+01   3.466772e+00
   6.409604e+01   2.063626e+00
   3.231386e+01   6.645717e+01
  -3.529796e+01   1.403188e+02
  -1.157095e+02   1.337653e+02
  -1.593917e+02   2.809923e+01
  -1.170681e+02  -9.100263e+01
  -3.513166e+00  -1.220283e+02
   8.467608e+01  -5.736469e+01
   5.777362e+01   1.595543e+01
  -5.771396e+01   1.815458e+01
  -1.323337e+02  -4.500272e+01
  -7.135982e+01  -1.054742e+02
   8.038121e+01  -1.071160e+02
   1.859401e+02  -4.645723e+01
   1.568323e+02   3.592465e+01
   3.448525e+01   8.465921e+01
  -6.024410e+01   6.685189e+01
  -4.749898e+01   6.257298e+00
   3.814455e+01  -2.512011e+01
   8.723160e+01   2.381235e+01
   2.935288e+01   1.158038e+02
  -9.197951e+01   1.476658e+02
  -1.637808e+02   5.689195e+01
  -1.207608e+02  -1.001770e+02
  -5.808334e+00  -1.917318e+02
   8.587045e+01  -1.379460e+02
   1.010809e+02   8.605266e+00
   5.630903e+01   1.153433e+02
  -3.679205e+00   1.029538e+02
  -4.459996e+01   1.858291e+01
  -4.983864e+01  -3.117053e+01
  -2.515954e+01  -8.728501e+00
  -4.150689e+00   1.987324e+01
  -1.927230e+01  -1.511177e+01
  -5.193760e+01  -8.693973e+01
  -3.866554e+01  -1.067537e+02
   4.609396e+01  -4.263866e+01
   1.331518e+02   4.126516e+01
   1.244757e+02   7.150044e+01
   1.582747e+01   4.846266e+01
  -8.590331e+01   1.960321e+01
  -8.574706e+01   5.552963e+00
  -1.009478e+01  -7.409126e+00
   3.791922e+01  -2.088473e+01
   1.385260e+01  -1.730866e+01
  -2.093603e+01   1.057926e+00
   5.475824e+00   8.949752e+00
   7.208695e+01   5.457928e+00
   8.800818e+01   2.530487e+01
   5.958430e+00   7.811995e+01
  -1.177081e+02   1.078277e+02
  -1.809659e+02   5.188520e+01
  -1.353323e+02  -6.899608e+01
  -2.097772e+01  -1.574887e+02
   8.002547e+01  -1.428883e+02
   1.119028e+02  -5.363853e+01
   7.749622e+01   2.280773e+01
   2.313366e+01   3.478658e+01
  -3.327559e+00   8.361916e+00
   9.578079e+00   4.130901e+00
   3.091971e+01   4.478712e+01
   1.995013e+01   8.740377e+01
  -2.992993e+01   6.854470e+01
  -7.814221e+01  -1.986874e+01
  -7.199034e+01  -1.067896e+02
  -1.250443e+00  -1.088420e+02
   8.055716e+01  -2.099444e+01
   9.794263e+01   7.572286e+01
   2.828776e+01   1.010144e+02
  -6.585324e+01   5.198603e+01
  -9.422690e+01  -1.410086e+01
  -3.626835e+01  -4.981990e+01
   3.311247e+01  -4.893790e+01
   3.072083e+01  -2.622275e+01
  -3.322755e+01  -3.130144e-01
  -6.721232e+01   4.767817e+00
  -1.366127e+01  -2.463062e+01
   7.812101e+01  -6.187767e+01
   1.127805e+02  -5.384172e+01
   6.104367e+01   1.313315e+01
  -1.737325e+01   7.981295e+01
  -5.308233e+01   7.517491e+01
  -3.586131e+01   4.179844e+00
  -1.789243e-02  -5.424116e+01
   2.609586e+01  -4.068500e+01
   3.489857e+01   1.877523e+01
   2.426813e+01   5.285652e+01
  -3.750585e+00   3.152755e+01
  -3.185340e+01  -9.149785e+00
  -3.762614e+01  -2.125168e+01
  -1.975811e+01  -1.479181e+00
   1.269421e-01   1.362428e+01
   6.366701e+00  -2.957620e+00
   7.336666e+00  -3.551690e+01
   1.756289e+01  -4.301127e+01
   3.179571e+01  -6.487767e+00
   2.815643e+01   4.467422e+01
  -3.757428e+00   5.920861e+01
  -4.381965e+01   1.874977e+01
  -5.360011e+01  -3.961449e+01
  -1.237726e+01  -6.147981e+01
   5.384123e+01  -3.133783e+01
   8.537340e+01   1.734588e+01
   4.624961e+01   4.383939e+01
  -2.897197e+01   3.851131e+01
  -6.326337e+01   1.883227e+01
  -2.346530e+01   3.883103e+00
   3.622524e+01   2.953972e+00
   3.635072e+01   1.620117e+01
  -3.043890e+01   2.970441e+01
  -8.884792e+01   1.704840e+01
