
 $NMID
 id='ANONYMOUS ', fmtdat='(2E16.6)'
 volume=1.0
 tramp=1.0
 $END
   4.599756e+03   1.250913e+02
   2.544081e+03   2.882781e+03
  -9.573308e+02   2.864158e+03
  -2.294295e+03   7.590057e+02
  -9.090098e+02  -8.332576e+02
   8.130311e+02  -6.042115e+02
   9.659837e+02   5.425845e+02
  -6.817890e+01   1.168346e+03
  -9.348135e+02   7.893842e+02
  -9.926324e+02  -1.654823e+02
  -4.226230e+02  -9.498029e+02
   3.208468e+02  -9.281187e+02
   7.040553e+02  -7.406709e+01
   3.823223e+02   7.989421e+02
  -3.289063e+02   7.841269e+02
  -6.488839e+02  -4.608855e+01
  -2.475595e+02  -7.336345e+02
   3.797435e+02  -6.317701e+02
   6.083123e+02  -4.337445e+01
   3.693440e+02   3.949926e+02
  -1.600138e+01   4.527651e+02
  -2.729411e+02   2.600016e+02
  -2.368412e+02  -3.644156e+00
   1.148658e+02  -1.170859e+02
   4.394224e+02   1.037217e+02
   2.236433e+02   4.634481e+02
  -4.862881e+02   4.490268e+02
  -9.064239e+02  -8.879407e+01
  -4.511749e+02  -6.079527e+02
   4.341653e+02  -5.260261e+02
   8.017379e+02   4.808776e+01
   3.629633e+02   5.249915e+02
  -3.097039e+02   5.476492e+02
  -6.027854e+02   1.999018e+02
  -4.316637e+02  -2.567637e+02
  -5.252271e+01  -5.116646e+02
   2.403908e+02  -2.949028e+02
   1.987681e+02   2.542389e+02
  -1.871689e+02   4.872452e+02
  -4.984359e+02  -1.895814e+01
  -2.636550e+02  -7.401235e+02
   3.625729e+02  -7.490719e+02
   6.623892e+02   1.924891e+01
   2.660548e+02   6.156634e+02
  -3.342721e+02   3.435891e+02
  -4.185062e+02  -3.551651e+02
   7.936971e+01  -5.839637e+02
   5.894604e+02  -1.360971e+02
   6.135140e+02   4.369691e+02
   1.546894e+02   6.152490e+02
  -4.135957e+02   3.543496e+02
  -6.575545e+02  -9.502606e+01
  -3.739878e+02  -4.229039e+02
   1.876510e+02  -3.877783e+02
   4.781993e+02  -3.705137e+01
   2.405907e+02   2.345129e+02
  -1.477670e+02   1.167996e+02
  -1.561884e+02  -1.814500e+02
   1.877007e+02  -2.074618e+02
   3.726804e+02   9.156387e+01
   1.372075e+02   3.279038e+02
  -2.237760e+02   2.597447e+02
  -3.342617e+02   5.528347e+01
  -1.844472e+02  -8.700295e+01
   2.860883e+01  -2.071489e+02
   2.141460e+02  -3.191783e+02
   3.412986e+02  -2.266205e+02
   3.044181e+02   1.398065e+02
   7.625929e+01   4.587775e+02
  -1.404257e+02   3.985586e+02
  -1.418653e+02   9.901109e+01
  -2.021930e+01  -3.330494e+01
  -2.599572e+01   8.478170e+01
  -1.910030e+02   1.446665e+02
  -2.912827e+02  -4.529205e+01
  -1.709278e+02  -2.811966e+02
   7.359357e+01  -2.731128e+02
   2.401536e+02  -1.668351e+01
   2.096292e+02   2.485744e+02
  -8.800312e+00   3.090983e+02
  -2.774977e+02   1.245246e+02
  -3.741061e+02  -1.756770e+02
  -1.862096e+02  -3.698337e+02
   1.158226e+02  -3.166083e+02
   2.429959e+02  -1.115393e+02
   1.517615e+02   1.152837e+01
   9.042983e+01  -2.834669e+01
   2.288639e+02  -6.827362e+01
   4.024535e+02   5.599089e+01
   3.336787e+02   2.902574e+02
  -4.517410e+00   4.483087e+02
  -3.654244e+02   4.152339e+02
  -4.984725e+02   2.004552e+02
  -3.486466e+02  -9.932609e+01
  -5.655715e+01  -3.082637e+02
   1.446991e+02  -2.643771e+02
   9.737435e+01  -2.517314e+01
  -1.137385e+02   1.214760e+02
  -2.138312e+02  -4.737521e+00
  -5.506495e+01  -2.124875e+02
   1.779967e+02  -1.846792e+02
   1.953306e+02   6.827187e+01
  -2.029278e+01   2.089781e+02
  -2.058311e+02   3.604262e+01
  -1.638380e+02  -2.565464e+02
   4.032347e+01  -3.536102e+02
   2.331055e+02  -1.873608e+02
   3.205592e+02   6.820802e+01
   2.757466e+02   2.392854e+02
   9.882575e+01   2.655030e+02
  -1.141568e+02   1.647843e+02
  -1.861589e+02   2.081104e+01
  -6.369339e+01  -3.834989e+01
   7.475512e+01   3.574678e+01
   3.489496e+01   1.305956e+02
  -1.280116e+02   1.064880e+02
  -1.881150e+02  -1.342175e+01
  -6.335475e+01  -7.923656e+01
   8.148604e+01  -2.219584e+01
   5.900782e+01   7.036128e+01
  -1.193904e+02   8.567511e+01
  -2.788900e+02   7.537236e-01
  -2.645062e+02  -1.374809e+02
  -6.439796e+01  -2.561524e+02
   1.846629e+02  -2.669565e+02
   2.922807e+02  -1.298202e+02
   1.786237e+02   5.696280e+01
  -2.605427e+01   1.182081e+02
  -9.897985e+01   9.429992e+00
   3.016717e+01  -1.078243e+02
   2.018185e+02  -6.321979e+01
   2.202459e+02   1.068814e+02
   6.971370e+01   2.163246e+02
  -9.973764e+01   1.636366e+02
  -1.510420e+02   2.964831e+01
  -7.656604e+01  -4.522419e+01
   2.520661e+01  -9.330892e+00
   3.992643e+01   7.735056e+01
  -6.635628e+01   1.116325e+02
  -1.958727e+02   3.109388e+01
  -1.935188e+02  -1.234582e+02
  -2.115048e+01  -2.223318e+02
   1.706308e+02  -1.664752e+02
   2.008758e+02  -1.931507e+00
   6.635155e+01   1.221532e+02
  -7.087062e+01   1.159833e+02
  -8.834972e+01   3.088415e+01
  -2.281384e+01  -2.752409e+01
   1.824783e+01  -2.162314e+01
  -9.278648e+00   3.294194e+00
  -6.553405e+01  -1.147480e+01
  -8.298599e+01  -7.950648e+01
  -1.491350e+01  -1.536173e+02
   1.233144e+02  -1.510693e+02
   2.331067e+02  -2.750136e+01
   2.032127e+02   1.504558e+02
   4.023240e+01   2.410513e+02
  -1.140330e+02   1.717836e+02
  -1.387015e+02   2.439603e+01
  -6.894220e+01  -5.977901e+01
  -2.655718e+01  -3.800777e+01
  -5.292250e+01   1.095968e+01
  -7.774011e+01   5.523515e+00
  -3.773631e+01  -4.753779e+01
   4.310303e+01  -8.223382e+01
   9.696637e+01  -5.145334e+01
   7.959650e+01   3.295367e+01
  -1.267603e+01   1.048593e+02
  -1.360834e+02   8.400673e+01
  -1.944901e+02  -4.844121e+01
  -1.029875e+02  -1.996879e+02
   1.038834e+02  -2.301044e+02
   2.686457e+02  -9.743587e+01
   2.609033e+02   8.828956e+01
   1.106017e+02   1.811014e+02
  -4.070856e+01   1.498565e+02
  -9.775515e+01   8.409697e+01
  -8.301373e+01   6.803548e+01
  -7.011072e+01   8.870409e+01
  -9.358161e+01   7.129830e+01
  -1.267029e+02  -2.458844e+01
  -1.150282e+02  -1.554688e+02
  -2.749298e+01  -2.266751e+02
   1.007142e+02  -1.726459e+02
   1.777452e+02  -2.059180e+01
   1.378862e+02   1.226253e+02
   1.964947e+01   1.614306e+02
  -6.703950e+01   9.497305e+01
  -6.028462e+01   3.787369e+00
  -7.061984e+00  -4.037960e+01
   6.791165e+00  -3.484765e+01
  -3.772094e+01  -2.076112e+01
  -7.712598e+01  -2.476589e+01
  -4.280385e+01  -3.796111e+01
   6.149919e+01  -3.561056e+01
   1.536979e+02  -2.861518e+00
   1.424402e+02   4.991562e+01
   1.859377e+01   8.697443e+01
  -1.177639e+02   7.311671e+01
  -1.452968e+02   1.354685e+01
  -4.936005e+01  -3.936874e+01
   6.017952e+01  -3.497819e+01
   7.479371e+01   2.005882e+01
   4.307059e+00   6.634772e+01
  -5.824127e+01   5.444751e+01
  -6.151026e+01  -3.771295e+00
  -3.996503e+01  -4.961941e+01
  -4.165145e+01  -4.171196e+01
  -6.247915e+01  -3.623206e+00
  -6.619843e+01  -1.539118e+00
  -3.212085e+01  -6.614500e+01
   3.573689e+01  -1.423826e+02
   1.151781e+02  -1.381625e+02
   1.597759e+02  -3.159495e+01
   1.197293e+02   9.096731e+01
   6.312243e+00   1.241177e+02
  -8.432081e+01   5.848588e+01
  -5.860599e+01  -1.665020e+01
   5.933495e+01  -1.895773e+01
   1.371313e+02   4.583080e+01
   7.546849e+01   1.084902e+02
  -8.128036e+01   1.118946e+02
  -1.919219e+02   5.112819e+01
  -1.636359e+02  -3.443250e+01
  -3.764515e+01  -8.768225e+01
   6.136205e+01  -7.165059e+01
   4.960490e+01  -8.755554e+00
  -3.831699e+01   2.533370e+01
  -8.909722e+01  -2.423997e+01
  -2.929252e+01  -1.188828e+02
   9.595565e+01  -1.511183e+02
   1.694018e+02  -5.710020e+01
   1.241867e+02   1.041273e+02
   5.688226e+00   1.977862e+02
  -8.827272e+01   1.430873e+02
  -1.045761e+02  -6.984195e+00
  -6.037141e+01  -1.180929e+02
   6.521229e-01  -1.077012e+02
   4.487119e+01  -2.121721e+01
   5.310691e+01   3.193703e+01
   2.788688e+01   9.782863e+00
   3.910329e+00  -2.132134e+01
   1.826143e+01   1.319426e+01
   5.378643e+01   8.846006e+01
   4.252451e+01   1.112739e+02
  -4.525872e+01   4.561311e+01
  -1.376582e+02  -4.209317e+01
  -1.300664e+02  -7.349979e+01
  -1.677081e+01  -4.885184e+01
   8.954947e+01  -1.938277e+01
   8.873317e+01  -6.670681e+00
   9.317100e+00   6.050420e+00
  -3.983971e+01   2.163117e+01
  -1.335853e+01   1.955400e+01
   2.278693e+01  -1.619286e-01
  -6.050113e+00  -1.018241e+01
  -7.545713e+01  -6.843687e+00
  -9.009810e+01  -2.576558e+01
  -3.728788e+00  -7.896994e+01
   1.224052e+02  -1.097608e+02
   1.843098e+02  -5.288568e+01
   1.362235e+02   7.108863e+01
   2.086129e+01   1.617354e+02
  -8.051337e+01   1.462171e+02
  -1.134335e+02   5.440726e+01
  -7.956622e+01  -2.347200e+01
  -2.384787e+01  -3.486044e+01
   4.235119e+00  -7.177799e+00
  -9.400212e+00  -2.881608e+00
  -3.300814e+01  -4.524616e+01
  -2.230481e+01  -8.980228e+01
   3.025486e+01  -7.057900e+01
   8.072242e+01   2.093911e+01
   7.340021e+01   1.105315e+02
  -4.584540e-01   1.113948e+02
  -8.364402e+01   1.954639e+01
  -9.957613e+01  -7.937554e+01
  -2.776775e+01  -1.030215e+02
   6.718751e+01  -5.157367e+01
   9.512231e+01   1.439699e+01
   3.664701e+01   4.872397e+01
  -3.255667e+01   4.833273e+01
  -2.928712e+01   2.758823e+01
   3.547772e+01   1.994486e+00
   6.903508e+01  -4.708054e+00
   1.356639e+01   2.443919e+01
  -8.005294e+01   6.407402e+01
  -1.146882e+02   5.766315e+01
  -6.148559e+01  -1.137765e+01
   1.770211e+01  -8.140712e+01
   5.260553e+01  -7.705702e+01
   3.440267e+01  -3.508207e+00
  -1.261486e+00   5.605636e+01
  -2.661040e+01   4.052937e+01
  -3.520381e+01  -2.086159e+01
  -2.473953e+01  -5.401464e+01
   3.593133e+00  -3.064497e+01
   3.241481e+01   9.993609e+00
   3.857038e+01   2.043084e+01
   2.053700e+01   5.271518e-01
   5.104462e-02  -1.243641e+01
  -7.453632e+00   5.642365e+00
  -1.005284e+01   3.674691e+01
  -2.061927e+01   4.126193e+01
  -3.269325e+01   3.213058e+00
  -2.596147e+01  -4.714300e+01
   6.995072e+00  -5.990351e+01
   4.545213e+01  -1.796478e+01
   5.333153e+01   4.129919e+01
   1.164757e+01   6.325822e+01
  -5.446663e+01   3.213891e+01
  -8.637906e+01  -1.791174e+01
  -4.722245e+01  -4.478466e+01
   2.919522e+01  -3.856580e+01
   6.416250e+01  -1.816374e+01
   2.282171e+01  -4.000333e+00
  -3.875845e+01  -4.789235e+00
  -3.761800e+01  -1.887223e+01
   3.324569e+01  -3.138739e+01
   9.391725e+01  -1.665622e+01
