
 $NMID
 id='ANONYMOUS ', fmtdat='(2E16.6)'
 volume=1.0
 tramp=1.0
 $END
  -4.654161e+03   1.407560e+02
  -2.775872e+03  -2.778061e+03
   7.815159e+02  -3.002088e+03
   2.317241e+03  -9.518836e+02
   1.039929e+03   7.877868e+02
  -7.474462e+02   6.986938e+02
  -1.018848e+03  -4.574123e+02
  -2.400826e+01  -1.182502e+03
   8.932579e+02  -8.683579e+02
   1.026388e+03   9.884061e+01
   4.986862e+02   9.400628e+02
  -2.624945e+02   9.741071e+02
  -7.110734e+02   1.353836e+02
  -4.431328e+02  -7.777857e+02
   2.822492e+02  -8.196411e+02
   6.651361e+02   1.208639e+00
   2.987560e+02   7.354284e+02
  -3.566815e+02   6.771994e+02
  -6.328390e+02   8.374030e+01
  -4.099963e+02  -3.888732e+02
  -1.122499e+01  -4.710439e+02
   2.633771e+02  -2.860069e+02
   2.428130e+02  -2.032159e+01
  -9.789904e+01   1.108379e+02
  -4.318499e+02  -8.327013e+01
  -2.439039e+02  -4.420026e+02
   4.567146e+02  -4.657996e+02
   9.086827e+02   3.883285e+01
   4.924591e+02   5.777136e+02
  -3.948501e+02   5.489881e+02
  -8.018417e+02  -5.265348e-01
  -3.948325e+02  -5.032989e+02
   2.795947e+02  -5.657391e+02
   5.967917e+02  -2.335998e+02
   4.527153e+02   2.350492e+02
   8.799603e+01   5.155091e+02
  -2.192723e+02   3.217866e+02
  -2.165620e+02  -2.279130e+02
   1.476190e+02  -4.926318e+02
   4.890032e+02  -1.726062e+01
   3.053319e+02   7.170939e+02
  -3.156705e+02   7.743931e+02
  -6.661093e+02   3.025423e+01
  -3.112596e+02  -5.968459e+02
   3.066863e+02  -3.694451e+02
   4.371896e+02   3.253545e+02
  -4.649337e+01   5.884933e+02
  -5.847498e+02   1.676622e+02
  -6.407914e+02  -4.119029e+02
  -1.880123e+02  -6.176244e+02
   3.986375e+02  -3.813697e+02
   6.710160e+02   6.223990e+01
   4.079372e+02   4.098827e+02
  -1.605740e+02   4.075377e+02
  -4.834682e+02   7.070190e+01
  -2.688194e+02  -2.222063e+02
   1.340043e+02  -1.335203e+02
   1.725302e+02   1.666222e+02
  -1.693231e+02   2.200242e+02
  -3.815885e+02  -6.751918e+01
  -1.613728e+02  -3.239867e+02
   2.157075e+02  -2.775884e+02
   3.455386e+02  -6.960162e+01
   1.927030e+02   8.937360e+01
  -3.120410e+01   2.163555e+02
  -2.139614e+02   3.272464e+02
  -3.355846e+02   2.378412e+02
  -3.105067e+02  -1.272730e+02
  -1.002195e+02  -4.591351e+02
   1.195927e+02  -4.164073e+02
   1.430752e+02  -1.177565e+02
   3.344900e+01   2.969028e+01
   2.989239e+01  -7.914357e+01
   1.843240e+02  -1.458825e+02
   2.902878e+02   3.476979e+01
   1.826915e+02   2.732072e+02
  -5.992429e+01   2.760549e+02
  -2.375580e+02   2.713523e+01
  -2.196361e+02  -2.397730e+02
  -4.983461e+00  -3.097831e+02
   2.721953e+02  -1.365591e+02
   3.848090e+02   1.607296e+02
   2.072759e+02   3.664425e+02
  -1.009442e+02   3.297972e+02
  -2.445851e+02   1.293869e+02
  -1.622230e+02  -3.201457e+00
  -9.637103e+01   2.852306e+01
  -2.298788e+02   7.211038e+01
  -4.087010e+02  -4.555050e+01
  -3.483736e+02  -2.834825e+02
  -1.062826e+01  -4.545505e+02
   3.571121e+02  -4.330412e+02
   4.979129e+02  -2.215021e+02
   3.560858e+02   8.438092e+01
   7.135086e+01   3.069409e+02
  -1.312071e+02   2.759253e+02
  -9.637806e+01   3.632554e+01
   1.051848e+02  -1.244320e+02
   2.123120e+02  -8.100348e+00
   6.741064e+01   2.082266e+02
  -1.663654e+02   1.962875e+02
  -1.995300e+02  -5.535775e+01
   7.520961e+00  -2.101164e+02
   2.038634e+02  -4.604829e+01
   1.767780e+02   2.539215e+02
  -2.752905e+01   3.626445e+02
  -2.330752e+02   1.985551e+02
  -3.304981e+02  -6.157658e+01
  -2.868948e+02  -2.355204e+02
  -1.073588e+02  -2.641716e+02
   1.092078e+02  -1.694758e+02
   1.863580e+02  -2.979636e+01
   6.714850e+01   3.369368e+01
  -7.433468e+01  -3.282327e+01
  -3.992987e+01  -1.279741e+02
   1.233005e+02  -1.115977e+02
   1.893757e+02   4.421654e+00
   6.802432e+01   7.503305e+01
  -7.932905e+01   2.400721e+01
  -5.974978e+01  -6.876629e+01
   1.199472e+02  -8.878156e+01
   2.827987e+02  -7.277688e+00
   2.707829e+02   1.317363e+02
   7.217794e+01   2.557743e+02
  -1.771452e+02   2.747836e+02
  -2.895776e+02   1.426933e+02
  -1.832166e+02  -4.820437e+01
   1.936141e+01  -1.194580e+02
   9.801559e+01  -1.530573e+01
  -2.561485e+01   1.078413e+02
  -2.001975e+02   7.143300e+01
  -2.268532e+02  -9.862071e+01
  -8.009413e+01  -2.157010e+02
   9.329872e+01  -1.698319e+02
   1.507457e+02  -3.696059e+01
   7.911435e+01   4.058426e+01
  -2.335984e+01   7.768418e+00
  -3.996806e+01  -7.752112e+01
   6.553836e+01  -1.134407e+02
   1.973296e+02  -3.615943e+01
   1.997037e+02   1.186962e+02
   2.969831e+01   2.242151e+02
  -1.662609e+02   1.757882e+02
  -2.042387e+02   1.123453e+01
  -7.356347e+01  -1.201932e+02
   6.615166e+01  -1.204674e+02
   8.770954e+01  -3.573550e+01
   2.358990e+01   2.529833e+01
  -1.744345e+01   2.052014e+01
   1.125659e+01  -4.506635e+00
   6.909550e+01   1.102921e+01
   8.686809e+01   8.058183e+01
   1.818243e+01   1.563786e+02
  -1.214692e+02   1.562659e+02
  -2.350838e+02   3.458565e+01
  -2.107196e+02  -1.457894e+02
  -4.991773e+01  -2.433095e+02
   1.088588e+02  -1.793087e+02
   1.406062e+02  -3.050948e+01
   7.370304e+01   5.841619e+01
   2.934363e+01   3.811850e+01
   5.391904e+01  -1.279998e+01
   7.946579e+01  -7.380654e+00
   3.981589e+01   4.914312e+01
  -4.315887e+01   8.630598e+01
  -9.941824e+01   5.393711e+01
  -8.212441e+01  -3.375434e+01
   1.182324e+01  -1.076855e+02
   1.373392e+02  -8.781215e+01
   1.984952e+02   4.454802e+01
   1.095801e+02   1.987928e+02
  -9.818626e+01   2.355146e+02
  -2.687952e+02   1.075708e+02
  -2.677020e+02  -7.984651e+01
  -1.192099e+02  -1.791833e+02
   3.538539e+01  -1.535048e+02
   9.600315e+01  -8.951472e+01
   8.191925e+01  -7.325830e+01
   6.851647e+01  -9.388246e+01
   9.353049e+01  -7.628137e+01
   1.305632e+02   2.103381e+01
   1.225693e+02   1.547728e+02
   3.557886e+01   2.297285e+02
  -9.623823e+01   1.789083e+02
  -1.791685e+02   2.719903e+01
  -1.436196e+02  -1.193998e+02
  -2.544881e+01  -1.625706e+02
   6.414342e+01  -9.765205e+01
   5.975024e+01  -4.990248e+00
   6.970556e+00   4.039802e+01
  -6.576600e+00   3.399690e+01
   3.949279e+01   1.866070e+01
   8.022720e+01   2.305431e+01
   4.490955e+01   3.795169e+01
  -6.224241e+01   3.742402e+01
  -1.566840e+02   6.071023e+00
  -1.455400e+02  -4.675905e+01
  -2.015595e+01  -8.663675e+01
   1.181002e+02  -7.688029e+01
   1.467579e+02  -1.829714e+01
   5.041227e+01   3.838946e+01
  -6.088707e+01   3.795045e+01
  -7.711884e+01  -1.816499e+01
  -6.469405e+00  -6.898331e+01
   5.807545e+01  -5.886620e+01
   6.357694e+01   2.201887e+00
   4.289763e+01   5.081847e+01
   4.387870e+01   4.171693e+01
   6.364230e+01   9.221149e-01
   6.745024e+01  -7.580662e-01
   3.478671e+01   6.760953e+01
  -3.227077e+01   1.473323e+02
  -1.137667e+02   1.438671e+02
  -1.625730e+02   3.569945e+01
  -1.249919e+02  -8.976947e+01
  -9.589622e+00  -1.261336e+02
   8.519007e+01  -6.200817e+01
   6.089932e+01   1.512198e+01
  -5.989200e+01   2.145282e+01
  -1.414197e+02  -4.162685e+01
  -8.047947e+01  -1.074141e+02
   7.883966e+01  -1.163221e+02
   1.929326e+02  -5.847548e+01
   1.669088e+02   2.916971e+01
   4.123143e+01   8.728103e+01
  -5.923898e+01   7.436091e+01
  -4.929196e+01   1.030335e+01
   3.874883e+01  -2.712273e+01
   9.211241e+01   2.185641e+01
   3.450098e+01   1.209290e+02
  -9.247483e+01   1.588131e+02
  -1.714001e+02   6.539583e+01
  -1.312306e+02  -1.016178e+02
  -1.334974e+01  -2.019952e+02
   8.461523e+01  -1.491559e+02
   1.063040e+02   3.694917e+00
   6.505859e+01   1.178171e+02
   2.942446e+00   1.084035e+02
  -4.464124e+01   2.228065e+01
  -5.483921e+01  -3.006425e+01
  -2.853666e+01  -7.966446e+00
  -3.002412e+00   2.152924e+01
  -1.876982e+01  -1.417509e+01
  -5.775566e+01  -8.867767e+01
  -4.722485e+01  -1.107322e+02
   4.464815e+01  -4.692100e+01
   1.419638e+02   3.786999e+01
   1.350342e+02   6.966336e+01
   1.840016e+01   4.948348e+01
  -9.078880e+01   2.379582e+01
  -8.996952e+01   9.956874e+00
  -9.497331e+00  -6.757118e+00
   3.962897e+01  -2.384648e+01
   1.257058e+01  -1.958537e+01
  -2.324685e+01   1.770556e+00
   6.795316e+00   9.720123e+00
   7.746601e+01   3.351476e+00
   9.312308e+01   2.330659e+01
   6.945103e+00   8.198247e+01
  -1.211845e+02   1.175990e+02
  -1.873367e+02   6.027953e+01
  -1.429175e+02  -6.881887e+01
  -2.737509e+01  -1.650011e+02
   7.786819e+01  -1.520396e+02
   1.148499e+02  -5.939911e+01
   8.228218e+01   2.115068e+01
   2.529662e+01   3.505753e+01
  -4.347357e+00   8.261380e+00
   9.345892e+00   3.214940e+00
   3.471136e+01   4.487609e+01
   2.547890e+01   9.038334e+01
  -2.850702e+01   7.306183e+01
  -8.339974e+01  -1.817392e+01
  -7.957371e+01  -1.103857e+02
  -3.948641e+00  -1.147830e+02
   8.535448e+01  -2.400115e+01
   1.056761e+02   7.750564e+01
   3.225435e+01   1.051347e+02
  -6.772642e+01   5.560171e+01
  -9.834678e+01  -1.196644e+01
  -3.851511e+01  -4.955275e+01
   3.277432e+01  -5.069476e+01
   2.945522e+01  -2.820981e+01
  -3.657218e+01   2.868677e-01
  -7.053736e+01   7.361759e+00
  -1.458369e+01  -2.497105e+01
   7.946634e+01  -6.820115e+01
   1.147458e+02  -6.192792e+01
   6.290913e+01   1.057034e+01
  -1.544593e+01   8.406032e+01
  -5.172925e+01   8.005829e+01
  -3.615505e+01   4.157114e+00
  -1.269058e+00  -5.777585e+01
   2.630918e+01  -4.275829e+01
   3.757556e+01   1.981381e+01
   2.721179e+01   5.453596e+01
  -3.317075e+00   3.194587e+01
  -3.384916e+01  -8.981918e+00
  -3.969337e+01  -1.999574e+01
  -2.057692e+01  -2.788338e-02
  -1.376103e-01   1.329710e+01
   6.139976e+00  -5.549251e+00
   8.051463e+00  -3.882990e+01
   1.988837e+01  -4.487897e+01
   3.463402e+01  -5.588864e+00
   2.968971e+01   4.801969e+01
  -4.337531e+00   6.302738e+01
  -4.620714e+01   2.060170e+01
  -5.683990e+01  -4.079477e+01
  -1.457877e+01  -6.467385e+01
   5.486009e+01  -3.454208e+01
   8.948348e+01   1.568564e+01
   4.992622e+01   4.430896e+01
  -2.904138e+01   4.061531e+01
  -6.570677e+01   2.096299e+01
  -2.361454e+01   4.424313e+00
   3.999569e+01   2.351552e+00
   3.992535e+01   1.713032e+01
  -3.191547e+01   3.378039e+01
  -9.496199e+01   2.170623e+01
