
 $NMID
 id='ANONYMOUS ', fmtdat='(2E16.6)'
 volume=1.0
 tramp=1.0
 $END
   3.523287e+03   1.817138e+02
   2.115810e+03   1.952831e+03
  -2.672249e+02   2.144957e+03
  -1.426790e+03   1.060159e+03
  -8.617413e+02  -3.555388e+00
   1.689132e+02  -2.111657e+02
   4.532571e+02   2.418548e+02
  -2.438023e+01   6.677081e+02
  -5.703273e+02   5.840693e+02
  -6.995118e+02   6.424680e+00
  -3.944599e+02  -6.022563e+02
   8.485811e+01  -6.834339e+02
   3.774172e+02  -1.314223e+02
   2.422715e+02   5.078312e+02
  -1.807480e+02   5.769814e+02
  -4.466311e+02   3.399351e+01
  -2.685703e+02  -5.358948e+02
   1.785046e+02  -6.076236e+02
   4.807504e+02  -2.183581e+02
   4.121256e+02   2.156883e+02
   9.479842e+01   3.702416e+02
  -1.548295e+02   2.380404e+02
  -9.934208e+01   4.911688e+01
   1.857121e+02   4.985001e+01
   3.230594e+02   2.585872e+02
   2.232917e+01   4.041664e+02
  -5.013756e+02   2.179312e+02
  -6.769231e+02  -1.976148e+02
  -2.470046e+02  -4.355655e+02
   3.757909e+02  -2.579747e+02
   5.718777e+02   1.445721e+02
   2.091675e+02   4.142345e+02
  -2.925597e+02   3.864790e+02
  -4.940404e+02   1.282155e+02
  -3.369627e+02  -1.915362e+02
  -5.898844e+01  -3.512076e+02
   8.512977e+01  -1.902126e+02
  -3.914070e+00   1.443355e+02
  -2.109821e+02   2.258457e+02
  -2.746245e+02  -1.429528e+02
  -4.216664e+01  -5.677302e+02
   3.035226e+02  -4.953935e+02
   3.968519e+02   3.485753e+01
   1.242507e+02   3.919725e+02
  -2.078223e+02   1.667478e+02
  -2.167992e+02  -3.113632e+02
   1.260670e+02  -4.322472e+02
   4.829109e+02  -5.745647e+01
   5.045601e+02   4.011647e+02
   1.414408e+02   5.230615e+02
  -3.328284e+02   2.744827e+02
  -5.446161e+02  -8.600563e+01
  -3.319660e+02  -2.932837e+02
   9.080923e+01  -2.490640e+02
   3.250644e+02  -5.618500e+01
   2.052356e+02   7.467729e+01
  -3.170727e+01   2.962923e+01
  -5.980790e+01  -8.482721e+01
   1.302842e+02  -8.115122e+01
   2.537442e+02   7.043434e+01
   1.148831e+02   2.227591e+02
  -1.693358e+02   2.424862e+02
  -3.363211e+02   1.193837e+02
  -2.512324e+02  -9.035608e+01
   1.519658e+01  -2.994439e+02
   2.800354e+02  -3.638815e+02
   3.729596e+02  -1.737842e+02
   2.501653e+02   1.681934e+02
   4.158366e+01   3.839960e+02
  -6.764165e+01   3.252741e+02
  -4.084709e+01   1.468549e+02
  -1.920398e+01   7.964441e+01
  -1.149196e+02   1.193595e+02
  -2.491624e+02   7.554660e+01
  -2.576952e+02  -1.142397e+02
  -1.008779e+02  -2.722537e+02
   1.018741e+02  -2.099053e+02
   2.061926e+02   3.750841e+01
   1.461615e+02   2.548922e+02
  -4.970571e+01   2.650614e+02
  -2.601115e+02   6.815807e+01
  -3.188774e+02  -1.841911e+02
  -1.619581e+02  -3.170028e+02
   7.223088e+01  -2.694999e+02
   1.799302e+02  -1.371605e+02
   1.409019e+02  -6.037209e+01
   1.348100e+02  -6.504937e+01
   2.735780e+02  -4.486828e+01
   4.140108e+02   9.273110e+01
   3.210950e+02   3.033396e+02
  -2.789498e+01   4.432633e+02
  -3.873352e+02   3.982672e+02
  -4.896650e+02   1.712622e+02
  -2.983791e+02  -1.106956e+02
  -1.734354e+01  -2.668929e+02
   1.129729e+02  -2.044340e+02
   2.727559e+01  -2.645490e+01
  -1.258588e+02   5.457613e+01
  -1.492406e+02  -4.172438e+01
  -8.057559e+00  -1.603769e+02
   1.382496e+02  -1.124083e+02
   1.237038e+02   6.570408e+01
  -3.658702e+01   1.466202e+02
  -1.737909e+02   1.438315e-01
  -1.490468e+02  -2.430758e+02
   2.946285e+01  -3.432543e+02
   2.420710e+02  -2.031120e+02
   3.514969e+02   6.389673e+01
   2.791489e+02   2.635644e+02
   6.509950e+01   2.797645e+02
  -1.317398e+02   1.452793e+02
  -1.598409e+02   2.714628e+00
  -3.763987e+01  -2.195547e+01
   5.742338e+01   6.045921e+01
  -4.249117e-01   1.214620e+02
  -1.308023e+02   7.173241e+01
  -1.559937e+02  -3.129155e+01
  -3.371855e+01  -6.357532e+01
   8.632487e+01   7.831943e+00
   4.343850e+01   9.293574e+01
  -1.460743e+02   8.933177e+01
  -3.024358e+02  -2.023015e+01
  -2.613701e+02  -1.709253e+02
  -3.083664e+01  -2.682058e+02
   2.123745e+02  -2.404530e+02
   2.794016e+02  -9.616939e+01
   1.435626e+02   5.452705e+01
  -3.499740e+01   8.542180e+01
  -7.202799e+01  -7.221603e+00
   5.396634e+01  -8.707087e+01
   1.926516e+02  -3.367092e+01
   1.924084e+02   1.114682e+02
   5.253260e+01   1.959438e+02
  -9.612965e+01   1.383324e+02
  -1.316324e+02   1.421238e+01
  -4.976545e+01  -4.202194e+01
   4.307921e+01   1.533380e+01
   3.149407e+01   1.075395e+02
  -9.424283e+01   1.201729e+02
  -2.127424e+02   1.397796e+01
  -1.844557e+02  -1.381681e+02
  -7.473138e+00  -2.135855e+02
   1.635765e+02  -1.498569e+02
   1.788230e+02  -4.059138e+00
   5.279388e+01   1.015246e+02
  -6.712945e+01   9.686938e+01
  -7.422561e+01   2.266335e+01
  -3.727467e+00  -2.779172e+01
   3.621407e+01  -1.234403e+01
  -6.923943e+00   2.240793e+01
  -8.456878e+01   1.212925e+00
  -1.030033e+02  -8.982108e+01
  -1.158727e+01  -1.748419e+02
   1.432803e+02  -1.545124e+02
   2.419781e+02  -9.630410e+00
   1.938638e+02   1.631009e+02
   3.281478e+01   2.329516e+02
  -1.077105e+02   1.595030e+02
  -1.311583e+02   2.722293e+01
  -7.122790e+01  -4.724349e+01
  -3.164754e+01  -3.020942e+01
  -5.554457e+01   1.356268e+01
  -8.701253e+01   6.765376e+00
  -5.458018e+01  -5.525695e+01
   3.960985e+01  -1.030323e+02
   1.194756e+02  -6.743144e+01
   1.049411e+02   4.182301e+01
  -1.602180e+01   1.280544e+02
  -1.622104e+02   9.090025e+01
  -2.072779e+02  -6.590945e+01
  -8.631207e+01  -2.166313e+02
   1.275946e+02  -2.251509e+02
   2.730167e+02  -7.984681e+01
   2.471515e+02   9.659674e+01
   9.692041e+01   1.747676e+02
  -4.397217e+01   1.397021e+02
  -9.200180e+01   7.858319e+01
  -7.275948e+01   6.760532e+01
  -6.106187e+01   9.235814e+01
  -9.172073e+01   7.755788e+01
  -1.310989e+02  -2.044442e+01
  -1.172141e+02  -1.564209e+02
  -2.345743e+01  -2.278438e+02
   1.042450e+02  -1.669522e+02
   1.735067e+02  -9.272564e+00
   1.273248e+02   1.306044e+02
   7.731220e+00   1.592152e+02
  -7.759699e+01   8.295325e+01
  -6.455377e+01  -1.259310e+01
   1.767810e+00  -5.335679e+01
   2.460388e+01  -3.781372e+01
  -2.790806e+01  -1.470492e+01
  -8.321340e+01  -1.925856e+01
  -4.919566e+01  -4.011559e+01
   7.232021e+01  -3.992886e+01
   1.729082e+02   1.714696e+00
   1.457627e+02   6.410793e+01
   1.689045e+00   9.923238e+01
  -1.343519e+02   7.376622e+01
  -1.475191e+02   4.394597e+00
  -4.570242e+01  -5.039666e+01
   6.013556e+01  -4.219317e+01
   7.787369e+01   1.914681e+01
   1.707867e+01   7.207706e+01
  -4.768848e+01   6.316224e+01
  -6.766634e+01   1.616775e+00
  -5.546076e+01  -4.982800e+01
  -4.721528e+01  -4.347992e+01
  -5.652837e+01  -3.500842e+00
  -6.555015e+01  -2.128211e+00
  -4.295850e+01  -7.156651e+01
   2.910210e+01  -1.514868e+02
   1.263320e+02  -1.456209e+02
   1.796139e+02  -3.340522e+01
   1.295607e+02   9.562151e+01
   1.920847e+00   1.335662e+02
  -9.210889e+01   6.824484e+01
  -6.161554e+01  -1.187887e+01
   5.872602e+01  -1.973632e+01
   1.339940e+02   4.432437e+01
   6.988106e+01   1.085854e+02
  -8.557583e+01   1.090653e+02
  -1.916314e+02   4.215110e+01
  -1.581811e+02  -4.318455e+01
  -3.013007e+01  -8.699218e+01
   6.612399e+01  -6.211373e+01
   4.997680e+01   7.061864e-01
  -3.995727e+01   3.027098e+01
  -9.218692e+01  -2.073295e+01
  -3.743209e+01  -1.159676e+02
   8.255601e+01  -1.537553e+02
   1.591182e+02  -6.675922e+01
   1.247442e+02   9.407751e+01
   1.278750e+01   1.926896e+02
  -8.477156e+01   1.398720e+02
  -1.047203e+02  -1.217423e+01
  -5.468166e+01  -1.216483e+02
   1.333898e+01  -1.049085e+02
   5.180471e+01  -1.563248e+01
   4.620266e+01   3.369002e+01
   1.802483e+01   9.051452e+00
   6.260511e+00  -1.822056e+01
   2.948216e+01   1.938049e+01
   5.666066e+01   9.040877e+01
   3.175323e+01   1.076196e+02
  -5.550375e+01   4.339929e+01
  -1.355060e+02  -3.957106e+01
  -1.229352e+02  -7.212617e+01
  -1.813030e+01  -5.287260e+01
   8.152292e+01  -2.343514e+01
   8.715713e+01  -4.730243e+00
   1.684137e+01   1.027402e+01
  -3.544217e+01   2.064746e+01
  -1.952891e+01   1.413678e+01
   1.557124e+01  -2.530165e+00
  -2.779271e+00  -6.540628e+00
  -6.716548e+01  -1.367955e+00
  -9.240082e+01  -2.262420e+01
  -1.915103e+01  -7.940325e+01
   1.095650e+02  -1.153712e+02
   1.873992e+02  -6.433673e+01
   1.496863e+02   5.950672e+01
   2.987940e+01   1.591379e+02
  -8.068315e+01   1.541546e+02
  -1.159679e+02   6.421216e+01
  -8.020127e+01  -2.009408e+01
  -2.634022e+01  -3.763555e+01
  -2.122533e+00  -1.172448e+01
  -1.385131e+01  -7.423678e+00
  -3.075571e+01  -4.931914e+01
  -1.796171e+01  -9.186400e+01
   2.981959e+01  -7.162867e+01
   7.827836e+01   1.640110e+01
   7.803901e+01   1.027338e+02
   1.186864e+01   1.094115e+02
  -7.501954e+01   2.946821e+01
  -1.035413e+02  -6.663580e+01
  -3.837022e+01  -1.022455e+02
   6.346439e+01  -6.244473e+01
   1.024474e+02   7.982235e+00
   4.546819e+01   5.630482e+01
  -3.310241e+01   6.022585e+01
  -3.887718e+01   3.006945e+01
   2.662346e+01  -3.891598e+00
   6.823559e+01  -8.118972e+00
   1.800531e+01   2.657542e+01
  -7.904913e+01   6.504718e+01
  -1.212853e+02   5.402530e+01
  -7.072144e+01  -1.561070e+01
   1.406376e+01  -8.443142e+01
   5.723245e+01  -8.299473e+01
   4.290115e+01  -1.263956e+01
   5.625225e+00   5.205437e+01
  -2.342787e+01   4.704413e+01
  -3.562213e+01  -1.160757e+01
  -2.800296e+01  -5.367184e+01
   2.628618e-01  -3.845643e+01
   3.283290e+01   5.648575e+00
   4.212402e+01   2.461635e+01
   2.130353e+01   4.368561e+00
  -4.088647e+00  -1.860411e+01
  -8.215910e+00  -6.756280e+00
   1.481161e+00   3.117535e+01
  -2.677584e+00   4.934837e+01
  -2.586622e+01   1.889956e+01
  -3.776384e+01  -3.516796e+01
  -1.020698e+01  -5.792741e+01
   4.031207e+01  -2.424352e+01
   6.080862e+01   3.332770e+01
   1.829088e+01   6.011617e+01
  -5.645037e+01   3.585288e+01
  -9.205952e+01  -1.170513e+01
  -5.038594e+01  -4.331009e+01
   2.813262e+01  -4.474289e+01
   6.445890e+01  -2.702391e+01
   2.798779e+01  -7.190208e+00
  -2.899624e+01   1.202655e+00
  -3.284984e+01  -8.499359e+00
   2.521861e+01  -2.515105e+01
   8.013536e+01  -1.881390e+01
