
 $NMID
 id='ANONYMOUS ', fmtdat='(2E16.6)'
 volume=1.0
 tramp=1.0
 $END
  -3.797997e+03   1.682710e+02
  -2.274036e+03  -2.282473e+03
   6.744588e+02  -2.474895e+03
   1.939049e+03  -7.390362e+02
   8.464684e+02   7.245798e+02
  -6.614016e+02   6.210229e+02
  -8.790340e+02  -3.825173e+02
  -3.093858e+01  -9.972755e+02
   7.413512e+02  -7.229234e+02
   8.501668e+02   8.861492e+01
   4.084844e+02   7.819175e+02
  -2.272165e+02   8.049147e+02
  -6.032511e+02   1.099364e+02
  -3.778932e+02  -6.445250e+02
   2.324896e+02  -6.765958e+02
   5.515411e+02   3.544550e+00
   2.402418e+02   6.031246e+02
  -3.031871e+02   5.415367e+02
  -5.178032e+02   4.832096e+01
  -3.223290e+02  -3.284722e+02
   1.801177e+00  -3.835469e+02
   2.207781e+02  -2.316885e+02
   2.104393e+02  -1.329955e+01
  -6.272111e+01   1.085688e+02
  -3.516569e+02  -3.928640e+01
  -2.225918e+02  -3.490325e+02
   3.485899e+02  -3.991750e+02
   7.422153e+02   5.463306e+00
   4.214829e+02   4.695536e+02
  -3.086995e+02   4.708969e+02
  -6.584734e+02   2.237001e+01
  -3.361520e+02  -4.044582e+02
   2.150287e+02  -4.679363e+02
   4.803660e+02  -1.988666e+02
   3.710603e+02   1.887558e+02
   7.471450e+01   4.261936e+02
  -1.890742e+02   2.716585e+02
  -2.013563e+02  -1.879572e+02
   1.038954e+02  -4.225043e+02
   4.113181e+02  -3.826153e+01
   2.776775e+02   5.795680e+02
  -2.457648e+02   6.454899e+02
  -5.584976e+02   3.565158e+01
  -2.720589e+02  -4.939764e+02
   2.518367e+02  -3.186724e+02
   3.733983e+02   2.543126e+02
  -2.345440e+01   4.817738e+02
  -4.708031e+02   1.479320e+02
  -5.209014e+02  -3.222566e+02
  -1.548575e+02  -4.960826e+02
   3.200215e+02  -3.142717e+02
   5.426764e+02   4.385851e+01
   3.311886e+02   3.362355e+02
  -1.337966e+02   3.419201e+02
  -4.004338e+02   5.907306e+01
  -2.207742e+02  -1.939069e+02
   1.182214e+02  -1.201049e+02
   1.517002e+02   1.407617e+02
  -1.365974e+02   1.921497e+02
  -3.165891e+02  -5.105380e+01
  -1.339138e+02  -2.672538e+02
   1.748549e+02  -2.226938e+02
   2.721150e+02  -4.772347e+01
   1.426010e+02   7.024292e+01
  -2.732761e+01   1.577839e+02
  -1.583134e+02   2.504257e+02
  -2.566382e+02   1.949491e+02
  -2.511521e+02  -9.312743e+01
  -8.759461e+01  -3.692613e+02
   9.983977e+01  -3.392061e+02
   1.265457e+02  -8.907177e+01
   2.920238e+01   3.846016e+01
   1.176645e+01  -5.550689e+01
   1.343986e+02  -1.235422e+02
   2.310258e+02   1.558637e+01
   1.546124e+02   2.130797e+02
  -4.024402e+01   2.249660e+02
  -1.896964e+02   3.073340e+01
  -1.821848e+02  -1.847147e+02
  -1.215875e+01  -2.481959e+02
   2.140000e+02  -1.167286e+02
   3.102600e+02   1.216744e+02
   1.692128e+02   2.931819e+02
  -8.230717e+01   2.668710e+02
  -2.004938e+02   1.008757e+02
  -1.305311e+02  -1.116680e+01
  -7.033069e+01   1.687721e+01
  -1.734541e+02   5.997137e+01
  -3.186612e+02  -2.885368e+01
  -2.764077e+02  -2.186143e+02
  -1.406670e+01  -3.569255e+02
   2.746621e+02  -3.436579e+02
   3.902163e+02  -1.807231e+02
   2.865619e+02   6.161848e+01
   6.395274e+01   2.452875e+02
  -1.044389e+02   2.262072e+02
  -8.502669e+01   3.050026e+01
   7.869548e+01  -1.070570e+02
   1.745456e+02  -1.403422e+01
   6.164358e+01   1.690904e+02
  -1.332666e+02   1.657392e+02
  -1.667333e+02  -4.106384e+01
   1.106243e+00  -1.730867e+02
   1.633111e+02  -4.286941e+01
   1.424613e+02   1.998814e+02
  -2.090919e+01   2.865027e+02
  -1.810655e+02   1.547684e+02
  -2.556811e+02  -4.788710e+01
  -2.254523e+02  -1.801424e+02
  -8.994280e+01  -2.040853e+02
   8.198130e+01  -1.358692e+02
   1.492945e+02  -2.746327e+01
   5.682057e+01   2.771079e+01
  -6.030853e+01  -2.160545e+01
  -3.704551e+01  -1.006666e+02
   9.500723e+01  -9.292716e+01
   1.526404e+02  -7.217716e-01
   5.819869e+01   5.997589e+01
  -6.078753e+01   2.323892e+01
  -4.886110e+01  -5.023227e+01
   9.014867e+01  -6.921584e+01
   2.182793e+02  -9.523976e+00
   2.129236e+02   9.735378e+01
   6.230859e+01   1.979848e+02
  -1.332123e+02   2.196177e+02
  -2.275328e+02   1.184434e+02
  -1.489145e+02  -3.637409e+01
   1.257785e+01  -9.813104e+01
   8.013887e+01  -1.543421e+01
  -1.581158e+01   8.706090e+01
  -1.573370e+02   6.137886e+01
  -1.822940e+02  -7.493500e+01
  -6.684256e+01  -1.712761e+02
   7.223478e+01  -1.373487e+02
   1.204222e+02  -3.237385e+01
   6.604355e+01   3.124550e+01
  -1.528957e+01   9.157386e+00
  -3.222961e+01  -5.634298e+01
   4.725437e+01  -8.759194e+01
   1.520259e+02  -3.137186e+01
   1.582981e+02   8.990404e+01
   2.657593e+01   1.767296e+02
  -1.301538e+02   1.413143e+02
  -1.633250e+02   1.013761e+01
  -6.071899e+01  -9.645121e+01
   5.134974e+01  -9.761188e+01
   7.039282e+01  -2.997087e+01
   2.124259e+01   1.925083e+01
  -1.092464e+01   1.704282e+01
   9.580894e+00  -1.054900e+00
   5.201194e+01   1.046036e+01
   6.566304e+01   6.186375e+01
   1.506380e+01   1.197045e+02
  -9.189143e+01   1.223889e+02
  -1.827428e+02   3.062799e+01
  -1.671780e+02  -1.113887e+02
  -4.168501e+01  -1.916704e+02
   8.507381e+01  -1.431647e+02
   1.113114e+02  -2.449458e+01
   5.815536e+01   4.722366e+01
   2.273044e+01   3.094758e+01
   4.196527e+01  -9.921187e+00
   6.111369e+01  -5.832339e+00
   2.904915e+01   3.771252e+01
  -3.438324e+01   6.523932e+01
  -7.507469e+01   4.017452e+01
  -6.099869e+01  -2.544854e+01
   8.795593e+00  -8.136995e+01
   1.039589e+02  -6.812070e+01
   1.539185e+02   3.183762e+01
   8.895682e+01   1.527829e+02
  -7.248418e+01   1.855323e+02
  -2.094365e+02   8.817198e+01
  -2.122600e+02  -5.980259e+01
  -9.655041e+01  -1.405715e+02
   2.627808e+01  -1.220015e+02
   7.554210e+01  -7.167030e+01
   6.530331e+01  -5.824744e+01
   5.460322e+01  -7.378339e+01
   7.341833e+01  -5.957661e+01
   1.021103e+02   1.648183e+01
   9.672971e+01   1.207715e+02
   2.967885e+01   1.799046e+02
  -7.398308e+01   1.416567e+02
  -1.408217e+02   2.394718e+01
  -1.146346e+02  -9.163568e+01
  -2.251858e+01  -1.275118e+02
   4.811748e+01  -7.839060e+01
   4.591599e+01  -6.363299e+00
   6.584126e+00   2.970617e+01
  -2.629499e+00   2.590371e+01
   3.257925e+01   1.503202e+01
   6.240685e+01   1.856172e+01
   3.453941e+01   2.941104e+01
  -4.729369e+01   2.887138e+01
  -1.202534e+02   5.774510e+00
  -1.137214e+02  -3.407965e+01
  -1.829672e+01  -6.584396e+01
   9.006416e+01  -6.050828e+01
   1.145978e+02  -1.633975e+01
   4.001982e+01   2.828360e+01
  -4.777172e+01   2.913825e+01
  -6.024168e+01  -1.404481e+01
  -3.576680e+00  -5.364113e+01
   4.691650e+01  -4.558549e+01
   4.921213e+01   2.265856e+00
   3.183667e+01   4.000068e+01
   3.387186e+01   3.240558e+01
   5.077901e+01   2.613072e-01
   5.302197e+01  -1.050508e+00
   2.606991e+01   5.240798e+01
  -2.566277e+01   1.147531e+02
  -8.720277e+01   1.122747e+02
  -1.247827e+02   2.818282e+01
  -9.715840e+01  -6.940373e+01
  -8.577298e+00  -9.758242e+01
   6.571724e+01  -4.762512e+01
   4.759233e+01   1.226548e+01
  -4.700460e+01   1.706970e+01
  -1.117053e+02  -3.205532e+01
  -6.451107e+01  -8.375168e+01
   6.062168e+01  -9.202334e+01
   1.509784e+02  -4.816329e+01
   1.317237e+02   2.069094e+01
   3.387242e+01   6.821740e+01
  -4.523763e+01   5.987803e+01
  -3.836929e+01   9.629300e+00
   3.016761e+01  -2.078993e+01
   7.209155e+01   1.721569e+01
   2.669240e+01   9.533791e+01
  -7.363264e+01   1.251252e+02
  -1.358325e+02   5.118193e+01
  -1.037246e+02  -8.045345e+01
  -1.071301e+01  -1.593639e+02
   6.603130e+01  -1.180655e+02
   8.333226e+01   1.630979e+00
   5.239331e+01   9.152809e+01
   4.678808e+00   8.516859e+01
  -3.385317e+01   1.832644e+01
  -4.410942e+01  -2.290902e+01
  -2.380297e+01  -5.970016e+00
  -1.849952e+00   1.728397e+01
  -1.314060e+01  -1.044990e+01
  -4.537805e+01  -6.911034e+01
  -3.921486e+01  -8.692234e+01
   3.335586e+01  -3.713450e+01
   1.120023e+02   2.926425e+01
   1.073819e+02   5.398778e+01
   1.443018e+01   3.823397e+01
  -7.233263e+01   1.880280e+01
  -7.074603e+01   8.597687e+00
  -6.370125e+00  -4.856123e+00
   3.155808e+01  -1.916899e+01
   8.798211e+00  -1.603440e+01
  -1.927683e+01   1.361237e+00
   5.916521e+00   8.012901e+00
   6.208793e+01   2.767546e+00
   7.299113e+01   1.828061e+01
   3.783306e+00   6.462561e+01
  -9.638477e+01   9.250608e+01
  -1.465949e+02   4.669350e+01
  -1.110058e+02  -5.515301e+01
  -2.120666e+01  -1.299521e+02
   6.048147e+01  -1.186912e+02
   8.973080e+01  -4.585210e+01
   6.470123e+01   1.663907e+01
   1.964240e+01   2.706795e+01
  -4.339574e+00   6.039701e+00
   6.642628e+00   1.960844e+00
   2.770044e+01   3.443812e+01
   2.102681e+01   7.043721e+01
  -2.207308e+01   5.737677e+01
  -6.600844e+01  -1.438176e+01
  -6.261069e+01  -8.740200e+01
  -2.083442e+00  -9.064763e+01
   6.828415e+01  -1.815110e+01
   8.313415e+01   6.210621e+01
   2.445943e+01   8.271754e+01
  -5.363252e+01   4.262106e+01
  -7.642541e+01  -9.912822e+00
  -2.912400e+01  -3.787184e+01
   2.566327e+01  -3.834329e+01
   2.172764e+01  -2.174130e+01
  -3.005097e+01  -1.722021e-01
  -5.552454e+01   5.710993e+00
  -1.092874e+01  -1.933924e+01
   6.218005e+01  -5.385670e+01
   8.876831e+01  -4.956897e+01
   4.808843e+01   7.603341e+00
  -1.224246e+01   6.574801e+01
  -3.969269e+01   6.221022e+01
  -2.741997e+01   2.016114e+00
  -4.623433e-01  -4.605546e+01
   2.101098e+01  -3.289675e+01
   2.976441e+01   1.662196e+01
   2.121814e+01   4.279115e+01
  -3.069266e+00   2.411292e+01
  -2.666616e+01  -7.470976e+00
  -3.068681e+01  -1.500000e+01
  -1.595981e+01   5.922057e-01
  -7.443118e-01   9.698171e+00
   4.396388e+00  -6.056809e+00
   7.550837e+00  -3.155400e+01
   1.800219e+01  -3.465951e+01
   2.845518e+01  -2.600009e+00
   2.224045e+01   3.944370e+01
  -5.360793e+00   5.017443e+01
  -3.701071e+01   1.568695e+01
  -4.401024e+01  -3.298124e+01
  -1.096087e+01  -5.127706e+01
   4.270076e+01  -2.685874e+01
   6.970584e+01   1.281306e+01
   3.903557e+01   3.479270e+01
  -2.287124e+01   3.122522e+01
  -5.163840e+01   1.559638e+01
  -1.788741e+01   3.044691e+00
   3.287858e+01   2.218318e+00
   3.232604e+01   1.453331e+01
  -2.581989e+01   2.772550e+01
  -7.635792e+01   1.757708e+01
