
 $NMID
 id='ANONYMOUS ', fmtdat='(2E16.6)'
 volume=1.0
 tramp=1.0
 $END
  -4.553097e+03  -1.691415e+01
  -2.596544e+03  -2.776909e+03
   8.522337e+02  -2.855540e+03
   2.234993e+03  -8.335056e+02
   9.305606e+02   7.684800e+02
  -7.642293e+02   6.053493e+02
  -9.538326e+02  -5.029633e+02
   3.684908e+01  -1.145246e+03
   8.976835e+02  -8.029455e+02
   9.831436e+02   1.322299e+02
   4.453606e+02   9.228187e+02
  -2.861022e+02   9.249875e+02
  -6.861901e+02   9.493001e+01
  -3.951966e+02  -7.752859e+02
   3.024350e+02  -7.826400e+02
   6.405399e+02   2.594369e+01
   2.670444e+02   7.186140e+02
  -3.546908e+02   6.412684e+02
  -6.021594e+02   6.762444e+01
  -3.822419e+02  -3.775360e+02
  -8.599474e-01  -4.499235e+02
   2.609044e+02  -2.661143e+02
   2.301195e+02  -5.224695e+00
  -1.156103e+02   1.107259e+02
  -4.358753e+02  -1.016095e+02
  -2.242417e+02  -4.552059e+02
   4.767316e+02  -4.487302e+02
   8.974600e+02   7.282859e+01
   4.558300e+02   5.885231e+02
  -4.186006e+02   5.229056e+02
  -7.916403e+02  -3.382854e+01
  -3.680208e+02  -5.109773e+02
   2.959879e+02  -5.472989e+02
   5.931320e+02  -2.109065e+02
   4.336106e+02   2.432874e+02
   6.551383e+01   5.027563e+02
  -2.251805e+02   2.959677e+02
  -1.945127e+02  -2.434309e+02
   1.765085e+02  -4.783406e+02
   4.873040e+02   1.326217e+01
   2.701088e+02   7.252852e+02
  -3.416540e+02   7.454842e+02
  -6.496905e+02  -3.700696e+00
  -2.740841e+02  -5.980228e+02
   3.194160e+02  -3.429444e+02
   4.168685e+02   3.429829e+02
  -6.784623e+01   5.785789e+02
  -5.813721e+02   1.462823e+02
  -6.191643e+02  -4.211223e+02
  -1.690062e+02  -6.077747e+02
   4.014436e+02  -3.606796e+02
   6.549677e+02   7.892337e+01
   3.827889e+02   4.077934e+02
  -1.732087e+02   3.857454e+02
  -4.700287e+02   4.988907e+01
  -2.451820e+02  -2.205526e+02
   1.387346e+02  -1.161646e+02
   1.558542e+02   1.725802e+02
  -1.796618e+02   2.056194e+02
  -3.691791e+02  -8.145616e+01
  -1.443078e+02  -3.195523e+02
   2.151134e+02  -2.647423e+02
   3.339406e+02  -6.668861e+01
   1.904467e+02   8.325611e+01
  -2.339634e+01   2.132615e+02
  -2.107968e+02   3.270099e+02
  -3.381794e+02   2.320900e+02
  -3.052492e+02  -1.342928e+02
  -8.553773e+01  -4.537090e+02
   1.271647e+02  -3.988998e+02
   1.345122e+02  -1.054614e+02
   2.136840e+01   2.677712e+01
   2.899027e+01  -8.712402e+01
   1.908939e+02  -1.454831e+02
   2.908537e+02   4.216993e+01
   1.740873e+02   2.770102e+02
  -6.864962e+01   2.718470e+02
  -2.382031e+02   1.952684e+01
  -2.124031e+02  -2.442663e+02
   3.636489e+00  -3.073780e+02
   2.739814e+02  -1.282773e+02
   3.759272e+02   1.675198e+02
   1.941050e+02   3.632400e+02
  -1.061044e+02   3.175323e+02
  -2.375234e+02   1.190522e+02
  -1.519814e+02  -4.063844e+00
  -9.246739e+01   3.235706e+01
  -2.300462e+02   7.235085e+01
  -4.050433e+02  -4.869354e+01
  -3.404007e+02  -2.836614e+02
  -4.734064e+00  -4.489272e+02
   3.575248e+02  -4.236079e+02
   4.941596e+02  -2.109761e+02
   3.488877e+02   9.178978e+01
   6.191007e+01   3.051598e+02
  -1.368597e+02   2.651420e+02
  -9.318166e+01   2.781216e+01
   1.115390e+02  -1.207135e+02
   2.107324e+02   1.516892e+00
   5.778455e+01   2.086259e+02
  -1.716135e+02   1.854308e+02
  -1.934390e+02  -6.344224e+01
   1.610330e+01  -2.064258e+02
   2.035268e+02  -3.910257e+01
   1.694129e+02   2.524215e+02
  -3.148928e+01   3.547142e+02
  -2.297025e+02   1.940087e+02
  -3.244662e+02  -6.069746e+01
  -2.819893e+02  -2.346095e+02
  -1.033657e+02  -2.643562e+02
   1.114000e+02  -1.666625e+02
   1.845441e+02  -2.432475e+01
   6.336061e+01   3.595471e+01
  -7.471495e+01  -3.534234e+01
  -3.614252e+01  -1.294150e+02
   1.257954e+02  -1.078032e+02
   1.869930e+02   9.896240e+00
   6.378326e+01   7.695572e+01
  -8.128281e+01   2.250669e+01
  -5.985133e+01  -7.028303e+01
   1.190696e+02  -8.874620e+01
   2.806139e+02  -6.076396e+00
   2.679557e+02   1.333460e+02
   6.866870e+01   2.556755e+02
  -1.801717e+02   2.702712e+02
  -2.889900e+02   1.351440e+02
  -1.784138e+02  -5.263453e+01
   2.370628e+01  -1.172416e+02
   9.743409e+01  -1.095859e+01
  -2.891572e+01   1.075350e+02
  -2.001293e+02   6.650406e+01
  -2.216537e+02  -1.020786e+02
  -7.405825e+01  -2.139462e+02
   9.581297e+01  -1.649327e+02
   1.495353e+02  -3.247644e+01
   7.633390e+01   4.325217e+01
  -2.592017e+01   8.543677e+00
  -4.125740e+01  -7.816959e+01
   6.540637e+01  -1.137709e+02
   1.963770e+02  -3.476126e+01
   1.962455e+02   1.199258e+02
   2.569220e+01   2.217451e+02
  -1.666194e+02   1.699206e+02
  -2.000316e+02   6.834100e+00
  -6.867918e+01  -1.196707e+02
   6.802111e+01  -1.168464e+02
   8.700369e+01  -3.261774e+01
   2.246887e+01   2.699198e+01
  -1.871725e+01   2.152914e+01
   9.156904e+00  -4.560814e+00
   6.700316e+01   9.338691e+00
   8.605840e+01   7.834120e+01
   1.829086e+01   1.547019e+02
  -1.211038e+02   1.543699e+02
  -2.333314e+02   3.202092e+01
  -2.065826e+02  -1.466355e+02
  -4.558642e+01  -2.401097e+02
   1.098423e+02  -1.741449e+02
   1.379986e+02  -2.787306e+01
   7.064291e+01   5.760749e+01
   2.780147e+01   3.705376e+01
   5.291855e+01  -1.235336e+01
   7.826688e+01  -7.392124e+00
   3.980906e+01   4.722018e+01
  -4.114028e+01   8.454074e+01
  -9.722036e+01   5.461399e+01
  -8.186447e+01  -3.171789e+01
   1.050259e+01  -1.066032e+02
   1.358147e+02  -8.764302e+01
   1.966338e+02   4.496493e+01
   1.069066e+02   1.985197e+02
  -9.995687e+01   2.326347e+02
  -2.670570e+02   1.029540e+02
  -2.627036e+02  -8.274718e+01
  -1.143412e+02  -1.784689e+02
   3.741654e+01  -1.505391e+02
   9.564232e+01  -8.627180e+01
   8.102257e+01  -7.012429e+01
   6.768933e+01  -9.074734e+01
   9.201151e+01  -7.397472e+01
   1.277759e+02   2.145653e+01
   1.190095e+02   1.531315e+02
   3.263698e+01   2.265177e+02
  -9.703344e+01   1.750197e+02
  -1.773376e+02   2.419963e+01
  -1.404278e+02  -1.200259e+02
  -2.283374e+01  -1.611211e+02
   6.547331e+01  -9.604116e+01
   6.048757e+01  -4.306473e+00
   7.499959e+00   4.096449e+01
  -6.961837e+00   3.517405e+01
   3.776977e+01   1.955573e+01
   7.820365e+01   2.272838e+01
   4.411499e+01   3.716941e+01
  -6.138366e+01   3.731782e+01
  -1.549518e+02   6.156693e+00
  -1.440167e+02  -4.745271e+01
  -1.971151e+01  -8.731253e+01
   1.171775e+02  -7.599699e+01
   1.453489e+02  -1.647580e+01
   5.014260e+01   3.887226e+01
  -5.949794e+01   3.684708e+01
  -7.557810e+01  -1.830544e+01
  -6.542515e+00  -6.672844e+01
   5.653576e+01  -5.642550e+01
   6.206898e+01   2.065996e+00
   4.204344e+01   4.884240e+01
   4.300478e+01   4.093077e+01
   6.236293e+01   2.138779e+00
   6.632517e+01   2.004578e-02
   3.430158e+01   6.585011e+01
  -3.214014e+01   1.440105e+02
  -1.127910e+02   1.414948e+02
  -1.604238e+02   3.543166e+01
  -1.226091e+02  -8.862178e+01
  -8.963927e+00  -1.247059e+02
   8.356744e+01  -6.107710e+01
   5.928856e+01   1.506051e+01
  -5.897477e+01   2.042939e+01
  -1.383055e+02  -4.261260e+01
  -7.785441e+01  -1.069167e+02
   7.903728e+01  -1.138481e+02
   1.910476e+02  -5.524062e+01
   1.644337e+02   3.111849e+01
   3.936864e+01   8.690613e+01
  -6.002629e+01   7.269474e+01
  -4.948334e+01   9.421727e+00
   3.790270e+01  -2.654247e+01
   9.001658e+01   2.201892e+01
   3.258630e+01   1.182955e+02
  -9.188211e+01   1.538476e+02
  -1.678665e+02   6.173918e+01
  -1.269316e+02  -1.008751e+02
  -1.073710e+01  -1.977828e+02
   8.488856e+01  -1.452705e+02
   1.049318e+02   4.827814e+00
   6.293597e+01   1.170788e+02
   1.193873e+00   1.077300e+02
  -4.481680e+01   2.198403e+01
  -5.357830e+01  -3.082522e+01
  -2.763861e+01  -9.074905e+00
  -3.534771e+00   2.127829e+01
  -1.919236e+01  -1.316475e+01
  -5.611277e+01  -8.748528e+01
  -4.464422e+01  -1.102574e+02
   4.482397e+01  -4.660733e+01
   1.388026e+02   3.880377e+01
   1.316589e+02   7.049419e+01
   1.800821e+01   4.877531e+01
  -8.884722e+01   2.176596e+01
  -8.865614e+01   8.663825e+00
  -9.869874e+00  -6.097955e+00
   3.916814e+01  -2.256849e+01
   1.324156e+01  -1.959060e+01
  -2.244454e+01   8.491417e-01
   6.135792e+00   9.851963e+00
   7.533294e+01   4.763485e+00
   9.101130e+01   2.354114e+01
   6.420518e+00   7.911089e+01
  -1.193925e+02   1.131893e+02
  -1.836321e+02   5.791748e+01
  -1.389211e+02  -6.745148e+01
  -2.518976e+01  -1.614486e+02
   7.727756e+01  -1.488158e+02
   1.125476e+02  -5.769339e+01
   8.031586e+01   2.147151e+01
   2.483653e+01   3.452743e+01
  -3.746331e+00   7.558702e+00
   9.711413e+00   2.927862e+00
   3.399664e+01   4.477259e+01
   2.421073e+01   8.954960e+01
  -2.863885e+01   7.148272e+01
  -8.125217e+01  -1.883335e+01
  -7.641045e+01  -1.086179e+02
  -2.825913e+00  -1.115551e+02
   8.291414e+01  -2.211126e+01
   1.018869e+02   7.651842e+01
   3.081285e+01   1.025636e+02
  -6.594371e+01   5.384931e+01
  -9.606175e+01  -1.187271e+01
  -3.831161e+01  -4.839940e+01
   3.155657e+01  -4.983115e+01
   2.922457e+01  -2.842968e+01
  -3.513363e+01  -8.179352e-01
  -6.902629e+01   6.522738e+00
  -1.439848e+01  -2.429911e+01
   7.865449e+01  -6.613027e+01
   1.139026e+02  -6.024341e+01
   6.235655e+01   1.021895e+01
  -1.564137e+01   8.215530e+01
  -5.117150e+01   7.874455e+01
  -3.487798e+01   4.786817e+00
  -4.365128e-01  -5.600090e+01
   2.556161e+01  -4.159487e+01
   3.581490e+01   1.957710e+01
   2.623125e+01   5.353153e+01
  -2.728024e+00   3.122256e+01
  -3.274905e+01  -9.019273e+00
  -3.930187e+01  -1.980484e+01
  -2.061742e+01  -2.573400e-01
   4.434942e-01   1.280959e+01
   7.334833e+00  -5.154158e+00
   8.567502e+00  -3.679110e+01
   1.874808e+01  -4.232372e+01
   3.236482e+01  -4.858053e+00
   2.779633e+01   4.601731e+01
  -4.666416e+00   6.013465e+01
  -4.486185e+01   1.942228e+01
  -5.483445e+01  -3.972267e+01
  -1.352319e+01  -6.295979e+01
   5.393843e+01  -3.367198e+01
   8.729428e+01   1.560487e+01
   4.853964e+01   4.369511e+01
  -2.831105e+01   3.966260e+01
  -6.390676e+01   2.018145e+01
  -2.306251e+01   4.698117e+00
   3.843741e+01   3.532359e+00
   3.791015e+01   1.744909e+01
  -3.211834e+01   3.191696e+01
  -9.296932e+01   1.905355e+01
