
 $NMID
 id='ANONYMOUS ', fmtdat='(2E16.6)'
 volume=1.0
 tramp=1.0
 $END
  -4.639357e+03   7.387837e+01
  -2.720374e+03  -2.804181e+03
   8.229834e+02  -2.970794e+03
   2.313657e+03  -9.082765e+02
   1.012888e+03   7.976425e+02
  -7.597741e+02   6.775375e+02
  -1.005665e+03  -4.756072e+02
  -2.894859e+00  -1.178068e+03
   9.027550e+02  -8.495923e+02
   1.018639e+03   1.144297e+02
   4.809217e+02   9.424198e+02
  -2.761397e+02   9.636716e+02
  -7.091366e+02   1.216579e+02
  -4.284919e+02  -7.821334e+02
   2.933882e+02  -8.111384e+02
   6.613362e+02   1.172714e+01
   2.864715e+02   7.354202e+02
  -3.629152e+02   6.672037e+02
  -6.281867e+02   7.432164e+01
  -4.010436e+02  -3.910211e+02
  -4.691655e+00  -4.673825e+02
   2.658168e+02  -2.800763e+02
   2.413530e+02  -1.521014e+01
  -1.014363e+02   1.109972e+02
  -4.321996e+02  -8.904622e+01
  -2.377676e+02  -4.463356e+02
   4.636098e+02  -4.599712e+02
   9.069027e+02   5.174794e+01
   4.818934e+02   5.842910e+02
  -4.036640e+02   5.422082e+02
  -8.006797e+02  -1.255092e+01
  -3.864224e+02  -5.081692e+02
   2.870701e+02  -5.605653e+02
   5.981663e+02  -2.247786e+02
   4.474696e+02   2.404828e+02
   7.952295e+01   5.144650e+02
  -2.238133e+02   3.156677e+02
  -2.118139e+02  -2.329993e+02
   1.566051e+02  -4.900473e+02
   4.898120e+02  -8.502456e+00
   2.941739e+02   7.214961e+02
  -3.268493e+02   7.674279e+02
  -6.644644e+02   1.867006e+01
  -3.002133e+02  -6.005024e+02
   3.125683e+02  -3.629061e+02
   4.317025e+02   3.321125e+02
  -5.487363e+01   5.867068e+02
  -5.856250e+02   1.592939e+02
  -6.335164e+02  -4.186941e+02
  -1.793416e+02  -6.173725e+02
   4.024294e+02  -3.744550e+02
   6.676480e+02   7.081923e+01
   3.998458e+02   4.133268e+02
  -1.667133e+02   4.027679e+02
  -4.821418e+02   6.273001e+01
  -2.626638e+02  -2.249719e+02
   1.365971e+02  -1.297180e+02
   1.685990e+02   1.695967e+02
  -1.732180e+02   2.166286e+02
  -3.791787e+02  -7.327206e+01
  -1.555821e+02  -3.248861e+02
   2.180424e+02  -2.733012e+02
   3.436481e+02  -6.570333e+01
   1.909048e+02   8.975686e+01
  -3.165270e+01   2.146953e+02
  -2.154472e+02   3.247806e+02
  -3.374636e+02   2.341143e+02
  -3.085333e+02  -1.307958e+02
  -9.388131e+01  -4.590021e+02
   1.247770e+02  -4.123053e+02
   1.430324e+02  -1.139087e+02
   3.099705e+01   3.016376e+01
   2.976455e+01  -8.001881e+01
   1.861384e+02  -1.445833e+02
   2.900167e+02   3.802111e+01
   1.791423e+02   2.751816e+02
  -6.353997e+01   2.749267e+02
  -2.378742e+02   2.412108e+01
  -2.165290e+02  -2.421128e+02
  -1.121559e+00  -3.093562e+02
   2.734799e+02  -1.330342e+02
   3.818323e+02   1.649257e+02
   2.017979e+02   3.675525e+02
  -1.047993e+02   3.267124e+02
  -2.445493e+02   1.251837e+02
  -1.602517e+02  -5.180801e+00
  -9.550752e+01   2.813799e+01
  -2.299676e+02   7.032159e+01
  -4.071534e+02  -4.922241e+01
  -3.442948e+02  -2.860242e+02
  -5.931041e+00  -4.531779e+02
   3.602631e+02  -4.280265e+02
   4.986097e+02  -2.154252e+02
   3.540447e+02   8.851153e+01
   6.728315e+01   3.071635e+02
  -1.345919e+02   2.729982e+02
  -9.646864e+01   3.394339e+01
   1.071721e+02  -1.232008e+02
   2.122997e+02  -4.839886e+00
   6.418641e+01   2.089853e+02
  -1.690313e+02   1.932212e+02
  -1.982377e+02  -5.843179e+01
   1.069787e+01  -2.095814e+02
   2.041829e+02  -4.329193e+01
   1.732509e+02   2.549419e+02
  -3.130106e+01   3.606716e+02
  -2.338120e+02   1.954828e+02
  -3.283434e+02  -6.412980e+01
  -2.837262e+02  -2.373308e+02
  -1.045535e+02  -2.647229e+02
   1.107793e+02  -1.680112e+02
   1.862567e+02  -2.734988e+01
   6.628816e+01   3.473277e+01
  -7.416685e+01  -3.369598e+01
  -3.837617e+01  -1.284909e+02
   1.245287e+02  -1.100019e+02
   1.889228e+02   6.859022e+00
   6.676151e+01   7.596980e+01
  -7.976442e+01   2.325164e+01
  -5.923659e+01  -6.931330e+01
   1.202227e+02  -8.765943e+01
   2.820094e+02  -4.841685e+00
   2.689122e+02   1.339158e+02
   6.956580e+01   2.560055e+02
  -1.796032e+02   2.723830e+02
  -2.904372e+02   1.389981e+02
  -1.819897e+02  -5.049111e+01
   2.105746e+01  -1.189893e+02
   9.811363e+01  -1.380215e+01
  -2.692073e+01   1.075970e+02
  -2.006281e+02   6.900131e+01
  -2.250414e+02  -1.009950e+02
  -7.724263e+01  -2.159580e+02
   9.508903e+01  -1.681619e+02
   1.508045e+02  -3.496283e+01
   7.837051e+01   4.170107e+01
  -2.374202e+01   7.869748e+00
  -3.956951e+01  -7.768728e+01
   6.620286e+01  -1.127783e+02
   1.971374e+02  -3.434231e+01
   1.979425e+02   1.203547e+02
   2.717176e+01   2.238378e+02
  -1.676580e+02   1.732730e+02
  -2.035046e+02   8.717428e+00
  -7.169640e+01  -1.207207e+02
   6.744498e+01  -1.192645e+02
   8.788060e+01  -3.446135e+01
   2.327960e+01   2.577103e+01
  -1.770553e+01   2.059688e+01
   1.091953e+01  -4.290829e+00
   6.842698e+01   1.137194e+01
   8.582694e+01   8.074649e+01
   1.690453e+01   1.559208e+02
  -1.224412e+02   1.547258e+02
  -2.347476e+02   3.225113e+01
  -2.086010e+02  -1.474554e+02
  -4.711075e+01  -2.429443e+02
   1.104537e+02  -1.773650e+02
   1.402914e+02  -2.881422e+01
   7.257272e+01   5.890489e+01
   2.868388e+01   3.818219e+01
   5.377066e+01  -1.224030e+01
   7.916529e+01  -6.705869e+00
   3.925176e+01   4.902434e+01
  -4.349038e+01   8.539926e+01
  -9.921568e+01   5.306892e+01
  -8.154126e+01  -3.397556e+01
   1.244595e+01  -1.071238e+02
   1.374754e+02  -8.650080e+01
   1.974941e+02   4.611021e+01
   1.074403e+02   1.993315e+02
  -1.002018e+02   2.339628e+02
  -2.690627e+02   1.045071e+02
  -2.659455e+02  -8.245521e+01
  -1.168076e+02  -1.798982e+02
   3.696853e+01  -1.525813e+02
   9.661906e+01  -8.807408e+01
   8.234832e+01  -7.193778e+01
   6.913573e+01  -9.262416e+01
   9.380443e+01  -7.496564e+01
   1.297186e+02   2.220091e+01
   1.204967e+02   1.553260e+02
   3.312780e+01   2.291948e+02
  -9.774370e+01   1.772559e+02
  -1.789032e+02   2.521537e+01
  -1.419699e+02  -1.205273e+02
  -2.367825e+01  -1.623636e+02
   6.505680e+01  -9.680502e+01
   5.983287e+01  -4.473948e+00
   6.781390e+00   4.042889e+01
  -6.803190e+00   3.409854e+01
   3.905068e+01   1.917086e+01
   7.954545e+01   2.367492e+01
   4.436072e+01   3.812965e+01
  -6.226095e+01   3.681895e+01
  -1.561286e+02   4.807629e+00
  -1.447005e+02  -4.795023e+01
  -1.944663e+01  -8.675275e+01
   1.183378e+02  -7.565338e+01
   1.464859e+02  -1.679023e+01
   5.001541e+01   3.878158e+01
  -6.088817e+01   3.715717e+01
  -7.658804e+01  -1.881837e+01
  -5.817128e+00  -6.851968e+01
   5.829625e+01  -5.782324e+01
   6.317865e+01   2.739579e+00
   4.217262e+01   5.076395e+01
   4.329087e+01   4.188420e+01
   6.337633e+01   1.670337e+00
   6.718672e+01  -6.014320e-02
   3.402816e+01   6.747412e+01
  -3.348229e+01   1.462489e+02
  -1.145925e+02   1.422917e+02
  -1.621785e+02   3.424953e+01
  -1.236183e+02  -9.047596e+01
  -8.447145e+00  -1.257596e+02
   8.527129e+01  -6.100144e+01
   6.039885e+01   1.563303e+01
  -5.984575e+01   2.074253e+01
  -1.403836e+02  -4.294630e+01
  -7.906531e+01  -1.078792e+02
   7.973040e+01  -1.151164e+02
   1.928768e+02  -5.628623e+01
   1.660799e+02   3.081953e+01
   4.017641e+01   8.746847e+01
  -5.990470e+01   7.355286e+01
  -4.935742e+01   9.786697e+00
   3.876996e+01  -2.663441e+01
   9.143496e+01   2.265180e+01
   3.305978e+01   1.206327e+02
  -9.367981e+01   1.569638e+02
  -1.711942e+02   6.317829e+01
  -1.294684e+02  -1.025344e+02
  -1.113806e+01  -2.011673e+02
   8.583839e+01  -1.476157e+02
   1.059125e+02   4.744496e+00
   6.366547e+01   1.180766e+02
   1.807347e+00   1.082104e+02
  -4.476471e+01   2.186958e+01
  -5.434991e+01  -3.061383e+01
  -2.834403e+01  -8.399856e+00
  -3.258519e+00   2.145689e+01
  -1.863352e+01  -1.409296e+01
  -5.664201e+01  -8.883620e+01
  -4.586083e+01  -1.109463e+02
   4.495451e+01  -4.645827e+01
   1.409433e+02   3.919534e+01
   1.337513e+02   7.087121e+01
   1.788955e+01   4.942973e+01
  -9.059412e+01   2.262303e+01
  -8.973088e+01   8.978179e+00
  -9.448130e+00  -6.682074e+00
   3.973152e+01  -2.326801e+01
   1.279994e+01  -1.949709e+01
  -2.314042e+01   1.393622e+00
   6.610242e+00   9.814317e+00
   7.702698e+01   4.282887e+00
   9.243487e+01   2.411939e+01
   6.058915e+00   8.143316e+01
  -1.217966e+02   1.156350e+02
  -1.869515e+02   5.815621e+01
  -1.413843e+02  -6.976508e+01
  -2.552037e+01  -1.644312e+02
   7.894240e+01  -1.505974e+02
   1.147905e+02  -5.800866e+01
   8.166068e+01   2.189274e+01
   2.487884e+01   3.511677e+01
  -4.345475e+00   8.059632e+00
   9.345490e+00   3.207303e+00
   3.418767e+01   4.507144e+01
   2.450080e+01   9.033553e+01
  -2.911099e+01   7.245592e+01
  -8.278964e+01  -1.899715e+01
  -7.797080e+01  -1.106639e+02
  -2.705723e+00  -1.141260e+02
   8.508139e+01  -2.285949e+01
   1.042107e+02   7.820918e+01
   3.101572e+01   1.048335e+02
  -6.782062e+01   5.459161e+01
  -9.768269e+01  -1.279733e+01
  -3.796691e+01  -4.956229e+01
   3.293812e+01  -5.013381e+01
   2.955322e+01  -2.795810e+01
  -3.633558e+01  -2.557454e-01
  -7.025694e+01   6.593579e+00
  -1.429770e+01  -2.493060e+01
   7.980969e+01  -6.708858e+01
   1.149434e+02  -6.062893e+01
   6.259359e+01   1.099076e+01
  -1.618796e+01   8.347951e+01
  -5.220888e+01   7.926716e+01
  -3.586469e+01   3.904756e+00
  -5.914836e-01  -5.743207e+01
   2.652335e+01  -4.224128e+01
   3.705103e+01   2.012420e+01
   2.653112e+01   5.452579e+01
  -3.495236e+00   3.170216e+01
  -3.353764e+01  -9.289508e+00
  -3.939088e+01  -2.024237e+01
  -2.055709e+01  -2.147291e-01
  -1.708897e-01   1.315300e+01
   6.389803e+00  -5.503647e+00
   8.535531e+00  -3.839159e+01
   2.015444e+01  -4.415190e+01
   3.428042e+01  -5.058910e+00
   2.883933e+01   4.793464e+01
  -5.030740e+00   6.241656e+01
  -4.612134e+01   1.994139e+01
  -5.602942e+01  -4.108409e+01
  -1.379118e+01  -6.443868e+01
   5.490996e+01  -3.386785e+01
   8.882606e+01   1.643984e+01
   4.923405e+01   4.457639e+01
  -2.922383e+01   4.011806e+01
  -6.548522e+01   2.019467e+01
  -2.349248e+01   4.251369e+00
   3.971800e+01   2.934234e+00
   3.940930e+01   1.757062e+01
  -3.225251e+01   3.318502e+01
  -9.477461e+01   2.040136e+01
