
 $NMID
 id='ANONYMOUS ', fmtdat='(2E16.6)'
 volume=1.0
 tramp=1.0
 $END
   3.884892e+03   5.074870e+01
   2.411713e+03   2.170336e+03
  -3.216877e+02   2.470238e+03
  -1.698744e+03   1.163019e+03
  -1.019149e+03  -1.545922e+02
   2.467490e+02  -3.772980e+02
   6.086772e+02   2.444542e+02
   2.912354e+01   7.985596e+02
  -6.406777e+02   6.958190e+02
  -8.098952e+02   1.062336e+01
  -4.618432e+02  -6.933489e+02
   1.031885e+02  -7.920515e+02
   4.641401e+02  -1.682028e+02
   3.161653e+02   5.689826e+02
  -1.918704e+02   6.618717e+02
  -5.161693e+02   4.558737e+01
  -3.015767e+02  -6.019049e+02
   2.231555e+02  -6.667732e+02
   5.508129e+02  -2.113645e+02
   4.464927e+02   2.661335e+02
   8.832394e+01   4.179644e+02
  -1.820911e+02   2.683770e+02
  -1.366759e+02   5.914264e+01
   1.596963e+02   3.084310e+01
   3.394597e+02   2.280235e+02
   6.740281e+01   4.086221e+02
  -4.933509e+02   2.680378e+02
  -7.374922e+02  -1.590828e+02
  -3.179210e+02  -4.628633e+02
   3.707600e+02  -3.267419e+02
   6.292226e+02   1.054474e+02
   2.609796e+02   4.354375e+02
  -2.900463e+02   4.364105e+02
  -5.290822e+02   1.603657e+02
  -3.786469e+02  -2.015862e+02
  -8.035875e+01  -3.989379e+02
   1.051330e+02  -2.386650e+02
   4.744349e+01   1.455056e+02
  -1.835096e+02   2.816763e+02
  -3.130344e+02  -9.856041e+01
  -1.061079e+02  -5.985432e+02
   2.976882e+02  -5.731640e+02
   4.632182e+02   4.195889e-01
   1.844238e+02   4.344479e+02
  -2.189475e+02   2.234359e+02
  -2.695359e+02  -3.089899e+02
   1.050327e+02  -4.748334e+02
   5.159088e+02  -8.725616e+01
   5.525331e+02   4.144241e+02
   1.611184e+02   5.640058e+02
  -3.542882e+02   3.120138e+02
  -5.926888e+02  -7.876160e+01
  -3.716358e+02  -3.270029e+02
   9.597380e+01  -2.991050e+02
   3.718073e+02  -7.418953e+01
   2.421174e+02   1.040397e+02
  -4.365484e+01   6.220106e+01
  -9.287725e+01  -9.459775e+01
   1.311241e+02  -1.156187e+02
   2.905943e+02   6.309249e+01
   1.375102e+02   2.504650e+02
  -1.860562e+02   2.638855e+02
  -3.606966e+02   1.119450e+02
  -2.501519e+02  -1.034182e+02
   3.121273e+01  -2.983073e+02
   2.880143e+02  -3.636879e+02
   3.786140e+02  -1.867995e+02
   2.681156e+02   1.646722e+02
   5.860900e+01   4.119736e+02
  -7.589301e+01   3.637401e+02
  -6.822489e+01   1.579336e+02
  -3.514672e+01   6.250561e+01
  -1.086825e+02   1.068175e+02
  -2.415587e+02   8.381012e+01
  -2.670673e+02  -1.032709e+02
  -1.191404e+02  -2.782061e+02
   9.391928e+01  -2.277956e+02
   2.152914e+02   2.541231e+01
   1.634461e+02   2.581504e+02
  -3.953418e+01   2.805432e+02
  -2.687300e+02   8.342953e+01
  -3.428288e+02  -1.852081e+02
  -1.801680e+02  -3.393712e+02
   7.849127e+01  -2.966284e+02
   2.040090e+02  -1.466081e+02
   1.591515e+02  -5.087911e+01
   1.379419e+02  -5.521014e+01
   2.754728e+02  -4.481583e+01
   4.266982e+02   9.301280e+01
   3.362799e+02   3.147407e+02
  -2.549246e+01   4.623586e+02
  -4.007741e+02   4.165880e+02
  -5.115030e+02   1.846529e+02
  -3.202641e+02  -1.082391e+02
  -3.006561e+01  -2.823762e+02
   1.171321e+02  -2.291815e+02
   4.187966e+01  -3.647136e+01
  -1.211428e+02   6.772582e+01
  -1.635250e+02  -2.891135e+01
  -2.347865e+01  -1.717177e+02
   1.432578e+02  -1.360033e+02
   1.431201e+02   6.042470e+01
  -2.766248e+01   1.630535e+02
  -1.834510e+02   1.048304e+01
  -1.599972e+02  -2.557550e+02
   3.253953e+01  -3.629651e+02
   2.546275e+02  -2.080690e+02
   3.629675e+02   7.276823e+01
   2.880108e+02   2.729201e+02
   7.185950e+01   2.863505e+02
  -1.326760e+02   1.532294e+02
  -1.700756e+02   9.161654e+00
  -4.635428e+01  -2.280016e+01
   6.003690e+01   5.667933e+01
   6.966631e+00   1.244197e+02
  -1.322663e+02   8.091086e+01
  -1.670569e+02  -2.575621e+01
  -4.269845e+01  -6.580503e+01
   8.565854e+01   3.487597e+00
   4.523683e+01   9.129951e+01
  -1.488383e+02   8.906744e+01
  -3.097841e+02  -2.120075e+01
  -2.696764e+02  -1.732350e+02
  -3.624125e+01  -2.745721e+02
   2.146584e+02  -2.527308e+02
   2.911231e+02  -1.079159e+02
   1.571364e+02   5.347198e+01
  -3.101473e+01   9.436803e+01
  -7.832786e+01  -1.187461e+00
   4.968735e+01  -9.188011e+01
   1.998733e+02  -4.142393e+01
   2.059088e+02   1.129097e+02
   6.032753e+01   2.070649e+02
  -9.853480e+01   1.498712e+02
  -1.396046e+02   1.990260e+01
  -5.743736e+01  -4.131020e+01
   3.858364e+01   1.390989e+01
   3.036411e+01   1.060743e+02
  -9.501668e+01   1.204706e+02
  -2.176302e+02   1.504699e+01
  -1.926931e+02  -1.414098e+02
  -1.089977e+01  -2.237103e+02
   1.710142e+02  -1.605837e+02
   1.917928e+02  -6.198522e+00
   6.022820e+01   1.086330e+02
  -6.885064e+01   1.053668e+02
  -7.941743e+01   2.689563e+01
  -7.346772e+00  -2.661735e+01
   3.344033e+01  -1.223752e+01
  -1.023007e+01   2.020768e+01
  -8.672377e+01  -3.794605e+00
  -1.026250e+02  -9.509037e+01
  -9.518657e+00  -1.788773e+02
   1.473199e+02  -1.582905e+02
   2.496475e+02  -1.158230e+01
   2.028014e+02   1.679127e+02
   3.615207e+01   2.447666e+02
  -1.129211e+02   1.699496e+02
  -1.392965e+02   2.860290e+01
  -7.570424e+01  -5.234269e+01
  -3.313944e+01  -3.385912e+01
  -5.809541e+01   1.323069e+01
  -8.963859e+01   5.411093e+00
  -5.290494e+01  -5.880333e+01
   4.514364e+01  -1.044388e+02
   1.232721e+02  -6.443792e+01
   1.039876e+02   4.575394e+01
  -1.953206e+01   1.293976e+02
  -1.662750e+02   9.013425e+01
  -2.123901e+02  -6.806267e+01
  -9.074746e+01  -2.219554e+02
   1.293005e+02  -2.334409e+02
   2.832497e+02  -8.560698e+01
   2.602155e+02   9.860985e+01
   1.044364e+02   1.828364e+02
  -4.455910e+01   1.477455e+02
  -9.699695e+01   8.386001e+01
  -7.829602e+01   7.204586e+01
  -6.641173e+01   9.710271e+01
  -9.749695e+01   8.009041e+01
  -1.370450e+02  -2.313945e+01
  -1.218586e+02  -1.643627e+02
  -2.453222e+01  -2.380984e+02
   1.083274e+02  -1.752651e+02
   1.811800e+02  -1.187789e+01
   1.339933e+02   1.343800e+02
   1.015339e+01   1.657445e+02
  -7.803490e+01   8.758330e+01
  -6.470053e+01  -1.088284e+01
   2.038610e+00  -5.235211e+01
   2.295805e+01  -3.670125e+01
  -3.181509e+01  -1.534882e+01
  -8.672765e+01  -2.223259e+01
  -4.997151e+01  -4.260523e+01
   7.444576e+01  -3.943382e+01
   1.770264e+02   3.922489e+00
   1.501162e+02   6.538524e+01
   3.049852e+00   9.952749e+01
  -1.380006e+02   7.465438e+01
  -1.530092e+02   5.601194e+00
  -4.700550e+01  -5.041739e+01
   6.408120e+01  -4.270699e+01
   8.109806e+01   2.085555e+01
   1.457258e+01   7.616701e+01
  -5.324807e+01   6.579682e+01
  -7.046639e+01  -2.983769e-01
  -5.506550e+01  -5.434092e+01
  -4.809072e+01  -4.609017e+01
  -6.035345e+01  -3.083464e+00
  -6.873232e+01  -2.223924e+00
  -4.209499e+01  -7.551313e+01
   3.334323e+01  -1.578312e+02
   1.316938e+02  -1.494126e+02
   1.848629e+02  -3.159205e+01
   1.330684e+02   1.009819e+02
   1.227616e+00   1.376499e+02
  -9.653268e+01   6.843024e+01
  -6.459310e+01  -1.390225e+01
   6.181287e+01  -2.044889e+01
   1.410726e+02   4.670760e+01
   7.395064e+01   1.132523e+02
  -8.882556e+01   1.140230e+02
  -1.998354e+02   4.533480e+01
  -1.655281e+02  -4.337205e+01
  -3.281543e+01  -9.040699e+01
   6.735254e+01  -6.606411e+01
   5.107886e+01  -8.312319e-01
  -4.229296e+01   3.047704e+01
  -9.642695e+01  -2.304316e+01
  -3.775722e+01  -1.232316e+02
   8.979076e+01  -1.621350e+02
   1.701041e+02  -6.903744e+01
   1.316538e+02   1.008892e+02
   1.218745e+01   2.038343e+02
  -8.947275e+01   1.473895e+02
  -1.090098e+02  -1.210921e+01
  -5.755661e+01  -1.262406e+02
   1.155445e+01  -1.087813e+02
   5.232042e+01  -1.637776e+01
   4.938139e+01   3.421844e+01
   2.079464e+01   8.397990e+00
   5.774148e+00  -1.935008e+01
   2.795114e+01   2.069299e+01
   5.833259e+01   9.491519e+01
   3.544725e+01   1.121593e+02
  -5.609533e+01   4.440969e+01
  -1.426186e+02  -4.204719e+01
  -1.301307e+02  -7.526997e+01
  -1.807573e+01  -5.488706e+01
   8.751836e+01  -2.460947e+01
   9.139316e+01  -5.273383e+00
   1.567231e+01   1.100121e+01
  -3.789265e+01   2.228831e+01
  -1.865624e+01   1.496998e+01
   1.797527e+01  -3.099044e+00
  -3.973932e+00  -7.117518e+00
  -7.263496e+01  -1.572940e+00
  -9.674499e+01  -2.485587e+01
  -1.691459e+01  -8.517951e+01
   1.182657e+02  -1.212069e+02
   1.974756e+02  -6.435506e+01
   1.556856e+02   6.668579e+01
   2.951436e+01   1.685050e+02
  -8.598754e+01   1.598170e+02
  -1.225087e+02   6.480682e+01
  -8.430875e+01  -2.199797e+01
  -2.667298e+01  -3.932117e+01
  -4.189217e-01  -1.226818e+01
  -1.307813e+01  -7.548938e+00
  -3.198268e+01  -5.072245e+01
  -1.910303e+01  -9.537539e+01
   3.167102e+01  -7.483952e+01
   8.302761e+01   1.794029e+01
   8.163268e+01   1.099356e+02
   1.008616e+01   1.166559e+02
  -8.159064e+01   2.993468e+01
  -1.092256e+02  -7.301251e+01
  -3.804425e+01  -1.087742e+02
   6.878544e+01  -6.371514e+01
   1.068031e+02   1.079942e+01
   4.486494e+01   5.886380e+01
  -3.629817e+01   6.073421e+01
  -3.936239e+01   2.969837e+01
   3.032146e+01  -4.050951e+00
   7.212120e+01  -7.781651e+00
   1.769003e+01   2.807751e+01
  -8.333874e+01   6.788958e+01
  -1.255572e+02   5.609436e+01
  -7.180117e+01  -1.696725e+01
   1.604798e+01  -8.834771e+01
   6.012034e+01  -8.510751e+01
   4.459278e+01  -1.032375e+01
   4.981315e+00   5.620269e+01
  -2.612087e+01   4.843166e+01
  -3.841608e+01  -1.404347e+01
  -2.862925e+01  -5.681165e+01
   2.015571e+00  -3.927587e+01
   3.487537e+01   6.876478e+00
   4.287091e+01   2.559724e+01
   2.167326e+01   4.022627e+00
  -2.663129e+00  -1.889468e+01
  -6.845437e+00  -4.893297e+00
   3.560901e-02   3.520375e+01
  -7.333885e+00   5.252144e+01
  -3.046049e+01   1.769354e+01
  -3.882499e+01  -4.071868e+01
  -7.583011e+00  -6.332704e+01
   4.408374e+01  -2.478643e+01
   6.326804e+01   3.755109e+01
   1.816551e+01   6.449567e+01
  -5.937083e+01   3.646296e+01
  -9.618580e+01  -1.441978e+01
  -5.228023e+01  -4.621474e+01
   3.060622e+01  -4.579538e+01
   6.871791e+01  -2.644749e+01
   2.880096e+01  -6.193045e+00
  -3.298313e+01   1.323975e+00
  -3.663028e+01  -1.031599e+01
   2.718838e+01  -2.848462e+01
   8.687790e+01  -2.086763e+01
