
 $NMID
 id='ANONYMOUS ', fmtdat='(2E16.6)'
 volume=1.0
 tramp=1.0
 $END
  -3.099247e+03  -6.081351e+00
  -1.763933e+03  -1.867833e+03
   5.620215e+02  -1.920451e+03
   1.486266e+03  -5.707016e+02
   6.107405e+02   4.936718e+02
  -5.156384e+02   3.847759e+02
  -6.326680e+02  -3.476679e+02
   3.231801e+01  -7.703447e+02
   6.052487e+02  -5.403097e+02
   6.607668e+02   8.673307e+01
   3.010056e+02   6.195213e+02
  -1.890921e+02   6.212986e+02
  -4.579606e+02   6.083392e+01
  -2.638169e+02  -5.253958e+02
   2.030636e+02  -5.286874e+02
   4.308444e+02   1.660213e+01
   1.841103e+02   4.837265e+02
  -2.309689e+02   4.354047e+02
  -4.014284e+02   5.345608e+01
  -2.606611e+02  -2.475055e+02
  -5.757595e+00  -3.018126e+02
   1.734760e+02  -1.801597e+02
   1.515632e+02  -1.901247e+00
  -8.767812e+01   7.551900e+01
  -3.040999e+02  -7.447381e+01
  -1.508292e+02  -3.172612e+02
   3.329453e+02  -3.077632e+02
   6.155163e+02   5.272098e+01
   3.065268e+02   4.027667e+02
  -2.914801e+02   3.536668e+02
  -5.417564e+02  -2.682818e+01
  -2.495052e+02  -3.501852e+02
   2.034477e+02  -3.740512e+02
   4.049780e+02  -1.451083e+02
   2.951840e+02   1.641839e+02
   4.419289e+01   3.395732e+02
  -1.510816e+02   1.960728e+02
  -1.255636e+02  -1.705693e+02
   1.278415e+02  -3.239554e+02
   3.337289e+02   1.693461e+01
   1.799916e+02   4.997716e+02
  -2.352537e+02   5.061358e+02
  -4.391583e+02  -6.931436e+00
  -1.813628e+02  -4.071582e+02
   2.193588e+02  -2.285615e+02
   2.825483e+02   2.382965e+02
  -4.779803e+01   3.959137e+02
  -3.980484e+02   1.004322e+02
  -4.257288e+02  -2.857112e+02
  -1.190067e+02  -4.134710e+02
   2.726374e+02  -2.467290e+02
   4.472761e+02   5.107071e+01
   2.610013e+02   2.735664e+02
  -1.175708e+02   2.586946e+02
  -3.169308e+02   3.377068e+01
  -1.630313e+02  -1.453075e+02
   9.425698e+01  -7.371565e+01
   1.019808e+02   1.180443e+02
  -1.248358e+02   1.370882e+02
  -2.501551e+02  -5.614981e+01
  -9.770667e+01  -2.156677e+02
   1.437606e+02  -1.816237e+02
   2.259548e+02  -5.191551e+01
   1.340973e+02   5.208010e+01
  -9.020316e+00   1.490974e+02
  -1.409888e+02   2.315874e+02
  -2.329511e+02   1.633805e+02
  -2.110203e+02  -9.189342e+01
  -5.989269e+01  -3.100623e+02
   8.360877e+01  -2.702484e+02
   8.597563e+01  -7.110755e+01
   9.985553e+00   1.473347e+01
   2.007058e+01  -6.522276e+01
   1.342916e+02  -1.027505e+02
   2.024416e+02   2.907613e+01
   1.204540e+02   1.911239e+02
  -4.756972e+01   1.869919e+02
  -1.648458e+02   1.313111e+01
  -1.472714e+02  -1.683325e+02
   1.994844e+00  -2.117753e+02
   1.887307e+02  -8.897640e+01
   2.590918e+02   1.133144e+02
   1.347142e+02   2.467829e+02
  -6.985057e+01   2.161601e+02
  -1.587596e+02   8.268756e+01
  -1.010000e+02   7.598999e-01
  -6.290263e+01   2.644031e+01
  -1.596510e+02   5.376145e+01
  -2.809654e+02  -2.920196e+01
  -2.375806e+02  -1.918254e+02
  -7.724751e+00  -3.093853e+02
   2.420557e+02  -2.959180e+02
   3.381318e+02  -1.496828e+02
   2.398722e+02   6.145647e+01
   4.320054e+01   2.094677e+02
  -9.255182e+01   1.806525e+02
  -6.150863e+01   1.717947e+01
   7.853871e+01  -8.280194e+01
   1.445192e+02   2.491245e+00
   3.848820e+01   1.431819e+02
  -1.176993e+02   1.255509e+02
  -1.314151e+02  -4.436290e+01
   1.183653e+01  -1.408885e+02
   1.400258e+02  -2.681342e+01
   1.184368e+02   1.716981e+02
  -1.749445e+01   2.433898e+02
  -1.551229e+02   1.369957e+02
  -2.245053e+02  -3.630980e+01
  -1.978259e+02  -1.584503e+02
  -7.383017e+01  -1.823834e+02
   7.596150e+01  -1.160754e+02
   1.265446e+02  -1.722547e+01
   4.246065e+01   2.459915e+01
  -5.234185e+01  -2.491464e+01
  -2.491618e+01  -8.979768e+01
   8.678644e+01  -7.467186e+01
   1.284525e+02   6.515921e+00
   4.316794e+01   5.295633e+01
  -5.707296e+01   1.574353e+01
  -4.250607e+01  -4.896633e+01
   8.142675e+01  -6.372484e+01
   1.944513e+02  -7.956393e+00
   1.871648e+02   8.958717e+01
   4.978455e+01   1.767601e+02
  -1.226017e+02   1.883515e+02
  -1.980977e+02   9.477189e+01
  -1.220830e+02  -3.550299e+01
   1.660462e+01  -8.026129e+01
   6.674863e+01  -7.004946e+00
  -2.022520e+01   7.467766e+01
  -1.377801e+02   4.681212e+01
  -1.529308e+02  -6.886225e+01
  -5.205386e+01  -1.462957e+02
   6.487627e+01  -1.135843e+02
   1.024775e+02  -2.279342e+01
   5.202592e+01   2.989562e+01
  -1.935057e+01   6.219544e+00
  -3.037602e+01  -5.452876e+01
   4.406150e+01  -8.048123e+01
   1.358311e+02  -2.648072e+01
   1.367044e+02   8.091546e+01
   1.952579e+01   1.524404e+02
  -1.129944e+02   1.179795e+02
  -1.366370e+02   6.198034e+00
  -4.732058e+01  -8.139395e+01
   4.607568e+01  -8.038161e+01
   5.933854e+01  -2.259161e+01
   1.519627e+01   1.913375e+01
  -1.356597e+01   1.553339e+01
   5.321812e+00  -3.726362e+00
   4.618815e+01   4.381372e+00
   6.116398e+01   5.224055e+01
   1.527263e+01   1.069086e+02
  -8.183787e+01   1.085513e+02
  -1.610527e+02   2.466580e+01
  -1.440312e+02  -9.909885e+01
  -3.364137e+01  -1.645664e+02
   7.374923e+01  -1.203640e+02
   9.415942e+01  -2.057418e+01
   4.876537e+01   3.825946e+01
   1.936657e+01   2.466949e+01
   3.618913e+01  -9.324219e+00
   5.393554e+01  -6.471965e+00
   2.878824e+01   3.146811e+01
  -2.623197e+01   5.908605e+01
  -6.614777e+01   4.019404e+01
  -5.781875e+01  -1.996547e+01
   5.011227e+00  -7.425686e+01
   9.278941e+01  -6.324288e+01
   1.368590e+02   2.850604e+01
   7.611134e+01   1.364173e+02
  -6.684559e+01   1.619991e+02
  -1.832285e+02   7.363671e+01
  -1.815087e+02  -5.457166e+01
  -8.004241e+01  -1.217010e+02
   2.445248e+01  -1.037551e+02
   6.476628e+01  -6.002698e+01
   5.454963e+01  -4.870875e+01
   4.499307e+01  -6.290138e+01
   6.201760e+01  -5.206362e+01
   8.803484e+01   1.288683e+01
   8.375377e+01   1.037510e+02
   2.509028e+01   1.555145e+02
  -6.494525e+01   1.214482e+02
  -1.219694e+02   1.823626e+01
  -9.799666e+01  -8.151700e+01
  -1.717311e+01  -1.109281e+02
   4.469943e+01  -6.690010e+01
   4.237822e+01  -3.376017e+00
   5.951936e+00   2.885370e+01
  -4.775593e+00   2.513855e+01
   2.562792e+01   1.323455e+01
   5.396894e+01   1.424186e+01
   3.106067e+01   2.479964e+01
  -4.188191e+01   2.700017e+01
  -1.072202e+02   6.808075e+00
  -1.002887e+02  -3.116817e+01
  -1.462481e+01  -6.089813e+01
   8.010369e+01  -5.440066e+01
   1.001775e+02  -1.289390e+01
   3.530872e+01   2.661342e+01
  -4.013069e+01   2.626227e+01
  -5.222207e+01  -1.150713e+01
  -5.945390e+00  -4.539679e+01
   3.747065e+01  -3.926486e+01
   4.263740e+01   2.349264e-01
   2.997025e+01   3.238580e+01
   3.030047e+01   2.742310e+01
   4.270237e+01   9.778807e-01
   4.559405e+01  -7.387729e-01
   2.494176e+01   4.453465e+01
  -1.975000e+01   9.935627e+01
  -7.583195e+01   9.933500e+01
  -1.103654e+02   2.721904e+01
  -8.584831e+01  -5.914326e+01
  -7.947214e+00  -8.609018e+01
   5.650989e+01  -4.363060e+01
   4.081382e+01   9.358008e+00
  -4.023618e+01   1.474943e+01
  -9.541308e+01  -2.771505e+01
  -5.463357e+01  -7.279938e+01
   5.320979e+01  -7.930746e+01
   1.310360e+02  -3.998329e+01
   1.136159e+02   1.991648e+01
   2.784607e+01   5.957032e+01
  -4.094960e+01   5.060747e+01
  -3.432778e+01   6.798882e+00
   2.556397e+01  -1.892402e+01
   6.207647e+01   1.380565e+01
   2.394360e+01   8.046685e+01
  -6.077296e+01   1.063405e+02
  -1.138946e+02   4.429954e+01
  -8.803293e+01  -6.747301e+01
  -9.755445e+00  -1.353438e+02
   5.663124e+01  -1.006192e+02
   7.241536e+01   2.206407e+00
   4.465190e+01   8.007434e+01
   1.606830e+00   7.450754e+01
  -3.099845e+01   1.578596e+01
  -3.706378e+01  -2.090052e+01
  -1.877201e+01  -6.318028e+00
  -2.382207e+00   1.467686e+01
  -1.396731e+01  -8.510708e+00
  -3.979668e+01  -5.938813e+01
  -3.152280e+01  -7.561006e+01
   3.065905e+01  -3.296012e+01
   9.569411e+01   2.501646e+01
   9.106420e+01   4.713977e+01
   1.318482e+01   3.337100e+01
  -6.038058e+01   1.580042e+01
  -6.086959e+01   6.894205e+00
  -7.274522e+00  -3.869104e+00
   2.655850e+01  -1.575958e+01
   9.293751e+00  -1.373177e+01
  -1.509103e+01   6.076408e-01
   4.074908e+00   6.730739e+00
   5.134040e+01   2.565192e+00
   6.277058e+01   1.488592e+01
   5.857792e+00   5.362980e+01
  -8.005748e+01   7.884188e+01
  -1.251072e+02   4.250880e+01
  -9.619839e+01  -4.373788e+01
  -1.942067e+01  -1.101875e+02
   5.097658e+01  -1.034681e+02
   7.630686e+01  -4.142324e+01
   5.533277e+01   1.365877e+01
   1.768610e+01   2.340742e+01
  -2.088213e+00   5.098676e+00
   7.047377e+00   1.837709e+00
   2.401770e+01   3.058839e+01
   1.767815e+01   6.151397e+01
  -1.876336e+01   4.949059e+01
  -5.579896e+01  -1.193478e+01
  -5.362582e+01  -7.329225e+01
  -3.576447e+00  -7.603601e+01
   5.602062e+01  -1.611956e+01
   7.051078e+01   5.080060e+01
   2.270506e+01   6.963175e+01
  -4.408191e+01   3.797548e+01
  -6.611042e+01  -6.482675e+00
  -2.752141e+01  -3.264711e+01
   2.058039e+01  -3.501930e+01
   1.992846e+01  -2.039282e+01
  -2.362709e+01  -3.500038e-01
  -4.719032e+01   5.384212e+00
  -1.041976e+01  -1.639730e+01
   5.319133e+01  -4.638690e+01
   7.792615e+01  -4.296024e+01
   4.345295e+01   5.993740e+00
  -9.515737e+00   5.658847e+01
  -3.410225e+01   5.512691e+01
  -2.377174e+01   4.365769e+00
  -1.008834e+00  -3.805913e+01
   1.668269e+01  -2.895645e+01
   2.445646e+01   1.272257e+01
   1.875952e+01   3.632323e+01
  -1.051509e+00   2.158522e+01
  -2.243897e+01  -5.653083e+00
  -2.754607e+01  -1.311003e+01
  -1.436747e+01  -1.217488e-02
   8.586206e-01   8.805000e+00
   5.550843e+00  -3.285046e+00
   5.338505e+00  -2.471055e+01
   1.146929e+01  -2.877096e+01
   2.128440e+01  -3.907668e+00
   1.949194e+01   3.040589e+01
  -2.043334e+00   4.056790e+01
  -3.016610e+01   1.385526e+01
  -3.804488e+01  -2.606735e+01
  -1.011819e+01  -4.272161e+01
   3.656457e+01  -2.399535e+01
   6.008803e+01   9.232651e+00
   3.392123e+01   2.926325e+01
  -1.867561e+01   2.774484e+01
  -4.329955e+01   1.492595e+01
  -1.581224e+01   3.833160e+00
   2.589812e+01   2.212809e+00
   2.566267e+01   1.142968e+01
  -2.172134e+01   2.177886e+01
  -6.315405e+01   1.367330e+01
