
 $NMID
 id='ANONYMOUS ', fmtdat='(2E16.6)'
 volume=1.0
 tramp=1.0
 $END
   4.074250e+03   6.043559e+01
   2.311050e+03   2.514147e+03
  -7.813180e+02   2.566019e+03
  -2.022408e+03   7.452622e+02
  -8.527371e+02  -6.931305e+02
   6.733290e+02  -5.478713e+02
   8.512986e+02   4.459419e+02
  -3.497529e+01   1.022657e+03
  -8.085329e+02   7.156372e+02
  -8.832664e+02  -1.234232e+02
  -3.958623e+02  -8.313911e+02
   2.614793e+02  -8.312938e+02
   6.156460e+02  -8.575562e+01
   3.495799e+02   6.945264e+02
  -2.763427e+02   7.003151e+02
  -5.752101e+02  -2.636926e+01
  -2.345074e+02  -6.487187e+02
   3.266922e+02  -5.771644e+02
   5.471922e+02  -5.721599e+01
   3.440882e+02   3.452798e+02
  -2.709734e+00   4.073907e+02
  -2.368158e+02   2.385015e+02
  -2.067705e+02   6.417644e+00
   1.009105e+02  -9.207128e+01
   3.823726e+02   9.760854e+01
   1.921466e+02   4.049909e+02
  -4.286026e+02   3.903401e+02
  -7.978514e+02  -7.532879e+01
  -4.020941e+02  -5.272369e+02
   3.751425e+02  -4.602683e+02
   7.038805e+02   3.808256e+01
   3.230861e+02   4.587569e+02
  -2.700078e+02   4.846624e+02
  -5.328139e+02   1.815357e+02
  -3.862862e+02  -2.222190e+02
  -5.567566e+01  -4.509378e+02
   2.015543e+02  -2.660632e+02
   1.712201e+02   2.131468e+02
  -1.582054e+02   4.217266e+02
  -4.296781e+02  -1.460664e+01
  -2.322777e+02  -6.461130e+02
   3.106148e+02  -6.620929e+02
   5.792510e+02   5.715888e+00
   2.414208e+02   5.339077e+02
  -2.849279e+02   3.043113e+02
  -3.668520e+02  -3.078955e+02
   6.683226e+01  -5.147913e+02
   5.208145e+02  -1.234510e+02
   5.484985e+02   3.855130e+02
   1.439115e+02   5.476549e+02
  -3.633792e+02   3.185909e+02
  -5.859825e+02  -7.876288e+01
  -3.407912e+02  -3.701267e+02
   1.561601e+02  -3.450207e+02
   4.218115e+02  -4.216468e+01
   2.217737e+02   1.989692e+02
  -1.217719e+02   1.048101e+02
  -1.389939e+02  -1.529116e+02
   1.597168e+02  -1.816608e+02
   3.293163e+02   7.531188e+01
   1.273953e+02   2.874839e+02
  -1.968193e+02   2.358128e+02
  -3.039422e+02   5.471926e+01
  -1.706515e+02  -8.095196e+01
   2.823467e+01  -1.933168e+02
   1.983539e+02  -2.883819e+02
   3.069299e+02  -2.003719e+02
   2.700421e+02   1.248523e+02
   7.072340e+01   4.070511e+02
  -1.178381e+02   3.578602e+02
  -1.230691e+02   9.688061e+01
  -2.292492e+01  -2.261375e+01
  -3.041412e+01   7.503358e+01
  -1.727036e+02   1.239787e+02
  -2.576255e+02  -4.317744e+01
  -1.505942e+02  -2.495513e+02
   6.487026e+01  -2.410863e+02
   2.119752e+02  -1.352914e+01
   1.851907e+02   2.213129e+02
  -7.992545e+00   2.740799e+02
  -2.463525e+02   1.099957e+02
  -3.337047e+02  -1.556851e+02
  -1.693726e+02  -3.284641e+02
   9.883985e+01  -2.844180e+02
   2.157283e+02  -1.054095e+02
   1.390972e+02   4.910835e+00
   8.583481e+01  -2.630949e+01
   2.080430e+02  -5.873303e+01
   3.621145e+02   5.233332e+01
   3.001199e+02   2.611262e+02
  -4.270835e+00   4.027984e+02
  -3.290668e+02   3.731651e+02
  -4.470233e+02   1.803845e+02
  -3.107713e+02  -8.731960e+01
  -5.091438e+01  -2.734092e+02
   1.252326e+02  -2.360875e+02
   8.322046e+01  -2.591983e+01
  -1.002293e+02   1.049384e+02
  -1.870324e+02  -3.459390e+00
  -4.927391e+01  -1.860664e+02
   1.544113e+02  -1.638682e+02
   1.716982e+02   5.791871e+01
  -1.624479e+01   1.836990e+02
  -1.818738e+02   3.199872e+01
  -1.479089e+02  -2.293486e+02
   3.434094e+01  -3.186060e+02
   2.108815e+02  -1.701007e+02
   2.912865e+02   6.169267e+01
   2.483479e+02   2.167133e+02
   8.695608e+01   2.385925e+02
  -1.028187e+02   1.468178e+02
  -1.652886e+02   1.913667e+01
  -5.649748e+01  -3.226766e+01
   6.532166e+01   3.291751e+01
   2.986634e+01   1.155703e+02
  -1.138602e+02   9.393247e+01
  -1.667697e+02  -1.145892e+01
  -5.603067e+01  -6.902063e+01
   7.246088e+01  -1.806214e+01
   5.141596e+01   6.409079e+01
  -1.092809e+02   7.664794e+01
  -2.520303e+02  -9.680967e-01
  -2.371619e+02  -1.253018e+02
  -5.600377e+01  -2.301130e+02
   1.664830e+02  -2.382114e+02
   2.608979e+02  -1.160893e+02
   1.589737e+02   4.929134e+01
  -2.241203e+01   1.041173e+02
  -8.675659e+01   8.783228e+00
   2.760575e+01  -9.493115e+01
   1.799344e+02  -5.594764e+01
   1.967895e+02   9.493713e+01
   6.310256e+01   1.927802e+02
  -8.821213e+01   1.462510e+02
  -1.341718e+02   2.690135e+01
  -6.752176e+01  -3.925532e+01
   2.283147e+01  -6.134315e+00
   3.438054e+01   7.122665e+01
  -6.169488e+01   1.001803e+02
  -1.768559e+02   2.670162e+01
  -1.735358e+02  -1.113786e+02
  -1.908929e+01  -1.992132e+02
   1.522417e+02  -1.496898e+02
   1.797150e+02  -3.288558e+00
   6.008477e+01   1.080413e+02
  -6.255840e+01   1.036339e+02
  -7.830244e+01   2.810869e+01
  -1.938415e+01  -2.397844e+01
   1.717294e+01  -1.818915e+01
  -8.995340e+00   4.327406e+00
  -6.085614e+01  -1.014900e+01
  -7.586396e+01  -7.295657e+01
  -1.272555e+01  -1.396627e+02
   1.122126e+02  -1.358655e+02
   2.098764e+02  -2.383810e+01
   1.824072e+02   1.355435e+02
   3.671347e+01   2.163404e+02
  -1.014414e+02   1.545855e+02
  -1.245873e+02   2.282724e+01
  -6.295634e+01  -5.299493e+01
  -2.468405e+01  -3.389897e+01
  -4.795243e+01   1.006883e+01
  -7.070938e+01   4.866217e+00
  -3.490144e+01  -4.395349e+01
   3.928446e+01  -7.571939e+01
   8.939393e+01  -4.671779e+01
   7.309893e+01   3.113186e+01
  -1.234550e+01   9.590948e+01
  -1.244293e+02   7.541800e+01
  -1.755269e+02  -4.484433e+01
  -9.153784e+01  -1.801404e+02
   9.439786e+01  -2.063569e+02
   2.414573e+02  -8.716613e+01
   2.341481e+02   7.890415e+01
   9.951428e+01   1.619857e+02
  -3.611340e+01   1.343808e+02
  -8.730311e+01   7.592346e+01
  -7.397489e+01   6.192590e+01
  -6.254121e+01   8.073822e+01
  -8.431311e+01   6.497802e+01
  -1.147209e+02  -2.176434e+01
  -1.041661e+02  -1.400005e+02
  -2.502998e+01  -2.041543e+02
   9.034561e+01  -1.553478e+02
   1.594162e+02  -1.844155e+01
   1.235714e+02   1.102671e+02
   1.742926e+01   1.448194e+02
  -6.037708e+01   8.455321e+01
  -5.392540e+01   2.324692e+00
  -5.354998e+00  -3.685291e+01
   7.311704e+00  -3.088009e+01
  -3.366673e+01  -1.782095e+01
  -7.020117e+01  -2.202839e+01
  -3.899942e+01  -3.451529e+01
   5.622428e+01  -3.208014e+01
   1.395828e+02  -1.865277e+00
   1.281382e+02   4.569701e+01
   1.537104e+01   7.844132e+01
  -1.070673e+02   6.554836e+01
  -1.306944e+02   1.188396e+01
  -4.389364e+01  -3.592573e+01
   5.445295e+01  -3.214501e+01
   6.770207e+01   1.796427e+01
   4.635176e+00   6.069254e+01
  -5.203962e+01   5.022182e+01
  -5.607366e+01  -3.153980e+00
  -3.713959e+01  -4.528203e+01
  -3.793237e+01  -3.783960e+01
  -5.594430e+01  -2.857021e+00
  -5.960538e+01  -1.235312e+00
  -2.959219e+01  -6.034111e+01
   3.180830e+01  -1.292894e+02
   1.045067e+02  -1.248372e+02
   1.452958e+02  -2.816668e+01
   1.085860e+02   8.240727e+01
   5.319429e+00   1.122877e+02
  -7.676738e+01   5.323316e+01
  -5.325834e+01  -1.467900e+01
   5.342770e+01  -1.730954e+01
   1.235757e+02   4.074384e+01
   6.792535e+01   9.737611e+01
  -7.314700e+01   1.006954e+02
  -1.724718e+02   4.598844e+01
  -1.468621e+02  -3.097277e+01
  -3.368969e+01  -7.858330e+01
   5.504491e+01  -6.391861e+01
   4.432154e+01  -7.386052e+00
  -3.478552e+01   2.318071e+01
  -8.071310e+01  -2.153005e+01
  -2.734392e+01  -1.072316e+02
   8.535874e+01  -1.371736e+02
   1.522843e+02  -5.293691e+01
   1.126454e+02   9.292135e+01
   6.285838e+00   1.782250e+02
  -7.885179e+01   1.291265e+02
  -9.407109e+01  -6.379384e+00
  -5.419114e+01  -1.062885e+02
   1.027913e+00  -9.637118e+01
   4.060972e+01  -1.858564e+01
   4.742694e+01   2.848271e+01
   2.455172e+01   8.292699e+00
   3.495596e+00  -1.892941e+01
   1.696252e+01   1.271350e+01
   4.880387e+01   7.984627e+01
   3.805796e+01   9.950865e+01
  -4.125309e+01   4.065681e+01
  -1.241473e+02  -3.734870e+01
  -1.170119e+02  -6.554369e+01
  -1.515814e+01  -4.430802e+01
   8.031598e+01  -1.828674e+01
   7.978073e+01  -6.171133e+00
   8.724960e+00   6.016084e+00
  -3.553066e+01   1.971417e+01
  -1.216740e+01   1.705129e+01
   2.016959e+01  -6.547166e-01
  -5.417607e+00  -8.791555e+00
  -6.772038e+01  -5.284086e+00
  -8.155288e+01  -2.289374e+01
  -4.536329e+00  -7.183801e+01
   1.094606e+02  -1.001305e+02
   1.666723e+02  -4.873639e+01
   1.243125e+02   6.354820e+01
   1.989381e+01   1.459346e+02
  -7.255038e+01   1.324984e+02
  -1.026799e+02   4.984952e+01
  -7.195614e+01  -2.076791e+01
  -2.162756e+01  -3.164572e+01
   3.576500e+00  -7.038208e+00
  -8.579858e+00  -3.052849e+00
  -2.954872e+01  -4.087159e+01
  -1.995917e+01  -8.084174e+01
   2.711155e+01  -6.377705e+01
   7.284076e+01   1.827923e+01
   6.705560e+01   9.913405e+01
   7.419059e-01   1.007897e+02
  -7.519738e+01   1.882451e+01
  -9.073379e+01  -7.063916e+01
  -2.600123e+01  -9.317949e+01
   6.064206e+01  -4.750995e+01
   8.651438e+01   1.263057e+01
   3.340878e+01   4.468369e+01
  -2.975432e+01   4.439249e+01
  -2.705380e+01   2.470186e+01
   3.165354e+01   9.619375e-01
   6.230288e+01  -4.667856e+00
   1.248718e+01   2.231723e+01
  -7.197313e+01   5.805520e+01
  -1.035084e+02   5.174839e+01
  -5.587063e+01  -1.076074e+01
   1.564489e+01  -7.376672e+01
   4.777185e+01  -6.977772e+01
   3.192918e+01  -3.485811e+00
  -3.869285e-01   5.055599e+01
  -2.394944e+01   3.715061e+01
  -3.219326e+01  -1.813493e+01
  -2.265771e+01  -4.873826e+01
   3.271395e+00  -2.827464e+01
   2.944901e+01   8.663803e+00
   3.487235e+01   1.873863e+01
   1.840267e+01   7.050346e-01
   3.054917e-03  -1.178073e+01
  -6.239627e+00   4.269679e+00
  -7.992623e+00   3.326417e+01
  -1.765702e+01   3.850995e+01
  -2.966859e+01   4.275552e+00
  -2.477745e+01  -4.214237e+01
   4.961483e+00  -5.459670e+01
   4.085155e+01  -1.692436e+01
   4.898697e+01   3.688743e+01
   1.121499e+01   5.706115e+01
  -4.929675e+01   2.926096e+01
  -7.852719e+01  -1.576543e+01
  -4.294041e+01  -4.028594e+01
   2.640738e+01  -3.527734e+01
   5.817473e+01  -1.709154e+01
   2.102729e+01  -3.654299e+00
  -3.456311e+01  -3.428394e+00
  -3.407495e+01  -1.604834e+01
   2.911024e+01  -2.830207e+01
   8.380836e+01  -1.595591e+01
