
 $NMID
 id='ANONYMOUS ', fmtdat='(2E16.6)'
 volume=1.0
 tramp=1.0
 $END
  -4.586768e+03   3.385399e+01
  -2.659760e+03  -2.773637e+03
   8.207727e+02  -2.904800e+03
   2.258106e+03  -8.819034e+02
   9.714546e+02   7.645405e+02
  -7.502832e+02   6.332706e+02
  -9.710331e+02  -4.841586e+02
   1.558968e+01  -1.153884e+03
   8.937504e+02  -8.247398e+02
   9.968870e+02   1.187338e+02
   4.646238e+02   9.266679e+02
  -2.754782e+02   9.413185e+02
  -6.919329e+02   1.100639e+02
  -4.105355e+02  -7.742653e+02
   2.944921e+02  -7.947625e+02
   6.480761e+02   1.642683e+01
   2.789983e+02   7.240222e+02
  -3.537995e+02   6.556575e+02
  -6.131408e+02   7.609773e+01
  -3.939223e+02  -3.801950e+02
  -6.061888e+00  -4.576574e+02
   2.609263e+02  -2.735440e+02
   2.330844e+02  -1.134041e+01
  -1.110426e+02   1.081176e+02
  -4.338593e+02  -9.857106e+01
  -2.280929e+02  -4.513066e+02
   4.720038e+02  -4.519175e+02
   9.006088e+02   6.374192e+01
   4.664038e+02   5.842106e+02
  -4.111127e+02   5.289969e+02
  -7.940755e+02  -2.452583e+01
  -3.757268e+02  -5.084990e+02
   2.914403e+02  -5.527427e+02
   5.948843e+02  -2.179300e+02
   4.401028e+02   2.405099e+02
   7.340136e+01   5.063829e+02
  -2.214519e+02   3.042104e+02
  -1.993020e+02  -2.370213e+02
   1.677061e+02  -4.804126e+02
   4.857261e+02   5.054442e+00
   2.790674e+02   7.222143e+02
  -3.333033e+02   7.537195e+02
  -6.532442e+02   7.507822e+00
  -2.852837e+02  -5.961079e+02
   3.141384e+02  -3.502385e+02
   4.217565e+02   3.375623e+02
  -6.185351e+01   5.814808e+02
  -5.829541e+02   1.524927e+02
  -6.267975e+02  -4.193389e+02
  -1.755698e+02  -6.120437e+02
   4.008337e+02  -3.675765e+02
   6.610100e+02   7.374154e+01
   3.920192e+02   4.081237e+02
  -1.680014e+02   3.923257e+02
  -4.738958e+02   5.737827e+01
  -2.536826e+02  -2.193824e+02
   1.356219e+02  -1.211251e+02
   1.605185e+02   1.695314e+02
  -1.758090e+02   2.091174e+02
  -3.727812e+02  -7.676422e+01
  -1.502205e+02  -3.205919e+02
   2.154141e+02  -2.697736e+02
   3.393993e+02  -6.875810e+01
   1.930283e+02   8.599795e+01
  -2.625642e+01   2.167337e+02
  -2.141773e+02   3.288437e+02
  -3.392601e+02   2.337146e+02
  -3.071425e+02  -1.330716e+02
  -9.003273e+01  -4.560603e+02
   1.240394e+02  -4.051889e+02
   1.363960e+02  -1.109460e+02
   2.572487e+01   2.595555e+01
   3.106684e+01  -8.515872e+01
   1.903983e+02  -1.447434e+02
   2.910668e+02   4.117805e+01
   1.762841e+02   2.766665e+02
  -6.654569e+01   2.731537e+02
  -2.382542e+02   2.112797e+01
  -2.143958e+02  -2.438643e+02
   1.593665e+00  -3.085698e+02
   2.741541e+02  -1.304369e+02
   3.793218e+02   1.662234e+02
   1.987251e+02   3.649647e+02
  -1.041964e+02   3.221324e+02
  -2.399208e+02   1.233894e+02
  -1.560005e+02  -2.661888e+00
  -9.500972e+01   3.165165e+01
  -2.316734e+02   7.188133e+01
  -4.079655e+02  -4.879955e+01
  -3.439727e+02  -2.851943e+02
  -5.995420e+00  -4.524739e+02
   3.594795e+02  -4.278506e+02
   4.973430e+02  -2.144907e+02
   3.517460e+02   9.002178e+01
   6.451484e+01   3.062335e+02
  -1.350414e+02   2.687665e+02
  -9.345941e+01   3.088787e+01
   1.100015e+02  -1.211922e+02
   2.109218e+02  -1.057361e+00
   6.040189e+01   2.083786e+02
  -1.698436e+02   1.885426e+02
  -1.949948e+02  -6.092796e+01
   1.358449e+01  -2.073798e+02
   2.038579e+02  -4.089327e+01
   1.721442e+02   2.538033e+02
  -3.035422e+01   3.586173e+02
  -2.320916e+02   1.963787e+02
  -3.282760e+02  -6.148425e+01
  -2.845832e+02  -2.364931e+02
  -1.043074e+02  -2.655978e+02
   1.114943e+02  -1.678147e+02
   1.854210e+02  -2.586625e+01
   6.445107e+01   3.505138e+01
  -7.450797e+01  -3.507748e+01
  -3.687729e+01  -1.292418e+02
   1.255139e+02  -1.088123e+02
   1.879458e+02   8.475482e+00
   6.493300e+01   7.633454e+01
  -8.098406e+01   2.251542e+01
  -5.968607e+01  -7.045026e+01
   1.203712e+02  -8.902204e+01
   2.828265e+02  -5.875401e+00
   2.697429e+02   1.341090e+02
   6.932392e+01   2.569133e+02
  -1.804980e+02   2.722124e+02
  -2.901526e+02   1.374496e+02
  -1.801071e+02  -5.137652e+01
   2.251225e+01  -1.178579e+02
   9.753136e+01  -1.216311e+01
  -2.836510e+01   1.076385e+02
  -2.007814e+02   6.778645e+01
  -2.237214e+02  -1.015139e+02
  -7.596718e+01  -2.150626e+02
   9.536212e+01  -1.667394e+02
   1.501996e+02  -3.377604e+01
   7.708996e+01   4.247420e+01
  -2.541943e+01   7.837730e+00
  -4.071722e+01  -7.879084e+01
   6.629414e+01  -1.141462e+02
   1.977569e+02  -3.488742e+01
   1.979098e+02   1.203750e+02
   2.675386e+01   2.233008e+02
  -1.671399e+02   1.721725e+02
  -2.018782e+02   8.268406e+00
  -7.031571e+01  -1.199965e+02
   6.764983e+01  -1.181591e+02
   8.735501e+01  -3.361878e+01
   2.258873e+01   2.651045e+01
  -1.866590e+01   2.106367e+01
   9.904808e+00  -4.884059e+00
   6.831820e+01   9.822741e+00
   8.693022e+01   7.969387e+01
   1.810267e+01   1.562506e+02
  -1.221780e+02   1.555424e+02
  -2.349876e+02   3.250407e+01
  -2.084950e+02  -1.472925e+02
  -4.692743e+01  -2.420243e+02
   1.099517e+02  -1.762938e+02
   1.393251e+02  -2.882690e+01
   7.197456e+01   5.795616e+01
   2.850545e+01   3.745972e+01
   5.352591e+01  -1.254977e+01
   7.914830e+01  -7.357074e+00
   4.020270e+01   4.825453e+01
  -4.203553e+01   8.580058e+01
  -9.880790e+01   5.475033e+01
  -8.266518e+01  -3.279986e+01
   1.118002e+01  -1.077712e+02
   1.373973e+02  -8.800261e+01
   1.981875e+02   4.548374e+01
   1.077548e+02   1.997386e+02
  -1.003353e+02   2.343155e+02
  -2.688226e+02   1.043981e+02
  -2.651141e+02  -8.241922e+01
  -1.160749e+02  -1.793725e+02
   3.703423e+01  -1.519270e+02
   9.610260e+01  -8.754972e+01
   8.152661e+01  -7.140910e+01
   6.816251e+01  -9.219207e+01
   9.292914e+01  -7.508352e+01
   1.292895e+02   2.143937e+01
   1.205957e+02   1.544082e+02
   3.350711e+01   2.285368e+02
  -9.733788e+01   1.768439e+02
  -1.785821e+02   2.498198e+01
  -1.417692e+02  -1.205167e+02
  -2.347952e+01  -1.622048e+02
   6.551587e+01  -9.668647e+01
   6.052088e+01  -4.217895e+00
   7.140944e+00   4.114470e+01
  -7.197349e+00   3.492441e+01
   3.833057e+01   1.923780e+01
   7.929359e+01   2.290959e+01
   4.463286e+01   3.766593e+01
  -6.214002e+01   3.750384e+01
  -1.564736e+02   5.910736e+00
  -1.450911e+02  -4.777055e+01
  -1.955636e+01  -8.762036e+01
   1.182983e+02  -7.647957e+01
   1.464327e+02  -1.687909e+01
   5.031618e+01   3.908392e+01
  -6.024617e+01   3.744111e+01
  -7.643744e+01  -1.838176e+01
  -6.696416e+00  -6.788323e+01
   5.716262e+01  -5.759812e+01
   6.293838e+01   2.090460e+00
   4.272315e+01   4.977205e+01
   4.352871e+01   4.143432e+01
   6.293898e+01   1.772059e+00
   6.695549e+01  -1.808143e-01
   3.472228e+01   6.684714e+01
  -3.233230e+01   1.458457e+02
  -1.138859e+02   1.428703e+02
  -1.621553e+02   3.552426e+01
  -1.239865e+02  -8.955796e+01
  -9.016648e+00  -1.258412e+02
   8.464803e+01  -6.171700e+01
   6.011633e+01   1.511316e+01
  -5.952563e+01   2.082321e+01
  -1.398203e+02  -4.252710e+01
  -7.886810e+01  -1.075606e+02
   7.944218e+01  -1.150141e+02
   1.924617e+02  -5.624630e+01
   1.657849e+02   3.085340e+01
   3.995726e+01   8.738128e+01
  -6.011805e+01   7.332483e+01
  -4.960921e+01   9.555003e+00
   3.839786e+01  -2.689404e+01
   9.112305e+01   2.206982e+01
   3.341200e+01   1.196463e+02
  -9.234618e+01   1.561325e+02
  -1.696183e+02   6.326988e+01
  -1.288353e+02  -1.014567e+02
  -1.163505e+01  -1.999248e+02
   8.518245e+01  -1.470422e+02
   1.057987e+02   4.637187e+00
   6.370395e+01   1.178911e+02
   1.492162e+00   1.083114e+02
  -4.505943e+01   2.202595e+01
  -5.407026e+01  -3.074899e+01
  -2.787736e+01  -8.726004e+00
  -3.419772e+00   2.138678e+01
  -1.929386e+01  -1.370190e+01
  -5.686477e+01  -8.831845e+01
  -4.542797e+01  -1.108057e+02
   4.514963e+01  -4.680323e+01
   1.403572e+02   3.870582e+01
   1.331449e+02   7.056019e+01
   1.818780e+01   4.929339e+01
  -8.974355e+01   2.255203e+01
  -8.942684e+01   9.033937e+00
  -9.897963e+00  -6.440029e+00
   3.941993e+01  -2.305030e+01
   1.317726e+01  -1.955080e+01
  -2.268682e+01   1.200842e+00
   6.326584e+00   9.782567e+00
   7.621757e+01   4.255485e+00
   9.211171e+01   2.357916e+01
   6.821901e+00   8.043798e+01
  -1.203536e+02   1.151530e+02
  -1.857328e+02   5.898646e+01
  -1.410201e+02  -6.812160e+01
  -2.605735e+01  -1.632819e+02
   7.792133e+01  -1.505669e+02
   1.138803e+02  -5.856981e+01
   8.129849e+01   2.145619e+01
   2.509944e+01   3.491549e+01
  -3.871050e+00   7.913478e+00
   9.690718e+00   3.130749e+00
   3.429004e+01   4.507693e+01
   2.458488e+01   9.023145e+01
  -2.875971e+01   7.229492e+01
  -8.225169e+01  -1.866791e+01
  -7.778937e+01  -1.095827e+02
  -3.341228e+00  -1.130806e+02
   8.395749e+01  -2.295751e+01
   1.036024e+02   7.702724e+01
   3.152196e+01   1.038711e+02
  -6.680872e+01   5.479457e+01
  -9.734237e+01  -1.193387e+01
  -3.862825e+01  -4.915857e+01
   3.216630e+01  -5.049659e+01
   2.960960e+01  -2.846732e+01
  -3.561893e+01  -3.577165e-01
  -6.980849e+01   6.836446e+00
  -1.456993e+01  -2.467929e+01
   7.927795e+01  -6.704716e+01
   1.147917e+02  -6.088410e+01
   6.293078e+01   1.051909e+01
  -1.564722e+01   8.317046e+01
  -5.171660e+01   7.955088e+01
  -3.561482e+01   4.703557e+00
  -8.001927e-01  -5.676825e+01
   2.590764e+01  -4.224963e+01
   3.656169e+01   1.960626e+01
   2.667975e+01   5.410455e+01
  -2.921925e+00   3.172832e+01
  -3.325904e+01  -8.995346e+00
  -3.962591e+01  -2.005786e+01
  -2.069040e+01  -2.644654e-01
   2.967467e-01   1.313896e+01
   6.952150e+00  -5.089093e+00
   8.248510e+00  -3.754700e+01
   1.895182e+01  -4.351383e+01
   3.317882e+01  -5.379676e+00
   2.873474e+01   4.671790e+01
  -4.324549e+00   6.134740e+01
  -4.543454e+01   1.997916e+01
  -5.584086e+01  -4.016526e+01
  -1.400253e+01  -6.375878e+01
   5.453167e+01  -3.411526e+01
   8.847635e+01   1.566960e+01
   4.922210e+01   4.409563e+01
  -2.869607e+01   4.022626e+01
  -6.480704e+01   2.062464e+01
  -2.343866e+01   4.649633e+00
   3.895878e+01   3.056207e+00
   3.866673e+01   1.725423e+01
  -3.205292e+01   3.255697e+01
  -9.379502e+01   2.001536e+01
