
 $NMID
 id='ANONYMOUS ', fmtdat='(2E16.6)'
 volume=1.0
 tramp=1.0
 $END
  -3.396203e+03   6.019513e+01
  -2.242979e+03  -1.742538e+03
   5.106807e+01  -2.171449e+03
   1.359311e+03  -1.234605e+03
   9.691974e+02  -9.135153e+01
  -5.331295e+01   2.750981e+02
  -4.571035e+02  -1.295265e+02
  -6.872144e+01  -6.275442e+02
   4.906978e+02  -6.286143e+02
   6.934107e+02  -8.016553e+01
   4.535321e+02   5.540851e+02
  -1.244870e+01   6.929596e+02
  -3.523019e+02   1.914459e+02
  -2.834522e+02  -4.527770e+02
   1.224645e+02  -5.803135e+02
   4.364749e+02  -8.057395e+01
   3.095274e+02   5.107010e+02
  -1.417568e+02   6.329103e+02
  -4.853362e+02   2.606077e+02
  -4.425913e+02  -1.949123e+02
  -1.239180e+02  -3.733994e+02
   1.345796e+02  -2.547716e+02
   9.370449e+01  -7.524436e+01
  -1.664654e+02  -6.828456e+01
  -2.943714e+02  -2.432582e+02
  -2.472861e+01  -3.653991e+02
   4.583000e+02  -2.075363e+02
   6.405794e+02   1.539618e+02
   2.639803e+02   3.813614e+02
  -3.218055e+02   2.516950e+02
  -5.370743e+02  -1.030796e+02
  -2.211045e+02  -3.734395e+02
   2.550216e+02  -3.793224e+02
   4.664964e+02  -1.492911e+02
   3.400822e+02   1.621002e+02
   9.095971e+01   3.341067e+02
  -5.185435e+01   2.044668e+02
   5.319847e-01  -1.047309e+02
   1.670887e+02  -2.043861e+02
   2.394247e+02   1.120190e+02
   6.324584e+01   5.147586e+02
  -2.463707e+02   4.860325e+02
  -3.700171e+02   1.272049e+01
  -1.538586e+02  -3.462486e+02
   1.656824e+02  -1.743823e+02
   2.125333e+02   2.698774e+02
  -9.562122e+01   4.119272e+02
  -4.564291e+02   7.812750e+01
  -5.057624e+02  -3.655879e+02
  -1.653801e+02  -5.046741e+02
   3.043717e+02  -2.852511e+02
   5.332794e+02   5.432635e+01
   3.512422e+02   2.653802e+02
  -5.573753e+01   2.516469e+02
  -3.107330e+02   8.748158e+01
  -2.252785e+02  -5.082039e+01
   8.705788e+00  -3.996189e+01
   6.760022e+01   6.072524e+01
  -1.039628e+02   8.178090e+01
  -2.463728e+02  -4.438529e+01
  -1.327156e+02  -2.058669e+02
   1.545964e+02  -2.506808e+02
   3.392181e+02  -1.313938e+02
   2.556972e+02   9.304046e+01
  -1.982314e+01   3.059821e+02
  -2.796843e+02   3.610838e+02
  -3.595195e+02   1.724915e+02
  -2.432833e+02  -1.545369e+02
  -5.885135e+01  -3.678752e+02
   4.231134e+01  -3.282152e+02
   3.558075e+01  -1.647967e+02
   3.329297e+01  -8.846663e+01
   1.228322e+02  -1.108565e+02
   2.392596e+02  -6.704188e+01
   2.451523e+02   1.072064e+02
   1.023376e+02   2.559670e+02
  -8.862443e+01   2.010836e+02
  -1.943777e+02  -3.134631e+01
  -1.450200e+02  -2.398275e+02
   3.941269e+01  -2.540492e+02
   2.460831e+02  -7.197814e+01
   3.144721e+02   1.669085e+02
   1.739206e+02   3.018363e+02
  -5.438248e+01   2.710095e+02
  -1.732491e+02   1.514176e+02
  -1.474477e+02   7.059714e+01
  -1.406199e+02   6.424826e+01
  -2.697382e+02   4.290795e+01
  -4.075528e+02  -8.596823e+01
  -3.224075e+02  -2.912867e+02
   1.760848e+01  -4.354763e+02
   3.725260e+02  -3.992409e+02
   4.752419e+02  -1.806845e+02
   2.923285e+02   9.565381e+01
   2.672126e+01   2.546362e+02
  -9.541550e+01   2.049087e+02
  -2.090006e+01   3.712381e+01
   1.144271e+02  -5.004904e+01
   1.381783e+02   3.113103e+01
   1.579245e+01   1.474926e+02
  -1.203063e+02   1.146689e+02
  -1.186851e+02  -5.131344e+01
   2.478205e+01  -1.386350e+02
   1.641792e+02  -6.278630e+00
   1.543409e+02   2.335370e+02
  -1.816186e+01   3.411043e+02
  -2.374077e+02   2.069994e+02
  -3.524784e+02  -5.853408e+01
  -2.795628e+02  -2.561993e+02
  -6.666900e+01  -2.714187e+02
   1.252758e+02  -1.429391e+02
   1.533509e+02  -9.066683e+00
   3.808468e+01   1.568942e+01
  -5.336426e+01  -5.784164e+01
  -1.127687e+00  -1.143354e+02
   1.228007e+02  -7.107185e+01
   1.499669e+02   2.381652e+01
   3.485702e+01   5.650621e+01
  -8.164142e+01  -8.685243e+00
  -4.079389e+01  -9.040978e+01
   1.449490e+02  -8.847778e+01
   2.985824e+02   1.751404e+01
   2.577945e+02   1.647732e+02
   3.281210e+01   2.606900e+02
  -2.024626e+02   2.371012e+02
  -2.681191e+02   1.013411e+02
  -1.409592e+02  -4.506737e+01
   2.844456e+01  -8.147634e+01
   6.687630e+01   2.761739e+00
  -5.010403e+01   8.239334e+01
  -1.847488e+02   3.711644e+01
  -1.902773e+02  -1.017880e+02
  -5.847606e+01  -1.884283e+02
   8.768127e+01  -1.377796e+02
   1.260908e+02  -1.894576e+01
   4.861354e+01   3.618602e+01
  -4.086237e+01  -1.865384e+01
  -2.880982e+01  -1.068026e+02
   9.369628e+01  -1.179072e+02
   2.090066e+02  -1.535687e+01
   1.831139e+02   1.319362e+02
   1.293057e+01   2.084532e+02
  -1.551078e+02   1.520700e+02
  -1.753712e+02   1.187327e+01
  -5.668960e+01  -9.550800e+01
   6.091601e+01  -9.654207e+01
   7.054868e+01  -2.567681e+01
   2.820030e+00   2.465836e+01
  -3.561281e+01   9.775789e+00
   8.870354e+00  -2.421497e+01
   8.700471e+01  -1.579270e+00
   1.042739e+02   9.001037e+01
   1.251178e+01   1.739149e+02
  -1.399795e+02   1.538547e+02
  -2.372925e+02   1.288849e+01
  -1.933247e+02  -1.561620e+02
  -3.889713e+01  -2.279370e+02
   1.002786e+02  -1.604522e+02
   1.288919e+02  -3.154750e+01
   7.365977e+01   4.428308e+01
   3.360859e+01   2.920882e+01
   5.520283e+01  -1.464185e+01
   8.684290e+01  -7.633727e+00
   5.561812e+01   5.636052e+01
  -3.933879e+01   1.051059e+02
  -1.206340e+02   6.773248e+01
  -1.056217e+02  -4.312866e+01
   1.626686e+01  -1.284711e+02
   1.612995e+02  -9.077448e+01
   2.052283e+02   6.325808e+01
   8.704704e+01   2.111078e+02
  -1.217688e+02   2.221364e+02
  -2.659201e+02   8.381548e+01
  -2.446548e+02  -8.803898e+01
  -1.001057e+02  -1.679929e+02
   3.878773e+01  -1.380410e+02
   8.779461e+01  -8.045385e+01
   6.940859e+01  -7.016826e+01
   5.790185e+01  -9.451720e+01
   8.956037e+01  -7.980999e+01
   1.311761e+02   1.724182e+01
   1.199370e+02   1.522140e+02
   2.843766e+01   2.243501e+02
  -9.840593e+01   1.668341e+02
  -1.694562e+02   1.323979e+01
  -1.272540e+02  -1.251315e+02
  -1.101473e+01  -1.554298e+02
   7.379445e+01  -8.153096e+01
   6.215323e+01   1.276820e+01
  -2.996971e+00   5.259428e+01
  -2.524888e+01   3.568612e+01
   2.807454e+01   1.194140e+01
   8.410097e+01   1.740700e+01
   4.988092e+01   3.955438e+01
  -7.204336e+01   4.009868e+01
  -1.719934e+02  -5.058620e-01
  -1.440370e+02  -6.138603e+01
  -1.033402e+00  -9.666907e+01
   1.324979e+02  -7.400570e+01
   1.446974e+02  -6.997757e+00
   4.459251e+01   4.906739e+01
  -5.948158e+01   4.383983e+01
  -7.790826e+01  -1.736220e+01
  -1.889881e+01  -7.319459e+01
   4.601648e+01  -6.591764e+01
   6.818263e+01  -2.837358e+00
   5.733396e+01   5.017066e+01
   4.799578e+01   4.278185e+01
   5.555920e+01   1.171956e+00
   6.477204e+01   4.129179e-01
   4.438161e+01   7.173465e+01
  -2.577912e+01   1.523032e+02
  -1.233111e+02   1.462304e+02
  -1.787223e+02   3.483041e+01
  -1.307013e+02  -9.315311e+01
  -3.533220e+00  -1.322227e+02
   9.145750e+01  -6.948657e+01
   6.219364e+01   1.026049e+01
  -5.767261e+01   2.115240e+01
  -1.336551e+02  -3.991512e+01
  -7.140658e+01  -1.048782e+02
   8.186442e+01  -1.092098e+02
   1.872187e+02  -4.584027e+01
   1.558849e+02   3.866483e+01
   3.149403e+01   8.416964e+01
  -6.286249e+01   6.166286e+01
  -4.812335e+01  -2.547220e-01
   3.962093e+01  -3.111087e+01
   9.248667e+01   1.836593e+01
   4.102125e+01   1.147462e+02
  -7.713118e+01   1.563531e+02
  -1.563341e+02   7.231095e+01
  -1.272866e+02  -8.922565e+01
  -1.879711e+01  -1.909490e+02
   7.961542e+01  -1.407694e+02
   1.031760e+02   9.851975e+00
   5.618636e+01   1.184465e+02
  -1.117371e+01   1.020698e+02
  -5.060863e+01   1.531578e+01
  -4.575274e+01  -3.131247e+01
  -1.737821e+01  -7.014851e+00
  -5.475225e+00   1.759600e+01
  -2.965745e+01  -2.055646e+01
  -5.827807e+01  -8.860106e+01
  -3.378714e+01  -1.038286e+02
   5.432487e+01  -4.267101e+01
   1.352578e+02   3.523575e+01
   1.230727e+02   6.713179e+01
   1.879176e+01   5.237611e+01
  -8.001631e+01   2.672164e+01
  -8.570784e+01   6.941804e+00
  -1.691068e+01  -1.117097e+01
   3.405392e+01  -2.187747e+01
   1.867547e+01  -1.314953e+01
  -1.510881e+01   4.129819e+00
   3.180305e+00   5.636060e+00
   6.661884e+01  -1.973059e+00
   9.262983e+01   2.014695e+01
   2.211296e+01   8.035168e+01
  -1.052937e+02   1.192106e+02
  -1.857060e+02   6.882902e+01
  -1.523511e+02  -5.614296e+01
  -3.465677e+01  -1.578016e+02
   7.712211e+01  -1.551581e+02
   1.147514e+02  -6.686094e+01
   8.039683e+01   1.768928e+01
   2.680334e+01   3.715886e+01
   2.243982e+00   1.283238e+01
   1.358868e+01   8.005881e+00
   3.089768e+01   4.802386e+01
   1.943175e+01   8.997537e+01
  -2.782256e+01   7.176582e+01
  -7.832339e+01  -1.354453e+01
  -8.129349e+01  -9.973483e+01
  -1.576388e+01  -1.095829e+02
   7.423333e+01  -3.308377e+01
   1.062818e+02   6.288576e+01
   4.149185e+01   1.016740e+02
  -6.250230e+01   6.478632e+01
  -1.030787e+02  -5.873985e+00
  -4.600717e+01  -5.645203e+01
   3.300731e+01  -6.129152e+01
   3.883731e+01  -2.953545e+01
  -2.638864e+01   6.273318e+00
  -6.773949e+01   1.013510e+01
  -1.852735e+01  -2.665623e+01
   7.663936e+01  -6.656645e+01
   1.186446e+02  -5.525107e+01
   7.048962e+01   1.534711e+01
  -1.194213e+01   8.465967e+01
  -5.577326e+01   8.335704e+01
  -4.413301e+01   1.308148e+01
  -8.003787e+00  -5.203993e+01
   2.268828e+01  -4.811666e+01
   3.691124e+01   9.910469e+00
   2.936480e+01   5.284588e+01
  -1.604045e-01   3.916343e+01
  -3.329029e+01  -4.477329e+00
  -4.197352e+01  -2.414793e+01
  -2.069205e+01  -4.205826e+00
   3.949580e+00   1.939794e+01
   6.562181e+00   7.580870e+00
  -3.978692e+00  -3.203421e+01
   1.146953e+00  -5.214075e+01
   2.684547e+01  -2.159351e+01
   4.092706e+01   3.460011e+01
   1.321607e+01   5.939313e+01
  -3.977532e+01   2.624638e+01
  -6.275515e+01  -3.189401e+01
  -2.059358e+01  -5.973183e+01
   5.564933e+01  -3.690013e+01
   9.273255e+01   9.596523e+00
   5.140660e+01   4.192684e+01
  -2.752163e+01   4.562360e+01
  -6.440574e+01   2.902207e+01
  -2.838653e+01   7.323115e+00
   2.874651e+01  -3.812517e+00
   3.383752e+01   6.063429e+00
  -2.277375e+01   2.618257e+01
  -7.802438e+01   2.279724e+01
