
 $NMID
 id='ANONYMOUS ', fmtdat='(2E16.6)'
 volume=1.0
 tramp=1.0
 $END
   4.734090e+03  -2.357483e+01
   2.693422e+03   2.910465e+03
  -9.380498e+02   2.984208e+03
  -2.370761e+03   8.104649e+02
  -9.507585e+02  -8.892683e+02
   8.576767e+02  -6.741910e+02
   1.038779e+03   5.416804e+02
  -3.424063e+01   1.225279e+03
  -9.501828e+02   8.443100e+02
  -1.032898e+03  -1.510476e+02
  -4.588505e+02  -9.759315e+02
   3.157307e+02  -9.685230e+02
   7.375633e+02  -9.258586e+01
   4.238523e+02   8.190620e+02
  -3.201691e+02   8.195845e+02
  -6.741094e+02  -3.313318e+01
  -2.704394e+02  -7.498710e+02
   3.822932e+02  -6.510268e+02
   6.244247e+02  -4.623303e+01
   3.808733e+02   4.038619e+02
  -1.247507e+01   4.648569e+02
  -2.779651e+02   2.727744e+02
  -2.518127e+02  -5.087841e-01
   1.041802e+02  -1.362817e+02
   4.549973e+02   7.602759e+01
   2.580854e+02   4.638247e+02
  -4.729785e+02   4.878069e+02
  -9.356087e+02  -5.063945e+01
  -4.925664e+02  -6.131488e+02
   4.248175e+02  -5.678412e+02
   8.291682e+02   1.389680e+01
   3.961113e+02   5.268810e+02
  -2.959153e+02   5.756038e+02
  -6.104722e+02   2.265619e+02
  -4.514679e+02  -2.510836e+02
  -6.863776e+01  -5.285670e+02
   2.469713e+02  -3.149948e+02
   2.274317e+02   2.586923e+02
  -1.696943e+02   5.202391e+02
  -5.222145e+02   9.023974e+00
  -3.093188e+02  -7.515698e+02
   3.463691e+02  -7.889134e+02
   6.920522e+02  -3.755041e+00
   3.010346e+02   6.316710e+02
  -3.367522e+02   3.732816e+02
  -4.509581e+02  -3.476399e+02
   5.709418e+01  -6.039714e+02
   5.986745e+02  -1.625765e+02
   6.409152e+02   4.242567e+02
   1.758131e+02   6.232781e+02
  -4.128024e+02   3.769980e+02
  -6.753365e+02  -7.622030e+01
  -3.938984e+02  -4.264762e+02
   1.854039e+02  -4.096368e+02
   4.947547e+02  -5.083384e+01
   2.536998e+02   2.436494e+02
  -1.554525e+02   1.310286e+02
  -1.723715e+02  -1.863041e+02
   1.871728e+02  -2.266472e+02
   3.891399e+02   8.220320e+01
   1.507147e+02   3.356882e+02
  -2.225627e+02   2.701069e+02
  -3.351746e+02   5.947014e+01
  -1.819480e+02  -8.238269e+01
   2.471292e+01  -2.008312e+02
   2.003668e+02  -3.228647e+02
   3.334868e+02  -2.428466e+02
   3.153875e+02   1.286694e+02
   9.412271e+01   4.662770e+02
  -1.358344e+02   4.127780e+02
  -1.497341e+02   1.001904e+02
  -2.235366e+01  -4.349190e+01
  -1.563365e+01   8.214187e+01
  -1.819974e+02   1.572350e+02
  -2.971174e+02  -3.029090e+01
  -1.869611e+02  -2.782859e+02
   6.287716e+01  -2.827657e+02
   2.439826e+02  -2.921131e+01
   2.242169e+02   2.429350e+02
   4.427402e+00   3.151844e+02
  -2.768306e+02   1.389312e+02
  -3.868454e+02  -1.645777e+02
  -2.010260e+02  -3.715412e+02
   1.109631e+02  -3.268735e+02
   2.474299e+02  -1.175463e+02
   1.547085e+02   1.377798e+01
   8.634019e+01  -2.739668e+01
   2.239895e+02  -7.728389e+01
   4.053762e+02   4.117276e+01
   3.454948e+02   2.810265e+02
   1.087566e+01   4.516826e+02
  -3.534275e+02   4.301385e+02
  -4.964497e+02   2.192532e+02
  -3.584831e+02  -8.824532e+01
  -7.001171e+01  -3.121852e+02
   1.403518e+02  -2.762512e+02
   1.038472e+02  -2.865963e+01
  -1.092320e+02   1.317870e+02
  -2.211243e+02   5.515031e+00
  -6.650835e+01  -2.167617e+02
   1.768644e+02  -1.982265e+02
   2.053540e+02   6.262741e+01
  -1.224059e+01   2.166575e+02
  -2.088339e+02   4.596043e+01
  -1.739647e+02  -2.545581e+02
   3.111450e+01  -3.581902e+02
   2.284208e+02  -1.939107e+02
   3.218233e+02   5.988137e+01
   2.840923e+02   2.305060e+02
   1.103315e+02   2.627367e+02
  -1.082557e+02   1.709134e+02
  -1.890904e+02   2.833637e+01
  -6.781521e+01  -3.804940e+01
   7.772026e+01   3.132802e+01
   4.234910e+01   1.309963e+02
  -1.251770e+02   1.141883e+02
  -1.926119e+02  -6.038546e+00
  -6.900690e+01  -7.911804e+01
   8.067197e+01  -2.751106e+01
   6.274027e+01   6.684907e+01
  -1.151901e+02   8.919363e+01
  -2.783340e+02   1.073727e+01
  -2.703183e+02  -1.274487e+02
  -7.540386e+01  -2.545455e+02
   1.752151e+02  -2.764072e+02
   2.913196e+02  -1.425340e+02
   1.847808e+02   5.202266e+01
  -2.164180e+01   1.227505e+02
  -1.017418e+02   1.418447e+01
   2.479577e+01  -1.111713e+02
   2.019064e+02  -7.241726e+01
   2.274134e+02   1.004479e+02
   7.831542e+01   2.174679e+02
  -9.571069e+01   1.700501e+02
  -1.528568e+02   3.589291e+01
  -8.093697e+01  -4.334953e+01
   2.322370e+01  -1.229612e+01
   4.300825e+01   7.379195e+01
  -6.096932e+01   1.132948e+02
  -1.945320e+02   3.852730e+01
  -1.991576e+02  -1.171273e+02
  -2.918506e+01  -2.238839e+02
   1.673821e+02  -1.742093e+02
   2.042266e+02  -7.837662e+00
   7.182253e+01   1.228265e+02
  -6.811869e+01   1.206544e+02
  -8.927864e+01   3.457332e+01
  -2.555854e+01  -2.685297e+01
   1.597454e+01  -2.302412e+01
  -9.619979e+00   1.819549e+00
  -6.462711e+01  -1.096528e+01
  -8.391601e+01  -7.678796e+01
  -1.967029e+01  -1.521792e+02
   1.178424e+02  -1.552102e+02
   2.328599e+02  -3.614306e+01
   2.097539e+02   1.442088e+02
   4.835279e+01   2.421562e+02
  -1.102214e+02   1.774751e+02
  -1.396285e+02   2.843638e+01
  -7.104558e+01  -5.933666e+01
  -2.743865e+01  -3.824870e+01
  -5.272537e+01   1.232447e+01
  -7.723331e+01   7.655675e+00
  -3.774494e+01  -4.615676e+01
   4.146488e+01  -8.212757e+01
   9.411681e+01  -5.296704e+01
   7.864736e+01   3.020642e+01
  -9.550694e+00   1.037267e+02
  -1.321210e+02   8.770715e+01
  -1.958601e+02  -4.150726e+01
  -1.109661e+02  -1.962532e+02
   9.553773e+01  -2.349504e+02
   2.669989e+02  -1.075958e+02
   2.664434e+02   8.030405e+01
   1.179942e+02   1.795229e+02
  -3.617845e+01   1.529677e+02
  -9.641894e+01   8.809240e+01
  -8.251574e+01   7.105214e+01
  -6.883991e+01   9.108540e+01
  -9.232671e+01   7.395268e+01
  -1.278858e+02  -2.144578e+01
  -1.201508e+02  -1.530389e+02
  -3.471368e+01  -2.272204e+02
   9.592119e+01  -1.772539e+02
   1.786168e+02  -2.705288e+01
   1.433286e+02   1.185437e+02
   2.566366e+01   1.620280e+02
  -6.360059e+01   9.861153e+01
  -6.003747e+01   7.084544e+00
  -9.016979e+00  -3.915157e+01
   4.167739e+00  -3.485406e+01
  -3.954901e+01  -2.027443e+01
  -7.783957e+01  -2.322490e+01
  -4.358786e+01  -3.680282e+01
   5.987998e+01  -3.716283e+01
   1.527933e+02  -7.674583e+00
   1.444225e+02   4.475225e+01
   2.275780e+01   8.571584e+01
  -1.148427e+02   7.686860e+01
  -1.455746e+02   1.875071e+01
  -5.109654e+01  -3.711401e+01
   5.961075e+01  -3.630539e+01
   7.559717e+01   1.810069e+01
   5.045928e+00   6.622757e+01
  -5.808247e+01   5.579201e+01
  -6.149546e+01  -2.540644e+00
  -4.023735e+01  -4.887836e+01
  -4.261889e+01  -4.064174e+01
  -6.355627e+01  -1.771049e+00
  -6.673670e+01   4.593862e-01
  -3.322093e+01  -6.521791e+01
   3.247808e+01  -1.435769e+02
   1.108898e+02  -1.416751e+02
   1.580594e+02  -3.617381e+01
   1.222389e+02   8.768937e+01
   1.034025e+01   1.238313e+02
  -8.250750e+01   6.037653e+01
  -5.924046e+01  -1.550656e+01
   5.923220e+01  -2.076128e+01
   1.396916e+02   4.221293e+01
   7.968184e+01   1.069309e+02
  -7.809884e+01   1.152552e+02
  -1.916382e+02   5.795659e+01
  -1.661685e+02  -2.898029e+01
  -4.118319e+01  -8.715635e+01
   5.913476e+01  -7.478311e+01
   4.956244e+01  -1.115568e+01
  -3.771139e+01   2.615316e+01
  -9.013854e+01  -2.213143e+01
  -3.224682e+01  -1.191453e+02
   9.341748e+01  -1.548032e+02
   1.698816e+02  -6.164309e+01
   1.281015e+02   1.021051e+02
   1.092403e+01   1.994600e+02
  -8.494585e+01   1.469597e+02
  -1.054162e+02  -3.468102e+00
  -6.474888e+01  -1.167166e+02
  -3.723414e+00  -1.085889e+02
   4.384842e+01  -2.314370e+01
   5.502928e+01   3.036435e+01
   2.928788e+01   9.014377e+00
   3.063307e+00  -2.184815e+01
   1.766953e+01   1.225697e+01
   5.646004e+01   8.730244e+01
   4.711810e+01   1.110109e+02
  -4.323826e+01   4.736950e+01
  -1.400281e+02  -3.853824e+01
  -1.337670e+02  -7.022738e+01
  -1.815909e+01  -4.831572e+01
   9.035474e+01  -2.183275e+01
   8.925438e+01  -9.520665e+00
   8.817913e+00   5.482567e+00
  -3.986966e+01   2.307460e+01
  -1.224941e+01   2.053267e+01
   2.362732e+01  -6.711212e-01
  -6.725682e+00  -1.038561e+01
  -7.697767e+01  -5.112666e+00
  -9.126158e+01  -2.359699e+01
  -4.630654e+00  -7.946751e+01
   1.212308e+02  -1.136682e+02
   1.837752e+02  -5.756218e+01
   1.380502e+02   6.874322e+01
   2.493625e+01   1.625064e+02
  -7.679102e+01   1.488080e+02
  -1.124245e+02   5.716652e+01
  -8.075066e+01  -2.160668e+01
  -2.477530e+01  -3.414951e+01
   4.684087e+00  -6.976437e+00
  -9.093310e+00  -2.235394e+00
  -3.473511e+01  -4.417387e+01
  -2.548453e+01  -8.951031e+01
   2.842684e+01  -7.184080e+01
   8.213762e+01   1.910637e+01
   7.676763e+01   1.098689e+02
   1.679493e+00   1.124305e+02
  -8.450954e+01   2.127926e+01
  -1.023030e+02  -7.819390e+01
  -2.999717e+01  -1.030442e+02
   6.655088e+01  -5.290470e+01
   9.554119e+01   1.235296e+01
   3.743530e+01   4.733003e+01
  -3.139561e+01   4.849254e+01
  -2.779143e+01   2.832153e+01
   3.664756e+01   1.441833e+00
   6.945517e+01  -6.458190e+00
   1.394229e+01   2.403777e+01
  -7.879778e+01   6.677024e+01
  -1.131012e+02   6.170559e+01
  -6.132742e+01  -9.322798e+00
   1.578846e+01  -8.221245e+01
   5.030077e+01  -7.852045e+01
   3.380610e+01  -3.619637e+00
  -2.317722e-01   5.689461e+01
  -2.594457e+01   4.099654e+01
  -3.608693e+01  -2.083276e+01
  -2.618995e+01  -5.370206e+01
   3.090658e+00  -3.024934e+01
   3.291945e+01   9.515689e+00
   3.905949e+01   1.906805e+01
   2.058491e+01  -4.269900e-01
   1.233384e-01  -1.197675e+01
  -7.163847e+00   7.053070e+00
  -1.007151e+01   3.790136e+01
  -2.128644e+01   4.153149e+01
  -3.358204e+01   2.784362e+00
  -2.651394e+01  -4.790767e+01
   6.871965e+00  -6.083085e+01
   4.575605e+01  -1.887559e+01
   5.426472e+01   4.080964e+01
   1.299021e+01   6.368164e+01
  -5.372524e+01   3.359027e+01
  -8.699586e+01  -1.611528e+01
  -4.856832e+01  -4.385456e+01
   2.840308e+01  -3.911030e+01
   6.409650e+01  -1.934038e+01
   2.239735e+01  -4.357530e+00
  -4.011804e+01  -4.160946e+00
  -3.895306e+01  -1.882142e+01
   3.324160e+01  -3.322249e+01
   9.535469e+01  -1.944122e+01
