
 $NMID
 id='ANONYMOUS ', fmtdat='(2E16.6)'
 volume=1.0
 tramp=1.0
 $END
   3.395404e+03   6.721770e+01
   2.032198e+03   1.899522e+03
  -3.387237e+02   2.079306e+03
  -1.436402e+03   9.150458e+02
  -7.759475e+02  -1.608554e+02
   2.884963e+02  -2.736913e+02
   5.211514e+02   2.740936e+02
  -1.787931e+01   7.070466e+02
  -5.763985e+02   5.798214e+02
  -6.887724e+02  -1.556703e+01
  -3.725095e+02  -6.048833e+02
   1.112806e+02  -6.657462e+02
   4.050699e+02  -1.125950e+02
   2.583672e+02   5.128961e+02
  -1.806516e+02   5.654190e+02
  -4.425001e+02   2.315542e+01
  -2.485053e+02  -5.158582e+02
   1.879003e+02  -5.527520e+02
   4.513376e+02  -1.692708e+02
   3.642200e+02   2.210337e+02
   6.993692e+01   3.462858e+02
  -1.582916e+02   2.211556e+02
  -1.171077e+02   3.408514e+01
   1.536716e+02   3.102386e+00
   3.226440e+02   1.906504e+02
   7.368865e+01   3.759974e+02
  -4.421255e+02   2.585276e+02
  -6.622792e+02  -1.376618e+02
  -2.755522e+02  -4.228037e+02
   3.447599e+02  -2.985626e+02
   5.667527e+02   9.554668e+01
   2.306649e+02   3.909271e+02
  -2.570575e+02   3.887075e+02
  -4.634629e+02   1.424354e+02
  -3.269265e+02  -1.777202e+02
  -5.934345e+01  -3.478707e+02
   1.057850e+02  -1.941140e+02
   4.329937e+01   1.548406e+02
  -1.800637e+02   2.646853e+02
  -2.992662e+02  -9.583486e+01
  -9.920571e+01  -5.467047e+02
   2.738503e+02  -5.062966e+02
   4.141552e+02   1.960255e+01
   1.505077e+02   3.975652e+02
  -2.106606e+02   1.921448e+02
  -2.457300e+02  -2.844232e+02
   9.277483e+01  -4.238336e+02
   4.549137e+02  -8.026642e+01
   4.858835e+02   3.549256e+02
   1.425121e+02   4.850745e+02
  -3.092017e+02   2.712880e+02
  -5.146361e+02  -6.571531e+01
  -3.131804e+02  -2.825557e+02
   9.695185e+01  -2.548270e+02
   3.228322e+02  -5.346332e+01
   1.922452e+02   9.647217e+01
  -5.347031e+01   4.534597e+01
  -7.592025e+01  -9.614293e+01
   1.280598e+02  -1.030228e+02
   2.548015e+02   6.201417e+01
   1.127531e+02   2.195625e+02
  -1.573425e+02   2.250003e+02
  -2.972942e+02   1.018665e+02
  -2.130263e+02  -7.316216e+01
   7.990966e+00  -2.486081e+02
   2.268120e+02  -3.241848e+02
   3.232145e+02  -1.771341e+02
   2.405190e+02   1.384658e+02
   5.419124e+01   3.594666e+02
  -6.847876e+01   3.085247e+02
  -5.428184e+01   1.214907e+02
  -1.446150e+01   4.738647e+01
  -8.032384e+01   1.031554e+02
  -2.092350e+02   8.961964e+01
  -2.417026e+02  -8.097450e+01
  -1.125919e+02  -2.438106e+02
   8.018398e+01  -2.046553e+02
   1.935191e+02   1.676226e+01
   1.514095e+02   2.237158e+02
  -2.911525e+01   2.486640e+02
  -2.355049e+02   7.992607e+01
  -3.025595e+02  -1.553227e+02
  -1.582201e+02  -2.914631e+02
   6.751358e+01  -2.532275e+02
   1.711112e+02  -1.215426e+02
   1.264663e+02  -4.210504e+01
   1.091954e+02  -5.419835e+01
   2.344645e+02  -5.275690e+01
   3.711724e+02   6.424999e+01
   2.984487e+02   2.607009e+02
  -8.417791e+00   3.991858e+02
  -3.320749e+02   3.708063e+02
  -4.364340e+02   1.724744e+02
  -2.812245e+02  -8.934436e+01
  -3.066573e+01  -2.479667e+02
   1.032463e+02  -1.988618e+02
   3.892738e+01  -2.358523e+01
  -1.092536e+02   6.677189e+01
  -1.490980e+02  -2.599313e+01
  -2.117301e+01  -1.551544e+02
   1.301284e+02  -1.196695e+02
   1.280536e+02   5.677043e+01
  -2.592361e+01   1.459693e+02
  -1.629442e+02   1.218311e+01
  -1.429851e+02  -2.169561e+02
   1.988867e+01  -3.104952e+02
   2.095452e+02  -1.849633e+02
   3.098837e+02   4.878355e+01
   2.564517e+02   2.236021e+02
   7.304210e+01   2.461595e+02
  -1.106022e+02   1.379737e+02
  -1.489975e+02   1.031129e+01
  -3.981429e+01  -2.244924e+01
   5.697901e+01   4.745994e+01
   1.036485e+01   1.111030e+02
  -1.150039e+02   7.523582e+01
  -1.476920e+02  -2.035469e+01
  -3.816729e+01  -5.971386e+01
   7.674296e+01  -1.775727e+00
   4.489573e+01   7.737396e+01
  -1.227503e+02   8.326986e+01
  -2.665859e+02  -5.513238e+00
  -2.395956e+02  -1.391230e+02
  -4.198685e+01  -2.371725e+02
   1.782345e+02  -2.269507e+02
   2.509040e+02  -1.006422e+02
   1.376356e+02   4.592097e+01
  -2.745371e+01   8.462706e+01
  -7.069852e+01  -1.198536e+00
   4.109423e+01  -8.410923e+01
   1.739648e+02  -4.152083e+01
   1.813777e+02   9.409111e+01
   5.573956e+01   1.787553e+02
  -8.351191e+01   1.319103e+02
  -1.219042e+02   1.935663e+01
  -5.146809e+01  -3.726137e+01
   3.532261e+01   7.132467e+00
   3.308743e+01   8.906486e+01
  -7.520442e+01   1.085053e+02
  -1.867414e+02   2.191039e+01
  -1.709600e+02  -1.158814e+02
  -1.515690e+01  -1.931890e+02
   1.443248e+02  -1.420855e+02
   1.648877e+02  -7.662804e+00
   5.272598e+01   9.417024e+01
  -5.858724e+01   9.265985e+01
  -6.904322e+01   2.391141e+01
  -8.201442e+00  -2.489780e+01
   2.830828e+01  -1.415648e+01
  -5.979621e+00   1.609927e+01
  -7.152146e+01   6.920762e-01
  -9.038043e+01  -7.540633e+01
  -1.582727e+01  -1.517911e+02
   1.200051e+02  -1.415948e+02
   2.147898e+02  -1.887728e+01
   1.800854e+02   1.384265e+02
   3.701764e+01   2.096919e+02
  -9.382250e+01   1.483389e+02
  -1.184255e+02   2.713912e+01
  -6.446024e+01  -4.317352e+01
  -2.798046e+01  -2.789343e+01
  -4.882807e+01   1.305701e+01
  -7.577167e+01   8.133781e+00
  -4.675769e+01  -4.628482e+01
   3.339964e+01  -8.881974e+01
   1.002949e+02  -6.025073e+01
   8.970033e+01   3.261879e+01
  -1.011115e+01   1.101605e+02
  -1.372631e+02   8.439015e+01
  -1.848141e+02  -4.977014e+01
  -8.673110e+01  -1.883214e+02
   1.033640e+02  -2.063295e+02
   2.417444e+02  -8.250631e+01
   2.270198e+02   7.842194e+01
   9.431340e+01   1.555528e+02
  -3.513290e+01   1.285503e+02
  -8.167915e+01   7.396058e+01
  -6.565843e+01   6.248564e+01
  -5.423847e+01   8.348493e+01
  -8.051791e+01   7.051451e+01
  -1.170175e+02  -1.576549e+01
  -1.086390e+02  -1.368810e+02
  -2.784030e+01  -2.033243e+02
   8.833648e+01  -1.535740e+02
   1.562347e+02  -1.524938e+01
   1.198429e+02   1.120630e+02
   1.364154e+01   1.430355e+02
  -6.517552e+01   7.903901e+01
  -5.737512e+01  -6.019043e+00
  -1.821816e+00  -4.511394e+01
   1.717804e+01  -3.402161e+01
  -2.746819e+01  -1.383828e+01
  -7.370214e+01  -1.623292e+01
  -4.375893e+01  -3.414587e+01
   6.138272e+01  -3.681236e+01
   1.508514e+02  -4.112719e+00
   1.316719e+02   5.054344e+01
   7.858662e+00   8.634966e+01
  -1.148632e+02   6.958892e+01
  -1.316591e+02   9.782696e+00
  -4.314395e+01  -4.160594e+01
   5.273686e+01  -3.781050e+01
   6.960243e+01   1.530009e+01
   1.445980e+01   6.279685e+01
  -4.330222e+01   5.586747e+01
  -5.921338e+01   2.093393e+00
  -4.763811e+01  -4.303511e+01
  -4.224844e+01  -3.730232e+01
  -5.203117e+01  -1.737082e+00
  -5.893608e+01  -7.609312e-02
  -3.805241e+01  -6.174684e+01
   2.349429e+01  -1.344718e+02
   1.069280e+02  -1.322465e+02
   1.557584e+02  -3.437762e+01
   1.164903e+02   8.121824e+01
   6.227999e+00   1.176181e+02
  -7.899040e+01   6.149769e+01
  -5.482991e+01  -1.004812e+01
   5.223226e+01  -1.904154e+01
   1.218869e+02   3.657537e+01
   6.665738e+01   9.549897e+01
  -7.292858e+01   1.006039e+02
  -1.707444e+02   4.470590e+01
  -1.441128e+02  -3.271944e+01
  -3.088760e+01  -7.737192e+01
   5.667440e+01  -5.948336e+01
   4.479360e+01  -2.722535e+00
  -3.462009e+01   2.710861e+01
  -8.244642e+01  -1.691043e+01
  -3.477652e+01  -1.035034e+02
   7.284856e+01  -1.392455e+02
   1.429882e+02  -6.179210e+01
   1.140276e+02   8.321900e+01
   1.490169e+01   1.733724e+02
  -7.309723e+01   1.282091e+02
  -9.416045e+01  -7.053840e+00
  -5.342800e+01  -1.068511e+02
   6.491550e+00  -9.505484e+01
   4.455352e+01  -1.662203e+01
   4.378706e+01   2.865810e+01
   1.851771e+01   7.876898e+00
   4.650078e+00  -1.717981e+01
   2.454005e+01   1.516863e+01
   5.251905e+01   7.908830e+01
   3.356170e+01   9.648045e+01
  -4.640034e+01   4.089438e+01
  -1.228964e+02  -3.248909e+01
  -1.135687e+02  -6.177779e+01
  -1.736058e+01  -4.602161e+01
   7.414400e+01  -2.218222e+01
   7.832969e+01  -6.917924e+00
   1.376145e+01   7.792654e+00
  -3.217996e+01   1.960308e+01
  -1.583613e+01   1.439835e+01
   1.543112e+01  -2.102983e+00
  -3.340720e+00  -6.603006e+00
  -6.197180e+01  -7.269726e-01
  -8.286076e+01  -1.852648e+01
  -1.589164e+01  -7.043389e+01
   9.790538e+01  -1.049159e+02
   1.654807e+02  -6.007567e+01
   1.326677e+02   5.182239e+01
   2.894628e+01   1.423067e+02
  -6.817840e+01   1.385130e+02
  -1.016119e+02   5.845469e+01
  -7.222298e+01  -1.664172e+01
  -2.406463e+01  -3.241559e+01
  -8.658833e-01  -9.415125e+00
  -1.167626e+01  -5.271791e+00
  -2.936377e+01  -4.252569e+01
  -1.944572e+01  -8.143321e+01
   2.493879e+01  -6.472842e+01
   7.106168e+01   1.365839e+01
   7.153699e+01   9.167252e+01
   1.079991e+01   9.806021e+01
  -6.824276e+01   2.614226e+01
  -9.355427e+01  -5.973866e+01
  -3.474278e+01  -9.070059e+01
   5.596010e+01  -5.522237e+01
   9.036739e+01   5.814460e+00
   4.035734e+01   4.755443e+01
  -2.787949e+01   5.225510e+01
  -3.195457e+01   2.749466e+01
   2.562613e+01  -2.835861e+00
   6.107651e+01  -8.307978e+00
   1.588121e+01   2.284557e+01
  -6.934570e+01   6.012625e+01
  -1.058678e+02   5.240985e+01
  -6.180845e+01  -1.115478e+01
   1.116567e+01  -7.533652e+01
   4.807032e+01  -7.460819e+01
   3.619853e+01  -1.053230e+01
   4.873495e+00   4.730892e+01
  -2.040439e+01   4.132745e+01
  -3.205777e+01  -1.147406e+01
  -2.578081e+01  -4.741082e+01
  -1.067753e-01  -3.274672e+01
   2.944195e+01   5.143722e+00
   3.764942e+01   2.002459e+01
   1.906687e+01   2.520910e+00
  -3.300194e+00  -1.519459e+01
  -7.470444e+00  -3.147589e+00
  -4.031040e-01   2.901191e+01
  -4.936454e+00   4.239451e+01
  -2.404003e+01   1.415657e+01
  -3.210304e+01  -3.302906e+01
  -6.913130e+00  -5.193176e+01
   3.655348e+01  -2.137294e+01
   5.367275e+01   2.994625e+01
   1.649204e+01   5.401813e+01
  -4.918832e+01   3.280779e+01
  -8.151442e+01  -9.388919e+00
  -4.557953e+01  -3.778894e+01
   2.422338e+01  -3.947793e+01
   5.691937e+01  -2.397718e+01
   2.374640e+01  -6.521754e+00
  -2.801819e+01   4.582208e-01
  -3.060752e+01  -9.044510e+00
   2.372962e+01  -2.448141e+01
   7.428297e+01  -1.837036e+01
