
 $NMID
 id='ANONYMOUS ', fmtdat='(2E16.6)'
 volume=1.0
 tramp=1.0
 $END
   2.934014e+03  -6.090450e+01
   2.028649e+03   1.426958e+03
   1.155249e+02   1.904688e+03
  -1.108396e+03   1.247413e+03
  -9.373771e+02   2.583578e+02
  -1.076648e+02  -2.028013e+02
   3.285336e+02   3.448475e+01
   9.204856e+01   4.795847e+02
  -3.751277e+02   5.551075e+02
  -5.929807e+02   1.195774e+02
  -4.287728e+02  -4.450094e+02
  -4.466490e+01  -6.053496e+02
   2.625927e+02  -2.038681e+02
   2.437816e+02   3.552628e+02
  -7.791102e+01   5.027509e+02
  -3.682972e+02   9.813577e+01
  -2.979916e+02  -4.381226e+02
   9.409656e+01  -5.942961e+02
   4.369682e+02  -2.826961e+02
   4.295166e+02   1.498122e+02
   1.399933e+02   3.375671e+02
  -1.015421e+02   2.375730e+02
  -6.093525e+01   8.767358e+01
   1.617903e+02   1.056022e+02
   2.390331e+02   2.583446e+02
  -2.188813e+01   3.184144e+02
  -4.219060e+02   1.375627e+02
  -5.408915e+02  -1.629918e+02
  -2.064070e+02  -3.110766e+02
   2.770262e+02  -1.759027e+02
   4.453349e+02   1.116375e+02
   1.743643e+02   3.192050e+02
  -2.304300e+02   3.170842e+02
  -4.098823e+02   1.241265e+02
  -2.983896e+02  -1.360685e+02
  -9.076908e+01  -2.782518e+02
   1.147503e+01  -1.752948e+02
  -4.039166e+01   6.360249e+01
  -1.503246e+02   1.307366e+02
  -1.672340e+02  -1.230547e+02
  -1.372628e+01  -4.325831e+02
   2.097138e+02  -3.987209e+02
   2.868692e+02  -1.777500e+01
   1.201593e+02   2.690144e+02
  -1.201082e+02   1.287537e+02
  -1.536600e+02  -2.346252e+02
   9.635894e+01  -3.481255e+02
   3.998362e+02  -5.615478e+01
   4.462916e+02   3.336006e+02
   1.506678e+02   4.522599e+02
  -2.656737e+02   2.496593e+02
  -4.731629e+02  -4.889734e+01
  -3.224271e+02  -2.212124e+02
   2.666737e+01  -2.089422e+02
   2.586235e+02  -9.017534e+01
   2.101154e+02   1.321989e+01
   2.116619e+01   2.400951e+01
  -4.626285e+01  -3.149358e+01
   7.908385e+01  -5.052609e+01
   2.046581e+02   3.354149e+01
   1.220905e+02   1.695938e+02
  -1.343337e+02   2.313638e+02
  -3.218610e+02   1.328966e+02
  -2.521745e+02  -9.375416e+01
   2.355150e+01  -3.063426e+02
   2.817406e+02  -3.405848e+02
   3.418584e+02  -1.440213e+02
   2.122151e+02   1.504322e+02
   4.712788e+01   3.260832e+02
  -2.350638e+01   2.936715e+02
  -1.535758e+01   1.690236e+02
  -3.750468e+01   1.069705e+02
  -1.370695e+02   1.052648e+02
  -2.333819e+02   4.197574e+01
  -2.169527e+02  -1.161539e+02
  -7.792013e+01  -2.346631e+02
   8.795074e+01  -1.715768e+02
   1.710261e+02   4.152102e+01
   1.186237e+02   2.237214e+02
  -4.629514e+01   2.251255e+02
  -2.239457e+02   5.309151e+01
  -2.793409e+02  -1.583705e+02
  -1.564728e+02  -2.709891e+02
   4.184666e+01  -2.443732e+02
   1.509396e+02  -1.482694e+02
   1.396944e+02  -8.056786e+01
   1.435481e+02  -6.425024e+01
   2.609388e+02  -2.976888e+01
   3.803120e+02   9.332391e+01
   2.944814e+02   2.777404e+02
  -2.604144e+01   4.041762e+02
  -3.561467e+02   3.639418e+02
  -4.423560e+02   1.576083e+02
  -2.603801e+02  -9.246498e+01
  -1.568948e+01  -2.270617e+02
   8.138986e+01  -1.788020e+02
   4.672751e+00  -3.823938e+01
  -1.066836e+02   3.026589e+01
  -1.127234e+02  -3.541067e+01
  -5.488820e+00  -1.241551e+02
   1.012780e+02  -9.197548e+01
   9.475079e+01   4.505059e+01
  -2.507903e+01   1.147462e+02
  -1.445755e+02  -2.158544e+00
  -1.390231e+02  -2.160715e+02
   1.778396e+01  -3.166061e+02
   2.266950e+02  -1.936978e+02
   3.354785e+02   5.911209e+01
   2.577854e+02   2.477580e+02
   5.121363e+01   2.555964e+02
  -1.214004e+02   1.269663e+02
  -1.366387e+02   4.164267e+00
  -3.052456e+01  -1.017574e+01
   4.417349e+01   5.912125e+01
  -7.449479e+00   1.030084e+02
  -1.143087e+02   5.729588e+01
  -1.318641e+02  -2.616393e+01
  -2.624636e+01  -4.823517e+01
   7.569014e+01   1.580229e+01
   3.257284e+01   8.901765e+01
  -1.423290e+02   8.049870e+01
  -2.827125e+02  -2.537477e+01
  -2.365659e+02  -1.638214e+02
  -1.986217e+01  -2.447351e+02
   1.963639e+02  -2.120155e+02
   2.469683e+02  -8.500595e+01
   1.235990e+02   4.132640e+01
  -2.775583e+01   6.816090e+01
  -5.569463e+01  -5.591229e+00
   5.184089e+01  -7.066338e+01
   1.694348e+02  -2.665152e+01
   1.702590e+02   9.672598e+01
   4.982182e+01   1.712751e+02
  -8.131834e+01   1.223558e+02
  -1.129339e+02   1.392047e+01
  -3.930711e+01  -3.227424e+01
   4.061887e+01   2.414969e+01
   2.238009e+01   1.062163e+02
  -9.529836e+01   1.095446e+02
  -1.981615e+02   7.476255e+00
  -1.668339e+02  -1.279545e+02
  -7.254511e+00  -1.921953e+02
   1.441200e+02  -1.370357e+02
   1.591793e+02  -1.074859e+01
   4.997018e+01   8.461526e+01
  -5.615761e+01   8.549907e+01
  -6.265940e+01   2.212173e+01
   1.818098e+00  -2.215624e+01
   3.681997e+01  -5.811039e+00
  -8.992709e+00   2.680861e+01
  -8.605687e+01   2.341959e+00
  -1.002438e+02  -8.844598e+01
  -7.995441e+00  -1.670060e+02
   1.369228e+02  -1.418921e+02
   2.227626e+02  -5.099907e+00
   1.761460e+02   1.502222e+02
   3.262447e+01   2.111278e+02
  -9.338999e+01   1.463712e+02
  -1.191963e+02   2.905066e+01
  -6.942935e+01  -3.953044e+01
  -3.256883e+01  -2.619344e+01
  -5.241107e+01   1.350777e+01
  -8.326431e+01   5.987454e+00
  -5.461326e+01  -5.576742e+01
   3.816135e+01  -1.024371e+02
   1.191048e+02  -6.429308e+01
   1.032495e+02   4.463478e+01
  -1.848587e+01   1.246868e+02
  -1.576630e+02   8.320020e+01
  -1.928672e+02  -6.576454e+01
  -7.448963e+01  -2.009430e+02
   1.210582e+02  -2.038292e+02
   2.492988e+02  -7.130667e+01
   2.240761e+02   8.600010e+01
   8.897688e+01   1.558906e+02
  -3.792681e+01   1.260969e+02
  -8.132495e+01   7.325503e+01
  -6.331631e+01   6.518735e+01
  -5.330521e+01   8.888122e+01
  -8.440846e+01   7.501082e+01
  -1.234718e+02  -1.684535e+01
  -1.107672e+02  -1.437611e+02
  -2.316979e+01  -2.098589e+02
   9.419405e+01  -1.532950e+02
   1.568868e+02  -8.256891e+00
   1.147573e+02   1.194460e+02
   6.099523e+00   1.441766e+02
  -7.149960e+01   7.217287e+01
  -5.800882e+01  -1.639279e+01
   5.952361e+00  -5.147071e+01
   2.800614e+01  -3.280142e+01
  -2.424634e+01  -9.640878e+00
  -7.994956e+01  -1.627377e+01
  -4.743541e+01  -3.827086e+01
   7.029120e+01  -3.705850e+01
   1.645671e+02   4.311271e+00
   1.338446e+02   6.215854e+01
  -4.396906e+00   9.210860e+01
  -1.281881e+02   6.697072e+01
  -1.352193e+02   2.846756e+00
  -3.975250e+01  -4.852994e+01
   5.637401e+01  -4.186737e+01
   7.327956e+01   1.701718e+01
   1.935200e+01   7.044758e+01
  -4.182076e+01   6.348569e+01
  -6.531475e+01   2.774236e+00
  -5.636573e+01  -4.829773e+01
  -4.547845e+01  -4.113808e+01
  -5.057424e+01  -1.374166e+00
  -6.030795e+01  -1.187547e+00
  -4.275656e+01  -6.919761e+01
   2.474006e+01  -1.442607e+02
   1.195517e+02  -1.362740e+02
   1.716935e+02  -2.997570e+01
   1.229466e+02   8.992051e+01
   4.245223e-01   1.253504e+02
  -8.835101e+01   6.562994e+01
  -5.886123e+01  -9.367840e+00
   5.399085e+01  -1.932413e+01
   1.237615e+02   3.824228e+01
   6.431072e+01   9.845277e+01
  -7.843068e+01   1.002534e+02
  -1.748085e+02   3.881872e+01
  -1.435117e+02  -3.944149e+01
  -2.688471e+01  -7.841194e+01
   5.993364e+01  -5.457283e+01
   4.454040e+01   2.847801e+00
  -3.794308e+01   2.961545e+01
  -8.701431e+01  -1.754696e+01
  -3.897936e+01  -1.073682e+02
   7.093379e+01  -1.464100e+02
   1.450104e+02  -6.844628e+01
   1.185136e+02   8.253805e+01
   1.727854e+01   1.777549e+02
  -7.495200e+01   1.300553e+02
  -9.600836e+01  -1.146502e+01
  -4.975417e+01  -1.117076e+02
   1.417729e+01  -9.394290e+01
   4.865890e+01  -1.218203e+01
   4.078610e+01   2.977405e+01
   1.403366e+01   6.084630e+00
   5.662095e+00  -1.557595e+01
   2.961023e+01   2.143363e+01
   5.398407e+01   8.394014e+01
   2.824937e+01   9.598325e+01
  -5.331990e+01   3.825565e+01
  -1.255753e+02  -3.371780e+01
  -1.127041e+02  -6.337006e+01
  -1.707184e+01  -5.005979e+01
   7.346005e+01  -2.536890e+01
   7.966724e+01  -5.203504e+00
   1.710079e+01   1.191622e+01
  -3.102768e+01   2.006393e+01
  -1.865806e+01   1.058212e+01
   1.269625e+01  -4.571528e+00
  -2.376771e+00  -4.337748e+00
  -6.069349e+01   2.729091e+00
  -8.693830e+01  -1.925196e+01
  -2.312039e+01  -7.614212e+01
   9.709851e+01  -1.120410e+02
   1.754110e+02  -6.459451e+01
   1.451751e+02   5.223240e+01
   3.274301e+01   1.476172e+02
  -7.414267e+01   1.457704e+02
  -1.089287e+02   6.319824e+01
  -7.518960e+01  -1.668825e+01
  -2.502885e+01  -3.572215e+01
  -3.115962e+00  -1.331978e+01
  -1.334591e+01  -8.839680e+00
  -2.763207e+01  -4.595759e+01
  -1.611244e+01  -8.446228e+01
   2.672020e+01  -6.696235e+01
   7.268426e+01   1.238724e+01
   7.622940e+01   9.254722e+01
   1.631840e+01   1.026855e+02
  -6.829351e+01   3.268499e+01
  -1.000660e+02  -5.729674e+01
  -3.999180e+01  -9.575768e+01
   5.880297e+01  -6.237758e+01
   9.811242e+01   5.575080e+00
   4.389208e+01   5.531493e+01
  -3.220653e+01   5.944441e+01
  -3.880736e+01   2.721703e+01
   2.307141e+01  -7.300945e+00
   6.336177e+01  -9.511140e+00
   1.787256e+01   2.578291e+01
  -7.212027e+01   6.158708e+01
  -1.126499e+02   4.917407e+01
  -6.746030e+01  -1.648779e+01
   1.143120e+01  -7.976782e+01
   5.429801e+01  -7.829502e+01
   4.366874e+01  -1.330222e+01
   8.612150e+00   4.815345e+01
  -2.134254e+01   4.626670e+01
  -3.491566e+01  -7.656107e+00
  -2.757483e+01  -4.975614e+01
   2.414804e-01  -3.844240e+01
   3.134702e+01   3.615539e+00
   3.949742e+01   2.409936e+01
   1.925073e+01   5.030488e+00
  -4.071166e+00  -1.971192e+01
  -5.588806e+00  -9.897146e+00
   6.165563e+00   2.931898e+01
   1.873803e+00   5.134381e+01
  -2.460007e+01   2.364084e+01
  -4.101999e+01  -3.073233e+01
  -1.555074e+01  -5.603732e+01
   3.662051e+01  -2.570496e+01
   6.028646e+01   2.910054e+01
   2.018822e+01   5.564890e+01
  -5.298693e+01   3.456227e+01
  -8.804100e+01  -8.901265e+00
  -4.831132e+01  -3.954797e+01
   2.627484e+01  -4.370577e+01
   6.096767e+01  -2.831928e+01
   2.787566e+01  -6.966229e+00
  -2.505333e+01   5.046094e+00
  -3.101063e+01  -3.525342e+00
   1.948456e+01  -2.324185e+01
   7.020485e+01  -2.160125e+01
