
 $NMID
 id='ANONYMOUS ', fmtdat='(2E16.6)'
 volume=1.0
 tramp=1.0
 $END
   4.105234e+03  -1.343766e+02
   2.574675e+03   2.243534e+03
  -3.614850e+02   2.601471e+03
  -1.798755e+03   1.149803e+03
  -9.958137e+02  -2.776742e+02
   3.814278e+02  -4.455547e+02
   7.171922e+02   2.969889e+02
   4.232755e+01   8.996080e+02
  -6.862671e+02   7.570168e+02
  -8.611860e+02   6.206394e+00
  -4.895351e+02  -7.403294e+02
   1.197744e+02  -8.365164e+02
   5.205311e+02  -1.666386e+02
   3.642524e+02   6.176923e+02
  -1.947286e+02   7.078494e+02
  -5.513262e+02   4.827632e+01
  -3.209455e+02  -6.237681e+02
   2.287977e+02  -6.724620e+02
   5.558808e+02  -1.980695e+02
   4.421635e+02   2.763423e+02
   8.398350e+01   4.238199e+02
  -1.925215e+02   2.768958e+02
  -1.600591e+02   4.899439e+01
   1.529137e+02  -1.777578e+01
   3.830755e+02   1.793253e+02
   1.312970e+02   4.248151e+02
  -4.829492e+02   3.456342e+02
  -7.977271e+02  -1.031277e+02
  -3.792207e+02  -4.891574e+02
   3.751796e+02  -4.017546e+02
   6.864308e+02   5.860351e+01
   3.128633e+02   4.494726e+02
  -2.748243e+02   4.850197e+02
  -5.442544e+02   2.003632e+02
  -4.059101e+02  -1.974789e+02
  -9.404458e+01  -4.269458e+02
   1.294144e+02  -2.591782e+02
   9.444204e+01   1.751052e+02
  -1.732739e+02   3.485128e+02
  -3.712767e+02  -6.353284e+01
  -1.798894e+02  -6.370531e+02
   2.879058e+02  -6.397066e+02
   5.192903e+02  -1.733287e+01
   2.288993e+02   4.767728e+02
  -2.405862e+02   2.674421e+02
  -3.275857e+02  -3.107987e+02
   7.423485e+01  -5.135621e+02
   5.351485e+02  -1.284537e+02
   5.955250e+02   3.936761e+02
   1.911925e+02   5.727367e+02
  -3.559526e+02   3.443752e+02
  -6.184404e+02  -5.168609e+01
  -3.917500e+02  -3.342677e+02
   1.057394e+02  -3.288282e+02
   3.981348e+02  -8.394575e+01
   2.473243e+02   1.259801e+02
  -6.899560e+01   7.802316e+01
  -1.143332e+02  -1.141566e+02
   1.420769e+02  -1.473085e+02
   3.176284e+02   5.620022e+01
   1.512083e+02   2.652376e+02
  -1.827172e+02   2.745165e+02
  -3.492674e+02   1.181776e+02
  -2.405492e+02  -8.492476e+01
   1.279229e+01  -2.780773e+02
   2.496332e+02  -3.716850e+02
   3.617183e+02  -2.203738e+02
   2.892739e+02   1.449251e+02
   8.593341e+01   4.244623e+02
  -7.389493e+01   3.789293e+02
  -7.862097e+01   1.461365e+02
  -2.652343e+01   3.969860e+01
  -8.125280e+01   1.090437e+02
  -2.261749e+02   1.147880e+02
  -2.820919e+02  -7.415009e+01
  -1.492022e+02  -2.752153e+02
   7.723199e+01  -2.470473e+02
   2.255361e+02   2.822568e+00
   1.914214e+02   2.491253e+02
  -1.649429e+01   2.928659e+02
  -2.690282e+02   1.097730e+02
  -3.641163e+02  -1.654561e+02
  -2.015180e+02  -3.400479e+02
   7.279546e+01  -3.079335e+02
   2.071947e+02  -1.491351e+02
   1.545978e+02  -4.364001e+01
   1.228686e+02  -5.686913e+01
   2.629934e+02  -6.739763e+01
   4.291467e+02   5.977666e+01
   3.559479e+02   2.918300e+02
   5.810539e+00   4.637830e+02
  -3.711674e+02   4.421292e+02
  -5.017992e+02   2.188549e+02
  -3.363266e+02  -8.929257e+01
  -5.263602e+01  -2.900700e+02
   1.131082e+02  -2.463245e+02
   5.473190e+01  -3.523324e+01
  -1.171166e+02   8.935161e+01
  -1.800694e+02  -1.436949e+01
  -4.097640e+01  -1.829883e+02
   1.467164e+02  -1.573817e+02
   1.612893e+02   5.578470e+01
  -1.753505e+01   1.781080e+02
  -1.905557e+02   2.721317e+01
  -1.764108e+02  -2.490201e+02
   1.452491e+01  -3.648594e+02
   2.389147e+02  -2.185913e+02
   3.585051e+02   5.127468e+01
   3.025673e+02   2.498075e+02
   9.579026e+01   2.793434e+02
  -1.203932e+02   1.650891e+02
  -1.752727e+02   2.153834e+01
  -5.233658e+01  -2.478289e+01
   6.785760e+01   4.842230e+01
   2.126160e+01   1.270145e+02
  -1.280017e+02   9.572212e+01
  -1.755049e+02  -1.369884e+01
  -5.195791e+01  -6.779674e+01
   8.576513e+01  -8.134290e+00
   5.462145e+01   8.410594e+01
  -1.371148e+02   9.754521e+01
  -3.053810e+02   2.164162e+00
  -2.804705e+02  -1.499478e+02
  -5.953305e+01  -2.701211e+02
   1.944417e+02  -2.707679e+02
   2.879152e+02  -1.307030e+02
   1.669277e+02   4.638132e+01
  -2.503860e+01   1.031982e+02
  -8.461917e+01   5.668195e+00
   4.000158e+01  -9.985213e+01
   1.998946e+02  -5.860431e+01
   2.176103e+02   1.009110e+02
   7.464136e+01   2.078443e+02
  -9.145770e+01   1.600978e+02
  -1.427162e+02   3.022882e+01
  -6.518151e+01  -3.975001e+01
   3.643958e+01   5.492878e+00
   3.945952e+01   9.768576e+01
  -8.127572e+01   1.247299e+02
  -2.128673e+02   3.184941e+01
  -2.024722e+02  -1.269864e+02
  -2.616308e+01  -2.245486e+02
   1.633381e+02  -1.728522e+02
   1.952163e+02  -1.563859e+01
   6.813730e+01   1.097717e+02
  -6.419801e+01   1.127647e+02
  -8.094250e+01   3.243553e+01
  -1.297583e+01  -2.687969e+01
   2.911342e+01  -1.690930e+01
  -8.674742e+00   1.644794e+01
  -8.183278e+01  -7.213951e-01
  -1.036904e+02  -8.565290e+01
  -2.134874e+01  -1.730440e+02
   1.331240e+02  -1.660973e+02
   2.466979e+02  -3.002683e+01
   2.140115e+02   1.532486e+02
   5.116937e+01   2.436430e+02
  -1.046302e+02   1.779569e+02
  -1.385159e+02   3.545158e+01
  -7.726703e+01  -5.039413e+01
  -3.345663e+01  -3.326993e+01
  -5.638161e+01   1.603365e+01
  -8.684258e+01   1.064444e+01
  -5.270691e+01  -5.307619e+01
   3.879423e+01  -1.018548e+02
   1.134189e+02  -6.871660e+01
   1.010156e+02   3.654327e+01
  -1.029105e+01   1.250271e+02
  -1.543825e+02   9.887416e+01
  -2.132880e+02  -5.127552e+01
  -1.073473e+02  -2.128224e+02
   1.104761e+02  -2.418552e+02
   2.768857e+02  -1.053523e+02
   2.679631e+02   8.214007e+01
   1.170397e+02   1.780149e+02
  -3.568282e+01   1.519356e+02
  -9.325707e+01   8.992573e+01
  -7.606235e+01   7.579649e+01
  -6.236015e+01   9.922779e+01
  -9.259302e+01   8.382815e+01
  -1.365773e+02  -1.591968e+01
  -1.302196e+02  -1.563384e+02
  -3.891143e+01  -2.355073e+02
   9.732232e+01  -1.820050e+02
   1.810798e+02  -2.440637e+01
   1.436683e+02   1.248607e+02
   2.203183e+01   1.654041e+02
  -7.093339e+01   9.469915e+01
  -6.483265e+01  -3.402669e+00
  -3.454846e+00  -4.981000e+01
   1.676519e+01  -3.800064e+01
  -3.439125e+01  -1.521995e+01
  -8.601740e+01  -1.810308e+01
  -5.087655e+01  -3.880054e+01
   6.930782e+01  -4.304467e+01
   1.724608e+02  -8.045067e+00
   1.530573e+02   5.329770e+01
   1.292430e+01   9.699453e+01
  -1.294728e+02   8.277673e+01
  -1.519016e+02   1.637717e+01
  -5.094868e+01  -4.527772e+01
   6.102818e+01  -4.459216e+01
   8.119554e+01   1.619403e+01
   1.633682e+01   7.315782e+01
  -5.113908e+01   6.615494e+01
  -6.857345e+01   2.830021e+00
  -5.455488e+01  -5.019984e+01
  -4.936508e+01  -4.249746e+01
  -6.152819e+01   7.419910e-02
  -6.870208e+01   1.801435e+00
  -4.409722e+01  -7.109298e+01
   2.521722e+01  -1.567142e+02
   1.198045e+02  -1.551019e+02
   1.778114e+02  -4.248357e+01
   1.362763e+02   9.146943e+01
   1.044490e+01   1.350829e+02
  -9.004892e+01   7.184694e+01
  -6.421265e+01  -1.105329e+01
   6.045281e+01  -2.367854e+01
   1.436804e+02   3.891698e+01
   8.127023e+01   1.087368e+02
  -8.110687e+01   1.193545e+02
  -1.967793e+02   5.843998e+01
  -1.687972e+02  -3.208619e+01
  -3.940921e+01  -8.860063e+01
   6.267072e+01  -7.187232e+01
   5.113862e+01  -5.804583e+00
  -3.977788e+01   3.174804e+01
  -9.645717e+01  -1.805957e+01
  -4.270599e+01  -1.207618e+02
   8.291178e+01  -1.653090e+02
   1.671583e+02  -7.584678e+01
   1.362061e+02   9.506332e+01
   2.197639e+01   2.029613e+02
  -8.155620e+01   1.523310e+02
  -1.093896e+02  -4.709457e+00
  -6.587251e+01  -1.218531e+02
   2.679256e+00  -1.101064e+02
   4.989134e+01  -2.080584e+01
   5.267356e+01   3.117611e+01
   2.327850e+01   7.778563e+00
   4.275588e+00  -2.036607e+01
   2.684786e+01   1.715428e+01
   6.293175e+01   9.059130e+01
   4.383930e+01   1.108900e+02
  -5.118101e+01   4.834042e+01
  -1.446941e+02  -3.436587e+01
  -1.352889e+02  -6.812031e+01
  -2.100575e+01  -5.266562e+01
   8.725867e+01  -2.823911e+01
   9.109104e+01  -1.080542e+01
   1.478656e+01   8.800492e+00
  -3.744114e+01   2.435641e+01
  -1.662385e+01   1.741554e+01
   1.916984e+01  -3.268863e+00
  -4.904420e+00  -7.794600e+00
  -7.393038e+01   1.011680e+00
  -9.706405e+01  -1.980204e+01
  -1.836725e+01  -8.302164e+01
   1.133289e+02  -1.255776e+02
   1.916894e+02  -7.296367e+01
   1.553103e+02   5.939915e+01
   3.690590e+01   1.661829e+02
  -7.607886e+01   1.622515e+02
  -1.172450e+02   6.947290e+01
  -8.487417e+01  -1.779306e+01
  -2.837363e+01  -3.690176e+01
   5.534634e-02  -1.091353e+01
  -1.268808e+01  -5.582521e+00
  -3.539466e+01  -4.788046e+01
  -2.548205e+01  -9.358718e+01
   2.730382e+01  -7.604425e+01
   8.398235e+01   1.421829e+01
   8.615418e+01   1.062447e+02
   1.392573e+01   1.154025e+02
  -8.091914e+01   3.190280e+01
  -1.114351e+02  -6.902449e+01
  -4.173116e+01  -1.057813e+02
   6.514458e+01  -6.481064e+01
   1.050375e+02   5.720384e+00
   4.644002e+01   5.398785e+01
  -3.200927e+01   5.996446e+01
  -3.529452e+01   3.169817e+01
   3.159923e+01  -4.083499e+00
   7.135642e+01  -1.107954e+01
   1.834169e+01   2.627324e+01
  -7.925057e+01   7.206212e+01
  -1.205043e+02   6.407146e+01
  -7.062036e+01  -1.146041e+01
   1.158917e+01  -8.802564e+01
   5.371583e+01  -8.705531e+01
   4.153956e+01  -1.122285e+01
   6.487278e+00   5.620890e+01
  -2.363229e+01   4.813627e+01
  -3.852543e+01  -1.377399e+01
  -3.100908e+01  -5.483883e+01
   1.356509e-01  -3.736244e+01
   3.481540e+01   5.779092e+00
   4.354710e+01   2.196591e+01
   2.180822e+01   1.901727e+00
  -3.109794e+00  -1.713018e+01
  -7.488421e+00  -1.759607e+00
  -7.095704e-01   3.572033e+01
  -7.827038e+00   5.012726e+01
  -3.007714e+01   1.563836e+01
  -3.786300e+01  -4.037399e+01
  -7.339744e+00  -6.224531e+01
   4.329261e+01  -2.558859e+01
   6.312864e+01   3.515706e+01
   2.017354e+01   6.353622e+01
  -5.641513e+01   3.895945e+01
  -9.504225e+01  -9.958077e+00
  -5.391508e+01  -4.319388e+01
   2.780274e+01  -4.593718e+01
   6.642131e+01  -2.833256e+01
   2.704861e+01  -7.347961e+00
  -3.459564e+01   1.457008e+00
  -3.760856e+01  -1.064313e+01
   2.745845e+01  -3.088706e+01
   8.816709e+01  -2.462820e+01
