
 $NMID
 id='ANONYMOUS ', fmtdat='(2E16.6)'
 volume=1.0
 tramp=1.0
 $END
  -3.398046e+03  -3.601054e+01
  -2.089433e+03  -1.933598e+03
   3.412354e+02  -2.170535e+03
   1.532044e+03  -9.586529e+02
   8.754370e+02   2.169634e+02
  -2.713202e+02   3.649755e+02
  -5.697131e+02  -2.339581e+02
  -2.317624e+01  -7.274345e+02
   5.791113e+02  -6.120194e+02
   7.171938e+02   7.510485e+00
   3.956505e+02   6.231551e+02
  -1.108049e+02   6.975254e+02
  -4.270819e+02   1.386772e+02
  -2.833853e+02  -5.106973e+02
   1.770498e+02  -5.824282e+02
   4.584596e+02  -3.121976e+01
   2.537241e+02   5.306344e+02
  -2.107044e+02   5.684682e+02
  -4.815345e+02   1.611694e+02
  -3.748437e+02  -2.449996e+02
  -6.336750e+01  -3.635648e+02
   1.665841e+02  -2.301908e+02
   1.303211e+02  -4.573903e+01
  -1.263551e+02  -1.025883e+01
  -2.971997e+02  -1.770617e+02
  -7.708754e+01  -3.502277e+02
   4.146212e+02  -2.490769e+02
   6.463175e+02   1.231997e+02
   2.904737e+02   4.081879e+02
  -3.180434e+02   3.035330e+02
  -5.549213e+02  -7.877369e+01
  -2.366197e+02  -3.790702e+02
   2.468125e+02  -3.853544e+02
   4.587180e+02  -1.428589e+02
   3.303791e+02   1.772881e+02
   6.799828e+01   3.543250e+02
  -1.043132e+02   2.139595e+02
  -6.143819e+01  -1.325004e+02
   1.511126e+02  -2.643465e+02
   2.863206e+02   6.946341e+01
   1.125519e+02   5.224086e+02
  -2.569596e+02   5.109175e+02
  -4.190023e+02   2.700428e+00
  -1.716747e+02  -3.896149e+02
   1.970325e+02  -2.078295e+02
   2.483728e+02   2.647680e+02
  -8.386017e+01   4.167514e+02
  -4.471002e+02   8.166709e+01
  -4.782761e+02  -3.548033e+02
  -1.373296e+02  -4.871791e+02
   3.081521e+02  -2.722416e+02
   5.132179e+02   6.791704e+01
   3.194288e+02   2.905073e+02
  -9.044945e+01   2.680432e+02
  -3.307176e+02   6.148364e+01
  -2.099014e+02  -1.045304e+02
   4.803365e+01  -6.252598e+01
   8.912642e+01   8.918359e+01
  -1.159028e+02   1.109511e+02
  -2.581768e+02  -5.510320e+01
  -1.191267e+02  -2.228530e+02
   1.635222e+02  -2.252853e+02
   3.061024e+02  -8.741969e+01
   2.047731e+02   8.846978e+01
  -2.938899e+01   2.432968e+02
  -2.384954e+02   3.021076e+02
  -3.173189e+02   1.623286e+02
  -2.318661e+02  -1.366709e+02
  -5.289161e+01  -3.562288e+02
   7.179336e+01  -3.159563e+02
   6.884745e+01  -1.296992e+02
   3.110519e+01  -4.140488e+01
   8.360223e+01  -8.582644e+01
   1.981776e+02  -7.683929e+01
   2.286364e+02   8.076442e+01
   1.074128e+02   2.360861e+02
  -7.658844e+01   1.988007e+02
  -1.851593e+02  -1.620597e+01
  -1.441619e+02  -2.177252e+02
   2.956766e+01  -2.415289e+02
   2.289658e+02  -7.589113e+01
   2.953733e+02   1.562420e+02
   1.547264e+02   2.929152e+02
  -7.112880e+01   2.561862e+02
  -1.797358e+02   1.216731e+02
  -1.366813e+02   3.552268e+01
  -1.127918e+02   4.227351e+01
  -2.286081e+02   3.923613e+01
  -3.595663e+02  -7.615786e+01
  -2.851543e+02  -2.658600e+02
   2.026219e+01  -3.917345e+02
   3.379629e+02  -3.533116e+02
   4.341709e+02  -1.581914e+02
   2.759180e+02   9.077235e+01
   2.916546e+01   2.429919e+02
  -1.023618e+02   2.001692e+02
  -4.266676e+01   3.133213e+01
   1.008638e+02  -6.372529e+01
   1.445884e+02   2.049385e+01
   2.474380e+01   1.502876e+02
  -1.249574e+02   1.225345e+02
  -1.283317e+02  -5.107143e+01
   2.155440e+01  -1.441660e+02
   1.582653e+02  -1.239147e+01
   1.365045e+02   2.181658e+02
  -2.941333e+01   3.084244e+02
  -2.153462e+02   1.738996e+02
  -3.040820e+02  -6.321344e+01
  -2.426518e+02  -2.293532e+02
  -6.345099e+01  -2.408699e+02
   1.107372e+02  -1.312423e+02
   1.465286e+02  -9.444261e+00
   4.199692e+01   2.082584e+01
  -5.222072e+01  -4.546348e+01
  -9.273245e+00  -1.059549e+02
   1.115709e+02  -7.169553e+01
   1.444803e+02   2.008266e+01
   3.915555e+01   5.712325e+01
  -7.174336e+01  -1.589640e-01
  -3.944860e+01  -7.497742e+01
   1.235726e+02  -7.443800e+01
   2.596746e+02   1.678628e+01
   2.279369e+02   1.439075e+02
   3.332321e+01   2.310375e+02
  -1.792982e+02   2.159141e+02
  -2.477485e+02   9.422610e+01
  -1.365088e+02  -4.555782e+01
   2.526175e+01  -8.307113e+01
   6.889344e+01  -7.578608e-01
  -3.967776e+01   7.955671e+01
  -1.699873e+02   3.768722e+01
  -1.768667e+02  -9.536117e+01
  -5.253198e+01  -1.773781e+02
   8.391156e+01  -1.292725e+02
   1.200777e+02  -1.827491e+01
   5.128592e+01   3.518126e+01
  -3.058796e+01  -9.542563e+00
  -2.602275e+01  -8.675025e+01
   7.799799e+01  -1.006499e+02
   1.824419e+02  -1.379778e+01
   1.636076e+02   1.186184e+02
   1.017104e+01   1.902104e+02
  -1.457434e+02   1.373249e+02
  -1.646743e+02   4.792425e+00
  -5.231600e+01  -9.408915e+01
   5.874407e+01  -9.103179e+01
   6.866382e+01  -2.355633e+01
   8.090130e+00   2.234420e+01
  -2.643411e+01   1.104986e+01
   9.134010e+00  -1.517225e+01
   7.161908e+01   4.888811e+00
   8.454536e+01   7.991045e+01
   7.768343e+00   1.493061e+02
  -1.231297e+02   1.331440e+02
  -2.103483e+02   1.094215e+01
  -1.721532e+02  -1.412906e+02
  -3.086320e+01  -2.080949e+02
   9.654212e+01  -1.449463e+02
   1.188113e+02  -2.367665e+01
   6.386952e+01   4.579406e+01
   2.754069e+01   2.958898e+01
   4.898395e+01  -1.077653e+01
   7.498784e+01  -4.154088e+00
   4.287677e+01   4.929848e+01
  -3.902876e+01   8.625388e+01
  -1.024082e+02   5.243449e+01
  -8.528992e+01  -3.833532e+01
   1.673078e+01  -1.071397e+02
   1.384278e+02  -7.497734e+01
   1.782183e+02   5.648904e+01
   7.784277e+01   1.862802e+02
  -1.075884e+02   1.976363e+02
  -2.394357e+02   7.355919e+01
  -2.214218e+02  -8.314034e+01
  -8.944855e+01  -1.555765e+02
   3.765180e+01  -1.259982e+02
   8.286211e+01  -7.139480e+01
   6.750427e+01  -6.096350e+01
   5.741772e+01  -8.178326e+01
   8.299595e+01  -6.697054e+01
   1.155848e+02   2.038076e+01
   1.025659e+02   1.393899e+02
   2.060715e+01   2.015142e+02
  -9.172986e+01   1.486951e+02
  -1.537653e+02   1.081729e+01
  -1.141362e+02  -1.131946e+02
  -9.434725e+00  -1.404801e+02
   6.509814e+01  -7.509407e+01
   5.416916e+01   7.749268e+00
  -1.080717e+00   4.292425e+01
  -1.775007e+01   3.054996e+01
   2.795693e+01   1.359110e+01
   7.282165e+01   1.964831e+01
   4.154454e+01   3.603844e+01
  -6.207641e+01   3.267252e+01
  -1.478991e+02  -3.462581e+00
  -1.264844e+02  -5.431492e+01
  -3.941834e+00  -8.287756e+01
   1.153558e+02  -6.266171e+01
   1.292624e+02  -5.286899e+00
   3.994734e+01   4.164975e+01
  -5.443719e+01   3.528019e+01
  -6.831834e+01  -1.797403e+01
  -1.080917e+01  -6.407300e+01
   4.639849e+01  -5.480722e+01
   5.909597e+01   1.025237e+00
   4.492618e+01   4.627326e+01
   4.003138e+01   3.901609e+01
   5.170236e+01   2.708659e+00
   5.825495e+01   1.979870e+00
   3.431479e+01   6.359696e+01
  -2.936824e+01   1.327085e+02
  -1.108091e+02   1.253418e+02
  -1.546171e+02   2.593792e+01
  -1.113972e+02  -8.544643e+01
  -1.067324e+00  -1.155599e+02
   8.120762e+01  -5.665126e+01
   5.440346e+01   1.243766e+01
  -5.245872e+01   1.709606e+01
  -1.196776e+02  -4.000673e+01
  -6.291626e+01  -9.600956e+01
   7.502161e+01  -9.658580e+01
   1.692637e+02  -3.882768e+01
   1.405291e+02   3.617789e+01
   2.834144e+01   7.662848e+01
  -5.661325e+01   5.670204e+01
  -4.312454e+01   1.538448e+00
   3.576592e+01  -2.519045e+01
   8.131728e+01   2.012585e+01
   3.088293e+01   1.048120e+02
  -7.779943e+01   1.369403e+02
  -1.453377e+02   5.717630e+01
  -1.112819e+02  -8.676538e+01
  -9.167056e+00  -1.732142e+02
   7.643522e+01  -1.249525e+02
   9.221228e+01   9.987033e+00
   4.898047e+01   1.066171e+02
  -8.728384e+00   9.224523e+01
  -4.358505e+01   1.424327e+01
  -4.241638e+01  -2.884740e+01
  -1.859509e+01  -7.139050e+00
  -4.666919e+00   1.666290e+01
  -2.242180e+01  -1.706982e+01
  -4.885915e+01  -8.033935e+01
  -3.087724e+01  -9.532277e+01
   4.654483e+01  -3.759707e+01
   1.209077e+02   3.617660e+01
   1.107483e+02   6.411436e+01
   1.499925e+01   4.612489e+01
  -7.501871e+01   2.029819e+01
  -7.754210e+01   4.460911e+00
  -1.244114e+01  -8.997249e+00
   3.257523e+01  -1.892556e+01
   1.515501e+01  -1.312131e+01
  -1.598254e+01   2.411390e+00
   3.714947e+00   6.373781e+00
   6.239461e+01   1.978674e+00
   8.165853e+01   2.161686e+01
   1.255354e+01   7.227253e+01
  -1.017863e+02   1.019095e+02
  -1.671657e+02   5.283552e+01
  -1.304188e+02  -5.814017e+01
  -2.370384e+01  -1.431048e+02
   7.324931e+01  -1.343179e+02
   1.037277e+02  -5.356777e+01
   7.130605e+01   1.917529e+01
   2.221319e+01   3.310180e+01
  -3.627808e-01   9.989926e+00
   1.056109e+01   6.005812e+00
   2.715067e+01   4.259111e+01
   1.637030e+01   8.055486e+01
  -2.704941e+01   6.319441e+01
  -7.055417e+01  -1.582414e+01
  -6.846878e+01  -9.411837e+01
  -7.034078e+00  -9.912454e+01
   7.012934e+01  -2.423225e+01
   9.203708e+01   6.341288e+01
   3.088984e+01   9.237763e+01
  -5.887865e+01   5.272305e+01
  -8.973128e+01  -1.011858e+01
  -3.688321e+01  -4.926702e+01
   3.093964e+01  -5.013089e+01
   3.245295e+01  -2.471005e+01
  -2.663929e+01   2.847469e+00
  -6.120228e+01   6.080483e+00
  -1.444221e+01  -2.364338e+01
   7.084032e+01  -5.720038e+01
   1.057465e+02  -4.750647e+01
   5.978145e+01   1.419757e+01
  -1.419612e+01   7.450052e+01
  -5.069781e+01   7.127716e+01
  -3.701101e+01   7.628354e+00
  -3.425602e+00  -4.807466e+01
   2.261859e+01  -4.031887e+01
   3.254336e+01   1.292458e+01
   2.378030e+01   4.824030e+01
  -2.212887e+00   3.249312e+01
  -2.951468e+01  -6.349825e+00
  -3.584030e+01  -2.138649e+01
  -1.822778e+01  -3.075560e+00
   1.730990e+00   1.542054e+01
   5.587624e+00   2.910244e+00
   1.168433e+00  -3.048584e+01
   8.231396e+00  -4.380998e+01
   2.667867e+01  -1.338616e+01
   3.169882e+01   3.589923e+01
   4.546517e+00   5.400796e+01
  -3.796911e+01   2.029724e+01
  -5.280356e+01  -3.282720e+01
  -1.458625e+01  -5.503856e+01
   5.019440e+01  -3.033937e+01
   8.089701e+01   1.312202e+01
   4.385332e+01   3.943694e+01
  -2.619223e+01   3.808965e+01
  -5.830633e+01   2.133116e+01
  -2.390954e+01   4.802526e+00
   2.897970e+01  -5.301197e-01
   3.157660e+01   9.827267e+00
  -2.384296e+01   2.476530e+01
  -7.503259e+01   1.737901e+01
