
 $NMID
 id='ANONYMOUS ', fmtdat='(2E16.6)'
 volume=1.0
 tramp=1.0
 $END
  -4.668772e+03   5.377491e+01
  -2.717907e+03  -2.869606e+03
   8.859582e+02  -3.009700e+03
   2.383867e+03  -8.716527e+02
   1.026148e+03   8.720805e+02
  -7.991009e+02   7.181960e+02
  -1.042124e+03  -4.888048e+02
  -2.472331e+00  -1.207502e+03
   9.262614e+02  -8.577454e+02
   1.035811e+03   1.307209e+02
   4.773700e+02   9.658456e+02
  -2.970206e+02   9.776538e+02
  -7.321378e+02   1.181424e+02
  -4.354030e+02  -7.973553e+02
   3.056986e+02  -8.199871e+02
   6.731353e+02   1.991047e+01
   2.780875e+02   7.477906e+02
  -3.844224e+02   6.632813e+02
  -6.392007e+02   5.408391e+01
  -3.935730e+02  -4.090785e+02
   8.512423e+00  -4.729334e+02
   2.757353e+02  -2.791765e+02
   2.524732e+02  -1.258211e+01
  -8.855905e+01   1.195259e+02
  -4.286393e+02  -7.593791e+01
  -2.478801e+02  -4.405443e+02
   4.531814e+02  -4.662859e+02
   9.092279e+02   4.548169e+01
   4.916281e+02   5.899816e+02
  -4.001125e+02   5.545930e+02
  -8.055778e+02  -6.290716e+00
  -3.916234e+02  -5.102218e+02
   2.862676e+02  -5.634178e+02
   5.998558e+02  -2.236068e+02
   4.487858e+02   2.455929e+02
   7.694016e+01   5.228963e+02
  -2.345948e+02   3.236612e+02
  -2.276980e+02  -2.340581e+02
   1.487591e+02  -5.027985e+02
   4.975602e+02  -2.124835e+01
   3.059154e+02   7.218035e+02
  -3.283568e+02   7.766822e+02
  -6.781661e+02   2.100014e+01
  -3.088975e+02  -6.103401e+02
   3.173214e+02  -3.740023e+02
   4.402728e+02   3.293978e+02
  -5.245454e+01   5.891677e+02
  -5.860264e+02   1.597095e+02
  -6.296601e+02  -4.210047e+02
  -1.727247e+02  -6.191339e+02
   4.062282e+02  -3.737093e+02
   6.677372e+02   7.585979e+01
   3.973503e+02   4.231899e+02
  -1.730617e+02   4.109413e+02
  -4.906554e+02   5.944834e+01
  -2.655220e+02  -2.382513e+02
   1.431159e+02  -1.383665e+02
   1.762148e+02   1.741714e+02
  -1.737962e+02   2.244984e+02
  -3.841718e+02  -7.478193e+01
  -1.549783e+02  -3.310058e+02
   2.231688e+02  -2.701280e+02
   3.424748e+02  -5.403153e+01
   1.810312e+02   9.389209e+01
  -3.945714e+01   2.038497e+02
  -2.135104e+02   3.105177e+02
  -3.314094e+02   2.291778e+02
  -3.059279e+02  -1.288784e+02
  -9.191693e+01  -4.592260e+02
   1.324865e+02  -4.142772e+02
   1.535787e+02  -1.103062e+02
   3.494907e+01   3.999475e+01
   2.427086e+01  -7.175707e+01
   1.778155e+02  -1.434212e+02
   2.855483e+02   3.442513e+01
   1.790777e+02   2.719617e+02
  -6.166763e+01   2.745624e+02
  -2.356898e+02   2.638417e+01
  -2.152384e+02  -2.388475e+02
  -1.898287e+00  -3.072927e+02
   2.709036e+02  -1.327843e+02
   3.786421e+02   1.653248e+02
   1.979068e+02   3.691530e+02
  -1.100630e+02   3.266433e+02
  -2.496560e+02   1.202571e+02
  -1.619590e+02  -1.329513e+01
  -9.231123e+01   2.128203e+01
  -2.230286e+02   6.610205e+01
  -3.983544e+02  -5.191249e+01
  -3.359096e+02  -2.856118e+02
  -1.341162e+00  -4.465803e+02
   3.591406e+02  -4.174107e+02
   4.946014e+02  -2.079809e+02
   3.518190e+02   8.949232e+01
   6.693659e+01   3.059548e+02
  -1.370816e+02   2.738321e+02
  -1.018150e+02   3.487180e+01
   1.036974e+02  -1.252419e+02
   2.135589e+02  -7.533262e+00
   6.647268e+01   2.096689e+02
  -1.700459e+02   1.960317e+02
  -2.010142e+02  -5.781518e+01
   9.646034e+00  -2.113190e+02
   2.033407e+02  -4.412611e+01
   1.689530e+02   2.546182e+02
  -3.676185e+01   3.566701e+02
  -2.334354e+02   1.876025e+02
  -3.204262e+02  -6.982479e+01
  -2.750287e+02  -2.363725e+02
  -1.015255e+02  -2.600380e+02
   1.094347e+02  -1.650411e+02
   1.856686e+02  -2.687971e+01
   6.782405e+01   3.558325e+01
  -7.313028e+01  -3.146932e+01
  -3.939469e+01  -1.266344e+02
   1.227802e+02  -1.095595e+02
   1.883028e+02   6.681555e+00
   6.795722e+01   7.605426e+01
  -7.735019e+01   2.415569e+01
  -5.780805e+01  -6.664093e+01
   1.177320e+02  -8.324294e+01
   2.753309e+02  -1.411082e+00
   2.621411e+02   1.330681e+02
   6.722028e+01   2.511163e+02
  -1.777069e+02   2.671560e+02
  -2.882799e+02   1.362507e+02
  -1.819201e+02  -5.126099e+01
   2.039356e+01  -1.195379e+02
   9.863445e+01  -1.473018e+01
  -2.522014e+01   1.065439e+02
  -1.984946e+02   6.802916e+01
  -2.227129e+02  -1.014138e+02
  -7.532489e+01  -2.152328e+02
   9.555893e+01  -1.668160e+02
   1.503213e+02  -3.439691e+01
   7.915080e+01   4.145878e+01
  -2.094972e+01   8.804724e+00
  -3.734321e+01  -7.424531e+01
   6.491911e+01  -1.083512e+02
   1.927919e+02  -3.171998e+01
   1.936363e+02   1.200138e+02
   2.502332e+01   2.213948e+02
  -1.678837e+02   1.701655e+02
  -2.028816e+02   6.305692e+00
  -7.096848e+01  -1.213776e+02
   6.783203e+01  -1.184609e+02
   8.808605e+01  -3.399111e+01
   2.422817e+01   2.494535e+01
  -1.582140e+01   2.010759e+01
   1.184118e+01  -2.506716e+00
   6.620637e+01   1.413836e+01
   8.128710e+01   8.087269e+01
   1.375140e+01   1.520736e+02
  -1.214951e+02   1.496670e+02
  -2.305248e+02   2.949751e+01
  -2.038579e+02  -1.470734e+02
  -4.383584e+01  -2.407454e+02
   1.116343e+02  -1.746466e+02
   1.395928e+02  -2.640314e+01
   7.103742e+01   6.037339e+01
   2.761015e+01   3.898329e+01
   5.310506e+01  -1.093679e+01
   7.743759e+01  -4.938601e+00
   3.620090e+01   4.897928e+01
  -4.534869e+01   8.193118e+01
  -9.737371e+01   4.853816e+01
  -7.735391e+01  -3.502103e+01
   1.455477e+01  -1.033288e+02
   1.349176e+02  -8.158480e+01
   1.922850e+02   4.744525e+01
   1.037527e+02   1.960577e+02
  -1.000605e+02   2.287340e+02
  -2.658545e+02   1.004264e+02
  -2.619581e+02  -8.400179e+01
  -1.139977e+02  -1.791769e+02
   3.803177e+01  -1.507075e+02
   9.689062e+01  -8.616046e+01
   8.317730e+01  -7.020226e+01
   7.051851e+01  -9.039941e+01
   9.407377e+01  -7.208493e+01
   1.274203e+02   2.437755e+01
   1.163180e+02   1.550243e+02
   2.956491e+01   2.263099e+02
  -9.851428e+01   1.737427e+02
  -1.767473e+02   2.336915e+01
  -1.388326e+02  -1.198723e+02
  -2.206664e+01  -1.602080e+02
   6.419560e+01  -9.512549e+01
   5.803055e+01  -4.766939e+00
   6.310809e+00   3.848337e+01
  -5.794636e+00   3.253038e+01
   3.934247e+01   1.960819e+01
   7.781554e+01   2.527329e+01
   4.254493e+01   3.835426e+01
  -6.120552e+01   3.456289e+01
  -1.522211e+02   2.008528e+00
  -1.411402e+02  -4.836171e+01
  -1.884620e+01  -8.409195e+01
   1.164455e+02  -7.211234e+01
   1.441730e+02  -1.508217e+01
   4.861512e+01   3.788893e+01
  -6.092247e+01   3.512046e+01
  -7.503950e+01  -1.991293e+01
  -3.366566e+00  -6.771435e+01
   5.965024e+01  -5.585494e+01
   6.197169e+01   4.370426e+00
   3.948821e+01   5.133535e+01
   4.152182e+01   4.204086e+01
   6.301460e+01   2.353407e+00
   6.630826e+01   8.635382e-01
   3.139170e+01   6.704910e+01
  -3.616618e+01   1.432533e+02
  -1.145019e+02   1.375386e+02
  -1.588408e+02   3.037945e+01
  -1.195439e+02  -9.109871e+01
  -6.444306e+00  -1.231747e+02
   8.475594e+01  -5.772861e+01
   5.928517e+01   1.686212e+01
  -5.942894e+01   1.952723e+01
  -1.381759e+02  -4.445553e+01
  -7.686735e+01  -1.073523e+02
   7.987275e+01  -1.124333e+02
   1.907493e+02  -5.344136e+01
   1.634761e+02   3.188707e+01
   3.901046e+01   8.662620e+01
  -5.937482e+01   7.229240e+01
  -4.840513e+01   9.725524e+00
   3.870546e+01  -2.519746e+01
   8.973588e+01   2.414167e+01
   3.022822e+01   1.200842e+02
  -9.602427e+01   1.537716e+02
  -1.711132e+02   5.936153e+01
  -1.265575e+02  -1.039706e+02
  -7.585448e+00  -1.993461e+02
   8.704395e+01  -1.447612e+02
   1.041756e+02   5.813311e+00
   6.138824e+01   1.168767e+02
   1.390349e+00   1.064811e+02
  -4.364672e+01   2.110092e+01
  -5.368355e+01  -3.056690e+01
  -2.872264e+01  -8.358642e+00
  -3.199805e+00   2.128849e+01
  -1.693597e+01  -1.411192e+01
  -5.421849e+01  -8.842673e+01
  -4.467526e+01  -1.099917e+02
   4.405373e+01  -4.492149e+01
   1.387409e+02   4.089337e+01
   1.315591e+02   7.172402e+01
   1.662363e+01   4.873345e+01
  -9.057054e+01   2.095022e+01
  -8.870365e+01   7.753982e+00
  -8.389215e+00  -6.680371e+00
   3.988064e+01  -2.263022e+01
   1.215341e+01  -1.925438e+01
  -2.357404e+01   1.126362e+00
   6.811363e+00   9.959312e+00
   7.686910e+01   5.501318e+00
   9.075346e+01   2.553949e+01
   3.404116e+00   8.102789e+01
  -1.232199e+02   1.123022e+02
  -1.854945e+02   5.345646e+01
  -1.377423e+02  -7.249729e+01
  -2.204864e+01  -1.631856e+02
   8.043413e+01  -1.466817e+02
   1.142890e+02  -5.455268e+01
   8.031346e+01   2.313315e+01
   2.368515e+01   3.487451e+01
  -5.149986e+00   7.756707e+00
   8.593608e+00   3.094704e+00
   3.307756e+01   4.452123e+01
   2.311356e+01   8.911445e+01
  -2.987787e+01   7.096658e+01
  -8.178661e+01  -2.026547e+01
  -7.518781e+01  -1.111977e+02
   2.042181e-02  -1.133078e+02
   8.543405e+01  -2.078036e+01
   1.018212e+02   7.997554e+01
   2.814354e+01   1.043860e+02
  -6.849385e+01   5.205148e+01
  -9.579936e+01  -1.494425e+01
  -3.562881e+01  -4.916659e+01
   3.368958e+01  -4.790619e+01
   2.883929e+01  -2.652093e+01
  -3.685560e+01  -9.344777e-01
  -6.961500e+01   5.194100e+00
  -1.325682e+01  -2.480590e+01
   7.985534e+01  -6.494695e+01
   1.135622e+02  -5.813368e+01
   6.060061e+01   1.179355e+01
  -1.765560e+01   8.199583e+01
  -5.252876e+01   7.670409e+01
  -3.508033e+01   2.167227e+00
   7.034831e-01  -5.729869e+01
   2.734294e+01  -4.084017e+01
   3.660018e+01   2.122562e+01
   2.508941e+01   5.434838e+01
  -4.537210e+00   3.068058e+01
  -3.309018e+01  -1.005865e+01
  -3.807070e+01  -2.033992e+01
  -2.004750e+01  -2.162959e-01
  -9.830008e-01   1.260932e+01
   5.799288e+00  -6.379874e+00
   9.761275e+00  -3.871162e+01
   2.243800e+01  -4.330168e+01
   3.514197e+01  -3.401663e+00
   2.720960e+01   4.925025e+01
  -7.305544e+00   6.238796e+01
  -4.650317e+01   1.865316e+01
  -5.434138e+01  -4.236843e+01
  -1.219793e+01  -6.432203e+01
   5.465327e+01  -3.218426e+01
   8.714281e+01   1.831836e+01
   4.768888e+01   4.496644e+01
  -2.977669e+01   3.864601e+01
  -6.524375e+01   1.816214e+01
  -2.292179e+01   3.349768e+00
   4.023561e+01   3.598201e+00
   3.946236e+01   1.862172e+01
  -3.274629e+01   3.313303e+01
  -9.508224e+01   1.910231e+01
