
 $NMID
 id='ANONYMOUS ', fmtdat='(2E16.6)'
 volume=1.0
 tramp=1.0
 $END
   4.700946e+03   2.719332e+01
   2.649450e+03   2.891396e+03
  -9.285994e+02   2.935630e+03
  -2.323657e+03   8.050181e+02
  -9.277889e+02  -8.431062e+02
   8.338380e+02  -6.303483e+02
   1.001011e+03   5.439176e+02
  -5.033862e+01   1.199265e+03
  -9.415653e+02   8.232298e+02
  -1.015544e+03  -1.523160e+02
  -4.473143e+02  -9.621894e+02
   3.122591e+02  -9.515706e+02
   7.195442e+02  -8.526938e+01
   4.063671e+02   8.112039e+02
  -3.212958e+02   8.066275e+02
  -6.631867e+02  -3.598110e+01
  -2.659535e+02  -7.426252e+02
   3.741903e+02  -6.476502e+02
   6.156839e+02  -5.311676e+01
   3.804714e+02   3.946308e+02
  -8.738547e+00   4.596654e+02
  -2.735679e+02   2.691490e+02
  -2.427410e+02  -1.742633e+00
   1.154909e+02  -1.275780e+02
   4.551823e+02   9.242879e+01
   2.429838e+02   4.705077e+02
  -4.865499e+02   4.748013e+02
  -9.306650e+02  -6.848788e+01
  -4.753950e+02  -6.139917e+02
   4.341946e+02  -5.508601e+02
   8.230296e+02   3.025255e+01
   3.837687e+02   5.294854e+02
  -3.038733e+02   5.678130e+02
  -6.109326e+02   2.183250e+02
  -4.459556e+02  -2.529039e+02
  -6.321253e+01  -5.218625e+02
   2.423361e+02  -3.049099e+02
   2.110711e+02   2.600253e+02
  -1.822999e+02   5.065803e+02
  -5.147778e+02  -7.940128e+00
  -2.889450e+02  -7.535572e+02
   3.552710e+02  -7.750473e+02
   6.798549e+02   7.444727e+00
   2.849873e+02   6.266096e+02
  -3.372593e+02   3.592381e+02
  -4.383002e+02  -3.550162e+02
   6.728315e+01  -5.997444e+02
   5.992021e+02  -1.534083e+02
   6.363824e+02   4.306274e+02
   1.716955e+02   6.230868e+02
  -4.142404e+02   3.709238e+02
  -6.726931e+02  -8.171825e+01
  -3.891011e+02  -4.235187e+02
   1.856507e+02  -3.999312e+02
   4.878369e+02  -4.646818e+01
   2.478182e+02   2.363835e+02
  -1.516880e+02   1.220628e+02
  -1.636068e+02  -1.845691e+02
   1.892607e+02  -2.174320e+02
   3.832469e+02   8.620962e+01
   1.462359e+02   3.323296e+02
  -2.220004e+02   2.688808e+02
  -3.364286e+02   6.350320e+01
  -1.880284e+02  -8.186096e+01
   2.181170e+01  -2.085292e+02
   2.063305e+02  -3.301308e+02
   3.408926e+02  -2.411577e+02
   3.147471e+02   1.343606e+02
   8.881296e+01   4.663602e+02
  -1.353754e+02   4.085592e+02
  -1.428014e+02   1.008870e+02
  -1.892870e+01  -3.605355e+01
  -2.120089e+01   8.790319e+01
  -1.901941e+02   1.549383e+02
  -2.992942e+02  -3.730154e+01
  -1.825317e+02  -2.827257e+02
   6.816938e+01  -2.814177e+02
   2.454156e+02  -2.389368e+01
   2.211359e+02   2.480565e+02
  -6.938974e-01   3.160431e+02
  -2.801064e+02   1.347990e+02
  -3.860371e+02  -1.694323e+02
  -1.983127e+02  -3.723643e+02
   1.112821e+02  -3.247116e+02
   2.447139e+02  -1.176825e+02
   1.530560e+02   9.662535e+00
   8.916078e+01  -3.127712e+01
   2.299779e+02  -7.697047e+01
   4.106330e+02   4.498879e+01
   3.471009e+02   2.857813e+02
   7.796839e+00   4.559283e+02
  -3.598107e+02   4.322061e+02
  -5.016278e+02   2.172970e+02
  -3.580997e+02  -9.241100e+01
  -6.565899e+01  -3.133546e+02
   1.419856e+02  -2.730264e+02
   9.987504e+01  -2.655903e+01
  -1.134381e+02   1.282603e+02
  -2.196250e+02   3.444369e-01
  -6.154759e+01  -2.165884e+02
   1.783821e+02  -1.931177e+02
   2.018239e+02   6.577480e+01
  -1.603283e+01   2.145970e+02
  -2.095998e+02   4.223245e+01
  -1.732295e+02  -2.567692e+02
   3.202893e+01  -3.601024e+02
   2.311181e+02  -1.962423e+02
   3.264261e+02   6.014159e+01
   2.867859e+02   2.349424e+02
   1.085393e+02   2.673368e+02
  -1.115242e+02   1.712078e+02
  -1.894966e+02   2.593765e+01
  -6.595867e+01  -3.822106e+01
   7.782132e+01   3.408754e+01
   3.956095e+01   1.326725e+02
  -1.278413e+02   1.124315e+02
  -1.925298e+02  -8.901195e+00
  -6.680613e+01  -7.980383e+01
   8.269134e+01  -2.554276e+01
   6.266345e+01   6.966331e+01
  -1.182054e+02   9.066529e+01
  -2.830277e+02   9.219044e+00
  -2.730287e+02  -1.318017e+02
  -7.328315e+01  -2.588091e+02
   1.802993e+02  -2.772140e+02
   2.943597e+02  -1.401150e+02
   1.836718e+02   5.392121e+01
  -2.381898e+01   1.217074e+02
  -1.012703e+02   1.201418e+01
   2.764125e+01  -1.113110e+02
   2.041039e+02  -7.007211e+01
   2.272384e+02   1.031643e+02
   7.650035e+01   2.186577e+02
  -9.756066e+01   1.693294e+02
  -1.533799e+02   3.406463e+01
  -7.952250e+01  -4.455296e+01
   2.545630e+01  -1.114288e+01
   4.347133e+01   7.692274e+01
  -6.353176e+01   1.155166e+02
  -1.980105e+02   3.757220e+01
  -2.003106e+02  -1.200414e+02
  -2.752731e+01  -2.256870e+02
   1.693535e+02  -1.738088e+02
   2.043872e+02  -6.762450e+00
   7.048786e+01   1.230609e+02
  -6.938540e+01   1.200254e+02
  -8.940662e+01   3.359323e+01
  -2.436634e+01  -2.775591e+01
   1.771984e+01  -2.306490e+01
  -8.965513e+00   3.072930e+00
  -6.609540e+01  -9.793368e+00
  -8.611127e+01  -7.781854e+01
  -1.978082e+01  -1.551264e+02
   1.206184e+02  -1.570200e+02
   2.361213e+02  -3.475581e+01
   2.108321e+02   1.472508e+02
   4.726076e+01   2.440302e+02
  -1.116346e+02   1.776033e+02
  -1.402950e+02   2.822212e+01
  -7.125245e+01  -5.911429e+01
  -2.767693e+01  -3.795968e+01
  -5.331859e+01   1.252989e+01
  -7.852845e+01   7.851760e+00
  -3.933882e+01  -4.669840e+01
   4.119769e+01  -8.405328e+01
   9.617665e+01  -5.493034e+01
   8.126955e+01   3.056072e+01
  -9.483408e+00   1.063090e+02
  -1.351397e+02   8.932413e+01
  -1.988297e+02  -4.329827e+01
  -1.106578e+02  -1.999599e+02
   9.888310e+01  -2.370350e+02
   2.704470e+02  -1.065984e+02
   2.677623e+02   8.280276e+01
   1.173037e+02   1.813878e+02
  -3.749099e+01   1.535516e+02
  -9.727610e+01   8.799015e+01
  -8.273323e+01   7.106686e+01
  -6.896290e+01   9.163555e+01
  -9.302256e+01   7.468412e+01
  -1.290955e+02  -2.159746e+01
  -1.208909e+02  -1.547150e+02
  -3.406761e+01  -2.294719e+02
   9.770252e+01  -1.781829e+02
   1.802710e+02  -2.581675e+01
   1.436919e+02   1.208731e+02
   2.448559e+01   1.636959e+02
  -6.554818e+01   9.873673e+01
  -6.136589e+01   5.943278e+00
  -8.747904e+00  -4.068912e+01
   5.467730e+00  -3.588487e+01
  -3.895483e+01  -2.044105e+01
  -7.869352e+01  -2.309206e+01
  -4.436032e+01  -3.720848e+01
   6.113265e+01  -3.792635e+01
   1.556057e+02  -7.532364e+00
   1.461810e+02   4.647008e+01
   2.187647e+01   8.788688e+01
  -1.172012e+02   7.772048e+01
  -1.473080e+02   1.789165e+01
  -5.149655e+01  -3.847021e+01
   6.001020e+01  -3.693706e+01
   7.637585e+01   1.832982e+01
   5.953722e+00   6.682431e+01
  -5.774735e+01   5.638245e+01
  -6.228146e+01  -2.187320e+00
  -4.152294e+01  -4.896570e+01
  -4.330168e+01  -4.107518e+01
  -6.367353e+01  -2.151879e+00
  -6.728076e+01   1.982307e-01
  -3.422784e+01  -6.592912e+01
   3.245543e+01  -1.451414e+02
   1.128266e+02  -1.434055e+02
   1.608552e+02  -3.672515e+01
   1.238440e+02   8.884170e+01
   1.002753e+01   1.257153e+02
  -8.364785e+01   6.155851e+01
  -5.976581e+01  -1.539535e+01
   5.973571e+01  -2.079352e+01
   1.404908e+02   4.299044e+01
   7.964706e+01   1.082639e+02
  -7.950516e+01   1.159326e+02
  -1.937039e+02   5.722792e+01
  -1.673821e+02  -3.051409e+01
  -4.072128e+01  -8.820580e+01
   6.049045e+01  -7.471716e+01
   5.033193e+01  -1.044801e+01
  -3.807939e+01   2.665649e+01
  -9.095143e+01  -2.225751e+01
  -3.263962e+01  -1.198120e+02
   9.367155e+01  -1.556200e+02
   1.705100e+02  -6.201562e+01
   1.286190e+02   1.026491e+02
   1.075008e+01   2.006264e+02
  -8.597343e+01   1.476245e+02
  -1.064732e+02  -4.179433e+00
  -6.465392e+01  -1.183329e+02
  -2.450164e+00  -1.097159e+02
   4.494813e+01  -2.302564e+01
   5.497606e+01   3.112352e+01
   2.879788e+01   9.427717e+00
   3.414578e+00  -2.187932e+01
   1.875557e+01   1.251002e+01
   5.693541e+01   8.827085e+01
   4.631634e+01   1.121731e+02
  -4.453695e+01   4.779637e+01
  -1.408797e+02  -3.918450e+01
  -1.341543e+02  -7.135607e+01
  -1.838303e+01  -4.902463e+01
   9.050917e+01  -2.178408e+01
   8.999443e+01  -9.145371e+00
   9.530931e+00   5.624872e+00
  -4.000274e+01   2.294803e+01
  -1.301262e+01   2.047768e+01
   2.325447e+01  -5.524171e-01
  -6.412328e+00  -1.033873e+01
  -7.687377e+01  -5.258975e+00
  -9.203552e+01  -2.378840e+01
  -5.520011e+00  -7.972521e+01
   1.215460e+02  -1.142734e+02
   1.853921e+02  -5.838674e+01
   1.396123e+02   6.853546e+01
   2.520498e+01   1.635170e+02
  -7.767474e+01   1.504054e+02
  -1.134414e+02   5.807404e+01
  -8.131697e+01  -2.178273e+01
  -2.514083e+01  -3.463617e+01
   4.162943e+00  -7.148046e+00
  -9.613047e+00  -2.465924e+00
  -3.486203e+01  -4.501087e+01
  -2.518650e+01  -9.062870e+01
   2.882743e+01  -7.242801e+01
   8.247277e+01   1.927707e+01
   7.717662e+01   1.103565e+02
   2.153020e+00   1.128851e+02
  -8.439316e+01   2.163669e+01
  -1.028307e+02  -7.816330e+01
  -3.065709e+01  -1.036418e+02
   6.669238e+01  -5.380184e+01
   9.663892e+01   1.208047e+01
   3.845699e+01   4.811340e+01
  -3.149126e+01   4.966009e+01
  -2.871216e+01   2.894189e+01
   3.615849e+01   1.421605e+00
   6.990940e+01  -6.515499e+00
   1.436321e+01   2.430134e+01
  -7.957575e+01   6.713744e+01
  -1.148284e+02   6.183124e+01
  -6.259750e+01  -9.607584e+00
   1.582887e+01  -8.296848e+01
   5.111552e+01  -7.959297e+01
   3.442531e+01  -4.443213e+00
  -4.653549e-02   5.689180e+01
  -2.587209e+01   4.162749e+01
  -3.608129e+01  -2.046059e+01
  -2.646754e+01  -5.411850e+01
   2.740496e+00  -3.094474e+01
   3.306965e+01   9.380867e+00
   3.971015e+01   1.953626e+01
   2.093182e+01  -1.218050e-01
  -3.151288e-01  -1.238555e+01
  -7.674538e+00   6.246246e+00
  -9.634216e+00   3.745586e+01
  -2.009485e+01   4.184551e+01
  -3.292563e+01   3.597574e+00
  -2.705859e+01  -4.720314e+01
   5.972009e+00  -6.067162e+01
   4.565522e+01  -1.918124e+01
   5.488628e+01   4.054039e+01
   1.327658e+01   6.384486e+01
  -5.431383e+01   3.403284e+01
  -8.790018e+01  -1.591305e+01
  -4.902608e+01  -4.417912e+01
   2.850448e+01  -3.975800e+01
   6.445650e+01  -1.993884e+01
   2.286746e+01  -4.705629e+00
  -3.958353e+01  -4.194590e+00
  -3.858110e+01  -1.851915e+01
   3.325361e+01  -3.272547e+01
   9.519875e+01  -1.905029e+01
