
 $NMID
 id='ANONYMOUS ', fmtdat='(2E16.6)'
 volume=1.0
 tramp=1.0
 $END
  -4.708076e+03  -8.654241e+00
  -2.690714e+03  -2.901114e+03
   9.126038e+02  -2.985440e+03
   2.363895e+03  -8.464764e+02
   9.862111e+02   8.513044e+02
  -8.106625e+02   6.707048e+02
  -1.018467e+03  -5.172581e+02
   2.709635e+01  -1.203888e+03
   9.384557e+02  -8.411418e+02
   1.029555e+03   1.429099e+02
   4.631025e+02   9.681669e+02
  -3.061092e+02   9.684841e+02
  -7.263709e+02   1.019732e+02
  -4.189721e+02  -8.072381e+02
   3.166215e+02  -8.159305e+02
   6.705861e+02   2.889620e+01
   2.723521e+02   7.499583e+02
  -3.819601e+02   6.609212e+02
  -6.323268e+02   5.571899e+01
  -3.910081e+02  -4.041502e+02
   8.129527e+00  -4.698484e+02
   2.760905e+02  -2.756767e+02
   2.471561e+02  -6.181716e+00
  -1.046502e+02   1.196868e+02
  -4.423693e+02  -9.085268e+01
  -2.407416e+02  -4.591919e+02
   4.766783e+02  -4.670193e+02
   9.231402e+02   6.429105e+01
   4.811338e+02   6.057376e+02
  -4.218060e+02   5.498882e+02
  -8.166422e+02  -2.424071e+01
  -3.856662e+02  -5.240112e+02
   3.001372e+02  -5.660682e+02
   6.100443e+02  -2.187001e+02
   4.487624e+02   2.523170e+02
   6.892591e+01   5.244189e+02
  -2.383293e+02   3.145738e+02
  -2.158699e+02  -2.470259e+02
   1.692975e+02  -5.024684e+02
   5.053177e+02  -1.996483e+00
   2.918289e+02   7.417263e+02
  -3.470014e+02   7.762330e+02
  -6.796041e+02   4.098594e+00
  -2.943237e+02  -6.204027e+02
   3.287199e+02  -3.649800e+02
   4.372396e+02   3.461507e+02
  -6.422446e+01   5.964385e+02
  -5.967714e+02   1.534837e+02
  -6.348730e+02  -4.325144e+02
  -1.707025e+02  -6.264059e+02
   4.143042e+02  -3.724370e+02
   6.742058e+02   8.260670e+01
   3.947324e+02   4.266759e+02
  -1.803785e+02   4.058525e+02
  -4.910875e+02   5.208973e+01
  -2.581147e+02  -2.371251e+02
   1.463139e+02  -1.292529e+02
   1.688492e+02   1.792910e+02
  -1.825788e+02   2.194615e+02
  -3.845175e+02  -8.234662e+01
  -1.503757e+02  -3.333365e+02
   2.250646e+02  -2.710161e+02
   3.438766e+02  -5.905315e+01
   1.876780e+02   9.035678e+01
  -3.234737e+01   2.106395e+02
  -2.159437e+02   3.233184e+02
  -3.416200e+02   2.342614e+02
  -3.114007e+02  -1.352222e+02
  -8.824316e+01  -4.662236e+02
   1.354825e+02  -4.136671e+02
   1.481312e+02  -1.076754e+02
   2.764105e+01   3.574067e+01
   2.587847e+01  -8.091538e+01
   1.879103e+02  -1.476558e+02
   2.941259e+02   3.947043e+01
   1.794518e+02   2.807439e+02
  -6.756091e+01   2.788625e+02
  -2.421241e+02   2.286167e+01
  -2.175095e+02  -2.471235e+02
   1.955495e+00  -3.136894e+02
   2.784823e+02  -1.323353e+02
   3.840652e+02   1.712750e+02
   1.978144e+02   3.744276e+02
  -1.123672e+02   3.276239e+02
  -2.490975e+02   1.198448e+02
  -1.592854e+02  -1.063483e+01
  -9.319616e+01   2.670823e+01
  -2.303483e+02   7.015878e+01
  -4.086586e+02  -5.228868e+01
  -3.431573e+02  -2.909978e+02
  -1.467237e+00  -4.558881e+02
   3.662484e+02  -4.267742e+02
   5.043209e+02  -2.113891e+02
   3.569367e+02   9.396661e+01
   6.448780e+01   3.121087e+02
  -1.414638e+02   2.742543e+02
  -1.003530e+02   3.090668e+01
   1.103844e+02  -1.257414e+02
   2.171119e+02  -2.181167e+00
   6.259606e+01   2.142122e+02
  -1.757922e+02   1.940857e+02
  -2.014501e+02  -6.313862e+01
   1.424949e+01  -2.135187e+02
   2.079319e+02  -4.174176e+01
   1.711750e+02   2.590112e+02
  -3.649173e+01   3.618590e+02
  -2.362030e+02   1.930039e+02
  -3.273471e+02  -6.761328e+01
  -2.825302e+02  -2.404451e+02
  -1.037198e+02  -2.672998e+02
   1.129668e+02  -1.687114e+02
   1.889914e+02  -2.531349e+01
   6.684074e+01   3.712085e+01
  -7.552251e+01  -3.408712e+01
  -3.832323e+01  -1.308447e+02
   1.271693e+02  -1.105827e+02
   1.915145e+02   9.232570e+00
   6.700626e+01   7.859101e+01
  -8.097468e+01   2.387396e+01
  -5.997155e+01  -6.971146e+01
   1.204342e+02  -8.715216e+01
   2.826937e+02  -3.104087e+00
   2.694391e+02   1.362247e+02
   6.863081e+01   2.582266e+02
  -1.830420e+02   2.732666e+02
  -2.947382e+02   1.372287e+02
  -1.835984e+02  -5.394392e+01
   2.307254e+01  -1.209205e+02
   1.003330e+02  -1.267968e+01
  -2.782018e+01   1.092908e+02
  -2.034663e+02   6.794912e+01
  -2.260890e+02  -1.046391e+02
  -7.517163e+01  -2.191100e+02
   9.832969e+01  -1.687160e+02
   1.531081e+02  -3.345212e+01
   7.928994e+01   4.368961e+01
  -2.381742e+01   9.223701e+00
  -4.002182e+01  -7.734274e+01
   6.631294e+01  -1.128262e+02
   1.980343e+02  -3.336897e+01
   1.980965e+02   1.227720e+02
   2.498140e+01   2.258049e+02
  -1.711523e+02   1.724975e+02
  -2.053270e+02   5.616433e+00
  -7.056797e+01  -1.233467e+02
   6.982904e+01  -1.196767e+02
   8.949506e+01  -3.352217e+01
   2.392621e+01   2.667057e+01
  -1.747394e+01   2.138510e+01
   1.058329e+01  -3.254894e+00
   6.734878e+01   1.226610e+01
   8.459071e+01   8.105847e+01
   1.585792e+01   1.558690e+02
  -1.237665e+02   1.542739e+02
  -2.361453e+02   3.063194e+01
  -2.084288e+02  -1.502053e+02
  -4.450793e+01  -2.450186e+02
   1.136205e+02  -1.771122e+02
   1.414377e+02  -2.691849e+01
   7.169987e+01   6.049505e+01
   2.789427e+01   3.887874e+01
   5.393461e+01  -1.160462e+01
   7.910197e+01  -5.993722e+00
   3.828185e+01   4.886411e+01
  -4.424969e+01   8.418309e+01
  -9.877602e+01   5.200825e+01
  -8.056577e+01  -3.397062e+01
   1.296968e+01  -1.064455e+02
   1.376743e+02  -8.562304e+01
   1.976278e+02   4.749855e+01
   1.067069e+02   2.010913e+02
  -1.024511e+02   2.345643e+02
  -2.716473e+02   1.026213e+02
  -2.668453e+02  -8.595303e+01
  -1.155558e+02  -1.826535e+02
   3.906597e+01  -1.532800e+02
   9.845450e+01  -8.735205e+01
   8.399571e+01  -7.096907e+01
   7.080965e+01  -9.174368e+01
   9.496880e+01  -7.380753e+01
   1.296448e+02   2.389352e+01
   1.190445e+02   1.572590e+02
   3.074229e+01   2.305392e+02
  -1.002338e+02   1.771346e+02
  -1.804046e+02   2.357273e+01
  -1.417833e+02  -1.226227e+02
  -2.230998e+01  -1.637086e+02
   6.632476e+01  -9.724085e+01
   6.038567e+01  -4.632965e+00
   7.085708e+00   4.033211e+01
  -6.353966e+00   3.451576e+01
   3.924432e+01   2.025624e+01
   7.914536e+01   2.478987e+01
   4.385295e+01   3.853003e+01
  -6.233485e+01   3.633034e+01
  -1.560589e+02   3.711218e+00
  -1.449399e+02  -4.912929e+01
  -1.959058e+01  -8.724484e+01
   1.189357e+02  -7.497402e+01
   1.474109e+02  -1.558448e+01
   5.022072e+01   3.913547e+01
  -6.136663e+01   3.625213e+01
  -7.649773e+01  -1.975753e+01
  -4.612238e+00  -6.824041e+01
   5.943962e+01  -5.666776e+01
   6.296445e+01   3.571226e+00
   4.104345e+01   5.101961e+01
   4.276055e+01   4.232693e+01
   6.386571e+01   2.603191e+00
   6.749375e+01   7.309732e-01
   3.302326e+01   6.759449e+01
  -3.539521e+01   1.458242e+02
  -1.160219e+02   1.414582e+02
  -1.622756e+02   3.292671e+01
  -1.227110e+02  -9.181441e+01
  -7.444649e+00  -1.260477e+02
   8.570588e+01  -6.000404e+01
   6.017871e+01   1.654210e+01
  -6.033036e+01   2.005885e+01
  -1.405158e+02  -4.493907e+01
  -7.834138e+01  -1.093911e+02
   8.129656e+01  -1.148614e+02
   1.945597e+02  -5.460345e+01
   1.668472e+02   3.267615e+01
   3.960887e+01   8.852746e+01
  -6.106618e+01   7.368618e+01
  -4.991374e+01   9.671767e+00
   3.902564e+01  -2.610101e+01
   9.128355e+01   2.389857e+01
   3.130597e+01   1.213971e+02
  -9.643819e+01   1.559647e+02
  -1.728009e+02   6.066519e+01
  -1.284442e+02  -1.049080e+02
  -8.326245e+00  -2.021102e+02
   8.817529e+01  -1.472131e+02
   1.064059e+02   5.786733e+00
   6.286189e+01   1.192925e+02
   1.016970e+00   1.091323e+02
  -4.504434e+01   2.186617e+01
  -5.455505e+01  -3.149424e+01
  -2.877561e+01  -9.078725e+00
  -3.508019e+00   2.170618e+01
  -1.820842e+01  -1.377794e+01
  -5.573033e+01  -8.968726e+01
  -4.509888e+01  -1.123881e+02
   4.528469e+01  -4.648967e+01
   1.410497e+02   4.119816e+01
   1.337081e+02   7.299932e+01
   1.742236e+01   4.961619e+01
  -9.146124e+01   2.122627e+01
  -9.031096e+01   7.987962e+00
  -9.186299e+00  -6.420449e+00
   4.038728e+01  -2.280641e+01
   1.295679e+01  -1.983601e+01
  -2.350391e+01   8.154313e-01
   6.563719e+00   1.018590e+01
   7.749326e+01   5.693833e+00
   9.231539e+01   2.538940e+01
   4.434174e+00   8.137004e+01
  -1.240639e+02   1.140232e+02
  -1.879101e+02   5.573024e+01
  -1.401750e+02  -7.186061e+01
  -2.318556e+01  -1.652370e+02
   8.081119e+01  -1.498914e+02
   1.155382e+02  -5.649915e+01
   8.159400e+01   2.308319e+01
   2.452346e+01   3.535497e+01
  -4.615898e+00   7.657381e+00
   9.271275e+00   3.002752e+00
   3.399896e+01   4.553375e+01
   2.377318e+01   9.100693e+01
  -3.007640e+01   7.233144e+01
  -8.286734e+01  -2.032801e+01
  -7.653011e+01  -1.122409e+02
  -7.499430e-01  -1.143448e+02
   8.579237e+01  -2.124943e+01
   1.031499e+02   8.021292e+01
   2.939152e+01   1.053474e+02
  -6.859600e+01   5.340483e+01
  -9.740156e+01  -1.409193e+01
  -3.734132e+01  -4.961970e+01
   3.330511e+01  -4.941860e+01
   2.950133e+01  -2.787222e+01
  -3.670559e+01  -1.200932e+00
  -7.054841e+01   5.607762e+00
  -1.391735e+01  -2.497746e+01
   8.093561e+01  -6.632740e+01
   1.159172e+02  -5.984406e+01
   6.241029e+01   1.133000e+01
  -1.732268e+01   8.337341e+01
  -5.298122e+01   7.881689e+01
  -3.541375e+01   3.321779e+00
   5.104628e-01  -5.764853e+01
   2.708923e+01  -4.170845e+01
   3.667744e+01   2.104632e+01
   2.582930e+01   5.497714e+01
  -3.816622e+00   3.134023e+01
  -3.341684e+01  -9.907740e+00
  -3.926078e+01  -2.050262e+01
  -2.070752e+01  -2.665754e-01
  -3.409250e-01   1.280965e+01
   6.793125e+00  -6.026025e+00
   9.698544e+00  -3.836576e+01
   2.133585e+01  -4.321855e+01
   3.434041e+01  -3.776311e+00
   2.751646e+01   4.867014e+01
  -6.619442e+00   6.220581e+01
  -4.659223e+01   1.904454e+01
  -5.519958e+01  -4.205827e+01
  -1.269206e+01  -6.480770e+01
   5.533322e+01  -3.323489e+01
   8.854675e+01   1.767990e+01
   4.871153e+01   4.531284e+01
  -2.968936e+01   3.961935e+01
  -6.571833e+01   1.910487e+01
  -2.331338e+01   3.989969e+00
   4.010699e+01   3.960237e+00
   3.927639e+01   1.870627e+01
  -3.330704e+01   3.298471e+01
  -9.594254e+01   1.886998e+01
