
 $NMID
 id='ANONYMOUS ', fmtdat='(2E16.6)'
 volume=1.0
 tramp=1.0
 $END
  -4.451713e+03  -8.015395e+01
  -2.540090e+03  -2.670163e+03
   7.506504e+02  -2.751459e+03
   2.093550e+03  -8.939443e+02
   9.158278e+02   6.017969e+02
  -6.543828e+02   5.060268e+02
  -8.518752e+02  -4.705569e+02
   4.934536e+01  -1.063324e+03
   8.507727e+02  -7.652263e+02
   9.394558e+02   1.092254e+02
   4.381985e+02   8.731462e+02
  -2.510670e+02   8.880070e+02
  -6.297570e+02   9.753849e+01
  -3.625335e+02  -7.384319e+02
   2.868931e+02  -7.532927e+02
   6.107821e+02   1.693468e+01
   2.718538e+02   6.952519e+02
  -3.208833e+02   6.481233e+02
  -5.850533e+02   1.050579e+02
  -3.971718e+02  -3.466017e+02
  -2.301796e+01  -4.408750e+02
   2.429487e+02  -2.646101e+02
   2.032444e+02  -1.199484e+01
  -1.428830e+02   7.776634e+01
  -4.288587e+02  -1.466236e+02
  -1.812555e+02  -4.645611e+02
   5.057883e+02  -4.090489e+02
   8.772005e+02   1.112337e+02
   4.150785e+02   5.760987e+02
  -4.300507e+02   4.741216e+02
  -7.673840e+02  -6.791647e+01
  -3.387998e+02  -5.083666e+02
   3.088787e+02  -5.262691e+02
   5.901956e+02  -1.957993e+02
   4.226353e+02   2.403278e+02
   6.207582e+01   4.813680e+02
  -2.006569e+02   2.745571e+02
  -1.485085e+02  -2.339386e+02
   1.990076e+02  -4.332774e+02
   4.556012e+02   5.247304e+01
   2.189915e+02   7.177794e+02
  -3.501592e+02   7.074721e+02
  -6.091986e+02  -1.900193e+01
  -2.399706e+02  -5.711010e+02
   3.077071e+02  -3.071249e+02
   3.808923e+02   3.525806e+02
  -8.792509e+01   5.636683e+02
  -5.787519e+02   1.275214e+02
  -6.118535e+02  -4.317534e+02
  -1.669055e+02  -6.068230e+02
   3.993290e+02  -3.499543e+02
   6.494475e+02   8.482406e+01
   3.797323e+02   3.929204e+02
  -1.622006e+02   3.616854e+02
  -4.487601e+02   4.925531e+01
  -2.382333e+02  -1.919640e+02
   1.196381e+02  -9.465465e+01
   1.342093e+02   1.595897e+02
  -1.773882e+02   1.801239e+02
  -3.523757e+02  -8.442776e+01
  -1.391520e+02  -3.064146e+02
   2.104379e+02  -2.669032e+02
   3.429300e+02  -8.356373e+01
   2.124235e+02   8.438435e+01
  -1.763064e+01   2.414027e+02
  -2.318942e+02   3.505929e+02
  -3.591672e+02   2.280719e+02
  -3.034582e+02  -1.479743e+02
  -7.656859e+01  -4.525275e+02
   1.177109e+02  -3.916836e+02
   1.134141e+02  -1.159574e+02
   1.728856e+01   1.164789e+00
   4.959869e+01  -1.016229e+02
   2.138033e+02  -1.360561e+02
   2.951977e+02   6.152002e+01
   1.625830e+02   2.870448e+02
  -8.046019e+01   2.669416e+02
  -2.402288e+02   5.732675e+00
  -2.043601e+02  -2.566060e+02
   1.556641e+01  -3.087433e+02
   2.813204e+02  -1.181539e+02
   3.753884e+02   1.777578e+02
   1.921563e+02   3.639870e+02
  -1.016652e+02   3.149939e+02
  -2.296393e+02   1.261366e+02
  -1.515455e+02   1.206375e+01
  -1.045230e+02   4.369066e+01
  -2.491528e+02   7.068120e+01
  -4.224606e+02  -5.904432e+01
  -3.487421e+02  -2.970370e+02
   1.443698e+00  -4.634238e+02
   3.756950e+02  -4.338991e+02
   5.097804e+02  -2.099903e+02
   3.488485e+02   9.997606e+01
   5.264021e+01   3.071044e+02
  -1.366589e+02   2.582943e+02
  -7.974496e+01   2.609945e+01
   1.208915e+02  -1.092710e+02
   2.039366e+02   1.313892e+01
   4.625436e+01   2.051793e+02
  -1.710469e+02   1.726970e+02
  -1.827555e+02  -6.805215e+01
   2.324294e+01  -1.991677e+02
   2.041633e+02  -3.037894e+01
   1.706045e+02   2.583732e+02
  -3.088358e+01   3.634509e+02
  -2.390009e+02   2.041178e+02
  -3.421405e+02  -6.090150e+01
  -2.926877e+02  -2.482872e+02
  -9.902437e+01  -2.778835e+02
   1.202072e+02  -1.680931e+02
   1.851719e+02  -1.955744e+01
   5.860980e+01   3.440874e+01
  -7.402860e+01  -4.311158e+01
  -2.847618e+01  -1.329772e+02
   1.321217e+02  -1.031038e+02
   1.862791e+02   1.596909e+01
   5.817511e+01   7.707226e+01
  -8.631978e+01   1.626236e+01
  -5.895665e+01  -7.860574e+01
   1.292350e+02  -9.341688e+01
   2.962129e+02  -1.883824e+00
   2.771642e+02   1.460943e+02
   6.315083e+01   2.683429e+02
  -1.940450e+02   2.737655e+02
  -2.969856e+02   1.307469e+02
  -1.758566e+02  -5.544088e+01
   2.806136e+01  -1.137049e+02
   9.497543e+01  -6.189873e+00
  -3.644197e+01   1.070946e+02
  -2.058189e+02   6.109081e+01
  -2.224255e+02  -1.079333e+02
  -7.133485e+01  -2.169697e+02
   9.935354e+01  -1.641195e+02
   1.505434e+02  -2.892754e+01
   7.234935e+01   4.509641e+01
  -3.197042e+01   3.700081e+00
  -4.172301e+01  -8.823108e+01
   7.393272e+01  -1.205357e+02
   2.075256e+02  -3.227314e+01
   2.009767e+02   1.279626e+02
   2.265734e+01   2.275528e+02
  -1.713356e+02   1.710763e+02
  -2.013398e+02   6.396710e+00
  -6.675456e+01  -1.193876e+02
   7.030275e+01  -1.159436e+02
   8.691352e+01  -3.106943e+01
   1.869078e+01   2.873443e+01
  -2.395764e+01   2.074418e+01
   8.147967e+00  -9.098751e+00
   7.316090e+01   5.997068e+00
   9.389301e+01   8.266304e+01
   1.873733e+01   1.649327e+02
  -1.298574e+02   1.608748e+02
  -2.438390e+02   2.889402e+01
  -2.114659e+02  -1.550900e+02
  -4.467690e+01  -2.464510e+02
   1.126988e+02  -1.765688e+02
   1.406835e+02  -2.895746e+01
   7.291918e+01   5.656013e+01
   2.954826e+01   3.627300e+01
   5.518681e+01  -1.340105e+01
   8.297890e+01  -8.186207e+00
   4.531886e+01   4.997077e+01
  -4.095984e+01   9.201104e+01
  -1.051467e+02   6.092569e+01
  -9.082239e+01  -3.395019e+01
   1.085983e+01  -1.156777e+02
   1.462685e+02  -9.299282e+01
   2.067323e+02   5.031750e+01
   1.068915e+02   2.098404e+02
  -1.093422e+02   2.399147e+02
  -2.777029e+02   1.019959e+02
  -2.683120e+02  -8.833809e+01
  -1.143743e+02  -1.835481e+02
   4.003061e+01  -1.531725e+02
   9.777226e+01  -8.744391e+01
   8.138830e+01  -7.180273e+01
   6.776687e+01  -9.413051e+01
   9.445065e+01  -7.767211e+01
   1.328106e+02   2.119186e+01
   1.232538e+02   1.584656e+02
   3.248640e+01   2.344391e+02
  -1.015250e+02   1.794326e+02
  -1.826508e+02   2.191285e+01
  -1.427048e+02  -1.264640e+02
  -2.046483e+01  -1.663994e+02
   7.072156e+01  -9.669729e+01
   6.413756e+01  -6.805079e-01
   6.129488e+00   4.572452e+01
  -1.131092e+01   3.772743e+01
   3.643334e+01   1.921851e+01
   8.195189e+01   2.204737e+01
   4.710044e+01   3.870422e+01
  -6.582496e+01   3.990386e+01
  -1.647498e+02   5.829990e+00
  -1.500270e+02  -5.241977e+01
  -1.674894e+01  -9.376493e+01
   1.250085e+02  -7.914175e+01
   1.510335e+02  -1.474784e+01
   5.131419e+01   4.295912e+01
  -6.120596e+01   3.966818e+01
  -7.872238e+01  -1.867610e+01
  -9.895147e+00  -6.976720e+01
   5.564297e+01  -5.982735e+01
   6.533741e+01   7.088856e-01
   4.700773e+01   4.993692e+01
   4.573832e+01   4.252967e+01
   6.300375e+01   2.505705e+00
   6.837449e+01   2.788070e-01
   3.810005e+01   6.890400e+01
  -3.147573e+01   1.505712e+02
  -1.190209e+02   1.481814e+02
  -1.703358e+02   3.758565e+01
  -1.290084e+02  -9.240800e+01
  -8.426263e+00  -1.312114e+02
   8.784061e+01  -6.557063e+01
   6.173193e+01   1.439679e+01
  -6.076627e+01   2.117584e+01
  -1.419898e+02  -4.397838e+01
  -7.895010e+01  -1.107834e+02
   8.291695e+01  -1.169814e+02
   1.976899e+02  -5.466221e+01
   1.688565e+02   3.464862e+01
   3.874397e+01   8.995345e+01
  -6.360068e+01   7.294457e+01
  -5.158667e+01   7.450953e+00
   3.937386e+01  -2.858718e+01
   9.352859e+01   2.192128e+01
   3.528731e+01   1.212165e+02
  -9.186075e+01   1.588563e+02
  -1.706632e+02   6.539105e+01
  -1.306881e+02  -1.019818e+02
  -1.227656e+01  -2.028120e+02
   8.718665e+01  -1.490259e+02
   1.086122e+02   6.349426e+00
   6.364129e+01   1.220759e+02
  -2.014094e+00   1.111191e+02
  -4.817308e+01   2.160591e+01
  -5.374064e+01  -3.260094e+01
  -2.618507e+01  -9.633345e+00
  -4.357297e+00   2.133666e+01
  -2.268962e+01  -1.463152e+01
  -5.858572e+01  -9.078147e+01
  -4.327583e+01  -1.135118e+02
   4.885960e+01  -4.796271e+01
   1.426997e+02   3.976701e+01
   1.341515e+02   7.295682e+01
   1.901082e+01   5.129401e+01
  -8.974671e+01   2.298815e+01
  -9.128685e+01   8.303914e+00
  -1.212337e+01  -7.005334e+00
   3.949147e+01  -2.284763e+01
   1.537130e+01  -1.918744e+01
  -2.139150e+01   1.114460e+00
   5.408926e+00   9.458214e+00
   7.563199e+01   4.069347e+00
   9.438334e+01   2.361227e+01
   1.016377e+01   8.120496e+01
  -1.202302e+02   1.175454e+02
  -1.900147e+02   6.237638e+01
  -1.460924e+02  -6.660235e+01
  -2.780616e+01  -1.658160e+02
   7.974916e+01  -1.554675e+02
   1.165305e+02  -6.183611e+01
   8.293793e+01   2.147045e+01
   2.630026e+01   3.624971e+01
  -2.203567e+00   8.617330e+00
   1.125416e+01   3.928373e+00
   3.468267e+01   4.733876e+01
   2.394022e+01   9.318295e+01
  -2.953620e+01   7.401944e+01
  -8.313834e+01  -1.859696e+01
  -7.954643e+01  -1.102744e+02
  -5.580986e+00  -1.142648e+02
   8.324454e+01  -2.470965e+01
   1.055494e+02   7.602128e+01
   3.414237e+01   1.053702e+02
  -6.687639e+01   5.793277e+01
  -1.006667e+02  -1.059763e+01
  -4.187834e+01  -5.147406e+01
   3.231736e+01  -5.424185e+01
   3.238090e+01  -3.028811e+01
  -3.396933e+01   1.366450e-01
  -7.097846e+01   7.409700e+00
  -1.596614e+01  -2.544283e+01
   8.105627e+01  -6.837987e+01
   1.194252e+02  -6.146865e+01
   6.673092e+01   1.126978e+01
  -1.529489e+01   8.539752e+01
  -5.381466e+01   8.283937e+01
  -3.766463e+01   7.381149e+00
  -1.831664e+00  -5.662491e+01
   2.545160e+01  -4.432999e+01
   3.669278e+01   1.807770e+01
   2.777092e+01   5.511593e+01
  -1.766985e+00   3.394835e+01
  -3.373689e+01  -8.323257e+00
  -4.156733e+01  -2.135339e+01
  -2.162767e+01  -1.167737e+00
   1.659500e+00   1.451628e+01
   8.256803e+00  -2.427669e+00
   6.410621e+00  -3.621701e+01
   1.488172e+01  -4.487335e+01
   3.120345e+01  -8.388595e+00
   3.094217e+01   4.428099e+01
  -9.380247e-01   6.095221e+01
  -4.490345e+01   2.126834e+01
  -5.801969e+01  -3.893185e+01
  -1.531537e+01  -6.404278e+01
   5.607588e+01  -3.565420e+01
   9.122754e+01   1.455452e+01
   5.075724e+01   4.472581e+01
  -2.880064e+01   4.233553e+01
  -6.575046e+01   2.284946e+01
  -2.491427e+01   5.776051e+00
   3.716003e+01   2.682927e+00
   3.759551e+01   1.582650e+01
  -3.157929e+01   3.113306e+01
  -9.272244e+01   1.950569e+01
