
 $NMID
 id='ANONYMOUS ', fmtdat='(2E16.6)'
 volume=1.0
 tramp=1.0
 $END
   3.911532e+03  -1.903379e+01
   2.399133e+03   2.214550e+03
  -4.176450e+02   2.484405e+03
  -1.763764e+03   1.052654e+03
  -9.601942e+02  -3.037354e+02
   3.721112e+02  -4.319589e+02
   6.841820e+02   2.946580e+02
   2.338126e+01   8.615846e+02
  -6.749864e+02   7.077922e+02
  -8.256104e+02  -1.664544e+01
  -4.498393e+02  -7.220945e+02
   1.374030e+02  -7.992727e+02
   5.046015e+02  -1.492839e+02
   3.344415e+02   5.976906e+02
  -2.044814e+02   6.717040e+02
  -5.293415e+02   3.210327e+01
  -2.890073e+02  -6.056978e+02
   2.412898e+02  -6.367821e+02
   5.407658e+02  -1.712388e+02
   4.152210e+02   2.803098e+02
   6.668538e+01   4.092447e+02
  -1.927014e+02   2.599680e+02
  -1.564132e+02   4.450081e+01
   1.404675e+02  -1.119247e+01
   3.543932e+02   1.786371e+02
   1.137546e+02   4.027620e+02
  -4.637430e+02   3.135054e+02
  -7.531121e+02  -1.175826e+02
  -3.502496e+02  -4.732393e+02
   3.629198e+02  -3.728790e+02
   6.492773e+02   7.161562e+01
   2.863788e+02   4.341609e+02
  -2.730896e+02   4.532351e+02
  -5.226567e+02   1.755134e+02
  -3.814900e+02  -1.992592e+02
  -7.928261e+01  -4.103107e+02
   1.301622e+02  -2.470858e+02
   8.868421e+01   1.647747e+02
  -1.688005e+02   3.267928e+02
  -3.489692e+02  -6.550692e+01
  -1.560707e+02  -6.064338e+02
   2.885348e+02  -6.017220e+02
   4.957317e+02  -6.460386e+00
   2.087934e+02   4.585960e+02
  -2.337241e+02   2.509938e+02
  -3.036150e+02  -3.009991e+02
   8.324555e+01  -4.852696e+02
   5.113479e+02  -1.075300e+02
   5.541992e+02   3.913670e+02
   1.648384e+02   5.508976e+02
  -3.482332e+02   3.179677e+02
  -5.868654e+02  -6.699633e+01
  -3.647363e+02  -3.307614e+02
   1.085541e+02  -3.126945e+02
   3.828970e+02  -7.034911e+01
   2.354462e+02   1.284997e+02
  -6.676432e+01   7.582588e+01
  -1.083090e+02  -1.104524e+02
   1.368884e+02  -1.378396e+02
   3.014217e+02   6.099886e+01
   1.377651e+02   2.573615e+02
  -1.828658e+02   2.561986e+02
  -3.375167e+02   9.972533e+01
  -2.248681e+02  -9.068910e+01
   2.433222e+01  -2.632042e+02
   2.503826e+02  -3.422434e+02
   3.492407e+02  -1.965814e+02
   2.694914e+02   1.456795e+02
   6.961354e+01   4.057374e+02
  -8.164602e+01   3.600862e+02
  -8.190247e+01   1.385396e+02
  -2.974220e+01   3.580712e+01
  -8.104644e+01   9.797157e+01
  -2.162233e+02   1.003098e+02
  -2.637421e+02  -7.843617e+01
  -1.332327e+02  -2.645489e+02
   7.970256e+01  -2.317730e+02
   2.128751e+02   8.895742e+00
   1.737247e+02   2.412537e+02
  -2.400397e+01   2.768217e+02
  -2.577960e+02   9.611111e+01
  -3.404436e+02  -1.678745e+02
  -1.815407e+02  -3.295922e+02
   7.866455e+01  -2.916351e+02
   2.031414e+02  -1.361452e+02
   1.504393e+02  -3.584707e+01
   1.192597e+02  -4.824616e+01
   2.509941e+02  -5.401714e+01
   4.043935e+02   7.135201e+01
   3.278752e+02   2.887810e+02
  -9.891395e+00   4.400457e+02
  -3.668548e+02   4.068165e+02
  -4.832615e+02   1.913078e+02
  -3.165143e+02  -9.471035e+01
  -4.165474e+01  -2.765399e+02
   1.143859e+02  -2.315343e+02
   5.384839e+01  -3.357188e+01
  -1.122635e+02   8.114106e+01
  -1.700658e+02  -1.760631e+01
  -3.459535e+01  -1.743228e+02
   1.430051e+02  -1.462597e+02
   1.520044e+02   5.645994e+01
  -2.079651e+01   1.686604e+02
  -1.811743e+02   2.059883e+01
  -1.595913e+02  -2.421991e+02
   2.600173e+01  -3.464211e+02
   2.346960e+02  -1.990834e+02
   3.385781e+02   6.179605e+01
   2.781456e+02   2.474077e+02
   8.138096e+01   2.674709e+02
  -1.192404e+02   1.523755e+02
  -1.669185e+02   1.540583e+01
  -4.956212e+01  -2.472744e+01
   6.225790e+01   4.758027e+01
   1.645333e+01   1.204347e+02
  -1.238112e+02   8.679407e+01
  -1.660003e+02  -1.790543e+01
  -4.775215e+01  -6.545769e+01
   8.083638e+01  -4.945143e+00
   4.851888e+01   8.108899e+01
  -1.333979e+02   8.719235e+01
  -2.892932e+02  -8.800442e+00
  -2.603541e+02  -1.515501e+02
  -4.732121e+01  -2.575046e+02
   1.928682e+02  -2.500007e+02
   2.770463e+02  -1.150137e+02
   1.573442e+02   4.875378e+01
  -2.627931e+01   9.720217e+01
  -8.033026e+01   3.419831e+00
   4.058196e+01  -9.298674e+01
   1.910832e+02  -4.938990e+01
   2.033610e+02   1.024050e+02
   6.455550e+01   1.996295e+02
  -9.161803e+01   1.492704e+02
  -1.363070e+02   2.454652e+01
  -6.088620e+01  -3.923804e+01
   3.356142e+01   6.737359e+00
   3.337780e+01   9.360352e+01
  -8.141772e+01   1.148299e+02
  -2.026100e+02   2.269053e+01
  -1.876416e+02  -1.270940e+02
  -1.758626e+01  -2.138399e+02
   1.605945e+02  -1.589591e+02
   1.861920e+02  -8.821141e+00
   6.168618e+01   1.063717e+02
  -6.429636e+01   1.051915e+02
  -7.787055e+01   2.852719e+01
  -1.157498e+01  -2.542708e+01
   2.779928e+01  -1.464550e+01
  -9.359428e+00   1.521961e+01
  -7.788007e+01  -4.119743e+00
  -9.509250e+01  -8.534329e+01
  -1.382345e+01  -1.647827e+02
   1.319927e+02  -1.526252e+02
   2.347287e+02  -2.004267e+01
   1.977689e+02   1.524386e+02
   4.061124e+01   2.329953e+02
  -1.051281e+02   1.657427e+02
  -1.329044e+02   2.914856e+01
  -7.200283e+01  -5.066471e+01
  -3.081797e+01  -3.294882e+01
  -5.414154e+01   1.321333e+01
  -8.278903e+01   6.883994e+00
  -4.788192e+01  -5.260539e+01
   4.092543e+01  -9.532533e+01
   1.102999e+02  -6.062519e+01
   9.421412e+01   3.877575e+01
  -1.464889e+01   1.180862e+02
  -1.499392e+02   8.785398e+01
  -2.002111e+02  -5.615050e+01
  -9.438777e+01  -2.051453e+02
   1.127872e+02  -2.253138e+02
   2.660077e+02  -9.067937e+01
   2.515873e+02   8.665406e+01
   1.054070e+02   1.727129e+02
  -3.873630e+01   1.430830e+02
  -9.152080e+01   8.244696e+01
  -7.489488e+01   6.969385e+01
  -6.278264e+01   9.234168e+01
  -9.098055e+01   7.646189e+01
  -1.292464e+02  -1.992334e+01
  -1.183113e+02  -1.529570e+02
  -2.895347e+01  -2.248637e+02
   9.842230e+01  -1.694973e+02
   1.725228e+02  -1.724658e+01
   1.320705e+02   1.230950e+02
   1.547247e+01   1.575194e+02
  -7.015018e+01   8.733684e+01
  -6.095531e+01  -5.407674e+00
  -1.301068e+00  -4.705578e+01
   1.713647e+01  -3.498955e+01
  -3.240479e+01  -1.540100e+01
  -8.117766e+01  -2.033859e+01
  -4.688080e+01  -3.874015e+01
   6.731020e+01  -3.817948e+01
   1.637595e+02  -1.276798e+00
   1.431185e+02   5.578575e+01
   8.784017e+00   9.196787e+01
  -1.256446e+02   7.373890e+01
  -1.445416e+02   1.041056e+01
  -4.656922e+01  -4.452961e+01
   5.967974e+01  -4.021159e+01
   7.656042e+01   1.823498e+01
   1.275110e+01   7.034394e+01
  -5.115834e+01   6.130989e+01
  -6.531833e+01   1.340444e-01
  -4.995932e+01  -4.996636e+01
  -4.533810e+01  -4.217990e+01
  -5.849436e+01  -1.853728e+00
  -6.529812e+01  -6.006775e-01
  -3.921209e+01  -6.927461e+01
   2.959353e+01  -1.480825e+02
   1.191625e+02  -1.428481e+02
   1.701865e+02  -3.372627e+01
   1.260945e+02   9.173819e+01
   5.100807e+00   1.284361e+02
  -8.816871e+01   6.486505e+01
  -6.071595e+01  -1.280842e+01
   5.824556e+01  -2.044332e+01
   1.352042e+02   4.176886e+01
   7.353580e+01   1.058729e+02
  -8.096674e+01   1.105005e+02
  -1.886203e+02   4.890249e+01
  -1.590212e+02  -3.597685e+01
  -3.450368e+01  -8.527899e+01
   6.164976e+01  -6.608001e+01
   4.849371e+01  -3.849655e+00
  -3.898169e+01   2.870858e+01
  -9.106456e+01  -2.054923e+01
  -3.646271e+01  -1.163980e+02
   8.455766e+01  -1.545339e+02
   1.616977e+02  -6.655473e+01
   1.264055e+02   9.501987e+01
   1.405254e+01   1.937501e+02
  -8.257402e+01   1.420277e+02
  -1.035813e+02  -8.147928e+00
  -5.836954e+01  -1.177721e+02
   6.093255e+00  -1.041456e+02
   4.786927e+01  -1.791839e+01
   4.897834e+01   3.118783e+01
   2.195361e+01   7.906448e+00
   4.643898e+00  -1.915833e+01
   2.463834e+01   1.746559e+01
   5.660714e+01   8.823898e+01
   3.806669e+01   1.065330e+02
  -5.009534e+01   4.390051e+01
  -1.363415e+02  -3.751808e+01
  -1.262745e+02  -6.910445e+01
  -1.803344e+01  -5.073357e+01
   8.401834e+01  -2.404355e+01
   8.683758e+01  -7.228040e+00
   1.355640e+01   9.035117e+00
  -3.639844e+01   2.199237e+01
  -1.617090e+01   1.584939e+01
   1.844937e+01  -2.635510e+00
  -4.525470e+00  -7.509865e+00
  -7.047739e+01  -1.367212e+00
  -9.157849e+01  -2.219916e+01
  -1.446993e+01  -7.990371e+01
   1.121739e+02  -1.157236e+02
   1.848270e+02  -6.258840e+01
   1.456878e+02   6.217707e+01
   2.939345e+01   1.593601e+02
  -7.799142e+01   1.514307e+02
  -1.139655e+02   6.183413e+01
  -8.009160e+01  -1.983184e+01
  -2.559165e+01  -3.605609e+01
   6.096401e-01  -1.050152e+01
  -1.169163e+01  -5.817839e+00
  -3.189274e+01  -4.657549e+01
  -2.100076e+01  -8.960620e+01
   2.854934e+01  -7.129542e+01
   7.942681e+01   1.632993e+01
   7.838948e+01   1.040328e+02
   9.247457e+00   1.104398e+02
  -7.829348e+01   2.770228e+01
  -1.038102e+02  -6.956904e+01
  -3.596331e+01  -1.021878e+02
   6.441308e+01  -5.934449e+01
   9.967675e+01   9.268211e+00
   4.197569e+01   5.303260e+01
  -3.276938e+01   5.573828e+01
  -3.458065e+01   2.861105e+01
   3.039579e+01  -3.001193e+00
   6.824884e+01  -8.088757e+00
   1.642583e+01   2.568181e+01
  -7.775180e+01   6.576460e+01
  -1.164605e+02   5.660031e+01
  -6.647665e+01  -1.350740e+01
   1.411692e+01  -8.328121e+01
   5.409999e+01  -8.066769e+01
   4.001364e+01  -8.923634e+00
   4.301353e+00   5.383413e+01
  -2.429323e+01   4.494368e+01
  -3.637804e+01  -1.448651e+01
  -2.756608e+01  -5.323087e+01
   1.649820e+00  -3.550266e+01
   3.298750e+01   6.723057e+00
   4.046037e+01   2.240421e+01
   2.053148e+01   2.534270e+00
  -2.159292e+00  -1.643578e+01
  -6.694593e+00  -1.834970e+00
  -1.834911e+00   3.427675e+01
  -9.528415e+00   4.777489e+01
  -2.960176e+01   1.388075e+01
  -3.481866e+01  -4.007307e+01
  -4.755103e+00  -5.986935e+01
   4.220966e+01  -2.291895e+01
   5.891720e+01   3.581868e+01
   1.702829e+01   6.124356e+01
  -5.498983e+01   3.499326e+01
  -9.004904e+01  -1.290470e+01
  -4.974907e+01  -4.295744e+01
   2.815050e+01  -4.265652e+01
   6.429247e+01  -2.456170e+01
   2.598177e+01  -5.884152e+00
  -3.316348e+01   4.296310e-01
  -3.569228e+01  -1.134539e+01
   2.702400e+01  -2.868415e+01
   8.475688e+01  -2.076323e+01
