
 $NMID
 id='ANONYMOUS ', fmtdat='(2E16.6)'
 volume=1.0
 tramp=1.0
 $END
   4.055591e+03  -5.526000e+01
   2.513883e+03   2.268327e+03
  -3.985040e+02   2.581061e+03
  -1.813355e+03   1.120695e+03
  -1.004976e+03  -2.920438e+02
   3.703891e+02  -4.476554e+02
   7.065086e+02   2.938686e+02
   3.406998e+01   8.881688e+02
  -6.897657e+02   7.405581e+02
  -8.554598e+02  -6.077712e+00
  -4.755089e+02  -7.419277e+02
   1.310602e+02  -8.301764e+02
   5.184596e+02  -1.620002e+02
   3.518128e+02   6.140089e+02
  -2.038923e+02   6.982512e+02
  -5.477444e+02   4.014193e+01
  -3.073928e+02  -6.250547e+02
   2.420699e+02  -6.659050e+02
   5.602163e+02  -1.868899e+02
   4.365471e+02   2.852565e+02
   7.540388e+01   4.247083e+02
  -1.962642e+02   2.725308e+02
  -1.601208e+02   4.916139e+01
   1.471945e+02  -9.381385e+00
   3.681583e+02   1.858554e+02
   1.182339e+02   4.170618e+02
  -4.802874e+02   3.261450e+02
  -7.811489e+02  -1.175840e+02
  -3.656177e+02  -4.862875e+02
   3.731460e+02  -3.866716e+02
   6.725615e+02   7.031371e+01
   2.995118e+02   4.474573e+02
  -2.799624e+02   4.716282e+02
  -5.409268e+02   1.863098e+02
  -3.976659e+02  -2.028800e+02
  -8.673804e+01  -4.238725e+02
   1.302125e+02  -2.570660e+02
   9.020509e+01   1.682272e+02
  -1.728356e+02   3.368664e+02
  -3.595343e+02  -6.705752e+01
  -1.640199e+02  -6.267149e+02
   2.936983e+02  -6.248444e+02
   5.114040e+02  -1.144833e+01
   2.194288e+02   4.714132e+02
  -2.384668e+02   2.605219e+02
  -3.152048e+02  -3.096811e+02
   8.309322e+01  -5.033946e+02
   5.297399e+02  -1.152120e+02
   5.789466e+02   4.021767e+02
   1.765164e+02   5.709537e+02
  -3.584365e+02   3.330612e+02
  -6.100763e+02  -6.432000e+01
  -3.825474e+02  -3.389867e+02
   1.081721e+02  -3.244238e+02
   3.955568e+02  -7.741912e+01
   2.462899e+02   1.286989e+02
  -6.640961e+01   7.824708e+01
  -1.122368e+02  -1.120216e+02
   1.400008e+02  -1.425374e+02
   3.124276e+02   6.024195e+01
   1.456628e+02   2.649513e+02
  -1.873042e+02   2.684177e+02
  -3.511786e+02   1.080620e+02
  -2.364469e+02  -9.287975e+01
   2.313930e+01  -2.763897e+02
   2.594858e+02  -3.595242e+02
   3.627998e+02  -2.067378e+02
   2.809823e+02   1.499401e+02
   7.555730e+01   4.207392e+02
  -8.039117e+01   3.747982e+02
  -8.235714e+01   1.463374e+02
  -3.101737e+01   3.978689e+01
  -8.548493e+01   1.032123e+02
  -2.254442e+02   1.048641e+02
  -2.746994e+02  -8.075727e+01
  -1.397753e+02  -2.742184e+02
   8.146418e+01  -2.409325e+02
   2.211266e+02   8.418439e+00
   1.818645e+02   2.499119e+02
  -2.333140e+01   2.877496e+02
  -2.673719e+02   1.013194e+02
  -3.551654e+02  -1.720787e+02
  -1.917084e+02  -3.408821e+02
   7.851600e+01  -3.038500e+02
   2.094196e+02  -1.443236e+02
   1.565026e+02  -4.008213e+01
   1.248727e+02  -5.188495e+01
   2.619547e+02  -5.784394e+01
   4.222201e+02   7.168363e+01
   3.439142e+02   2.984245e+02
  -7.008568e+00   4.585732e+02
  -3.792884e+02   4.267462e+02
  -5.018142e+02   2.029660e+02
  -3.296901e+02  -9.609429e+01
  -4.512711e+01  -2.869546e+02
   1.164528e+02  -2.412241e+02
   5.447327e+01  -3.568701e+01
  -1.163565e+02   8.418290e+01
  -1.760337e+02  -1.743244e+01
  -3.677968e+01  -1.802405e+02
   1.468137e+02  -1.523692e+02
   1.575209e+02   5.728817e+01
  -2.037156e+01   1.747022e+02
  -1.879270e+02   2.240600e+01
  -1.681532e+02  -2.507776e+02
   2.391101e+01  -3.611252e+02
   2.431525e+02  -2.097815e+02
   3.540429e+02   6.153903e+01
   2.920080e+02   2.559915e+02
   8.639557e+01   2.782689e+02
  -1.232727e+02   1.594002e+02
  -1.732782e+02   1.720298e+01
  -5.140881e+01  -2.495229e+01
   6.488223e+01   4.949412e+01
   1.751053e+01   1.251033e+02
  -1.282592e+02   9.083018e+01
  -1.724916e+02  -1.750309e+01
  -4.979645e+01  -6.742422e+01
   8.421729e+01  -5.239985e+00
   5.088807e+01   8.450055e+01
  -1.388316e+02   9.200589e+01
  -3.020014e+02  -7.193480e+00
  -2.724930e+02  -1.563902e+02
  -5.082031e+01  -2.681281e+02
   1.993612e+02  -2.616134e+02
   2.874325e+02  -1.216159e+02
   1.637358e+02   4.932382e+01
  -2.663978e+01   1.008688e+02
  -8.312140e+01   4.003624e+00
   4.191020e+01  -9.678713e+01
   1.984767e+02  -5.255415e+01
   2.122754e+02   1.050121e+02
   6.870973e+01   2.070735e+02
  -9.407637e+01   1.558794e+02
  -1.414373e+02   2.650104e+01
  -6.328078e+01  -4.023609e+01
   3.531326e+01   7.273315e+00
   3.532958e+01   9.784373e+01
  -8.445594e+01   1.204622e+02
  -2.112650e+02   2.498795e+01
  -1.964376e+02  -1.311339e+02
  -1.990805e+01  -2.225226e+02
   1.658468e+02  -1.667450e+02
   1.935675e+02  -1.088638e+01
   6.499738e+01   1.099017e+02
  -6.599014e+01   1.098252e+02
  -8.062048e+01   3.027814e+01
  -1.190674e+01  -2.635162e+01
   2.917387e+01  -1.526560e+01
  -9.637595e+00   1.632393e+01
  -8.161990e+01  -3.440932e+00
  -1.002009e+02  -8.840647e+01
  -1.568060e+01  -1.720400e+02
   1.366782e+02  -1.602105e+02
   2.446060e+02  -2.251074e+01
   2.072096e+02   1.574231e+02
   4.419034e+01   2.423240e+02
  -1.080040e+02   1.734263e+02
  -1.381390e+02   3.159010e+01
  -7.556194e+01  -5.195694e+01
  -3.252491e+01  -3.394319e+01
  -5.637834e+01   1.427574e+01
  -8.641733e+01   7.875647e+00
  -5.066078e+01  -5.462507e+01
   4.184017e+01  -1.001228e+02
   1.149381e+02  -6.437216e+01
   9.899784e+01   3.986456e+01
  -1.439961e+01   1.236491e+02
  -1.560657e+02   9.290121e+01
  -2.093544e+02  -5.720277e+01
  -9.974775e+01  -2.133005e+02
   1.160900e+02  -2.356347e+02
   2.765200e+02  -9.642036e+01
   2.626718e+02   8.830008e+01
   1.110862e+02   1.789562e+02
  -3.919075e+01   1.492560e+02
  -9.456134e+01   8.662231e+01
  -7.726802e+01   7.330139e+01
  -6.448675e+01   9.688036e+01
  -9.416089e+01   8.059799e+01
  -1.349811e+02  -1.959886e+01
  -1.246565e+02  -1.584455e+02
  -3.200843e+01  -2.341392e+02
   1.011953e+02  -1.773818e+02
   1.795562e+02  -1.923503e+01
   1.384731e+02   1.273023e+02
   1.724042e+01   1.639710e+02
  -7.254456e+01   9.136064e+01
  -6.361351e+01  -5.451193e+00
  -1.544423e+00  -4.926215e+01
   1.792103e+01  -3.661941e+01
  -3.373281e+01  -1.562864e+01
  -8.491998e+01  -2.041902e+01
  -4.931177e+01  -4.004144e+01
   7.005718e+01  -4.041867e+01
   1.710370e+02  -2.576193e+00
   1.496686e+02   5.721555e+01
   9.570155e+00   9.597176e+01
  -1.306582e+02   7.788916e+01
  -1.505825e+02   1.189469e+01
  -4.881286e+01  -4.622158e+01
   6.188294e+01  -4.256134e+01
   8.001683e+01   1.834650e+01
   1.412128e+01   7.336152e+01
  -5.262063e+01   6.454066e+01
  -6.821667e+01   7.821014e-01
  -5.279995e+01  -5.170577e+01
  -4.771805e+01  -4.362974e+01
  -6.086825e+01  -1.414171e+00
  -6.805070e+01  -8.019671e-02
  -4.165550e+01  -7.201000e+01
   2.948338e+01  -1.547958e+02
   1.232284e+02  -1.500160e+02
   1.774915e+02  -3.657587e+01
   1.323865e+02   9.466662e+01
   6.294612e+00   1.339967e+02
  -9.152808e+01   6.852598e+01
  -6.346631e+01  -1.274949e+01
   6.052573e+01  -2.182055e+01
   1.412215e+02   4.234652e+01
   7.743718e+01   1.097105e+02
  -8.352690e+01   1.157948e+02
  -1.961495e+02   5.240069e+01
  -1.659202e+02  -3.630056e+01
  -3.654360e+01  -8.855632e+01
   6.375956e+01  -6.919849e+01
   5.049077e+01  -4.238803e+00
  -4.043332e+01   3.034607e+01
  -9.516217e+01  -2.058453e+01
  -3.916313e+01  -1.209787e+02
   8.656559e+01  -1.618816e+02
   1.677990e+02  -7.096529e+01
   1.326016e+02   9.776882e+01
   1.644929e+01   2.017474e+02
  -8.478033e+01   1.486852e+02
  -1.080189e+02  -7.713411e+00
  -6.171819e+01  -1.223094e+02
   5.704778e+00  -1.085095e+02
   4.986030e+01  -1.895328e+01
   5.117494e+01   3.210377e+01
   2.275876e+01   8.009990e+00
   4.713943e+00  -1.994042e+01
   2.602980e+01   1.814968e+01
   5.980238e+01   9.153653e+01
   4.038339e+01   1.106112e+02
  -5.203448e+01   4.610922e+01
  -1.423930e+02  -3.788938e+01
  -1.320680e+02  -7.090480e+01
  -1.924220e+01  -5.280881e+01
   8.722282e+01  -2.587875e+01
   9.041239e+01  -8.239251e+00
   1.434104e+01   9.407327e+00
  -3.766193e+01   2.322626e+01
  -1.682437e+01   1.653271e+01
   1.907334e+01  -2.972065e+00
  -4.727807e+00  -7.707894e+00
  -7.332440e+01  -6.933582e-01
  -9.569538e+01  -2.230464e+01
  -1.606199e+01  -8.321545e+01
   1.157000e+02  -1.217212e+02
   1.922073e+02  -6.702255e+01
   1.526773e+02   6.338191e+01
   3.217652e+01   1.658270e+02
  -8.002944e+01   1.586540e+02
  -1.183392e+02   6.560308e+01
  -8.367058e+01  -1.992523e+01
  -2.702116e+01  -3.742528e+01
   4.354988e-01  -1.105904e+01
  -1.230896e+01  -6.066764e+00
  -3.358152e+01  -4.834706e+01
  -2.256007e+01  -9.324484e+01
   2.914509e+01  -7.457572e+01
   8.289117e+01   1.624886e+01
   8.270439e+01   1.076278e+02
   1.082514e+01   1.150309e+02
  -8.123075e+01   2.976015e+01
  -1.089090e+02  -7.139138e+01
  -3.856342e+01  -1.062210e+02
   6.659283e+01  -6.262640e+01
   1.041343e+02   8.709032e+00
   4.435187e+01   5.509362e+01
  -3.372795e+01   5.860557e+01
  -3.599501e+01   3.013490e+01
   3.150054e+01  -3.528597e+00
   7.106145e+01  -9.080569e+00
   1.741941e+01   2.668356e+01
  -8.046437e+01   6.922971e+01
  -1.210230e+02   5.989390e+01
  -6.957117e+01  -1.362398e+01
   1.394359e+01  -8.699401e+01
   5.581054e+01  -8.464204e+01
   4.182404e+01  -9.794345e+00
   5.088021e+00   5.601713e+01
  -2.489591e+01   4.718836e+01
  -3.807612e+01  -1.461007e+01
  -2.924971e+01  -5.525107e+01
   1.376093e+00  -3.718122e+01
   3.446128e+01   6.643100e+00
   4.241915e+01   2.310029e+01
   2.142484e+01   2.544267e+00
  -2.452746e+00  -1.724575e+01
  -6.970775e+00  -2.100447e+00
  -1.378509e+00   3.566808e+01
  -9.198586e+00   5.008912e+01
  -3.064967e+01   1.504713e+01
  -3.689933e+01  -4.127334e+01
  -5.807931e+00  -6.237458e+01
   4.371851e+01  -2.438576e+01
   6.188427e+01   3.669924e+01
   1.840894e+01   6.364778e+01
  -5.706811e+01   3.700778e+01
  -9.409750e+01  -1.258033e+01
  -5.228506e+01  -4.433196e+01
   2.897623e+01  -4.482426e+01
   6.683553e+01  -2.631988e+01
   2.714136e+01  -6.400812e+00
  -3.438973e+01   8.766238e-01
  -3.723658e+01  -1.130436e+01
   2.774718e+01  -3.002959e+01
   8.790220e+01  -2.244631e+01
