
 $NMID
 id='ANONYMOUS ', fmtdat='(2E16.6)'
 volume=1.0
 tramp=1.0
 $END
  -3.075761e+03   6.394908e+01
  -2.068806e+03  -1.557014e+03
  -4.490018e+00  -1.988504e+03
   1.223411e+03  -1.181464e+03
   9.231241e+02  -1.311185e+02
   2.248600e+00   2.514718e+02
  -4.003557e+02  -8.709878e+01
  -7.873415e+01  -5.516890e+02
   4.291468e+02  -5.779500e+02
   6.300794e+02  -8.986891e+01
   4.258984e+02   4.936136e+02
   6.495215e+00   6.341878e+02
  -3.090758e+02   1.893349e+02
  -2.602381e+02  -3.983342e+02
   1.013234e+02  -5.284741e+02
   3.947675e+02  -8.328927e+01
   2.908953e+02   4.634413e+02
  -1.224224e+02   5.902866e+02
  -4.491943e+02   2.530547e+02
  -4.171301e+02  -1.738961e+02
  -1.217604e+02  -3.452122e+02
   1.183183e+02  -2.375389e+02
   8.048001e+01  -7.693890e+01
  -1.524406e+02  -7.727712e+01
  -2.582906e+02  -2.331396e+02
  -9.647228e+00  -3.280035e+02
   4.189979e+02  -1.738658e+02
   5.739714e+02   1.462607e+02
   2.347019e+02   3.373367e+02
  -2.870855e+02   2.159081e+02
  -4.788955e+02  -9.761331e+01
  -1.961327e+02  -3.352511e+02
   2.323629e+02  -3.398661e+02
   4.237937e+02  -1.340385e+02
   3.099908e+02   1.452735e+02
   8.762597e+01   3.001885e+02
  -3.623685e+01   1.876332e+02
   1.023156e+01  -8.324426e+01
   1.488573e+02  -1.708651e+02
   2.026782e+02   1.056625e+02
   4.678598e+01   4.588146e+02
  -2.193778e+02   4.343570e+02
  -3.255473e+02   1.708771e+01
  -1.386287e+02  -3.029206e+02
   1.407837e+02  -1.534622e+02
   1.836854e+02   2.418729e+02
  -8.932228e+01   3.696463e+02
  -4.138595e+02   6.770932e+01
  -4.600399e+02  -3.362495e+02
  -1.517596e+02  -4.622699e+02
   2.761377e+02  -2.596447e+02
   4.866183e+02   4.978510e+01
   3.250493e+02   2.387309e+02
  -4.268327e+01   2.271875e+02
  -2.794071e+02   8.512070e+01
  -2.114069e+02  -3.748474e+01
  -1.860409e+00  -3.539909e+01
   5.938062e+01   4.741216e+01
  -8.899419e+01   6.899997e+01
  -2.210683e+02  -3.754246e+01
  -1.235471e+02  -1.842413e+02
   1.409685e+02  -2.317509e+02
   3.173365e+02  -1.231497e+02
   2.401527e+02   9.046501e+01
  -2.284651e+01   2.894065e+02
  -2.672174e+02   3.328877e+02
  -3.343370e+02   1.527345e+02
  -2.197887e+02  -1.447973e+02
  -5.218246e+01  -3.351991e+02
   3.452154e+01  -3.014664e+02
   2.942821e+01  -1.587392e+02
   3.521749e+01  -8.877975e+01
   1.212723e+02  -1.009188e+02
   2.233309e+02  -5.405199e+01
   2.217864e+02   1.042237e+02
   8.881983e+01   2.348231e+02
  -8.315249e+01   1.806347e+02
  -1.757967e+02  -3.267845e+01
  -1.283544e+02  -2.213659e+02
   3.940718e+01  -2.308076e+02
   2.253848e+02  -6.192255e+01
   2.862248e+02   1.554906e+02
   1.591181e+02   2.766112e+02
  -4.799620e+01   2.490639e+02
  -1.584287e+02   1.426814e+02
  -1.387849e+02   6.916940e+01
  -1.346874e+02   5.927107e+01
  -2.520788e+02   3.480154e+01
  -3.762259e+02  -8.524194e+01
  -2.951880e+02  -2.724394e+02
   2.075049e+01  -4.019876e+02
   3.486223e+02  -3.651696e+02
   4.398114e+02  -1.623297e+02
   2.664515e+02   8.969977e+01
   2.183985e+01   2.320540e+02
  -8.582095e+01   1.863579e+02
  -1.527458e+01   3.666980e+01
   1.048139e+02  -4.091507e+01
   1.224246e+02   2.996071e+01
   1.237083e+01   1.318318e+02
  -1.072963e+02   1.021208e+02
  -1.051241e+02  -4.579266e+01
   2.286497e+01  -1.237319e+02
   1.488454e+02  -3.458842e+00
   1.407466e+02   2.160132e+02
  -1.825641e+01   3.154252e+02
  -2.224147e+02   1.906317e+02
  -3.280292e+02  -5.752492e+01
  -2.563939e+02  -2.408816e+02
  -5.717236e+01  -2.515515e+02
   1.174739e+02  -1.296295e+02
   1.397987e+02  -7.040321e+00
   3.407226e+01   1.289676e+01
  -4.707310e+01  -5.490587e+01
   1.686882e+00  -1.041102e+02
   1.132206e+02  -6.264790e+01
   1.360716e+02   2.317256e+01
   3.053907e+01   5.059180e+01
  -7.482044e+01  -1.067665e+01
  -3.538058e+01  -8.489629e+01
   1.366474e+02  -8.020278e+01
   2.771053e+02   2.048742e+01
   2.361810e+02   1.564231e+02
   2.598581e+01   2.412397e+02
  -1.900230e+02   2.154779e+02
  -2.470504e+02   9.022127e+01
  -1.280787e+02  -4.141339e+01
   2.638053e+01  -7.288043e+01
   5.965284e+01   3.174029e+00
  -4.777884e+01   7.382457e+01
  -1.697613e+02   3.148887e+01
  -1.735484e+02  -9.497333e+01
  -5.239280e+01  -1.730383e+02
   8.110386e+01  -1.254767e+02
   1.151518e+02  -1.631834e+01
   4.318064e+01   3.275223e+01
  -3.798698e+01  -1.971588e+01
  -2.435531e+01  -1.007059e+02
   8.964432e+01  -1.080886e+02
   1.941150e+02  -1.106484e+01
   1.675311e+02   1.241044e+02
   9.902497e+00   1.920970e+02
  -1.437170e+02   1.388807e+02
  -1.611582e+02   1.060197e+01
  -5.164665e+01  -8.709460e+01
   5.622324e+01  -8.787955e+01
   6.434700e+01  -2.322627e+01
   1.228439e+00   2.222464e+01
  -3.385743e+01   7.606203e+00
   8.886547e+00  -2.363350e+01
   8.219195e+01  -9.841805e-01
   9.680374e+01   8.541992e+01
   9.401001e+00   1.623402e+02
  -1.320915e+02   1.409866e+02
  -2.197615e+02   8.797299e+00
  -1.768621e+02  -1.464708e+02
  -3.417477e+01  -2.105775e+02
   9.320204e+01  -1.472858e+02
   1.191963e+02  -2.870931e+01
   6.844952e+01   4.082851e+01
   3.148977e+01   2.697218e+01
   5.147200e+01  -1.323212e+01
   8.108821e+01  -6.204251e+00
   5.188451e+01   5.364060e+01
  -3.766940e+01   9.845612e+01
  -1.141379e+02   6.208263e+01
  -9.877354e+01  -4.210990e+01
   1.698474e+01  -1.201768e+02
   1.518779e+02  -8.243247e+01
   1.897798e+02   6.158393e+01
   7.745476e+01   1.965991e+02
  -1.156750e+02   2.036902e+02
  -2.465098e+02   7.443302e+01
  -2.247540e+02  -8.334499e+01
  -9.083175e+01  -1.554157e+02
   3.677559e+01  -1.267894e+02
   8.132764e+01  -7.370795e+01
   6.411883e+01  -6.478763e+01
   5.385406e+01  -8.763139e+01
   8.359921e+01  -7.370480e+01
   1.217502e+02   1.680333e+01
   1.100560e+02   1.419412e+02
   2.441485e+01   2.078751e+02
  -9.235363e+01   1.532884e+02
  -1.563528e+02   1.046660e+01
  -1.159915e+02  -1.169272e+02
  -8.402078e+00  -1.434556e+02
   6.917396e+01  -7.384852e+01
   5.717131e+01   1.344229e+01
  -4.146826e+00   4.919136e+01
  -2.485258e+01   3.244432e+01
   2.549861e+01   1.054959e+01
   7.831266e+01   1.658721e+01
   4.622734e+01   3.733641e+01
  -6.782076e+01   3.651200e+01
  -1.602985e+02  -2.648772e+00
  -1.326525e+02  -5.888280e+01
   1.215431e+00  -8.971300e+01
   1.242801e+02  -6.704538e+01
   1.338604e+02  -4.783714e+00
   4.033289e+01   4.632283e+01
  -5.563398e+01   4.061522e+01
  -7.223550e+01  -1.668709e+01
  -1.757534e+01  -6.869982e+01
   4.271869e+01  -6.160393e+01
   6.372024e+01  -2.263098e+00
   5.368723e+01   4.740584e+01
   4.441967e+01   4.025902e+01
   5.106691e+01   1.278801e+00
   5.991086e+01   8.662704e-01
   4.107047e+01   6.744794e+01
  -2.486423e+01   1.416294e+02
  -1.161863e+02   1.345967e+02
  -1.670397e+02   3.040012e+01
  -1.208042e+02  -8.782284e+01
  -1.720240e+00  -1.228978e+02
   8.600343e+01  -6.402564e+01
   5.786218e+01   9.753606e+00
  -5.354206e+01   1.923740e+01
  -1.233206e+02  -3.772596e+01
  -6.500507e+01  -9.744411e+01
   7.676478e+01  -1.002057e+02
   1.733619e+02  -4.053710e+01
   1.434214e+02   3.729334e+01
   2.810459e+01   7.786619e+01
  -5.862883e+01   5.588238e+01
  -4.426079e+01  -1.189291e+00
   3.718084e+01  -2.877340e+01
   8.581504e+01   1.755986e+01
   3.776015e+01   1.066361e+02
  -7.179997e+01   1.448311e+02
  -1.449600e+02   6.677504e+01
  -1.175867e+02  -8.292770e+01
  -1.663898e+01  -1.768619e+02
   7.440960e+01  -1.296830e+02
   9.529611e+01   1.019906e+01
   5.069074e+01   1.101104e+02
  -1.178517e+01   9.382526e+01
  -4.721649e+01   1.323112e+01
  -4.164559e+01  -2.920103e+01
  -1.544736e+01  -6.242287e+00
  -5.239532e+00   1.597950e+01
  -2.780563e+01  -2.001477e+01
  -5.343410e+01  -8.267931e+01
  -2.998171e+01  -9.579006e+01
   5.117670e+01  -3.863250e+01
   1.249345e+02   3.337446e+01
   1.130705e+02   6.272352e+01
   1.697002e+01   4.893030e+01
  -7.391712e+01   2.468781e+01
  -7.924545e+01   5.738817e+00
  -1.590576e+01  -1.098448e+01
   3.138133e+01  -2.009732e+01
   1.759083e+01  -1.149278e+01
  -1.364772e+01   4.106462e+00
   2.822082e+00   4.903139e+00
   6.136430e+01  -1.967446e+00
   8.587308e+01   1.920632e+01
   2.084439e+01   7.510793e+01
  -9.774297e+01   1.104031e+02
  -1.730290e+02   6.299906e+01
  -1.418940e+02  -5.281673e+01
  -3.159966e+01  -1.465058e+02
   7.281157e+01  -1.435984e+02
   1.072255e+02  -6.160611e+01
   7.446754e+01   1.677100e+01
   2.461134e+01   3.485845e+01
   2.229453e+00   1.239749e+01
   1.264955e+01   7.945963e+00
   2.798282e+01   4.486938e+01
   1.699945e+01   8.343397e+01
  -2.628948e+01   6.632907e+01
  -7.242404e+01  -1.274164e+01
  -7.510372e+01  -9.260431e+01
  -1.464174e+01  -1.018722e+02
   6.876930e+01  -3.100828e+01
   9.863261e+01   5.833338e+01
   3.837252e+01   9.475276e+01
  -5.847567e+01   6.034148e+01
  -9.607631e+01  -6.030814e+00
  -4.248709e+01  -5.337621e+01
   3.144191e+01  -5.723895e+01
   3.685873e+01  -2.689813e+01
  -2.412374e+01   6.285132e+00
  -6.286046e+01   9.134541e+00
  -1.716786e+01  -2.509957e+01
   7.141456e+01  -6.117580e+01
   1.105468e+02  -4.984908e+01
   6.559270e+01   1.529758e+01
  -1.154478e+01   7.861463e+01
  -5.273580e+01   7.699452e+01
  -4.179922e+01   1.207785e+01
  -7.600537e+00  -4.822517e+01
   2.137678e+01  -4.490377e+01
   3.444410e+01   8.878281e+00
   2.702305e+01   4.923287e+01
  -4.872726e-01   3.686299e+01
  -3.096493e+01  -4.128745e+00
  -3.877089e+01  -2.304523e+01
  -1.904722e+01  -4.310527e+00
   3.567566e+00   1.851570e+01
   5.650333e+00   7.868975e+00
  -4.362421e+00  -2.973078e+01
   5.890466e-01  -4.938249e+01
   2.511549e+01  -2.101247e+01
   3.878844e+01   3.198221e+01
   1.295103e+01   5.554660e+01
  -3.690929e+01   2.458104e+01
  -5.861328e+01  -2.973923e+01
  -1.915783e+01  -5.548410e+01
   5.204411e+01  -3.392960e+01
   8.635957e+01   9.360220e+00
   4.754322e+01   3.920794e+01
  -2.595542e+01   4.246765e+01
  -6.016299e+01   2.695090e+01
  -2.676814e+01   6.600488e+00
   2.623586e+01  -4.026816e+00
   3.133892e+01   5.048763e+00
  -2.056323e+01   2.395885e+01
  -7.161996e+01   2.114419e+01
