
 $NMID
 id='ANONYMOUS ', fmtdat='(2E16.6)'
 volume=1.0
 tramp=1.0
 $END
   2.903318e+03   1.483479e+02
   1.828537e+03   1.488204e+03
  -1.615790e+01   1.752168e+03
  -1.037289e+03   1.076188e+03
  -7.773077e+02   2.533710e+02
  -4.172804e+01  -7.904583e+01
   2.642455e+02   1.254469e+02
  -1.576976e+00   4.613587e+02
  -4.068140e+02   4.792874e+02
  -5.528421e+02   6.462823e+01
  -3.590970e+02  -4.433912e+02
   5.984372e-03  -5.536758e+02
   2.465036e+02  -1.419244e+02
   1.852290e+02   3.748772e+02
  -1.151779e+02   4.680656e+02
  -3.480923e+02   5.977298e+01
  -2.575356e+02  -4.288589e+02
   9.754037e+01  -5.511402e+02
   4.003882e+02  -2.570258e+02
   3.925390e+02   1.401126e+02
   1.235589e+02   3.136389e+02
  -1.040974e+02   2.130501e+02
  -4.942925e+01   6.211457e+01
   1.911079e+02   9.426230e+01
   2.625774e+02   2.798461e+02
  -3.613293e+01   3.512707e+02
  -4.607004e+02   1.345807e+02
  -5.521336e+02  -2.067082e+02
  -1.692977e+02  -3.440824e+02
   3.232525e+02  -1.592733e+02
   4.554519e+02   1.553965e+02
   1.493788e+02   3.435433e+02
  -2.586477e+02   3.080577e+02
  -4.181812e+02   1.006132e+02
  -2.819288e+02  -1.524291e+02
  -5.958681e+01  -2.728230e+02
   2.931781e+01  -1.439709e+02
  -6.270905e+01   9.851138e+01
  -1.973648e+02   1.301221e+02
  -1.851004e+02  -1.648313e+02
   2.219508e+01  -4.668109e+02
   2.548393e+02  -3.802383e+02
   2.838523e+02   3.217034e+01
   7.543015e+01   2.900999e+02
  -1.502213e+02   1.018573e+02
  -1.408594e+02  -2.692412e+02
   1.250329e+02  -3.510875e+02
   4.092606e+02  -3.365962e+01
   4.328175e+02   3.515735e+02
   1.304444e+02   4.497831e+02
  -2.776920e+02   2.305022e+02
  -4.653881e+02  -7.078684e+01
  -2.942711e+02  -2.264631e+02
   5.139665e+01  -1.874895e+02
   2.511580e+02  -6.056246e+01
   1.784334e+02   1.847504e+01
   6.333792e+00   1.645645e+00
  -2.691365e+01  -4.781307e+01
   1.008846e+02  -3.774846e+01
   1.972716e+02   5.547529e+01
   1.007841e+02   1.712537e+02
  -1.364426e+02   2.184478e+02
  -3.075827e+02   1.314754e+02
  -2.507592e+02  -8.168665e+01
   7.524941e+00  -3.019200e+02
   2.729655e+02  -3.487221e+02
   3.491209e+02  -1.464292e+02
   2.140988e+02   1.600426e+02
   3.132922e+01   3.285418e+02
  -3.694413e+01   2.765741e+02
  -5.944195e+00   1.494527e+02
  -1.693614e+01   1.069374e+02
  -1.308955e+02   1.203412e+02
  -2.445829e+02   5.044450e+01
  -2.265724e+02  -1.228255e+02
  -7.377770e+01  -2.453672e+02
   9.964130e+01  -1.739755e+02
   1.786883e+02   4.863037e+01
   1.169919e+02   2.336717e+02
  -5.525214e+01   2.296990e+02
  -2.320591e+02   4.785382e+01
  -2.769030e+02  -1.681102e+02
  -1.439578e+02  -2.727709e+02
   5.048138e+01  -2.333205e+02
   1.446327e+02  -1.350297e+02
   1.254036e+02  -7.810622e+01
   1.362340e+02  -7.159574e+01
   2.633220e+02  -3.633612e+01
   3.830917e+02   9.223917e+01
   2.927662e+02   2.786514e+02
  -2.857579e+01   4.043532e+02
  -3.574736e+02   3.628025e+02
  -4.439009e+02   1.523839e+02
  -2.589655e+02  -1.018989e+02
  -6.629202e+00  -2.315830e+02
   9.186547e+01  -1.702441e+02
   3.712789e+00  -2.507192e+01
  -1.181187e+02   3.097108e+01
  -1.174731e+02  -4.773590e+01
   5.120009e+00  -1.309313e+02
   1.133736e+02  -8.257307e+01
   9.233524e+01   5.802663e+01
  -3.685983e+01   1.157670e+02
  -1.493338e+02  -8.978924e+00
  -1.341889e+02  -2.170584e+02
   2.061742e+01  -3.113551e+02
   2.224858e+02  -1.927471e+02
   3.315664e+02   5.415994e+01
   2.587775e+02   2.460314e+02
   5.191370e+01   2.596384e+02
  -1.244882e+02   1.282328e+02
  -1.383180e+02  -1.431008e+00
  -2.688717e+01  -1.475721e+01
   4.781623e+01   6.217646e+01
  -9.867752e+00   1.083157e+02
  -1.197991e+02   5.638689e+01
  -1.333603e+02  -3.250214e+01
  -2.259220e+01  -5.309253e+01
   8.042988e+01   1.541933e+01
   3.584145e+01   9.138978e+01
  -1.409117e+02   8.406986e+01
  -2.839744e+02  -2.219178e+01
  -2.396894e+02  -1.641288e+02
  -2.050856e+01  -2.487029e+02
   2.004550e+02  -2.139264e+02
   2.508914e+02  -8.045947e+01
   1.213754e+02   4.778056e+01
  -3.384358e+01   6.863287e+01
  -5.785083e+01  -1.087193e+01
   5.568464e+01  -7.387013e+01
   1.731772e+02  -2.370301e+01
   1.687314e+02   1.015903e+02
   4.474109e+01   1.727007e+02
  -8.558453e+01   1.198887e+02
  -1.144782e+02   9.615920e+00
  -3.789614e+01  -3.696826e+01
   4.484231e+01   2.110551e+01
   2.715431e+01   1.071691e+02
  -9.357523e+01   1.132958e+02
  -1.995890e+02   9.500056e+00
  -1.672868e+02  -1.291957e+02
  -4.669879e+00  -1.927488e+02
   1.462077e+02  -1.336531e+02
   1.570253e+02  -6.018862e+00
   4.522655e+01   8.621929e+01
  -5.939207e+01   8.353814e+01
  -6.347039e+01   1.898533e+01
   2.064995e+00  -2.542017e+01
   3.839146e+01  -8.778536e+00
  -5.494670e+00   2.630964e+01
  -8.314013e+01   5.604946e+00
  -1.010416e+02  -8.445004e+01
  -1.109494e+01  -1.662734e+02
   1.357587e+02  -1.436595e+02
   2.239847e+02  -5.581445e+00
   1.760406e+02   1.513114e+02
   2.991110e+01   2.104624e+02
  -9.522441e+01   1.432824e+02
  -1.175471e+02   2.695655e+01
  -6.633871e+01  -3.885365e+01
  -3.078655e+01  -2.504560e+01
  -5.151100e+01   1.367979e+01
  -8.236212e+01   7.308730e+00
  -5.547171e+01  -5.245792e+01
   3.435637e+01  -1.009008e+02
   1.155513e+02  -6.749725e+01
   1.039899e+02   4.008700e+01
  -1.460327e+01   1.242881e+02
  -1.555100e+02   8.662157e+01
  -1.940741e+02  -6.375739e+01
  -7.587005e+01  -2.025276e+02
   1.218686e+02  -2.056411e+02
   2.504187e+02  -7.022260e+01
   2.229137e+02   8.865384e+01
   8.618119e+01   1.571475e+02
  -3.994603e+01   1.251978e+02
  -8.176089e+01   7.110811e+01
  -6.291440e+01   6.242851e+01
  -5.236269e+01   8.619993e+01
  -8.271890e+01   7.368465e+01
  -1.215017e+02  -1.631587e+01
  -1.093253e+02  -1.424123e+02
  -2.228481e+01  -2.086613e+02
   9.496261e+01  -1.520119e+02
   1.574104e+02  -6.651990e+00
   1.145035e+02   1.207587e+02
   4.927674e+00   1.449485e+02
  -7.340744e+01   7.297464e+01
  -6.042069e+01  -1.587673e+01
   3.833336e+00  -5.271244e+01
   2.753289e+01  -3.565849e+01
  -2.275128e+01  -1.136157e+01
  -7.817584e+01  -1.525384e+01
  -4.729296e+01  -3.694462e+01
   6.909418e+01  -3.844798e+01
   1.640141e+02   1.465003e+00
   1.349291e+02   6.164285e+01
  -2.679797e+00   9.442671e+01
  -1.272841e+02   6.885082e+01
  -1.356133e+02   2.584390e+00
  -4.114459e+01  -4.901298e+01
   5.467369e+01  -4.131638e+01
   7.237070e+01   1.656712e+01
   2.008391e+01   6.757635e+01
  -3.994858e+01   6.088185e+01
  -6.378072e+01   3.677757e+00
  -5.584989e+01  -4.522469e+01
  -4.526339e+01  -3.992281e+01
  -4.998456e+01  -2.644245e+00
  -5.981713e+01  -1.538468e+00
  -4.318687e+01  -6.677985e+01
   2.332687e+01  -1.416588e+02
   1.176971e+02  -1.366038e+02
   1.700479e+02  -3.265105e+01
   1.223643e+02   8.779130e+01
   1.599696e+00   1.250475e+02
  -8.606202e+01   6.618179e+01
  -5.741741e+01  -8.902504e+00
   5.339294e+01  -1.882215e+01
   1.220965e+02   3.891209e+01
   6.324980e+01   9.876989e+01
  -7.863014e+01   9.972124e+01
  -1.748975e+02   3.759463e+01
  -1.434947e+02  -4.072186e+01
  -2.610010e+01  -7.911908e+01
   6.136281e+01  -5.456286e+01
   4.582757e+01   3.039592e+00
  -3.680929e+01   2.953636e+01
  -8.549645e+01  -1.711323e+01
  -3.774288e+01  -1.049583e+02
   7.018025e+01  -1.422943e+02
   1.419860e+02  -6.544876e+01
   1.152100e+02   8.198127e+01
   1.556567e+01   1.747397e+02
  -7.528047e+01   1.278198e+02
  -9.597929e+01  -1.176641e+01
  -4.941284e+01  -1.118984e+02
   1.506902e+01  -9.525656e+01
   4.933540e+01  -1.307144e+01
   4.051079e+01   3.092593e+01
   1.362298e+01   7.871811e+00
   6.262077e+00  -1.579448e+01
   3.050022e+01   1.936742e+01
   5.351914e+01   8.283542e+01
   2.680283e+01   9.708413e+01
  -5.347774e+01   3.951769e+01
  -1.237368e+02  -3.424688e+01
  -1.110246e+02  -6.448269e+01
  -1.745899e+01  -4.944010e+01
   7.201136e+01  -2.341674e+01
   7.924907e+01  -4.529019e+00
   1.774776e+01   1.054461e+01
  -3.093250e+01   1.893277e+01
  -1.958016e+01   1.146777e+01
   1.207313e+01  -3.188424e+00
  -1.633233e+00  -4.858689e+00
  -5.901691e+01   1.015613e+00
  -8.547188e+01  -1.894932e+01
  -2.285822e+01  -7.268387e+01
   9.541958e+01  -1.082938e+02
   1.719075e+02  -6.397661e+01
   1.416051e+02   4.970160e+01
   3.147722e+01   1.446351e+02
  -7.254900e+01   1.441875e+02
  -1.063595e+02   6.273456e+01
  -7.378447e+01  -1.666586e+01
  -2.518117e+01  -3.505155e+01
  -3.938425e+00  -1.209627e+01
  -1.406315e+01  -8.047816e+00
  -2.789945e+01  -4.607906e+01
  -1.594850e+01  -8.452202e+01
   2.652720e+01  -6.613965e+01
   7.107218e+01   1.294495e+01
   7.375674e+01   9.100878e+01
   1.554021e+01   9.947877e+01
  -6.584555e+01   3.064254e+01
  -9.659044e+01  -5.625889e+01
  -3.921072e+01  -9.304043e+01
   5.644887e+01  -6.098968e+01
   9.605338e+01   4.493905e+00
   4.473613e+01   5.343012e+01
  -2.996340e+01   5.898077e+01
  -3.819821e+01   2.857952e+01
   2.169680e+01  -5.593191e+00
   6.215158e+01  -9.064081e+00
   1.803998e+01   2.481792e+01
  -7.147223e+01   6.053340e+01
  -1.124908e+02   4.941409e+01
  -6.762200e+01  -1.495756e+01
   1.103877e+01  -7.831968e+01
   5.304958e+01  -7.823553e+01
   4.173107e+01  -1.466043e+01
   7.690399e+00   4.641520e+01
  -2.009048e+01   4.522966e+01
  -3.286244e+01  -7.532981e+00
  -2.708736e+01  -4.878151e+01
  -1.074725e+00  -3.755278e+01
   3.024023e+01   3.575875e+00
   3.982485e+01   2.342162e+01
   1.975403e+01   4.962967e+00
  -5.128746e+00  -1.885405e+01
  -7.767319e+00  -9.830835e+00
   5.110307e+00   2.688740e+01
   3.342122e+00   4.767389e+01
  -2.151036e+01   2.225445e+01
  -3.845510e+01  -2.829919e+01
  -1.502258e+01  -5.239127e+01
   3.515900e+01  -2.444759e+01
   5.822014e+01   2.759583e+01
   1.927857e+01   5.393797e+01
  -5.195375e+01   3.442412e+01
  -8.608523e+01  -8.050770e+00
  -4.745478e+01  -3.875889e+01
   2.505154e+01  -4.305710e+01
   5.887323e+01  -2.796349e+01
   2.711131e+01  -7.769522e+00
  -2.362052e+01   3.188011e+00
  -2.874593e+01  -4.360241e+00
   2.042959e+01  -2.140056e+01
   6.905052e+01  -1.862572e+01
