
 $NMID
 id='ANONYMOUS ', fmtdat='(2E16.6)'
 volume=1.0
 tramp=1.0
 $END
   3.816754e+03  -5.324642e+01
   2.391095e+03   2.072636e+03
  -2.867844e+02   2.401468e+03
  -1.624903e+03   1.129563e+03
  -9.489316e+02  -1.554221e+02
   2.789938e+02  -3.611003e+02
   6.094717e+02   2.553450e+02
   3.116456e+01   7.950321e+02
  -6.215765e+02   6.896948e+02
  -7.886644e+02   1.799385e+01
  -4.571157e+02  -6.714961e+02
   9.354552e+01  -7.699712e+02
   4.561813e+02  -1.606431e+02
   3.203941e+02   5.601920e+02
  -1.777437e+02   6.504713e+02
  -5.034850e+02   4.973262e+01
  -3.039660e+02  -5.789049e+02
   2.008012e+02  -6.437568e+02
   5.211305e+02  -2.102082e+02
   4.302275e+02   2.464550e+02
   9.183272e+01   3.987664e+02
  -1.726342e+02   2.615091e+02
  -1.342428e+02   5.243846e+01
   1.606997e+02   1.054010e+01
   3.518036e+02   2.045008e+02
   8.931158e+01   4.061041e+02
  -4.774504e+02   2.921951e+02
  -7.372248e+02  -1.303572e+02
  -3.276354e+02  -4.546335e+02
   3.625729e+02  -3.420038e+02
   6.298010e+02   8.359553e+01
   2.721054e+02   4.244080e+02
  -2.721867e+02   4.411588e+02
  -5.144364e+02   1.743596e+02
  -3.756039e+02  -1.880706e+02
  -8.480297e+01  -3.905114e+02
   1.059251e+02  -2.321521e+02
   5.674202e+01   1.554859e+02
  -1.786838e+02   2.949477e+02
  -3.251690e+02  -8.791747e+01
  -1.293972e+02  -5.952243e+02
   2.812707e+02  -5.763351e+02
   4.627357e+02  -4.896022e+00
   1.913814e+02   4.319896e+02
  -2.188341e+02   2.274760e+02
  -2.814402e+02  -3.008522e+02
   8.792141e+01  -4.737241e+02
   5.049193e+02  -1.036803e+02
   5.545699e+02   3.858674e+02
   1.742390e+02   5.441172e+02
  -3.383481e+02   3.157614e+02
  -5.814515e+02  -5.869218e+01
  -3.676011e+02  -3.101734e+02
   9.331123e+01  -2.951527e+02
   3.634716e+02  -7.745594e+01
   2.314608e+02   1.012500e+02
  -5.060437e+01   6.032648e+01
  -9.356680e+01  -9.803320e+01
   1.319012e+02  -1.207366e+02
   2.886024e+02   5.674150e+01
   1.385444e+02   2.433099e+02
  -1.729625e+02   2.604976e+02
  -3.404290e+02   1.194022e+02
  -2.424625e+02  -8.604085e+01
   1.386070e+01  -2.837958e+02
   2.576260e+02  -3.641766e+02
   3.594026e+02  -2.003454e+02
   2.701646e+02   1.496537e+02
   7.113618e+01   4.015791e+02
  -6.648314e+01   3.545584e+02
  -6.240816e+01   1.473494e+02
  -2.541758e+01   5.567270e+01
  -9.404111e+01   1.105175e+02
  -2.305885e+02   9.759566e+01
  -2.677349e+02  -8.707268e+01
  -1.296585e+02  -2.682359e+02
   8.340826e+01  -2.288231e+02
   2.137876e+02   1.475329e+01
   1.721217e+02   2.458902e+02
  -2.701735e+01   2.772349e+02
  -2.602436e+02   9.357976e+01
  -3.421687e+02  -1.675985e+02
  -1.862705e+02  -3.247716e+02
   6.872710e+01  -2.899769e+02
   1.932113e+02  -1.451336e+02
   1.484392e+02  -5.113612e+01
   1.266852e+02  -5.932862e+01
   2.632017e+02  -5.810365e+01
   4.173941e+02   7.001712e+01
   3.390252e+02   2.904820e+02
  -4.948493e+00   4.492966e+02
  -3.701214e+02   4.208092e+02
  -4.887995e+02   2.001954e+02
  -3.171404e+02  -9.372176e+01
  -4.035720e+01  -2.759573e+02
   1.088395e+02  -2.277004e+02
   4.269940e+01  -3.309665e+01
  -1.172533e+02   7.459265e+01
  -1.646379e+02  -2.280026e+01
  -2.936166e+01  -1.703014e+02
   1.389447e+02  -1.389599e+02
   1.444503e+02   5.658389e+01
  -2.260794e+01   1.628996e+02
  -1.804851e+02   1.775925e+01
  -1.650056e+02  -2.421662e+02
   1.790679e+01  -3.519925e+02
   2.362827e+02  -2.109672e+02
   3.517477e+02   5.420441e+01
   2.904361e+02   2.505634e+02
   8.359336e+01   2.748143e+02
  -1.220987e+02   1.554129e+02
  -1.663501e+02   1.528970e+01
  -4.623331e+01  -2.243926e+01
   6.256221e+01   5.193641e+01
   1.317459e+01   1.223247e+02
  -1.262435e+02   8.554818e+01
  -1.651457e+02  -1.889456e+01
  -4.467224e+01  -6.429201e+01
   8.425829e+01  -1.971950e+00
   4.945203e+01   8.600586e+01
  -1.385740e+02   9.331280e+01
  -3.000337e+02  -5.563279e+00
  -2.695356e+02  -1.548448e+02
  -4.857473e+01  -2.649842e+02
   1.971184e+02  -2.557888e+02
   2.794267e+02  -1.171621e+02
   1.557483e+02   4.732743e+01
  -2.743119e+01   9.468140e+01
  -7.807694e+01   1.468804e+00
   4.412628e+01  -9.318224e+01
   1.935276e+02  -4.920561e+01
   2.052641e+02   1.020184e+02
   6.649217e+01   1.996518e+02
  -9.070045e+01   1.499616e+02
  -1.359589e+02   2.466360e+01
  -5.843947e+01  -3.920495e+01
   3.820454e+01   9.590230e+00
   3.570365e+01   1.000889e+02
  -8.497382e+01   1.212804e+02
  -2.096797e+02   2.516671e+01
  -1.931793e+02  -1.285355e+02
  -1.984365e+01  -2.169179e+02
   1.600170e+02  -1.625894e+02
   1.861367e+02  -1.244391e+01
   6.220784e+01   1.043680e+02
  -6.349309e+01   1.054199e+02
  -7.684986e+01   2.888205e+01
  -9.217819e+00  -2.643221e+01
   3.134604e+01  -1.464163e+01
  -8.167273e+00   1.878188e+01
  -8.223955e+01   1.789480e-01
  -1.024779e+02  -8.609692e+01
  -1.774910e+01  -1.714838e+02
   1.346817e+02  -1.597863e+02
   2.412270e+02  -2.272449e+01
   2.039221e+02   1.538610e+02
   4.479150e+01   2.358706e+02
  -1.032354e+02   1.690955e+02
  -1.336886e+02   3.271082e+01
  -7.446609e+01  -4.806627e+01
  -3.269541e+01  -3.152209e+01
  -5.531652e+01   1.513318e+01
  -8.582488e+01   9.283810e+00
  -5.300200e+01  -5.335650e+01
   3.846653e+01  -1.014268e+02
   1.144303e+02  -6.759329e+01
   1.014349e+02   3.816387e+01
  -1.221374e+01   1.247453e+02
  -1.552346e+02   9.484418e+01
  -2.082158e+02  -5.554730e+01
  -9.846473e+01  -2.107704e+02
   1.144819e+02  -2.323229e+02
   2.709285e+02  -9.534982e+01
   2.565986e+02   8.504863e+01
   1.086974e+02   1.735133e+02
  -3.744984e+01   1.452782e+02
  -9.093569e+01   8.493655e+01
  -7.331366e+01   7.224960e+01
  -6.053336e+01   9.582404e+01
  -9.072879e+01   8.088914e+01
  -1.328909e+02  -1.680389e+01
  -1.243204e+02  -1.537140e+02
  -3.361037e+01  -2.292162e+02
   9.769694e+01  -1.742202e+02
   1.754153e+02  -1.918429e+01
   1.358975e+02   1.245598e+02
   1.703496e+01   1.604941e+02
  -7.193422e+01   8.899448e+01
  -6.360473e+01  -6.786968e+00
  -1.320155e+00  -5.044085e+01
   1.957910e+01  -3.718681e+01
  -3.156425e+01  -1.439762e+01
  -8.407243e+01  -1.794466e+01
  -4.977708e+01  -3.868581e+01
   6.952098e+01  -4.146021e+01
   1.704147e+02  -4.646365e+00
   1.482717e+02   5.616332e+01
   8.540639e+00   9.628934e+01
  -1.293909e+02   7.856807e+01
  -1.479853e+02   1.221103e+01
  -4.824558e+01  -4.641571e+01
   5.980418e+01  -4.346380e+01
   7.898637e+01   1.675569e+01
   1.677930e+01   7.200945e+01
  -4.888931e+01   6.469003e+01
  -6.747642e+01   2.601153e+00
  -5.457823e+01  -4.943474e+01
  -4.812459e+01  -4.219438e+01
  -5.875322e+01  -8.654654e-01
  -6.656670e+01   6.270755e-01
  -4.343312e+01  -7.038540e+01
   2.570377e+01  -1.529998e+02
   1.202016e+02  -1.498866e+02
   1.761735e+02  -3.896739e+01
   1.323758e+02   9.141090e+01
   7.495918e+00   1.326765e+02
  -8.956045e+01   6.991379e+01
  -6.255432e+01  -1.091641e+01
   5.888873e+01  -2.218252e+01
   1.382831e+02   3.967558e+01
   7.633743e+01   1.067312e+02
  -8.113498e+01   1.141454e+02
  -1.917490e+02   5.235102e+01
  -1.624536e+02  -3.503558e+01
  -3.573001e+01  -8.646682e+01
   6.266177e+01  -6.732518e+01
   4.980792e+01  -3.398285e+00
  -3.927815e+01   3.097938e+01
  -9.374585e+01  -1.838896e+01
  -4.086868e+01  -1.172613e+02
   8.078233e+01  -1.594255e+02
   1.616010e+02  -7.250939e+01
   1.307149e+02   9.266942e+01
   1.936052e+01   1.963482e+02
  -8.085221e+01   1.460126e+02
  -1.060876e+02  -7.005202e+00
  -6.121386e+01  -1.197626e+02
   6.232174e+00  -1.064055e+02
   4.981699e+01  -1.861340e+01
   4.956285e+01   3.134232e+01
   2.092387e+01   7.842855e+00
   4.836666e+00  -1.922320e+01
   2.757111e+01   1.792741e+01
   6.014918e+01   8.909053e+01
   3.916861e+01   1.077125e+02
  -5.197138e+01   4.584715e+01
  -1.394807e+02  -3.511192e+01
  -1.290881e+02  -6.792282e+01
  -1.982698e+01  -5.201211e+01
   8.378141e+01  -2.666682e+01
   8.828144e+01  -8.810277e+00
   1.540903e+01   9.363930e+00
  -3.600117e+01   2.288407e+01
  -1.737921e+01   1.584205e+01
   1.750432e+01  -3.205740e+00
  -4.108045e+00  -7.088417e+00
  -7.039724e+01   6.762686e-01
  -9.418850e+01  -2.015015e+01
  -1.897913e+01  -8.076578e+01
   1.097601e+02  -1.209012e+02
   1.874201e+02  -6.971387e+01
   1.517740e+02   5.803903e+01
   3.470449e+01   1.612742e+02
  -7.618515e+01   1.574755e+02
  -1.150861e+02   6.717825e+01
  -8.213405e+01  -1.799398e+01
  -2.737644e+01  -3.663078e+01
  -8.024423e-01  -1.125009e+01
  -1.294567e+01  -6.281150e+00
  -3.329318e+01  -4.761720e+01
  -2.265867e+01  -9.150302e+01
   2.754220e+01  -7.351161e+01
   8.083575e+01   1.435316e+01
   8.265056e+01   1.030919e+02
   1.369100e+01   1.117514e+02
  -7.755549e+01   3.122398e+01
  -1.075892e+02  -6.660319e+01
  -4.054368e+01  -1.030331e+02
   6.350194e+01  -6.355764e+01
   1.028919e+02   6.068487e+00
   4.566104e+01   5.417854e+01
  -3.194778e+01   5.953821e+01
  -3.618158e+01   3.066807e+01
   2.929420e+01  -4.347013e+00
   6.922977e+01  -1.020791e+01
   1.810313e+01   2.606001e+01
  -7.778007e+01   6.885905e+01
  -1.188872e+02   5.982624e+01
  -6.979105e+01  -1.276655e+01
   1.196736e+01  -8.565322e+01
   5.407972e+01  -8.459150e+01
   4.172010e+01  -1.174242e+01
   6.499161e+00   5.394812e+01
  -2.310168e+01   4.732936e+01
  -3.716618e+01  -1.249208e+01
  -2.976467e+01  -5.357786e+01
   1.192438e-01  -3.743046e+01
   3.371912e+01   5.445813e+00
   4.249082e+01   2.258256e+01
   2.126877e+01   2.762211e+00
  -3.445393e+00  -1.759378e+01
  -7.437153e+00  -3.741995e+00
   5.367138e-01   3.369347e+01
  -5.495077e+00   4.964361e+01
  -2.824107e+01   1.711502e+01
  -3.788002e+01  -3.778448e+01
  -8.853900e+00  -6.006311e+01
   4.153187e+01  -2.511679e+01
   6.181744e+01   3.375227e+01
   1.963255e+01   6.139460e+01
  -5.558425e+01   3.753793e+01
  -9.287951e+01  -1.007295e+01
  -5.213273e+01  -4.244909e+01
   2.744596e+01  -4.509561e+01
   6.483490e+01  -2.787072e+01
   2.712768e+01  -7.253947e+00
  -3.201945e+01   1.765292e+00
  -3.550943e+01  -9.301725e+00
   2.588588e+01  -2.852632e+01
   8.372588e+01  -2.281837e+01
