
 $NMID
 id='ANONYMOUS ', fmtdat='(2E16.6)'
 volume=1.0
 tramp=1.0
 $END
   3.789933e+03   1.083235e+02
   2.225469e+03   2.199587e+03
  -4.836137e+02   2.343615e+03
  -1.690264e+03   9.343706e+02
  -8.600621e+02  -3.024874e+02
   3.928524e+02  -3.601425e+02
   6.325921e+02   3.322205e+02
  -2.632991e+01   8.287132e+02
  -6.757526e+02   6.485017e+02
  -7.843588e+02  -4.707053e+01
  -4.004791e+02  -7.045597e+02
   1.595256e+02  -7.527260e+02
   4.839019e+02  -1.135145e+02
   2.937093e+02   5.922739e+02
  -2.208019e+02   6.357732e+02
  -5.056767e+02   9.930811e+00
  -2.582173e+02  -5.870870e+02
   2.409115e+02  -5.984153e+02
   5.108967e+02  -1.513919e+02
   3.854486e+02   2.712370e+02
   5.458686e+01   3.878648e+02
  -1.904231e+02   2.403664e+02
  -1.468999e+02   3.074453e+01
   1.503252e+02  -1.414100e+01
   3.536430e+02   1.871664e+02
   1.001594e+02   4.075853e+02
  -4.715905e+02   2.990619e+02
  -7.363171e+02  -1.408420e+02
  -3.195141e+02  -4.777617e+02
   3.769678e+02  -3.514098e+02
   6.351039e+02   9.519709e+01
   2.633200e+02   4.355425e+02
  -2.822510e+02   4.342477e+02
  -5.135688e+02   1.556546e+02
  -3.619446e+02  -2.042456e+02
  -5.977630e+01  -3.970071e+02
   1.361552e+02  -2.249430e+02
   7.409185e+01   1.764010e+02
  -1.883078e+02   3.153871e+02
  -3.463037e+02  -8.597780e+01
  -1.298297e+02  -6.063689e+02
   3.059536e+02  -5.740412e+02
   4.802138e+02   2.036038e+01
   1.787523e+02   4.567566e+02
  -2.426482e+02   2.295811e+02
  -2.864894e+02  -3.109475e+02
   9.816535e+01  -4.724435e+02
   5.025100e+02  -8.999325e+01
   5.297731e+02   3.935516e+02
   1.467491e+02   5.361948e+02
  -3.467326e+02   2.977142e+02
  -5.668163e+02  -7.990756e+01
  -3.394986e+02  -3.268651e+02
   1.190031e+02  -2.932952e+02
   3.693586e+02  -5.206522e+01
   2.137507e+02   1.287585e+02
  -7.182022e+01   6.284430e+01
  -9.542315e+01  -1.153714e+02
   1.439810e+02  -1.267854e+02
   2.891252e+02   7.166793e+01
   1.223054e+02   2.520081e+02
  -1.808787e+02   2.420193e+02
  -3.229998e+02   9.390899e+01
  -2.178044e+02  -8.474236e+01
   1.860937e+01  -2.544297e+02
   2.429248e+02  -3.349535e+02
   3.450305e+02  -1.893441e+02
   2.617740e+02   1.485037e+02
   5.715138e+01   3.963768e+02
  -8.822053e+01   3.418861e+02
  -7.623381e+01   1.255873e+02
  -1.999560e+01   3.506459e+01
  -7.730584e+01   1.016312e+02
  -2.166144e+02   9.938382e+01
  -2.603008e+02  -8.183745e+01
  -1.253572e+02  -2.634339e+02
   8.489454e+01  -2.257963e+02
   2.104750e+02   1.385052e+01
   1.661279e+02   2.408153e+02
  -2.986635e+01   2.711731e+02
  -2.553510e+02   8.883778e+01
  -3.287163e+02  -1.706767e+02
  -1.682696e+02  -3.229622e+02
   8.270943e+01  -2.780984e+02
   1.957992e+02  -1.250056e+02
   1.402828e+02  -3.283891e+01
   1.133981e+02  -4.943518e+01
   2.460584e+02  -5.336081e+01
   3.943990e+02   7.248658e+01
   3.159776e+02   2.843270e+02
  -1.452113e+01   4.283789e+02
  -3.612141e+02   3.924228e+02
  -4.727220e+02   1.797613e+02
  -3.065087e+02  -9.912400e+01
  -3.401792e+01  -2.714316e+02
   1.178636e+02  -2.203604e+02
   5.198083e+01  -2.631823e+01
  -1.151612e+02   7.810241e+01
  -1.672894e+02  -2.425034e+01
  -2.726544e+01  -1.728305e+02
   1.457129e+02  -1.366736e+02
   1.461308e+02   6.205518e+01
  -2.701401e+01   1.642265e+02
  -1.785597e+02   1.533252e+01
  -1.511212e+02  -2.375043e+02
   2.942065e+01  -3.346340e+02
   2.282830e+02  -1.915039e+02
   3.274742e+02   6.072741e+01
   2.691915e+02   2.424951e+02
   7.718172e+01   2.629468e+02
  -1.188126e+02   1.478425e+02
  -1.632765e+02   1.102003e+01
  -4.630138e+01  -2.647802e+01
   6.178246e+01   4.831492e+01
   1.378387e+01   1.197345e+02
  -1.237375e+02   8.291666e+01
  -1.619996e+02  -2.173548e+01
  -4.417866e+01  -6.624267e+01
   8.089073e+01  -4.191083e+00
   4.796765e+01   8.050678e+01
  -1.300651e+02   8.539896e+01
  -2.822304e+02  -9.625130e+00
  -2.535987e+02  -1.499789e+02
  -4.408250e+01  -2.529189e+02
   1.917962e+02  -2.425339e+02
   2.723825e+02  -1.074851e+02
   1.516308e+02   5.166393e+01
  -2.916683e+01   9.448878e+01
  -7.909172e+01   2.178014e-01
   4.210795e+01  -9.154608e+01
   1.880830e+02  -4.504751e+01
   1.963274e+02   1.035916e+02
   5.883278e+01   1.954406e+02
  -9.233784e+01   1.433454e+02
  -1.335187e+02   2.076473e+01
  -5.820378e+01  -4.080388e+01
   3.459124e+01   5.570342e+00
   3.383006e+01   9.195739e+01
  -7.955725e+01   1.128382e+02
  -1.981493e+02   2.124706e+01
  -1.817873e+02  -1.259088e+02
  -1.412567e+01  -2.085406e+02
   1.585755e+02  -1.518289e+02
   1.802785e+02  -4.922447e+00
   5.698055e+01   1.047058e+02
  -6.490832e+01   1.009130e+02
  -7.635350e+01   2.568073e+01
  -1.086757e+01  -2.631982e+01
   2.796656e+01  -1.532368e+01
  -7.654849e+00   1.459370e+01
  -7.455174e+01  -3.137254e+00
  -9.230923e+01  -8.211996e+01
  -1.346968e+01  -1.602955e+02
   1.293267e+02  -1.482998e+02
   2.292708e+02  -1.770559e+01
   1.911839e+02   1.505899e+02
   3.635028e+01   2.268348e+02
  -1.045221e+02   1.590437e+02
  -1.288568e+02   2.634312e+01
  -6.829598e+01  -4.956588e+01
  -2.894816e+01  -3.178437e+01
  -5.242465e+01   1.250218e+01
  -8.028811e+01   6.613764e+00
  -4.663387e+01  -5.015426e+01
   3.890814e+01  -9.185800e+01
   1.063793e+02  -5.961243e+01
   9.183699e+01   3.652306e+01
  -1.350927e+01   1.147566e+02
  -1.458409e+02   8.585170e+01
  -1.950430e+02  -5.549688e+01
  -9.073855e+01  -2.012840e+02
   1.121368e+02  -2.192099e+02
   2.602442e+02  -8.551035e+01
   2.436309e+02   8.767887e+01
   9.986935e+01   1.695576e+02
  -3.982155e+01   1.385289e+02
  -8.995627e+01   7.851674e+01
  -7.326883e+01   6.598489e+01
  -6.142697e+01   8.818583e+01
  -8.844053e+01   7.311239e+01
  -1.247930e+02  -2.021429e+01
  -1.132708e+02  -1.492896e+02
  -2.590500e+01  -2.186205e+02
   9.758615e+01  -1.635943e+02
   1.683191e+02  -1.458862e+01
   1.273958e+02   1.215584e+02
   1.317839e+01   1.538180e+02
  -6.992128e+01   8.475430e+01
  -6.040018e+01  -5.606400e+00
  -1.792580e+00  -4.643374e+01
   1.683438e+01  -3.521893e+01
  -3.070634e+01  -1.601166e+01
  -7.808806e+01  -1.999307e+01
  -4.528094e+01  -3.751675e+01
   6.535253e+01  -3.725314e+01
   1.592676e+02  -1.144416e+00
   1.393699e+02   5.532501e+01
   8.490341e+00   9.070086e+01
  -1.225944e+02   7.159272e+01
  -1.409899e+02   8.778773e+00
  -4.557829e+01  -4.400102e+01
   5.766953e+01  -3.843390e+01
   7.398709e+01   1.818212e+01
   1.221152e+01   6.732062e+01
  -4.942809e+01   5.812743e+01
  -6.292650e+01   1.672530e-02
  -4.805442e+01  -4.767764e+01
  -4.371440e+01  -4.090099e+01
  -5.664135e+01  -2.861341e+00
  -6.334189e+01  -1.287408e+00
  -3.783757e+01  -6.670207e+01
   2.937722e+01  -1.427857e+02
   1.164077e+02  -1.382579e+02
   1.653052e+02  -3.263141e+01
   1.217748e+02   8.941949e+01
   4.409634e+00   1.249829e+02
  -8.537700e+01   6.270506e+01
  -5.836597e+01  -1.274473e+01
   5.660270e+01  -1.919605e+01
   1.305179e+02   4.208168e+01
   7.021039e+01   1.038253e+02
  -7.984961e+01   1.066532e+02
  -1.840744e+02   4.545421e+01
  -1.544846e+02  -3.695780e+01
  -3.249842e+01  -8.362435e+01
   6.122994e+01  -6.377562e+01
   4.782313e+01  -3.219650e+00
  -3.768543e+01   2.761002e+01
  -8.781431e+01  -2.055222e+01
  -3.400860e+01  -1.125248e+02
   8.320939e+01  -1.479022e+02
   1.565690e+02  -6.214222e+01
   1.207878e+02   9.326352e+01
   1.133034e+01   1.873628e+02
  -8.170203e+01   1.365649e+02
  -1.007604e+02  -8.949653e+00
  -5.566989e+01  -1.152412e+02
   7.250588e+00  -1.019187e+02
   4.708447e+01  -1.742372e+01
   4.727097e+01   3.129482e+01
   2.108155e+01   8.680524e+00
   4.959757e+00  -1.869833e+01
   2.428810e+01   1.630416e+01
   5.417920e+01   8.588544e+01
   3.547941e+01   1.045104e+02
  -4.924779e+01   4.288144e+01
  -1.315864e+02  -3.788532e+01
  -1.215744e+02  -6.881957e+01
  -1.731470e+01  -4.927880e+01
   8.131006e+01  -2.184813e+01
   8.440528e+01  -6.004128e+00
   1.344480e+01   8.309077e+00
  -3.555701e+01   2.059523e+01
  -1.631497e+01   1.567173e+01
   1.767296e+01  -1.800140e+00
  -3.995353e+00  -7.568036e+00
  -6.781273e+01  -2.664559e+00
  -8.832082e+01  -2.222324e+01
  -1.336923e+01  -7.635575e+01
   1.093586e+02  -1.100675e+02
   1.788930e+02  -5.916663e+01
   1.397662e+02   6.055553e+01
   2.676001e+01   1.540353e+02
  -7.646927e+01   1.460969e+02
  -1.103183e+02   5.908342e+01
  -7.717821e+01  -1.994825e+01
  -2.469386e+01  -3.502440e+01
   2.844632e-01  -9.686980e+00
  -1.167500e+01  -5.423555e+00
  -3.077301e+01  -4.567948e+01
  -1.960917e+01  -8.744506e+01
   2.829745e+01  -6.880610e+01
   7.645427e+01   1.678965e+01
   7.435813e+01   1.012069e+02
   7.786408e+00   1.061437e+02
  -7.531506e+01   2.544123e+01
  -9.893854e+01  -6.807091e+01
  -3.385547e+01  -9.855703e+01
   6.212722e+01  -5.665985e+01
   9.606637e+01   9.337947e+00
   4.084073e+01   5.116144e+01
  -3.135841e+01   5.383188e+01
  -3.366889e+01   2.818999e+01
   2.896148e+01  -1.925423e+00
   6.596246e+01  -7.120884e+00
   1.587157e+01   2.471343e+01
  -7.594503e+01   6.290875e+01
  -1.138047e+02   5.422837e+01
  -6.471643e+01  -1.303124e+01
   1.424350e+01  -8.032142e+01
   5.279601e+01  -7.808171e+01
   3.819247e+01  -9.003924e+00
   3.354239e+00   5.164693e+01
  -2.344731e+01   4.311313e+01
  -3.437325e+01  -1.431170e+01
  -2.618878e+01  -5.161149e+01
   1.295166e+00  -3.418166e+01
   3.156266e+01   6.783339e+00
   3.936570e+01   2.185986e+01
   2.019675e+01   2.623239e+00
  -2.458518e+00  -1.565840e+01
  -7.485378e+00  -1.863435e+00
  -2.498080e+00   3.223767e+01
  -8.938400e+00   4.481414e+01
  -2.751566e+01   1.270878e+01
  -3.245950e+01  -3.815788e+01
  -3.965548e+00  -5.667636e+01
   4.060444e+01  -2.142227e+01
   5.616214e+01   3.465042e+01
   1.568732e+01   5.898184e+01
  -5.336886e+01   3.356384e+01
  -8.670285e+01  -1.290289e+01
  -4.770370e+01  -4.187292e+01
   2.720522e+01  -4.102776e+01
   6.185434e+01  -2.325440e+01
   2.502068e+01  -5.887219e+00
  -3.160465e+01  -6.682711e-01
  -3.361515e+01  -1.167434e+01
   2.693913e+01  -2.684665e+01
   8.211043e+01  -1.818027e+01
