
 $NMID
 id='ANONYMOUS ', fmtdat='(2E16.6)'
 volume=1.0
 tramp=1.0
 $END
  -4.826083e+03  -4.279570e+01
  -2.688059e+03  -3.037130e+03
   1.047465e+03  -3.039580e+03
   2.468857e+03  -7.481090e+02
   9.490860e+02   9.848048e+02
  -9.246931e+02   7.046511e+02
  -1.080531e+03  -5.810347e+02
   5.357046e+01  -1.270871e+03
   9.957985e+02  -8.499748e+02
   1.058578e+03   1.821679e+02
   4.475260e+02   1.015367e+03
  -3.522078e+02   9.875668e+02
  -7.700656e+02   7.802456e+01
  -4.255792e+02  -8.510249e+02
   3.458747e+02  -8.339200e+02
   6.926621e+02   5.031760e+01
   2.567259e+02   7.725448e+02
  -4.126892e+02   6.476371e+02
  -6.387839e+02   1.936648e+01
  -3.709306e+02  -4.280506e+02
   3.064866e+01  -4.731567e+02
   2.935001e+02  -2.708295e+02
   2.653539e+02   8.226067e+00
  -9.696712e+01   1.491432e+02
  -4.613193e+02  -6.744315e+01
  -2.692680e+02  -4.700885e+02
   4.758056e+02  -4.999647e+02
   9.528770e+02   5.383987e+01
   5.023706e+02   6.343781e+02
  -4.358522e+02   5.854265e+02
  -8.476291e+02  -1.640057e+01
  -4.019198e+02  -5.413096e+02
   3.050717e+02  -5.845268e+02
   6.225869e+02  -2.232229e+02
   4.558237e+02   2.637511e+02
   6.043137e+01   5.441930e+02
  -2.657157e+02   3.221533e+02
  -2.434461e+02  -2.698331e+02
   1.726058e+02  -5.407978e+02
   5.408958e+02  -1.478410e+01
   3.187047e+02   7.687424e+02
  -3.620307e+02   8.059939e+02
  -7.159315e+02  -3.559288e+00
  -3.057143e+02  -6.552353e+02
   3.524260e+02  -3.851921e+02
   4.636040e+02   3.563001e+02
  -6.133527e+01   6.153745e+02
  -6.093027e+02   1.602697e+02
  -6.424692e+02  -4.369228e+02
  -1.664184e+02  -6.337020e+02
   4.253964e+02  -3.773222e+02
   6.832790e+02   8.777374e+01
   3.909917e+02   4.446955e+02
  -1.998609e+02   4.201078e+02
  -5.096196e+02   4.195874e+01
  -2.543973e+02  -2.627758e+02
   1.674507e+02  -1.380678e+02
   1.793217e+02   1.969578e+02
  -1.945557e+02   2.357475e+02
  -3.984949e+02  -8.947823e+01
  -1.478464e+02  -3.475210e+02
   2.320631e+02  -2.677608e+02
   3.361966e+02  -4.677178e+01
   1.733712e+02   8.627424e+01
  -3.113736e+01   1.910569e+02
  -2.001476e+02   3.128953e+02
  -3.332467e+02   2.406321e+02
  -3.169994e+02  -1.306208e+02
  -8.969558e+01  -4.735592e+02
   1.491494e+02  -4.174203e+02
   1.617956e+02  -9.403073e+01
   2.332938e+01   5.478390e+01
   8.999689e+00  -7.688830e+01
   1.777217e+02  -1.592534e+02
   2.979750e+02   2.852770e+01
   1.882309e+02   2.808357e+02
  -6.426352e+01   2.865672e+02
  -2.463569e+02   3.037944e+01
  -2.251721e+02  -2.448893e+02
  -3.191324e+00  -3.180956e+02
   2.795209e+02  -1.391521e+02
   3.880010e+02   1.696914e+02
   1.967332e+02   3.790935e+02
  -1.202989e+02   3.292044e+02
  -2.555174e+02   1.110924e+02
  -1.562153e+02  -2.347044e+01
  -8.286967e+01   2.144795e+01
  -2.201265e+02   7.448199e+01
  -4.018460e+02  -4.524124e+01
  -3.403570e+02  -2.852762e+02
  -4.759929e+00  -4.508280e+02
   3.581411e+02  -4.237152e+02
   4.996488e+02  -2.123776e+02
   3.606125e+02   9.282819e+01
   6.845316e+01   3.160966e+02
  -1.473094e+02   2.792326e+02
  -1.109592e+02   2.760346e+01
   1.091916e+02  -1.357289e+02
   2.263662e+02  -5.970676e+00
   6.766824e+01   2.217842e+02
  -1.828582e+02   2.020557e+02
  -2.106615e+02  -6.544257e+01
   1.370534e+01  -2.216821e+02
   2.117097e+02  -4.592956e+01
   1.703987e+02   2.582240e+02
  -3.862576e+01   3.578439e+02
  -2.308152e+02   1.874579e+02
  -3.169105e+02  -6.663840e+01
  -2.783294e+02  -2.328974e+02
  -1.081954e+02  -2.621967e+02
   1.091508e+02  -1.700686e+02
   1.914068e+02  -2.689788e+01
   6.971778e+01   4.041088e+01
  -7.823633e+01  -3.002245e+01
  -4.337165e+01  -1.317865e+02
   1.261724e+02  -1.148912e+02
   1.948454e+02   7.384719e+00
   7.047638e+01   8.126692e+01
  -8.003782e+01   2.878139e+01
  -6.249316e+01  -6.540567e+01
   1.140114e+02  -8.603665e+01
   2.751840e+02  -7.186311e+00
   2.670131e+02   1.288595e+02
   7.353081e+01   2.535918e+02
  -1.768109e+02   2.745585e+02
  -2.939517e+02   1.401918e+02
  -1.867761e+02  -5.503434e+01
   2.250050e+01  -1.250790e+02
   1.041074e+02  -1.428496e+01
  -2.416864e+01   1.120690e+02
  -2.031648e+02   7.147357e+01
  -2.275790e+02  -1.035568e+02
  -7.603401e+01  -2.200797e+02
   9.859741e+01  -1.703351e+02
   1.547779e+02  -3.474569e+01
   8.257454e+01   4.464552e+01
  -2.126940e+01   1.395601e+01
  -4.187004e+01  -7.133011e+01
   6.034205e+01  -1.105935e+02
   1.928322e+02  -3.619621e+01
   1.970999e+02   1.189685e+02
   2.639142e+01   2.244812e+02
  -1.706283e+02   1.723508e+02
  -2.060176e+02   4.133761e+00
  -7.097804e+01  -1.256459e+02
   7.026345e+01  -1.209840e+02
   9.093895e+01  -3.383320e+01
   2.684477e+01   2.693856e+01
  -1.446887e+01   2.329089e+01
   1.015400e+01   1.907789e-01
   6.259416e+01   1.367524e+01
   8.015017e+01   7.745959e+01
   1.676954e+01   1.500274e+02
  -1.185418e+02   1.519549e+02
  -2.317823e+02   3.329919e+01
  -2.072219e+02  -1.463736e+02
  -4.454734e+01  -2.430976e+02
   1.136748e+02  -1.762425e+02
   1.405716e+02  -2.559304e+01
   6.972103e+01   6.176530e+01
   2.627635e+01   3.949958e+01
   5.260195e+01  -1.101234e+01
   7.628919e+01  -5.927373e+00
   3.502241e+01   4.624963e+01
  -4.355328e+01   7.916434e+01
  -9.291378e+01   4.916341e+01
  -7.526943e+01  -3.112531e+01
   1.149754e+01  -1.009638e+02
   1.309743e+02  -8.393088e+01
   1.930530e+02   4.355523e+01
   1.083683e+02   1.959025e+02
  -9.729143e+01   2.326624e+02
  -2.676100e+02   1.039681e+02
  -2.654530e+02  -8.405103e+01
  -1.157593e+02  -1.816618e+02
   3.846743e+01  -1.528280e+02
   9.828722e+01  -8.668477e+01
   8.461926e+01  -6.952360e+01
   7.129964e+01  -8.934324e+01
   9.374448e+01  -7.145143e+01
   1.267845e+02   2.425162e+01
   1.167466e+02   1.548235e+02
   3.075029e+01   2.270955e+02
  -9.855008e+01   1.754950e+02
  -1.788906e+02   2.481146e+01
  -1.416413e+02  -1.199703e+02
  -2.376301e+01  -1.621130e+02
   6.406196e+01  -9.817104e+01
   5.934254e+01  -7.473499e+00
   8.920811e+00   3.781617e+01
  -3.118761e+00   3.411979e+01
   4.011584e+01   2.139850e+01
   7.669298e+01   2.524960e+01
   4.212926e+01   3.740984e+01
  -5.942978e+01   3.535761e+01
  -1.505926e+02   4.946856e+00
  -1.426629e+02  -4.600286e+01
  -2.255297e+01  -8.445992e+01
   1.143715e+02  -7.419979e+01
   1.451842e+02  -1.683760e+01
   5.045410e+01   3.684049e+01
  -6.024861e+01   3.439345e+01
  -7.477411e+01  -1.960269e+01
  -2.461754e+00  -6.578728e+01
   6.013565e+01  -5.387396e+01
   6.076993e+01   4.303673e+00
   3.770501e+01   4.972152e+01
   4.117773e+01   4.124539e+01
   6.393771e+01   2.874183e+00
   6.662386e+01   7.218322e-01
   3.077473e+01   6.530698e+01
  -3.586376e+01   1.418080e+02
  -1.122752e+02   1.383305e+02
  -1.564153e+02   3.264079e+01
  -1.192485e+02  -8.944245e+01
  -8.279987e+00  -1.227105e+02
   8.281143e+01  -5.760421e+01
   5.857551e+01   1.708455e+01
  -5.953591e+01   1.953310e+01
  -1.388642e+02  -4.481125e+01
  -7.801647e+01  -1.080434e+02
   7.958556e+01  -1.137015e+02
   1.921070e+02  -5.510121e+01
   1.655859e+02   3.107299e+01
   4.018864e+01   8.764788e+01
  -5.976555e+01   7.433656e+01
  -4.945795e+01   1.111599e+01
   3.801772e+01  -2.487309e+01
   8.924114e+01   2.414761e+01
   2.918710e+01   1.198448e+02
  -9.741174e+01   1.526006e+02
  -1.717385e+02   5.752375e+01
  -1.259574e+02  -1.052189e+02
  -6.554250e+00  -1.997462e+02
   8.776080e+01  -1.453529e+02
   1.049798e+02   4.926004e+00
   6.289627e+01   1.171855e+02
   2.963149e+00   1.084487e+02
  -4.340377e+01   2.270001e+01
  -5.496255e+01  -3.103545e+01
  -3.001452e+01  -9.456712e+00
  -3.186666e+00   2.199916e+01
  -1.620501e+01  -1.212602e+01
  -5.436954e+01  -8.798289e+01
  -4.602518e+01  -1.117890e+02
   4.297760e+01  -4.649383e+01
   1.391883e+02   4.126671e+01
   1.328187e+02   7.256654e+01
   1.701354e+01   4.815744e+01
  -9.137000e+01   1.981589e+01
  -8.932118e+01   8.040742e+00
  -7.893803e+00  -5.337967e+00
   4.060935e+01  -2.243260e+01
   1.191598e+01  -2.068198e+01
  -2.431741e+01   1.086901e-01
   6.888914e+00   1.078819e+01
   7.757230e+01   6.943207e+00
   9.040484e+01   2.558251e+01
   1.623836e+00   7.954165e+01
  -1.243746e+02   1.107554e+02
  -1.842442e+02   5.281226e+01
  -1.352700e+02  -7.247970e+01
  -2.099473e+01  -1.629379e+02
   7.947696e+01  -1.462054e+02
   1.131023e+02  -5.392030e+01
   8.012490e+01   2.339819e+01
   2.378606e+01   3.429103e+01
  -5.491962e+00   6.525993e+00
   8.523650e+00   2.025877e+00
   3.397448e+01   4.427531e+01
   2.413562e+01   8.948322e+01
  -2.975360e+01   7.102503e+01
  -8.187289e+01  -2.099573e+01
  -7.418089e+01  -1.118465e+02
   1.596749e+00  -1.125504e+02
   8.567894e+01  -1.881053e+01
   1.003834e+02   8.120312e+01
   2.697125e+01   1.035737e+02
  -6.789582e+01   5.052015e+01
  -9.444474e+01  -1.484469e+01
  -3.547541e+01  -4.730331e+01
   3.235043e+01  -4.661104e+01
   2.735183e+01  -2.733739e+01
  -3.747801e+01  -2.559447e+00
  -6.952396e+01   4.823021e+00
  -1.299078e+01  -2.409577e+01
   7.995153e+01  -6.504253e+01
   1.132582e+02  -5.968156e+01
   6.002657e+01   1.017518e+01
  -1.768495e+01   8.146285e+01
  -5.127735e+01   7.672366e+01
  -3.309825e+01   1.957024e+00
   1.903628e+00  -5.723720e+01
   2.705357e+01  -3.981835e+01
   3.570514e+01   2.236058e+01
   2.480466e+01   5.413432e+01
  -4.093333e+00   2.940254e+01
  -3.268156e+01  -1.053579e+01
  -3.818936e+01  -1.939524e+01
  -2.040462e+01   4.034830e-01
  -8.456772e-01   1.140615e+01
   7.010643e+00  -8.096773e+00
   1.179094e+01  -3.833482e+01
   2.387995e+01  -4.051433e+01
   3.445376e+01  -7.267357e-01
   2.458426e+01   4.962670e+01
  -9.636285e+00   6.100128e+01
  -4.658654e+01   1.743855e+01
  -5.275417e+01  -4.260904e+01
  -1.116712e+01  -6.416598e+01
   5.407607e+01  -3.210517e+01
   8.600855e+01   1.839166e+01
   4.733551e+01   4.483972e+01
  -2.925860e+01   3.789120e+01
  -6.439777e+01   1.722363e+01
  -2.196598e+01   3.536671e+00
   4.097864e+01   5.332533e+00
   3.912396e+01   2.043682e+01
  -3.446070e+01   3.324563e+01
  -9.684349e+01   1.761087e+01
