
 $NMID
 id='ANONYMOUS ', fmtdat='(2E16.6)'
 volume=1.0
 tramp=1.0
 $END
  -3.610462e+03  -2.443900e+02
  -2.115899e+03  -2.071701e+03
   3.652208e+02  -2.201963e+03
   1.521048e+03  -1.009646e+03
   8.680628e+02   8.913386e+01
  -2.254942e+02   2.419932e+02
  -4.918302e+02  -2.745939e+02
   4.004044e+01  -7.090868e+02
   6.118575e+02  -5.909367e+02
   7.246721e+02   2.094604e+01
   3.859029e+02   6.390733e+02
  -1.173756e+02   7.029261e+02
  -4.073747e+02   1.200601e+02
  -2.446184e+02  -5.366407e+02
   2.040356e+02  -5.911969e+02
   4.644648e+02  -1.902439e+01
   2.568313e+02   5.579124e+02
  -2.072321e+02   6.068986e+02
  -4.963140e+02   1.947842e+02
  -4.049700e+02  -2.389078e+02
  -7.854652e+01  -3.794149e+02
   1.693467e+02  -2.372017e+02
   1.118669e+02  -4.314512e+01
  -1.785609e+02  -3.992983e+01
  -3.273510e+02  -2.520473e+02
  -3.111472e+01  -4.092408e+02
   5.041606e+02  -2.271766e+02
   6.920822e+02   2.015918e+02
   2.558003e+02   4.544576e+02
  -3.852861e+02   2.729666e+02
  -5.880915e+02  -1.474562e+02
  -2.140509e+02  -4.273914e+02
   3.014091e+02  -3.942539e+02
   5.056682e+02  -1.246784e+02
   3.413355e+02   2.034859e+02
   5.191049e+01   3.658506e+02
  -1.015311e+02   1.976607e+02
  -1.024643e+01  -1.529306e+02
   2.129715e+02  -2.433390e+02
   2.901421e+02   1.376809e+02
   4.966199e+01   5.825900e+02
  -3.177780e+02   5.107607e+02
  -4.182929e+02  -4.081113e+01
  -1.288125e+02  -4.127998e+02
   2.212674e+02  -1.776454e+02
   2.275256e+02   3.189632e+02
  -1.304782e+02   4.424122e+02
  -4.929309e+02   5.467141e+01
  -5.059732e+02  -4.140846e+02
  -1.324634e+02  -5.337404e+02
   3.449365e+02  -2.748306e+02
   5.525657e+02   9.732470e+01
   3.301190e+02   3.106416e+02
  -1.034680e+02   2.591026e+02
  -3.390630e+02   4.855881e+01
  -2.071775e+02  -9.191764e+01
   4.169625e+01  -3.650589e+01
   6.636171e+01   9.381406e+01
  -1.364047e+02   8.919448e+01
  -2.623702e+02  -7.696290e+01
  -1.126289e+02  -2.337976e+02
   1.786960e+02  -2.408186e+02
   3.388567e+02  -1.074735e+02
   2.440467e+02   9.527269e+01
  -2.247675e+01   2.917065e+02
  -2.820648e+02   3.546689e+02
  -3.738623e+02   1.707735e+02
  -2.513820e+02  -1.707671e+02
  -3.703942e+01  -3.911278e+02
   7.996912e+01  -3.303452e+02
   5.225033e+01  -1.424142e+02
   2.115236e+01  -6.997040e+01
   1.100808e+02  -1.140701e+02
   2.458192e+02  -7.621969e+01
   2.581789e+02   1.136301e+02
   1.013468e+02   2.749712e+02
  -1.036005e+02   2.131561e+02
  -2.082368e+02  -3.705485e+01
  -1.464179e+02  -2.572526e+02
   5.150034e+01  -2.677611e+02
   2.629049e+02  -6.773913e+01
   3.199432e+02   1.897769e+02
   1.578925e+02   3.246960e+02
  -8.110465e+01   2.722146e+02
  -1.880247e+02   1.317013e+02
  -1.432483e+02   5.169197e+01
  -1.325930e+02   5.926857e+01
  -2.708624e+02   4.129344e+01
  -4.113514e+02  -9.798258e+01
  -3.162619e+02  -3.087600e+02
   3.475593e+01  -4.433109e+02
   3.935911e+02  -3.921511e+02
   4.939845e+02  -1.640790e+02
   3.004742e+02   1.156110e+02
   1.540260e+01   2.707069e+02
  -1.195661e+02   2.073376e+02
  -3.361404e+01   2.599268e+01
   1.258447e+02  -5.761158e+01
   1.537446e+02   4.149172e+01
   8.894548e+00   1.648181e+02
  -1.436646e+02   1.157995e+02
  -1.283963e+02  -6.823132e+01
   3.801593e+01  -1.510904e+02
   1.764499e+02   2.567527e-01
   1.455626e+02   2.472415e+02
  -3.715920e+01   3.437388e+02
  -2.455275e+02   1.970973e+02
  -3.478728e+02  -7.133407e+01
  -2.737330e+02  -2.672445e+02
  -6.234030e+01  -2.799463e+02
   1.331913e+02  -1.443154e+02
   1.621135e+02  -1.106267e+00
   3.941885e+01   2.400608e+01
  -5.762844e+01  -5.954548e+01
  -1.084715e-01  -1.221888e+02
   1.319807e+02  -7.204407e+01
   1.580701e+02   3.284669e+01
   3.496442e+01   6.550141e+01
  -8.574332e+01  -7.077238e+00
  -4.285137e+01  -9.194333e+01
   1.457278e+02  -8.611605e+01
   3.002009e+02   2.456139e+01
   2.583001e+02   1.734288e+02
   2.827982e+01   2.678847e+02
  -2.149028e+02   2.384956e+02
  -2.824436e+02   9.349395e+01
  -1.454639e+02  -5.752001e+01
   3.589140e+01  -8.746315e+01
   7.411180e+01   7.211733e+00
  -5.370426e+01   8.770591e+01
  -1.941100e+02   3.233387e+01
  -1.925926e+02  -1.148977e+02
  -5.014515e+01  -1.987354e+02
   9.916209e+01  -1.386020e+02
   1.335530e+02  -1.293294e+01
   5.118275e+01   4.323134e+01
  -4.126081e+01  -1.420060e+01
  -3.000222e+01  -1.057059e+02
   9.439233e+01  -1.175951e+02
   2.116987e+02  -1.114053e+01
   1.825292e+02   1.406630e+02
   4.393397e+00   2.145395e+02
  -1.671802e+02   1.480852e+02
  -1.808291e+02   3.925261e-01
  -5.198014e+01  -1.042994e+02
   6.934989e+01  -9.718005e+01
   7.586317e+01  -2.191760e+01
   4.755752e+00   2.781221e+01
  -3.497051e+01   1.235606e+01
   7.613242e+00  -2.070814e+01
   8.309573e+01   1.558915e+00
   9.959766e+01   9.110843e+01
   8.349463e+00   1.734035e+02
  -1.447799e+02   1.514215e+02
  -2.415234e+02   6.292667e+00
  -1.914765e+02  -1.659659e+02
  -2.884558e+01  -2.343804e+02
   1.114252e+02  -1.584841e+02
   1.323999e+02  -2.442111e+01
   7.017107e+01   4.972375e+01
   3.066366e+01   3.151060e+01
   5.563321e+01  -1.224686e+01
   8.643027e+01  -4.918167e+00
   5.210247e+01   5.577208e+01
  -4.201408e+01   1.005914e+02
  -1.190554e+02   6.372274e+01
  -1.020515e+02  -4.325520e+01
   1.834986e+01  -1.258802e+02
   1.619577e+02  -8.709908e+01
   2.049835e+02   6.864280e+01
   8.340015e+01   2.170192e+02
  -1.301566e+02   2.230944e+02
  -2.743442e+02   7.591922e+01
  -2.464866e+02  -1.008305e+02
  -9.465351e+01  -1.772750e+02
   4.647214e+01  -1.397375e+02
   9.407250e+01  -7.727108e+01
   7.498652e+01  -6.625949e+01
   6.368373e+01  -9.091711e+01
   9.347772e+01  -7.526789e+01
   1.304111e+02   2.340883e+01
   1.139924e+02   1.587570e+02
   1.928229e+01   2.283262e+02
  -1.073068e+02   1.654376e+02
  -1.741077e+02   6.782731e+00
  -1.256575e+02  -1.325151e+02
  -5.568597e+00  -1.596091e+02
   7.838213e+01  -8.242748e+01
   6.394625e+01   1.253620e+01
  -2.128438e+00   5.225625e+01
  -2.390160e+01   3.705776e+01
   2.845763e+01   1.574327e+01
   8.238666e+01   2.138947e+01
   4.789305e+01   4.095042e+01
  -7.226712e+01   3.813290e+01
  -1.713686e+02  -4.813126e+00
  -1.442611e+02  -6.586816e+01
  -1.089865e+00  -9.826513e+01
   1.345178e+02  -7.104770e+01
   1.474803e+02  -2.222645e+00
   4.500334e+01   5.040970e+01
  -6.102614e+01   4.042699e+01
  -7.728377e+01  -2.078451e+01
  -1.458858e+01  -7.201220e+01
   4.986071e+01  -6.155583e+01
   6.723921e+01   1.847872e-01
   5.322092e+01   5.097536e+01
   4.591426e+01   4.430724e+01
   5.698193e+01   4.619491e+00
   6.559567e+01   3.379100e+00
   4.065322e+01   7.203538e+01
  -3.269293e+01   1.502552e+02
  -1.283845e+02   1.425506e+02
  -1.787380e+02   2.966328e+01
  -1.269104e+02  -9.788196e+01
   3.869239e-01  -1.328849e+02
   9.289210e+01  -6.562931e+01
   6.117614e+01   1.350912e+01
  -5.920154e+01   1.851945e+01
  -1.334507e+02  -4.712277e+01
  -6.822721e+01  -1.100087e+02
   8.742326e+01  -1.076508e+02
   1.925735e+02  -3.911641e+01
   1.578402e+02   4.560820e+01
   2.904418e+01   8.767572e+01
  -6.697482e+01   6.161298e+01
  -4.993616e+01  -9.163220e-01
   4.045567e+01  -2.908275e+01
   9.157881e+01   2.286996e+01
   3.448657e+01   1.170337e+02
  -8.676444e+01   1.520160e+02
  -1.614023e+02   6.286611e+01
  -1.229244e+02  -9.743481e+01
  -8.398349e+00  -1.934864e+02
   8.787321e+01  -1.385410e+02
   1.045111e+02   1.382892e+01
   5.276055e+01   1.224910e+02
  -1.437105e+01   1.049010e+02
  -5.155600e+01   1.505846e+01
  -4.612617e+01  -3.446289e+01
  -1.867228e+01  -9.450346e+00
  -6.423412e+00   1.835695e+01
  -2.817101e+01  -1.949149e+01
  -5.465599e+01  -9.142740e+01
  -3.053557e+01  -1.085837e+02
   5.554212e+01  -4.248021e+01
   1.349788e+02   4.248324e+01
   1.221644e+02   7.469964e+01
   1.696937e+01   5.293172e+01
  -8.270541e+01   2.151551e+01
  -8.742382e+01   3.168543e+00
  -1.601437e+01  -1.028267e+01
   3.623209e+01  -2.004778e+01
   1.929653e+01  -1.419006e+01
  -1.623223e+01   2.044448e+00
   2.930350e+00   6.892456e+00
   6.787366e+01   3.133342e+00
   9.181950e+01   2.473433e+01
   1.631048e+01   7.982779e+01
  -1.129878e+02   1.128282e+02
  -1.885492e+02   5.970076e+01
  -1.475024e+02  -6.349797e+01
  -2.600021e+01  -1.600534e+02
   8.378942e+01  -1.519814e+02
   1.171185e+02  -6.113023e+01
   7.980197e+01   2.197640e+01
   2.539529e+01   3.795496e+01
   1.354451e+00   1.141246e+01
   1.333253e+01   7.337681e+00
   2.997061e+01   4.961362e+01
   1.650365e+01   9.208904e+01
  -3.129487e+01   7.099040e+01
  -7.820866e+01  -1.833171e+01
  -7.567930e+01  -1.049933e+02
  -8.690781e+00  -1.099002e+02
   7.638186e+01  -2.719698e+01
   1.019791e+02   6.978840e+01
   3.548852e+01   1.031519e+02
  -6.507150e+01   6.033017e+01
  -1.017546e+02  -1.056653e+01
  -4.362843e+01  -5.663175e+01
   3.429857e+01  -5.861736e+01
   3.870773e+01  -2.908628e+01
  -2.746147e+01   2.900549e+00
  -6.850802e+01   6.490025e+00
  -1.711582e+01  -2.678109e+01
   8.046742e+01  -6.343671e+01
   1.218682e+02  -5.193399e+01
   6.967629e+01   1.669419e+01
  -1.605404e+01   8.395710e+01
  -5.854136e+01   8.140251e+01
  -4.249462e+01   1.101994e+01
  -4.036236e+00  -5.254180e+01
   2.465255e+01  -4.607410e+01
   3.539915e+01   1.308649e+01
   2.668472e+01   5.429259e+01
  -1.320022e+00   3.783431e+01
  -3.271468e+01  -6.663064e+00
  -4.135468e+01  -2.512770e+01
  -2.115574e+01  -4.477681e+00
   3.364637e+00   1.819540e+01
   7.993218e+00   5.899601e+00
   7.642642e-02  -3.171033e+01
   5.160830e+00  -4.869705e+01
   2.685766e+01  -1.711643e+01
   3.614012e+01   3.695478e+01
   7.646184e+00   5.836646e+01
  -4.125499e+01   2.295054e+01
  -5.958180e+01  -3.522903e+01
  -1.656691e+01  -6.078747e+01
   5.703705e+01  -3.444089e+01
   9.142273e+01   1.406422e+01
   4.929636e+01   4.446247e+01
  -2.913811e+01   4.370107e+01
  -6.502685e+01   2.502691e+01
  -2.772619e+01   6.362746e+00
   2.985754e+01  -1.565470e-01
   3.311854e+01   1.000152e+01
  -2.637963e+01   2.519969e+01
  -8.169671e+01   1.708992e+01
