
 $NMID
 id='ANONYMOUS ', fmtdat='(2E16.6)'
 volume=1.0
 tramp=1.0
 $END
   3.124919e+03  -1.097977e+02
   2.209939e+03   1.483933e+03
   1.815173e+02   2.051571e+03
  -1.169273e+03   1.390865e+03
  -1.036729e+03   3.153215e+02
  -1.543477e+02  -2.249525e+02
   3.453473e+02   7.722998e+00
   1.193107e+02   4.999483e+02
  -3.824200e+02   6.049546e+02
  -6.343673e+02   1.474433e+02
  -4.749571e+02  -4.648183e+02
  -6.743462e+01  -6.519434e+02
   2.722993e+02  -2.340202e+02
   2.688013e+02   3.670351e+02
  -6.984476e+01   5.401365e+02
  -3.922696e+02   1.170009e+02
  -3.306470e+02  -4.651537e+02
   9.102015e+01  -6.477165e+02
   4.717043e+02  -3.176421e+02
   4.718209e+02   1.548129e+02
   1.592918e+02   3.644875e+02
  -1.035728e+02   2.599375e+02
  -6.200738e+01   1.014177e+02
   1.722342e+02   1.220898e+02
   2.494944e+02   2.800828e+02
  -2.814313e+01   3.349705e+02
  -4.479620e+02   1.408035e+02
  -5.722927e+02  -1.705589e+02
  -2.219406e+02  -3.218427e+02
   2.873982e+02  -1.826988e+02
   4.693304e+02   1.149807e+02
   1.872471e+02   3.347320e+02
  -2.416680e+02   3.376456e+02
  -4.356033e+02   1.363785e+02
  -3.212240e+02  -1.402302e+02
  -1.045530e+02  -2.942288e+02
   2.417313e+00  -1.904647e+02
  -4.742538e+01   5.796218e+01
  -1.540978e+02   1.310129e+02
  -1.684347e+02  -1.295577e+02
  -1.369368e+01  -4.531567e+02
   2.143637e+02  -4.235919e+02
   2.990894e+02  -2.840827e+01
   1.327245e+02   2.768585e+02
  -1.185830e+02   1.369260e+02
  -1.605614e+02  -2.444422e+02
   9.953229e+01  -3.689238e+02
   4.248569e+02  -6.261907e+01
   4.801148e+02   3.536072e+02
   1.668543e+02   4.838176e+02
  -2.802393e+02   2.701561e+02
  -5.070592e+02  -4.700631e+01
  -3.516065e+02  -2.313714e+02
   1.978682e+01  -2.236305e+02
   2.737343e+02  -1.040787e+02
   2.308424e+02   6.291027e+00
   3.021284e+01   2.637680e+01
  -4.960355e+01  -2.699366e+01
   7.885649e+01  -5.195112e+01
   2.172791e+02   3.074427e+01
   1.350592e+02   1.779441e+02
  -1.415659e+02   2.514282e+02
  -3.492168e+02   1.470115e+02
  -2.750241e+02  -1.026413e+02
   2.685639e+01  -3.347729e+02
   3.069233e+02  -3.682590e+02
   3.680269e+02  -1.536895e+02
   2.266765e+02   1.609314e+02
   5.322142e+01   3.479152e+02
  -1.913810e+01   3.167823e+02
  -1.372249e+01   1.876930e+02
  -4.379579e+01   1.199398e+02
  -1.521174e+02   1.125219e+02
  -2.517438e+02   4.162870e+01
  -2.311106e+02  -1.261232e+02
  -8.262192e+01  -2.504249e+02
   9.331956e+01  -1.822383e+02
   1.817273e+02   4.513959e+01
   1.262741e+02   2.392592e+02
  -4.926203e+01   2.402114e+02
  -2.390758e+02   5.657323e+01
  -2.997984e+02  -1.684739e+02
  -1.707482e+02  -2.892105e+02
   4.108816e+01  -2.636502e+02
   1.608853e+02  -1.636823e+02
   1.524948e+02  -9.057484e+01
   1.576443e+02  -6.981431e+01
   2.825408e+02  -3.072430e+01
   4.101752e+02   1.011528e+02
   3.180422e+02   2.988804e+02
  -2.736898e+01   4.355093e+02
  -3.834711e+02   3.928635e+02
  -4.757303e+02   1.709550e+02
  -2.791816e+02  -9.765825e+01
  -1.764409e+01  -2.422338e+02
   8.404521e+01  -1.921204e+02
   2.294164e+00  -4.366605e+01
  -1.133236e+02   3.013060e+01
  -1.181656e+02  -3.709099e+01
  -6.316971e+00  -1.305015e+02
   1.051220e+02  -9.824631e+01
   9.983559e+01   4.583394e+01
  -2.521901e+01   1.210798e+02
  -1.537033e+02  -2.107649e+00
  -1.507677e+02  -2.317836e+02
   1.729933e+01  -3.418617e+02
   2.449133e+02  -2.102527e+02
   3.637351e+02   6.346319e+01
   2.785494e+02   2.675941e+02
   5.447291e+01   2.752011e+02
  -1.306339e+02   1.362031e+02
  -1.459158e+02   5.175330e+00
  -3.254814e+01  -9.394667e+00
   4.643501e+01   6.403489e+01
  -8.705310e+00   1.097303e+02
  -1.221661e+02   6.086708e+01
  -1.406585e+02  -2.738629e+01
  -2.790725e+01  -5.041136e+01
   8.096961e+01   1.808364e+01
   3.415588e+01   9.633251e+01
  -1.545079e+02   8.668582e+01
  -3.055276e+02  -2.794314e+01
  -2.547847e+02  -1.771783e+02
  -2.066336e+01  -2.635099e+02
   2.114139e+02  -2.277008e+02
   2.647377e+02  -9.182524e+01
   1.323490e+02   4.292077e+01
  -2.897608e+01   7.215524e+01
  -5.858179e+01  -5.575342e+00
   5.593085e+01  -7.490958e+01
   1.815145e+02  -2.857315e+01
   1.829691e+02   1.030694e+02
   5.443475e+01   1.834012e+02
  -8.638122e+01   1.315600e+02
  -1.206364e+02   1.549550e+01
  -4.164669e+01  -3.369684e+01
   4.380505e+01   2.745056e+01
   2.323227e+01   1.154624e+02
  -1.038317e+02   1.180205e+02
  -2.139960e+02   7.585451e+00
  -1.797611e+02  -1.378016e+02
  -8.300424e+00  -2.066988e+02
   1.542894e+02  -1.480800e+02
   1.710577e+02  -1.299101e+01
   5.442603e+01   8.994667e+01
  -5.954892e+01   9.191436e+01
  -6.676507e+01   2.426653e+01
   2.614193e+00  -2.330799e+01
   4.010638e+01  -5.462954e+00
  -1.015389e+01   2.977868e+01
  -9.404445e+01   2.692623e+00
  -1.089686e+02  -9.618062e+01
  -8.411401e+00  -1.809767e+02
   1.481868e+02  -1.531647e+02
   2.402379e+02  -5.344503e+00
   1.899532e+02   1.617220e+02
   3.597602e+01   2.272789e+02
  -9.965478e+01   1.581154e+02
  -1.283953e+02   3.215361e+01
  -7.560476e+01  -4.202888e+01
  -3.570891e+01  -2.803497e+01
  -5.672302e+01   1.478605e+01
  -9.026857e+01   6.507341e+00
  -5.954964e+01  -6.086092e+01
   4.138467e+01  -1.116398e+02
   1.297409e+02  -6.970926e+01
   1.123044e+02   4.898916e+01
  -2.039903e+01   1.354557e+02
  -1.711396e+02   8.979912e+01
  -2.083793e+02  -7.138836e+01
  -7.996226e+01  -2.167734e+02
   1.306982e+02  -2.195373e+02
   2.684871e+02  -7.708161e+01
   2.414456e+02   9.189972e+01
   9.632230e+01   1.672964e+02
  -4.027948e+01   1.357886e+02
  -8.713866e+01   7.936754e+01
  -6.772191e+01   7.093289e+01
  -5.700777e+01   9.659305e+01
  -9.099762e+01   8.159172e+01
  -1.336734e+02  -1.772786e+01
  -1.201650e+02  -1.549214e+02
  -2.558551e+01  -2.264058e+02
   1.010884e+02  -1.655177e+02
   1.688221e+02  -9.195059e+00
   1.236701e+02   1.284998e+02
   6.730227e+00   1.551639e+02
  -7.693727e+01   7.737859e+01
  -6.231075e+01  -1.824971e+01
   7.002777e+00  -5.579295e+01
   3.089095e+01  -3.504052e+01
  -2.604143e+01  -9.767701e+00
  -8.679069e+01  -1.727281e+01
  -5.152440e+01  -4.144057e+01
   7.630940e+01  -4.007219e+01
   1.782706e+02   4.865486e+00
   1.443909e+02   6.727254e+01
  -5.458041e+00   9.936904e+01
  -1.388079e+02   7.224822e+01
  -1.457641e+02   3.144033e+00
  -4.259304e+01  -5.254908e+01
   6.095016e+01  -4.568216e+01
   7.932636e+01   1.817436e+01
   2.144378e+01   7.662876e+01
  -4.481059e+01   6.937386e+01
  -7.091947e+01   3.232925e+00
  -6.161158e+01  -5.246083e+01
  -4.940333e+01  -4.450136e+01
  -5.438728e+01  -1.099100e+00
  -6.507311e+01  -1.064333e+00
  -4.664542e+01  -7.511880e+01
   2.623730e+01  -1.564078e+02
   1.292510e+02  -1.474790e+02
   1.860749e+02  -3.240017e+01
   1.332867e+02   9.713961e+01
   4.347055e-01   1.355486e+02
  -9.576923e+01   7.129165e+01
  -6.385631e+01  -9.819402e+00
   5.822497e+01  -2.110913e+01
   1.336915e+02   4.067961e+01
   6.957685e+01   1.058826e+02
  -8.438505e+01   1.082763e+02
  -1.882877e+02   4.221515e+01
  -1.545930e+02  -4.221468e+01
  -2.904927e+01  -8.428740e+01
   6.437617e+01  -5.861975e+01
   4.780102e+01   3.283725e+00
  -4.108381e+01   3.224539e+01
  -9.424336e+01  -1.859858e+01
  -4.287882e+01  -1.159395e+02
   7.563387e+01  -1.588743e+02
   1.562450e+02  -7.513080e+01
   1.286081e+02   8.832203e+01
   1.973698e+01   1.918957e+02
  -8.021313e+01   1.406828e+02
  -1.035332e+02  -1.223154e+01
  -5.379048e+01  -1.203739e+02
   1.535432e+01  -1.009543e+02
   5.256963e+01  -1.288866e+01
   4.382427e+01   3.183669e+01
   1.482451e+01   6.165177e+00
   6.043326e+00  -1.664244e+01
   3.226772e+01   2.363865e+01
   5.863403e+01   9.060073e+01
   3.056095e+01   1.030339e+02
  -5.774412e+01   4.107483e+01
  -1.357042e+02  -3.578214e+01
  -1.216886e+02  -6.772264e+01
  -1.853227e+01  -5.418339e+01
   7.905061e+01  -2.807500e+01
   8.587187e+01  -5.885581e+00
   1.865193e+01   1.321197e+01
  -3.322794e+01   2.188295e+01
  -2.016100e+01   1.108401e+01
   1.349616e+01  -5.309733e+00
  -2.578253e+00  -4.428818e+00
  -6.538598e+01   3.647789e+00
  -9.412561e+01  -2.042756e+01
  -2.580831e+01  -8.265030e+01
   1.041272e+02  -1.219562e+02
   1.896471e+02  -7.070871e+01
   1.578232e+02   5.587326e+01
   3.631438e+01   1.594588e+02
  -7.978959e+01   1.579481e+02
  -1.177978e+02   6.891606e+01
  -8.137622e+01  -1.763819e+01
  -2.715526e+01  -3.866481e+01
  -3.503153e+00  -1.475179e+01
  -1.445985e+01  -9.814521e+00
  -2.978048e+01  -4.959877e+01
  -1.746995e+01  -9.106780e+01
   2.862437e+01  -7.244841e+01
   7.857739e+01   1.285799e+01
   8.307155e+01   9.950206e+01
   1.852324e+01   1.111394e+02
  -7.361706e+01   3.619726e+01
  -1.088171e+02  -6.114725e+01
  -4.395245e+01  -1.035625e+02
   6.347965e+01  -6.809521e+01
   1.064387e+02   5.662366e+00
   4.767341e+01   6.014113e+01
  -3.497025e+01   6.472963e+01
  -4.224560e+01   2.930352e+01
   2.474213e+01  -8.481556e+00
   6.845779e+01  -1.065428e+01
   1.948757e+01   2.799973e+01
  -7.763700e+01   6.682542e+01
  -1.215763e+02   5.314485e+01
  -7.310478e+01  -1.802199e+01
   1.201471e+01  -8.639920e+01
   5.871134e+01  -8.480195e+01
   4.772300e+01  -1.458560e+01
   9.865873e+00   5.203454e+01
  -2.296974e+01   5.038205e+01
  -3.804663e+01  -7.802829e+00
  -3.008713e+01  -5.371507e+01
   2.531066e-01  -4.191183e+01
   3.401692e+01   3.639170e+00
   4.272804e+01   2.615198e+01
   2.070491e+01   5.532234e+00
  -4.420130e+00  -2.163789e+01
  -5.689452e+00  -1.116008e+01
   7.383860e+00   3.180238e+01
   2.621725e+00   5.632631e+01
  -2.673368e+01   2.643301e+01
  -4.524194e+01  -3.296829e+01
  -1.770960e+01  -6.093869e+01
   3.945758e+01  -2.829323e+01
   6.574151e+01   3.114540e+01
   2.235381e+01   6.010972e+01
  -5.728091e+01   3.758323e+01
  -9.550774e+01  -9.243660e+00
  -5.247230e+01  -4.257223e+01
   2.837342e+01  -4.755220e+01
   6.602616e+01  -3.112239e+01
   3.037226e+01  -7.572562e+00
  -2.685924e+01   6.088230e+00
  -3.365604e+01  -3.143502e+00
   2.044276e+01  -2.519313e+01
   7.526922e+01  -2.411366e+01
