
 $NMID
 id='ANONYMOUS ', fmtdat='(2E16.6)'
 volume=1.0
 tramp=1.0
 $END
   4.777054e+03  -1.460239e+02
   2.830549e+03   2.891158e+03
  -8.620137e+02   3.096464e+03
  -2.430065e+03   9.234136e+02
  -1.060049e+03  -8.892299e+02
   8.170563e+02  -7.552411e+02
   1.082750e+03   4.860400e+02
   2.393573e+01   1.241587e+03
  -9.355337e+02   8.954060e+02
  -1.063627e+03  -1.178445e+02
  -5.045470e+02  -9.824054e+02
   2.897515e+02  -1.006288e+03
   7.510258e+02  -1.322585e+02
   4.616972e+02   8.106433e+02
  -2.992302e+02   8.453181e+02
  -6.903253e+02  -9.603766e+00
  -2.965991e+02  -7.603804e+02
   3.833465e+02  -6.823890e+02
   6.520529e+02  -6.262380e+01
   4.067954e+02   4.130057e+02
  -2.487810e+00   4.831379e+02
  -2.781731e+02   2.897098e+02
  -2.601275e+02   1.600533e+01
   8.624834e+01  -1.280507e+02
   4.410782e+02   6.485300e+01
   2.661699e+02   4.453360e+02
  -4.519190e+02   4.895847e+02
  -9.322367e+02  -2.588415e+01
  -5.168305e+02  -5.955610e+02
   3.982763e+02  -5.791475e+02
   8.260058e+02  -1.158404e+01
   4.123336e+02   5.146128e+02
  -2.808909e+02   5.830828e+02
  -6.088403e+02   2.410004e+02
  -4.637441e+02  -2.429138e+02
  -8.803049e+01  -5.346585e+02
   2.366784e+02  -3.362756e+02
   2.414346e+02   2.370841e+02
  -1.413992e+02   5.215178e+02
  -5.120720e+02   3.423537e+01
  -3.310219e+02  -7.333822e+02
   3.208549e+02  -8.032279e+02
   6.966081e+02  -3.452258e+01
   3.295406e+02   6.211154e+02
  -3.192437e+02   3.911570e+02
  -4.597065e+02  -3.280422e+02
   4.080269e+01  -6.045489e+02
   5.960035e+02  -1.759271e+02
   6.516734e+02   4.169819e+02
   1.880933e+02   6.288497e+02
  -4.081750e+02   3.901279e+02
  -6.837264e+02  -6.444821e+01
  -4.133513e+02  -4.261748e+02
   1.708690e+02  -4.249126e+02
   5.019790e+02  -6.927544e+01
   2.753228e+02   2.414842e+02
  -1.462036e+02   1.456203e+02
  -1.850381e+02  -1.765390e+02
   1.742197e+02  -2.350612e+02
   3.954060e+02   6.933171e+01
   1.645261e+02   3.365096e+02
  -2.231486e+02   2.795110e+02
  -3.470397e+02   6.003491e+01
  -1.842030e+02  -9.162807e+01
   3.618915e+01  -2.055939e+02
   2.090929e+02  -3.190585e+02
   3.318274e+02  -2.412118e+02
   3.152823e+02   1.243908e+02
   1.033503e+02   4.673942e+02
  -1.286988e+02   4.257953e+02
  -1.566214e+02   1.136742e+02
  -3.605689e+01  -4.304600e+01
  -2.075803e+01   7.278096e+01
  -1.766321e+02   1.514467e+02
  -2.922295e+02  -2.756769e+01
  -1.894243e+02  -2.735028e+02
   5.667867e+01  -2.822853e+02
   2.402767e+02  -3.289302e+01
   2.254113e+02   2.386708e+02
   9.022661e+00   3.138297e+02
  -2.735371e+02   1.419223e+02
  -3.899388e+02  -1.605577e+02
  -2.091463e+02  -3.730472e+02
   1.067695e+02  -3.355856e+02
   2.531828e+02  -1.264120e+02
   1.650946e+02   1.228071e+01
   9.216797e+01  -2.261136e+01
   2.243939e+02  -7.242560e+01
   4.060059e+02   4.385941e+01
   3.477225e+02   2.835144e+02
   1.085800e+01   4.544127e+02
  -3.564575e+02   4.322256e+02
  -4.992686e+02   2.221423e+02
  -3.610224e+02  -8.386690e+01
  -7.511121e+01  -3.110995e+02
   1.350154e+02  -2.827862e+02
   1.047616e+02  -3.726375e+01
  -1.028443e+02   1.312947e+02
  -2.189222e+02   1.272828e+01
  -7.290693e+01  -2.134841e+02
   1.703425e+02  -2.046182e+02
   2.075416e+02   5.508018e+01
  -5.343986e+00   2.168673e+02
  -2.069175e+02   4.980650e+01
  -1.772731e+02  -2.560322e+02
   3.062667e+01  -3.637667e+02
   2.334234e+02  -1.950571e+02
   3.264589e+02   6.468485e+01
   2.844176e+02   2.342933e+02
   1.093867e+02   2.621869e+02
  -1.076095e+02   1.706227e+02
  -1.890807e+02   3.144720e+01
  -7.035385e+01  -3.536162e+01
   7.554743e+01   2.993483e+01
   4.351749e+01   1.283683e+02
  -1.227293e+02   1.148266e+02
  -1.925835e+02  -2.659446e+00
  -7.139261e+01  -7.651406e+01
   7.814892e+01  -2.693332e+01
   6.060780e+01   6.606702e+01
  -1.173641e+02   8.698521e+01
  -2.794450e+02   7.540437e+00
  -2.694584e+02  -1.292437e+02
  -7.430536e+01  -2.538534e+02
   1.747683e+02  -2.760630e+02
   2.909574e+02  -1.451911e+02
   1.870005e+02   4.868791e+01
  -1.821663e+01   1.229052e+02
  -1.008088e+02   1.731880e+01
   2.294868e+01  -1.094999e+02
   2.008765e+02  -7.391478e+01
   2.293135e+02   9.867983e+01
   8.130234e+01   2.180258e+02
  -9.405023e+01   1.722503e+02
  -1.527836e+02   3.833802e+01
  -8.204846e+01  -4.075780e+01
   2.071873e+01  -1.008929e+01
   3.977115e+01   7.398257e+01
  -6.310045e+01   1.113456e+02
  -1.950583e+02   3.660547e+01
  -1.996279e+02  -1.178505e+02
  -3.019818e+01  -2.249685e+02
   1.676177e+02  -1.768500e+02
   2.068261e+02  -1.032693e+01
   7.490725e+01   1.226445e+02
  -6.679528e+01   1.223472e+02
  -8.932609e+01   3.650782e+01
  -2.565672e+01  -2.493737e+01
   1.523257e+01  -2.106787e+01
  -1.200504e+01   2.261134e+00
  -6.707214e+01  -1.335558e+01
  -8.377502e+01  -8.030919e+01
  -1.715842e+01  -1.538428e+02
   1.200540e+02  -1.546101e+02
   2.337010e+02  -3.509299e+01
   2.105645e+02   1.452276e+02
   4.955022e+01   2.442422e+02
  -1.102829e+02   1.801747e+02
  -1.416580e+02   2.953260e+01
  -7.335865e+01  -6.032981e+01
  -2.869888e+01  -3.929997e+01
  -5.372011e+01   1.211654e+01
  -7.841286e+01   6.554383e+00
  -3.736056e+01  -4.884398e+01
   4.453481e+01  -8.366465e+01
   9.742513e+01  -5.093566e+01
   7.871494e+01   3.377378e+01
  -1.259585e+01   1.047713e+02
  -1.348833e+02   8.555103e+01
  -1.962275e+02  -4.392909e+01
  -1.099266e+02  -1.969453e+02
   9.660248e+01  -2.348447e+02
   2.683479e+02  -1.079201e+02
   2.685146e+02   8.004952e+01
   1.198661e+02   1.801932e+02
  -3.562870e+01   1.543314e+02
  -9.701076e+01   8.969668e+01
  -8.348714e+01   7.304221e+01
  -7.016593e+01   9.322691e+01
  -9.428727e+01   7.501596e+01
  -1.299591e+02  -2.236323e+01
  -1.213369e+02  -1.553391e+02
  -3.468190e+01  -2.295825e+02
   9.667090e+01  -1.788437e+02
   1.794597e+02  -2.757705e+01
   1.439035e+02   1.189820e+02
   2.594535e+01   1.626097e+02
  -6.315354e+01   9.838708e+01
  -5.886082e+01   6.457175e+00
  -7.458865e+00  -3.869111e+01
   4.757131e+00  -3.317255e+01
  -4.065555e+01  -1.935373e+01
  -7.947206e+01  -2.429234e+01
  -4.386967e+01  -3.809034e+01
   6.126325e+01  -3.628509e+01
   1.542841e+02  -5.245361e+00
   1.444709e+02   4.599266e+01
   2.133217e+01   8.487453e+01
  -1.165583e+02   7.569154e+01
  -1.463107e+02   1.845990e+01
  -5.033135e+01  -3.728414e+01
   6.125030e+01  -3.673801e+01
   7.663606e+01   1.877922e+01
   4.440240e+00   6.861800e+01
  -5.982446e+01   5.773295e+01
  -6.293959e+01  -3.342511e+00
  -4.076669e+01  -5.138214e+01
  -4.292362e+01  -4.187325e+01
  -6.430262e+01  -1.161285e+00
  -6.748160e+01   4.535742e-01
  -3.298419e+01  -6.739809e+01
   3.409368e+01  -1.461636e+02
   1.134093e+02  -1.420016e+02
   1.604187e+02  -3.406321e+01
   1.231510e+02   9.013176e+01
   9.147826e+00   1.249151e+02
  -8.482409e+01   6.016038e+01
  -6.054214e+01  -1.609384e+01
   6.007422e+01  -2.102037e+01
   1.415095e+02   4.252127e+01
   8.047037e+01   1.076784e+02
  -7.889950e+01   1.160370e+02
  -1.929908e+02   5.839075e+01
  -1.670849e+02  -2.896327e+01
  -4.160244e+01  -8.737587e+01
   5.885383e+01  -7.498335e+01
   4.905808e+01  -1.111140e+01
  -3.881028e+01   2.626965e+01
  -9.166101e+01  -2.285861e+01
  -3.290463e+01  -1.215989e+02
   9.497020e+01  -1.582081e+02
   1.731191e+02  -6.349002e+01
   1.307509e+02   1.035088e+02
   1.147090e+01   2.027318e+02
  -8.576330e+01   1.490506e+02
  -1.060879e+02  -3.701783e+00
  -6.492750e+01  -1.175803e+02
  -3.865976e+00  -1.083902e+02
   4.380364e+01  -2.250058e+01
   5.540329e+01   2.999589e+01
   2.964617e+01   7.978344e+00
   2.776598e+00  -2.180758e+01
   1.722030e+01   1.381871e+01
   5.683315e+01   8.880476e+01
   4.790863e+01   1.111187e+02
  -4.364523e+01   4.665565e+01
  -1.419838e+02  -3.891156e+01
  -1.354296e+02  -7.039634e+01
  -1.785155e+01  -4.912612e+01
   9.191321e+01  -2.297743e+01
   9.011862e+01  -9.697934e+00
   8.473903e+00   6.492976e+00
  -4.023650e+01   2.382525e+01
  -1.182719e+01   1.998984e+01
   2.414461e+01  -1.530029e+00
  -7.204499e+00  -1.010238e+01
  -7.850573e+01  -4.239239e+00
  -9.274613e+01  -2.425246e+01
  -4.656564e+00  -8.229507e+01
   1.234329e+02  -1.164892e+02
   1.874974e+02  -5.775814e+01
   1.411484e+02   7.127908e+01
   2.541847e+01   1.655909e+02
  -7.887163e+01   1.505810e+02
  -1.150687e+02   5.750107e+01
  -8.212378e+01  -2.202338e+01
  -2.472461e+01  -3.491977e+01
   5.243592e+00  -7.851335e+00
  -8.694607e+00  -2.841680e+00
  -3.460182e+01  -4.452329e+01
  -2.540418e+01  -9.013943e+01
   2.898870e+01  -7.274762e+01
   8.364531e+01   1.911720e+01
   7.853974e+01   1.118083e+02
   1.891882e+00   1.152706e+02
  -8.669190e+01   2.254204e+01
  -1.050138e+02  -7.965716e+01
  -3.041150e+01  -1.056081e+02
   6.870446e+01  -5.400064e+01
   9.752296e+01   1.344992e+01
   3.699915e+01   4.907189e+01
  -3.326739e+01   4.907679e+01
  -2.854027e+01   2.750831e+01
   3.772945e+01   4.019674e-01
   7.071764e+01  -6.572112e+00
   1.386290e+01   2.489764e+01
  -7.995838e+01   6.761849e+01
  -1.141857e+02   6.150418e+01
  -6.163589e+01  -1.065120e+01
   1.641888e+01  -8.366074e+01
   5.176337e+01  -7.891542e+01
   3.538340e+01  -2.678008e+00
   2.256589e-01   5.838437e+01
  -2.706820e+01   4.189868e+01
  -3.761256e+01  -2.111152e+01
  -2.651043e+01  -5.478191e+01
   4.073721e+00  -3.107615e+01
   3.383410e+01   9.689956e+00
   3.904317e+01   1.980894e+01
   2.038548e+01  -2.845132e-01
   8.441805e-01  -1.266663e+01
  -5.785749e+00   6.942233e+00
  -9.486986e+00   3.968817e+01
  -2.242535e+01   4.422138e+01
  -3.581816e+01   3.714834e+00
  -2.830222e+01  -4.984535e+01
   6.662043e+00  -6.360863e+01
   4.705155e+01  -1.971296e+01
   5.589066e+01   4.220997e+01
   1.349685e+01   6.524915e+01
  -5.488680e+01   3.372726e+01
  -8.883012e+01  -1.705285e+01
  -4.931053e+01  -4.482087e+01
   2.953085e+01  -3.973030e+01
   6.596892e+01  -1.953120e+01
   2.309957e+01  -3.790754e+00
  -4.124463e+01  -3.049580e+00
  -4.060935e+01  -1.845079e+01
   3.288392e+01  -3.449845e+01
   9.670004e+01  -2.122279e+01
