
 $NMID
 id='ANONYMOUS ', fmtdat='(2E16.6)'
 volume=1.0
 tramp=1.0
 $END
   4.542074e+03  -1.509000e+01
   2.658570e+03   2.715287e+03
  -7.477477e+02   2.874731e+03
  -2.195242e+03   9.449137e+02
  -9.933824e+02  -6.675370e+02
   6.742981e+02  -5.950518e+02
   9.213195e+02   4.517543e+02
  -1.000439e+01   1.109924e+03
  -8.646812e+02   8.145457e+02
  -9.799889e+02  -9.859890e+01
  -4.709458e+02  -9.009595e+02
   2.501320e+02  -9.299807e+02
   6.626912e+02  -1.210949e+02
   3.995227e+02   7.515256e+02
  -2.819750e+02   7.842419e+02
  -6.353615e+02  -6.313654e+00
  -2.873134e+02  -7.146501e+02
   3.363384e+02  -6.684935e+02
   6.118743e+02  -1.015409e+02
   4.097070e+02   3.659552e+02
   2.081899e+01   4.580756e+02
  -2.513262e+02   2.769813e+02
  -2.194971e+02   1.956457e+01
   1.227100e+02  -8.527929e+01
   4.253908e+02   1.242733e+02
   2.028989e+02   4.526543e+02
  -4.854093e+02   4.269397e+02
  -8.877940e+02  -8.306279e+01
  -4.471442e+02  -5.736037e+02
   4.124057e+02  -5.016539e+02
   7.789536e+02   4.057039e+01
   3.612590e+02   5.050545e+02
  -2.970702e+02   5.415824e+02
  -5.939263e+02   2.110439e+02
  -4.365963e+02  -2.381073e+02
  -7.531245e+01  -4.959220e+02
   2.047773e+02  -2.970354e+02
   1.748414e+02   2.256876e+02
  -1.747981e+02   4.531840e+02
  -4.637903e+02  -2.311558e+01
  -2.520601e+02  -7.138253e+02
   3.338978e+02  -7.343104e+02
   6.305860e+02  -5.030709e+00
   2.711404e+02   5.781388e+02
  -3.033267e+02   3.329701e+02
  -4.016129e+02  -3.393574e+02
   7.138573e+01  -5.728473e+02
   5.816185e+02  -1.430485e+02
   6.245427e+02   4.263178e+02
   1.758367e+02   6.143183e+02
  -3.998734e+02   3.638148e+02
  -6.604598e+02  -7.632991e+01
  -3.948168e+02  -4.008127e+02
   1.585484e+02  -3.820054e+02
   4.637617e+02  -6.081569e+01
   2.553645e+02   2.024959e+02
  -1.217986e+02   1.120434e+02
  -1.506795e+02  -1.594398e+02
   1.714571e+02  -1.956735e+02
   3.644817e+02   7.615801e+01
   1.501692e+02   3.136899e+02
  -2.139458e+02   2.733360e+02
  -3.489818e+02   7.796213e+01
  -2.069006e+02  -9.026982e+01
   2.705083e+01  -2.353528e+02
   2.310464e+02  -3.414955e+02
   3.526779e+02  -2.296975e+02
   3.057781e+02   1.413640e+02
   8.572158e+01   4.563996e+02
  -1.177733e+02   4.045997e+02
  -1.261833e+02   1.209682e+02
  -2.730051e+01  -1.037553e+01
  -4.548187e+01   9.110160e+01
  -2.034069e+02   1.366737e+02
  -2.923213e+02  -5.324664e+01
  -1.691410e+02  -2.822178e+02
   7.293868e+01  -2.700057e+02
   2.386467e+02  -1.297562e+01
   2.091290e+02   2.510889e+02
  -8.621603e+00   3.092431e+02
  -2.783416e+02   1.242632e+02
  -3.796180e+02  -1.728008e+02
  -1.987803e+02  -3.669265e+02
   1.015351e+02  -3.230931e+02
   2.375296e+02  -1.295667e+02
   1.589871e+02  -7.000119e+00
   1.042913e+02  -3.676482e+01
   2.438706e+02  -6.858950e+01
   4.188969e+02   5.747705e+01
   3.489266e+02   2.956067e+02
   5.365881e-01   4.625073e+02
  -3.733469e+02   4.337373e+02
  -5.089092e+02   2.130686e+02
  -3.524428e+02  -9.507673e+01
  -5.931948e+01  -3.075870e+02
   1.344359e+02  -2.662914e+02
   8.576431e+01  -3.211478e+01
  -1.143076e+02   1.137773e+02
  -2.063087e+02  -4.624179e+00
  -5.458976e+01  -2.056979e+02
   1.683854e+02  -1.822494e+02
   1.890957e+02   6.223951e+01
  -1.663651e+01   2.031547e+02
  -2.039915e+02   3.601785e+01
  -1.730536e+02  -2.587251e+02
   3.121532e+01  -3.657932e+02
   2.401840e+02  -2.021574e+02
   3.404568e+02   6.434434e+01
   2.905296e+02   2.472163e+02
   1.004712e+02   2.742674e+02
  -1.173768e+02   1.683168e+02
  -1.860521e+02   2.323025e+01
  -6.225128e+01  -3.357372e+01
   7.336602e+01   3.968870e+01
   3.211482e+01   1.308612e+02
  -1.291352e+02   1.057672e+02
  -1.876287e+02  -1.186220e+01
  -6.201101e+01  -7.592876e+01
   8.343685e+01  -1.826044e+01
   5.828404e+01   7.555581e+01
  -1.276399e+02   9.081559e+01
  -2.928993e+02   1.303435e+00
  -2.747999e+02  -1.435253e+02
  -6.472986e+01  -2.648784e+02
   1.899702e+02  -2.737798e+02
   2.956626e+02  -1.346005e+02
   1.791794e+02   5.279795e+01
  -2.458895e+01   1.157691e+02
  -9.588338e+01   9.852946e+00
   3.281101e+01  -1.068501e+02
   2.043515e+02  -6.424875e+01
   2.245680e+02   1.054663e+02
   7.446611e+01   2.175341e+02
  -9.772091e+01   1.666887e+02
  -1.510430e+02   3.181902e+01
  -7.490818e+01  -4.313948e+01
   2.839166e+01  -4.139859e+00
   3.976153e+01   8.518178e+01
  -7.260335e+01   1.175152e+02
  -2.049872e+02   3.208030e+01
  -2.006387e+02  -1.263230e+02
  -2.439629e+01  -2.274445e+02
   1.708652e+02  -1.731854e+02
   2.036568e+02  -7.999530e+00
   6.968290e+01   1.201348e+02
  -6.913904e+01   1.179648e+02
  -8.751421e+01   3.296016e+01
  -2.024147e+01  -2.709907e+01
   2.172167e+01  -1.994421e+01
  -1.003741e+01   7.741590e+00
  -7.281741e+01  -8.778260e+00
  -9.142118e+01  -8.377583e+01
  -1.704329e+01  -1.631680e+02
   1.288522e+02  -1.589843e+02
   2.419454e+02  -2.942935e+01
   2.113264e+02   1.536458e+02
   4.586329e+01   2.468859e+02
  -1.124621e+02   1.783140e+02
  -1.417936e+02   2.931565e+01
  -7.389702e+01  -5.793868e+01
  -2.982961e+01  -3.744090e+01
  -5.529622e+01   1.293261e+01
  -8.246122e+01   7.215629e+00
  -4.328689e+01  -5.092794e+01
   4.320972e+01  -9.071696e+01
   1.049109e+02  -5.764703e+01
   8.807471e+01   3.557067e+01
  -1.273045e+01   1.136486e+02
  -1.450290e+02   9.015962e+01
  -2.044293e+02  -5.025110e+01
  -1.067699e+02  -2.073995e+02
   1.073262e+02  -2.385255e+02
   2.763166e+02  -1.029883e+02
   2.690579e+02   8.680757e+01
   1.160807e+02   1.832483e+02
  -3.906028e+01   1.539259e+02
  -9.798550e+01   8.845686e+01
  -8.237888e+01   7.278164e+01
  -6.901366e+01   9.471391e+01
  -9.536296e+01   7.736365e+01
  -1.330014e+02  -2.206006e+01
  -1.230517e+02  -1.589265e+02
  -3.257318e+01  -2.343800e+02
   1.010409e+02  -1.797861e+02
   1.823084e+02  -2.309856e+01
   1.429908e+02   1.251960e+02
   2.153353e+01   1.658118e+02
  -6.898937e+01   9.685159e+01
  -6.245069e+01   1.600875e+00
  -5.689387e+00  -4.395978e+01
   1.015547e+01  -3.597122e+01
  -3.781162e+01  -1.891578e+01
  -8.204349e+01  -2.313540e+01
  -4.642747e+01  -3.918638e+01
   6.544918e+01  -3.860801e+01
   1.630303e+02  -4.395391e+00
   1.486994e+02   5.174939e+01
   1.701257e+01   9.143469e+01
  -1.239612e+02   7.765408e+01
  -1.502951e+02   1.520390e+01
  -5.069230e+01  -4.184094e+01
   6.196981e+01  -3.909025e+01
   7.865605e+01   1.911486e+01
   8.301052e+00   7.053249e+01
  -5.741001e+01   6.008336e+01
  -6.540467e+01  -1.746334e+00
  -4.574770e+01  -5.139455e+01
  -4.516203e+01  -4.297583e+01
  -6.359936e+01  -2.049770e+00
  -6.848206e+01  -2.302422e-01
  -3.673641e+01  -6.954689e+01
   3.299203e+01  -1.506125e+02
   1.190647e+02  -1.467226e+02
   1.691593e+02  -3.561581e+01
   1.279166e+02   9.313703e+01
   7.863950e+00   1.302605e+02
  -8.824642e+01   6.411524e+01
  -6.198689e+01  -1.512597e+01
   6.099636e+01  -2.114811e+01
   1.425640e+02   4.401226e+01
   7.943245e+01   1.105227e+02
  -8.254084e+01   1.169508e+02
  -1.972787e+02   5.534777e+01
  -1.687712e+02  -3.364376e+01
  -3.940831e+01  -8.952285e+01
   6.253193e+01  -7.337188e+01
   5.081279e+01  -8.165167e+00
  -3.975656e+01   2.804955e+01
  -9.370930e+01  -2.259141e+01
  -3.482892e+01  -1.223869e+02
   9.346665e+01  -1.599854e+02
   1.726741e+02  -6.545985e+01
   1.316424e+02   1.031226e+02
   1.199207e+01   2.041783e+02
  -8.745052e+01   1.497568e+02
  -1.083087e+02  -6.034700e+00
  -6.379561e+01  -1.215268e+02
   8.210326e-01  -1.104072e+02
   4.720614e+01  -2.145097e+01
   5.421106e+01   3.194638e+01
   2.709253e+01   8.865329e+00
   3.916593e+00  -2.141502e+01
   2.124818e+01   1.514819e+01
   5.819490e+01   9.106245e+01
   4.445535e+01   1.130797e+02
  -4.793876e+01   4.728073e+01
  -1.432866e+02  -3.996479e+01
  -1.350064e+02  -7.266817e+01
  -1.853388e+01  -5.117801e+01
   9.092000e+01  -2.332063e+01
   9.139484e+01  -8.539364e+00
   1.114768e+01   7.338709e+00
  -3.984680e+01   2.331701e+01
  -1.442884e+01   1.910887e+01
   2.222634e+01  -1.536556e+00
  -5.997671e+00  -9.489917e+00
  -7.690767e+01  -3.861012e+00
  -9.459661e+01  -2.418668e+01
  -8.807131e+00  -8.265591e+01
   1.220609e+02  -1.182935e+02
   1.911111e+02  -6.110484e+01
   1.461733e+02   6.895826e+01
   2.719940e+01   1.671005e+02
  -8.068285e+01   1.549760e+02
  -1.174136e+02   6.080814e+01
  -8.329300e+01  -2.190535e+01
  -2.586312e+01  -3.631805e+01
   3.135259e+00  -8.812583e+00
  -1.050433e+01  -3.960644e+00
  -3.452562e+01  -4.690855e+01
  -2.407694e+01  -9.279710e+01
   2.977077e+01  -7.406195e+01
   8.385087e+01   1.885296e+01
   7.988157e+01   1.115587e+02
   4.656308e+00   1.156906e+02
  -8.497288e+01   2.462014e+01
  -1.064418e+02  -7.762093e+01
  -3.330526e+01  -1.065552e+02
   6.828702e+01  -5.740058e+01
   1.007746e+02   1.186638e+01
   4.051134e+01   5.173873e+01
  -3.341002e+01   5.327410e+01
  -3.188539e+01   2.926377e+01
   3.526600e+01  -4.013878e-01
   7.145952e+01  -7.152543e+00
   1.541786e+01   2.570906e+01
  -8.140622e+01   6.842737e+01
  -1.188000e+02   6.118645e+01
  -6.569501e+01  -1.180399e+01
   1.595310e+01  -8.558794e+01
   5.410665e+01  -8.203002e+01
   3.783124e+01  -5.865992e+00
   1.572739e+00   5.764706e+01
  -2.636035e+01   4.412143e+01
  -3.751182e+01  -1.893326e+01
  -2.753051e+01  -5.553865e+01
   2.756243e+00  -3.364953e+01
   3.412901e+01   8.757729e+00
   4.095526e+01   2.138829e+01
   2.126050e+01   9.388103e-01
  -7.691350e-01  -1.439617e+01
  -7.121940e+00   3.376905e+00
  -6.909921e+00   3.773714e+01
  -1.712540e+01   4.583913e+01
  -3.319522e+01   7.685161e+00
  -3.103359e+01  -4.639423e+01
   2.230283e+00  -6.271666e+01
   4.596363e+01  -2.119899e+01
   5.816206e+01   4.035079e+01
   1.501589e+01   6.499552e+01
  -5.635485e+01   3.518423e+01
  -9.143447e+01  -1.566035e+01
  -5.066851e+01  -4.523557e+01
   2.950909e+01  -4.196301e+01
   6.662379e+01  -2.207660e+01
   2.481276e+01  -5.049406e+00
  -3.854324e+01  -2.354281e+00
  -3.894220e+01  -1.631656e+01
   3.176695e+01  -3.237176e+01
   9.420442e+01  -2.049064e+01
