
 $NMID
 id='ANONYMOUS ', fmtdat='(2E16.6)'
 volume=1.0
 tramp=1.0
 $END
   4.180513e+03  -8.658971e+01
   2.532388e+03   2.474870e+03
  -6.248303e+02   2.718899e+03
  -2.058340e+03   9.595419e+02
  -1.007165e+03  -6.029600e+02
   5.708817e+02  -6.075978e+02
   8.708330e+02   3.631746e+02
   3.674543e+01   1.021779e+03
  -7.782417e+02   7.826001e+02
  -9.201096e+02  -6.419749e+01
  -4.660692e+02  -8.287416e+02
   2.080886e+02  -8.806085e+02
   6.141905e+02  -1.437814e+02
   3.920919e+02   6.781770e+02
  -2.426238e+02   7.361097e+02
  -5.932858e+02   1.240183e+01
  -2.819944e+02  -6.633740e+02
   3.111282e+02  -6.388639e+02
   5.852546e+02  -1.067573e+02
   3.976845e+02   3.440279e+02
   2.671742e+01   4.356286e+02
  -2.305605e+02   2.671450e+02
  -2.062681e+02   3.274003e+01
   9.775675e+01  -6.553881e+01
   3.729454e+02   1.106335e+02
   1.850255e+02   3.978937e+02
  -4.291895e+02   3.834129e+02
  -8.047057e+02  -6.326302e+01
  -4.230841e+02  -5.094201e+02
   3.561583e+02  -4.608313e+02
   7.055377e+02   2.233925e+01
   3.384582e+02   4.521948e+02
  -2.626774e+02   4.972000e+02
  -5.424064e+02   2.000449e+02
  -4.075422e+02  -2.131234e+02
  -8.297712e+01  -4.575289e+02
   1.772836e+02  -2.882874e+02
   1.670323e+02   1.855331e+02
  -1.380537e+02   4.092356e+02
  -4.103321e+02  -4.250577e+00
  -2.401550e+02  -6.355443e+02
   2.873405e+02  -6.779811e+02
   5.765412e+02  -2.763923e+01
   2.671236e+02   5.174994e+02
  -2.617102e+02   3.154861e+02
  -3.688383e+02  -2.951938e+02
   5.630898e+01  -5.216081e+02
   5.295493e+02  -1.366524e+02
   5.762878e+02   3.888787e+02
   1.668085e+02   5.679812e+02
  -3.637387e+02   3.404577e+02
  -6.101410e+02  -6.474202e+01
  -3.757048e+02  -3.679378e+02
   1.329482e+02  -3.601433e+02
   4.291545e+02  -6.936294e+01
   2.519554e+02   1.824343e+02
  -1.013491e+02   1.135297e+02
  -1.465570e+02  -1.361436e+02
   1.454027e+02  -1.829847e+02
   3.367142e+02   6.050591e+01
   1.473532e+02   2.874002e+02
  -1.980157e+02   2.570922e+02
  -3.319181e+02   7.012901e+01
  -1.923931e+02  -9.353923e+01
   3.761821e+01  -2.220047e+02
   2.246980e+02  -3.081906e+02
   3.245065e+02  -2.045203e+02
   2.776521e+02   1.289763e+02
   8.231917e+01   4.185418e+02
  -1.033514e+02   3.805140e+02
  -1.211291e+02   1.235638e+02
  -3.793791e+01  -6.873834e+00
  -4.935498e+01   7.492410e+01
  -1.838765e+02   1.163494e+02
  -2.620443e+02  -5.045252e+01
  -1.531988e+02  -2.555021e+02
   6.409840e+01  -2.449525e+02
   2.145848e+02  -1.197920e+01
   1.890775e+02   2.281720e+02
  -7.316710e+00   2.811041e+02
  -2.527622e+02   1.129035e+02
  -3.480569e+02  -1.582923e+02
  -1.859538e+02  -3.384424e+02
   9.114216e+01  -3.024379e+02
   2.230132e+02  -1.255251e+02
   1.554266e+02  -7.923586e+00
   1.024444e+02  -2.897084e+01
   2.255212e+02  -5.545182e+01
   3.842517e+02   5.995633e+01
   3.188862e+02   2.768526e+02
  -4.361437e+00   4.264003e+02
  -3.496066e+02   3.956624e+02
  -4.709199e+02   1.926377e+02
  -3.234578e+02  -8.652190e+01
  -5.548642e+01  -2.805357e+02
   1.199381e+02  -2.477177e+02
   7.824591e+01  -3.684501e+01
  -1.000208e+02   1.012835e+02
  -1.855424e+02  -1.142284e-01
  -5.316990e+01  -1.847859e+02
   1.489653e+02  -1.699663e+02
   1.732490e+02   5.157863e+01
  -1.094382e+01   1.848824e+02
  -1.847815e+02   3.397846e+01
  -1.590155e+02  -2.398596e+02
   3.133026e+01  -3.400523e+02
   2.269846e+02  -1.844743e+02
   3.165273e+02   6.663385e+01
   2.643549e+02   2.334350e+02
   8.788573e+01   2.521065e+02
  -1.089248e+02   1.524695e+02
  -1.701583e+02   2.211528e+01
  -5.858786e+01  -2.843926e+01
   6.442661e+01   3.627717e+01
   2.855070e+01   1.175412e+02
  -1.170800e+02   9.558060e+01
  -1.711305e+02  -9.803116e+00
  -5.774776e+01  -6.735303e+01
   7.435006e+01  -1.475070e+01
   5.034472e+01   6.954456e+01
  -1.204878e+02   8.002187e+01
  -2.700386e+02  -5.044101e+00
  -2.496376e+02  -1.365554e+02
  -5.507243e+01  -2.429831e+02
   1.768570e+02  -2.482484e+02
   2.716211e+02  -1.223946e+02
   1.650777e+02   4.684222e+01
  -2.055685e+01   1.053087e+02
  -8.649739e+01   1.075166e+01
   2.983493e+01  -9.558280e+01
   1.867183e+02  -5.775464e+01
   2.060397e+02   9.718326e+01
   6.868292e+01   2.001618e+02
  -8.946633e+01   1.534039e+02
  -1.382416e+02   2.973957e+01
  -6.872513e+01  -3.770460e+01
   2.406850e+01  -8.908845e-01
   3.238310e+01   7.928550e+01
  -7.027963e+01   1.053612e+02
  -1.890490e+02   2.528383e+01
  -1.829622e+02  -1.186665e+02
  -2.089799e+01  -2.095319e+02
   1.582954e+02  -1.592830e+02
   1.887264e+02  -7.841469e+00
   6.538204e+01   1.101370e+02
  -6.313177e+01   1.086662e+02
  -8.025560e+01   3.105154e+01
  -1.797527e+01  -2.321049e+01
   1.978204e+01  -1.601307e+01
  -1.148946e+01   7.839158e+00
  -6.939985e+01  -1.072335e+01
  -8.331113e+01  -8.121415e+01
  -1.163279e+01  -1.517562e+02
   1.221256e+02  -1.440154e+02
   2.230228e+02  -2.332120e+01
   1.928200e+02   1.440451e+02
   4.070365e+01   2.285183e+02
  -1.046647e+02   1.646806e+02
  -1.320002e+02   2.664741e+01
  -6.943822e+01  -5.446548e+01
  -2.829994e+01  -3.542493e+01
  -5.180592e+01   1.119518e+01
  -7.697143e+01   4.821720e+00
  -3.920030e+01  -4.980737e+01
   4.329605e+01  -8.465840e+01
   1.003333e+02  -5.027151e+01
   8.100956e+01   3.701299e+01
  -1.570072e+01   1.055452e+02
  -1.369671e+02   7.937844e+01
  -1.875274e+02  -5.065468e+01
  -9.456654e+01  -1.921180e+02
   1.021309e+02  -2.174067e+02
   2.555984e+02  -9.173330e+01
   2.474615e+02   8.201885e+01
   1.061609e+02   1.695402e+02
  -3.678852e+01   1.417901e+02
  -9.107273e+01   8.156382e+01
  -7.688471e+01   6.782076e+01
  -6.520368e+01   8.828094e+01
  -8.995232e+01   7.116346e+01
  -1.237637e+02  -2.224520e+01
  -1.124719e+02  -1.490229e+02
  -2.754425e+01  -2.173968e+02
   9.508030e+01  -1.652248e+02
   1.680191e+02  -1.971710e+01
   1.302027e+02   1.166763e+02
   1.819323e+01   1.526803e+02
  -6.394303e+01   8.764751e+01
  -5.622779e+01  -7.138070e-02
  -3.128431e+00  -4.018975e+01
   1.059409e+01  -3.133951e+01
  -3.531737e+01  -1.668273e+01
  -7.666598e+01  -2.286709e+01
  -4.259401e+01  -3.762210e+01
   6.190036e+01  -3.403320e+01
   1.513034e+02  -9.303171e-02
   1.359243e+02   5.031132e+01
   1.301225e+01   8.343055e+01
  -1.163365e+02   6.890855e+01
  -1.386431e+02   1.205281e+01
  -4.526266e+01  -3.922592e+01
   5.872235e+01  -3.581746e+01
   7.296850e+01   1.888082e+01
   6.651394e+00   6.712281e+01
  -5.460736e+01   5.656877e+01
  -6.143813e+01  -2.857405e+00
  -4.229109e+01  -4.991952e+01
  -4.140245e+01  -4.102174e+01
  -5.885246e+01  -1.890851e+00
  -6.345913e+01  -8.699374e-01
  -3.303160e+01  -6.627871e+01
   3.303925e+01  -1.403939e+02
   1.131407e+02  -1.338377e+02
   1.580527e+02  -2.909319e+01
   1.174525e+02   8.898560e+01
   4.759137e+00   1.207004e+02
  -8.385518e+01   5.794665e+01
  -5.797622e+01  -1.489783e+01
   5.689135e+01  -1.907615e+01
   1.319154e+02   4.193301e+01
   7.239771e+01   1.027550e+02
  -7.760164e+01   1.071006e+02
  -1.826127e+02   4.910046e+01
  -1.551242e+02  -3.258949e+01
  -3.551682e+01  -8.261403e+01
   5.783633e+01  -6.664592e+01
   4.617692e+01  -6.759709e+00
  -3.778214e+01   2.555547e+01
  -8.719317e+01  -2.219763e+01
  -3.158109e+01  -1.147692e+02
   8.834704e+01  -1.490560e+02
   1.617309e+02  -6.034968e+01
   1.222241e+02   9.686339e+01
   9.756846e+00   1.902517e+02
  -8.225411e+01   1.383596e+02
  -9.985544e+01  -6.879731e+00
  -5.738051e+01  -1.128807e+02
   1.926646e+00  -1.009354e+02
   4.357601e+01  -1.848551e+01
   4.959304e+01   2.947512e+01
   2.487401e+01   7.377381e+00
   3.568632e+00  -1.948488e+01
   1.915097e+01   1.570343e+01
   5.290422e+01   8.547872e+01
   4.020439e+01   1.040811e+02
  -4.499112e+01   4.215914e+01
  -1.327682e+02  -3.826971e+01
  -1.244854e+02  -6.799707e+01
  -1.624562e+01  -4.793898e+01
   8.485752e+01  -2.170140e+01
   8.463500e+01  -7.098132e+00
   9.985818e+00   7.883906e+00
  -3.699236e+01   2.169095e+01
  -1.313655e+01   1.674450e+01
   2.072027e+01  -2.069188e+00
  -5.792402e+00  -8.405069e+00
  -7.172565e+01  -3.307676e+00
  -8.793826e+01  -2.360783e+01
  -7.660539e+00  -7.853935e+01
   1.147948e+02  -1.100856e+02
   1.793415e+02  -5.465436e+01
   1.365705e+02   6.672972e+01
   2.402225e+01   1.562868e+02
  -7.738179e+01   1.431477e+02
  -1.107542e+02   5.516760e+01
  -7.745690e+01  -2.117887e+01
  -2.337124e+01  -3.432233e+01
   3.349389e+00  -8.979343e+00
  -9.308604e+00  -4.404281e+00
  -3.102954e+01  -4.373804e+01
  -2.102837e+01  -8.592135e+01
   2.850389e+01  -6.848817e+01
   7.805753e+01   1.797503e+01
   7.395863e+01   1.046701e+02
   3.656933e+00   1.087374e+02
  -7.999928e+01   2.318862e+01
  -9.949790e+01  -7.325225e+01
  -3.015485e+01  -1.003961e+02
   6.509221e+01  -5.325144e+01
   9.429857e+01   1.272197e+01
   3.642432e+01   4.962226e+01
  -3.291247e+01   4.933113e+01
  -3.041988e+01   2.580396e+01
   3.316236e+01  -1.155764e+00
   6.674619e+01  -6.070128e+00
   1.391213e+01   2.457231e+01
  -7.633451e+01   6.278348e+01
  -1.106335e+02   5.469793e+01
  -6.059716e+01  -1.278941e+01
   1.594244e+01  -7.973968e+01
   5.185073e+01  -7.518352e+01
   3.641489e+01  -4.326340e+00
   1.487852e+00   5.418051e+01
  -2.557244e+01   4.119316e+01
  -3.566455e+01  -1.776707e+01
  -2.508962e+01  -5.218085e+01
   3.703331e+00  -3.177263e+01
   3.207803e+01   8.416927e+00
   3.739937e+01   2.078256e+01
   1.930446e+01   1.278743e+00
   2.497427e-02  -1.399288e+01
  -5.264915e+00   2.652234e+00
  -5.878267e+00   3.610112e+01
  -1.681643e+01   4.458877e+01
  -3.247475e+01   7.961034e+00
  -2.996860e+01  -4.439428e+01
   2.055339e+00  -6.006092e+01
   4.344605e+01  -1.993360e+01
   5.464069e+01   3.868522e+01
   1.378187e+01   6.113418e+01
  -5.312907e+01   3.193227e+01
  -8.552620e+01  -1.596489e+01
  -4.679197e+01  -4.282131e+01
   2.848845e+01  -3.890965e+01
   6.305775e+01  -1.998609e+01
   2.357004e+01  -3.926467e+00
  -3.616302e+01  -1.330257e+00
  -3.701103e+01  -1.473996e+01
   2.890304e+01  -3.045057e+01
   8.751294e+01  -1.964131e+01
