
 $NMID
 id='ANONYMOUS ', fmtdat='(2E16.6)'
 volume=1.0
 tramp=1.0
 $END
   4.322818e+03  -5.118376e+01
   2.575748e+03   2.556906e+03
  -6.614637e+02   2.762103e+03
  -2.086323e+03   9.571036e+02
  -9.868263e+02  -6.027332e+02
   6.042299e+02  -5.795109e+02
   8.748961e+02   4.015456e+02
   1.132718e+01   1.047387e+03
  -8.083063e+02   7.887679e+02
  -9.369514e+02  -7.601940e+01
  -4.654164e+02  -8.507731e+02
   2.208467e+02  -8.934714e+02
   6.253442e+02  -1.317350e+02
   3.892165e+02   7.050514e+02
  -2.570444e+02   7.513837e+02
  -6.056913e+02   5.214530e+00
  -2.850809e+02  -6.801596e+02
   3.140008e+02  -6.505452e+02
   5.903639e+02  -1.106887e+02
   4.035131e+02   3.460266e+02
   2.822829e+01   4.417599e+02
  -2.358663e+02   2.702705e+02
  -2.070528e+02   2.657945e+01
   1.150815e+02  -7.143896e+01
   3.981964e+02   1.227361e+02
   1.880184e+02   4.255375e+02
  -4.595728e+02   3.995237e+02
  -8.401616e+02  -7.672175e+01
  -4.275365e+02  -5.367633e+02
   3.843783e+02  -4.726779e+02
   7.357977e+02   3.512249e+01
   3.448027e+02   4.755475e+02
  -2.794143e+02   5.146428e+02
  -5.643799e+02   2.038258e+02
  -4.185516e+02  -2.228780e+02
  -7.883162e+01  -4.704984e+02
   1.860464e+02  -2.871708e+02
   1.630427e+02   2.044224e+02
  -1.595757e+02   4.232274e+02
  -4.313927e+02  -1.964724e+01
  -2.386922e+02  -6.710540e+02
   3.094177e+02  -6.975690e+02
   5.943706e+02  -1.410928e+01
   2.629211e+02   5.410444e+02
  -2.795465e+02   3.172002e+02
  -3.789028e+02  -3.172250e+02
   6.539181e+01  -5.428503e+02
   5.523125e+02  -1.379135e+02
   5.976787e+02   4.051433e+02
   1.720032e+02   5.870700e+02
  -3.785245e+02   3.496427e+02
  -6.312600e+02  -6.909797e+01
  -3.832044e+02  -3.786249e+02
   1.429861e+02  -3.651690e+02
   4.403474e+02  -6.519631e+01
   2.504754e+02   1.863190e+02
  -1.085260e+02   1.082953e+02
  -1.442993e+02  -1.453690e+02
   1.576522e+02  -1.846939e+02
   3.463089e+02   6.794521e+01
   1.475386e+02   2.964662e+02
  -2.030386e+02   2.645131e+02
  -3.388573e+02   7.783596e+01
  -2.022886e+02  -8.986207e+01
   2.918218e+01  -2.315966e+02
   2.276525e+02  -3.283823e+02
   3.393335e+02  -2.173419e+02
   2.908280e+02   1.355928e+02
   8.359295e+01   4.348604e+02
  -1.074112e+02   3.891056e+02
  -1.187455e+02   1.226692e+02
  -3.066440e+01  -4.646488e+00
  -4.941830e+01   8.589098e+01
  -1.960830e+02   1.260111e+02
  -2.773060e+02  -5.341417e+01
  -1.598220e+02  -2.688279e+02
   6.929540e+01  -2.559891e+02
   2.261966e+02  -1.112699e+01
   1.980786e+02   2.398402e+02
  -8.702224e+00   2.942397e+02
  -2.652031e+02   1.175651e+02
  -3.626765e+02  -1.649487e+02
  -1.922004e+02  -3.501751e+02
   9.411791e+01  -3.106856e+02
   2.269411e+02  -1.283523e+02
   1.554708e+02  -1.046158e+01
   1.040240e+02  -3.534983e+01
   2.361775e+02  -6.307625e+01
   4.026335e+02   5.781426e+01
   3.348657e+02   2.851230e+02
  -6.718145e-01   4.444226e+02
  -3.603140e+02   4.159718e+02
  -4.888512e+02   2.039236e+02
  -3.366661e+02  -9.038217e+01
  -5.672799e+01  -2.928778e+02
   1.258369e+02  -2.548740e+02
   7.938867e+01  -3.368854e+01
  -1.081475e+02   1.059130e+02
  -1.942603e+02  -3.799339e+00
  -5.228646e+01  -1.939047e+02
   1.576315e+02  -1.736203e+02
   1.788573e+02   5.715433e+01
  -1.448151e+01   1.921290e+02
  -1.936303e+02   3.413438e+01
  -1.663886e+02  -2.481454e+02
   2.937970e+01  -3.523185e+02
   2.325535e+02  -1.950010e+02
   3.295804e+02   6.320420e+01
   2.789523e+02   2.396216e+02
   9.447646e+01   2.636413e+02
  -1.132491e+02   1.604751e+02
  -1.773060e+02   2.244163e+01
  -5.936425e+01  -3.059065e+01
   6.887184e+01   3.876813e+01
   2.955049e+01   1.242779e+02
  -1.232445e+02   1.000677e+02
  -1.785385e+02  -1.112935e+01
  -5.890917e+01  -7.128934e+01
   7.944710e+01  -1.593549e+01
   5.448676e+01   7.328098e+01
  -1.244239e+02   8.654124e+01
  -2.824665e+02  -8.343756e-01
  -2.631953e+02  -1.398937e+02
  -6.014352e+01  -2.544764e+02
   1.834533e+02  -2.613063e+02
   2.829972e+02  -1.284082e+02
   1.710290e+02   4.948873e+01
  -2.289914e+01   1.096198e+02
  -9.045684e+01   9.702317e+00
   3.198588e+01  -1.010087e+02
   1.953215e+02  -6.073633e+01
   2.147896e+02   1.008703e+02
   7.159334e+01   2.079827e+02
  -9.308568e+01   1.594740e+02
  -1.440137e+02   3.059270e+01
  -7.100070e+01  -4.040684e+01
   2.723288e+01  -2.108769e+00
   3.667520e+01   8.318137e+01
  -7.166641e+01   1.124804e+02
  -1.976282e+02   2.931316e+01
  -1.922129e+02  -1.221605e+02
  -2.306073e+01  -2.181851e+02
   1.637333e+02  -1.662323e+02
   1.952489e+02  -8.544584e+00
   6.722555e+01   1.142763e+02
  -6.575616e+01   1.128486e+02
  -8.334289e+01   3.186454e+01
  -1.857329e+01  -2.538548e+01
   2.142294e+01  -1.806046e+01
  -1.031121e+01   8.445427e+00
  -7.153995e+01  -8.647725e+00
  -8.856329e+01  -8.203410e+01
  -1.533226e+01  -1.580755e+02
   1.253085e+02  -1.524662e+02
   2.328250e+02  -2.701381e+01
   2.025599e+02   1.483809e+02
   4.399976e+01   2.372032e+02
  -1.076757e+02   1.713849e+02
  -1.363753e+02   2.858373e+01
  -7.175411e+01  -5.536110e+01
  -2.925960e+01  -3.591981e+01
  -5.350516e+01   1.244541e+01
  -7.993249e+01   6.596778e+00
  -4.216326e+01  -5.011277e+01
   4.233216e+01  -8.848662e+01
   1.027917e+02  -5.534526e+01
   8.567665e+01   3.573193e+01
  -1.339906e+01   1.104429e+02
  -1.412763e+02   8.607304e+01
  -1.968340e+02  -4.986064e+01
  -1.012847e+02  -2.000187e+02
   1.044676e+02  -2.285661e+02
   2.657818e+02  -9.804792e+01
   2.581808e+02   8.364838e+01
   1.113210e+02   1.757768e+02
  -3.748141e+01   1.476601e+02
  -9.396547e+01   8.512329e+01
  -7.890719e+01   7.044728e+01
  -6.626132e+01   9.173024e+01
  -9.207617e+01   7.484076e+01
  -1.284879e+02  -2.131053e+01
  -1.185150e+02  -1.533139e+02
  -3.100087e+01  -2.257164e+02
   9.739578e+01  -1.727354e+02
   1.750055e+02  -2.177308e+01
   1.368689e+02   1.206633e+02
   2.016809e+01   1.591839e+02
  -6.655075e+01   9.228373e+01
  -5.972594e+01   5.645504e-01
  -4.530194e+00  -4.262047e+01
   1.076172e+01  -3.409124e+01
  -3.618984e+01  -1.757707e+01
  -7.952808e+01  -2.231710e+01
  -4.492083e+01  -3.813180e+01
   6.375588e+01  -3.693480e+01
   1.577912e+02  -3.167326e+00
   1.428253e+02   5.074521e+01
   1.505705e+01   8.801449e+01
  -1.202781e+02   7.411691e+01
  -1.445488e+02   1.403658e+01
  -4.820695e+01  -4.071718e+01
   6.000514e+01  -3.796305e+01
   7.594557e+01   1.854075e+01
   8.332051e+00   6.872501e+01
  -5.518826e+01   5.867213e+01
  -6.351011e+01  -1.709214e+00
  -4.476386e+01  -5.015691e+01
  -4.367547e+01  -4.173113e+01
  -6.099384e+01  -1.775223e+00
  -6.592112e+01  -2.662438e-01
  -3.564781e+01  -6.770279e+01
   3.191976e+01  -1.457670e+02
   1.156133e+02  -1.411934e+02
   1.639944e+02  -3.351759e+01
   1.234579e+02   9.040966e+01
   6.919516e+00   1.257701e+02
  -8.580392e+01   6.186938e+01
  -6.003675e+01  -1.450293e+01
   5.877794e+01  -2.039698e+01
   1.372286e+02   4.229464e+01
   7.618936e+01   1.063110e+02
  -7.968258e+01   1.123171e+02
  -1.897253e+02   5.278847e+01
  -1.619722e+02  -3.271492e+01
  -3.758323e+01  -8.594304e+01
   6.013914e+01  -7.001134e+01
   4.860497e+01  -7.374343e+00
  -3.858870e+01   2.716691e+01
  -9.054753e+01  -2.177727e+01
  -3.397658e+01  -1.181085e+02
   8.961416e+01  -1.547193e+02
   1.662854e+02  -6.381507e+01
   1.271790e+02   9.897581e+01
   1.196189e+01   1.967479e+02
  -8.404989e+01   1.442057e+02
  -1.041435e+02  -6.130579e+00
  -6.097809e+01  -1.170618e+02
   1.347733e+00  -1.057367e+02
   4.559957e+01  -2.010214e+01
   5.181261e+01   3.062267e+01
   2.565876e+01   8.137169e+00
   3.775888e+00  -2.039046e+01
   2.074814e+01   1.533721e+01
   5.606780e+01   8.796858e+01
   4.239344e+01   1.083734e+02
  -4.660921e+01   4.501524e+01
  -1.380134e+02  -3.838643e+01
  -1.297365e+02  -6.974685e+01
  -1.773080e+01  -4.955848e+01
   8.738564e+01  -2.291610e+01
   8.790382e+01  -8.140808e+00
   1.092468e+01   7.570324e+00
  -3.815643e+01   2.256452e+01
  -1.399140e+01   1.790364e+01
   2.116592e+01  -1.860561e+00
  -5.760467e+00  -8.846503e+00
  -7.391281e+01  -3.184319e+00
  -9.134996e+01  -2.330114e+01
  -9.144294e+00  -8.025883e+01
   1.172786e+02  -1.146546e+02
   1.847454e+02  -5.916967e+01
   1.418673e+02   6.650369e+01
   2.662796e+01   1.612297e+02
  -7.814250e+01   1.496204e+02
  -1.136553e+02   5.887312e+01
  -8.039220e+01  -2.102002e+01
  -2.490296e+01  -3.523262e+01
   2.903908e+00  -8.951084e+00
  -1.014958e+01  -4.210359e+00
  -3.296732e+01  -4.531634e+01
  -2.285310e+01  -8.934184e+01
   2.874679e+01  -7.139874e+01
   8.083169e+01   1.790459e+01
   7.741233e+01   1.073371e+02
   5.073737e+00   1.118465e+02
  -8.185842e+01   2.447185e+01
  -1.031825e+02  -7.439878e+01
  -3.255088e+01  -1.030527e+02
   6.607180e+01  -5.591546e+01
   9.767421e+01   1.147776e+01
   3.911592e+01   5.057187e+01
  -3.271043e+01   5.184268e+01
  -3.128526e+01   2.791476e+01
   3.378781e+01  -9.889280e-01
   6.894342e+01  -7.038963e+00
   1.496340e+01   2.505164e+01
  -7.845856e+01   6.595740e+01
  -1.146570e+02   5.844392e+01
  -6.355258e+01  -1.197298e+01
   1.536826e+01  -8.272962e+01
   5.262649e+01  -7.909267e+01
   3.720769e+01  -5.726235e+00
   1.961072e+00   5.561815e+01
  -2.552707e+01   4.292162e+01
  -3.650853e+01  -1.784308e+01
  -2.665582e+01  -5.363369e+01
   2.824452e+00  -3.291451e+01
   3.306380e+01   8.269494e+00
   3.944660e+01   2.096672e+01
   2.036746e+01   1.128606e+00
  -6.861277e-01  -1.432234e+01
  -6.414286e+00   2.634422e+00
  -5.918283e+00   3.653969e+01
  -1.599676e+01   4.523347e+01
  -3.227622e+01   8.390164e+00
  -3.089387e+01  -4.461165e+01
   1.298635e+00  -6.099880e+01
   4.429705e+01  -2.089180e+01
   5.667231e+01   3.882573e+01
   1.486244e+01   6.273685e+01
  -5.455204e+01   3.395909e+01
  -8.858799e+01  -1.507259e+01
  -4.899259e+01  -4.366473e+01
   2.864597e+01  -4.074145e+01
   6.455869e+01  -2.163370e+01
   2.427581e+01  -4.797691e+00
  -3.690471e+01  -1.627363e+00
  -3.768733e+01  -1.506745e+01
   3.000136e+01  -3.118699e+01
   9.020258e+01  -2.032345e+01
