
 $NMID
 id='ANONYMOUS ', fmtdat='(2E16.6)'
 volume=1.0
 tramp=1.0
 $END
   3.753909e+03  -3.842724e+01
   2.330291e+03   2.120579e+03
  -3.817321e+02   2.410740e+03
  -1.708734e+03   1.040437e+03
  -9.555054e+02  -2.891087e+02
   3.394712e+02  -4.362778e+02
   6.646742e+02   2.644397e+02
   3.802174e+01   8.270385e+02
  -6.425171e+02   6.903263e+02
  -7.990756e+02  -7.584447e+00
  -4.425567e+02  -6.936372e+02
   1.250825e+02  -7.760074e+02
   4.861561e+02  -1.543941e+02
   3.289940e+02   5.691836e+02
  -1.911538e+02   6.496000e+02
  -5.112440e+02   3.663584e+01
  -2.828007e+02  -5.838962e+02
   2.333085e+02  -6.194410e+02
   5.274993e+02  -1.682811e+02
   4.056241e+02   2.724569e+02
   6.605666e+01   3.980844e+02
  -1.851281e+02   2.536870e+02
  -1.517912e+02   4.790436e+01
   1.291418e+02  -5.703930e+00
   3.328720e+02   1.706221e+02
   1.078528e+02   3.797397e+02
  -4.390240e+02   2.965248e+02
  -7.179269e+02  -1.092329e+02
  -3.396158e+02  -4.478944e+02
   3.402177e+02  -3.569129e+02
   6.187413e+02   6.426427e+01
   2.763027e+02   4.124521e+02
  -2.588695e+02   4.340175e+02
  -5.003135e+02   1.696786e+02
  -3.678819e+02  -1.896605e+02
  -8.044234e+01  -3.943286e+02
   1.212115e+02  -2.424554e+02
   8.713519e+01   1.500375e+02
  -1.540533e+02   3.104277e+02
  -3.286543e+02  -5.710884e+01
  -1.517861e+02  -5.742734e+02
   2.705240e+02  -5.777691e+02
   4.743585e+02  -1.389728e+01
   2.061296e+02   4.350582e+02
  -2.182535e+02   2.438494e+02
  -2.905710e+02  -2.830064e+02
   7.723471e+01  -4.634658e+02
   4.887703e+02  -1.041596e+02
   5.317014e+02   3.752542e+02
   1.590609e+02   5.299277e+02
  -3.331547e+02   3.066202e+02
  -5.639218e+02  -6.328149e+01
  -3.540244e+02  -3.177250e+02
   9.991283e+01  -3.030955e+02
   3.684607e+02  -7.181405e+01
   2.320259e+02   1.222983e+02
  -6.022341e+01   7.654400e+01
  -1.066964e+02  -1.022568e+02
   1.269974e+02  -1.331375e+02
   2.896373e+02   5.550281e+01
   1.351571e+02   2.467494e+02
  -1.763610e+02   2.475903e+02
  -3.280610e+02   9.447920e+01
  -2.163450e+02  -9.132222e+01
   2.856030e+01  -2.545212e+02
   2.453546e+02  -3.256915e+02
   3.354472e+02  -1.854696e+02
   2.569557e+02   1.398473e+02
   6.736614e+01   3.889298e+02
  -7.712544e+01   3.484482e+02
  -8.072506e+01   1.373457e+02
  -3.337893e+01   3.527956e+01
  -8.072011e+01   9.053866e+01
  -2.064148e+02   9.237333e+01
  -2.503524e+02  -7.625998e+01
  -1.264775e+02  -2.525238e+02
   7.575912e+01  -2.209632e+02
   2.023861e+02   8.888198e+00
   1.650296e+02   2.307295e+02
  -2.328619e+01   2.643016e+02
  -2.462881e+02   9.123976e+01
  -3.259147e+02  -1.614190e+02
  -1.747494e+02  -3.168911e+02
   7.515568e+01  -2.816202e+02
   1.968334e+02  -1.326198e+02
   1.478215e+02  -3.466794e+01
   1.169259e+02  -4.426453e+01
   2.413433e+02  -4.853552e+01
   3.874546e+02   7.180945e+01
   3.132854e+02   2.794820e+02
  -1.207684e+01   4.225294e+02
  -3.549899e+02   3.884242e+02
  -4.650335e+02   1.814409e+02
  -3.032340e+02  -9.107843e+01
  -3.982275e+01  -2.645033e+02
   1.087718e+02  -2.229760e+02
   5.149287e+01  -3.483597e+01
  -1.059396e+02   7.640109e+01
  -1.615656e+02  -1.564537e+01
  -3.399051e+01  -1.656681e+02
   1.352590e+02  -1.409472e+02
   1.454886e+02   5.232464e+01
  -1.862470e+01   1.610465e+02
  -1.727970e+02   1.976254e+01
  -1.526244e+02  -2.333525e+02
   2.653814e+01  -3.336510e+02
   2.277786e+02  -1.900335e+02
   3.259749e+02   6.266502e+01
   2.653414e+02   2.401056e+02
   7.591929e+01   2.566920e+02
  -1.150252e+02   1.451046e+02
  -1.598098e+02   1.476548e+01
  -4.800493e+01  -2.290361e+01
   5.850928e+01   4.567022e+01
   1.520811e+01   1.145224e+02
  -1.183047e+02   8.242008e+01
  -1.586924e+02  -1.705762e+01
  -4.596593e+01  -6.196024e+01
   7.666962e+01  -3.842857e+00
   4.519032e+01   7.789750e+01
  -1.292822e+02   8.210657e+01
  -2.777629e+02  -1.128033e+01
  -2.483505e+02  -1.475464e+02
  -4.328308e+01  -2.468885e+02
   1.862680e+02  -2.381793e+02
   2.658806e+02  -1.093311e+02
   1.509741e+02   4.641225e+01
  -2.461574e+01   9.277529e+01
  -7.644634e+01   3.770239e+00
   3.896744e+01  -8.813660e+01
   1.829499e+02  -4.654968e+01
   1.947331e+02   9.867272e+01
   6.165298e+01   1.916690e+02
  -8.800794e+01   1.430817e+02
  -1.305626e+02   2.348624e+01
  -5.828282e+01  -3.701724e+01
   3.142166e+01   7.607058e+00
   3.029618e+01   9.020655e+01
  -7.961592e+01   1.090046e+02
  -1.946084e+02   1.983793e+01
  -1.792077e+02  -1.231869e+02
  -1.592006e+01  -2.053122e+02
   1.547796e+02  -1.522175e+02
   1.791738e+02  -8.312483e+00
   5.947464e+01   1.020298e+02
  -6.170064e+01   1.008695e+02
  -7.467197e+01   2.750575e+01
  -1.082298e+01  -2.377590e+01
   2.662040e+01  -1.313382e+01
  -9.847967e+00   1.485012e+01
  -7.561080e+01  -5.079791e+00
  -9.078725e+01  -8.359482e+01
  -1.146316e+01  -1.587376e+02
   1.282459e+02  -1.453667e+02
   2.254118e+02  -1.741800e+01
   1.888891e+02   1.476128e+02
   3.799777e+01   2.241422e+02
  -1.016101e+02   1.590770e+02
  -1.281492e+02   2.761062e+01
  -6.953614e+01  -4.917449e+01
  -2.982902e+01  -3.203458e+01
  -5.231834e+01   1.231941e+01
  -7.985726e+01   5.780860e+00
  -4.561287e+01  -5.165800e+01
   4.075715e+01  -9.183289e+01
   1.073556e+02  -5.693990e+01
   9.031582e+01   3.896809e+01
  -1.575075e+01   1.136393e+02
  -1.453338e+02   8.269660e+01
  -1.917917e+02  -5.587593e+01
  -8.883688e+01  -1.974848e+02
   1.098760e+02  -2.152247e+02
   2.559049e+02  -8.541161e+01
   2.412137e+02   8.439094e+01
   1.005953e+02   1.662566e+02
  -3.773780e+01   1.372840e+02
  -8.830438e+01   7.901276e+01
  -7.239374e+01   6.705783e+01
  -6.104152e+01   8.891393e+01
  -8.825636e+01   7.319664e+01
  -1.244952e+02  -2.007273e+01
  -1.129708e+02  -1.480157e+02
  -2.647876e+01  -2.164610e+02
   9.552504e+01  -1.623884e+02
   1.656728e+02  -1.567192e+01
   1.259991e+02   1.188972e+02
   1.396511e+01   1.512135e+02
  -6.763676e+01   8.313252e+01
  -5.801758e+01  -5.869379e+00
  -3.815603e-01  -4.505456e+01
   1.696731e+01  -3.288700e+01
  -3.126372e+01  -1.456717e+01
  -7.829282e+01  -2.024915e+01
  -4.486669e+01  -3.783839e+01
   6.527714e+01  -3.595822e+01
   1.576124e+02   5.371245e-01
   1.368914e+02   5.478354e+01
   7.284125e+00   8.799748e+01
  -1.215352e+02   6.958351e+01
  -1.388407e+02   9.012693e+00
  -4.409147e+01  -4.307871e+01
   5.796994e+01  -3.842064e+01
   7.365040e+01   1.811471e+01
   1.174004e+01   6.834710e+01
  -4.986294e+01   5.921458e+01
  -6.314227e+01  -4.543665e-01
  -4.791915e+01  -4.901270e+01
  -4.337034e+01  -4.110378e+01
  -5.624874e+01  -1.884318e+00
  -6.282079e+01  -9.373784e-01
  -3.721281e+01  -6.739145e+01
   2.965943e+01  -1.427096e+02
   1.159272e+02  -1.364190e+02
   1.642504e+02  -3.068822e+01
   1.207341e+02   8.947317e+01
   3.744286e+00   1.235595e+02
  -8.570397e+01   6.169093e+01
  -5.858561e+01  -1.276388e+01
   5.621028e+01  -1.936971e+01
   1.299335e+02   4.085369e+01
   7.011539e+01   1.021133e+02
  -7.850112e+01   1.056952e+02
  -1.814794e+02   4.590946e+01
  -1.524599e+02  -3.540976e+01
  -3.268004e+01  -8.197873e+01
   5.938227e+01  -6.297529e+01
   4.632255e+01  -3.328869e+00
  -3.790213e+01   2.738194e+01
  -8.770267e+01  -2.040548e+01
  -3.460512e+01  -1.125561e+02
   8.228621e+01  -1.488177e+02
   1.563347e+02  -6.361621e+01
   1.215290e+02   9.213714e+01
   1.266253e+01   1.868216e+02
  -8.015107e+01   1.363435e+02
  -9.944802e+01  -8.495509e+00
  -5.530737e+01  -1.135035e+02
   6.465487e+00  -9.967656e+01
   4.601454e+01  -1.664264e+01
   4.683458e+01   3.004205e+01
   2.103256e+01   7.334912e+00
   4.476394e+00  -1.829339e+01
   2.345888e+01   1.745903e+01
   5.391939e+01   8.539728e+01
   3.607802e+01   1.023018e+02
  -4.847213e+01   4.153387e+01
  -1.311021e+02  -3.679987e+01
  -1.211400e+02  -6.695407e+01
  -1.691217e+01  -4.902765e+01
   8.110894e+01  -2.301124e+01
   8.353724e+01  -6.498835e+00
   1.288906e+01   9.114289e+00
  -3.508741e+01   2.112590e+01
  -1.549123e+01   1.486789e+01
   1.780901e+01  -2.739873e+00
  -4.431629e+00  -7.092821e+00
  -6.798204e+01  -1.346711e+00
  -8.816643e+01  -2.196799e+01
  -1.357437e+01  -7.762143e+01
   1.087669e+02  -1.113019e+02
   1.787591e+02  -5.913992e+01
   1.404505e+02   6.114332e+01
   2.754481e+01   1.539066e+02
  -7.627482e+01   1.453667e+02
  -1.104752e+02   5.883524e+01
  -7.711895e+01  -1.955322e+01
  -2.433256e+01  -3.497890e+01
   7.779397e-01  -1.039898e+01
  -1.107430e+01  -5.885461e+00
  -3.024447e+01  -4.496090e+01
  -1.957314e+01  -8.621610e+01
   2.793445e+01  -6.848624e+01
   7.652041e+01   1.604480e+01
   7.520163e+01   1.007162e+02
   8.440984e+00   1.068390e+02
  -7.585116e+01   2.663955e+01
  -1.000649e+02  -6.762229e+01
  -3.414163e+01  -9.899212e+01
   6.275402e+01  -5.698847e+01
   9.621073e+01   9.743259e+00
   3.986369e+01   5.171046e+01
  -3.235091e+01   5.353819e+01
  -3.363288e+01   2.697289e+01
   2.943831e+01  -3.117729e+00
   6.587153e+01  -7.449118e+00
   1.561236e+01   2.501270e+01
  -7.525477e+01   6.289813e+01
  -1.123387e+02   5.350666e+01
  -6.381595e+01  -1.379644e+01
   1.416491e+01  -8.025293e+01
   5.282239e+01  -7.719576e+01
   3.900656e+01  -8.090525e+00
   4.045582e+00   5.208765e+01
  -2.388134e+01   4.330227e+01
  -3.530801e+01  -1.409547e+01
  -2.626509e+01  -5.152716e+01
   2.081673e+00  -3.436342e+01
   3.189187e+01   6.643990e+00
   3.867621e+01   2.197931e+01
   1.959971e+01   2.622022e+00
  -1.768892e+00  -1.605141e+01
  -5.940170e+00  -1.939751e+00
  -1.644897e+00   3.340080e+01
  -9.625575e+00   4.672122e+01
  -2.914915e+01   1.359496e+01
  -3.386286e+01  -3.915084e+01
  -4.451912e+00  -5.833207e+01
   4.097281e+01  -2.207463e+01
   5.688648e+01   3.505538e+01
   1.621620e+01   5.929121e+01
  -5.330115e+01   3.331400e+01
  -8.690013e+01  -1.312301e+01
  -4.772218e+01  -4.175407e+01
   2.758502e+01  -4.099004e+01
   6.238794e+01  -2.332984e+01
   2.521507e+01  -5.331093e+00
  -3.208406e+01   6.637828e-01
  -3.466788e+01  -1.084965e+01
   2.586093e+01  -2.772401e+01
   8.167622e+01  -2.006542e+01
