
 $NMID
 id='ANONYMOUS ', fmtdat='(2E16.6)'
 volume=1.0
 tramp=1.0
 $END
   3.999873e+03   6.026827e+01
   2.434455e+03   2.302484e+03
  -4.427566e+02   2.550719e+03
  -1.823640e+03   1.088066e+03
  -1.013677e+03  -2.953122e+02
   3.496076e+02  -4.376441e+02
   6.834381e+02   2.915966e+02
   1.873215e+01   8.688078e+02
  -6.940489e+02   7.162392e+02
  -8.462211e+02  -2.168066e+01
  -4.563520e+02  -7.424397e+02
   1.443672e+02  -8.202509e+02
   5.119741e+02  -1.546560e+02
   3.319852e+02   6.092775e+02
  -2.164893e+02   6.849662e+02
  -5.419746e+02   2.931744e+01
  -2.903954e+02  -6.269499e+02
   2.569446e+02  -6.596508e+02
   5.652584e+02  -1.762082e+02
   4.314645e+02   2.945301e+02
   6.635554e+01   4.260043e+02
  -2.002824e+02   2.671184e+02
  -1.578122e+02   4.928014e+01
   1.444565e+02   4.169419e+00
   3.510348e+02   2.004421e+02
   9.721362e+01   4.113410e+02
  -4.835865e+02   2.986588e+02
  -7.620412e+02  -1.422013e+02
  -3.443999e+02  -4.849667e+02
   3.752717e+02  -3.636607e+02
   6.559622e+02   9.076337e+01
   2.799351e+02   4.476883e+02
  -2.902598e+02   4.542612e+02
  -5.392571e+02   1.667715e+02
  -3.872500e+02  -2.110960e+02
  -7.622875e+01  -4.195873e+02
   1.300946e+02  -2.522017e+02
   7.972536e+01   1.606441e+02
  -1.771946e+02   3.190196e+02
  -3.437366e+02  -7.745382e+01
  -1.379586e+02  -6.170428e+02
   3.051237e+02  -6.042471e+02
   4.995560e+02  -4.767677e-01
   2.031729e+02   4.649160e+02
  -2.368934e+02   2.482537e+02
  -2.967467e+02  -3.120368e+02
   9.795821e+01  -4.913871e+02
   5.254307e+02  -9.605054e+01
   5.592082e+02   4.167244e+02
   1.575672e+02   5.711771e+02
  -3.635688e+02   3.183314e+02
  -6.013985e+02  -8.224027e+01
  -3.711667e+02  -3.453430e+02
   1.116657e+02  -3.170680e+02
   3.917034e+02  -6.820623e+01
   2.441881e+02   1.301291e+02
  -6.208554e+01   7.586957e+01
  -1.071562e+02  -1.091599e+02
   1.386357e+02  -1.340505e+02
   3.052760e+02   6.685799e+01
   1.379015e+02   2.645862e+02
  -1.936726e+02   2.615911e+02
  -3.556216e+02   9.726398e+01
  -2.344606e+02  -1.031350e+02
   3.527951e+01  -2.781806e+02
   2.750854e+02  -3.483453e+02
   3.682851e+02  -1.899601e+02
   2.715958e+02   1.588131e+02
   6.111886e+01   4.179418e+02
  -8.866437e+01   3.698881e+02
  -8.504339e+01   1.475672e+02
  -3.569623e+01   4.265151e+01
  -9.312469e+01   9.828370e+01
  -2.283090e+02   9.205125e+01
  -2.673522e+02  -9.179265e+01
  -1.270592e+02  -2.756643e+02
   8.890651e+01  -2.338502e+02
   2.170337e+02   1.727894e+01
   1.696263e+02   2.537260e+02
  -3.373645e+01   2.828796e+02
  -2.675700e+02   8.976212e+01
  -3.452412e+02  -1.827732e+02
  -1.793757e+02  -3.437047e+02
   8.610117e+01  -2.993720e+02
   2.122179e+02  -1.390381e+02
   1.590733e+02  -3.723764e+01
   1.289465e+02  -4.717690e+01
   2.638705e+02  -4.598471e+01
   4.172060e+02   8.825073e+01
   3.309101e+02   3.096470e+02
  -2.416158e+01   4.555326e+02
  -3.933426e+02   4.100662e+02
  -5.058292e+02   1.832915e+02
  -3.226969e+02  -1.064416e+02
  -3.444828e+01  -2.846968e+02
   1.216740e+02  -2.348156e+02
   5.301632e+01  -3.574683e+01
  -1.173199e+02   7.684925e+01
  -1.712081e+02  -2.308236e+01
  -3.001196e+01  -1.774977e+02
   1.480506e+02  -1.450307e+02
   1.522786e+02   6.045444e+01
  -2.527533e+01   1.704832e+02
  -1.857024e+02   1.521940e+01
  -1.583116e+02  -2.548460e+02
   3.608389e+01  -3.587220e+02
   2.504891e+02  -2.004757e+02
   3.516223e+02   7.478828e+01
   2.809878e+02   2.664149e+02
   7.437635e+01   2.797223e+02
  -1.285427e+02   1.530675e+02
  -1.716738e+02   1.103984e+01
  -4.984580e+01  -2.531227e+01
   6.145642e+01   5.199751e+01
   1.193103e+01   1.238146e+02
  -1.300442e+02   8.449385e+01
  -1.694385e+02  -2.331061e+01
  -4.656086e+01  -6.746883e+01
   8.332559e+01  -9.513005e-01
   4.639071e+01   8.633143e+01
  -1.426463e+02   8.596141e+01
  -3.007159e+02  -1.949490e+01
  -2.646185e+02  -1.666606e+02
  -3.938562e+01  -2.682694e+02
   2.081476e+02  -2.515617e+02
   2.891279e+02  -1.099446e+02
   1.600818e+02   5.385653e+01
  -2.948984e+01   9.802930e+01
  -8.143633e+01   1.207537e+00
   4.545510e+01  -9.340483e+01
   1.983170e+02  -4.440342e+01
   2.064696e+02   1.115332e+02
   6.097250e+01   2.074245e+02
  -9.839366e+01   1.510401e+02
  -1.406309e+02   2.133199e+01
  -6.069330e+01  -4.141739e+01
   3.481101e+01   9.951025e+00
   3.044677e+01   9.955317e+01
  -8.971003e+01   1.163959e+02
  -2.113856e+02   1.615745e+01
  -1.901362e+02  -1.379137e+02
  -1.159345e+01  -2.215851e+02
   1.703946e+02  -1.597015e+02
   1.924187e+02  -4.627719e+00
   6.090775e+01   1.106220e+02
  -6.895056e+01   1.064156e+02
  -8.061219e+01   2.738248e+01
  -1.020706e+01  -2.610334e+01
   2.997566e+01  -1.327277e+01
  -1.067645e+01   1.667723e+01
  -8.223509e+01  -6.473751e+00
  -9.702566e+01  -9.262288e+01
  -8.669118e+00  -1.725639e+02
   1.427023e+02  -1.541564e+02
   2.441855e+02  -1.270634e+01
   1.999707e+02   1.643974e+02
   3.527190e+01   2.423901e+02
  -1.131892e+02   1.685701e+02
  -1.385134e+02   2.682497e+01
  -7.384374e+01  -5.407044e+01
  -3.159131e+01  -3.484162e+01
  -5.683226e+01   1.220570e+01
  -8.671792e+01   4.501776e+00
  -4.886771e+01  -5.701018e+01
   4.576727e+01  -9.906748e+01
   1.180789e+02  -5.987583e+01
   9.781006e+01   4.434706e+01
  -1.960746e+01   1.233633e+02
  -1.599189e+02   8.636826e+01
  -2.063693e+02  -6.551381e+01
  -9.054843e+01  -2.161159e+02
   1.247930e+02  -2.295894e+02
   2.784686e+02  -8.530918e+01
   2.576586e+02   9.726300e+01
   1.038870e+02   1.815641e+02
  -4.420535e+01   1.467610e+02
  -9.690729e+01   8.283787e+01
  -7.919648e+01   7.051489e+01
  -6.748300e+01   9.456798e+01
  -9.678959e+01   7.716401e+01
  -1.340032e+02  -2.435150e+01
  -1.184961e+02  -1.623710e+02
  -2.327763e+01  -2.342411e+02
   1.071088e+02  -1.726960e+02
   1.790078e+02  -1.241725e+01
   1.326982e+02   1.317240e+02
   1.090812e+01   1.634710e+02
  -7.554933e+01   8.761800e+01
  -6.281458e+01  -8.440785e+00
   9.465051e-01  -4.931946e+01
   1.990149e+01  -3.539326e+01
  -3.285709e+01  -1.625927e+01
  -8.422266e+01  -2.337032e+01
  -4.783604e+01  -4.191984e+01
   7.174462e+01  -3.756337e+01
   1.709829e+02   4.329629e+00
   1.466844e+02   6.297575e+01
   5.094713e+00   9.585392e+01
  -1.335407e+02   7.239256e+01
  -1.501910e+02   6.032363e+00
  -4.648284e+01  -4.807586e+01
   6.337310e+01  -4.042490e+01
   7.916587e+01   2.120659e+01
   1.171784e+01   7.416012e+01
  -5.460177e+01   6.301843e+01
  -6.834946e+01  -1.662994e+00
  -5.128088e+01  -5.386558e+01
  -4.610146e+01  -4.539689e+01
  -6.035243e+01  -3.411859e+00
  -6.772470e+01  -2.527765e+00
  -3.912553e+01  -7.373422e+01
   3.495893e+01  -1.536274e+02
   1.287422e+02  -1.449001e+02
   1.788486e+02  -2.951092e+01
   1.286531e+02   9.949996e+01
   1.006592e+00   1.338797e+02
  -9.419093e+01   6.507239e+01
  -6.299914e+01  -1.489517e+01
   6.106086e+01  -1.960142e+01
   1.390461e+02   4.709765e+01
   7.296678e+01   1.118743e+02
  -8.741423e+01   1.120803e+02
  -1.969391e+02   4.481514e+01
  -1.634654e+02  -4.226805e+01
  -3.295639e+01  -8.925098e+01
   6.586808e+01  -6.612897e+01
   5.016166e+01  -2.050565e+00
  -4.156569e+01   2.889733e+01
  -9.424688e+01  -2.388554e+01
  -3.503705e+01  -1.220255e+02
   9.161768e+01  -1.586010e+02
   1.695727e+02  -6.530270e+01
   1.288625e+02   1.017812e+02
   9.542116e+00   2.015325e+02
  -8.954908e+01   1.450110e+02
  -1.071429e+02  -1.175753e+01
  -5.675167e+01  -1.239790e+02
   9.959105e+00  -1.073701e+02
   5.041887e+01  -1.666965e+01
   4.950471e+01   3.366547e+01
   2.203957e+01   8.470144e+00
   5.403040e+00  -1.950447e+01
   2.549132e+01   1.957464e+01
   5.631037e+01   9.346502e+01
   3.595855e+01   1.111462e+02
  -5.378265e+01   4.365770e+01
  -1.404395e+02  -4.269386e+01
  -1.287545e+02  -7.509281e+01
  -1.719234e+01  -5.346938e+01
   8.762212e+01  -2.302666e+01
   9.021822e+01  -4.932295e+00
   1.408990e+01   1.026512e+01
  -3.815099e+01   2.187348e+01
  -1.740996e+01   1.547573e+01
   1.891001e+01  -2.578540e+00
  -4.422139e+00  -7.614425e+00
  -7.285948e+01  -2.876036e+00
  -9.467633e+01  -2.560722e+01
  -1.355294e+01  -8.393026e+01
   1.192982e+02  -1.176510e+02
   1.942794e+02  -6.015998e+01
   1.506074e+02   6.859256e+01
   2.648972e+01   1.664751e+02
  -8.564698e+01   1.554046e+02
  -1.205961e+02   6.135836e+01
  -8.273325e+01  -2.274641e+01
  -2.557096e+01  -3.841802e+01
   7.370982e-01  -1.135537e+01
  -1.206475e+01  -6.784050e+00
  -3.149956e+01  -4.943425e+01
  -1.889456e+01  -9.361356e+01
   3.172090e+01  -7.327079e+01
   8.201214e+01   1.892192e+01
   7.889806e+01   1.100113e+02
   7.154507e+00   1.152442e+02
  -8.195000e+01   2.733920e+01
  -1.064215e+02  -7.466640e+01
  -3.499532e+01  -1.074596e+02
   6.876124e+01  -6.048197e+01
   1.038509e+02   1.240382e+01
   4.228007e+01   5.700248e+01
  -3.607424e+01   5.756728e+01
  -3.735345e+01   2.851682e+01
   3.135242e+01  -2.863726e+00
   7.116766e+01  -6.637108e+00
   1.648527e+01   2.741121e+01
  -8.261256e+01   6.611667e+01
  -1.228051e+02   5.496396e+01
  -6.900188e+01  -1.650161e+01
   1.697173e+01  -8.635282e+01
   5.896990e+01  -8.236197e+01
   4.258848e+01  -8.326134e+00
   3.425234e+00   5.603054e+01
  -2.657003e+01   4.643161e+01
  -3.768831e+01  -1.559384e+01
  -2.727188e+01  -5.615987e+01
   2.821684e+00  -3.736299e+01
   3.422641e+01   7.708686e+00
   4.141613e+01   2.478924e+01
   2.115650e+01   3.466909e+00
  -1.787038e+00  -1.761228e+01
  -6.519408e+00  -2.816904e+00
  -2.066399e+00   3.561660e+01
  -1.055194e+01   5.038795e+01
  -3.128917e+01   1.466081e+01
  -3.605484e+01  -4.234944e+01
  -4.228089e+00  -6.277314e+01
   4.441665e+01  -2.309741e+01
   6.082223e+01   3.870741e+01
   1.638187e+01   6.413238e+01
  -5.834660e+01   3.487860e+01
  -9.365027e+01  -1.585619e+01
  -5.063492e+01  -4.606972e+01
   3.061548e+01  -4.385426e+01
   6.778352e+01  -2.412229e+01
   2.754365e+01  -5.358753e+00
  -3.410446e+01   1.501793e-01
  -3.681600e+01  -1.207411e+01
   2.823087e+01  -2.892343e+01
   8.790844e+01  -1.968896e+01
