
 $NMID
 id='ANONYMOUS ', fmtdat='(2E16.6)'
 volume=1.0
 tramp=1.0
 $END
   3.483415e+03   4.416117e+01
   2.172463e+03   1.925266e+03
  -2.580490e+02   2.207404e+03
  -1.497094e+03   1.069534e+03
  -9.170057e+02  -9.875947e+01
   1.969819e+02  -3.195980e+02
   5.277910e+02   2.110176e+02
   2.672704e+01   7.024416e+02
  -5.650108e+02   6.221363e+02
  -7.211541e+02   1.788574e+01
  -4.179408e+02  -6.128675e+02
   8.223737e+01  -7.069836e+02
   4.057300e+02  -1.542084e+02
   2.803828e+02   5.040475e+02
  -1.670671e+02   5.915496e+02
  -4.590357e+02   4.518210e+01
  -2.755917e+02  -5.367814e+02
   1.912611e+02  -6.040602e+02
   4.924164e+02  -2.011600e+02
   4.072390e+02   2.315552e+02
   8.624384e+01   3.748051e+02
  -1.592864e+02   2.425664e+02
  -1.171816e+02   5.540336e+01
   1.502218e+02   3.444207e+01
   3.056773e+02   2.142981e+02
   5.300043e+01   3.705048e+02
  -4.504900e+02   2.351075e+02
  -6.616516e+02  -1.490440e+02
  -2.797631e+02  -4.136570e+02
   3.357635e+02  -2.855870e+02
   5.628616e+02   1.001298e+02
   2.308083e+02   3.912959e+02
  -2.628109e+02   3.903272e+02
  -4.761269e+02   1.434986e+02
  -3.400624e+02  -1.797346e+02
  -7.335125e+01  -3.549539e+02
   8.851753e+01  -2.110702e+02
   3.327463e+01   1.290176e+02
  -1.694095e+02   2.449915e+02
  -2.758855e+02  -9.630651e+01
  -8.689746e+01  -5.380157e+02
   2.681946e+02  -5.100216e+02
   4.090781e+02   1.890211e+00
   1.606493e+02   3.853622e+02
  -1.940963e+02   1.946142e+02
  -2.365373e+02  -2.798473e+02
   9.729220e+01  -4.256035e+02
   4.646018e+02  -7.667240e+01
   4.986245e+02   3.740815e+02
   1.471780e+02   5.080738e+02
  -3.179768e+02   2.806021e+02
  -5.339102e+02  -6.999726e+01
  -3.359796e+02  -2.903117e+02
   8.298348e+01  -2.649883e+02
   3.305239e+02  -6.829273e+01
   2.173619e+02   8.662347e+01
  -3.494238e+01   5.157109e+01
  -7.942548e+01  -8.213068e+01
   1.173560e+02  -9.924501e+01
   2.587728e+02   5.642205e+01
   1.239497e+02   2.225662e+02
  -1.658031e+02   2.393352e+02
  -3.270024e+02   1.061667e+02
  -2.309703e+02  -9.256707e+01
   2.570419e+01  -2.754902e+02
   2.630742e+02  -3.345099e+02
   3.455090e+02  -1.691875e+02
   2.421970e+02   1.505277e+02
   5.256061e+01   3.712476e+02
  -6.494746e+01   3.269356e+02
  -5.629074e+01   1.450923e+02
  -3.056781e+01   6.217532e+01
  -1.021747e+02   1.000092e+02
  -2.226723e+02   7.451783e+01
  -2.423546e+02  -9.637366e+01
  -1.060880e+02  -2.527679e+02
   8.643391e+01  -2.048465e+02
   1.948138e+02   2.510347e+01
   1.467480e+02   2.350006e+02
  -3.717526e+01   2.536047e+02
  -2.437672e+02   7.413030e+01
  -3.099717e+02  -1.680020e+02
  -1.635023e+02  -3.056734e+02
   6.866340e+01  -2.674167e+02
   1.817662e+02  -1.346653e+02
   1.433105e+02  -5.009405e+01
   1.269021e+02  -5.286262e+01
   2.525943e+02  -4.117338e+01
   3.892312e+02   8.449994e+01
   3.065333e+02   2.856016e+02
  -2.251285e+01   4.204969e+02
  -3.639667e+02   3.797717e+02
  -4.642490e+02   1.684491e+02
  -2.894126e+02  -9.818848e+01
  -2.622009e+01  -2.551078e+02
   1.047325e+02  -2.057631e+02
   3.468877e+01  -3.270089e+01
  -1.110983e+02   5.907968e+01
  -1.461766e+02  -2.798990e+01
  -1.933681e+01  -1.540963e+02
   1.285990e+02  -1.204942e+02
   1.270355e+02   5.496510e+01
  -2.587902e+01   1.456446e+02
  -1.656338e+02   8.274386e+00
  -1.456574e+02  -2.314483e+02
   2.777719e+01  -3.295712e+02
   2.309748e+02  -1.909914e+02
   3.317000e+02   6.425565e+01
   2.633291e+02   2.481245e+02
   6.503214e+01   2.610744e+02
  -1.210437e+02   1.391107e+02
  -1.535682e+02   7.898676e+00
  -4.087389e+01  -2.004807e+01
   5.424951e+01   5.261288e+01
   5.097732e+00   1.130249e+02
  -1.204174e+02   7.250475e+01
  -1.506887e+02  -2.390844e+01
  -3.755847e+01  -5.923352e+01
   7.841511e+01   4.177898e+00
   4.098738e+01   8.403312e+01
  -1.361831e+02   8.199179e+01
  -2.830474e+02  -1.881388e+01
  -2.460588e+02  -1.580431e+02
  -3.258636e+01  -2.503996e+02
   1.957363e+02  -2.296770e+02
   2.640201e+02  -9.757439e+01
   1.414425e+02   4.823883e+01
  -2.856629e+01   8.449857e+01
  -7.014260e+01  -1.806971e+00
   4.612291e+01  -8.300917e+01
   1.814401e+02  -3.698734e+01
   1.864219e+02   1.023476e+02
   5.466533e+01   1.872675e+02
  -8.909160e+01   1.354506e+02
  -1.261135e+02   1.773680e+01
  -5.111712e+01  -3.745182e+01
   3.620191e+01   1.346263e+01
   2.792528e+01   9.780703e+01
  -8.713137e+01   1.105737e+02
  -1.987692e+02   1.390048e+01
  -1.754815e+02  -1.285973e+02
  -1.006246e+01  -2.030974e+02
   1.547087e+02  -1.458399e+02
   1.733261e+02  -6.264052e+00
   5.435778e+01   9.772116e+01
  -6.220737e+01   9.515391e+01
  -7.153444e+01   2.424623e+01
  -5.904797e+00  -2.437177e+01
   3.127828e+01  -1.100343e+01
  -8.928441e+00   1.927329e+01
  -7.962428e+01  -2.342403e+00
  -9.470645e+01  -8.634454e+01
  -9.402466e+00  -1.636210e+02
   1.342256e+02  -1.448522e+02
   2.275326e+02  -1.076171e+01
   1.847421e+02   1.525635e+02
   3.340038e+01   2.221138e+02
  -1.018423e+02   1.543377e+02
  -1.261696e+02   2.660522e+01
  -6.902131e+01  -4.669807e+01
  -3.042282e+01  -3.024838e+01
  -5.286805e+01   1.240136e+01
  -8.189961e+01   5.415708e+00
  -4.918540e+01  -5.345436e+01
   4.027791e+01  -9.606329e+01
   1.127197e+02  -6.002620e+01
   9.598576e+01   4.136111e+01
  -1.718592e+01   1.188352e+02
  -1.519762e+02   8.317351e+01
  -1.941422e+02  -6.174399e+01
  -8.276957e+01  -2.024071e+02
   1.178043e+02  -2.127621e+02
   2.575878e+02  -7.816886e+01
   2.364317e+02   8.916910e+01
   9.497605e+01   1.656808e+02
  -4.019174e+01   1.340747e+02
  -8.765775e+01   7.631630e+01
  -7.044232e+01   6.569248e+01
  -5.955504e+01   8.862979e+01
  -8.819207e+01   7.347221e+01
  -1.248617e+02  -2.027356e+01
  -1.115492e+02  -1.489976e+02
  -2.305548e+01  -2.164908e+02
   9.803559e+01  -1.595532e+02
   1.646078e+02  -1.093950e+01
   1.219462e+02   1.221371e+02
   9.303610e+00   1.506788e+02
  -7.121836e+01   7.948658e+01
  -5.922836e+01  -1.035887e+01
   1.931681e+00  -4.829466e+01
   2.152587e+01  -3.377046e+01
  -2.847564e+01  -1.364847e+01
  -7.917153e+01  -1.956490e+01
  -4.591848e+01  -3.858237e+01
   6.799487e+01  -3.644929e+01
   1.619094e+02   2.903518e+00
   1.370398e+02   5.949220e+01
   2.498341e+00   9.121493e+01
  -1.259479e+02   6.860735e+01
  -1.392948e+02   5.285987e+00
  -4.287437e+01  -4.620473e+01
   5.802823e+01  -3.941313e+01
   7.395333e+01   1.857614e+01
   1.419140e+01   6.933902e+01
  -4.758868e+01   6.033258e+01
  -6.430503e+01   3.109864e-01
  -5.099718e+01  -4.905485e+01
  -4.417989e+01  -4.174860e+01
  -5.461286e+01  -2.621678e+00
  -6.247983e+01  -1.788811e+00
  -3.912154e+01  -6.864225e+01
   2.930987e+01  -1.439944e+02
   1.196059e+02  -1.368188e+02
   1.688637e+02  -2.971976e+01
   1.218848e+02   9.142110e+01
   1.539850e+00   1.256335e+02
  -8.777199e+01   6.312192e+01
  -5.887824e+01  -1.214036e+01
   5.608875e+01  -1.886329e+01
   1.282932e+02   4.188260e+01
   6.742280e+01   1.027473e+02
  -8.054857e+01   1.039324e+02
  -1.815999e+02   4.157947e+01
  -1.505095e+02  -3.925101e+01
  -2.983495e+01  -8.211720e+01
   6.129711e+01  -5.993682e+01
   4.654995e+01  -5.208525e-01
  -3.836454e+01   2.811961e+01
  -8.787491e+01  -2.038582e+01
  -3.515686e+01  -1.116888e+02
   8.036917e+01  -1.477624e+02
   1.538315e+02  -6.377900e+01
   1.200268e+02   9.075378e+01
   1.215097e+01   1.849862e+02
  -8.065129e+01   1.341799e+02
  -9.922220e+01  -1.082544e+01
  -5.259579e+01  -1.147814e+02
   1.069665e+01  -9.894969e+01
   4.788370e+01  -1.490439e+01
   4.473155e+01   3.106987e+01
   1.847782e+01   7.617495e+00
   5.313784e+00  -1.749635e+01
   2.607346e+01   1.888309e+01
   5.355952e+01   8.613790e+01
   3.213318e+01   1.017803e+02
  -5.132731e+01   4.059519e+01
  -1.297164e+02  -3.758259e+01
  -1.182719e+02  -6.794067e+01
  -1.675050e+01  -5.000872e+01
   7.907115e+01  -2.282503e+01
   8.302560e+01  -5.044714e+00
   1.468142e+01   1.006382e+01
  -3.417420e+01   2.032467e+01
  -1.724288e+01   1.349397e+01
   1.597590e+01  -2.926677e+00
  -3.454469e+00  -6.319941e+00
  -6.561384e+01  -9.761710e-01
  -8.813835e+01  -2.205735e+01
  -1.642668e+01  -7.725427e+01
   1.064160e+02  -1.108014e+02
   1.793375e+02  -5.984075e+01
   1.423260e+02   5.936431e+01
   2.788138e+01   1.528922e+02
  -7.749496e+01   1.460168e+02
  -1.111619e+02   5.987908e+01
  -7.674021e+01  -1.951239e+01
  -2.454737e+01  -3.575339e+01
  -7.663600e-01  -1.130132e+01
  -1.217045e+01  -6.979524e+00
  -2.921308e+01  -4.620562e+01
  -1.755938e+01  -8.678415e+01
   2.847627e+01  -6.821559e+01
   7.540610e+01   1.580431e+01
   7.479016e+01   9.923773e+01
   1.017363e+01   1.058195e+02
  -7.357587e+01   2.790919e+01
  -9.965668e+01  -6.533634e+01
  -3.549627e+01  -9.861697e+01
   6.201857e+01  -5.866619e+01
   9.742924e+01   9.037323e+00
   4.150344e+01   5.361230e+01
  -3.267799e+01   5.591841e+01
  -3.609389e+01   2.736425e+01
   2.708816e+01  -3.986601e+00
   6.547642e+01  -7.505206e+00
   1.641955e+01   2.551642e+01
  -7.545702e+01   6.208781e+01
  -1.142862e+02   5.138794e+01
  -6.581931e+01  -1.525436e+01
   1.405134e+01  -8.049734e+01
   5.449030e+01  -7.793727e+01
   4.080971e+01  -1.006444e+01
   5.026473e+00   5.083155e+01
  -2.335220e+01   4.440807e+01
  -3.491382e+01  -1.218865e+01
  -2.639925e+01  -5.149768e+01
   1.450357e+00  -3.604795e+01
   3.171438e+01   5.912414e+00
   3.928492e+01   2.326670e+01
   1.979501e+01   3.743367e+00
  -2.746029e+00  -1.741425e+01
  -6.399218e+00  -4.987735e+00
   6.473186e-01   3.163956e+01
  -5.557344e+00   4.798262e+01
  -2.715976e+01   1.686402e+01
  -3.588830e+01  -3.620520e+01
  -7.915750e+00  -5.729239e+01
   3.968879e+01  -2.294823e+01
   5.794032e+01   3.345713e+01
   1.704363e+01   5.836289e+01
  -5.389726e+01   3.357551e+01
  -8.771550e+01  -1.239600e+01
  -4.784732e+01  -4.171926e+01
   2.754194e+01  -4.203348e+01
   6.230702e+01  -2.472633e+01
   2.637091e+01  -5.940479e+00
  -2.947593e+01   1.513451e+00
  -3.302523e+01  -8.805200e+00
   2.430078e+01  -2.563928e+01
   7.825605e+01  -1.927671e+01
