
 $NMID
 id='ANONYMOUS ', fmtdat='(2E16.6)'
 volume=1.0
 tramp=1.0
 $END
  -2.723389e+03  -1.343035e+02
  -1.892544e+03  -1.244935e+03
  -3.006599e+02  -1.700908e+03
   8.430571e+02  -1.370975e+03
   9.318154e+02  -5.986717e+02
   3.500296e+02   2.449849e+00
  -1.122466e+02   3.743458e+01
  -6.214163e+01  -3.058357e+02
   2.849022e+02  -4.718652e+02
   5.063127e+02  -1.600634e+02
   4.095533e+02   3.491151e+02
   1.098504e+02   5.326158e+02
  -1.469800e+02   2.096777e+02
  -1.695836e+02  -2.798452e+02
   5.366362e+01  -4.412887e+02
   3.088566e+02  -1.122460e+02
   3.016602e+02   3.970699e+02
  -3.613636e+01   6.127476e+02
  -4.121997e+02   3.561302e+02
  -4.630907e+02  -9.521354e+01
  -1.813880e+02  -3.249351e+02
   6.865843e+01  -2.347185e+02
   5.908597e+00  -1.038321e+02
  -2.157049e+02  -1.836195e+02
  -2.145411e+02  -3.615505e+02
   1.231213e+02  -3.353409e+02
   4.858611e+02  -3.983505e+01
   4.920132e+02   2.573148e+02
   1.132688e+02   2.865332e+02
  -3.023695e+02   6.379114e+01
  -3.890321e+02  -1.937932e+02
  -1.048337e+02  -3.162375e+02
   2.646640e+02  -2.664429e+02
   4.067928e+02  -8.274232e+01
   2.731059e+02   1.362125e+02
   7.928753e+01   2.351066e+02
   3.935711e+01   1.319506e+02
   1.404293e+02  -3.801197e+01
   1.982589e+02  -2.836166e+01
   9.288075e+01   2.090804e+02
  -1.059492e+02   4.136713e+02
  -2.346680e+02   3.126948e+02
  -1.996781e+02  -1.798903e+01
  -4.335335e+01  -2.116172e+02
   9.492794e+01  -5.032653e+01
   7.026506e+01   2.564987e+02
  -1.468364e+02   3.132759e+02
  -3.954395e+02   6.792551e+00
  -4.236240e+02  -3.677609e+02
  -1.362855e+02  -4.555157e+02
   2.670910e+02  -2.215825e+02
   4.616066e+02   7.240407e+01
   3.134920e+02   1.973450e+02
  -5.603887e+00   1.583680e+02
  -2.159072e+02   8.519177e+01
  -1.984859e+02   4.416696e+01
  -6.398416e+01   1.996999e+01
   2.663531e-01   2.592712e+00
  -7.324892e+01  -5.910729e+00
  -1.682171e+02  -4.327813e+01
  -1.087899e+02  -1.443474e+02
   1.304628e+02  -2.343430e+02
   3.474135e+02  -1.614875e+02
   2.984028e+02   1.046295e+02
  -2.110508e+01   3.684222e+02
  -3.387635e+02   3.843349e+02
  -3.916393e+02   1.259439e+02
  -2.044340e+02  -1.854195e+02
  -2.044836e+01  -3.252012e+02
   9.393802e+00  -2.797447e+02
  -2.513491e+01  -1.940906e+02
   3.384094e+01  -1.622295e+02
   1.860119e+02  -1.318171e+02
   2.839213e+02  -1.413529e+01
   2.226898e+02   1.639275e+02
   4.696533e+01   2.580642e+02
  -1.173737e+02   1.585412e+02
  -1.738435e+02  -7.567708e+01
  -9.535142e+01  -2.533373e+02
   7.765305e+01  -2.268226e+02
   2.410336e+02  -2.551939e+01
   2.747023e+02   1.876550e+02
   1.465288e+02   2.772677e+02
  -3.793229e+01   2.394123e+02
  -1.387438e+02   1.614306e+02
  -1.428090e+02   1.124948e+02
  -1.727938e+02   8.446452e+01
  -3.038538e+02   1.833742e+01
  -4.163818e+02  -1.266649e+02
  -3.059738e+02  -3.155303e+02
   5.035936e+01  -4.360266e+02
   4.064435e+02  -3.776463e+02
   4.816049e+02  -1.442967e+02
   2.584792e+02   1.166365e+02
  -9.757305e+00   2.317267e+02
  -8.484355e+01   1.629183e+02
   2.357451e+01   3.589671e+01
   1.269412e+02  -2.301068e+00
   9.659999e+01   6.263492e+01
  -2.194903e+01   1.162775e+02
  -1.014266e+02   6.257732e+01
  -7.060829e+01  -5.638750e+01
   4.258706e+01  -9.830827e+01
   1.456906e+02   2.444514e+01
   1.365654e+02   2.332359e+02
  -2.481784e+01   3.364897e+02
  -2.532702e+02   2.101534e+02
  -3.736870e+02  -6.937876e+01
  -2.748774e+02  -2.854357e+02
  -3.477342e+01  -2.866920e+02
   1.440533e+02  -1.269151e+02
   1.382301e+02   9.369327e+00
   2.031574e+01   7.141139e+00
  -4.075079e+01  -7.711678e+01
   2.678531e+01  -1.102336e+02
   1.293523e+02  -4.411543e+01
   1.297021e+02   4.240666e+01
   1.311613e+01   4.877230e+01
  -8.591983e+01  -3.160767e+01
  -2.789563e+01  -1.080466e+02
   1.672283e+02  -8.661523e+01
   3.166170e+02   4.266477e+01
   2.524065e+02   1.984847e+02
   1.082900e+00   2.730788e+02
  -2.324712e+02   2.145453e+02
  -2.668742e+02   6.932879e+01
  -1.173821e+02  -5.021435e+01
   3.853300e+01  -5.975618e+01
   5.004143e+01   1.697576e+01
  -6.992470e+01   6.808140e+01
  -1.825585e+02   1.056556e+01
  -1.698388e+02  -1.138502e+02
  -3.985648e+01  -1.794557e+02
   9.210505e+01  -1.188892e+02
   1.155882e+02  -3.578069e+00
   2.994560e+01   3.693286e+01
  -5.282119e+01  -3.624429e+01
  -2.002321e+01  -1.289655e+02
   1.173370e+02  -1.215683e+02
   2.230254e+02   3.580451e+00
   1.740013e+02   1.502263e+02
  -4.328268e+00   2.054484e+02
  -1.582529e+02   1.362975e+02
  -1.629096e+02   5.994655e+00
  -4.407943e+01  -8.536042e+01
   6.324466e+01  -8.238884e+01
   6.310842e+01  -1.741715e+01
  -1.066719e+01   2.560684e+01
  -4.835145e+01   2.774072e+00
   7.920574e+00  -3.660623e+01
   1.001004e+02  -6.953214e+00
   1.151015e+02   1.012657e+02
   4.093112e+00   1.900478e+02
  -1.603672e+02   1.524989e+02
  -2.462335e+02  -7.860616e+00
  -1.831204e+02  -1.737258e+02
  -2.524445e+01  -2.264152e+02
   1.036284e+02  -1.497793e+02
   1.262985e+02  -2.846555e+01
   7.382049e+01   3.928998e+01
   3.594273e+01   2.555496e+01
   5.795356e+01  -1.438087e+01
   9.401529e+01  -5.321489e+00
   6.517126e+01   6.375929e+01
  -4.106037e+01   1.181310e+02
  -1.388486e+02   7.464048e+01
  -1.217731e+02  -5.293179e+01
   2.313533e+01  -1.443497e+02
   1.833806e+02  -9.040700e+01
   2.134488e+02   8.309868e+01
   6.898174e+01   2.279996e+02
  -1.473231e+02   2.166909e+02
  -2.749452e+02   6.268144e+01
  -2.346064e+02  -1.042358e+02
  -8.529429e+01  -1.696236e+02
   4.694401e+01  -1.311915e+02
   8.810793e+01  -7.399400e+01
   6.607267e+01  -6.757594e+01
   5.611549e+01  -9.531512e+01
   9.215692e+01  -8.110538e+01
   1.345091e+02   1.972740e+01
   1.165284e+02   1.589083e+02
   1.726369e+01   2.284023e+02
  -1.083187e+02   1.608493e+02
  -1.690137e+02  -8.317563e-01
  -1.167536e+02  -1.367730e+02
   2.874547e+00  -1.561141e+02
   8.489431e+01  -7.172309e+01
   6.540633e+01   2.600168e+01
  -1.060156e+01   6.169747e+01
  -3.852994e+01   3.737994e+01
   2.127483e+01   9.394728e+00
   8.807333e+01   1.711062e+01
   5.304129e+01   4.315057e+01
  -8.130213e+01   4.072615e+01
  -1.863012e+02  -9.837246e+00
  -1.454662e+02  -7.686725e+01
   1.359102e+01  -1.060487e+02
   1.475230e+02  -7.029133e+01
   1.479800e+02   4.587504e+00
   4.092354e+01   5.860737e+01
  -6.156048e+01   4.665316e+01
  -7.995183e+01  -1.991241e+01
  -2.472813e+01  -7.809120e+01
   4.189317e+01  -7.021143e+01
   7.285056e+01  -3.869229e+00
   6.608886e+01   5.267127e+01
   5.045871e+01   4.609851e+01
   5.211115e+01   3.419248e+00
   6.494208e+01   3.362336e+00
   4.922523e+01   7.745994e+01
  -2.742841e+01   1.585359e+02
  -1.373594e+02   1.478989e+02
  -1.947475e+02   2.977565e+01
  -1.348232e+02  -1.019844e+02
   4.299332e+00  -1.398976e+02
   9.993181e+01  -7.313237e+01
   6.423671e+01   9.591667e+00
  -5.861861e+01   1.958152e+01
  -1.312268e+02  -4.461341e+01
  -6.427664e+01  -1.088419e+02
   8.979915e+01  -1.052425e+02
   1.907635e+02  -3.300268e+01
   1.524205e+02   5.102307e+01
   2.352261e+01   8.590192e+01
  -6.921350e+01   5.360158e+01
  -4.901804e+01  -8.360339e+00
   4.217558e+01  -3.312682e+01
   9.457311e+01   1.979122e+01
   4.218115e+01   1.153165e+02
  -7.511295e+01   1.562003e+02
  -1.536379e+02   7.295897e+01
  -1.250986e+02  -8.842800e+01
  -1.602541e+01  -1.899407e+02
   8.365038e+01  -1.367513e+02
   1.039562e+02   1.740432e+01
   4.839417e+01   1.242158e+02
  -2.369143e+01   1.010270e+02
  -5.636454e+01   9.955188e+00
  -4.044602e+01  -3.470838e+01
  -1.076166e+01  -7.505252e+00
  -7.832757e+00   1.555811e+01
  -3.664383e+01  -2.572430e+01
  -5.727232e+01  -9.292530e+01
  -2.285635e+01  -1.039575e+02
   6.329040e+01  -3.970948e+01
   1.336528e+02   3.926340e+01
   1.168544e+02   7.184438e+01
   1.789423e+01   5.621168e+01
  -7.643552e+01   2.630918e+01
  -8.578096e+01   2.328593e+00
  -2.167233e+01  -1.454482e+01
   3.235858e+01  -1.999581e+01
   2.354528e+01  -9.115680e+00
  -1.061194e+01   4.968121e+00
   7.547740e-01   3.492578e+00
   6.173562e+01  -2.787728e+00
   9.413846e+01   2.185266e+01
   2.931368e+01   8.189786e+01
  -1.023778e+02   1.195763e+02
  -1.918980e+02   6.977372e+01
  -1.601457e+02  -5.472278e+01
  -3.465202e+01  -1.587092e+02
   8.385961e+01  -1.587884e+02
   1.198822e+02  -6.947858e+01
   8.078678e+01   1.877422e+01
   2.729412e+01   4.032339e+01
   6.044896e+00   1.588463e+01
   1.643022e+01   1.149925e+01
   2.790905e+01   5.241095e+01
   1.326917e+01   9.302519e+01
  -3.058796e+01   7.201751e+01
  -7.680575e+01  -1.381680e+01
  -8.100238e+01  -9.861661e+01
  -1.966774e+01  -1.096313e+02
   7.032233e+01  -3.680338e+01
   1.071136e+02   5.917331e+01
   4.483761e+01   1.034927e+02
  -6.292922e+01   6.999543e+01
  -1.084727e+02  -5.591305e+00
  -5.018899e+01  -6.356557e+01
   3.580811e+01  -6.839562e+01
   4.660638e+01  -3.013312e+01
  -2.092284e+01   8.964598e+00
  -6.816087e+01   9.793678e+00
  -2.061954e+01  -2.893427e+01
   7.928005e+01  -6.478986e+01
   1.263326e+02  -4.886087e+01
   7.670866e+01   2.083087e+01
  -1.291577e+01   8.687996e+01
  -6.247021e+01   8.594775e+01
  -5.043604e+01   1.766728e+01
  -1.047205e+01  -5.004746e+01
   2.254678e+01  -5.188260e+01
   3.692834e+01   5.356690e+00
   2.969949e+01   5.418827e+01
   6.676813e-01   4.458052e+01
  -3.359864e+01  -2.959228e+00
  -4.384550e+01  -2.869117e+01
  -2.130965e+01  -7.565946e+00
   6.086765e+00   2.369427e+01
   7.108170e+00   1.604465e+01
  -1.021568e+01  -2.856090e+01
  -8.777051e+00  -5.748799e+01
   2.309592e+01  -3.089933e+01
   4.743606e+01   2.838443e+01
   2.227314e+01   5.877121e+01
  -3.765118e+01   2.893935e+01
  -6.681903e+01  -2.924144e+01
  -2.273574e+01  -5.887592e+01
   5.883323e+01  -3.754358e+01
   9.680796e+01   9.116242e+00
   5.228254e+01   4.329178e+01
  -2.872867e+01   4.900280e+01
  -6.613478e+01   3.259458e+01
  -3.226140e+01   8.491189e+00
   2.260642e+01  -6.437393e+00
   3.054124e+01   7.354519e-01
  -1.887569e+01   2.124713e+01
  -7.052943e+01   2.104999e+01
