
 $NMID
 id='ANONYMOUS ', fmtdat='(2E16.6)'
 volume=1.0
 tramp=1.0
 $END
   4.075263e+03  -3.593740e+01
   2.507412e+03   2.308166e+03
  -4.375989e+02   2.598236e+03
  -1.849302e+03   1.095643e+03
  -1.006179e+03  -3.315037e+02
   3.943859e+02  -4.640548e+02
   7.237281e+02   3.051754e+02
   2.980914e+01   9.039899e+02
  -7.043585e+02   7.425449e+02
  -8.638420e+02  -1.696882e+01
  -4.712825e+02  -7.550910e+02
   1.440699e+02  -8.363522e+02
   5.304786e+02  -1.576741e+02
   3.533716e+02   6.236676e+02
  -2.122034e+02   7.023269e+02
  -5.537729e+02   3.426365e+01
  -3.016984e+02  -6.319476e+02
   2.537346e+02  -6.628776e+02
   5.650993e+02  -1.754791e+02
   4.316250e+02   2.946154e+02
   6.791532e+01   4.271242e+02
  -2.018095e+02   2.713655e+02
  -1.656416e+02   4.672887e+01
   1.419745e+02  -1.438392e+01
   3.678876e+02   1.801740e+02
   1.231036e+02   4.160718e+02
  -4.771997e+02   3.298303e+02
  -7.839748e+02  -1.163325e+02
  -3.696188e+02  -4.913787e+02
   3.738330e+02  -3.929929e+02
   6.765258e+02   6.901461e+01
   3.015868e+02   4.502102e+02
  -2.811401e+02   4.734093e+02
  -5.429153e+02   1.849694e+02
  -3.981971e+02  -2.065217e+02
  -8.416211e+01  -4.286223e+02
   1.368042e+02  -2.602198e+02
   9.766334e+01   1.705698e+02
  -1.710383e+02   3.440030e+02
  -3.649000e+02  -6.230972e+01
  -1.688602e+02  -6.292649e+02
   2.968431e+02  -6.297672e+02
   5.191514e+02  -1.050784e+01
   2.223326e+02   4.781375e+02
  -2.426047e+02   2.655159e+02
  -3.195941e+02  -3.102057e+02
   8.316663e+01  -5.055283e+02
   5.310979e+02  -1.146473e+02
   5.771827e+02   4.046816e+02
   1.724643e+02   5.725399e+02
  -3.614226e+02   3.323215e+02
  -6.106343e+02  -6.795347e+01
  -3.805553e+02  -3.448095e+02
   1.127137e+02  -3.282055e+02
   4.002199e+02  -7.453132e+01
   2.467251e+02   1.360327e+02
  -7.056874e+01   8.188772e+01
  -1.155252e+02  -1.152896e+02
   1.414585e+02  -1.462991e+02
   3.151530e+02   6.206084e+01
   1.446278e+02   2.685800e+02
  -1.903097e+02   2.665762e+02
  -3.504016e+02   1.020847e+02
  -2.315584e+02  -9.460328e+01
   2.650311e+01  -2.709049e+02
   2.583969e+02  -3.529594e+02
   3.604384e+02  -2.045959e+02
   2.801142e+02   1.495422e+02
   7.397855e+01   4.215448e+02
  -8.509389e+01   3.755969e+02
  -8.755091e+01   1.437895e+02
  -3.220183e+01   3.470036e+01
  -8.244005e+01   9.971946e+01
  -2.218929e+02   1.048098e+02
  -2.731859e+02  -7.925350e+01
  -1.397848e+02  -2.733790e+02
   8.109249e+01  -2.411959e+02
   2.206368e+02   7.537373e+00
   1.814007e+02   2.489757e+02
  -2.332356e+01   2.872795e+02
  -2.667483e+02   1.011282e+02
  -3.539039e+02  -1.729206e+02
  -1.894209e+02  -3.422518e+02
   8.172967e+01  -3.037524e+02
   2.120837e+02  -1.413794e+02
   1.569690e+02  -3.580092e+01
   1.230403e+02  -4.871441e+01
   2.587891e+02  -5.604334e+01
   4.183386e+02   7.309074e+01
   3.399664e+02   2.986238e+02
  -9.477256e+00   4.557698e+02
  -3.792375e+02   4.217826e+02
  -5.004617e+02   1.991816e+02
  -3.289342e+02  -9.712394e+01
  -4.463802e+01  -2.869199e+02
   1.183580e+02  -2.416280e+02
   5.729958e+01  -3.563915e+01
  -1.152029e+02   8.541447e+01
  -1.771535e+02  -1.657816e+01
  -3.757408e+01  -1.811491e+02
   1.480730e+02  -1.536493e+02
   1.590925e+02   5.760774e+01
  -2.035613e+01   1.759037e+02
  -1.879592e+02   2.259124e+01
  -1.659532e+02  -2.509819e+02
   2.688445e+01  -3.593031e+02
   2.430804e+02  -2.059380e+02
   3.502265e+02   6.433945e+01
   2.879405e+02   2.557341e+02
   8.499734e+01   2.763764e+02
  -1.228600e+02   1.581405e+02
  -1.732855e+02   1.675151e+01
  -5.212433e+01  -2.563120e+01
   6.459979e+01   4.852700e+01
   1.797498e+01   1.245423e+02
  -1.277583e+02   9.070054e+01
  -1.724773e+02  -1.769751e+01
  -5.033619e+01  -6.777416e+01
   8.328336e+01  -5.747930e+00
   5.036852e+01   8.332018e+01
  -1.376472e+02   9.000046e+01
  -2.989858e+02  -8.818811e+00
  -2.694896e+02  -1.561451e+02
  -4.972592e+01  -2.661156e+02
   1.987984e+02  -2.593538e+02
   2.868658e+02  -1.201796e+02
   1.638344e+02   5.006469e+01
  -2.659001e+01   1.013211e+02
  -8.360617e+01   4.268377e+00
   4.123919e+01  -9.652010e+01
   1.977986e+02  -5.201112e+01
   2.112978e+02   1.055698e+02
   6.759992e+01   2.070386e+02
  -9.462564e+01   1.552937e+02
  -1.414479e+02   2.606639e+01
  -6.371917e+01  -4.036809e+01
   3.409161e+01   6.653401e+00
   3.443998e+01   9.621756e+01
  -8.381001e+01   1.184923e+02
  -2.093470e+02   2.376737e+01
  -1.944950e+02  -1.311700e+02
  -1.872316e+01  -2.215773e+02
   1.662695e+02  -1.652205e+02
   1.934139e+02  -9.451397e+00
   6.450814e+01   1.104628e+02
  -6.641627e+01   1.094783e+02
  -8.087317e+01   2.994369e+01
  -1.241192e+01  -2.610119e+01
   2.829723e+01  -1.516749e+01
  -9.974525e+00   1.539195e+01
  -8.044153e+01  -4.737043e+00
  -9.801186e+01  -8.840448e+01
  -1.421264e+01  -1.702323e+02
   1.363021e+02  -1.578831e+02
   2.427898e+02  -2.115297e+01
   2.050316e+02   1.574663e+02
   4.244656e+01   2.414765e+02
  -1.088334e+02   1.721208e+02
  -1.378885e+02   3.029568e+01
  -7.473192e+01  -5.275828e+01
  -3.193275e+01  -3.435432e+01
  -5.606665e+01   1.362823e+01
  -8.559251e+01   7.031734e+00
  -4.918025e+01  -5.452317e+01
   4.268811e+01  -9.838410e+01
   1.139675e+02  -6.224895e+01
   9.698298e+01   4.025125e+01
  -1.533395e+01   1.218198e+02
  -1.548372e+02   9.063105e+01
  -2.069820e+02  -5.786547e+01
  -9.804552e+01  -2.119439e+02
   1.161854e+02  -2.333231e+02
   2.752656e+02  -9.440512e+01
   2.609107e+02   8.931926e+01
   1.096677e+02   1.788713e+02
  -3.987397e+01   1.484484e+02
  -9.484434e+01   8.565731e+01
  -7.778265e+01   7.238143e+01
  -6.524619e+01   9.573921e+01
  -9.434765e+01   7.915525e+01
  -1.338810e+02  -2.072487e+01
  -1.225989e+02  -1.584330e+02
  -3.017790e+01  -2.328989e+02
   1.017524e+02  -1.757460e+02
   1.786998e+02  -1.824598e+01
   1.370290e+02   1.271791e+02
   1.638884e+01   1.631044e+02
  -7.226946e+01   9.065421e+01
  -6.286798e+01  -5.274512e+00
  -1.401388e+00  -4.836834e+01
   1.739257e+01  -3.598023e+01
  -3.386751e+01  -1.595228e+01
  -8.405632e+01  -2.122775e+01
  -4.842899e+01  -4.014936e+01
   6.954407e+01  -3.936545e+01
   1.692060e+02  -1.263724e+00
   1.480701e+02   5.746920e+01
   9.358121e+00   9.481614e+01
  -1.298003e+02   7.624532e+01
  -1.495987e+02   1.102430e+01
  -4.821636e+01  -4.583465e+01
   6.190583e+01  -4.153791e+01
   7.927975e+01   1.891485e+01
   1.290050e+01   7.291209e+01
  -5.331075e+01   6.349056e+01
  -6.761148e+01  -2.129839e-02
  -5.145220e+01  -5.193271e+01
  -4.685469e+01  -4.371228e+01
  -6.073770e+01  -1.823016e+00
  -6.766404e+01  -5.710012e-01
  -4.036220e+01  -7.177463e+01
   3.084656e+01  -1.533314e+02
   1.232514e+02  -1.477682e+02
   1.759145e+02  -3.474358e+01
   1.304248e+02   9.501291e+01
   5.324536e+00   1.328168e+02
  -9.127515e+01   6.694505e+01
  -6.290900e+01  -1.338178e+01
   6.036264e+01  -2.120002e+01
   1.401940e+02   4.320802e+01
   7.636111e+01   1.095926e+02
  -8.371269e+01   1.145389e+02
  -1.953077e+02   5.095448e+01
  -1.647931e+02  -3.694682e+01
  -3.596024e+01  -8.826642e+01
   6.362684e+01  -6.864294e+01
   5.012012e+01  -4.210338e+00
  -4.040146e+01   2.963794e+01
  -9.434045e+01  -2.136173e+01
  -3.769558e+01  -1.207477e+02
   8.785955e+01  -1.602634e+02
   1.678467e+02  -6.895343e+01
   1.311275e+02   9.861559e+01
   1.456132e+01   2.009390e+02
  -8.552597e+01   1.473093e+02
  -1.072605e+02  -8.283673e+00
  -6.061249e+01  -1.218532e+02
   5.957551e+00  -1.078157e+02
   4.937288e+01  -1.862353e+01
   5.088931e+01   3.216936e+01
   2.297124e+01   8.076913e+00
   4.714237e+00  -1.989052e+01
   2.521996e+01   1.808912e+01
   5.860813e+01   9.139318e+01
   3.976818e+01   1.103104e+02
  -5.163716e+01   4.543242e+01
  -1.413616e+02  -3.883701e+01
  -1.310388e+02  -7.148367e+01
  -1.863049e+01  -5.248805e+01
   8.726414e+01  -2.496278e+01
   8.998134e+01  -7.591060e+00
   1.383711e+01   9.356322e+00
  -3.778542e+01   2.287888e+01
  -1.654883e+01   1.647056e+01
   1.929858e+01  -2.776714e+00
  -4.807273e+00  -7.817299e+00
  -7.326910e+01  -1.399684e+00
  -9.488616e+01  -2.305354e+01
  -1.469370e+01  -8.296257e+01
   1.165160e+02  -1.199935e+02
   1.915479e+02  -6.465281e+01
   1.508324e+02   6.476787e+01
   3.036844e+01   1.652691e+02
  -8.083080e+01   1.567654e+02
  -1.181188e+02   6.388001e+01
  -8.302191e+01  -2.059082e+01
  -2.644569e+01  -3.731738e+01
   8.188666e-01  -1.086118e+01
  -1.196559e+01  -5.979301e+00
  -3.306545e+01  -4.812796e+01
  -2.186979e+01  -9.273596e+01
   2.956924e+01  -7.386721e+01
   8.241178e+01   1.695002e+01
   8.126600e+01   1.079782e+02
   9.392998e+00   1.146183e+02
  -8.141531e+01   2.863218e+01
  -1.076637e+02  -7.235544e+01
  -3.709237e+01  -1.060086e+02
   6.692486e+01  -6.133062e+01
   1.032030e+02   9.783350e+00
   4.323492e+01   5.487353e+01
  -3.406050e+01   5.750509e+01
  -3.564066e+01   2.949044e+01
   3.175459e+01  -3.105684e+00
   7.076938e+01  -8.349639e+00
   1.690985e+01   2.661017e+01
  -8.056303e+01   6.816838e+01
  -1.204547e+02   5.869748e+01
  -6.863434e+01  -1.398592e+01
   1.470275e+01  -8.627590e+01
   5.598946e+01  -8.342322e+01
   4.138393e+01  -8.964832e+00
   4.383074e+00   5.594701e+01
  -2.529761e+01   4.647765e+01
  -3.780313e+01  -1.519662e+01
  -2.852108e+01  -5.518809e+01
   1.859684e+00  -3.665885e+01
   3.422646e+01   7.048833e+00
   4.180507e+01   2.314798e+01
   2.121097e+01   2.542971e+00
  -2.080736e+00  -1.694658e+01
  -6.769410e+00  -1.641030e+00
  -2.064755e+00   3.577652e+01
  -1.033439e+01   4.955077e+01
  -3.100295e+01   1.414256e+01
  -3.598815e+01  -4.190580e+01
  -4.609679e+00  -6.228256e+01
   4.391084e+01  -2.369472e+01
   6.099925e+01   3.734749e+01
   1.756799e+01   6.359665e+01
  -5.696260e+01   3.617929e+01
  -9.326195e+01  -1.353118e+01
  -5.151657e+01  -4.455616e+01
   2.924564e+01  -4.409104e+01
   6.670536e+01  -2.528533e+01
   2.684557e+01  -5.977307e+00
  -3.464427e+01   4.513523e-01
  -3.721622e+01  -1.190301e+01
   2.808297e+01  -2.996520e+01
   8.813141e+01  -2.167533e+01
