
 $NMID
 id='ANONYMOUS ', fmtdat='(2E16.6)'
 volume=1.0
 tramp=1.0
 $END
  -3.205523e+03  -1.266888e+01
  -2.016012e+03  -1.714138e+03
   1.754697e+02  -1.999728e+03
   1.307609e+03  -1.022067e+03
   8.222774e+02   1.502608e+01
  -1.512679e+02   2.472920e+02
  -4.514581e+02  -1.891492e+02
  -2.133582e+01  -6.230929e+02
   5.008091e+02  -5.672127e+02
   6.493230e+02  -3.229880e+01
   3.894613e+02   5.435133e+02
  -5.544952e+01   6.387453e+02
  -3.524053e+02   1.433307e+02
  -2.522909e+02  -4.537285e+02
   1.423926e+02  -5.390006e+02
   4.127978e+02  -4.955697e+01
   2.642756e+02   4.835036e+02
  -1.524340e+02   5.616219e+02
  -4.411440e+02   2.072866e+02
  -3.831573e+02  -1.934389e+02
  -9.399716e+01  -3.394762e+02
   1.367835e+02  -2.248829e+02
   9.677894e+01  -5.209501e+01
  -1.550471e+02  -3.707688e+01
  -2.919691e+02  -2.105883e+02
  -4.190527e+01  -3.527066e+02
   4.301749e+02  -2.166084e+02
   6.151771e+02   1.427751e+02
   2.506926e+02   3.800593e+02
  -3.176504e+02   2.552503e+02
  -5.204483e+02  -9.829734e+01
  -2.105527e+02  -3.621163e+02
   2.442906e+02  -3.614580e+02
   4.402619e+02  -1.362990e+02
   3.145263e+02   1.608255e+02
   7.038768e+01   3.206276e+02
  -7.230640e+01   1.859944e+02
  -1.501764e+01  -1.225297e+02
   1.675618e+02  -2.174214e+02
   2.521151e+02   1.032603e+02
   7.104385e+01   5.025266e+02
  -2.479387e+02   4.657294e+02
  -3.670643e+02  -5.632274e+00
  -1.398729e+02  -3.497611e+02
   1.774735e+02  -1.693873e+02
   2.130891e+02   2.640931e+02
  -9.174127e+01   3.943488e+02
  -4.315163e+02   7.277245e+01
  -4.687861e+02  -3.425666e+02
  -1.454044e+02  -4.686045e+02
   2.905194e+02  -2.622223e+02
   4.956399e+02   5.771018e+01
   3.139727e+02   2.579414e+02
  -7.150215e+01   2.369849e+02
  -2.976763e+02   6.627340e+01
  -1.964972e+02  -6.675429e+01
   2.766106e+01  -3.774281e+01
   6.536621e+01   7.317839e+01
  -1.100032e+02   8.463416e+01
  -2.354816e+02  -5.101662e+01
  -1.154127e+02  -2.000997e+02
   1.472197e+02  -2.253584e+02
   3.021601e+02  -1.123455e+02
   2.243472e+02   7.856666e+01
  -1.220553e+01   2.656018e+02
  -2.418955e+02   3.272974e+02
  -3.256824e+02   1.653120e+02
  -2.290363e+02  -1.403308e+02
  -5.242186e+01  -3.444045e+02
   5.160915e+01  -3.005454e+02
   4.011624e+01  -1.363925e+02
   2.181187e+01  -6.707702e+01
   9.827948e+01  -1.031968e+02
   2.150352e+02  -7.340998e+01
   2.312524e+02   9.123408e+01
   1.005783e+02   2.379391e+02
  -8.135437e+01   1.917213e+02
  -1.840807e+02  -2.431993e+01
  -1.395867e+02  -2.209972e+02
   3.380844e+01  -2.383429e+02
   2.290014e+02  -7.085188e+01
   2.922032e+02   1.537916e+02
   1.569811e+02   2.810774e+02
  -5.733650e+01   2.478616e+02
  -1.621194e+02   1.298628e+02
  -1.294307e+02   5.509372e+01
  -1.194641e+02   5.746970e+01
  -2.408740e+02   4.531944e+01
  -3.707638e+02  -7.212060e+01
  -2.950047e+02  -2.627968e+02
   1.290758e+01  -3.968849e+02
   3.355773e+02  -3.659081e+02
   4.334508e+02  -1.672099e+02
   2.716606e+02   8.857417e+01
   2.611208e+01   2.383332e+02
  -9.419626e+01   1.903985e+02
  -2.688279e+01   2.835494e+01
   1.071203e+02  -5.415937e+01
   1.354350e+02   2.846325e+01
   1.614361e+01   1.430928e+02
  -1.187318e+02   1.095142e+02
  -1.157051e+02  -5.187144e+01
   2.493742e+01  -1.340552e+02
   1.550882e+02  -7.746491e+00
   1.409366e+02   2.139824e+02
  -1.791290e+01   3.094735e+02
  -2.125586e+02   1.867758e+02
  -3.155548e+02  -5.067193e+01
  -2.551064e+02  -2.286049e+02
  -6.579883e+01  -2.466381e+02
   1.126725e+02  -1.332618e+02
   1.432996e+02  -8.618738e+00
   3.633441e+01   1.796737e+01
  -5.226868e+01  -5.073884e+01
  -4.618975e+00  -1.072469e+02
   1.133819e+02  -6.881721e+01
   1.409417e+02   2.163352e+01
   3.394532e+01   5.513277e+01
  -7.563666e+01  -3.907414e+00
  -4.057193e+01  -8.038409e+01
   1.278274e+02  -8.194470e+01
   2.693751e+02   1.121658e+01
   2.366649e+02   1.452294e+02
   3.492439e+01   2.372164e+02
  -1.817955e+02   2.202567e+02
  -2.467231e+02   9.519806e+01
  -1.316588e+02  -4.346569e+01
   2.701999e+01  -7.831460e+01
   6.493820e+01   2.453883e+00
  -4.403844e+01   7.888506e+01
  -1.705622e+02   3.667170e+01
  -1.761178e+02  -9.343049e+01
  -5.377400e+01  -1.742455e+02
   8.149635e+01  -1.276340e+02
   1.175907e+02  -1.772619e+01
   4.696604e+01   3.505061e+01
  -3.680468e+01  -1.266551e+01
  -2.947732e+01  -9.384985e+01
   8.084414e+01  -1.080482e+02
   1.886503e+02  -1.747876e+01
   1.682532e+02   1.182034e+02
   1.299428e+01   1.908603e+02
  -1.423208e+02   1.394342e+02
  -1.612623e+02   9.174489e+00
  -5.156563e+01  -8.982245e+01
   5.687349e+01  -8.950267e+01
   6.611466e+01  -2.328893e+01
   4.821365e+00   2.371201e+01
  -3.085703e+01   1.131220e+01
   6.860436e+00  -1.957099e+01
   7.569013e+01  -1.510156e+00
   9.306851e+01   7.871228e+01
   1.357044e+01   1.553416e+02
  -1.240097e+02   1.406988e+02
  -2.152620e+02   1.478667e+01
  -1.774251e+02  -1.403954e+02
  -3.587663e+01  -2.079343e+02
   9.222650e+01  -1.464911e+02
   1.173902e+02  -2.791183e+01
   6.562191e+01   4.128073e+01
   2.933494e+01   2.693474e+01
   4.949585e+01  -1.324890e+01
   7.750551e+01  -7.598858e+00
   4.910570e+01   4.883871e+01
  -3.433991e+01   9.263117e+01
  -1.054061e+02   6.137724e+01
  -9.349035e+01  -3.600878e+01
   1.243078e+01  -1.139895e+02
   1.424633e+02  -8.363726e+01
   1.858540e+02   5.401420e+01
   8.238941e+01   1.903952e+02
  -1.075841e+02   2.037800e+02
  -2.415820e+02   7.873068e+01
  -2.240083e+02  -7.941618e+01
  -9.208841e+01  -1.537806e+02
   3.528667e+01  -1.265458e+02
   8.048273e+01  -7.325033e+01
   6.398713e+01  -6.298187e+01
   5.308146e+01  -8.464033e+01
   8.076601e+01  -7.159593e+01
   1.180629e+02   1.556083e+01
   1.087330e+02   1.374406e+02
   2.668639e+01   2.033811e+02
  -8.889496e+01   1.522350e+02
  -1.548330e+02   1.327000e+01
  -1.173090e+02  -1.130184e+02
  -1.144933e+01  -1.419387e+02
   6.639072e+01  -7.615729e+01
   5.704676e+01   9.258105e+00
  -6.518757e-01   4.680711e+01
  -2.053983e+01   3.334373e+01
   2.614360e+01   1.219619e+01
   7.511620e+01   1.582079e+01
   4.467806e+01   3.503495e+01
  -6.363775e+01   3.674694e+01
  -1.539470e+02   1.769084e+00
  -1.312631e+02  -5.349489e+01
  -3.952502e+00  -8.741133e+01
   1.179588e+02  -6.841579e+01
   1.315047e+02  -7.799580e+00
   4.171782e+01   4.337759e+01
  -5.329275e+01   3.898030e+01
  -7.019170e+01  -1.548086e+01
  -1.618902e+01  -6.468117e+01
   4.216096e+01  -5.801326e+01
   6.066146e+01  -2.513675e+00
   5.025242e+01   4.419523e+01
   4.304261e+01   3.806790e+01
   5.101844e+01   1.423200e+00
   5.880374e+01   2.473366e-01
   3.947537e+01   6.349466e+01
  -2.320197e+01   1.364907e+02
  -1.096430e+02   1.326502e+02
  -1.594422e+02   3.310355e+01
  -1.177776e+02  -8.292117e+01
  -4.622410e+00  -1.190220e+02
   8.112863e+01  -6.255245e+01
   5.566600e+01   9.523678e+00
  -5.223072e+01   1.912440e+01
  -1.214113e+02  -3.634952e+01
  -6.552095e+01  -9.530513e+01
   7.370326e+01  -9.972436e+01
   1.702436e+02  -4.285609e+01
   1.425738e+02   3.416526e+01
   2.949032e+01   7.684115e+01
  -5.700571e+01   5.742433e+01
  -4.425542e+01   9.693636e-01
   3.529273e+01  -2.780238e+01
   8.320930e+01   1.666553e+01
   3.619898e+01   1.036319e+02
  -7.097981e+01   1.404934e+02
  -1.419996e+02   6.389773e+01
  -1.146657e+02  -8.175146e+01
  -1.614821e+01  -1.730384e+02
   7.254337e+01  -1.277842e+02
   9.386143e+01   8.145979e+00
   5.202029e+01   1.072308e+02
  -8.695224e+00   9.375332e+01
  -4.543738e+01   1.511607e+01
  -4.243155e+01  -2.860071e+01
  -1.684253e+01  -7.138381e+00
  -4.888613e+00   1.648293e+01
  -2.606297e+01  -1.703381e+01
  -5.275808e+01  -7.974140e+01
  -3.175814e+01  -9.523139e+01
   4.812822e+01  -3.976097e+01
   1.226670e+02   3.215208e+01
   1.123396e+02   6.130473e+01
   1.725097e+01   4.685794e+01
  -7.308149e+01   2.328190e+01
  -7.796671e+01   6.538415e+00
  -1.478133e+01  -9.050607e+00
   3.139834e+01  -1.966699e+01
   1.658475e+01  -1.302532e+01
  -1.434158e+01   2.961012e+00
   3.000351e+00   5.763144e+00
   6.090955e+01  -6.531309e-01
   8.345984e+01   1.829467e+01
   1.841618e+01   7.157715e+01
  -9.627282e+01   1.065853e+02
  -1.669391e+02   6.156974e+01
  -1.357156e+02  -5.096271e+01
  -3.042527e+01  -1.425499e+02
   6.901449e+01  -1.397980e+02
   1.028415e+02  -5.981937e+01
   7.254780e+01   1.623832e+01
   2.426185e+01   3.311814e+01
   1.654411e+00   1.062862e+01
   1.214502e+01   6.378112e+00
   2.863335e+01   4.315497e+01
   1.840737e+01   8.156924e+01
  -2.506277e+01   6.491354e+01
  -7.093281e+01  -1.284752e+01
  -7.270654e+01  -9.078748e+01
  -1.289149e+01  -9.857908e+01
   6.746810e+01  -2.831412e+01
   9.499952e+01   5.798132e+01
   3.647684e+01   9.135874e+01
  -5.615096e+01   5.726945e+01
  -9.208148e+01  -5.354129e+00
  -4.131525e+01  -4.954466e+01
   2.886493e+01  -5.425109e+01
   3.384747e+01  -2.724349e+01
  -2.448794e+01   4.394230e+00
  -6.119766e+01   8.840757e+00
  -1.647431e+01  -2.354655e+01
   6.937163e+01  -6.024998e+01
   1.069090e+02  -5.116022e+01
   6.313461e+01   1.261898e+01
  -1.087831e+01   7.610521e+01
  -4.942223e+01   7.526943e+01
  -3.830858e+01   1.149547e+01
  -6.246175e+00  -4.709105e+01
   2.036466e+01  -4.264435e+01
   3.272822e+01   9.957211e+00
   2.628946e+01   4.763023e+01
   1.097979e-01   3.433475e+01
  -2.980046e+01  -4.473241e+00
  -3.796622e+01  -2.106382e+01
  -1.894881e+01  -3.276044e+00
   3.586337e+00   1.655043e+01
   6.783569e+00   5.368343e+00
  -1.913645e+00  -2.881103e+01
   2.431310e+00  -4.498546e+01
   2.392006e+01  -1.729198e+01
   3.489085e+01   3.179543e+01
   9.937684e+00   5.275025e+01
  -3.612545e+01   2.274056e+01
  -5.545807e+01  -2.916378e+01
  -1.775692e+01  -5.395791e+01
   4.985570e+01  -3.324060e+01
   8.291925e+01   8.840973e+00
   4.616995e+01   3.783932e+01
  -2.452772e+01   4.058880e+01
  -5.761790e+01   2.539815e+01
  -2.487450e+01   6.693566e+00
   2.672540e+01  -2.089429e+00
   3.045408e+01   6.988327e+00
  -2.197784e+01   2.388859e+01
  -7.208808e+01   1.951788e+01
