
 $NMID
 id='ANONYMOUS ', fmtdat='(2E16.6)'
 volume=1.0
 tramp=1.0
 $END
  -5.926953e+07   5.395564e+04
  -3.564160e+07  -3.732010e+07
   8.223154e+06  -4.046230e+07
   2.945759e+07  -1.492456e+07
   1.731936e+07   8.079024e+06
  -3.796771e+06   9.882003e+06
  -1.039774e+07  -1.735363e+06
  -2.563327e+06  -1.047369e+07
   6.908000e+06  -9.510262e+06
   1.021577e+07  -1.757275e+06
   7.190261e+06   6.498497e+06
   7.607735e+05   8.840145e+06
  -4.089856e+06   2.871340e+06
  -2.544114e+06  -5.473400e+06
   4.116220e+06  -6.568364e+06
   8.238612e+06   1.602911e+06
   4.485860e+06   1.073883e+07
  -4.107701e+06   1.229277e+07
  -1.059661e+07   6.153943e+06
  -1.132982e+07  -2.065638e+06
  -7.099241e+06  -7.785651e+06
  -9.091021e+05  -9.222010e+06
   3.161264e+06  -6.625541e+06
   2.388516e+06  -2.892065e+06
  -7.436916e+05  -1.975746e+06
  -2.506483e+05  -3.980834e+06
   5.297188e+06  -4.408394e+06
   9.718080e+06  -5.720070e+05
   7.250552e+06   4.158386e+06
   4.737918e+05   5.160614e+06
  -3.551087e+06   2.712506e+06
  -2.449183e+06   2.810856e+05
   3.939223e+05  -6.228810e+05
   1.951543e+06  -4.100240e+05
   2.055607e+06   1.215817e+06
   8.090930e+05   3.772249e+06
  -1.740272e+06   4.019335e+06
  -3.446350e+06   1.327558e+05
  -1.994638e+06  -3.715485e+06
   7.010055e+05  -2.247941e+06
   3.846481e+05   2.246244e+06
  -2.526889e+06   2.228415e+06
  -2.487292e+06  -3.416440e+06
   2.736353e+06  -6.481419e+06
   7.517284e+06  -1.069628e+06
   5.444743e+06   7.349886e+06
  -2.086597e+06   9.029234e+06
  -7.790623e+06   2.517332e+06
  -7.076902e+06  -4.719816e+06
  -1.688703e+06  -6.257843e+06
   3.670485e+06  -2.641682e+06
   5.311707e+06   1.790143e+06
   2.315648e+06   3.714883e+06
  -2.629855e+06   2.241157e+06
  -4.714793e+06  -1.067748e+06
  -1.968970e+06  -2.909809e+06
   1.821040e+06  -1.414325e+06
   1.725215e+06   1.121172e+06
  -1.542422e+06   8.952521e+05
  -2.633083e+06  -2.060679e+06
   8.112622e+05  -3.820363e+06
   5.062367e+06  -2.001043e+06
   5.613623e+06   1.583651e+06
   2.365049e+06   4.256127e+06
  -1.862059e+06   5.400957e+06
  -5.058779e+06   4.896455e+06
  -6.295491e+06   1.796467e+06
  -4.726034e+06  -3.176425e+06
  -9.543649e+05  -6.291670e+06
   2.057534e+06  -4.843203e+06
   1.964222e+06  -1.105513e+06
   1.472314e+05   4.793899e+05
  -2.320092e+05  -8.388876e+05
   1.402412e+06  -1.816157e+06
   2.707924e+06  -3.673099e+05
   2.001411e+06   1.782212e+06
   7.835220e+04   2.022566e+06
  -1.423043e+06   1.573014e+05
  -1.556557e+06  -2.039651e+06
   2.401058e+04  -2.891277e+06
   2.754778e+06  -1.675834e+06
   4.535801e+06   1.160850e+06
   3.340673e+06   3.835450e+06
  -4.343273e+03   4.405357e+06
  -2.385307e+06   2.868461e+06
  -2.388828e+06   1.172371e+06
  -1.944195e+06   6.224787e+05
  -3.006149e+06   3.678558e+05
  -4.369836e+06  -9.020825e+05
  -3.431096e+06  -2.880161e+06
  -1.800196e+04  -4.136332e+06
   3.281201e+06  -3.815572e+06
   4.165139e+06  -2.054897e+06
   2.631938e+06   4.004761e+05
   2.965720e+05   2.182162e+06
  -1.067241e+06   1.919600e+06
  -5.603792e+05  -1.745290e+04
   1.090574e+06  -1.288315e+06
   1.934744e+06  -3.708337e+05
   9.382411e+05   1.227203e+06
  -5.197511e+05   1.088913e+06
  -3.721883e+05  -4.305275e+05
   1.196589e+06  -6.226028e+05
   1.899559e+06   1.518796e+06
   4.456476e+05   3.694020e+06
  -1.930139e+06   3.375919e+06
  -3.331116e+06   8.521418e+05
  -3.219254e+06  -1.699464e+06
  -2.057326e+06  -2.846226e+06
  -3.170619e+05  -2.570578e+06
   1.257093e+06  -1.411884e+06
   1.558368e+06  -1.986934e+05
   4.913350e+05   5.899876e+04
  -3.367049e+05  -7.662087e+05
   4.642935e+05  -1.363354e+06
   1.969707e+06  -5.461328e+05
   2.049000e+06   9.786874e+05
   3.365719e+05   1.470455e+06
  -1.207829e+06   5.305631e+05
  -8.460131e+05  -4.997475e+05
   9.117935e+05  -4.490527e+05
   2.152437e+06   4.722705e+05
   1.619624e+06   1.442988e+06
  -3.731393e+05   1.922962e+06
  -2.367295e+06   1.538806e+06
  -2.781265e+06   1.757712e+05
  -1.195649e+06  -1.322636e+06
   9.678359e+05  -1.519816e+06
   1.607072e+06  -1.689916e+05
   2.008640e+05   1.104025e+06
  -1.548176e+06   7.074300e+05
  -1.704343e+06  -8.555211e+05
  -2.533552e+05  -1.685199e+06
   1.169760e+06  -9.191697e+05
   1.256478e+06   4.026296e+05
   1.926020e+05   8.199184e+05
  -8.275981e+05   3.207673e+04
  -7.225574e+05  -1.081865e+06
   6.047584e+05  -1.417834e+06
   2.021724e+06  -5.025078e+05
   2.019297e+06   1.100632e+06
   3.294792e+05   2.099872e+06
  -1.507662e+06   1.613356e+06
  -1.750437e+06   1.467292e+05
  -4.643703e+05  -9.012583e+05
   6.977973e+05  -7.789167e+05
   6.140333e+05  -5.270970e+04
  -1.628233e+05   3.233986e+05
  -4.797632e+05   1.409483e+05
  -4.983493e+04  -7.980517e+04
   5.007483e+05   1.375388e+05
   4.939916e+05   7.433593e+05
  -2.739271e+05   1.203503e+06
  -1.428546e+06   8.518159e+05
  -2.078242e+06  -4.824139e+05
  -1.416626e+06  -1.993137e+06
   2.888987e+05  -2.410326e+06
   1.663406e+06  -1.334327e+06
   1.664038e+06   2.107917e+05
   7.745255e+05   9.085071e+05
   2.602249e+05   5.941231e+05
   4.950437e+05   1.765070e+05
   6.698065e+05   3.343639e+05
   8.486944e+04   7.960106e+05
  -9.218123e+05   8.725795e+05
  -1.458458e+06   2.541238e+05
  -9.921543e+05  -7.565233e+05
   3.286096e+05  -1.421811e+06
   1.760134e+06  -9.930062e+05
   2.222728e+06   5.633359e+05
   1.052380e+06   2.151239e+06
  -1.116058e+06   2.353195e+06
  -2.611744e+06   9.401660e+05
  -2.328167e+06  -7.747391e+05
  -8.630309e+05  -1.387389e+06
   2.784848e+05  -9.029871e+05
   3.848149e+05  -4.459256e+05
   3.793453e+04  -7.386259e+05
   9.951077e+04  -1.333677e+06
   7.096333e+05  -1.302274e+06
   1.320606e+06  -2.976049e+05
   1.316729e+06   1.112164e+06
   5.086224e+05   1.907865e+06
  -6.570124e+05   1.419323e+06
  -1.285031e+06  -4.793861e+04
  -7.708919e+05  -1.329439e+06
   4.597287e+05  -1.398188e+06
   1.220499e+06  -3.474404e+05
   8.123381e+05   7.744517e+05
  -1.827136e+05   1.114824e+06
  -6.091646e+05   7.750919e+05
  -1.223433e+05   4.002478e+05
   4.304078e+05   3.345557e+05
   5.411968e+04   3.790432e+05
  -1.174440e+06   1.765231e+05
  -2.082549e+06  -3.936113e+05
  -1.595040e+06  -1.099863e+06
   1.016518e+05  -1.467022e+06
   1.655496e+06  -1.117992e+06
   1.860561e+06  -2.079000e+05
   8.209392e+05   5.621921e+05
  -2.879487e+05   5.861080e+05
  -5.288952e+05   5.788462e+03
  -3.906683e+04  -4.435665e+05
   4.343520e+05  -2.508089e+05
   4.779304e+05   3.524693e+05
   2.643267e+05   7.122862e+05
   1.131635e+05   4.717541e+05
   1.422342e+05  -6.800678e+04
   2.698861e+05  -2.509106e+05
   2.640929e+05   2.451891e+05
  -1.542222e+05   9.679146e+05
  -9.276524e+05   1.050004e+06
  -1.400416e+06   1.723597e+05
  -8.680550e+05  -9.254795e+05
   4.362323e+05  -1.160942e+06
   1.281603e+06  -3.444546e+05
   7.224407e+05   5.793449e+05
  -7.302605e+05   6.253957e+05
  -1.575590e+06  -1.621225e+05
  -9.381907e+05  -9.115157e+05
   5.528303e+05  -9.550676e+05
   1.514307e+06  -3.851732e+05
   1.201541e+06   2.590321e+05
   9.934185e+04   5.136175e+05
  -6.653685e+05   2.350671e+05
  -3.913656e+05  -3.131577e+05
   5.763100e+05  -5.227833e+05
   1.179323e+06   7.926710e+04
   6.766713e+05   1.174498e+06
  -5.826880e+05   1.696556e+06
  -1.477594e+06   8.761493e+05
  -1.237921e+06  -7.691707e+05
  -1.659145e+05  -1.784238e+06
   7.733144e+05  -1.253704e+06
   9.172207e+05   2.258425e+05
   3.750215e+05   1.209572e+06
  -2.821251e+05   9.487181e+05
  -5.768801e+05   5.700436e+04
  -4.287129e+05  -3.868354e+05
  -1.287589e+05  -1.370218e+05
  -6.388534e+04   8.683331e+04
  -3.188450e+05  -3.142574e+05
  -5.040487e+05  -9.826762e+05
  -1.275182e+05  -1.080788e+06
   7.657927e+05  -3.780813e+05
   1.455253e+06   4.980586e+05
   1.223423e+06   8.708818e+05
   1.656477e+05   7.099357e+05
  -8.291236e+05   3.984161e+05
  -9.767626e+05   1.460582e+05
  -3.891110e+05  -7.565374e+04
   1.369164e+05  -2.237308e+05
   8.128588e+04  -1.909675e+05
  -2.180533e+05  -8.366471e+04
  -6.400074e+04  -1.289265e+05
   6.180871e+05  -2.334114e+05
   1.049582e+06   1.520036e+04
   4.848024e+05   6.968913e+05
  -8.156319e+05   1.184105e+06
  -1.735653e+06   7.661340e+05
  -1.454663e+06  -4.199996e+05
  -2.705879e+05  -1.400132e+06
   7.968710e+05  -1.380734e+06
   1.054103e+06  -5.533483e+05
   6.424419e+05   2.178253e+05
   1.480331e+05   3.584186e+05
  -2.944610e+04   8.625104e+04
   9.993746e+04   1.239533e+04
   2.764420e+05   3.885219e+05
   2.179344e+05   8.147765e+05
  -1.777366e+05   6.855329e+05
  -6.669874e+05  -9.991482e+04
  -7.511567e+05  -9.265595e+05
  -1.550614e+05  -1.031417e+06
   7.227734e+05  -2.799771e+05
   1.037198e+06   6.886026e+05
   3.675455e+05   1.092006e+06
  -7.084294e+05   7.031791e+05
  -1.138902e+06  -6.985108e+04
  -5.553534e+05  -6.454637e+05
   2.917129e+05  -7.170254e+05
   4.190466e+05  -3.787638e+05
  -2.044532e+05  -9.844675e+02
  -6.384964e+05   3.820685e+04
  -1.589617e+05  -3.157739e+05
   8.336510e+05  -6.648642e+05
   1.304947e+06  -5.006596e+05
   8.063945e+05   2.126020e+05
  -9.904498e+04   8.849201e+05
  -5.950946e+05   8.729475e+05
  -4.652319e+05   1.936196e+05
  -6.961083e+04  -4.596849e+05
   2.321701e+05  -4.554480e+05
   3.438907e+05   1.127327e+05
   2.553851e+05   5.774689e+05
  -4.144508e+04   4.606018e+05
  -3.904116e+05  -3.065965e+04
  -4.904142e+05  -3.095839e+05
  -2.452662e+05  -1.223360e+05
   5.636040e+04   1.781133e+05
   9.093057e+04   1.062615e+05
  -5.981443e+04  -3.221995e+05
  -2.774784e+04  -5.830138e+05
   2.872413e+05  -2.842480e+05
   5.019475e+05   3.295968e+05
   2.213243e+05   6.342547e+05
  -3.879889e+05   3.292965e+05
  -6.862896e+05  -2.539499e+05
  -2.691127e+05  -5.568338e+05
   5.210956e+05  -3.702066e+05
   9.042003e+05   5.961740e+04
   4.891019e+05   3.780734e+05
  -2.924074e+05   4.289328e+05
  -6.469855e+05   2.630481e+05
  -2.813935e+05   2.736234e+04
   2.986675e+05  -9.376097e+04
   3.847035e+05   2.272314e+04
  -1.365956e+05   2.592493e+05
  -6.851792e+05   2.626824e+05
