
 $NMID
 id='ANONYMOUS ', fmtdat='(2E16.6)'
 volume=1.0
 tramp=1.0
 $END
   1.393486e+07  -1.212987e+06
   9.884889e+06   6.535382e+06
   2.789476e+05   9.268871e+06
  -6.050147e+06   5.785619e+06
  -5.007968e+06   1.893665e+05
  -1.612959e+05  -2.512135e+06
   2.774885e+06  -9.180641e+05
   1.863091e+06   2.293547e+06
  -8.197357e+05   3.498370e+06
  -2.543044e+06   1.517512e+06
  -2.197197e+06  -1.562955e+06
  -4.202908e+05  -2.618728e+06
   1.129091e+06  -6.839165e+05
   9.674171e+05   2.041122e+06
  -7.914399e+05   2.548661e+06
  -2.288695e+06   2.350790e+05
  -1.777597e+06  -2.619104e+06
   4.651187e+05  -3.441319e+06
   2.487966e+06  -1.862791e+06
   2.752832e+06   4.399213e+05
   1.491555e+06   1.740812e+06
   1.572951e+05   1.690680e+06
  -7.817582e+04   1.142103e+06
   6.247562e+05   1.063754e+06
   9.421366e+05   1.595697e+06
  -2.270725e+05   1.949210e+06
  -2.302806e+06   1.289610e+06
  -3.295666e+06  -2.113469e+05
  -1.989529e+06  -1.402796e+06
   4.405781e+05  -1.354174e+06
   1.617981e+06  -3.091650e+05
   6.509662e+05   6.765771e+05
  -1.045932e+06   7.773156e+05
  -1.640775e+06  -5.258680e+04
  -8.528321e+05  -1.177718e+06
   2.408756e+05  -1.656729e+06
   6.936099e+05  -9.359907e+05
   4.446610e+05   3.898385e+05
  -1.582943e+04   8.777281e+05
  -1.566039e+05  -1.076886e+05
   2.637715e+05  -1.321049e+06
   8.996750e+05  -1.011087e+06
   9.372201e+05   6.954257e+05
  -3.369794e+04   1.716883e+06
  -1.258002e+06   6.394395e+05
  -1.376925e+06  -1.409225e+06
   5.518638e+04  -2.139198e+06
   1.882325e+06  -8.169090e+05
   2.404654e+06   1.127940e+06
   1.063737e+06   1.937923e+06
  -1.003150e+06   1.227867e+06
  -2.030776e+06  -1.021445e+05
  -1.252008e+06  -9.526511e+05
   4.247266e+05  -8.240446e+05
   1.341782e+06  -2.903183e+04
   7.704411e+05   5.945757e+05
  -3.920729e+05   4.356970e+05
  -7.231008e+05  -2.384747e+05
   5.848652e+04  -5.684800e+05
   8.329653e+05  -1.225269e+05
   5.022846e+05   6.063552e+05
  -6.864039e+05   8.064295e+05
  -1.457319e+06   1.903552e+05
  -9.285946e+05  -8.551648e+05
   5.406736e+05  -1.644817e+06
   1.816689e+06  -1.566845e+06
   2.049242e+06  -4.519185e+05
   1.285377e+06   1.099835e+06
   2.614757e+05   2.011719e+06
  -3.157014e+05   1.741164e+06
  -3.600782e+05   8.803401e+05
  -3.404075e+05   4.062813e+05
  -6.440038e+05   4.601577e+05
  -1.090766e+06   3.186550e+05
  -1.151645e+06  -4.232947e+05
  -5.716366e+05  -1.156877e+06
   3.307307e+05  -1.008513e+06
   9.293339e+05   3.259214e+04
   7.692914e+05   1.063360e+06
  -1.011053e+05   1.221770e+06
  -1.093295e+06   4.535746e+05
  -1.448857e+06  -5.927016e+05
  -8.979630e+05  -1.205178e+06
   2.356711e+04  -1.146491e+06
   5.294716e+05  -7.349355e+05
   4.935563e+05  -4.572562e+05
   5.446721e+05  -4.507485e+05
   1.125112e+06  -3.789105e+05
   1.738192e+06   1.366930e+05
   1.460479e+06   1.010162e+06
   1.247516e+05   1.686442e+06
  -1.328665e+06   1.623576e+06
  -1.776979e+06   7.702846e+05
  -1.024032e+06  -3.434434e+05
   9.374979e+04  -9.572213e+05
   5.836710e+05  -6.850787e+05
   1.899989e+05   8.286632e+04
  -4.988685e+05   4.970647e+05
  -7.171506e+05   1.486176e+05
  -2.829723e+05  -4.383256e+05
   2.695532e+05  -4.470725e+05
   2.953344e+05   1.543818e+05
  -2.633301e+05   5.050584e+05
  -8.166906e+05  -7.016702e+04
  -7.247390e+05  -1.155850e+06
   1.014974e+05  -1.663033e+06
   1.135198e+06  -1.022390e+06
   1.657091e+06   2.637458e+05
   1.289316e+06   1.204166e+06
   2.991704e+05   1.247878e+06
  -5.633888e+05   6.414663e+05
  -6.900680e+05   6.353564e+04
  -2.052810e+05  -1.209682e+04
   1.575123e+05   3.075703e+05
  -1.122693e+05   5.115058e+05
  -6.897102e+05   2.541219e+05
  -8.067727e+05  -2.602522e+05
  -2.149419e+05  -5.140267e+05
   4.647149e+05  -2.664430e+05
   4.434275e+05   1.897212e+05
  -3.204752e+05   3.581951e+05
  -1.045442e+06   2.754456e+04
  -9.381109e+05  -5.701317e+05
   1.276941e+03  -9.685852e+05
   9.812738e+05  -8.170542e+05
   1.180358e+06  -1.735066e+05
   5.120777e+05   4.659257e+05
  -3.273549e+05   5.602858e+05
  -5.551382e+05   8.187099e+04
  -4.597122e+04  -3.945637e+05
   6.073358e+05  -3.012154e+05
   7.330950e+05   2.703936e+05
   2.321640e+05   6.806129e+05
  -3.883542e+05   4.969591e+05
  -5.544498e+05  -2.882060e+04
  -1.739747e+05  -2.969321e+05
   2.958189e+05  -4.035555e+04
   2.985221e+05   4.307876e+05
  -2.553742e+05   5.921353e+05
  -8.486400e+05   2.165212e+05
  -8.483456e+05  -4.361189e+05
  -1.804643e+05  -8.514625e+05
   5.539788e+05  -7.017574e+05
   7.037456e+05  -1.388141e+05
   2.456781e+05   3.383796e+05
  -2.538718e+05   3.573922e+05
  -3.030811e+05   2.272902e+04
   2.697989e+04  -2.386836e+05
   2.860942e+05  -1.656265e+05
   1.818492e+05   6.928612e+04
  -1.403280e+05   9.855171e+04
  -2.825556e+05  -1.902125e+05
   3.199963e+03  -4.992667e+05
   5.521823e+05  -4.184799e+05
   8.858544e+05   1.384361e+05
   6.362900e+05   7.983891e+05
  -6.694386e+04   1.040170e+06
  -6.802554e+05   6.709700e+05
  -7.777174e+05   8.043660e+03
  -4.579689e+05  -4.275642e+05
  -1.592071e+05  -4.056358e+05
  -1.285762e+05  -1.624118e+05
  -1.919611e+05  -8.596955e+04
  -4.704378e+04  -2.689786e+05
   3.319784e+05  -4.180095e+05
   6.373571e+05  -2.070098e+05
   5.247667e+05   3.149946e+05
  -5.096445e+04   7.039320e+05
  -7.346753e+05   5.317665e+05
  -9.936530e+05  -1.674662e+05
  -5.467986e+05  -8.702134e+05
   3.389610e+05  -1.015736e+06
   1.021644e+06  -5.155370e+05
   1.041083e+06   1.862578e+05
   5.165652e+05   5.622044e+05
  -3.274634e+04   4.917706e+05
  -2.265298e+05   2.921700e+05
  -1.318119e+05   2.987263e+05
  -7.526607e+04   4.807945e+05
  -2.455000e+05   5.030423e+05
  -5.079231e+05   1.350471e+05
  -5.600021e+05  -4.494604e+05
  -2.442968e+05  -8.003482e+05
   2.599416e+05  -6.127863e+05
   5.530622e+05  -2.280981e+04
   3.788953e+05   5.072568e+05
  -9.954058e+04   5.957345e+05
  -4.362176e+05   2.507783e+05
  -3.549978e+05  -1.932618e+05
  -2.947384e+04  -4.127084e+05
   1.403062e+05  -3.575933e+05
   2.534089e+03  -2.125040e+05
  -1.726267e+05  -1.526061e+05
  -2.143706e+04  -1.691691e+05
   4.586668e+05  -1.180489e+05
   8.440122e+05   9.604620e+04
   7.001246e+05   3.955538e+05
   5.053791e+04   5.780960e+05
  -6.029177e+05   4.897054e+05
  -7.553019e+05   1.743746e+05
  -3.833304e+05  -1.374591e+05
   7.427419e+04  -2.167601e+05
   2.024330e+05  -4.989197e+04
   5.366804e+03   1.363184e+05
  -2.016027e+05   1.018570e+05
  -2.000717e+05  -1.378778e+05
  -6.713362e+04  -3.108018e+05
  -4.091899e+02  -1.991962e+05
  -6.663861e+04   7.632324e+04
  -1.606039e+05   1.653391e+05
  -1.345250e+05  -9.343589e+04
   7.358929e+04  -4.386720e+05
   3.706456e+05  -4.566821e+05
   5.208785e+05  -6.367513e+04
   3.164419e+05   3.760733e+05
  -1.597424e+05   4.447232e+05
  -4.931231e+05   1.153332e+05
  -3.085762e+05  -2.494126e+05
   2.793673e+05  -2.945237e+05
   7.006357e+05  -1.595708e+03
   5.033743e+05   3.513935e+05
  -1.526053e+05   4.726021e+05
  -6.548851e+05   2.859914e+05
  -5.757643e+05  -3.915589e+04
  -8.540090e+04  -2.323902e+05
   2.720189e+05  -1.434696e+05
   1.527165e+05   1.063667e+05
  -2.647410e+05   2.026132e+05
  -4.964616e+05  -5.863368e+04
  -2.523946e+05  -5.099630e+05
   2.825585e+05  -7.067920e+05
   6.436242e+05  -3.570175e+05
   5.383572e+05   3.289313e+05
   9.493199e+04   7.745968e+05
  -3.103722e+05   5.856800e+05
  -4.118048e+05  -4.082496e+04
  -2.256613e+05  -5.096232e+05
   5.339589e+04  -4.459580e+05
   2.337092e+05  -5.812624e+04
   2.299403e+05   1.699712e+05
   9.924862e+04   7.290421e+04
   9.740515e+03  -5.178998e+04
   8.289884e+04   9.794039e+04
   2.116132e+05   3.995885e+05
   1.251438e+05   4.735119e+05
  -2.636914e+05   1.882358e+05
  -6.432016e+05  -1.893439e+05
  -5.912005e+05  -3.538719e+05
  -9.145014e+04  -2.925466e+05
   3.913720e+05  -1.798427e+05
   4.343852e+05  -9.612498e+04
   1.341022e+05  -1.759196e+03
  -7.106410e+04   9.236537e+04
   1.846556e+04   1.104731e+05
   1.481956e+05   6.490130e+04
   8.149856e+03   5.822352e+04
  -3.192014e+05   8.605017e+04
  -4.427599e+05  -9.106625e+03
  -1.382973e+05  -2.796245e+05
   3.834438e+05  -4.820852e+05
   6.947271e+05  -3.117999e+05
   5.599336e+05   1.886106e+05
   1.115936e+05   6.041793e+05
  -3.093102e+05   5.841285e+05
  -4.426650e+05   2.133413e+05
  -2.845164e+05  -1.167819e+05
  -4.419371e+04  -1.507204e+05
   5.664170e+04  -3.712538e+03
  -2.763036e+04   3.292590e+04
  -1.485448e+05  -1.486224e+05
  -1.231907e+05  -3.473879e+05
   7.984699e+04  -2.827176e+05
   2.948385e+05   7.297236e+04
   2.966489e+05   4.220154e+05
   1.892618e+04   4.299904e+05
  -3.343097e+05   7.511250e+04
  -4.303830e+05  -3.292976e+05
  -1.343153e+05  -4.583460e+05
   3.022334e+05  -2.693561e+05
   4.618060e+05   3.247959e+04
   2.164666e+05   2.352127e+05
  -1.127200e+05   2.639000e+05
  -1.344570e+05   1.566447e+05
   1.316562e+05   1.757426e+04
   2.844710e+05  -1.475087e+04
   5.586848e+04   1.236765e+05
  -3.498743e+05   2.982478e+05
  -5.149425e+05   2.627187e+05
  -3.023626e+05  -4.457739e+04
   3.717287e+04  -3.599470e+05
   2.047660e+05  -3.615647e+05
   1.496019e+05  -5.644536e+04
   8.869615e+03   2.132397e+05
  -1.024082e+05   1.715179e+05
  -1.484498e+05  -8.582800e+04
  -1.074770e+05  -2.456376e+05
   2.295579e+04  -1.588967e+05
   1.640136e+05   2.794243e+04
   1.987131e+05   9.858012e+04
   1.065633e+05   2.416946e+04
  -6.201651e+03  -4.237430e+04
  -4.237331e+04   2.230074e+04
  -3.064283e+04   1.605943e+05
  -6.253915e+04   1.988941e+05
  -1.423500e+05   4.676092e+04
  -1.591262e+05  -1.830807e+05
  -2.553712e+04  -2.717230e+05
   1.831816e+05  -1.219012e+05
   2.657715e+05   1.295758e+05
   9.676043e+04   2.516302e+05
  -2.070625e+05   1.563872e+05
  -3.606920e+05  -3.667260e+04
  -1.987200e+05  -1.583835e+05
   1.202394e+05  -1.534574e+05
   2.606058e+05  -7.858785e+04
   8.639818e+04  -8.908651e+03
  -1.706810e+05   5.345348e+03
  -1.792893e+05  -5.493468e+04
   9.578888e+04  -1.370205e+05
   3.519200e+05  -1.112256e+05
