
 $NMID
 id='ANONYMOUS ', fmtdat='(2E16.6)'
 volume=1.0
 tramp=1.0
 $END
   1.812466e+07  -1.681417e+06
   1.344217e+07   7.603495e+06
   1.224453e+06   1.194453e+07
  -7.682050e+06   8.605024e+06
  -7.132112e+06   1.170994e+06
  -6.972986e+05  -3.537128e+06
   3.941776e+06  -1.944603e+06
   3.156305e+06   3.014117e+06
  -7.362256e+05   5.374150e+06
  -3.521594e+06   2.552897e+06
  -3.140460e+06  -2.233345e+06
  -5.403520e+05  -3.856461e+06
   1.700807e+06  -8.788071e+05
   1.473891e+06   3.189262e+06
  -1.015146e+06   3.916790e+06
  -3.195001e+06   5.621107e+05
  -2.582068e+06  -3.545994e+06
   5.334130e+05  -4.724807e+06
   3.349978e+06  -2.451112e+06
   3.579088e+06   7.590075e+05
   1.695729e+06   2.315004e+06
   4.585081e+04   1.925648e+06
   1.937667e+05   1.227887e+06
   1.413323e+06   1.616218e+06
   1.578624e+06   2.750142e+06
  -5.355129e+05   3.105679e+06
  -3.659057e+06   1.746348e+06
  -4.908575e+06  -6.002189e+05
  -2.760777e+06  -2.197263e+06
   9.347341e+05  -1.919141e+06
   2.624001e+06  -2.197324e+05
   9.140912e+05   1.331906e+06
  -1.947093e+06   1.360618e+06
  -2.834714e+06  -2.364905e+05
  -1.239859e+06  -2.147468e+06
   7.173234e+05  -2.635675e+06
   1.177424e+06  -1.157425e+06
   3.703965e+05   8.349387e+05
  -3.452947e+05   1.181543e+06
  -1.957498e+05  -5.206128e+05
   6.096418e+05  -2.175722e+06
   1.395806e+06  -1.543154e+06
   1.409448e+06   9.088577e+05
   2.655466e+05   2.361690e+06
  -1.350627e+06   1.021664e+06
  -1.805730e+06  -1.674739e+06
  -1.317340e+05  -2.763008e+06
   2.483499e+06  -1.119248e+06
   3.507693e+06   1.554188e+06
   1.691319e+06   2.834076e+06
  -1.454646e+06   1.932546e+06
  -3.120542e+06  -3.135713e+04
  -2.010189e+06  -1.395345e+06
   5.031747e+05  -1.299875e+06
   1.934048e+06  -1.564903e+05
   1.189632e+06   8.093902e+05
  -5.169041e+05   6.589326e+05
  -1.146183e+06  -3.422343e+05
  -8.271782e+04  -9.954166e+05
   1.249293e+06  -4.949815e+05
   1.077933e+06   6.640117e+05
  -6.117682e+05   1.233653e+06
  -1.981579e+06   5.039575e+05
  -1.376190e+06  -1.069201e+06
   8.615952e+05  -2.296787e+06
   2.814299e+06  -2.143636e+06
   3.007870e+06  -4.764231e+05
   1.699467e+06   1.709585e+06
   2.428867e+05   2.953567e+06
  -4.273147e+05   2.613029e+06
  -4.901497e+05   1.474079e+06
  -6.610040e+05   7.724254e+05
  -1.250478e+06   6.901674e+05
  -1.847625e+06   3.059528e+05
  -1.773721e+06  -8.810327e+05
  -7.696777e+05  -1.965727e+06
   6.715587e+05  -1.638957e+06
   1.578031e+06   1.012791e+05
   1.218378e+06   1.766322e+06
  -2.372549e+05   1.925218e+06
  -1.717154e+06   5.848460e+05
  -2.084093e+06  -1.037077e+06
  -1.159032e+06  -1.801529e+06
   1.207964e+05  -1.549408e+06
   7.149616e+05  -9.401945e+05
   6.207242e+05  -6.500129e+05
   7.706103e+05  -7.257148e+05
   1.707351e+06  -6.112461e+05
   2.645960e+06   2.119135e+05
   2.219773e+06   1.573191e+06
   1.590794e+05   2.608688e+06
  -2.116758e+06   2.464607e+06
  -2.815095e+06   1.082736e+06
  -1.569819e+06  -6.413078e+05
   2.541619e+05  -1.510397e+06
   1.003654e+06  -1.018264e+06
   3.052767e+05   1.584731e+05
  -8.064724e+05   7.574438e+05
  -1.112653e+06   2.176769e+05
  -4.045465e+05  -6.808703e+05
   4.629401e+05  -7.174854e+05
   5.271393e+05   2.243312e+05
  -3.281022e+05   8.745584e+05
  -1.267209e+06   7.706214e+04
  -1.259908e+06  -1.686952e+06
  -9.523306e+03  -2.674250e+06
   1.720660e+06  -1.765457e+06
   2.665449e+06   3.480578e+05
   2.091870e+06   1.950222e+06
   4.619288e+05   2.014014e+06
  -9.251324e+05   9.814083e+05
  -1.099711e+06   5.245714e+04
  -3.224650e+05  -3.098375e+04
   2.471789e+05   4.775717e+05
  -1.551028e+05   7.779681e+05
  -1.039552e+06   3.907314e+05
  -1.249514e+06  -3.792273e+05
  -3.655699e+05  -7.877517e+05
   7.110498e+05  -4.411845e+05
   7.296404e+05   2.805808e+05
  -4.624315e+05   5.961881e+05
  -1.655004e+06   8.732296e+04
  -1.521037e+06  -9.016393e+05
  -1.738601e+04  -1.557831e+06
   1.555562e+06  -1.289355e+06
   1.857502e+06  -2.508276e+05
   7.898503e+05   7.280946e+05
  -5.094670e+05   8.454027e+05
  -8.417518e+05   1.124200e+05
  -5.536823e+04  -6.007258e+05
   9.429417e+05  -4.574862e+05
   1.146889e+06   4.173268e+05
   3.868688e+05   1.070887e+06
  -5.913257e+05   8.146483e+05
  -8.883485e+05  -6.633240e+03
  -3.161467e+05  -4.574962e+05
   4.255958e+05  -8.154012e+04
   4.453657e+05   6.480970e+05
  -4.057734e+05   8.933059e+05
  -1.311630e+06   3.016548e+05
  -1.294778e+06  -7.011016e+05
  -2.593954e+05  -1.322348e+06
   8.699425e+05  -1.080917e+06
   1.106184e+06  -2.110478e+05
   4.027444e+05   5.362563e+05
  -3.923724e+05   5.753838e+05
  -5.026649e+05   3.826414e+04
   1.288827e+04  -4.025203e+05
   4.629655e+05  -2.931269e+05
   3.364211e+05   1.099170e+05
  -1.803214e+05   1.898020e+05
  -4.376854e+05  -2.608342e+05
  -5.599662e+03  -7.570415e+05
   8.526166e+05  -6.335889e+05
   1.363362e+06   2.340825e+05
   9.585790e+05   1.252506e+06
  -1.389204e+05   1.624500e+06
  -1.088963e+06   1.054171e+06
  -1.243802e+06   6.159527e+03
  -7.415938e+05  -7.179323e+05
  -2.425418e+05  -7.116316e+05
  -1.527931e+05  -3.003836e+05
  -2.446788e+05  -1.220534e+05
  -4.789904e+04  -3.846478e+05
   5.188726e+05  -6.328763e+05
   9.943650e+05  -3.106949e+05
   8.196201e+05   5.156280e+05
  -8.787971e+04   1.116770e+06
  -1.155425e+06   8.184141e+05
  -1.545929e+06  -2.840860e+05
  -8.462946e+05  -1.356885e+06
   5.177094e+05  -1.565214e+06
   1.577056e+06  -7.985316e+05
   1.634932e+06   2.831333e+05
   8.417496e+05   8.909650e+05
  -3.751476e+04   8.094458e+05
  -3.932730e+05   4.868695e+05
  -2.719087e+05   4.546622e+05
  -1.613799e+05   7.117735e+05
  -3.890249e+05   7.499945e+05
  -7.765334e+05   1.861550e+05
  -8.489537e+05  -7.200615e+05
  -3.518026e+05  -1.255228e+06
   4.275789e+05  -9.475479e+05
   8.655634e+05  -2.981956e+04
   5.858222e+05   7.809044e+05
  -1.436378e+05   9.211019e+05
  -6.519623e+05   4.123331e+05
  -5.406666e+05  -2.573471e+05
  -7.005172e+04  -6.116460e+05
   1.800647e+05  -5.580416e+05
  -8.920751e+03  -3.520563e+05
  -2.496662e+05  -2.562478e+05
  -1.676411e+04  -2.664980e+05
   6.984419e+05  -1.694036e+05
   1.278965e+06   1.701651e+05
   1.072845e+06   6.193142e+05
   9.342864e+04   8.748264e+05
  -9.151228e+05   7.316989e+05
  -1.169313e+06   2.706260e+05
  -6.050095e+05  -1.845685e+05
   1.074692e+05  -3.143811e+05
   3.047007e+05  -8.547771e+04
  -1.515960e+04   1.878828e+05
  -3.363676e+05   1.401359e+05
  -3.003108e+05  -2.273941e+05
  -5.799907e+04  -4.972055e+05
   3.663289e+04  -3.136470e+05
  -1.102030e+05   1.339026e+05
  -2.743124e+05   2.749655e+05
  -2.025347e+05  -1.433587e+05
   1.495486e+05  -6.816247e+05
   5.860787e+05  -6.838053e+05
   7.679390e+05  -5.782081e+04
   4.381018e+05   5.955932e+05
  -2.649510e+05   6.535035e+05
  -7.495970e+05   1.274639e+05
  -4.643827e+05  -4.120086e+05
   4.398810e+05  -4.532208e+05
   1.105325e+06   9.185277e+03
   8.100060e+05   5.588838e+05
  -2.270510e+05   7.544940e+05
  -1.038858e+06   4.635604e+05
  -9.225742e+05  -5.865629e+04
  -1.411865e+05  -3.724460e+05
   4.243202e+05  -2.309348e+05
   2.249735e+05   1.587048e+05
  -4.324704e+05   2.899849e+05
  -7.670984e+05  -1.328702e+05
  -3.440973e+05  -8.166856e+05
   5.049960e+05  -1.078643e+06
   1.037576e+06  -5.072586e+05
   8.250192e+05   5.508397e+05
   1.091423e+05   1.222552e+06
  -5.108122e+05   9.186548e+05
  -6.466011e+05  -6.057762e+04
  -3.529574e+05  -8.008932e+05
   7.157378e+04  -7.085153e+05
   3.563236e+05  -9.367475e+04
   3.722062e+05   2.773756e+05
   1.757177e+05   1.231873e+05
   9.164597e+03  -8.861011e+04
   9.340992e+04   1.405323e+05
   3.034681e+05   6.269350e+05
   2.050124e+05   7.515255e+05
  -3.888312e+05   2.889933e+05
  -1.003466e+06  -3.242296e+05
  -9.353337e+05  -5.783979e+05
  -1.323703e+05  -4.551245e+05
   6.431015e+05  -2.609849e+05
   6.913556e+05  -1.400325e+05
   1.897821e+05  -9.718813e+03
  -1.249001e+05   1.403972e+05
   4.937939e+04   1.871940e+05
   2.559579e+05   1.213537e+05
  -9.347386e+02   9.067196e+04
  -5.319955e+05   1.083887e+05
  -6.864540e+05  -4.303710e+04
  -1.602680e+05  -4.387989e+05
   6.498057e+05  -7.178370e+05
   1.081178e+06  -4.309720e+05
   8.290299e+05   3.402684e+05
   1.318219e+05   9.536737e+05
  -5.040540e+05   8.846043e+05
  -6.992037e+05   2.902827e+05
  -4.410457e+05  -2.108313e+05
  -4.949844e+04  -2.351594e+05
   1.127068e+05   1.359571e+04
  -3.478295e+04   6.876655e+04
  -2.371433e+05  -2.293097e+05
  -1.878145e+05  -5.464120e+05
   1.427395e+05  -4.318257e+05
   4.622093e+05   1.458263e+05
   4.263665e+05   6.922352e+05
  -2.308616e+04   6.707011e+05
  -5.438978e+05   7.400608e+04
  -6.464145e+05  -5.623760e+05
  -1.665792e+05  -7.215986e+05
   4.911275e+05  -3.832263e+05
   7.043617e+05   8.372802e+04
   3.083359e+05   3.587156e+05
  -1.874856e+05   3.792794e+05
  -1.937474e+05   2.311227e+05
   2.301540e+05   4.488601e+04
   4.505061e+05  -3.117248e+03
   7.105052e+04   1.913917e+05
  -5.617820e+05   4.503716e+05
  -7.956767e+05   4.009595e+05
  -4.442185e+05  -6.715000e+04
   7.990549e+04  -5.503553e+05
   3.176892e+05  -5.421316e+05
   2.120122e+05  -6.046763e+04
  -1.121816e+04   3.440418e+05
  -1.745707e+05   2.479504e+05
  -2.288120e+05  -1.647741e+05
  -1.503876e+05  -3.900569e+05
   5.143801e+04  -2.262394e+05
   2.539795e+05   6.239303e+04
   2.965665e+05   1.493505e+05
   1.642425e+05   2.991307e+04
   4.353002e+03  -4.890214e+04
  -6.576463e+04   6.898708e+04
  -8.732602e+04   2.645754e+05
  -1.541021e+05   2.839102e+05
  -2.408854e+05   2.429060e+04
  -2.090514e+05  -3.229188e+05
   1.578759e+04  -4.304640e+05
   3.046257e+05  -1.686119e+05
   3.920954e+05   2.330057e+05
   1.249523e+05   4.071273e+05
  -3.248823e+05   2.281301e+05
  -5.470859e+05  -8.833719e+04
  -2.943502e+05  -2.590692e+05
   1.968910e+05  -2.159080e+05
   4.062960e+05  -8.691957e+04
   1.182582e+05  -4.052768e+03
  -2.925475e+05  -1.780256e+04
  -2.882825e+05  -1.208561e+05
   1.767847e+05  -2.249715e+05
   5.894267e+05  -1.542207e+05
