
 $NMID
 id='ANONYMOUS ', fmtdat='(2E16.6)'
 volume=1.0
 tramp=1.0
 $END
  -9.483626e+05  -1.477858e+06
   3.721811e+04  -1.157265e+06
   7.513196e+05  -4.572975e+05
   8.497400e+05   1.255404e+04
   4.291566e+05   1.889347e+05
  -1.045860e+05   1.839920e+05
  -3.119118e+05  -1.468308e+04
  -7.215021e+04  -3.011893e+05
   2.884518e+05  -3.401087e+05
   3.404464e+05   5.833031e+03
   3.873235e+04   3.762159e+05
  -2.489460e+05   3.244715e+05
  -2.048577e+05  -9.473270e+04
   8.778519e+04  -3.935822e+05
   2.964004e+05  -2.532397e+05
   2.133440e+05   1.433210e+05
  -8.579583e+04   3.749961e+05
  -3.543674e+05   2.280983e+05
  -3.726780e+05  -1.390563e+05
  -1.188076e+05  -3.788224e+05
   1.822662e+05  -2.905140e+05
   2.470415e+05  -2.860313e+04
   4.290379e+04   5.571432e+04
  -1.491710e+05  -1.650167e+05
  -5.267878e+04  -4.054527e+05
   2.750073e+05  -3.031803e+05
   5.056771e+05   1.174546e+05
   3.967167e+05   4.606398e+05
   2.344613e+04   4.217085e+05
  -3.065180e+05   9.142707e+04
  -3.187510e+05  -2.121139e+05
  -7.652659e+03  -2.706328e+05
   3.264929e+05  -8.406369e+04
   3.364655e+05   1.937002e+05
   6.545438e+03   3.488335e+05
  -2.919002e+05   2.443108e+05
  -2.276008e+05  -2.745988e+04
   7.701510e+04  -1.900203e+05
   2.123636e+05  -7.859100e+04
   2.228140e+04   1.540497e+05
  -2.222090e+05   2.208532e+05
  -2.241039e+05   5.402955e+04
  -3.384407e+04  -1.301974e+05
   9.045309e+04  -1.154977e+05
   3.945851e+04   6.519715e+04
  -8.823233e+04   1.924644e+05
  -1.848863e+05   1.060827e+05
  -2.168374e+05  -1.432046e+05
  -1.507062e+05  -3.456984e+05
   3.066505e+04  -3.182309e+05
   2.234394e+05  -7.534035e+04
   2.560768e+05   1.704566e+05
   9.700141e+04   2.114786e+05
  -8.717489e+04   5.437615e+04
  -1.269470e+05  -1.054608e+05
  -2.970188e+04  -1.126284e+05
   7.162145e+04  -9.650910e+02
   7.880568e+04   9.194505e+04
  -1.834652e+03   9.160256e+04
  -8.774383e+04   3.114115e+04
  -8.251054e+04  -1.811902e+04
   2.869067e+04  -8.802793e+03
   1.153637e+05   5.899700e+04
   1.273998e+04   1.260851e+05
  -2.504985e+05   1.040247e+05
  -4.188648e+05  -3.591140e+04
  -2.924175e+05  -2.098628e+05
   1.690443e+04  -2.962964e+05
   2.167986e+05  -2.614325e+05
   1.888824e+05  -1.778216e+05
   9.243427e+04  -1.222677e+05
   1.119201e+05  -9.114670e+04
   2.225758e+05  -2.469964e+04
   2.602394e+05   1.073435e+05
   1.407825e+05   2.503180e+05
  -5.930400e+04   2.880901e+05
  -1.964987e+05   1.446929e+05
  -1.779752e+05  -1.073973e+05
  -1.940927e+04  -2.647603e+05
   1.591842e+05  -1.769200e+05
   2.135311e+05   8.119209e+04
   1.020011e+05   2.716984e+05
  -6.812315e+04   2.459800e+05
  -1.518910e+05   8.818341e+04
  -1.184735e+05  -1.674285e+04
  -6.601539e+04  -6.172495e+03
  -9.356449e+04   2.035178e+04
  -1.855619e+05  -4.474897e+04
  -2.235422e+05  -1.850364e+05
  -1.016660e+05  -2.865566e+05
   1.537115e+05  -2.549334e+05
   3.674835e+05  -9.590066e+04
   3.539759e+05   9.076534e+04
   1.118845e+05   1.858207e+05
  -1.416984e+05   1.435319e+05
  -1.830730e+05   2.910069e+04
  -1.972019e+04  -4.337855e+04
   1.342755e+05  -1.819874e+04
   1.158872e+05   5.780633e+04
  -1.814219e+04   9.251111e+04
  -9.736824e+04   4.147249e+04
  -4.639179e+04  -4.748466e+04
   5.923786e+04  -7.117525e+04
   1.023804e+05   3.100046e+04
   3.290890e+04   1.919594e+05
  -1.111289e+05   2.473462e+05
  -2.342030e+05   9.633128e+04
  -2.393713e+05  -1.640761e+05
  -1.065996e+05  -3.123049e+05
   6.988258e+04  -2.329967e+05
   1.572733e+05  -3.855549e+04
   1.149087e+05   6.905389e+04
   2.890680e+04   2.395004e+04
   7.321724e+03  -6.092464e+04
   6.324676e+04  -5.636469e+04
   1.150199e+05   3.605892e+04
   8.509885e+04   1.108341e+05
  -1.537233e+04   8.932163e+04
  -9.245951e+04  -2.802774e+03
  -5.807058e+04  -6.951532e+04
   7.142212e+04  -3.654986e+04
   1.666536e+05   7.855385e+04
   1.057187e+05   1.749656e+05
  -8.324804e+04   1.579898e+05
  -2.291621e+05   3.356602e+04
  -1.942882e+05  -9.222360e+04
  -2.487781e+04  -1.166312e+05
   1.037109e+05  -3.842439e+04
   7.973675e+04   5.010611e+04
  -4.084607e+04   5.839306e+04
  -1.186590e+05  -2.039441e+04
  -8.088736e+04  -1.096346e+05
   2.519385e+04  -1.222599e+05
   9.858057e+04  -4.403546e+04
   8.172640e+04   4.723816e+04
   6.020820e+03   5.716081e+04
  -4.039332e+04  -2.083293e+04
   2.512996e+03  -9.060068e+04
   9.986624e+04  -5.843101e+04
   1.471446e+05   5.918099e+04
   7.714596e+04   1.534794e+05
  -6.202189e+04   1.417323e+05
  -1.501410e+05   4.493393e+04
  -1.162368e+05  -4.905711e+04
  -6.020256e+03  -7.372660e+04
   7.182105e+04  -3.058656e+04
   5.515683e+04   2.718047e+04
  -1.954231e+04   4.388658e+04
  -6.574681e+04   9.704764e+03
  -3.950003e+04  -2.808373e+04
   1.707781e+04  -1.473800e+04
   2.451433e+04   4.190080e+04
  -4.248490e+04   6.787836e+04
  -1.191187e+05   6.083092e+03
  -1.145249e+05  -1.094176e+05
  -9.803995e+03  -1.816533e+05
   1.177409e+05  -1.485468e+05
   1.706100e+05  -3.732117e+04
   1.235363e+05   7.190654e+04
   3.698080e+04   1.178026e+05
  -1.272392e+04   9.648878e+04
  -7.707656e+03   5.102727e+04
   5.212314e+03   2.867012e+04
  -2.432793e+04   3.489587e+04
  -8.694177e+04   2.752793e+04
  -1.149597e+05  -2.857989e+04
  -5.294863e+04  -1.007643e+05
   7.245614e+04  -1.069754e+05
   1.619926e+05  -9.912796e+03
   1.324973e+05   1.240421e+05
  -2.698769e+03   1.813088e+05
  -1.442670e+05   1.129189e+05
  -1.953617e+05  -2.284463e+04
  -1.384348e+05  -1.235912e+05
  -3.347196e+04  -1.343868e+05
   4.586948e+04  -8.134906e+04
   7.140651e+04  -3.262758e+04
   6.740674e+04  -3.076339e+04
   7.066489e+04  -5.370324e+04
   8.659693e+04  -4.059662e+04
   8.392744e+04   3.593764e+04
   3.364398e+04   1.258165e+05
  -4.819310e+04   1.444490e+05
  -1.035512e+05   6.396928e+04
  -8.517980e+04  -5.134073e+04
  -6.119778e+03  -1.086189e+05
   6.819427e+04  -7.595009e+04
   7.972851e+04  -8.040384e+02
   2.955432e+04   5.008216e+04
  -2.870225e+04   5.426182e+04
  -4.405796e+04   3.882908e+04
  -1.656816e+04   3.617709e+04
   6.799828e+03   4.358344e+04
  -1.628193e+04   2.810102e+04
  -7.451917e+04  -2.925605e+04
  -1.068344e+05  -9.947399e+04
  -6.150424e+04  -1.260367e+05
   4.435916e+04  -8.337412e+04
   1.299539e+05  -6.063942e+03
   1.256557e+05   4.687280e+04
   4.460028e+04   4.866456e+04
  -2.950609e+04   1.845347e+04
  -3.141821e+04  -9.497846e+03
   1.799548e+04  -1.388388e+04
   4.444857e+04   8.415200e+03
   1.338246e+04   4.196063e+04
  -3.126357e+04   5.593400e+04
  -2.875681e+04   3.075707e+04
   1.804502e+04  -9.814260e+03
   4.613653e+04  -1.542740e+04
   1.103173e+04   2.585703e+04
  -6.034736e+04   5.926782e+04
  -1.011788e+05   2.676380e+04
  -7.334323e+04  -5.108022e+04
   2.644874e+03  -8.932480e+04
   7.058490e+04  -4.077792e+04
   7.958237e+04   4.346288e+04
   1.808221e+04   7.209380e+04
  -6.984313e+04   1.560473e+04
  -1.069426e+05  -6.818398e+04
  -4.854361e+04  -1.012932e+05
   6.312244e+04  -6.001865e+04
   1.279490e+05   1.399801e+04
   8.826927e+04   5.883263e+04
  -6.970987e+03   4.500668e+04
  -5.398809e+04  -2.863682e+03
  -8.823443e+03  -2.910904e+04
   6.458133e+04   1.402501e+03
   6.714060e+04   6.709677e+04
  -2.370982e+04   1.061004e+05
  -1.260610e+05   7.251613e+04
  -1.383455e+05  -2.065132e+04
  -4.504676e+04  -1.094084e+05
   6.897679e+04  -1.276243e+05
   1.079692e+05  -5.917225e+04
   5.831082e+04   4.391331e+04
  -1.420546e+04   9.857759e+04
  -4.704437e+04   6.466339e+04
  -3.844334e+04  -1.271119e+04
  -2.200275e+04  -5.025388e+04
  -1.340761e+04  -2.273444e+04
  -4.630404e+03   8.466059e+03
   6.600724e+03  -1.987346e+04
   1.364912e+04  -8.065450e+04
   2.385171e+04  -8.508558e+04
   5.107056e+04  -1.195429e+03
   7.759443e+04   9.643082e+04
   5.789967e+04   1.148869e+05
  -1.654068e+04   5.178605e+04
  -8.355778e+04  -1.487690e+04
  -7.717276e+04  -2.911069e+04
  -1.488853e+04  -1.073189e+04
   2.295627e+04  -5.890345e+03
   1.860472e+03  -2.143948e+04
  -2.301452e+04  -2.869833e+04
   7.700663e+03  -1.003013e+04
   6.494390e+04   2.346482e+04
   6.430225e+04   5.097049e+04
  -2.043629e+04   5.610430e+04
  -1.164745e+05   2.682771e+04
  -1.324639e+05  -3.410702e+04
  -5.413101e+04  -9.339821e+04
   5.131171e+04  -1.035402e+05
   1.069947e+05  -5.097554e+04
   8.893989e+04   2.092592e+04
   3.120448e+04   5.189829e+04
  -1.271676e+04   2.720215e+04
  -1.555083e+04  -9.399783e+03
   4.797177e+03  -6.782311e+03
   9.473078e+03   3.548412e+04
  -1.583522e+04   6.471991e+04
  -4.389588e+04   3.223658e+04
  -3.803746e+04  -4.740436e+04
   5.228024e+03  -1.002543e+05
   5.186486e+04  -6.612135e+04
   6.302131e+04   3.163889e+04
   2.662452e+04   1.025139e+05
  -3.452051e+04   8.283888e+04
  -7.581728e+04   2.045827e+03
  -6.178545e+04  -5.725133e+04
  -2.271923e+03  -5.379698e+04
   4.526103e+04  -2.048594e+04
   3.113373e+04  -6.886956e+03
  -2.430400e+04  -1.904786e+04
  -4.563465e+04  -2.960906e+04
   7.513937e+03  -2.336598e+04
   8.440052e+04  -7.379560e+03
   9.926733e+04   1.227972e+04
   3.331270e+04   3.492718e+04
  -4.545483e+04   4.708061e+04
  -6.432025e+04   2.845040e+04
  -2.228183e+04  -1.313401e+04
   2.513881e+04  -3.565981e+04
   3.541602e+04  -1.090484e+04
   1.356612e+04   3.471859e+04
  -1.166522e+04   4.855769e+04
  -2.275461e+04   1.595373e+04
  -2.137629e+04  -2.461905e+04
  -1.649061e+04  -3.245267e+04
  -1.283963e+04  -1.159717e+04
  -6.990116e+03   2.649618e+03
   7.838049e+03  -8.175774e+03
   2.986538e+04  -2.505781e+04
   4.313203e+04  -1.737286e+04
   3.096501e+04   1.897998e+04
  -3.497966e+03   5.233889e+04
  -3.625178e+04   4.506939e+04
  -4.382043e+04  -4.561961e+03
  -2.175073e+04  -5.259058e+04
   1.593192e+04  -5.061987e+04
   4.617618e+04   4.102015e+02
   4.639080e+04   4.784653e+04
   1.052949e+04   4.561981e+04
  -3.510938e+04   5.299763e+03
  -4.636623e+04  -2.241221e+04
  -9.307355e+03  -9.586777e+03
   3.300835e+04   2.201262e+04
   2.391785e+04   3.424850e+04
  -3.424794e+04   1.442713e+04
  -7.341270e+04  -2.142946e+04
