
 $NMID
 id='ANONYMOUS ', fmtdat='(2E16.6)'
 volume=1.0
 tramp=1.0
 $END
   6.348005e+07   2.044035e+05
   3.786639e+07   4.067071e+07
  -9.407271e+06   4.351852e+07
  -3.190442e+07   1.533883e+07
  -1.836547e+07  -9.338711e+06
   4.402782e+06  -1.056402e+07
   1.110045e+07   2.308466e+06
   2.348554e+06   1.133760e+07
  -7.726613e+06   9.814564e+06
  -1.094587e+07   1.521712e+06
  -7.522661e+06  -6.949921e+06
  -7.132670e+05  -9.274564e+06
   4.301110e+06  -3.052500e+06
   2.543686e+06   5.628115e+06
  -4.521810e+06   6.714294e+06
  -8.742265e+06  -1.919561e+06
  -4.584601e+06  -1.149121e+07
   4.553126e+06  -1.301439e+07
   1.133697e+07  -6.482754e+06
   1.209422e+07   2.189820e+06
   7.679675e+06   8.318243e+06
   1.050779e+06   1.000834e+07
  -3.546662e+06   7.271788e+06
  -2.951175e+06   3.054913e+06
   4.786631e+05   1.799933e+06
   2.983850e+05   3.911424e+06
  -5.333839e+06   4.568502e+06
  -1.003617e+07   6.686283e+05
  -7.628681e+06  -4.313262e+06
  -6.769363e+05  -5.421817e+06
   3.514235e+06  -2.945495e+06
   2.536079e+06  -5.359288e+05
  -1.569985e+05   3.931136e+05
  -1.690364e+06   4.099975e+05
  -2.020701e+06  -1.021278e+06
  -9.689211e+05  -3.741424e+06
   1.747923e+06  -4.284368e+06
   3.767157e+06  -3.186432e+05
   2.295649e+06   3.928799e+06
  -7.034372e+05   2.612635e+06
  -4.761693e+05  -2.119101e+06
   2.630628e+06  -2.212009e+06
   2.556380e+06   3.704998e+06
  -3.129288e+06   6.916519e+06
  -8.233050e+06   1.067551e+06
  -5.828569e+06  -7.965497e+06
   2.359325e+06  -9.692925e+06
   8.330895e+06  -2.633309e+06
   7.339881e+06   5.082092e+06
   1.570945e+06   6.584921e+06
  -3.916034e+06   2.621887e+06
  -5.449389e+06  -2.063114e+06
  -2.244066e+06  -3.983685e+06
   2.892260e+06  -2.306497e+06
   4.981695e+06   1.244671e+06
   2.009372e+06   3.152362e+06
  -1.965641e+06   1.477479e+06
  -1.740601e+06  -1.225429e+06
   1.775473e+06  -8.586448e+05
   2.788831e+06   2.415047e+06
  -1.072813e+06   4.229711e+06
  -5.601074e+06   2.075402e+06
  -6.001047e+06  -1.872276e+06
  -2.429326e+06  -4.618707e+06
   1.965859e+06  -5.655378e+06
   5.218668e+06  -5.076922e+06
   6.545410e+06  -1.892362e+06
   4.983081e+06   3.280400e+06
   9.888275e+05   6.552446e+06
  -2.281233e+06   4.996068e+06
  -2.166427e+06   9.919180e+05
  -8.860676e+04  -6.966384e+05
   4.583805e+05   7.695293e+05
  -1.246509e+06   1.929804e+06
  -2.695558e+06   5.261066e+05
  -2.057646e+06  -1.670174e+06
  -1.613194e+05  -1.962078e+06
   1.322159e+06  -1.477651e+05
   1.493151e+06   2.017458e+06
  -2.823175e+04   2.906662e+06
  -2.800677e+06   1.745825e+06
  -4.705996e+06  -1.152409e+06
  -3.525569e+06  -4.000145e+06
  -8.740586e+03  -4.672948e+06
   2.555467e+06  -3.058661e+06
   2.585051e+06  -1.209191e+06
   2.070830e+06  -5.679474e+05
   3.101149e+06  -2.778636e+05
   4.453675e+06   1.026898e+06
   3.443319e+06   3.008775e+06
  -5.977091e+04   4.201745e+06
  -3.370827e+06   3.816365e+06
  -4.210185e+06   2.059527e+06
  -2.664431e+06  -3.704157e+05
  -3.426801e+05  -2.176823e+06
   1.043758e+06  -1.952671e+06
   5.711555e+05  -1.474366e+03
  -1.100699e+06   1.298026e+06
  -1.986055e+06   3.582606e+05
  -9.718201e+05  -1.266019e+06
   5.205945e+05  -1.087689e+06
   3.251629e+05   4.618735e+05
  -1.314303e+06   5.523085e+05
  -1.938445e+06  -1.743719e+06
  -2.639580e+05  -3.902177e+06
   2.233087e+06  -3.356524e+06
   3.504647e+06  -6.273494e+05
   3.163883e+06   1.914739e+06
   1.907667e+06   2.919289e+06
   2.278058e+05   2.554867e+06
  -1.274148e+06   1.394669e+06
  -1.560230e+06   1.887626e+05
  -4.955669e+05  -6.798425e+04
   3.263223e+05   7.841360e+05
  -5.085385e+05   1.397160e+06
  -2.042032e+06   5.294114e+05
  -2.083658e+06  -1.058403e+06
  -3.022403e+05  -1.527136e+06
   1.245756e+06  -5.075431e+05
   8.208896e+05   5.316254e+05
  -9.617930e+05   3.958025e+05
  -2.142065e+06  -5.835437e+05
  -1.539775e+06  -1.505801e+06
   4.599935e+05  -1.897262e+06
   2.423215e+06  -1.473698e+06
   2.811538e+06  -1.142841e+05
   1.193932e+06   1.377015e+06
  -1.014293e+06   1.552889e+06
  -1.662359e+06   1.564993e+05
  -2.057395e+05  -1.136469e+06
   1.586018e+06  -6.975179e+05
   1.710923e+06   9.136683e+05
   1.962195e+05   1.721085e+06
  -1.233528e+06   8.836158e+05
  -1.263855e+06  -4.708911e+05
  -1.544678e+05  -8.531816e+05
   8.591575e+05  -1.647462e+04
   7.231415e+05   1.111507e+06
  -6.264701e+05   1.429828e+06
  -2.049869e+06   4.855666e+05
  -2.030303e+06  -1.141574e+06
  -2.986545e+05  -2.136667e+06
   1.566549e+06  -1.609631e+06
   1.782160e+06  -1.055988e+05
   4.420078e+05   9.309184e+05
  -7.298723e+05   7.693004e+05
  -6.048041e+05   3.992423e+04
   1.921033e+05  -2.964278e+05
   4.693349e+05  -9.622781e+04
  -4.411095e+03   8.349620e+04
  -5.398548e+05  -1.872900e+05
  -4.782671e+05  -8.002707e+05
   3.231969e+05  -1.224301e+06
   1.471462e+06  -8.312410e+05
   2.095379e+06   5.296381e+05
   1.400420e+06   2.042802e+06
  -3.356402e+05   2.424842e+06
  -1.706367e+06   1.294032e+06
  -1.657611e+06  -2.670846e+05
  -7.243627e+05  -9.173934e+05
  -2.284971e+05  -5.518565e+05
  -5.187733e+05  -1.463925e+05
  -7.087625e+05  -3.549957e+05
  -8.172367e+04  -8.274928e+05
   9.596210e+05  -8.612154e+05
   1.475116e+06  -2.104839e+05
   9.614699e+05   7.807966e+05
  -3.806042e+05   1.404733e+06
  -1.797419e+06   9.500204e+05
  -2.225259e+06  -6.175056e+05
  -1.009019e+06  -2.202657e+06
   1.196731e+06  -2.366485e+06
   2.681344e+06  -8.882761e+05
   2.331709e+06   8.574531e+05
   8.063707e+05   1.428019e+06
  -3.274971e+05   8.773363e+05
  -3.789961e+05   4.060687e+05
  -5.366069e+03   7.400741e+05
  -9.591883e+04   1.369106e+06
  -7.433845e+05   1.326198e+06
  -1.352659e+06   2.875585e+05
  -1.317281e+06  -1.142385e+06
  -4.840419e+05  -1.933958e+06
   6.844746e+05  -1.421708e+06
   1.295971e+06   7.746050e+04
   7.504946e+05   1.372068e+06
  -5.105393e+05   1.411672e+06
  -1.270357e+06   3.090826e+05
  -8.189230e+05  -8.360362e+05
   2.269867e+05  -1.151562e+06
   6.651011e+05  -7.752939e+05
   1.480692e+05  -3.912072e+05
  -4.337542e+05  -3.360775e+05
  -5.175200e+04  -3.794681e+05
   1.202640e+06  -1.559189e+05
   2.115783e+06   4.373403e+05
   1.595369e+06   1.151052e+06
  -1.461144e+05   1.501748e+06
  -1.716021e+06   1.113744e+06
  -1.896252e+06   1.636260e+05
  -8.179541e+05  -6.131332e+05
   3.096444e+05  -6.031427e+05
   5.447098e+05   1.350395e+04
   4.444785e+04   4.639070e+05
  -4.323562e+05   2.488454e+05
  -4.799155e+05  -3.627199e+05
  -2.750465e+05  -7.128147e+05
  -1.261895e+05  -4.724790e+05
  -1.454183e+05   5.078525e+04
  -2.640818e+05   2.269251e+05
  -2.589781e+05  -2.550304e+05
   1.627590e+05  -9.649287e+05
   9.544765e+05  -1.049262e+06
   1.439355e+06  -1.707095e+05
   8.863944e+05   9.426844e+05
  -4.554228e+05   1.185353e+06
  -1.309940e+06   3.505493e+05
  -7.215892e+05  -5.892334e+05
   7.545642e+05  -6.156882e+05
   1.580694e+06   2.051935e+05
   9.034016e+05   9.483651e+05
  -5.999029e+05   9.407925e+05
  -1.535766e+06   3.302883e+05
  -1.191755e+06  -3.027629e+05
  -7.883226e+04  -5.172980e+05
   6.805571e+05  -2.157857e+05
   3.983583e+05   3.281579e+05
  -5.776706e+05   5.265967e+05
  -1.187423e+06  -8.239633e+04
  -6.818610e+05  -1.183274e+06
   5.898099e+05  -1.705513e+06
   1.489803e+06  -8.725132e+05
   1.235059e+06   7.867218e+05
   1.403323e+05   1.795159e+06
  -8.018595e+05   1.238762e+06
  -9.192193e+05  -2.574679e+05
  -3.435843e+05  -1.229916e+06
   3.207975e+05  -9.445063e+05
   5.894209e+05  -4.114712e+04
   4.112418e+05   3.964569e+05
   1.113873e+05   1.384889e+05
   7.266085e+04  -8.288923e+04
   3.399812e+05   3.277819e+05
   5.006980e+05   1.001131e+06
   9.144707e+04   1.091300e+06
  -7.994619e+05   3.691732e+05
  -1.454427e+06  -5.257306e+05
  -1.200556e+06  -9.009558e+05
  -1.538512e+05  -7.219099e+05
   8.260034e+05  -3.864796e+05
   9.816910e+05  -1.242631e+05
   4.054226e+05   8.894655e+04
  -1.352504e+05   2.235640e+05
  -1.047858e+05   1.856829e+05
   1.971417e+05   8.111401e+04
   6.990220e+04   1.281264e+05
  -6.040457e+05   2.291861e+05
  -1.058549e+06  -2.420712e+04
  -5.072411e+05  -7.066660e+05
   8.181867e+05  -1.189288e+06
   1.769806e+06  -7.640295e+05
   1.481253e+06   4.279801e+05
   2.599197e+05   1.409600e+06
  -8.259816e+05   1.387474e+06
  -1.067531e+06   5.560701e+05
  -6.394535e+05  -2.181847e+05
  -1.526048e+05  -3.618667e+05
   1.212329e+04  -9.447886e+04
  -1.092406e+05  -2.551668e+04
  -2.654870e+05  -4.028411e+05
  -2.007614e+05  -8.257173e+05
   1.837891e+05  -6.917295e+05
   6.645478e+05   9.764764e+04
   7.532015e+05   9.289834e+05
   1.634989e+05   1.039270e+06
  -7.172528e+05   2.880892e+05
  -1.038659e+06  -6.896639e+05
  -3.682530e+05  -1.103636e+06
   7.172550e+05  -7.121660e+05
   1.154564e+06   7.808374e+04
   5.640773e+05   6.678791e+05
  -3.011329e+05   7.354830e+05
  -4.412736e+05   3.831700e+05
   1.883005e+05   6.258868e+02
   6.389214e+05  -3.203256e+04
   1.623831e+05   3.222434e+05
  -8.491429e+05   6.567193e+05
  -1.337965e+06   4.778229e+05
  -8.287146e+05  -2.343904e+05
   1.085127e+05  -8.966139e+05
   6.239467e+05  -8.814746e+05
   4.852222e+05  -2.042827e+05
   7.160694e+04   4.554922e+05
  -2.347893e+05   4.642219e+05
  -3.411590e+05  -1.034697e+05
  -2.522399e+05  -5.840013e+05
   4.086807e+04  -4.762324e+05
   3.923250e+05   2.918428e+04
   4.974712e+05   3.273864e+05
   2.475697e+05   1.355678e+05
  -6.436280e+04  -1.902738e+05
  -9.534644e+04  -1.321723e+05
   7.490424e+04   3.117219e+05
   5.318390e+04   5.981779e+05
  -2.781227e+05   3.080212e+05
  -5.178416e+05  -3.166156e+05
  -2.411196e+05  -6.340819e+05
   3.858414e+05  -3.329017e+05
   6.963229e+05   2.522446e+05
   2.708667e+05   5.566917e+05
  -5.335119e+05   3.697879e+05
  -9.177965e+05  -6.246299e+04
  -4.926032e+05  -3.855486e+05
   2.975361e+05  -4.398629e+05
   6.563083e+05  -2.718062e+05
   2.950734e+05  -2.890042e+04
  -2.832196e+05   9.968476e+04
  -3.775193e+05  -1.205320e+04
   1.292639e+05  -2.468801e+05
   6.712034e+05  -2.526794e+05
