
 $NMID
 id='ANONYMOUS ', fmtdat='(2E16.6)'
 volume=1.0
 tramp=1.0
 $END
  -2.936193e+07   6.474888e+05
  -2.015445e+07  -1.343310e+07
  -4.737407e+05  -1.878364e+07
   1.262579e+07  -1.277247e+07
   1.090769e+07  -1.436008e+06
   8.044852e+05   5.404846e+06
  -6.080043e+06   2.821888e+06
  -4.698292e+06  -4.753344e+06
   1.305627e+06  -8.309430e+06
   5.573347e+06  -3.798089e+06
   4.886392e+06   3.777827e+06
   6.852701e+05   6.238695e+06
  -2.851309e+06   1.326095e+06
  -2.342973e+06  -5.181838e+06
   1.691926e+06  -6.171719e+06
   5.025576e+06  -6.805515e+05
   3.842220e+06   5.797560e+06
  -1.196473e+06   7.462614e+06
  -5.598894e+06   3.636543e+06
  -5.768802e+06  -1.602574e+06
  -2.499347e+06  -4.061079e+06
   3.295061e+05  -3.206931e+06
   1.452290e+04  -1.781855e+06
  -2.245826e+06  -2.310028e+06
  -2.708714e+06  -4.325754e+06
   8.014439e+05  -5.099778e+06
   6.037195e+06  -2.865980e+06
   8.058411e+06   1.102706e+06
   4.429533e+06   3.757016e+06
  -1.654729e+06   3.239778e+06
  -4.403706e+06   3.947052e+05
  -1.639224e+06  -2.215842e+06
   3.038628e+06  -2.370384e+06
   4.626635e+06   2.103351e+05
   2.153882e+06   3.463259e+06
  -1.118375e+06   4.385832e+06
  -2.043515e+06   1.893189e+06
  -7.063119e+05  -1.529387e+06
   6.711933e+05  -2.089121e+06
   5.243913e+05   8.517855e+05
  -9.011026e+05   3.605924e+06
  -2.247709e+06   2.477611e+06
  -2.147380e+06  -1.499065e+06
  -2.218364e+05  -3.628756e+06
   2.185324e+06  -1.288720e+06
   2.622608e+06   2.919046e+06
  -1.174833e+05   4.353645e+06
  -4.099174e+06   1.557380e+06
  -5.539142e+06  -2.638101e+06
  -2.612627e+06  -4.535887e+06
   2.336875e+06  -3.030665e+06
   4.936153e+06   9.017122e+04
   3.143937e+06   2.205548e+06
  -8.397081e+05   1.972115e+06
  -3.048083e+06   1.287787e+05
  -1.809746e+06  -1.322028e+06
   8.701687e+05  -9.949842e+05
   1.811898e+06   5.524608e+05
   1.654281e+05   1.490322e+06
  -1.833419e+06   7.361265e+05
  -1.538007e+06  -9.232051e+05
   1.022223e+06  -1.722473e+06
   3.063957e+06  -6.363564e+05
   2.058662e+06   1.758874e+06
  -1.512551e+06   3.698883e+06
  -4.657946e+06   3.443900e+06
  -4.949067e+06   6.779882e+05
  -2.733408e+06  -2.905374e+06
  -2.890827e+05  -4.827230e+06
   7.450352e+05  -4.139346e+06
   7.129671e+05  -2.299847e+06
   9.464017e+05  -1.305181e+06
   1.995883e+06  -1.268731e+06
   3.076907e+06  -6.052658e+05
   2.991328e+06   1.413223e+06
   1.336070e+06   3.229463e+06
  -1.046713e+06   2.723655e+06
  -2.569200e+06  -9.561466e+04
  -2.016301e+06  -2.832964e+06
   3.751153e+05  -3.137639e+06
   2.830487e+06  -9.457999e+05
   3.412483e+06   1.759373e+06
   1.820089e+06   3.021455e+06
  -3.228608e+05   2.531905e+06
  -1.254941e+06   1.448747e+06
  -1.021770e+06   9.625947e+05
  -1.217619e+06   1.125559e+06
  -2.729028e+06   9.663512e+05
  -4.250988e+06  -3.587949e+05
  -3.569348e+06  -2.544952e+06
  -2.543249e+05  -4.210248e+06
   3.423984e+06  -3.996250e+06
   4.580008e+06  -1.773758e+06
   2.581617e+06   1.046601e+06
  -3.960331e+05   2.490636e+06
  -1.642321e+06   1.681774e+06
  -5.071122e+05  -2.628952e+05
   1.313511e+06  -1.237009e+06
   1.803586e+06  -3.364865e+05
   6.432687e+05   1.123632e+06
  -7.473311e+05   1.170696e+06
  -8.435697e+05  -3.374860e+05
   4.893237e+05  -1.365547e+06
   1.945069e+06  -1.175522e+05
   1.962037e+06   2.637425e+06
   5.821180e+04   4.195322e+06
  -2.662369e+06   2.805862e+06
  -4.233611e+06  -5.034769e+05
  -3.394795e+06  -3.072501e+06
  -7.859738e+05  -3.230323e+06
   1.486780e+06  -1.602460e+06
   1.785851e+06  -9.761118e+04
   5.205395e+05   4.850059e+04
  -3.979427e+05  -7.711226e+05
   2.641268e+05  -1.246101e+06
   1.682053e+06  -6.078324e+05
   1.996425e+06   6.248979e+05
   5.707373e+05   1.261486e+06
  -1.144450e+06   7.041347e+05
  -1.175397e+06  -4.391873e+05
   7.210567e+05  -9.527248e+05
   2.640455e+06  -1.672877e+05
   2.458079e+06   1.410636e+06
   5.995094e+04   2.494139e+06
  -2.486832e+06   2.090315e+06
  -2.991796e+06   4.138430e+05
  -1.265197e+06  -1.176492e+06
   8.394746e+05  -1.357383e+06
   1.363063e+06  -1.615047e+05
   7.749590e+04   9.814008e+05
  -1.527781e+06   7.348456e+05
  -1.842451e+06  -6.719412e+05
  -6.220443e+05  -1.710189e+06
   9.363257e+05  -1.298575e+06
   1.410452e+06   6.763900e+03
   4.998479e+05   7.224477e+05
  -6.876388e+05   1.192613e+05
  -7.188131e+05  -1.055036e+06
   6.591194e+05  -1.452225e+06
   2.128254e+06  -4.926227e+05
   2.098245e+06   1.134706e+06
   4.181082e+05   2.136726e+06
  -1.403877e+06   1.739973e+06
  -1.777346e+06   3.390234e+05
  -6.443494e+05  -8.571702e+05
   6.294630e+05  -9.235439e+05
   8.116829e+05  -7.080961e+04
  -4.116210e+03   6.423863e+05
  -7.299152e+05   4.889833e+05
  -5.489683e+05  -1.478161e+05
   2.659871e+05  -2.926420e+05
   6.882079e+05   4.111486e+05
   8.220134e+03   1.209198e+06
  -1.372040e+06   1.021723e+06
  -2.201686e+06  -3.743963e+05
  -1.552036e+06  -2.022588e+06
   2.147915e+05  -2.625095e+06
   1.741050e+06  -1.707894e+06
   1.996837e+06  -2.832722e+04
   1.212004e+06   1.133307e+06
   4.263931e+05   1.138379e+06
   2.697190e+05   4.993333e+05
   3.911605e+05   2.165632e+05
   6.791183e+04   6.254650e+05
  -8.312428e+05   1.019596e+06
  -1.594967e+06   5.118931e+05
  -1.331522e+06  -8.133167e+05
   1.195030e+05  -1.795079e+06
   1.851584e+06  -1.330063e+06
   2.496209e+06   4.456609e+05
   1.368666e+06   2.180276e+06
  -8.338057e+05   2.516108e+06
  -2.535225e+06   1.283178e+06
  -2.624600e+06  -4.451332e+05
  -1.360063e+06  -1.412771e+06
   3.869393e+04  -1.293508e+06
   6.138144e+05  -8.009602e+05
   4.376959e+05  -7.617160e+05
   2.728458e+05  -1.164489e+06
   6.380863e+05  -1.209677e+06
   1.258811e+06  -2.957933e+05
   1.376748e+06   1.164290e+06
   5.744383e+05   2.029453e+06
  -6.874601e+05   1.535202e+06
  -1.395408e+06   5.233819e+04
  -9.416289e+05  -1.256312e+06
   2.311564e+05  -1.476829e+06
   1.038900e+06  -6.529595e+05
   8.526408e+05   4.178554e+05
   1.014554e+05   9.740618e+05
  -2.884737e+05   8.827301e+05
   2.274139e+04   5.596856e+05
   4.099194e+05   4.156414e+05
   3.115859e+04   4.328221e+05
  -1.126219e+06   2.704165e+05
  -2.065512e+06  -2.790024e+05
  -1.730102e+06  -9.976382e+05
  -1.434984e+05  -1.403154e+06
   1.482303e+06  -1.172609e+06
   1.880234e+06  -4.354643e+05
   9.615317e+05   2.935846e+05
  -1.805426e+05   5.031374e+05
  -4.859899e+05   1.346071e+05
   3.185535e+04  -3.095108e+05
   5.442547e+05  -2.337968e+05
   4.869019e+05   3.674036e+05
   1.015010e+05   8.144629e+05
  -5.546271e+04   5.180673e+05
   1.687892e+05  -2.177739e+05
   4.312879e+05  -4.543739e+05
   3.280017e+05   2.285993e+05
  -2.326193e+05   1.109023e+06
  -9.471124e+05   1.109212e+06
  -1.252273e+06   8.463275e+04
  -7.140693e+05  -9.750864e+05
   4.364712e+05  -1.059785e+06
   1.223991e+06  -2.035106e+05
   7.569733e+05   6.648966e+05
  -7.064336e+05   7.313026e+05
  -1.778836e+06  -4.465896e+03
  -1.306975e+06  -8.832024e+05
   3.541145e+05  -1.207558e+06
   1.659075e+06  -7.559435e+05
   1.481254e+06   8.013757e+04
   2.321750e+05   5.946326e+05
  -6.792920e+05   3.729800e+05
  -3.611817e+05  -2.603138e+05
   7.032614e+05  -4.777681e+05
   1.250614e+06   2.109656e+05
   5.670393e+05   1.329323e+06
  -8.134801e+05   1.760652e+06
  -1.682172e+06   8.336271e+05
  -1.342081e+06  -8.856122e+05
  -1.873557e+05  -1.977458e+06
   8.135495e+05  -1.488157e+06
   1.038262e+06   9.251525e+04
   5.739100e+05   1.285201e+06
  -1.070958e+05   1.135640e+06
  -5.721747e+05   1.502557e+05
  -6.045258e+05  -4.387508e+05
  -2.863087e+05  -1.898547e+05
  -1.215502e+04   1.396329e+05
  -1.481334e+05  -2.392955e+05
  -4.929140e+05  -1.016616e+06
  -3.365824e+05  -1.203650e+06
   6.267389e+05  -4.582100e+05
   1.624765e+06   5.158340e+05
   1.515000e+06   9.195726e+05
   2.152212e+05   7.342524e+05
  -1.037830e+06   4.348226e+05
  -1.113581e+06   2.338224e+05
  -3.030920e+05   9.498041e+03
   2.014271e+05  -2.309919e+05
  -8.467326e+04  -2.918780e+05
  -4.192036e+05  -1.836487e+05
  -4.998567e+02  -1.510555e+05
   8.625991e+05  -1.907678e+05
   1.114937e+06   6.612985e+04
   2.630148e+05   7.247414e+05
  -1.051927e+06   1.176922e+06
  -1.756203e+06   6.988865e+05
  -1.352319e+06  -5.571588e+05
  -2.221950e+05  -1.546898e+06
   8.142262e+05  -1.433566e+06
   1.137517e+06  -4.757120e+05
   7.213002e+05   3.362358e+05
   8.227661e+04   3.852490e+05
  -1.872691e+05  -1.133097e+04
   4.952954e+04  -1.071762e+05
   3.816535e+05   3.656619e+05
   3.066916e+05   8.797385e+05
  -2.305990e+05   7.026467e+05
  -7.561243e+05  -2.303697e+05
  -7.024750e+05  -1.123466e+06
   3.249329e+04  -1.097569e+06
   8.889048e+05  -1.308485e+05
   1.059960e+06   9.083634e+05
   2.751023e+05   1.174216e+06
  -7.999641e+05   6.268569e+05
  -1.145294e+06  -1.353654e+05
  -4.962532e+05  -5.859949e+05
   3.103455e+05  -6.167418e+05
   3.161954e+05  -3.680484e+05
  -3.747452e+05  -6.165869e+04
  -7.308023e+05   1.069532e+04
  -1.152606e+05  -3.128675e+05
   9.058215e+05  -7.328322e+05
   1.280908e+06  -6.457743e+05
   7.145212e+05   1.159099e+05
  -1.293106e+05   8.933079e+05
  -5.160653e+05   8.731262e+05
  -3.509783e+05   9.177824e+04
   1.140384e+04  -5.613708e+05
   2.856114e+05  -4.054214e+05
   3.795165e+05   2.634491e+05
   2.467367e+05   6.321433e+05
  -8.868567e+04   3.703224e+05
  -4.153948e+05  -9.920046e+04
  -4.763559e+05  -2.438571e+05
  -2.613156e+05  -4.833178e+04
  -1.224272e+04   8.445640e+04
   9.325487e+04  -1.097081e+05
   1.326872e+05  -4.393104e+05
   2.537020e+05  -4.781993e+05
   4.036620e+05  -4.857497e+04
   3.522071e+05   5.306611e+05
  -1.887788e+04   7.114831e+05
  -4.957065e+05   2.800502e+05
  -6.432754e+05  -3.793277e+05
  -2.092076e+05  -6.624960e+05
   5.266365e+05  -3.696998e+05
   8.916950e+05   1.436810e+05
   4.793214e+05   4.203033e+05
  -3.237253e+05   3.522277e+05
  -6.655821e+05   1.426075e+05
  -1.939363e+05   1.329331e+03
   4.790787e+05   1.711473e+04
   4.761923e+05   1.889501e+05
  -2.784409e+05   3.718834e+05
  -9.523609e+05   2.655782e+05
