
 $NMID
 id='ANONYMOUS ', fmtdat='(2E16.6)'
 volume=1.0
 tramp=1.0
 $END
   2.220809e+07   1.704302e+06
   1.396045e+07   1.134156e+07
  -9.911678e+05   1.387321e+07
  -1.006037e+07   8.730914e+06
  -8.035975e+06   6.102043e+05
  -3.110748e+05  -3.939732e+06
   4.574439e+06  -1.821818e+06
   3.244925e+06   3.698835e+06
  -1.317774e+06   6.126054e+06
  -4.305668e+06   2.561647e+06
  -3.465452e+06  -3.137019e+06
  -1.784357e+05  -4.773133e+06
   2.265264e+06  -8.197376e+05
   1.553377e+06   4.096898e+06
  -1.547135e+06   4.598027e+06
  -3.779634e+06   2.470365e+05
  -2.559954e+06  -4.571553e+06
   1.323806e+06  -5.543105e+06
   4.457029e+06  -2.391309e+06
   4.281076e+06   1.627685e+06
   1.574632e+06   3.316210e+06
  -5.952709e+05   2.401027e+06
  -1.835346e+05   1.189647e+06
   1.708137e+06   1.712533e+06
   2.032204e+06   3.429549e+06
  -8.118843e+05   3.962476e+06
  -4.849267e+06   1.958025e+06
  -6.197850e+06  -1.277888e+06
  -3.184217e+06  -3.170252e+06
   1.526035e+06  -2.451086e+06
   3.504440e+06  -8.747529e+04
   1.231841e+06   1.855029e+06
  -2.433294e+06   1.814958e+06
  -3.624166e+06  -2.738747e+05
  -1.598895e+06  -2.778842e+06
   1.040478e+06  -3.395828e+06
   1.712607e+06  -1.351719e+06
   4.805814e+05   1.315460e+06
  -7.059097e+05   1.637992e+06
  -4.697226e+05  -7.355305e+05
   8.209577e+05  -2.810613e+06
   1.822976e+06  -1.818841e+06
   1.519895e+06   1.221630e+06
  -3.527494e+04   2.664633e+06
  -1.652777e+06   7.270016e+05
  -1.708519e+06  -2.395224e+06
   4.034003e+05  -3.226332e+06
   3.210363e+06  -8.949694e+05
   4.077298e+06   2.291182e+06
   1.786802e+06   3.553777e+06
  -1.894465e+06   2.197375e+06
  -3.738694e+06  -2.629881e+05
  -2.291016e+06  -1.768253e+06
   7.106776e+05  -1.402393e+06
   2.280403e+06   7.203378e+04
   1.272667e+06   1.065067e+06
  -7.146343e+05   6.802486e+05
  -1.349298e+06  -4.889638e+05
  -1.069311e+05  -1.098403e+06
   1.332627e+06  -5.030918e+05
   1.076573e+06   6.498007e+05
  -8.118032e+05   1.145812e+06
  -2.276415e+06   3.178040e+05
  -1.431232e+06  -1.411535e+06
   1.361821e+06  -2.761065e+06
   3.771415e+06  -2.442170e+06
   3.863606e+06  -2.661159e+05
   1.953669e+06   2.412058e+06
  -3.033140e+04   3.731044e+06
  -7.403042e+05   3.103547e+06
  -5.728929e+05   1.724008e+06
  -7.280802e+05   1.033349e+06
  -1.616082e+06   9.886335e+05
  -2.476619e+06   3.785779e+05
  -2.318976e+06  -1.238615e+06
  -9.303595e+05  -2.595615e+06
   9.209793e+05  -2.101865e+06
   2.003578e+06   1.542947e+05
   1.465388e+06   2.269637e+06
  -4.206160e+05   2.417405e+06
  -2.247591e+06   6.000717e+05
  -2.561691e+06  -1.543507e+06
  -1.231998e+06  -2.439440e+06
   4.146751e+05  -1.920453e+06
   1.052048e+06  -1.011584e+06
   8.109437e+05  -6.594429e+05
   9.589354e+05  -8.072209e+05
   2.126895e+06  -6.361984e+05
   3.253573e+06   4.453082e+05
   2.646200e+06   2.101025e+06
   2.891867e+04   3.256916e+06
  -2.806560e+06   2.955960e+06
  -3.624375e+06   1.191034e+06
  -1.966382e+06  -9.280603e+05
   4.123958e+05  -1.933048e+06
   1.351837e+06  -1.239711e+06
   3.813742e+05   2.336614e+05
  -1.074432e+06   9.031017e+05
  -1.402683e+06   1.729636e+05
  -4.358679e+05  -9.017845e+05
   6.287164e+05  -8.720911e+05
   6.369553e+05   2.864924e+05
  -4.067843e+05   1.020432e+06
  -1.458851e+06   2.993726e+04
  -1.395420e+06  -2.054741e+06
   7.215863e+04  -3.187891e+06
   2.098147e+06  -2.065185e+06
   3.224730e+06   5.074439e+05
   2.522653e+06   2.468172e+06
   5.034846e+05   2.521242e+06
  -1.208952e+06   1.188062e+06
  -1.386525e+06   8.709758e+03
  -3.984049e+05  -5.640401e+04
   2.743581e+05   6.120169e+05
  -2.607429e+05   9.427698e+05
  -1.319392e+06   3.868539e+05
  -1.498858e+06  -5.666813e+05
  -3.766610e+05  -9.867324e+05
   9.122053e+05  -4.899650e+05
   8.910660e+05   3.848586e+05
  -5.841490e+05   7.118563e+05
  -2.039557e+06   4.455175e+04
  -1.853862e+06  -1.166688e+06
   3.333561e+04  -1.925384e+06
   1.992060e+06  -1.523620e+06
   2.321063e+06  -2.058288e+05
   9.211582e+05   9.548907e+05
  -7.089408e+05   1.003207e+06
  -1.052946e+06   5.719156e+04
  -8.908949e+03  -7.629265e+05
   1.210991e+06  -5.007172e+05
   1.388945e+06   5.905587e+05
   4.117976e+05   1.333585e+06
  -7.630650e+05   9.571428e+05
  -1.075572e+06  -5.812876e+04
  -3.504656e+05  -5.689506e+05
   5.382561e+05  -5.666347e+04
   5.131783e+05   8.514651e+05
  -5.717987e+05   1.102701e+06
  -1.670910e+06   2.977498e+05
  -1.578374e+06  -9.620363e+05
  -2.367402e+05  -1.665661e+06
   1.150167e+06  -1.282770e+06
   1.377009e+06  -1.905801e+05
   4.576494e+05   6.809009e+05
  -5.220136e+05   6.827389e+05
  -6.302775e+05   2.233556e+04
   2.298452e+04  -4.989763e+05
   5.821879e+05  -3.599778e+05
   4.291618e+05   1.261871e+05
  -2.034110e+05   2.184084e+05
  -5.120492e+05  -3.341575e+05
   3.597439e+04  -9.290287e+05
   1.096375e+06  -7.376340e+05
   1.686737e+06   3.727547e+05
   1.121374e+06   1.622588e+06
  -2.643176e+05   2.019033e+06
  -1.402797e+06   1.254096e+06
  -1.538608e+06  -4.553048e+04
  -9.009232e+05  -9.105374e+05
  -3.017053e+05  -8.941143e+05
  -1.970061e+05  -4.047606e+05
  -2.902911e+05  -1.892033e+05
  -2.653469e+04  -4.855823e+05
   6.752146e+05  -7.573343e+05
   1.248693e+06  -3.438315e+05
   1.006553e+06   6.700473e+05
  -1.479239e+05   1.382839e+06
  -1.476294e+06   9.639230e+05
  -1.913032e+06  -4.344481e+05
  -9.743245e+05  -1.733070e+06
   7.400638e+05  -1.905777e+06
   2.001421e+06  -8.899702e+05
   2.002702e+06   4.391073e+05
   9.978622e+05   1.132509e+06
  -6.928176e+04   9.943620e+05
  -4.982164e+05   6.039657e+05
  -3.712211e+05   5.824439e+05
  -2.635134e+05   8.916950e+05
  -5.434564e+05   9.057597e+05
  -9.841763e+05   1.760487e+05
  -1.019008e+06  -9.540527e+05
  -3.657654e+05  -1.590846e+06
   5.907307e+05  -1.160082e+06
   1.078979e+06   1.308408e+04
   6.764320e+05   1.004569e+06
  -2.345491e+05   1.126572e+06
  -8.202736e+05   4.598606e+05
  -6.336721e+05  -3.540504e+05
  -3.752433e+04  -7.490412e+05
   2.543286e+05  -6.633153e+05
   2.160543e+02  -4.298632e+05
  -3.034663e+05  -3.371322e+05
  -9.908919e+03  -3.365465e+05
   8.785525e+05  -1.653329e+05
   1.584159e+06   2.958905e+05
   1.296682e+06   8.362947e+05
   5.373536e+04   1.085183e+06
  -1.191292e+06   8.436672e+05
  -1.464696e+06   2.624695e+05
  -7.248145e+05  -2.611962e+05
   1.608173e+05  -3.790087e+05
   3.775991e+05  -8.486332e+04
  -3.863993e+04   2.385228e+05
  -4.284821e+05   1.623295e+05
  -3.619463e+05  -3.014764e+05
  -4.944703e+04  -6.366826e+05
   6.247938e+04  -4.020030e+05
  -1.348362e+05   1.638289e+05
  -3.478528e+05   3.403276e+05
  -2.475269e+05  -1.878489e+05
   2.179491e+05  -8.526107e+05
   7.752300e+05  -8.236338e+05
   9.755396e+05  -1.362575e+04
   5.158904e+05   7.861211e+05
  -3.813304e+05   8.028268e+05
  -9.574141e+05   1.084738e+05
  -5.613599e+05  -5.422805e+05
   5.713130e+05  -5.372490e+05
   1.370814e+06   6.696970e+04
   9.763513e+05   7.240500e+05
  -3.133487e+05   9.154459e+05
  -1.303099e+06   5.243157e+05
  -1.138557e+06  -1.126608e+05
  -1.583569e+05  -4.657970e+05
   5.369630e+05  -2.617257e+05
   2.675690e+05   2.170465e+05
  -5.645833e+05   3.450598e+05
  -9.623769e+05  -2.111523e+05
  -3.897065e+05  -1.053011e+06
   6.964469e+05  -1.334424e+06
   1.333492e+06  -5.832630e+05
   1.005217e+06   7.340788e+05
   7.247818e+04   1.534939e+06
  -6.811651e+05   1.119801e+06
  -7.962539e+05  -1.089235e+05
  -3.956703e+05  -1.011832e+06
   1.232336e+05  -8.705940e+05
   4.470036e+05  -9.391411e+04
   4.519229e+05   3.593569e+05
   2.151083e+05   1.550132e+05
   1.360239e+04  -1.058876e+05
   1.034111e+05   1.950003e+05
   3.417022e+05   8.056091e+05
   2.154497e+05   9.387051e+05
  -5.006290e+05   3.262938e+05
  -1.236005e+06  -4.582965e+05
  -1.136460e+06  -7.631191e+05
  -1.388022e+05  -5.748895e+05
   8.180748e+05  -3.006732e+05
   8.680343e+05  -1.406606e+05
   2.328352e+05   6.177492e+03
  -1.644898e+05   1.716583e+05
   5.680609e+04   2.247549e+05
   3.199003e+05   1.540701e+05
  -4.730242e+03   1.190617e+05
  -6.756856e+05   1.197944e+05
  -8.609743e+05  -9.337433e+04
  -1.757063e+05  -5.757781e+05
   8.594036e+05  -8.739970e+05
   1.386370e+06  -4.722088e+05
   1.026842e+06   4.854591e+05
   1.151182e+05   1.205581e+06
  -6.840399e+05   1.077532e+06
  -9.002562e+05   3.258677e+05
  -5.479088e+05  -2.865600e+05
  -4.930804e+04  -3.032245e+05
   1.468159e+05   1.227543e+04
  -3.980089e+04   7.992512e+04
  -2.805129e+05  -2.954749e+05
  -2.039846e+05  -6.906922e+05
   2.060380e+05  -5.354869e+05
   5.788582e+05   2.062056e+05
   5.033303e+05   8.975111e+05
  -6.681112e+04   8.513063e+05
  -6.955239e+05   6.996460e+04
  -7.887393e+05  -7.429339e+05
  -1.688888e+05  -9.204183e+05
   6.444419e+05  -4.557042e+05
   8.819169e+05   1.489681e+05
   3.598709e+05   4.740823e+05
  -2.664149e+05   4.657381e+05
  -2.597287e+05   2.700202e+05
   2.882239e+05   5.803390e+04
   5.661098e+05   1.776734e+04
   7.709014e+04   2.472498e+05
  -7.272602e+05   5.327795e+05
  -1.012165e+06   4.486394e+05
  -5.456160e+05  -1.194756e+05
   1.346224e+05  -6.860426e+05
   4.328933e+05  -6.531195e+05
   2.771896e+05  -5.499317e+04
  -2.821553e+04   4.351946e+05
  -2.375163e+05   3.036810e+05
  -2.864964e+05  -2.173895e+05
  -1.674535e+05  -4.984537e+05
   8.491652e+04  -2.839489e+05
   3.187221e+05   9.235401e+04
   3.571907e+05   2.074540e+05
   1.984192e+05   4.710350e+04
   1.484975e+04  -6.651539e+04
  -7.153935e+04   8.111406e+04
  -1.170476e+05   3.386684e+05
  -2.169388e+05   3.660166e+05
  -3.189991e+05   2.448928e+04
  -2.560883e+05  -4.270891e+05
   4.036522e+04  -5.545362e+05
   3.951050e+05  -1.997417e+05
   4.854989e+05   3.190693e+05
   1.385076e+05   5.216882e+05
  -4.215629e+05   2.656109e+05
  -6.857635e+05  -1.460140e+05
  -3.551148e+05  -3.438418e+05
   2.657479e+05  -2.603049e+05
   5.226297e+05  -8.460928e+04
   1.503165e+05   8.370149e+03
  -3.721356e+05  -2.816857e+04
  -3.641827e+05  -1.626933e+05
   2.273781e+05  -2.796014e+05
   7.463702e+05  -1.739601e+05
