
 $NMID
 id='ANONYMOUS ', fmtdat='(2E16.6)'
 volume=1.0
 tramp=1.0
 $END
  -5.641268e+07   1.102567e+06
  -3.458510e+07  -3.458514e+07
   6.918098e+06  -3.848729e+07
   2.755078e+07  -1.496216e+07
   1.662514e+07   7.040908e+06
  -3.278709e+06   9.438157e+06
  -9.883959e+06  -1.244922e+06
  -2.798726e+06  -9.814458e+06
   6.202989e+06  -9.315672e+06
   9.649480e+06  -2.023674e+06
   7.048569e+06   6.058428e+06
   9.457334e+05   8.499441e+06
  -3.890573e+06   2.826207e+06
  -2.640051e+06  -5.268755e+06
   3.711839e+06  -6.472216e+06
   7.886003e+06   1.281464e+06
   4.554761e+06   1.013518e+07
  -3.624306e+06   1.183135e+07
  -9.994128e+06   6.082625e+06
  -1.085057e+07  -1.802120e+06
  -6.845049e+06  -7.330931e+06
  -9.480625e+05  -8.713760e+06
   2.850598e+06  -6.246052e+06
   2.019951e+06  -2.759647e+06
  -9.486571e+05  -1.991627e+06
  -3.341655e+05  -3.975998e+06
   5.132735e+06  -4.409128e+06
   9.450672e+06  -7.203462e+05
   7.064972e+06   3.901231e+06
   4.612580e+05   4.988693e+06
  -3.495686e+06   2.662022e+06
  -2.408170e+06   1.970340e+05
   4.646134e+05  -7.810500e+05
   2.058746e+06  -4.928196e+05
   2.112862e+06   1.250752e+06
   8.172871e+05   3.755872e+06
  -1.655993e+06   3.884502e+06
  -3.268634e+06   7.580518e+04
  -1.882264e+06  -3.558192e+06
   6.869346e+05  -2.051087e+06
   4.081334e+05   2.293247e+06
  -2.388154e+06   2.263618e+06
  -2.473213e+06  -3.176365e+06
   2.397070e+06  -6.200081e+06
   7.035950e+06  -1.149927e+06
   5.286974e+06   6.865419e+06
  -1.785852e+06   8.600659e+06
  -7.378446e+06   2.551816e+06
  -6.934160e+06  -4.337554e+06
  -1.846275e+06  -5.962059e+06
   3.433175e+06  -2.684960e+06
   5.192450e+06   1.511436e+06
   2.388581e+06   3.467459e+06
  -2.415016e+06   2.216634e+06
  -4.529222e+06  -8.791361e+05
  -1.970435e+06  -2.708127e+06
   1.697598e+06  -1.394161e+06
   1.714600e+06   1.012282e+06
  -1.374195e+06   9.125421e+05
  -2.526888e+06  -1.806682e+06
   6.241826e+05  -3.548779e+06
   4.686037e+06  -1.993905e+06
   5.352592e+06   1.327966e+06
   2.364052e+06   3.971528e+06
  -1.688928e+06   5.245013e+06
  -4.826376e+06   4.857198e+06
  -6.068874e+06   1.851571e+06
  -4.609014e+06  -3.006586e+06
  -1.049871e+06  -6.072416e+06
   1.817698e+06  -4.735910e+06
   1.795434e+06  -1.176543e+06
   1.602581e+05   3.486061e+05
  -1.410688e+05  -8.913674e+05
   1.438790e+06  -1.794574e+06
   2.698861e+06  -3.511728e+05
   2.013273e+06   1.779031e+06
   9.552247e+04   2.043724e+06
  -1.455649e+06   2.127042e+05
  -1.630005e+06  -1.980752e+06
  -5.103244e+04  -2.853970e+06
   2.669634e+06  -1.686448e+06
   4.431448e+06   1.062087e+06
   3.284066e+06   3.651960e+06
   6.245262e+04   4.222675e+06
  -2.226744e+06   2.775831e+06
  -2.237828e+06   1.173426e+06
  -1.834603e+06   6.756627e+05
  -2.903080e+06   4.737395e+05
  -4.285871e+06  -7.288099e+05
  -3.444335e+06  -2.698107e+06
  -1.545342e+05  -4.047926e+06
   3.103691e+06  -3.846345e+06
   4.047491e+06  -2.131154e+06
   2.602892e+06   3.490763e+05
   3.262532e+05   2.161558e+06
  -1.024165e+06   1.914272e+06
  -5.526007e+05  -1.323941e+04
   1.041685e+06  -1.296591e+06
   1.876409e+06  -4.169694e+05
   9.376807e+05   1.174555e+06
  -4.847405e+05   1.092628e+06
  -3.994230e+05  -3.919033e+05
   1.095336e+06  -6.663613e+05
   1.864910e+06   1.341754e+06
   6.006177e+05   3.509238e+06
  -1.662067e+06   3.357643e+06
  -3.152013e+06   1.021579e+06
  -3.228519e+06  -1.479620e+06
  -2.177496e+06  -2.705536e+06
  -4.283848e+05  -2.531929e+06
   1.197361e+06  -1.436167e+06
   1.535564e+06  -2.415175e+05
   4.846827e+05   4.177886e+04
  -3.557763e+05  -7.383960e+05
   4.057431e+05  -1.336739e+06
   1.894554e+06  -5.896433e+05
   2.023482e+06   8.783276e+05
   3.817439e+05   1.411285e+06
  -1.157209e+06   5.629499e+05
  -8.580554e+05  -4.513828e+05
   8.566038e+05  -4.871889e+05
   2.130941e+06   3.531676e+05
   1.672167e+06   1.342256e+06
  -2.709709e+05   1.913412e+06
  -2.264967e+06   1.609518e+06
  -2.723844e+06   2.731299e+05
  -1.210893e+06  -1.249649e+06
   8.989814e+05  -1.505298e+06
   1.555567e+06  -2.075995e+05
   2.203884e+05   1.070852e+06
  -1.492399e+06   7.397105e+05
  -1.696967e+06  -7.731079e+05
  -3.193189e+05  -1.634197e+06
   1.094943e+06  -9.496183e+05
   1.240054e+06   3.306156e+05
   2.275921e+05   7.827007e+05
  -7.981351e+05   5.629507e+04
  -7.371040e+05  -1.036177e+06
   5.529571e+05  -1.408204e+06
   1.970553e+06  -5.530023e+05
   2.014611e+06   1.018084e+06
   3.905625e+05   2.046141e+06
  -1.419523e+06   1.629042e+06
  -1.706587e+06   2.075172e+05
  -4.910092e+05  -8.609801e+05
   6.516522e+05  -7.894474e+05
   6.091258e+05  -7.680322e+04
  -1.331917e+05   3.331496e+05
  -4.694622e+05   1.762617e+05
  -7.866707e+04  -6.754905e+04
   4.714504e+05   1.037884e+05
   5.073151e+05   6.916210e+05
  -2.183693e+05   1.179988e+06
  -1.367067e+06   8.834782e+05
  -2.053222e+06  -4.027380e+05
  -1.453860e+06  -1.908518e+06
   2.022576e+05  -2.378957e+06
   1.584113e+06  -1.378402e+06
   1.648045e+06   1.356056e+05
   8.155568e+05   8.679309e+05
   2.961053e+05   5.997481e+05
   4.864546e+05   1.821130e+05
   6.475021e+05   3.093449e+05
   1.004782e+05   7.690618e+05
  -8.695264e+05   8.873166e+05
  -1.422403e+06   3.082166e+05
  -1.013585e+06  -7.072371e+05
   2.599409e+05  -1.417156e+06
   1.691476e+06  -1.044174e+06
   2.205048e+06   4.734549e+05
   1.111388e+06   2.069015e+06
  -1.004329e+06   2.338357e+06
  -2.516800e+06   1.013999e+06
  -2.310197e+06  -6.643483e+05
  -9.137577e+05  -1.321347e+06
   2.227660e+05  -9.072304e+05
   3.667648e+05  -4.733217e+05
   3.641702e+04  -7.364611e+05
   7.198810e+04  -1.304751e+06
   6.552111e+05  -1.289547e+06
   1.281317e+06  -3.286181e+05
   1.326912e+06   1.051674e+06
   5.610826e+05   1.858258e+06
  -6.000839e+05   1.416388e+06
  -1.262939e+06  -6.947769e+02
  -8.011709e+05  -1.270687e+06
   3.946683e+05  -1.380895e+06
   1.166954e+06  -3.876677e+05
   8.107359e+05   7.143777e+05
  -1.347909e+05   1.081868e+06
  -5.535868e+05   7.739123e+05
  -9.569707e+04   4.002685e+05
   4.325996e+05   3.203867e+05
   6.415454e+04   3.735411e+05
  -1.140299e+06   2.108699e+05
  -2.047337e+06  -3.192526e+05
  -1.598821e+06  -1.021383e+06
   4.519357e+04  -1.429306e+06
   1.577749e+06  -1.141509e+06
   1.810886e+06  -2.712073e+05
   8.206708e+05   5.079646e+05
  -2.614400e+05   5.750855e+05
  -5.121004e+05   2.686608e+04
  -4.361144e+04  -4.284737e+05
   4.248854e+05  -2.608867e+05
   4.796895e+05   3.319438e+05
   2.738926e+05   7.003734e+05
   1.169055e+05   4.660884e+05
   1.348599e+05  -7.960560e+04
   2.602110e+05  -2.687916e+05
   2.684760e+05   2.303659e+05
  -1.237248e+05   9.625772e+05
  -8.777301e+05   1.058882e+06
  -1.361054e+06   2.003079e+05
  -8.701579e+05  -8.883307e+05
   3.963788e+05  -1.144374e+06
   1.246302e+06  -3.655393e+05
   7.290003e+05   5.501442e+05
  -6.928673e+05   6.391917e+05
  -1.554962e+06  -9.845942e+04
  -9.649580e+05  -8.537619e+05
   4.959038e+05  -9.600133e+05
   1.469680e+06  -4.457285e+05
   1.194666e+06   2.011368e+05
   1.218007e+05   5.008481e+05
  -6.415850e+05   2.575638e+05
  -3.892192e+05  -2.931377e+05
   5.573236e+05  -5.298709e+05
   1.164917e+06   4.832495e+04
   6.955562e+05   1.142117e+06
  -5.318163e+05   1.688970e+06
  -1.434139e+06   9.050828e+05
  -1.244243e+06  -7.206182e+05
  -2.214113e+05  -1.752958e+06
   7.164540e+05  -1.264624e+06
   9.078653e+05   1.838251e+05
   4.155232e+05   1.172340e+06
  -2.339030e+05   9.425323e+05
  -5.604214e+05   7.742185e+04
  -4.421037e+05  -3.642116e+05
  -1.400701e+05  -1.287283e+05
  -5.565650e+04   8.836898e+04
  -3.100553e+05  -2.992858e+05
  -5.228534e+05  -9.499217e+05
  -1.714549e+05  -1.055579e+06
   7.292013e+05  -3.931292e+05
   1.449826e+06   4.414167e+05
   1.241127e+06   8.116781e+05
   1.863274e+05   6.905900e+05
  -8.109202e+05   4.224865e+05
  -9.574896e+05   1.802540e+05
  -3.763080e+05  -6.063321e+04
   1.307858e+05  -2.254822e+05
   6.213689e+04  -1.902992e+05
  -2.296630e+05  -7.534185e+04
  -6.346295e+04  -1.273855e+05
   6.131435e+05  -2.512577e+05
   1.033484e+06  -1.482962e+04
   4.839923e+05   6.763268e+05
  -7.773452e+05   1.190125e+06
  -1.680859e+06   7.981605e+05
  -1.435658e+06  -3.793333e+05
  -3.075099e+05  -1.373042e+06
   7.398187e+05  -1.379117e+06
   1.023187e+06  -5.708440e+05
   6.432051e+05   1.988661e+05
   1.525394e+05   3.500423e+05
  -3.767910e+04   8.449944e+04
   9.212372e+04   4.208573e+03
   2.871114e+05   3.682665e+05
   2.438765e+05   7.926160e+05
  -1.563728e+05   6.790149e+05
  -6.646872e+05  -8.288974e+04
  -7.658412e+05  -8.976247e+05
  -1.738360e+05  -1.014727e+06
   7.130731e+05  -2.921104e+05
   1.043711e+06   6.554688e+05
   3.892955e+05   1.066115e+06
  -6.806258e+05   7.079993e+05
  -1.119900e+06  -3.860291e+04
  -5.578374e+05  -6.145548e+05
   2.687824e+05  -7.058868e+05
   3.940920e+05  -3.795978e+05
  -2.114058e+05   6.628333e+03
  -6.301869e+05   5.716449e+04
  -1.624751e+05  -3.058338e+05
   7.991605e+05  -6.814086e+05
   1.258188e+06  -5.357451e+05
   7.884074e+05   1.820884e+05
  -7.253206e+04   8.710843e+05
  -5.531685e+05   8.702661e+05
  -4.468566e+05   1.944294e+05
  -8.014656e+04  -4.561525e+05
   2.185152e+05  -4.517643e+05
   3.464617e+05   1.075619e+05
   2.681319e+05   5.614548e+05
  -3.231363e+04   4.488807e+05
  -3.866563e+05  -2.160678e+04
  -4.868002e+05  -2.857541e+05
  -2.426032e+05  -1.082045e+05
   5.398112e+04   1.697017e+05
   8.609200e+04   8.965544e+04
  -6.094647e+04  -3.257509e+05
  -2.595449e+04  -5.727292e+05
   2.861745e+05  -2.774393e+05
   4.990213e+05   3.234137e+05
   2.245300e+05   6.259652e+05
  -3.777376e+05   3.343308e+05
  -6.809741e+05  -2.368004e+05
  -2.796314e+05  -5.450804e+05
   4.999912e+05  -3.779720e+05
   8.892101e+05   3.693511e+04
   4.908366e+05   3.586308e+05
  -2.777816e+05   4.254610e+05
  -6.305497e+05   2.706313e+05
  -2.709099e+05   3.113735e+04
   3.027296e+05  -9.978269e+04
   3.872508e+05   1.733268e+04
  -1.306296e+05   2.681125e+05
  -6.778856e+05   2.852064e+05
