
 $NMID
 id='ANONYMOUS ', fmtdat='(2E16.6)'
 volume=1.0
 tramp=1.0
 $END
   3.552330e+07   1.090649e+06
   2.191460e+07   1.954921e+07
  -2.796797e+06   2.289329e+07
  -1.635225e+07   1.194043e+07
  -1.155167e+07  -1.257234e+06
   5.805994e+05  -6.046304e+06
   6.662582e+06  -1.386503e+06
   3.707351e+06   5.851855e+06
  -2.675769e+06   8.001484e+06
  -6.385116e+06   2.920836e+06
  -5.124038e+06  -4.421411e+06
  -5.422478e+05  -6.646663e+06
   3.131881e+06  -1.586007e+06
   2.296506e+06   5.076947e+06
  -2.233984e+06   5.917828e+06
  -5.499513e+06  -6.442071e+04
  -3.600702e+06  -6.814921e+06
   2.107901e+06  -8.206603e+06
   6.735743e+06  -3.852323e+06
   6.882759e+06   1.947999e+06
   3.327757e+06   5.059983e+06
  -3.371918e+05   4.615158e+06
  -1.035463e+06   2.721022e+06
   1.013159e+06   2.113341e+06
   2.267729e+06   3.489251e+06
  -4.498979e+05   4.702587e+06
  -5.720066e+06   3.184895e+06
  -8.262753e+06  -7.371493e+05
  -4.935877e+06  -3.867731e+06
   1.181712e+06  -3.706596e+06
   4.165658e+06  -9.925989e+05
   1.914495e+06   1.573869e+06
  -2.191351e+06   2.007768e+06
  -3.844292e+06   9.741358e+04
  -2.175654e+06  -2.783930e+06
   5.735615e+05  -4.181079e+06
   2.007519e+06  -2.356818e+06
   1.434529e+06   1.218841e+06
  -8.683744e+04   2.552664e+06
  -7.163664e+05  -7.818856e+04
   4.789970e+05  -3.216464e+06
   2.216968e+06  -2.315533e+06
   2.049996e+06   1.926127e+06
  -6.531510e+05   4.031124e+06
  -3.386782e+06   9.053267e+05
  -2.978808e+06  -4.037625e+06
   8.358771e+05  -5.226160e+06
   4.896435e+06  -1.541672e+06
   5.604634e+06   3.123161e+06
   2.207687e+06   4.736729e+06
  -2.552056e+06   2.757685e+06
  -4.757872e+06  -5.139945e+05
  -2.749052e+06  -2.443781e+06
   1.258393e+06  -1.869937e+06
   3.278338e+06   2.538307e+05
   1.697187e+06   1.667059e+06
  -1.092611e+06   1.010456e+06
  -1.695062e+06  -6.646365e+05
   2.226335e+05  -1.200340e+06
   1.810304e+06   1.075576e+04
   7.570421e+05   1.465786e+06
  -1.978590e+06   1.512436e+06
  -3.450959e+06  -5.828702e+04
  -1.926361e+06  -2.314398e+06
   1.628169e+06  -3.960247e+06
   4.658617e+06  -3.655658e+06
   5.154861e+06  -8.590223e+05
   3.106539e+06   2.969075e+06
   3.667910e+05   5.042508e+06
  -1.069445e+06   4.089459e+06
  -9.227373e+05   1.859012e+06
  -6.188833e+05   8.686320e+05
  -1.357367e+06   1.241892e+06
  -2.624260e+06   9.725274e+05
  -2.913132e+06  -9.109143e+05
  -1.531293e+06  -2.796745e+06
   6.959075e+05  -2.517678e+06
   2.213213e+06  -3.344826e+04
   1.878250e+06   2.512070e+06
  -2.599608e+05   2.984281e+06
  -2.748435e+06   1.095953e+06
  -3.595724e+06  -1.606901e+06
  -2.082567e+06  -3.188572e+06
   3.314339e+05  -2.911429e+06
   1.557333e+06  -1.680975e+06
   1.325338e+06  -9.064076e+05
   1.320721e+06  -9.256932e+05
   2.664084e+06  -7.756436e+05
   4.097484e+06   4.774919e+05
   3.392233e+06   2.521599e+06
   1.976342e+05   4.027329e+06
  -3.250284e+06   3.820707e+06
  -4.326606e+06   1.806125e+06
  -2.536735e+06  -8.521010e+05
   1.942570e+05  -2.364021e+06
   1.454878e+06  -1.711164e+06
   5.155108e+05   1.971650e+05
  -1.213932e+06   1.218827e+06
  -1.772551e+06   3.272350e+05
  -6.871112e+05  -1.124034e+06
   6.606590e+05  -1.121687e+06
   6.951074e+05   3.224274e+05
  -6.020780e+05   1.099690e+06
  -1.776931e+06  -2.781303e+05
  -1.470653e+06  -2.714410e+06
   3.767344e+05  -3.738358e+06
   2.619721e+06  -2.198516e+06
   3.770593e+06   7.150121e+05
   2.963566e+06   2.830154e+06
   6.835985e+05   2.927319e+06
  -1.364719e+06   1.512421e+06
  -1.671202e+06   1.327806e+05
  -4.938951e+05  -4.719569e+04
   3.701824e+05   7.386668e+05
  -3.080230e+05   1.219742e+06
  -1.687661e+06   5.577267e+05
  -1.919426e+06  -6.891828e+05
  -4.833711e+05  -1.254449e+06
   1.109483e+06  -6.352127e+05
   1.051546e+06   4.193882e+05
  -7.127042e+05   7.881119e+05
  -2.392732e+06   3.676968e+04
  -2.166770e+06  -1.319149e+06
   1.302686e+04  -2.242625e+06
   2.335780e+06  -1.891033e+06
   2.819415e+06  -3.561663e+05
   1.196013e+06   1.164460e+06
  -8.477724e+05   1.341981e+06
  -1.373499e+06   1.456577e+05
  -9.907253e+04  -9.828210e+05
   1.475681e+06  -7.027124e+05
   1.733763e+06   6.827725e+05
   5.134438e+05   1.622302e+06
  -9.378305e+05   1.148475e+06
  -1.301588e+06  -9.300859e+04
  -4.029495e+05  -7.038968e+05
   6.927618e+05  -8.801472e+04
   6.948353e+05   1.022696e+06
  -6.176894e+05   1.395960e+06
  -2.025453e+06   4.865510e+05
  -2.006965e+06  -1.078169e+06
  -3.864021e+05  -2.045430e+06
   1.369448e+06  -1.642660e+06
   1.695930e+06  -2.833891e+05
   5.757941e+05   8.271317e+05
  -6.150797e+05   8.525685e+05
  -7.340503e+05   7.504155e+04
   2.429596e+04  -5.343141e+05
   6.239754e+05  -4.020904e+05
   4.126671e+05   9.846965e+04
  -2.893743e+05   1.662043e+05
  -5.991803e+05  -4.647626e+05
   5.789256e+04  -1.148767e+06
   1.325168e+06  -9.427765e+05
   2.086917e+06   3.769621e+05
   1.467663e+06   1.932677e+06
  -2.099292e+05   2.474303e+06
  -1.637140e+06   1.561916e+06
  -1.831015e+06  -1.038120e+04
  -1.075126e+06  -1.012907e+06
  -4.006703e+05  -9.556881e+05
  -3.321459e+05  -4.142750e+05
  -4.386075e+05  -2.509767e+05
  -6.175443e+04  -6.443685e+05
   8.131504e+05  -9.432574e+05
   1.489059e+06  -4.409326e+05
   1.205143e+06   7.494086e+05
  -1.429589e+05   1.628402e+06
  -1.742061e+06   1.208074e+06
  -2.333934e+06  -4.395498e+05
  -1.247460e+06  -2.075629e+06
   8.596208e+05  -2.372154e+06
   2.442135e+06  -1.153384e+06
   2.441109e+06   4.895950e+05
   1.193726e+06   1.327510e+06
  -7.300666e+04   1.139566e+06
  -5.162486e+05   6.988688e+05
  -3.226976e+05   7.501334e+05
  -2.282665e+05   1.172707e+06
  -6.354845e+05   1.185380e+06
  -1.227866e+06   2.840801e+05
  -1.316794e+06  -1.104362e+06
  -5.470336e+05  -1.922284e+06
   6.469683e+05  -1.454204e+06
   1.312988e+06  -3.397455e+04
   8.643133e+05   1.218248e+06
  -2.718465e+05   1.392714e+06
  -1.028357e+06   5.474296e+05
  -7.940451e+05  -4.856024e+05
  -2.315327e+04  -9.578666e+05
   3.487103e+05  -8.085061e+05
   4.183373e+03  -4.932339e+05
  -4.047150e+05  -3.811732e+05
  -3.909670e+04  -4.050111e+05
   1.091496e+06  -2.371366e+05
   1.989010e+06   2.941045e+05
   1.630925e+06   9.764628e+05
   7.789678e+04   1.354952e+06
  -1.465857e+06   1.110240e+06
  -1.794910e+06   3.683502e+05
  -8.792065e+05  -3.393128e+05
   2.034728e+05  -4.996268e+05
   4.717696e+05  -9.708776e+04
  -2.002793e+04   3.341526e+05
  -4.982640e+05   2.356501e+05
  -4.681521e+05  -3.492188e+05
  -1.436130e+05  -7.682209e+05
   9.536994e+03  -4.967937e+05
  -1.479948e+05   1.752209e+05
  -3.652143e+05   3.978528e+05
  -3.002426e+05  -2.200712e+05
   1.958295e+05  -1.038791e+06
   9.029129e+05  -1.057283e+06
   1.246959e+06  -9.742983e+04
   7.295485e+05   9.343450e+05
  -4.240179e+05   1.046452e+06
  -1.200282e+06   2.291509e+05
  -7.264392e+05  -6.170436e+05
   6.799089e+05  -6.788370e+05
   1.656725e+06   2.930337e+04
   1.170036e+06   8.368264e+05
  -3.743884e+05   1.092722e+06
  -1.543368e+06   6.487415e+05
  -1.350632e+06  -1.037639e+05
  -1.966899e+05  -5.462272e+05
   6.436602e+05  -3.278568e+05
   3.531670e+05   2.647014e+05
  -6.485709e+05   4.790431e+05
  -1.195112e+06  -1.657960e+05
  -5.829919e+05  -1.248345e+06
   7.221206e+05  -1.694221e+06
   1.572413e+06  -8.265921e+05
   1.275313e+06   8.178664e+05
   1.882372e+05   1.857340e+06
  -7.598846e+05   1.380588e+06
  -9.645091e+05  -1.135472e+05
  -5.108666e+05  -1.209064e+06
   1.341170e+05  -1.040426e+06
   5.475158e+05  -1.230146e+05
   5.434570e+05   4.002624e+05
   2.408773e+05   1.616991e+05
   2.135848e+04  -1.191311e+05
   1.806077e+05   2.572567e+05
   4.809927e+05   9.713148e+05
   2.818749e+05   1.119008e+06
  -6.328113e+05   4.160085e+05
  -1.526365e+06  -4.816332e+05
  -1.393261e+06  -8.570724e+05
  -1.978054e+05  -6.987271e+05
   9.470202e+05  -4.224505e+05
   1.035107e+06  -2.128303e+05
   3.084676e+05   1.535230e+04
  -1.778382e+05   2.244133e+05
   4.703741e+04   2.481526e+05
   3.607872e+05   1.417629e+05
   1.732858e+04   1.434612e+05
  -7.739446e+05   2.080669e+05
  -1.061344e+06  -4.628882e+04
  -3.096595e+05  -7.026009e+05
   9.551015e+05  -1.149581e+06
   1.689723e+06  -6.934802e+05
   1.335721e+06   5.068554e+05
   2.357282e+05   1.457226e+06
  -7.754033e+05   1.370807e+06
  -1.079158e+06   4.833140e+05
  -6.826462e+05  -2.901358e+05
  -9.725459e+04  -3.680037e+05
   1.472870e+05  -2.109436e+04
  -5.361517e+04   7.186974e+04
  -3.417734e+05  -3.518962e+05
  -2.788294e+05  -8.270805e+05
   2.074901e+05  -6.761187e+05
   7.142023e+05   1.846949e+05
   7.005600e+05   1.036465e+06
   1.908556e+04   1.051344e+06
  -8.238602e+05   1.719973e+05
  -1.028527e+06  -8.194030e+05
  -2.934593e+05  -1.115906e+06
   7.516322e+05  -6.284234e+05
   1.105642e+06   1.124501e+05
   4.904277e+05   5.812807e+05
  -2.986548e+05   6.200476e+05
  -3.295595e+05   3.525772e+05
   3.230595e+05   3.549012e+04
   6.832450e+05  -2.284484e+04
   1.219691e+05   3.042107e+05
  -8.508169e+05   6.948247e+05
  -1.231721e+06   5.879403e+05
  -7.059679e+05  -1.386797e+05
   1.155051e+05  -8.605290e+05
   5.150381e+05  -8.380650e+05
   3.708700e+05  -1.077740e+05
   1.466021e+04   5.204919e+05
  -2.641975e+05   4.059285e+05
  -3.651805e+05  -2.150011e+05
  -2.436268e+05  -5.959712e+05
   7.807149e+04  -3.812256e+05
   3.979056e+05   7.711021e+04
   4.594442e+05   2.508774e+05
   2.442029e+05   6.324626e+04
  -1.511693e+02  -1.075674e+05
  -7.809520e+04   5.375444e+04
  -7.465244e+04   4.050608e+05
  -1.810459e+05   5.009162e+05
  -3.727938e+05   1.103473e+05
  -3.866804e+05  -4.698500e+05
  -4.493416e+04  -6.792127e+05
   4.536898e+05  -2.880391e+05
   6.372588e+05   3.363862e+05
   2.225293e+05   6.155613e+05
  -5.055674e+05   3.574836e+05
  -8.668005e+05  -1.173668e+05
  -4.670638e+05  -3.945638e+05
   3.077700e+05  -3.600673e+05
   6.428249e+05  -1.684952e+05
   2.093317e+05  -3.372652e+03
  -4.237680e+05   2.027028e+04
  -4.455476e+05  -1.365119e+05
   2.277117e+05  -3.388204e+05
   8.525768e+05  -2.703304e+05
