
 $NMID
 id='ANONYMOUS ', fmtdat='(2E16.6)'
 volume=1.0
 tramp=1.0
 $END
  -5.569407e+07  -2.474112e+06
  -3.200623e+07  -3.590088e+07
   8.960738e+06  -3.734773e+07
   2.789606e+07  -1.336659e+07
   1.603551e+07   7.561799e+06
  -3.628941e+06   9.092241e+06
  -9.681201e+06  -1.572207e+06
  -2.380993e+06  -9.773513e+06
   6.501432e+06  -9.026476e+06
   9.639071e+06  -1.604646e+06
   6.669258e+06   6.446524e+06
   4.392757e+05   8.574708e+06
  -4.079345e+06   2.541284e+06
  -2.382622e+06  -5.534443e+06
   4.005519e+06  -6.358820e+06
   7.743637e+06   1.642976e+06
   3.973183e+06   1.029711e+07
  -4.245002e+06   1.152654e+07
  -1.026015e+07   5.410343e+06
  -1.060498e+07  -2.510118e+06
  -6.208641e+06  -7.696332e+06
  -2.994192e+05  -8.562356e+06
   3.115455e+06  -5.840586e+06
   1.896011e+06  -2.606382e+06
  -1.035565e+06  -2.241619e+06
  -5.255133e+04  -4.192074e+06
   5.590821e+06  -4.122182e+06
   9.630385e+06  -4.939482e+04
   6.804297e+06   4.414397e+06
   2.149110e+03   5.027319e+06
  -3.830980e+06   2.367641e+06
  -2.454003e+06  -1.315090e+05
   6.915481e+05  -9.380281e+05
   2.343067e+06  -3.783338e+05
   2.132084e+06   1.565173e+06
   4.903757e+05   3.966544e+06
  -1.970203e+06   3.734797e+06
  -3.175606e+06  -2.684806e+05
  -1.506999e+06  -3.672197e+06
   8.515015e+05  -1.833512e+06
   2.111384e+05   2.491546e+06
  -2.553863e+06   2.198217e+06
  -2.301089e+06  -3.261908e+06
   2.636290e+06  -5.968620e+06
   6.885433e+06  -7.177041e+05
   4.758133e+06   7.056276e+06
  -2.244660e+06   8.345680e+06
  -7.453618e+06   2.071717e+06
  -6.718698e+06  -4.713559e+06
  -1.594644e+06  -6.079085e+06
   3.570523e+06  -2.564880e+06
   5.184843e+06   1.728433e+06
   2.288540e+06   3.568649e+06
  -2.475945e+06   2.087467e+06
  -4.453114e+06  -1.097431e+06
  -1.829479e+06  -2.774444e+06
   1.756913e+06  -1.286801e+06
   1.697271e+06   1.093405e+06
  -1.328603e+06   8.758485e+05
  -2.389184e+06  -1.803942e+06
   7.124232e+05  -3.357668e+06
   4.626578e+06  -1.699110e+06
   5.193371e+06   1.540557e+06
   2.138994e+06   4.027907e+06
  -2.029001e+06   5.150693e+06
  -5.215763e+06   4.591234e+06
  -6.243916e+06   1.450274e+06
  -4.402766e+06  -3.353422e+06
  -6.592749e+05  -6.186281e+06
   2.047965e+06  -4.680166e+06
   1.798748e+06  -1.173152e+06
   1.771961e+05   2.241448e+05
   6.378513e+04  -9.849605e+05
   1.718037e+06  -1.691758e+06
   2.832531e+06  -7.818287e+04
   1.932443e+06   2.054743e+06
  -9.284864e+04   2.166933e+06
  -1.591846e+06   1.308858e+05
  -1.601194e+06  -2.176222e+06
   1.342817e+05  -2.951093e+06
   2.848927e+06  -1.522740e+06
   4.407450e+06   1.402130e+06
   3.034527e+06   3.892729e+06
  -2.267730e+05   4.199094e+06
  -2.377942e+06   2.598558e+06
  -2.263626e+06   1.040956e+06
  -1.859251e+06   6.147082e+05
  -2.975000e+06   3.594617e+05
  -4.336070e+06  -9.544560e+05
  -3.381961e+06  -2.936818e+06
   5.542593e+04  -4.160880e+06
   3.410386e+06  -3.780537e+06
   4.305597e+06  -1.937660e+06
   2.653079e+06   5.554699e+05
   1.635915e+05   2.266633e+06
  -1.205046e+06   1.893427e+06
  -5.646809e+05  -6.453263e+04
   1.159761e+06  -1.268397e+06
   1.938259e+06  -3.147123e+05
   8.702201e+05   1.254433e+06
  -5.756307e+05   1.100543e+06
  -4.199968e+05  -4.122514e+05
   1.099889e+06  -6.650173e+05
   1.816385e+06   1.362516e+06
   5.111383e+05   3.534021e+06
  -1.739769e+06   3.379395e+06
  -3.214193e+06   1.000440e+06
  -3.282609e+06  -1.600135e+06
  -2.177979e+06  -2.896359e+06
  -3.373533e+05  -2.661995e+06
   1.323796e+06  -1.420752e+06
   1.605727e+06  -1.552202e+05
   4.962763e+05   6.937761e+04
  -3.267557e+05  -7.771321e+05
   4.799993e+05  -1.335823e+06
   1.954367e+06  -4.959758e+05
   2.014968e+06   9.919087e+05
   3.238601e+05   1.450353e+06
  -1.212305e+06   5.220484e+05
  -8.771035e+05  -5.038731e+05
   8.858009e+05  -4.851676e+05
   2.191934e+06   4.307327e+05
   1.698459e+06   1.458396e+06
  -3.481495e+05   1.982143e+06
  -2.415609e+06   1.562079e+06
  -2.820003e+06   1.439266e+05
  -1.172371e+06  -1.338838e+06
   1.000966e+06  -1.477600e+06
   1.588624e+06  -1.193279e+05
   1.533541e+05   1.103200e+06
  -1.570757e+06   6.741465e+05
  -1.702743e+06  -8.748869e+05
  -2.605056e+05  -1.690394e+06
   1.155005e+06  -9.348538e+05
   1.258012e+06   3.795644e+05
   2.089659e+05   8.044485e+05
  -8.107484e+05   1.622114e+04
  -6.959604e+05  -1.103212e+06
   6.512998e+05  -1.415783e+06
   2.060178e+06  -4.548770e+05
   2.013358e+06   1.160723e+06
   2.899576e+05   2.121545e+06
  -1.539364e+06   1.596270e+06
  -1.760440e+06   1.290356e+05
  -4.659715e+05  -9.051465e+05
   7.067787e+05  -7.812438e+05
   6.430375e+05  -4.725564e+04
  -1.401496e+05   3.555419e+05
  -5.055095e+05   1.827249e+05
  -1.145122e+05  -7.231195e+04
   4.544889e+05   1.046401e+05
   4.905686e+05   7.109578e+05
  -2.704263e+05   1.193978e+06
  -1.445645e+06   8.393715e+05
  -2.089590e+06  -5.208254e+05
  -1.391551e+06  -2.040183e+06
   3.353029e+05  -2.441817e+06
   1.703516e+06  -1.350458e+06
   1.702620e+06   2.114996e+05
   8.210805e+05   9.467304e+05
   2.885354e+05   6.689285e+05
   4.762418e+05   2.408801e+05
   6.244577e+05   3.491829e+05
   5.588157e+04   7.819250e+05
  -9.332852e+05   8.696632e+05
  -1.482376e+06   2.557111e+05
  -1.024503e+06  -7.823149e+05
   3.270116e+05  -1.462524e+06
   1.795974e+06  -9.998168e+05
   2.252007e+06   5.992355e+05
   1.044405e+06   2.182806e+06
  -1.140910e+06   2.348000e+06
  -2.628202e+06   9.193400e+05
  -2.347453e+06  -7.855383e+05
  -8.974730e+05  -1.402226e+06
   2.577611e+05  -9.425463e+05
   4.150446e+05  -4.931009e+05
   1.082508e+05  -7.598487e+05
   1.633318e+05  -1.323368e+06
   7.415404e+05  -1.276739e+06
   1.327906e+06  -2.625594e+05
   1.305140e+06   1.157137e+06
   4.751525e+05   1.945163e+06
  -6.970527e+05   1.426479e+06
  -1.301462e+06  -6.438991e+04
  -7.600552e+05  -1.341085e+06
   4.660524e+05  -1.395806e+06
   1.201406e+06  -3.504331e+05
   7.886045e+05   7.523597e+05
  -1.812880e+05   1.087519e+06
  -5.872072e+05   7.654135e+05
  -1.084766e+05   4.144974e+05
   4.247948e+05   3.591910e+05
   4.358866e+04   3.907578e+05
  -1.176305e+06   1.572943e+05
  -2.078008e+06  -4.361263e+05
  -1.589206e+06  -1.129415e+06
   1.112065e+05  -1.455063e+06
   1.669606e+06  -1.081766e+06
   1.870477e+06  -1.910871e+05
   8.189653e+05   5.465139e+05
  -2.941648e+05   5.672340e+05
  -5.217489e+05   7.088585e+03
  -1.349812e+04  -4.328441e+05
   4.584539e+05  -2.433188e+05
   4.735538e+05   3.685581e+05
   2.303364e+05   7.430013e+05
   8.159350e+04   4.899571e+05
   1.427272e+05  -8.515437e+04
   2.912636e+05  -2.776312e+05
   2.667638e+05   2.494028e+05
  -1.854742e+05   9.910833e+05
  -9.610181e+05   1.040164e+06
  -1.397360e+06   1.194791e+05
  -8.309134e+05  -9.659918e+05
   4.730438e+05  -1.143291e+06
   1.296172e+06  -2.926566e+05
   7.194833e+05   6.113300e+05
  -7.436884e+05   6.230034e+05
  -1.601055e+06  -1.757541e+05
  -9.667643e+05  -9.235483e+05
   5.455567e+05  -9.715235e+05
   1.537821e+06  -4.016440e+05
   1.231198e+06   2.579536e+05
   1.068707e+05   5.245821e+05
  -6.717629e+05   2.374782e+05
  -3.794207e+05  -3.194253e+05
   6.114563e+05  -5.097684e+05
   1.198368e+06   1.247649e+05
   6.418349e+05   1.223224e+06
  -6.575777e+05   1.708608e+06
  -1.537200e+06   8.453958e+05
  -1.243309e+06  -8.168920e+05
  -1.308238e+05  -1.823324e+06
   8.066419e+05  -1.272932e+06
   9.272731e+05   2.291472e+05
   3.743390e+05   1.228563e+06
  -2.786827e+05   9.642480e+05
  -5.775160e+05   5.405412e+04
  -4.458143e+05  -4.002091e+05
  -1.482811e+05  -1.418577e+05
  -5.771689e+04   9.053034e+04
  -2.875045e+05  -3.213116e+05
  -4.813214e+05  -1.006321e+06
  -1.320218e+05  -1.098165e+06
   7.589914e+05  -3.653563e+05
   1.473508e+06   5.345199e+05
   1.247620e+06   9.028360e+05
   1.554857e+05   7.197319e+05
  -8.700196e+05   3.920541e+05
  -1.000644e+06   1.381557e+05
  -3.750396e+05  -7.857729e+04
   1.515276e+05  -2.249701e+05
   6.130419e+04  -1.966757e+05
  -2.469773e+05  -9.504884e+04
  -5.352594e+04  -1.366822e+05
   6.611300e+05  -2.225995e+05
   1.065744e+06   4.670907e+04
   4.418910e+05   7.258219e+05
  -8.820559e+05   1.178104e+06
  -1.771087e+06   7.176095e+05
  -1.444454e+06  -4.820589e+05
  -2.351858e+05  -1.436348e+06
   8.377950e+05  -1.375638e+06
   1.088584e+06  -5.222662e+05
   6.552806e+05   2.481768e+05
   1.320013e+05   3.703916e+05
  -5.608600e+04   7.944880e+04
   8.906109e+04   1.575257e+03
   2.806248e+05   3.909866e+05
   2.119356e+05   8.301306e+05
  -2.027691e+05   6.890944e+05
  -6.847973e+05  -1.312909e+05
  -7.327720e+05  -9.788404e+05
  -1.074991e+05  -1.057322e+06
   7.615610e+05  -2.500254e+05
   1.036909e+06   7.471562e+05
   3.325555e+05   1.122263e+06
  -7.457492e+05   6.825926e+05
  -1.147188e+06  -1.081804e+05
  -5.318001e+05  -6.583730e+05
   3.184855e+05  -7.013585e+05
   4.184761e+05  -3.645968e+05
  -2.300989e+05  -7.490921e+03
  -6.563165e+05   2.181108e+04
  -1.459220e+05  -3.231386e+05
   8.625524e+05  -6.586989e+05
   1.316907e+06  -4.874937e+05
   7.899949e+05   2.258956e+05
  -1.262111e+05   8.898303e+05
  -6.111011e+05   8.595804e+05
  -4.622433e+05   1.650359e+05
  -5.155101e+04  -4.805440e+05
   2.542854e+05  -4.477250e+05
   3.534918e+05   1.404617e+05
   2.428743e+05   5.949484e+05
  -6.330477e+04   4.524164e+05
  -3.978093e+05  -4.887657e+04
  -4.808773e+05  -3.162018e+05
  -2.427465e+05  -1.192429e+05
   3.952305e+04   1.711789e+05
   8.059292e+04   8.123507e+04
  -3.145673e+04  -3.482877e+05
   2.771762e+04  -5.845910e+05
   3.205635e+05  -2.525362e+05
   4.848215e+05   3.764268e+05
   1.780800e+05   6.631173e+05
  -4.147179e+05   3.189750e+05
  -6.830661e+05  -2.912264e+05
  -2.525548e+05  -5.831457e+05
   5.345713e+05  -3.589695e+05
   9.096421e+05   9.487754e+04
   4.825243e+05   3.988700e+05
  -3.123090e+05   4.151522e+05
  -6.647225e+05   2.329481e+05
  -2.735005e+05   1.347078e+04
   3.304581e+05  -7.923876e+04
   4.046681e+05   5.075122e+04
  -1.580696e+05   2.772864e+05
  -7.304647e+05   2.571959e+05
