
 $NMID
 id='ANONYMOUS ', fmtdat='(2E16.6)'
 volume=1.0
 tramp=1.0
 $END
   3.437938e+07   2.439314e+06
   2.058668e+07   2.032007e+07
  -3.863637e+06   2.244482e+07
  -1.677561e+07   1.062249e+07
  -1.128418e+07  -2.247074e+06
   1.038389e+06  -5.958490e+06
   6.651075e+06  -7.320780e+05
   3.113405e+06   6.050688e+06
  -3.286658e+06   7.477668e+06
  -6.429117e+06   2.314678e+06
  -4.652259e+06  -4.506369e+06
  -1.378942e+05  -6.320156e+06
   3.015479e+06  -1.378496e+06
   1.790293e+06   4.858754e+06
  -2.593598e+06   5.422157e+06
  -5.334280e+06  -4.503557e+05
  -3.064759e+06  -6.794160e+06
   2.506214e+06  -7.804461e+06
   6.675840e+06  -3.405812e+06
   6.542728e+06   2.106824e+06
   3.104353e+06   4.944078e+06
  -3.492483e+05   4.520933e+06
  -1.140193e+06   2.818877e+06
   5.593448e+05   2.226950e+06
   1.657842e+06   3.330512e+06
  -7.308562e+05   4.215234e+06
  -5.412804e+06   2.597278e+06
  -7.611851e+06  -1.108940e+06
  -4.458341e+06  -3.837013e+06
   1.163919e+06  -3.367914e+06
   3.786272e+06  -7.206787e+05
   1.610924e+06   1.423141e+06
  -2.087263e+06   1.511028e+06
  -3.393820e+06  -2.443387e+05
  -1.729323e+06  -2.610494e+06
   7.420039e+05  -3.723641e+06
   1.928218e+06  -2.142463e+06
   1.328894e+06   1.037295e+06
  -5.536984e+04   2.343096e+06
  -5.524691e+05   5.032418e+04
   6.491821e+05  -2.818969e+06
   2.236272e+06  -1.981089e+06
   1.849029e+06   2.014206e+06
  -9.398947e+05   3.940339e+06
  -3.486925e+06   7.822362e+05
  -2.782407e+06  -4.073895e+06
   1.074237e+06  -5.092495e+06
   4.795767e+06  -1.266810e+06
   5.118156e+06   3.335068e+06
   1.721079e+06   4.658743e+06
  -2.637261e+06   2.398238e+06
  -4.443679e+06  -8.855251e+05
  -2.382104e+06  -2.563134e+06
   1.378056e+06  -1.721724e+06
   3.145329e+06   4.658055e+05
   1.520647e+06   1.738537e+06
  -1.114631e+06   9.153711e+05
  -1.536979e+06  -7.659821e+05
   4.016006e+05  -1.124698e+06
   1.817504e+06   2.563174e+05
   5.782672e+05   1.647975e+06
  -2.140473e+06   1.421312e+06
  -3.403773e+06  -3.220330e+05
  -1.725736e+06  -2.397448e+06
   1.740860e+06  -3.650413e+06
   4.532694e+06  -3.144030e+06
   4.856961e+06  -5.405490e+05
   2.779759e+06   2.904737e+06
   7.452965e+04   4.741473e+06
  -1.320183e+06   3.791785e+06
  -1.095394e+06   1.636469e+06
  -6.574033e+05   6.345690e+05
  -1.238944e+06   9.467110e+05
  -2.358887e+06   7.170255e+05
  -2.547065e+06  -9.612811e+05
  -1.201833e+06  -2.589534e+06
   7.840387e+05  -2.199119e+06
   1.976376e+06   1.518297e+05
   1.506320e+06   2.426787e+06
  -4.390512e+05   2.713795e+06
  -2.586039e+06   8.569295e+05
  -3.249240e+06  -1.664327e+06
  -1.812661e+06  -3.081998e+06
   4.254388e+05  -2.757242e+06
   1.567087e+06  -1.561992e+06
   1.355265e+06  -8.056410e+05
   1.343485e+06  -7.619276e+05
   2.553318e+06  -5.071357e+05
   3.779412e+06   7.547349e+05
   2.962695e+06   2.592341e+06
  -1.158067e+05   3.740474e+06
  -3.271513e+06   3.287425e+06
  -4.093205e+06   1.365319e+06
  -2.263913e+06  -9.285300e+05
   3.192291e+05  -2.129105e+06
   1.424748e+06  -1.471879e+06
   4.566046e+05   2.022036e+05
  -1.192839e+06   1.035750e+06
  -1.666389e+06   1.855883e+05
  -5.763368e+05  -1.081196e+06
   6.788267e+05  -9.781635e+05
   5.974156e+05   3.677808e+05
  -6.978310e+05   9.593319e+05
  -1.678781e+06  -4.712226e+05
  -1.125368e+06  -2.723804e+06
   7.470513e+05  -3.457167e+06
   2.682749e+06  -1.767360e+06
   3.424320e+06   1.027238e+06
   2.460599e+06   2.860848e+06
   3.768915e+05   2.735325e+06
  -1.362534e+06   1.283470e+06
  -1.538383e+06   2.730783e+03
  -4.522659e+05  -7.987732e+04
   2.867470e+05   7.102202e+05
  -3.763694e+05   1.118765e+06
  -1.615921e+06   4.043198e+05
  -1.741078e+06  -7.878202e+05
  -3.544805e+05  -1.212111e+06
   1.078407e+06  -5.021045e+05
   9.260677e+05   4.757649e+05
  -7.424890e+05   6.570340e+05
  -2.210320e+06  -1.868679e+05
  -1.865453e+06  -1.403580e+06
   2.137187e+05  -2.056453e+06
   2.305091e+06  -1.549528e+06
   2.628185e+06  -1.109558e+05
   1.025639e+06   1.170299e+06
  -8.782016e+05   1.194299e+06
  -1.292338e+06   4.805345e+04
  -3.406603e+04  -9.168814e+05
   1.414708e+06  -5.451508e+05
   1.553550e+06   7.671739e+05
   3.403984e+05   1.547113e+06
  -9.729944e+05   9.839083e+05
  -1.202185e+06  -2.034192e+05
  -3.104631e+05  -6.943105e+05
   6.560506e+05  -3.264312e+04
   5.704704e+05   9.949123e+05
  -6.676560e+05   1.242033e+06
  -1.899768e+06   3.033189e+05
  -1.773265e+06  -1.138633e+06
  -2.073163e+05  -1.918665e+06
   1.391047e+06  -1.419092e+06
   1.592993e+06  -1.320451e+05
   4.666471e+05   8.132547e+05
  -6.364708e+05   7.394746e+05
  -6.732815e+05   1.031737e+04
   7.997116e+04  -4.797971e+05
   6.035626e+05  -2.994135e+05
   3.445547e+05   1.343080e+05
  -3.075935e+05   1.179673e+05
  -5.223729e+05  -4.971686e+05
   1.502624e+05  -1.067600e+06
   1.300575e+06  -7.706615e+05
   1.899421e+06   5.058088e+05
   1.211969e+06   1.892938e+06
  -3.797579e+05   2.263393e+06
  -1.632189e+06   1.305891e+06
  -1.682582e+06  -1.630131e+05
  -8.914333e+05  -1.015631e+06
  -2.750825e+05  -8.886330e+05
  -2.784575e+05  -3.812817e+05
  -4.066812e+05  -2.596284e+05
  -1.823560e+04  -6.088710e+05
   8.287764e+05  -8.099056e+05
   1.409706e+06  -2.833314e+05
   1.040749e+06   7.873701e+05
  -2.719110e+05   1.482630e+06
  -1.702721e+06   9.721389e+05
  -2.115684e+06  -5.870158e+05
  -9.886316e+05  -2.015829e+06
   9.824252e+05  -2.132961e+06
   2.354490e+06  -8.783914e+05
   2.217567e+06   6.523459e+05
   9.824916e+05   1.327114e+06
  -1.742976e+05   1.035678e+06
  -5.267015e+05   5.824983e+05
  -3.305074e+05   6.552765e+05
  -2.782286e+05   1.070862e+06
  -6.713230e+05   1.058452e+06
  -1.158111e+06   1.784289e+05
  -1.134257e+06  -1.112737e+06
  -3.624753e+05  -1.810960e+06
   7.026963e+05  -1.291212e+06
   1.213396e+06   7.022900e+04
   7.064100e+05   1.196669e+06
  -3.643074e+05   1.271876e+06
  -1.009388e+06   4.235364e+05
  -7.099611e+05  -5.253005e+05
   5.641287e+04  -9.044072e+05
   4.001516e+05  -7.280513e+05
   5.181785e+04  -4.521455e+05
  -3.455476e+05  -3.760370e+05
  -6.811894e+03  -3.736386e+05
   1.031646e+06  -1.387752e+05
   1.822674e+06   4.178775e+05
   1.434875e+06   1.027716e+06
  -3.444674e+04   1.269584e+06
  -1.444237e+06   9.258546e+05
  -1.691773e+06   2.012513e+05
  -7.905090e+05  -3.946946e+05
   2.262162e+05  -4.556449e+05
   4.497343e+05  -5.103087e+04
  -3.371650e+04   3.124398e+05
  -4.709591e+05   1.800223e+05
  -4.073216e+05  -3.554119e+05
  -8.380894e+04  -7.093744e+05
   3.637597e+04  -4.503156e+05
  -1.530663e+05   1.425869e+05
  -3.640930e+05   3.253111e+05
  -2.589017e+05  -2.280493e+05
   2.553693e+05  -9.362176e+05
   9.103888e+05  -9.094586e+05
   1.164321e+06  -1.154164e+04
   6.148290e+05   9.072753e+05
  -4.623614e+05   9.427235e+05
  -1.123988e+06   1.366116e+05
  -6.232672e+05  -6.182972e+05
   6.813386e+05  -5.748033e+05
   1.524084e+06   1.593284e+05
   1.003860e+06   8.703713e+05
  -4.425388e+05   9.771368e+05
  -1.477503e+06   4.660399e+05
  -1.232356e+06  -2.103878e+05
  -1.334125e+05  -5.190087e+05
   6.219776e+05  -2.498180e+05
   3.111083e+05   2.712690e+05
  -6.249316e+05   3.949920e+05
  -1.084592e+06  -2.329685e+05
  -4.513809e+05  -1.182982e+06
   7.768385e+05  -1.503881e+06
   1.499470e+06  -6.485478e+05
   1.111762e+06   8.433154e+05
   3.529994e+04   1.720684e+06
  -8.057007e+05   1.208744e+06
  -8.816548e+05  -1.842902e+05
  -3.736754e+05  -1.156410e+06
   2.131241e+05  -9.481478e+05
   5.181510e+05  -7.015196e+04
   4.628661e+05   4.115440e+05
   2.009796e+05   1.689392e+05
   3.266181e+04  -1.075973e+05
   1.604311e+05   2.487035e+05
   3.755611e+05   9.295364e+05
   1.663586e+05   1.054776e+06
  -6.244114e+05   3.403833e+05
  -1.367348e+06  -5.576651e+05
  -1.210253e+06  -8.978861e+05
  -1.300403e+05  -6.602903e+05
   8.953707e+05  -3.146802e+05
   9.675527e+05  -1.143574e+05
   2.915665e+05   3.760541e+04
  -1.769731e+05   1.923728e+05
   1.369323e+04   2.330480e+05
   3.092699e+05   1.580472e+05
   8.419640e+03   1.304526e+05
  -7.156053e+05   1.316174e+05
  -9.725342e+05  -1.171927e+05
  -2.475488e+05  -6.622740e+05
   9.510865e+05  -9.876311e+05
   1.607492e+06  -5.247482e+05
   1.199800e+06   5.519864e+05
   1.126739e+05   1.354228e+06
  -8.144247e+05   1.208999e+06
  -1.024574e+06   3.718351e+05
  -6.022297e+05  -3.127675e+05
  -6.645025e+04  -3.433208e+05
   1.258945e+05  -8.904825e+03
  -6.139878e+04   5.796560e+04
  -2.862117e+05  -3.541953e+05
  -1.924065e+05  -7.836713e+05
   2.371986e+05  -6.075545e+05
   6.378727e+05   2.171582e+05
   5.703556e+05   9.952595e+05
  -4.870523e+04   9.632583e+05
  -7.597395e+05   1.032298e+05
  -8.843001e+05  -8.190248e+05
  -1.946943e+05  -1.044727e+06
   7.316869e+05  -5.288434e+05
   1.011531e+06   1.787161e+05
   4.174343e+05   5.731042e+05
  -3.154642e+05   5.567390e+05
  -3.345940e+05   3.066459e+05
   2.850574e+05   5.813000e+04
   6.273615e+05   2.879527e+04
   9.370702e+04   2.885189e+05
  -8.339519e+05   5.761938e+05
  -1.186262e+06   4.496667e+05
  -6.510071e+05  -1.800358e+05
   1.661236e+05  -7.858510e+05
   5.394536e+05  -7.410460e+05
   3.531051e+05  -8.275728e+04
  -2.229440e+04   4.740231e+05
  -2.683435e+05   3.574591e+05
  -3.154085e+05  -2.176894e+05
  -1.817614e+05  -5.648986e+05
   9.348798e+04  -3.501155e+05
   3.587193e+05   9.652631e+04
   4.099914e+05   2.673382e+05
   2.229472e+05   8.019118e+04
   6.216967e+02  -1.021027e+05
  -8.318067e+04   3.257509e+04
  -9.127128e+04   3.563834e+05
  -1.841070e+05   4.463337e+05
  -3.381941e+05   8.435856e+04
  -3.254919e+05  -4.457949e+05
  -3.822465e+03  -6.187787e+05
   4.323068e+05  -2.332261e+05
   5.633898e+05   3.477877e+05
   1.618641e+05   5.770590e+05
  -4.922677e+05   2.946061e+05
  -7.907904e+05  -1.647504e+05
  -4.029989e+05  -3.950899e+05
   3.056096e+05  -3.141655e+05
   6.010238e+05  -1.162364e+05
   1.975638e+05   7.272028e+03
  -3.797226e+05  -1.133130e+04
  -3.917098e+05  -1.518062e+05
   2.306080e+05  -2.863049e+05
   7.929987e+05  -1.805507e+05
