
 $NMID
 id='ANONYMOUS ', fmtdat='(2E16.6)'
 volume=1.0
 tramp=1.0
 $END
   4.192135e+07  -1.081891e+06
   2.661956e+07   2.380546e+07
  -3.448647e+06   2.811713e+07
  -1.971403e+07   1.310651e+07
  -1.318733e+07  -3.207115e+06
   1.444649e+06  -7.188254e+06
   7.674269e+06  -4.378731e+05
   3.345167e+06   7.118691e+06
  -3.811708e+06   8.243226e+06
  -7.346183e+06   2.588669e+06
  -5.728646e+06  -4.699735e+06
  -8.254916e+05  -6.997851e+06
   3.195171e+06  -2.065850e+06
   2.373209e+06   4.823929e+06
  -2.615020e+06   5.887521e+06
  -6.202452e+06  -3.992771e+05
  -3.990786e+06  -7.696113e+06
   2.367621e+06  -9.294512e+06
   7.544783e+06  -4.744143e+06
   8.121300e+06   1.543725e+06
   4.715484e+06   5.521263e+06
   4.155322e+05   5.974220e+06
  -1.548797e+06   4.080282e+06
  -2.285382e+05   2.357084e+06
   1.587646e+06   2.702422e+06
  -7.534682e+04   4.114061e+06
  -5.069300e+06   3.548179e+06
  -8.227476e+06   4.284071e+04
  -5.567574e+06  -3.520183e+06
   3.529069e+05  -3.968429e+06
   3.580084e+06  -1.639879e+06
   1.958156e+06   7.217920e+05
  -1.385367e+06   1.355398e+06
  -2.881785e+06   2.322448e+05
  -2.001701e+06  -1.976422e+06
  -6.009997e+04  -3.723020e+06
   1.663137e+06  -2.854524e+06
   2.064408e+06   5.357804e+05
   7.879611e+05   2.742546e+06
  -5.842420e+05   8.001903e+05
   8.632524e+04  -2.629280e+06
   2.133526e+06  -2.195411e+06
   2.175184e+06   2.283732e+06
  -1.194923e+06   4.756596e+06
  -4.657689e+06   1.131503e+06
  -3.903028e+06  -4.834366e+06
   9.841613e+05  -6.346367e+06
   5.569605e+06  -2.017464e+06
   5.908767e+06   3.320573e+06
   2.038047e+06   4.951125e+06
  -2.733837e+06   2.634349e+06
  -4.706206e+06  -8.163733e+05
  -2.513065e+06  -2.700438e+06
   1.621432e+06  -1.962390e+06
   3.626193e+06   4.071108e+05
   1.770308e+06   1.964273e+06
  -1.249724e+06   1.144552e+06
  -1.627006e+06  -7.467974e+05
   6.749085e+05  -1.060427e+06
   2.065920e+06   6.920998e+05
   2.476494e+05   2.272289e+06
  -2.930638e+06   1.747739e+06
  -4.075702e+06  -4.579922e+05
  -2.084770e+06  -2.816287e+06
   1.463000e+06  -4.278557e+06
   4.370428e+06  -3.998519e+06
   5.183957e+06  -1.310965e+06
   3.577670e+06   2.720031e+06
   7.238282e+05   5.142738e+06
  -1.238555e+06   4.159481e+06
  -1.227830e+06   1.518942e+06
  -4.318282e+05   3.140713e+05
  -6.680880e+05   9.885861e+05
  -1.949235e+06   1.238772e+06
  -2.623023e+06  -3.180287e+05
  -1.635400e+06  -2.186026e+06
   3.215054e+05  -2.159416e+06
   1.771249e+06  -1.026581e+05
   1.680191e+06   2.138817e+06
  -8.731918e+04   2.751933e+06
  -2.523599e+06   1.303846e+06
  -3.729018e+06  -1.218122e+06
  -2.508484e+06  -3.124026e+06
   6.736095e+04  -3.267493e+06
   1.678803e+06  -2.074450e+06
   1.599590e+06  -1.013773e+06
   1.452379e+06  -8.065072e+05
   2.610928e+06  -6.499082e+05
   3.955111e+06   4.954223e+05
   3.256758e+06   2.405904e+06
   2.185490e+05   3.804600e+06
  -2.957300e+06   3.646679e+06
  -3.931327e+06   1.877160e+06
  -2.409891e+06  -5.654390e+05
  -4.967240e+04  -2.129184e+06
   1.167968e+06  -1.697236e+06
   4.964843e+05   1.035386e+05
  -1.056791e+06   1.188964e+06
  -1.706065e+06   3.702964e+05
  -7.651810e+05  -1.062556e+06
   5.388927e+05  -1.046925e+06
   5.415475e+05   3.351476e+05
  -7.714660e+05   8.863933e+05
  -1.754685e+06  -6.701791e+05
  -1.095496e+06  -2.897481e+06
   8.470901e+05  -3.422570e+06
   2.704049e+06  -1.645791e+06
   3.371792e+06   9.596929e+05
   2.503888e+06   2.611043e+06
   5.613727e+05   2.600279e+06
  -1.202978e+06   1.405181e+06
  -1.514630e+06   1.846305e+05
  -4.622170e+05  -3.662007e+04
   3.520875e+05   6.924106e+05
  -3.110304e+05   1.205037e+06
  -1.667405e+06   5.670352e+05
  -1.867423e+06  -6.996262e+05
  -4.353403e+05  -1.244536e+06
   1.060631e+06  -5.846644e+05
   9.190223e+05   4.031227e+05
  -7.323538e+05   6.348373e+05
  -2.163749e+06  -1.047254e+05
  -1.858573e+06  -1.245440e+06
   1.023885e+05  -1.990335e+06
   2.161008e+06  -1.694060e+06
   2.618024e+06  -3.326502e+05
   1.150930e+06   1.117419e+06
  -7.977132e+05   1.343838e+06
  -1.364880e+06   1.859882e+05
  -1.579299e+05  -9.566841e+05
   1.388214e+06  -6.960854e+05
   1.631301e+06   6.608651e+05
   4.251550e+05   1.535431e+06
  -9.417366e+05   1.019100e+06
  -1.212172e+06  -1.710080e+05
  -3.199403e+05  -6.975100e+05
   6.963247e+05  -8.244989e+04
   6.853512e+05   9.597771e+05
  -5.385986e+05   1.326324e+06
  -1.878934e+06   5.083995e+05
  -1.906187e+06  -9.673667e+05
  -3.908806e+05  -1.923885e+06
   1.292046e+06  -1.561660e+06
   1.602609e+06  -2.572574e+05
   5.195564e+05   7.898158e+05
  -5.869070e+05   7.869115e+05
  -6.402660e+05   7.554948e+04
   6.839255e+04  -4.264260e+05
   5.291658e+05  -2.890060e+05
   2.532720e+05   8.790184e+04
  -3.550858e+05   5.734555e+04
  -5.418344e+05  -5.266001e+05
   1.046320e+05  -1.102564e+06
   1.257169e+06  -8.825154e+05
   1.959451e+06   3.417200e+05
   1.400757e+06   1.794958e+06
  -1.682749e+05   2.296222e+06
  -1.509828e+06   1.415776e+06
  -1.656632e+06  -4.537613e+04
  -9.147863e+05  -8.926254e+05
  -3.333519e+05  -7.551569e+05
  -3.722340e+05  -2.861570e+05
  -5.038612e+05  -2.470915e+05
  -8.664553e+04  -6.560227e+05
   7.801148e+05  -8.786321e+05
   1.376393e+06  -3.774510e+05
   1.065868e+06   6.818432e+05
  -1.704481e+05   1.455477e+06
  -1.613296e+06   1.091676e+06
  -2.154667e+06  -4.046090e+05
  -1.145783e+06  -1.944215e+06
   8.417698e+05  -2.238715e+06
   2.324107e+06  -1.063245e+06
   2.260771e+06   5.079799e+05
   1.027395e+06   1.245149e+06
  -1.247216e+05   9.863768e+05
  -4.258983e+05   5.677177e+05
  -1.790878e+05   6.947486e+05
  -1.323163e+05   1.156226e+06
  -5.887881e+05   1.168453e+06
  -1.174251e+06   3.029333e+05
  -1.257052e+06  -1.003339e+06
  -5.424393e+05  -1.779095e+06
   5.746255e+05  -1.361738e+06
   1.218440e+06  -3.198728e+04
   8.060074e+05   1.161810e+06
  -2.897915e+05   1.316223e+06
  -1.025371e+06   4.688633e+05
  -7.700366e+05  -5.406585e+05
   2.609151e+04  -9.592861e+05
   4.036512e+05  -7.602211e+05
   3.873739e+04  -4.306906e+05
  -3.952680e+05  -3.285946e+05
  -5.083837e+04  -3.675881e+05
   1.047028e+06  -2.280720e+05
   1.903558e+06   2.610183e+05
   1.538206e+06   9.202494e+05
   4.265531e+04   1.311497e+06
  -1.412880e+06   1.081603e+06
  -1.697964e+06   3.301872e+05
  -8.156285e+05  -3.801056e+05
   2.064703e+05  -5.064603e+05
   4.626885e+05  -7.023992e+04
   1.471946e+04   3.512365e+05
  -4.360050e+05   2.357187e+05
  -4.496522e+05  -3.160361e+05
  -1.952412e+05  -6.899149e+05
  -4.737953e+04  -4.511702e+05
  -1.356602e+05   1.275875e+05
  -3.016389e+05   3.230470e+05
  -2.732764e+05  -2.091908e+05
   1.454359e+05  -9.480133e+05
   8.280576e+05  -1.007580e+06
   1.217034e+06  -1.533418e+05
   7.547510e+05   8.479190e+05
  -3.720139e+05   1.030610e+06
  -1.142377e+06   2.879869e+05
  -6.909066e+05  -5.455374e+05
   6.395110e+05  -6.326423e+05
   1.523494e+06   3.944480e+04
   1.030458e+06   7.893718e+05
  -3.941555e+05   9.853650e+05
  -1.424889e+06   5.449956e+05
  -1.214849e+06  -1.269375e+05
  -1.598783e+05  -4.969604e+05
   6.046947e+05  -2.882435e+05
   3.519656e+05   2.554850e+05
  -5.665584e+05   4.767917e+05
  -1.112028e+06  -9.505995e+04
  -6.066640e+05  -1.122300e+06
   5.828631e+05  -1.596730e+06
   1.413084e+06  -8.251763e+05
   1.195970e+06   7.171063e+05
   2.096560e+05   1.705021e+06
  -6.863069e+05   1.262008e+06
  -8.903412e+05  -1.260604e+05
  -4.561766e+05  -1.122364e+06
   1.581280e+05  -9.465121e+05
   5.217121e+05  -1.045932e+05
   4.746207e+05   3.599313e+05
   1.867668e+05   1.399432e+05
   3.382774e+04  -1.013486e+05
   2.277373e+05   2.525288e+05
   4.815524e+05   8.995938e+05
   2.319989e+05   1.029948e+06
  -6.316752e+05   3.942837e+05
  -1.412226e+06  -4.220132e+05
  -1.260336e+06  -7.783674e+05
  -1.900395e+05  -6.534692e+05
   8.322636e+05  -4.046655e+05
   9.429384e+05  -1.970605e+05
   3.203658e+05   2.655986e+04
  -1.457301e+05   2.123762e+05
   7.116549e+02   2.139744e+05
   2.859657e+05   1.072039e+05
   3.627598e+04   1.267534e+05
  -6.600124e+05   2.170765e+05
  -9.875398e+05  -6.869473e+03
  -3.705150e+05  -6.412952e+05
   8.125200e+05  -1.105209e+06
   1.577017e+06  -7.167156e+05
   1.301340e+06   4.058233e+05
   2.660484e+05   1.333978e+06
  -6.995172e+05   1.303899e+06
  -9.854145e+05   5.023622e+05
  -6.276156e+05  -2.295490e+05
  -1.180193e+05  -3.363601e+05
   9.155375e+04  -4.333358e+04
  -6.825515e+04   3.890184e+04
  -3.048883e+05  -3.363558e+05
  -2.574203e+05  -7.636875e+05
   1.664635e+05  -6.392174e+05
   6.515719e+05   1.258587e+05
   6.944202e+05   9.096213e+05
   9.243266e+04   9.701657e+05
  -7.249425e+05   2.168921e+05
  -9.796200e+05  -6.926507e+05
  -3.274170e+05  -1.024566e+06
   6.690202e+05  -6.313504e+05
   1.046771e+06   6.190845e+04
   4.982008e+05   5.530368e+05
  -2.585697e+05   6.220600e+05
  -3.316737e+05   3.499052e+05
   2.579244e+05   1.662078e+04
   6.209698e+05  -4.183375e+04
   1.352656e+05   2.844354e+05
  -7.731535e+05   6.580253e+05
  -1.166872e+06   5.490860e+05
  -7.025078e+05  -1.366711e+05
   8.050210e+04  -8.153751e+05
   4.896568e+05  -8.109806e+05
   3.759811e+05  -1.443275e+05
   4.438819e+04   4.618383e+05
  -2.237772e+05   4.028600e+05
  -3.351926e+05  -1.552038e+05
  -2.456266e+05  -5.439192e+05
   4.773863e+04  -3.861809e+05
   3.693882e+05   4.567349e+04
   4.486953e+05   2.440866e+05
   2.320682e+05   7.501922e+04
  -2.574802e+04  -1.246676e+05
  -8.170031e+04  -6.468320e+03
  -1.324489e+04   3.453310e+05
  -7.753897e+04   4.958216e+05
  -3.084719e+05   1.733262e+05
  -4.104578e+05  -3.743351e+05
  -1.217611e+05  -6.112770e+05
   3.915264e+05  -2.930554e+05
   6.189197e+05   2.671443e+05
   2.378813e+05   5.467572e+05
  -4.692370e+05   3.513391e+05
  -8.247153e+05  -6.646810e+04
  -4.534733e+05  -3.507598e+05
   2.710700e+05  -3.687133e+05
   5.951059e+05  -2.078209e+05
   2.213300e+05  -1.938881e+04
  -3.469598e+05   5.203759e+04
  -3.934371e+05  -7.696286e+04
   1.737205e+05  -2.897172e+05
   7.288045e+05  -2.646569e+05
