
 $NMID
 id='ANONYMOUS ', fmtdat='(2E16.6)'
 volume=1.0
 tramp=1.0
 $END
  -3.398695e+07  -2.691594e+04
  -2.127541e+07  -1.897663e+07
   2.719741e+06  -2.234359e+07
   1.577826e+07  -1.102720e+07
   1.084656e+07   1.890831e+06
  -8.510196e+05   5.795000e+06
  -6.268529e+06   8.473231e+05
  -3.126193e+06  -5.658683e+06
   2.796100e+06  -7.147840e+06
   6.009163e+06  -2.451866e+06
   4.784141e+06   3.998804e+06
   6.212622e+05   6.008164e+06
  -2.784678e+06   1.613595e+06
  -2.079065e+06  -4.357610e+06
   2.103754e+06  -5.205251e+06
   5.134983e+06   1.853893e+05
   3.347735e+06   6.367546e+06
  -1.955495e+06   7.693282e+06
  -6.277969e+06   3.779736e+06
  -6.597291e+06  -1.544645e+06
  -3.521031e+06  -4.661225e+06
  -1.308661e+04  -4.643744e+06
   1.132562e+06  -2.961160e+06
  -3.826432e+05  -1.949740e+06
  -1.736247e+06  -2.737627e+06
   2.208658e+05  -3.907140e+06
   4.765830e+06  -2.982754e+06
   7.279008e+06   2.975026e+05
   4.631314e+06   3.252090e+06
  -6.831751e+05   3.387296e+06
  -3.428241e+06   1.166107e+06
  -1.719666e+06  -1.025646e+06
   1.582726e+06  -1.516220e+06
   2.993027e+06  -1.659391e+05
   1.868646e+06   2.113870e+06
  -2.217377e+05   3.511530e+06
  -1.627217e+06   2.298922e+06
  -1.541328e+06  -7.929288e+05
  -2.938937e+05  -2.339208e+06
   5.873752e+05  -2.980218e+05
  -2.424700e+05   2.598942e+06
  -1.912340e+06   1.999924e+06
  -1.862934e+06  -1.839407e+06
   7.938037e+05  -3.847117e+06
   3.509146e+06  -8.866063e+05
   3.009245e+06   3.888194e+06
  -7.963008e+05   5.067827e+06
  -4.594601e+06   1.561388e+06
  -5.071996e+06  -2.820583e+06
  -1.888375e+06  -4.254966e+06
   2.312677e+06  -2.387174e+06
   4.170713e+06   5.601771e+05
   2.334931e+06   2.247942e+06
  -1.248823e+06   1.688452e+06
  -3.031644e+06  -2.767191e+05
  -1.532363e+06  -1.585111e+06
   1.022667e+06  -9.484523e+05
   1.468406e+06   6.112837e+05
  -3.739870e+05   9.952933e+05
  -1.692318e+06  -2.855271e+05
  -4.540085e+05  -1.613627e+06
   2.134149e+06  -1.424251e+06
   3.296607e+06   2.128247e+05
   1.765431e+06   2.244173e+06
  -1.360784e+06   3.631861e+06
  -3.984172e+06   3.383934e+06
  -4.561634e+06   9.596071e+05
  -2.946947e+06  -2.511795e+06
  -4.871027e+05  -4.491813e+06
   9.994590e+05  -3.638360e+06
   9.308869e+05  -1.500988e+06
   4.624214e+05  -5.424311e+05
   9.074093e+05  -1.001267e+06
   2.034226e+06  -9.812733e+05
   2.456551e+06   5.458341e+05
   1.409241e+06   2.207973e+06
  -4.442676e+05   2.077328e+06
  -1.767323e+06   7.197337e+04
  -1.586829e+06  -2.049743e+06
   1.437696e+05  -2.537239e+06
   2.328168e+06  -1.064563e+06
   3.235683e+06   1.245661e+06
   2.024234e+06   2.783995e+06
  -1.781250e+05   2.719825e+06
  -1.424249e+06   1.649071e+06
  -1.282214e+06   8.444712e+05
  -1.215460e+06   7.688846e+05
  -2.322875e+06   6.396832e+05
  -3.554798e+06  -4.153663e+05
  -2.943930e+06  -2.163956e+06
  -1.977969e+05  -3.457810e+06
   2.730939e+06  -3.309411e+06
   3.646416e+06  -1.640288e+06
   2.190115e+06   6.218568e+05
  -5.940683e+04   1.989936e+06
  -1.157038e+06   1.512153e+06
  -4.479509e+05  -1.311505e+05
   9.994815e+05  -1.067323e+06
   1.532993e+06  -3.142030e+05
   6.430743e+05   9.626838e+05
  -5.248638e+05   9.618598e+05
  -5.485832e+05  -2.833967e+05
   5.933539e+05  -8.792532e+05
   1.550901e+06   4.019420e+05
   1.146793e+06   2.459102e+06
  -5.102939e+05   3.160163e+06
  -2.330468e+06   1.716617e+06
  -3.159512e+06  -7.150435e+05
  -2.435277e+06  -2.389751e+06
  -5.654115e+05  -2.442080e+06
   1.130795e+06  -1.295790e+06
   1.409412e+06  -1.464422e+05
   4.231143e+05   3.499998e+04
  -3.214449e+05  -6.299039e+05
   2.682695e+05  -1.068972e+06
   1.476406e+06  -5.010420e+05
   1.671683e+06   6.034845e+05
   4.112052e+05   1.097416e+06
  -9.528336e+05   5.423229e+05
  -8.716031e+05  -3.567623e+05
   6.324267e+05  -6.310535e+05
   2.011731e+06   1.738254e+04
   1.786609e+06   1.121946e+06
  -3.861886e+04   1.870898e+06
  -1.978261e+06   1.594767e+06
  -2.400801e+06   3.161588e+05
  -1.040652e+06  -1.001998e+06
   7.214278e+05  -1.187112e+06
   1.206775e+06  -1.505170e+05
   1.155901e+05   8.549097e+05
  -1.261377e+06   6.222658e+05
  -1.487935e+06  -5.852755e+05
  -4.230155e+05  -1.390493e+06
   8.215783e+05  -9.617478e+05
   1.108556e+06   1.077614e+05
   3.233972e+05   6.135279e+05
  -6.101407e+05   7.590344e+04
  -6.104653e+05  -8.732078e+05
   5.078675e+05  -1.203350e+06
   1.723720e+06  -4.446366e+05
   1.731802e+06   8.976620e+05
   3.502858e+05   1.751579e+06
  -1.168721e+06   1.420034e+06
  -1.455196e+06   2.465997e+05
  -4.882578e+05  -7.098270e+05
   5.255955e+05  -7.262446e+05
   6.068639e+05  -7.087507e+04
  -3.687970e+04   4.240380e+05
  -5.073580e+05   3.094528e+05
  -2.970016e+05  -7.905595e+04
   2.811718e+05  -1.002312e+05
   5.047252e+05   4.341145e+05
  -6.752708e+04   9.935944e+05
  -1.137452e+06   8.104805e+05
  -1.788719e+06  -3.107006e+05
  -1.273478e+06  -1.642200e+06
   1.580009e+05  -2.109280e+06
   1.383694e+06  -1.323653e+06
   1.541961e+06   1.526249e+04
   8.873966e+05   8.376180e+05
   3.324055e+05   7.578034e+05
   3.131728e+05   3.127106e+05
   4.143291e+05   2.206030e+05
   6.556002e+04   5.742856e+05
  -7.009599e+05   8.079576e+05
  -1.265257e+06   3.673874e+05
  -1.008264e+06  -6.287077e+05
   1.311063e+05  -1.364674e+06
   1.478453e+06  -1.023146e+06
   1.985391e+06   3.645700e+05
   1.064950e+06   1.770425e+06
  -7.421440e+05   2.038059e+06
  -2.099303e+06   9.877564e+05
  -2.078232e+06  -4.292613e+05
  -9.887031e+05  -1.129627e+06
   7.972672e+04  -9.403226e+05
   4.134378e+05  -5.650392e+05
   2.221315e+05  -6.422496e+05
   1.581946e+05  -1.029747e+06
   5.375495e+05  -1.040692e+06
   1.059971e+06  -2.623842e+05
   1.140922e+06   9.273310e+05
   4.880087e+05   1.633876e+06
  -5.347855e+05   1.246715e+06
  -1.117913e+06   3.431520e+04
  -7.416959e+05  -1.047206e+06
   2.421320e+05  -1.196278e+06
   9.021865e+05  -4.524068e+05
   6.897903e+05   4.486785e+05
   2.011574e+03   8.438128e+05
  -3.272488e+05   6.920345e+05
  -1.518110e+04   4.080923e+05
   3.552471e+05   3.136169e+05
   4.097334e+04   3.422457e+05
  -9.436411e+05   2.085821e+05
  -1.719923e+06  -2.398471e+05
  -1.402771e+06  -8.320588e+05
  -5.775947e+04  -1.175147e+06
   1.267319e+06  -9.710660e+05
   1.540344e+06  -3.153272e+05
   7.483348e+05   3.123598e+05
  -1.798765e+05   4.437210e+05
  -4.114427e+05   7.562418e+04
   3.020487e+03  -3.031654e+05
   4.133774e+05  -2.109722e+05
   4.071052e+05   2.927928e+05
   1.518185e+05   6.463825e+05
   1.748686e+04   4.207599e+05
   1.240811e+05  -1.354505e+05
   2.931743e+05  -3.218076e+05
   2.540110e+05   1.890493e+05
  -1.480845e+05   8.804176e+05
  -7.623155e+05   9.149046e+05
  -1.088449e+06   1.115405e+05
  -6.575846e+05  -7.876058e+05
   3.501290e+05  -9.182674e+05
   1.035716e+06  -2.302136e+05
   6.291210e+05   5.121763e+05
  -5.802472e+05   5.820412e+05
  -1.405672e+06  -2.308622e+04
  -9.769487e+05  -7.123144e+05
   3.333609e+05  -9.194792e+05
   1.307845e+06  -5.353156e+05
   1.134219e+06   9.485602e+04
   1.605802e+05   4.597991e+05
  -5.494531e+05   2.749028e+05
  -3.113875e+05  -2.287381e+05
   5.369201e+05  -4.246919e+05
   1.021427e+06   1.124179e+05
   5.296393e+05   1.048000e+06
  -5.730392e+05   1.458796e+06
  -1.318901e+06   7.358933e+05
  -1.096222e+06  -6.747067e+05
  -1.827923e+05  -1.574996e+06
   6.336152e+05  -1.171804e+06
   8.195721e+05   1.014654e+05
   4.323631e+05   1.027640e+06
  -1.237115e+05   8.777754e+05
  -4.712392e+05   1.023117e+05
  -4.523733e+05  -3.332573e+05
  -1.907473e+05  -1.314381e+05
  -2.314784e+04   9.738480e+04
  -1.792601e+05  -2.259155e+05
  -4.281670e+05  -8.257320e+05
  -2.326210e+05  -9.476057e+05
   5.559955e+05  -3.589496e+05
   1.301189e+06   3.937663e+05
   1.177316e+06   7.166648e+05
   1.737266e+05   5.968705e+05
  -7.862897e+05   3.702926e+05
  -8.736853e+05   1.856801e+05
  -2.766435e+05  -1.804274e+04
   1.426201e+05  -1.942263e+05
  -2.382295e+04  -2.033160e+05
  -2.882624e+05  -1.079493e+05
  -2.363939e+04  -1.201024e+05
   6.351765e+05  -1.918199e+05
   9.063741e+05   2.050771e+04
   3.012409e+05   5.953678e+05
  -7.796583e+05   1.001153e+06
  -1.442624e+06   6.274310e+05
  -1.167468e+06  -4.017218e+05
  -2.266348e+05  -1.234382e+06
   6.480071e+05  -1.184533e+06
   9.124906e+05  -4.385315e+05
   5.812871e+05   2.280283e+05
   9.575163e+04   3.117820e+05
  -1.074462e+05   2.965574e+04
   5.224643e+04  -4.934288e+04
   2.870486e+05   3.021531e+05
   2.401932e+05   7.017124e+05
  -1.636095e+05   5.822436e+05
  -6.056685e+05  -1.353716e+05
  -6.206800e+05  -8.597626e+05
  -5.156602e+04  -8.954413e+05
   6.864228e+05  -1.747265e+05
   8.918981e+05   6.666509e+05
   2.775318e+05   9.466247e+05
  -6.275622e+05   5.591114e+05
  -9.521967e+05  -7.461228e+04
  -4.373517e+05  -5.002673e+05
   2.458477e+05  -5.491478e+05
   2.907214e+05  -3.100749e+05
  -2.586420e+05  -2.086894e+04
  -5.772415e+05   3.101362e+04
  -1.141748e+05  -2.602941e+05
   7.156614e+05  -6.012271e+05
   1.056915e+06  -5.063982e+05
   6.213379e+05   1.200990e+05
  -8.443086e+04   7.412952e+05
  -4.413355e+05   7.293851e+05
  -3.301081e+05   1.106284e+05
  -2.794139e+04  -4.355619e+05
   2.154722e+05  -3.583530e+05
   3.118112e+05   1.632769e+05
   2.182450e+05   5.035793e+05
  -5.578488e+04   3.392546e+05
  -3.401045e+05  -5.338807e+04
  -4.012745e+05  -2.172363e+05
  -2.100669e+05  -5.984531e+04
   1.036275e+04   1.026877e+05
   6.840123e+04  -2.248053e+04
   3.784842e+04  -3.344039e+05
   1.157210e+05  -4.430524e+05
   3.038014e+05  -1.260339e+05
   3.545571e+05   3.747668e+05
   7.469512e+04   5.730411e+05
  -3.739702e+05   2.587314e+05
  -5.569938e+05  -2.663133e+05
  -2.056846e+05  -5.143726e+05
   4.299557e+05  -3.146010e+05
   7.485819e+05   7.966403e+04
   4.081871e+05   3.285183e+05
  -2.557723e+05   3.226966e+05
  -5.478982e+05   1.674682e+05
  -1.900730e+05   9.659366e+03
   3.426691e+05  -3.413542e+04
   3.732935e+05   9.325167e+04
  -1.762607e+05   2.804079e+05
  -6.997605e+05   2.412897e+05
