
 $NMID
 id='ANONYMOUS ', fmtdat='(2E16.6)'
 volume=1.0
 tramp=1.0
 $END
  -5.201834e+06  -1.340490e+06
  -1.918101e+06  -4.046207e+06
   1.822615e+06  -3.116138e+06
   2.622514e+06  -4.059208e+05
   9.323400e+05   1.068213e+06
  -5.834090e+05   5.965906e+05
  -6.120882e+05  -4.066437e+05
   1.143410e+05  -7.628531e+05
   6.296077e+05  -4.632294e+05
   7.345160e+05   1.048505e+05
   4.980568e+05   6.346761e+05
  -1.297837e+04   7.367519e+05
  -4.143143e+05   2.198033e+05
  -2.442368e+05  -4.132738e+05
   3.229307e+05  -4.000422e+05
   5.723570e+05   2.961675e+05
   1.515705e+05   9.309029e+05
  -5.657312e+05   9.079631e+05
  -1.028136e+06   3.167065e+05
  -9.912519e+05  -4.137756e+05
  -4.894845e+05  -9.120742e+05
   2.010226e+05  -9.189901e+05
   5.640686e+05  -4.440230e+05
   2.936408e+05   4.828789e+04
  -1.945467e+05   4.075240e+04
  -1.639690e+05  -3.502969e+05
   4.455209e+05  -4.855014e+05
   8.933737e+05  -8.162192e+04
   6.434610e+05   4.364316e+05
   1.412244e+04   5.790587e+05
  -3.799324e+05   3.593571e+05
  -3.720002e+05   5.104807e+04
  -1.534044e+05  -1.916989e+05
   1.280305e+05  -2.480613e+05
   3.218081e+05   1.344258e+04
   1.901934e+05   3.979698e+05
  -2.244529e+05   3.981497e+05
  -4.375356e+05  -9.748130e+04
  -1.467041e+05  -4.796137e+05
   2.408774e+05  -2.388462e+05
   1.757703e+05   2.252118e+05
  -1.588640e+05   1.767565e+05
  -1.098184e+05  -3.007513e+05
   3.946802e+05  -3.962868e+05
   6.721657e+05   1.947840e+05
   2.695307e+05   7.935481e+05
  -4.158726e+05   6.927459e+05
  -7.193974e+05   5.686970e+04
  -4.947718e+05  -4.328622e+05
  -6.584528e+04  -4.398420e+05
   2.564917e+05  -1.477050e+05
   3.245612e+05   1.402543e+05
   1.014214e+05   2.380074e+05
  -2.352527e+05   8.874016e+04
  -3.328573e+05  -1.670621e+05
  -8.213329e+04  -2.480861e+05
   1.737362e+05  -7.546529e+04
   1.058556e+05   7.353735e+04
  -1.067910e+05  -4.140364e+04
  -5.650773e+04  -2.449904e+05
   2.661180e+05  -2.106954e+05
   4.766308e+05   5.306434e+04
   3.589752e+05   2.788151e+05
   7.026078e+04   3.776597e+05
  -2.039659e+05   4.528007e+05
  -4.408924e+05   4.416322e+05
  -5.706441e+05   1.454423e+05
  -4.275890e+05  -3.310111e+05
  -6.233708e+04  -5.521574e+05
   1.797435e+05  -3.248865e+05
   8.639439e+04   2.930180e+03
  -1.210953e+05   2.130166e+04
  -1.061946e+05  -2.025049e+05
   1.315385e+05  -2.960883e+05
   3.183707e+05  -1.183148e+05
   2.872910e+05   1.270569e+05
   1.016248e+05   2.153370e+05
  -9.950177e+04   1.113288e+05
  -1.867893e+05  -9.088566e+04
  -5.584370e+04  -2.416102e+05
   2.408277e+05  -1.824541e+05
   4.288571e+05   9.968294e+04
   2.811464e+05   3.781587e+05
  -6.865600e+04   4.033564e+05
  -2.719155e+05   2.044529e+05
  -2.155285e+05   3.064003e+04
  -1.252544e+05   1.029303e+04
  -1.937154e+05   3.099114e+04
  -3.137911e+05  -3.945889e+04
  -2.723665e+05  -1.810117e+05
  -4.870487e+04  -3.015404e+05
   1.940282e+05  -3.378975e+05
   3.075524e+05  -2.407747e+05
   2.524054e+05  -1.040347e+04
   8.422744e+04   2.047891e+05
  -6.347322e+04   2.044899e+05
  -6.116829e+04   6.990901e+03
   6.784098e+04  -1.281558e+05
   1.503193e+05  -4.282871e+04
   8.615639e+04   1.061030e+05
  -1.700466e+04   1.035343e+05
  -1.690356e+04   7.084374e+02
   5.096289e+04   2.358199e+03
   5.293247e+04   1.288195e+05
  -2.804087e+04   2.015060e+05
  -9.932193e+04   1.306728e+05
  -1.307158e+05   1.552055e+04
  -1.649261e+05  -5.251616e+04
  -1.769810e+05  -1.009375e+05
  -8.802461e+04  -1.485014e+05
   6.283579e+04  -1.346757e+05
   1.197424e+05  -5.084758e+04
   3.724932e+04  -2.834284e+03
  -3.377457e+04  -5.104009e+04
   3.251024e+04  -9.972604e+04
   1.480280e+05  -4.408464e+04
   1.467873e+05   6.339814e+04
   2.361030e+04   9.853098e+04
  -7.686043e+04   4.671541e+04
  -5.963291e+04  -8.018555e+03
   3.556595e+04  -2.108354e+04
   1.176523e+05  -6.907003e+03
   1.207569e+05   3.702274e+04
   2.212351e+04   1.108404e+05
  -1.252351e+05   1.417833e+05
  -1.919522e+05   5.444636e+04
  -9.613034e+04  -8.691488e+04
   7.101812e+04  -1.234416e+05
   1.280580e+05  -1.528082e+04
   2.270690e+04   9.395352e+04
  -1.099787e+05   7.044330e+04
  -1.259723e+05  -4.122204e+04
  -3.241195e+04  -1.017913e+05
   5.938220e+04  -6.023744e+04
   7.153858e+04   1.508396e+04
   1.088563e+04   4.256383e+04
  -6.077205e+04   6.300923e+02
  -6.650700e+04  -7.605336e+04
   2.684055e+04  -1.193065e+05
   1.485766e+05  -6.945423e+04
   1.690834e+05   5.564723e+04
   5.010834e+04   1.515194e+05
  -9.160429e+04   1.320849e+05
  -1.198878e+05   2.899764e+04
  -3.923559e+04  -5.309158e+04
   3.668855e+04  -6.033068e+04
   4.116411e+04  -2.403799e+04
   9.085855e+03   9.038498e+03
  -6.403813e+03   2.547978e+04
   1.789167e+03   2.953279e+04
   1.651498e+04   3.025361e+04
   1.999401e+04   4.603333e+04
  -1.320288e+04   7.693764e+04
  -9.029553e+04   7.460705e+04
  -1.559600e+05  -7.417547e+03
  -1.312627e+05  -1.277831e+05
  -1.824969e+04  -1.796122e+05
   8.616483e+04  -1.190453e+05
   1.073594e+05  -1.995523e+04
   7.562445e+04   2.674647e+04
   5.986511e+04   1.953800e+04
   6.701030e+04   1.589600e+04
   5.384171e+04   3.949080e+04
   4.611924e+03   6.542000e+04
  -5.323824e+04   6.859579e+04
  -8.926442e+04   3.984814e+04
  -8.155514e+04  -2.286470e+04
  -1.146617e+04  -9.113766e+04
   9.971376e+04  -9.555653e+04
   1.640484e+05   2.114775e+03
   1.009005e+05   1.320123e+05
  -5.439808e+04   1.718665e+05
  -1.694078e+05   8.983522e+04
  -1.598377e+05  -2.040332e+04
  -7.321228e+04  -6.313619e+04
  -9.839284e+03  -4.805558e+04
  -4.439296e+03  -4.635094e+04
  -1.604680e+04  -8.385584e+04
  -1.458096e+02  -1.195447e+05
   4.762119e+04  -1.059473e+05
   1.000206e+05  -3.405471e+04
   1.166186e+05   6.549470e+04
   6.794202e+04   1.342815e+05
  -2.590063e+04   1.165932e+05
  -9.053715e+04   1.628437e+04
  -6.607960e+04  -8.389076e+04
   1.920026e+04  -9.608271e+04
   7.370041e+04  -2.182658e+04
   4.671607e+04   5.567695e+04
  -1.708983e+04   7.217172e+04
  -3.801176e+04   4.285310e+04
   2.660328e+03   1.897991e+04
   4.299439e+04   2.044211e+04
   1.267497e+04   2.898432e+04
  -8.338533e+04   2.180511e+04
  -1.579611e+05  -1.011738e+04
  -1.258959e+05  -5.973305e+04
   7.312950e+02  -9.933889e+04
   1.151170e+05  -9.248146e+04
   1.254747e+05  -3.371241e+04
   4.862260e+04   3.047709e+04
  -2.346463e+04   4.318001e+04
  -3.304659e+04   7.722517e+02
  -6.795284e+02  -4.155839e+04
   2.933559e+04  -3.214138e+04
   4.175742e+04   2.076983e+04
   3.911753e+04   6.062599e+04
   2.104711e+04   4.543485e+04
  -4.789082e+02  -5.334045e+03
   6.469222e+02  -2.880359e+04
   2.066814e+04   1.195596e+04
   1.048656e+04   7.862649e+04
  -5.510568e+04   9.172514e+04
  -1.153369e+05   2.140885e+04
  -8.444044e+04  -7.071299e+04
   2.711765e+04  -9.691593e+04
   1.057456e+05  -4.060976e+04
   6.742862e+04   3.217311e+04
  -4.257534e+04   5.271737e+04
  -1.083465e+05   1.578853e+04
  -7.278313e+04  -3.536810e+04
   1.911638e+04  -6.107895e+04
   8.427202e+04  -4.863968e+04
   7.745083e+04  -8.675568e+03
   1.607177e+04   2.775486e+04
  -3.906227e+04   2.366517e+04
  -3.093211e+04  -2.288152e+04
   3.867002e+04  -5.654279e+04
   9.922865e+04  -1.519416e+04
   7.862665e+04   8.680487e+04
  -1.598691e+04   1.517842e+05
  -1.022774e+05   9.936734e+04
  -1.099328e+05  -3.551583e+04
  -4.587772e+04  -1.300720e+05
   2.858235e+04  -1.031609e+05
   6.172861e+04   1.701542e+03
   4.352789e+04   7.397988e+04
  -2.179320e+03   6.053023e+04
  -3.770410e+04   8.643227e+03
  -3.712038e+04  -1.193222e+04
  -1.155832e+04   2.690733e+03
  -1.531472e+03   2.777320e+03
  -2.699339e+04  -3.375599e+04
  -5.275585e+04  -7.004944e+04
  -2.589168e+04  -6.514756e+04
   5.247242e+04  -2.685126e+04
   1.154879e+05   9.887146e+03
   1.012409e+05   3.242816e+04
   2.149086e+04   4.901770e+04
  -5.231085e+04   5.354024e+04
  -6.475953e+04   2.977229e+04
  -2.709539e+04  -9.052649e+03
   6.065494e+03  -2.302846e+04
   9.855687e+02  -2.252131e+03
  -2.003950e+04   1.182525e+04
  -9.331530e+03  -1.299808e+04
   4.244271e+04  -4.254771e+04
   8.317003e+04  -1.644487e+04
   5.227129e+04   6.252830e+04
  -4.454440e+04   1.168673e+05
  -1.292366e+05   8.200651e+04
  -1.286484e+05  -1.950760e+04
  -4.796718e+04  -1.049540e+05
   4.167774e+04  -1.157509e+05
   7.836979e+04  -6.219923e+04
   5.831476e+04   1.468837e+03
   1.882709e+04   2.979364e+04
  -4.328772e+03   1.980074e+04
   9.318689e+02   5.868496e+03
   2.192588e+04   2.023706e+04
   2.859568e+04   5.296411e+04
  -3.497971e+03   5.814387e+04
  -5.943357e+04   8.876747e+03
  -8.299590e+04  -6.176454e+04
  -3.248196e+04  -8.898838e+04
   5.890610e+04  -4.444624e+04
   1.022830e+05   3.478196e+04
   4.854153e+04   8.445790e+04
  -4.969007e+04   7.030405e+04
  -9.299202e+04   9.610097e+03
  -4.761641e+04  -4.874136e+04
   2.060192e+04  -6.220247e+04
   3.100593e+04  -2.737718e+04
  -1.607942e+04   1.509722e+04
  -4.864269e+04   1.712813e+04
  -1.668587e+04  -2.555406e+04
   5.051507e+04  -6.426399e+04
   8.574048e+04  -4.881395e+04
   6.023825e+04   1.547291e+04
   3.780646e+03   7.130346e+04
  -3.764214e+04   6.891400e+04
  -4.309198e+04   1.488235e+04
  -1.931952e+04  -3.787031e+04
   1.485566e+04  -4.254621e+04
   3.719747e+04  -1.017936e+03
   3.023640e+04   4.100115e+04
  -2.921528e+03   4.122925e+04
  -3.454859e+04   5.338807e+03
  -3.731038e+04  -2.066681e+04
  -1.500125e+04  -7.191377e+03
   1.626179e+03   1.980992e+04
  -6.350021e+03   1.181918e+04
  -2.050689e+04  -3.453166e+04
  -8.076798e+03  -6.597575e+04
   3.217151e+04  -3.834694e+04
   5.942148e+04   2.526073e+04
   3.494634e+04   6.086371e+04
  -2.707283e+04   3.823826e+04
  -6.530398e+04  -1.180236e+04
  -3.563532e+04  -4.156349e+04
   3.587589e+04  -3.496160e+04
   7.642651e+04  -6.840019e+03
   4.517060e+04   2.327205e+04
  -2.210094e+04   4.029830e+04
  -5.461110e+04   3.169365e+04
  -2.511191e+04   4.416184e+01
   2.541597e+04  -2.529682e+04
   3.910944e+04  -1.254334e+04
   3.188200e+03   2.862220e+04
  -4.371259e+04   4.608960e+04
