
 $NMID
 id='ANONYMOUS ', fmtdat='(2E16.6)'
 volume=1.0
 tramp=1.0
 $END
   4.500354e+07  -2.487569e+06
   2.929739e+07   2.531020e+07
  -3.202443e+06   3.061013e+07
  -2.113694e+07   1.423081e+07
  -1.422041e+07  -3.663729e+06
   1.609280e+06  -7.801748e+06
   8.252184e+06  -2.947873e+05
   3.473773e+06   7.699023e+06
  -4.174567e+06   8.663040e+06
  -7.849590e+06   2.691818e+06
  -6.144831e+06  -4.836573e+06
  -1.024633e+06  -7.291960e+06
   3.260686e+06  -2.306171e+06
   2.496140e+06   4.869335e+06
  -2.757723e+06   6.105290e+06
  -6.627417e+06  -4.148949e+05
  -4.353620e+06  -8.141729e+06
   2.370783e+06  -9.950883e+06
   7.930178e+06  -5.279052e+06
   8.740155e+06   1.325592e+06
   5.354760e+06   5.711568e+06
   7.832891e+05   6.519618e+06
  -1.633844e+06   4.653958e+06
  -5.633107e+05   2.576878e+06
   1.420061e+06   2.582408e+06
   3.623532e+04   4.051617e+06
  -4.985890e+06   3.775722e+06
  -8.430310e+06   3.466291e+05
  -5.938780e+06  -3.438581e+06
   6.782214e+04  -4.120834e+06
   3.464091e+06  -1.878298e+06
   1.988288e+06   4.726534e+05
  -1.215105e+06   1.172499e+06
  -2.679727e+06   2.536240e+05
  -1.991909e+06  -1.789708e+06
  -2.644640e+05  -3.670330e+06
   1.556798e+06  -3.091620e+06
   2.282741e+06   2.928567e+05
   1.107251e+06   2.827054e+06
  -5.081092e+05   1.082118e+06
  -1.840995e+04  -2.518553e+06
   2.163464e+06  -2.245792e+06
   2.321195e+06   2.431952e+06
  -1.310181e+06   5.158976e+06
  -5.156624e+06   1.344462e+06
  -4.383795e+06  -5.136807e+06
   9.433506e+05  -6.894281e+06
   5.901164e+06  -2.307557e+06
   6.225615e+06   3.415267e+06
   2.109217e+06   5.161910e+06
  -2.854636e+06   2.715052e+06
  -4.861908e+06  -8.904078e+05
  -2.563149e+06  -2.847008e+06
   1.751900e+06  -2.082045e+06
   3.851129e+06   4.120412e+05
   1.881539e+06   2.088426e+06
  -1.315263e+06   1.236950e+06
  -1.668075e+06  -7.813068e+05
   8.260367e+05  -1.080047e+06
   2.247098e+06   8.815052e+05
   1.682543e+05   2.603829e+06
  -3.275451e+06   1.949327e+06
  -4.415116e+06  -5.178730e+05
  -2.251612e+06  -3.025579e+06
   1.403504e+06  -4.515543e+06
   4.369370e+06  -4.254725e+06
   5.321759e+06  -1.536832e+06
   3.843053e+06   2.673914e+06
   9.069939e+05   5.308669e+06
  -1.282445e+06   4.332912e+06
  -1.358750e+06   1.497801e+06
  -4.181052e+05   1.585745e+05
  -4.937515e+05   9.154345e+05
  -1.788499e+06   1.335643e+06
  -2.590784e+06  -1.472951e+05
  -1.702920e+06  -2.053919e+06
   2.210320e+05  -2.102192e+06
   1.690046e+06  -1.172225e+05
   1.672224e+06   2.090658e+06
  -2.641636e+04   2.760062e+06
  -2.512579e+06   1.416824e+06
  -3.876308e+06  -1.099682e+06
  -2.740317e+06  -3.157001e+06
  -5.941575e+04  -3.463013e+06
   1.727088e+06  -2.280337e+06
   1.716830e+06  -1.109256e+06
   1.537421e+06  -8.182553e+05
   2.680278e+06  -6.540311e+05
   4.045752e+06   4.888097e+05
   3.336873e+06   2.426298e+06
   2.537906e+05   3.856866e+06
  -2.942070e+06   3.722437e+06
  -3.918430e+06   1.972366e+06
  -2.437146e+06  -4.831396e+05
  -1.294460e+05  -2.112668e+06
   1.103761e+06  -1.741195e+06
   5.002015e+05   7.509341e+04
  -1.034559e+06   1.217153e+06
  -1.732554e+06   4.058187e+05
  -8.176205e+05  -1.065333e+06
   5.129355e+05  -1.053825e+06
   5.144637e+05   3.535371e+05
  -8.506014e+05   8.657194e+05
  -1.830718e+06  -7.948917e+05
  -1.055372e+06  -3.054675e+06
   9.987619e+05  -3.470766e+06
   2.830139e+06  -1.564027e+06
   3.384157e+06   1.052504e+06
   2.460419e+06   2.630692e+06
   5.492424e+05   2.587971e+06
  -1.186296e+06   1.421114e+06
  -1.511543e+06   2.120031e+05
  -4.672689e+05  -3.153083e+04
   3.608029e+05   6.984314e+05
  -3.124783e+05   1.240871e+06
  -1.708005e+06   6.005263e+05
  -1.916147e+06  -7.108034e+05
  -4.440419e+05  -1.277807e+06
   1.076936e+06  -5.925299e+05
   9.095772e+05   4.114261e+05
  -7.664474e+05   6.167304e+05
  -2.174610e+06  -1.444714e+05
  -1.833467e+06  -1.264357e+06
   1.285877e+05  -1.984856e+06
   2.173593e+06  -1.699391e+06
   2.639378e+06  -3.493325e+05
   1.181327e+06   1.129920e+06
  -7.953662e+05   1.390538e+06
  -1.400488e+06   2.157403e+05
  -1.867570e+05  -9.736159e+05
   1.400128e+06  -7.229311e+05
   1.656549e+06   6.662171e+05
   4.211659e+05   1.558276e+06
  -9.699020e+05   1.020474e+06
  -1.228238e+06  -1.938596e+05
  -3.097125e+05  -7.181806e+05
   7.196483e+05  -8.758165e+04
   7.084901e+05   9.679794e+05
  -5.260652e+05   1.348972e+06
  -1.890919e+06   5.393181e+05
  -1.939921e+06  -9.543257e+05
  -4.152250e+05  -1.945286e+06
   1.300076e+06  -1.594552e+06
   1.623909e+06  -2.676606e+05
   5.236569e+05   8.007000e+05
  -5.933743e+05   7.946269e+05
  -6.305756e+05   7.810048e+04
   8.757073e+04  -4.104612e+05
   5.224761e+05  -2.629283e+05
   2.137441e+05   9.523306e+04
  -3.928887e+05   3.395964e+04
  -5.514343e+05  -5.609095e+05
   1.145160e+05  -1.128913e+06
   1.273466e+06  -9.011211e+05
   1.986259e+06   3.317806e+05
   1.434799e+06   1.803020e+06
  -1.497681e+05   2.316138e+06
  -1.514766e+06   1.424372e+06
  -1.659788e+06  -5.109218e+04
  -8.984189e+05  -8.846167e+05
  -3.209984e+05  -7.192735e+05
  -3.928741e+05  -2.514745e+05
  -5.425349e+05  -2.465022e+05
  -1.040951e+05  -6.797677e+05
   7.912392e+05  -8.943039e+05
   1.388608e+06  -3.777622e+05
   1.062668e+06   6.819622e+05
  -1.801563e+05   1.454884e+06
  -1.624264e+06   1.100368e+06
  -2.173029e+06  -3.976795e+05
  -1.162349e+06  -1.963163e+06
   8.513849e+05  -2.277406e+06
   2.359094e+06  -1.084600e+06
   2.284625e+06   5.192719e+05
   1.016948e+06   1.259778e+06
  -1.435936e+05   9.756672e+05
  -4.141198e+05   5.456942e+05
  -1.381135e+05   6.947941e+05
  -9.801798e+04   1.184899e+06
  -5.841230e+05   1.203941e+06
  -1.192414e+06   3.260301e+05
  -1.283333e+06  -9.973207e+05
  -5.668085e+05  -1.788854e+06
   5.641608e+05  -1.379009e+06
   1.228950e+06  -3.794697e+04
   8.215533e+05   1.178519e+06
  -2.971417e+05   1.339163e+06
  -1.057769e+06   4.688312e+05
  -7.953705e+05  -5.697403e+05
   3.362457e+04  -9.938164e+05
   4.296361e+05  -7.764636e+05
   4.987022e+04  -4.274758e+05
  -4.060767e+05  -3.202689e+05
  -5.780140e+04  -3.675009e+05
   1.066540e+06  -2.400305e+05
   1.941036e+06   2.471758e+05
   1.565474e+06   9.247007e+05
   4.196766e+04   1.342584e+06
  -1.435245e+06   1.117686e+06
  -1.722617e+06   3.390762e+05
  -8.278689e+05  -4.011897e+05
   2.094332e+05  -5.272313e+05
   4.759320e+05  -6.798365e+04
   3.029208e+04   3.664329e+05
  -4.287772e+05   2.447853e+05
  -4.601241e+05  -3.128403e+05
  -2.201840e+05  -6.842727e+05
  -6.829924e+04  -4.486979e+05
  -1.376464e+05   1.180303e+05
  -2.933847e+05   3.102094e+05
  -2.759175e+05  -2.123425e+05
   1.309334e+05  -9.509788e+05
   8.267423e+05  -1.029321e+06
   1.244609e+06  -1.844126e+05
   7.906993e+05   8.418430e+05
  -3.602769e+05   1.060596e+06
  -1.157015e+06   3.228854e+05
  -7.041594e+05  -5.370786e+05
   6.447156e+05  -6.429897e+05
   1.533487e+06   3.679585e+04
   1.026186e+06   7.985095e+05
  -4.097059e+05   9.893522e+05
  -1.435662e+06   5.377504e+05
  -1.215319e+06  -1.343761e+05
  -1.556748e+05  -4.985324e+05
   6.119993e+05  -2.886210e+05
   3.647131e+05   2.582722e+05
  -5.561559e+05   4.926294e+05
  -1.120455e+06  -7.098411e+04
  -6.375318e+05  -1.114044e+06
   5.498405e+05  -1.617582e+06
   1.403211e+06  -8.566676e+05
   1.212312e+06   7.028461e+05
   2.308469e+05   1.711280e+06
  -6.809090e+05   1.269458e+06
  -8.985565e+05  -1.300052e+05
  -4.597653e+05  -1.131432e+06
   1.674388e+05  -9.512184e+05
   5.311703e+05  -1.054011e+05
   4.700779e+05   3.587356e+05
   1.761432e+05   1.388986e+05
   3.870264e+04  -9.997949e+04
   2.517839e+05   2.553047e+05
   5.018358e+05   9.028804e+05
   2.286856e+05   1.036570e+06
  -6.498417e+05   4.058520e+05
  -1.424225e+06  -4.106948e+05
  -1.263730e+06  -7.751321e+05
  -1.974704e+05  -6.598896e+05
   8.215012e+05  -4.143645e+05
   9.446204e+05  -2.024269e+05
   3.355086e+05   2.759243e+04
  -1.391944e+05   2.153058e+05
  -1.327906e+04   2.126260e+05
   2.715248e+05   1.013176e+05
   4.353962e+04   1.247754e+05
  -6.443312e+05   2.273165e+05
  -9.955316e+05   9.964772e+03
  -4.042589e+05  -6.374702e+05
   7.877185e+05  -1.128161e+06
   1.586946e+06  -7.558475e+05
   1.332523e+06   3.782782e+05
   2.899512e+05   1.336190e+06
  -6.912156e+05   1.328832e+06
  -9.839427e+05   5.289163e+05
  -6.304698e+05  -2.157573e+05
  -1.296386e+05  -3.358358e+05
   7.592868e+04  -4.981737e+04
  -7.633656e+04   3.123082e+04
  -3.056409e+05  -3.419145e+05
  -2.626245e+05  -7.681479e+05
   1.556661e+05  -6.482499e+05
   6.518973e+05   1.093223e+05
   7.171099e+05   8.946660e+05
   1.227284e+05   9.726743e+05
  -7.141176e+05   2.395378e+05
  -9.967650e+05  -6.700277e+05
  -3.533321e+05  -1.025688e+06
   6.599643e+05  -6.550709e+05
   1.061382e+06   4.210023e+04
   5.205216e+05   5.581149e+05
  -2.494255e+05   6.436993e+05
  -3.406269e+05   3.634813e+05
   2.454508e+05   1.199909e+04
   6.210166e+05  -5.154303e+04
   1.454536e+05   2.859557e+05
  -7.706990e+05   6.713123e+05
  -1.182484e+06   5.620736e+05
  -7.257853e+05  -1.347049e+05
   6.740385e+04  -8.273336e+05
   4.923181e+05  -8.324413e+05
   3.871284e+05  -1.640066e+05
   5.635842e+04   4.571129e+05
  -2.153131e+05   4.153411e+05
  -3.355190e+05  -1.402333e+05
  -2.566122e+05  -5.435667e+05
   3.633281e+04  -3.995291e+05
   3.716328e+05   3.558356e+04
   4.619598e+05   2.467256e+05
   2.371916e+05   7.973123e+04
  -3.641203e+04  -1.327232e+05
  -8.841878e+04  -2.458434e+04
   5.579001e+03   3.353741e+05
  -4.383438e+04   5.064484e+05
  -2.941716e+05   1.983287e+05
  -4.301866e+05  -3.523218e+05
  -1.517971e+05  -6.057300e+05
   3.824158e+05  -3.047922e+05
   6.328120e+05   2.500153e+05
   2.519994e+05   5.407577e+05
  -4.708162e+05   3.634038e+05
  -8.371566e+05  -4.777699e+04
  -4.651953e+05  -3.455193e+05
   2.650574e+05  -3.841822e+05
   5.962770e+05  -2.297951e+05
   2.314532e+05  -2.755792e+04
  -3.325241e+05   6.292504e+04
  -3.880060e+05  -6.003732e+04
   1.625056e+05  -2.828850e+05
   7.123600e+05  -2.720211e+05
