
 $NMID
 id='ANONYMOUS ', fmtdat='(2E16.6)'
 volume=1.0
 tramp=1.0
 $END
   5.676129e+07  -1.553127e+06
   3.509326e+07   3.458499e+07
  -6.683235e+06   3.882463e+07
  -2.765913e+07   1.524347e+07
  -1.680333e+07  -7.014504e+06
   3.254187e+06  -9.536875e+06
   9.977707e+06   1.214352e+06
   2.867738e+06   9.885040e+06
  -6.215261e+06   9.409618e+06
  -9.712149e+06   2.083378e+06
  -7.122725e+06  -6.046866e+06
  -9.992305e+05  -8.530519e+06
   3.885464e+06  -2.865553e+06
   2.669032e+06   5.271796e+06
  -3.709829e+06   6.521941e+06
  -7.948747e+06  -1.245616e+06
  -4.647314e+06  -1.016920e+07
   3.567532e+06  -1.192736e+07
   1.000604e+07  -6.192314e+06
   1.092422e+07   1.722050e+06
   6.951615e+06   7.310846e+06
   1.039676e+06   8.763844e+06
  -2.819277e+06   6.329501e+06
  -2.043095e+06   2.809896e+06
   9.283952e+05   1.986878e+06
   3.522367e+05   3.967240e+06
  -5.108837e+06   4.446908e+06
  -9.468530e+06   7.851372e+05
  -7.119010e+06  -3.864378e+06
  -5.101367e+05  -4.996693e+06
   3.470867e+06  -2.691959e+06
   2.400797e+06  -2.308549e+05
  -4.551052e+05   7.523254e+05
  -2.035440e+06   4.881245e+05
  -2.104300e+06  -1.226072e+06
  -8.448225e+05  -3.738809e+06
   1.624133e+06  -3.911848e+06
   3.282248e+06  -1.218847e+05
   1.932162e+06   3.550849e+06
  -6.589999e+05   2.083437e+06
  -4.188631e+05  -2.276552e+06
   2.386823e+06  -2.278564e+06
   2.507027e+06   3.185128e+06
  -2.379216e+06   6.266892e+06
  -7.089179e+06   1.218597e+06
  -5.381157e+06  -6.872433e+06
   1.734669e+06  -8.677811e+06
   7.405177e+06  -2.622917e+06
   6.994566e+06   4.322456e+06
   1.880630e+06   5.986587e+06
  -3.442652e+06   2.710849e+06
  -5.224474e+06  -1.503926e+06
  -2.410628e+06  -3.481880e+06
   2.424715e+06  -2.244670e+06
   4.563706e+06   8.609970e+05
   1.996384e+06   2.717160e+06
  -1.701126e+06   1.413502e+06
  -1.725040e+06  -1.012988e+06
   1.392269e+06  -9.275159e+05
   2.566037e+06   1.816989e+06
  -6.092645e+05   3.599130e+06
  -4.717356e+06   2.049248e+06
  -5.404493e+06  -1.306947e+06
  -2.405925e+06  -3.986461e+06
   1.659324e+06  -5.278166e+06
   4.806530e+06  -4.901808e+06
   6.074893e+06  -1.900029e+06
   4.648350e+06   2.980236e+06
   1.093140e+06   6.086020e+06
  -1.806515e+06   4.766815e+06
  -1.811323e+06   1.184975e+06
  -1.668627e+05  -3.684270e+05
   1.603073e+05   8.743387e+05
  -1.412987e+06   1.802878e+06
  -2.688821e+06   3.751811e+05
  -2.019588e+06  -1.758819e+06
  -1.070750e+05  -2.034131e+06
   1.447652e+06  -2.122060e+05
   1.632096e+06   1.975932e+06
   6.341007e+04   2.855189e+06
  -2.662389e+06   1.705828e+06
  -4.449054e+06  -1.032823e+06
  -3.323521e+06  -3.640242e+06
  -9.665319e+04  -4.242561e+06
   2.217234e+06  -2.809856e+06
   2.245617e+06  -1.196967e+06
   1.844312e+06  -6.865256e+05
   2.913513e+06  -4.849777e+05
   4.302765e+06   7.146617e+05
   3.464370e+06   2.692057e+06
   1.699389e+05   4.056841e+06
  -3.093596e+06   3.865482e+06
  -4.041302e+06   2.151949e+06
  -2.605311e+06  -3.338930e+05
  -3.389059e+05  -2.157454e+06
   1.012388e+06  -1.919554e+06
   5.523528e+05   9.595201e+03
  -1.036943e+06   1.302545e+06
  -1.879780e+06   4.261553e+05
  -9.470983e+05  -1.172262e+06
   4.810614e+05  -1.094170e+06
   3.993555e+05   3.961928e+05
  -1.106382e+06   6.723426e+05
  -1.886982e+06  -1.349641e+06
  -6.130018e+05  -3.533193e+06
   1.672755e+06  -3.379616e+06
   3.173431e+06  -1.026877e+06
   3.241769e+06   1.485154e+06
   2.181095e+06   2.709382e+06
   4.317049e+05   2.533438e+06
  -1.192948e+06   1.440956e+06
  -1.534835e+06   2.474591e+05
  -4.854413e+05  -4.014749e+04
   3.591798e+05   7.391763e+05
  -4.019580e+05   1.344005e+06
  -1.899209e+06   6.003559e+05
  -2.034531e+06  -8.747430e+05
  -3.875619e+05  -1.416726e+06
   1.160095e+06  -5.682060e+05
   8.603910e+05   4.523262e+05
  -8.615264e+05   4.903828e+05
  -2.138340e+06  -3.526941e+05
  -1.675606e+06  -1.344270e+06
   2.707720e+05  -1.917576e+06
   2.265968e+06  -1.617488e+06
   2.728316e+06  -2.817043e+05
   1.218825e+06   1.248946e+06
  -8.946987e+05   1.514265e+06
  -1.559821e+06   2.159572e+05
  -2.268749e+05  -1.072602e+06
   1.493172e+06  -7.474741e+05
   1.704133e+06   7.703264e+05
   3.234644e+05   1.639022e+06
  -1.098386e+06   9.548279e+05
  -1.246040e+06  -3.308979e+05
  -2.293647e+05  -7.871752e+05
   8.021831e+05  -6.057955e+04
   7.441830e+05   1.035654e+06
  -5.475519e+05   1.413582e+06
  -1.971564e+06   5.624966e+05
  -2.022560e+06  -1.011737e+06
  -3.991687e+05  -2.049145e+06
   1.417362e+06  -1.638100e+06
   1.710286e+06  -2.130510e+05
   4.940636e+05   8.627971e+05
  -6.519113e+05   7.932390e+05
  -6.090594e+05   7.738281e+04
   1.357094e+05  -3.339403e+05
   4.707966e+05  -1.746303e+05
   7.533056e+04   7.063463e+04
  -4.776148e+05  -1.029368e+05
  -5.125833e+05  -6.942951e+05
   2.153815e+05  -1.185343e+06
   1.367417e+06  -8.906677e+05
   2.059113e+06   3.960649e+05
   1.464039e+06   1.906719e+06
  -1.945355e+05   2.383406e+06
  -1.583620e+06   1.384336e+06
  -1.650976e+06  -1.332579e+05
  -8.153774e+05  -8.675917e+05
  -2.934500e+05  -5.963773e+05
  -4.873973e+05  -1.757430e+05
  -6.534176e+05  -3.054906e+05
  -1.059426e+05  -7.709891e+05
   8.686070e+05  -8.924896e+05
   1.424401e+06  -3.126060e+05
   1.015745e+06   7.056939e+05
  -2.582500e+05   1.419703e+06
  -1.691817e+06   1.050766e+06
  -2.210403e+06  -4.674215e+05
  -1.120236e+06  -2.070648e+06
   9.995522e+05  -2.348720e+06
   2.520865e+06  -1.025087e+06
   2.318081e+06   6.606412e+05
   9.171694e+05   1.323906e+06
  -2.243220e+05   9.089132e+05
  -3.664433e+05   4.712214e+05
  -3.026071e+04   7.346313e+05
  -6.368733e+04   1.307515e+06
  -6.506929e+05   1.296245e+06
  -1.282917e+06   3.354171e+05
  -1.333315e+06  -1.048032e+06
  -5.688685e+05  -1.859149e+06
   5.958504e+05  -1.420739e+06
   1.265577e+06  -3.117965e+03
   8.077337e+05   1.271767e+06
  -3.918288e+05   1.386722e+06
  -1.171628e+06   3.927435e+05
  -8.182702e+05  -7.153222e+05
   1.312656e+05  -1.088158e+06
   5.547224e+05  -7.798773e+05
   9.671828e+04  -4.014457e+05
  -4.342989e+05  -3.180524e+05
  -6.579011e+04  -3.731853e+05
   1.142604e+06  -2.161723e+05
   2.053868e+06   3.112139e+05
   1.606440e+06   1.018165e+06
  -4.023098e+04   1.435143e+06
  -1.577658e+06   1.151990e+06
  -1.815124e+06   2.777433e+05
  -8.257990e+05  -5.087703e+05
   2.594601e+05  -5.789642e+05
   5.143846e+05  -2.860645e+04
   4.741875e+04   4.293251e+05
  -4.233027e+05   2.622798e+05
  -4.817279e+05  -3.303104e+05
  -2.779286e+05  -6.980496e+05
  -1.201218e+05  -4.645469e+05
  -1.357250e+05   7.895129e+04
  -2.599477e+05   2.676498e+05
  -2.698934e+05  -2.299754e+05
   1.198729e+05  -9.631103e+05
   8.748208e+05  -1.064527e+06
   1.363246e+06  -2.091728e+05
   8.767758e+05   8.842556e+05
  -3.909802e+05   1.149232e+06
  -1.246167e+06   3.735684e+05
  -7.317765e+05  -5.474670e+05
   6.923917e+05  -6.428202e+05
   1.558015e+06   9.471757e+04
   9.678965e+05   8.544457e+05
  -4.962767e+05   9.637282e+05
  -1.472541e+06   4.489524e+05
  -1.197223e+06  -2.000192e+05
  -1.225042e+05  -5.018059e+05
   6.428750e+05  -2.597256e+05
   3.920988e+05   2.921883e+05
  -5.546144e+05   5.327382e+05
  -1.165712e+06  -4.272576e+04
  -7.015572e+05  -1.138967e+06
   5.239547e+05  -1.691965e+06
   1.430716e+06  -9.116963e+05
   1.247876e+06   7.163761e+05
   2.277850e+05   1.753849e+06
  -7.138773e+05   1.267978e+06
  -9.106650e+05  -1.822071e+05
  -4.193922e+05  -1.173908e+06
   2.331673e+05  -9.455946e+05
   5.620897e+05  -7.950372e+04
   4.427937e+05   3.641009e+05
   1.392231e+05   1.294195e+05
   5.630453e+04  -8.880576e+04
   3.141005e+05   2.975135e+05
   5.279129e+05   9.490485e+05
   1.736774e+05   1.057796e+06
  -7.307087e+05   3.977989e+05
  -1.453027e+06  -4.371457e+05
  -1.244341e+06  -8.098814e+05
  -1.892230e+05  -6.912718e+05
   8.091481e+05  -4.247257e+05
   9.581825e+05  -1.829822e+05
   3.787610e+05   5.890914e+04
  -1.296061e+05   2.258026e+05
  -6.367256e+04   1.915858e+05
   2.279804e+05   7.544879e+04
   6.457073e+04   1.266112e+05
  -6.107979e+05   2.526723e+05
  -1.034447e+06   1.937383e+04
  -4.895309e+05  -6.731639e+05
   7.714891e+05  -1.193785e+06
   1.679655e+06  -8.076338e+05
   1.439637e+06   3.714738e+05
   3.133711e+05   1.372594e+06
  -7.352551e+05   1.384544e+06
  -1.021144e+06   5.765204e+05
  -6.436829e+05  -1.960549e+05
  -1.547759e+05  -3.492353e+05
   3.519366e+04  -8.420307e+04
  -9.381820e+04  -4.283051e+03
  -2.887361e+05  -3.688212e+05
  -2.466576e+05  -7.933917e+05
   1.533752e+05  -6.804702e+05
   6.644939e+05   7.982265e+04
   7.699582e+05   8.939014e+05
   1.796182e+05   1.013630e+06
  -7.104071e+05   2.955282e+05
  -1.046423e+06  -6.504414e+05
  -3.948471e+05  -1.064838e+06
   6.772366e+05  -7.122007e+05
   1.121554e+06   3.308787e+04
   5.627787e+05   6.131171e+05
  -2.649703e+05   7.091495e+05
  -3.938904e+05   3.832218e+05
   2.097717e+05  -6.499715e+03
   6.301002e+05  -5.953585e+04
   1.645579e+05   3.052669e+05
  -7.976437e+05   6.851016e+05
  -1.259702e+06   5.415121e+05
  -7.923557e+05  -1.787938e+05
   6.857726e+04  -8.727099e+05
   5.509055e+05  -8.751497e+05
   4.467735e+05  -1.987219e+05
   8.207632e+04   4.550571e+05
  -2.159558e+05   4.535158e+05
  -3.458993e+05  -1.052942e+05
  -2.707538e+05  -5.607717e+05
   2.911178e+04  -4.501641e+05
   3.866515e+05   1.958593e+04
   4.897406e+05   2.845028e+05
   2.440981e+05   1.080535e+05
  -5.628796e+04  -1.699100e+05
  -8.865435e+04  -9.120201e+04
   6.299578e+04   3.233607e+05
   3.183808e+04   5.719145e+05
  -2.823198e+05   2.800629e+05
  -5.007548e+05  -3.187481e+05
  -2.290143e+05  -6.232604e+05
   3.755939e+05  -3.360757e+05
   6.825196e+05   2.327247e+05
   2.821578e+05   5.434254e+05
  -4.991602e+05   3.809263e+05
  -8.903913e+05  -3.216331e+04
  -4.930844e+05  -3.566594e+05
   2.754303e+05  -4.278537e+05
   6.292559e+05  -2.747744e+05
   2.717158e+05  -3.342799e+04
  -3.004028e+05   1.005384e+05
  -3.857789e+05  -1.515955e+04
   1.295977e+05  -2.669940e+05
   6.757694e+05  -2.862919e+05
