
 $NMID
 id='ANONYMOUS ', fmtdat='(2E16.6)'
 volume=1.0
 tramp=1.0
 $END
   2.864982e+07   5.087114e+05
   1.831652e+07   1.490639e+07
  -1.373877e+06   1.840768e+07
  -1.294320e+07   1.059164e+07
  -9.807650e+06  -1.909271e+05
   4.486917e+04  -5.028153e+06
   5.600129e+06  -1.684780e+06
   3.550003e+06   4.719945e+06
  -1.883688e+06   7.058628e+06
  -5.280412e+06   2.819116e+06
  -4.342045e+06  -3.644858e+06
  -4.793057e+05  -5.635632e+06
   2.633861e+06  -1.263727e+06
   1.983107e+06   4.469695e+06
  -1.783092e+06   5.226411e+06
  -4.610983e+06   1.819594e+05
  -3.178569e+06  -5.576786e+06
   1.549000e+06  -6.850531e+06
   5.462901e+06  -3.229848e+06
   5.565015e+06   1.606955e+06
   2.563088e+06   4.052997e+06
  -3.147346e+05   3.498785e+06
  -5.452493e+05   2.020781e+06
   1.312359e+06   1.915261e+06
   2.107785e+06   3.347986e+06
  -5.461514e+05   4.227538e+06
  -5.105006e+06   2.619538e+06
  -7.104930e+06  -8.220015e+05
  -4.085383e+06  -3.353376e+06
   1.221833e+06  -3.048350e+06
   3.715616e+06  -6.218099e+05
   1.555415e+06   1.612295e+06
  -2.224738e+06   1.861654e+06
  -3.623771e+06  -5.228100e+04
  -1.861499e+06  -2.678245e+06
   7.245904e+05  -3.701137e+06
   1.771421e+06  -1.865687e+06
   9.738309e+05   1.180601e+06
  -3.018887e+05   2.050082e+06
  -5.505201e+05  -3.511766e+05
   5.892566e+05  -2.932505e+06
   1.951662e+06  -2.057490e+06
   1.806340e+06   1.533712e+06
  -2.741499e+05   3.359023e+06
  -2.516664e+06   9.102202e+05
  -2.442002e+06  -3.121951e+06
   4.929770e+05  -4.225755e+06
   3.976706e+06  -1.320692e+06
   4.832138e+06   2.571417e+06
   2.038229e+06   4.058924e+06
  -2.159087e+06   2.481359e+06
  -4.199218e+06  -3.232639e+05
  -2.516495e+06  -2.057506e+06
   9.577109e+05  -1.657056e+06
   2.768100e+06   1.027930e+05
   1.505804e+06   1.337700e+06
  -8.775576e+05   8.679646e+05
  -1.512251e+06  -5.492308e+05
   6.315311e+04  -1.149603e+06
   1.585803e+06  -2.487261e+05
   9.334475e+05   1.087484e+06
  -1.384064e+06   1.383135e+06
  -2.861169e+06   1.809237e+05
  -1.709852e+06  -1.822368e+06
   1.395234e+06  -3.336515e+06
   4.068154e+06  -3.071312e+06
   4.409032e+06  -6.507995e+05
   2.546751e+06   2.574381e+06
   2.601886e+05   4.306371e+06
  -8.381843e+05   3.566033e+06
  -7.390574e+05   1.768066e+06
  -6.614800e+05   9.059452e+05
  -1.416083e+06   1.078936e+06
  -2.448475e+06   6.971361e+05
  -2.554073e+06  -9.898818e+05
  -1.243023e+06  -2.596619e+06
   7.481410e+05  -2.258806e+06
   2.053756e+06   3.198820e+04
   1.667169e+06   2.312375e+06
  -2.865054e+05   2.648342e+06
  -2.425405e+06   8.815414e+05
  -3.048764e+06  -1.473030e+06
  -1.695758e+06  -2.722302e+06
   3.015622e+05  -2.390402e+06
   1.252862e+06  -1.367675e+06
   1.046629e+06  -8.004919e+05
   1.115972e+06  -8.692954e+05
   2.343675e+06  -7.277969e+05
   3.613846e+06   3.958661e+05
   2.997110e+06   2.220107e+06
   1.682729e+05   3.567857e+06
  -2.910250e+06   3.364714e+06
  -3.862616e+06   1.531528e+06
  -2.215879e+06  -8.268033e+05
   2.563261e+05  -2.099342e+06
   1.343561e+06  -1.467254e+06
   4.446343e+05   1.991774e+05
  -1.099022e+06   1.059326e+06
  -1.555297e+06   2.769670e+05
  -5.748843e+05  -9.819102e+05
   6.140073e+05  -9.892905e+05
   6.575268e+05   2.908329e+05
  -4.899652e+05   1.050319e+06
  -1.606097e+06  -1.084455e+05
  -1.440863e+06  -2.341544e+06
   1.938512e+05  -3.414182e+06
   2.307346e+06  -2.115209e+06
   3.440548e+06   5.688801e+05
   2.713646e+06   2.566647e+06
   6.128202e+05   2.658180e+06
  -1.239373e+06   1.338162e+06
  -1.494626e+06   9.181107e+04
  -4.384473e+05  -4.484038e+04
   3.277839e+05   6.563597e+05
  -2.589775e+05   1.068856e+06
  -1.469035e+06   4.934723e+05
  -1.693464e+06  -5.879306e+05
  -4.446495e+05  -1.097573e+06
   9.819945e+05  -5.717363e+05
   9.578940e+05   3.782356e+05
  -6.266168e+05   7.415044e+05
  -2.169982e+06   6.557994e+04
  -1.981236e+06  -1.192895e+06
  -1.516295e+03  -2.040682e+06
   2.096646e+06  -1.701777e+06
   2.515425e+06  -3.129726e+05
   1.057574e+06   1.024423e+06
  -7.424020e+05   1.167384e+06
  -1.191599e+06   1.239062e+05
  -7.263962e+04  -8.550435e+05
   1.306244e+06  -6.140384e+05
   1.542888e+06   6.003789e+05
   4.757024e+05   1.446075e+06
  -8.226855e+05   1.047644e+06
  -1.171573e+06  -5.792810e+04
  -3.817140e+05  -6.224289e+05
   6.012976e+05  -8.519163e+04
   6.076871e+05   9.040339e+05
  -5.590627e+05   1.230238e+06
  -1.800022e+06   4.136630e+05
  -1.771006e+06  -9.691871e+05
  -3.351176e+05  -1.813302e+06
   1.212999e+06  -1.454835e+06
   1.505801e+06  -2.556093e+05
   5.203322e+05   7.344898e+05
  -5.457261e+05   7.638442e+05
  -6.675976e+05   5.898117e+04
   1.649528e+04  -5.044144e+05
   5.833020e+05  -3.779841e+05
   4.080331e+05   1.059050e+05
  -2.435263e+05   1.890685e+05
  -5.501971e+05  -3.874216e+05
   3.275041e+04  -1.019524e+06
   1.173727e+06  -8.400697e+05
   1.852791e+06   3.387976e+05
   1.294482e+06   1.720670e+06
  -1.993863e+05   2.203595e+06
  -1.470494e+06   1.400246e+06
  -1.651525e+06  -6.699743e+03
  -9.770411e+05  -9.313019e+05
  -3.503728e+05  -8.995853e+05
  -2.625225e+05  -3.923642e+05
  -3.622282e+05  -2.072198e+05
  -5.228772e+04  -5.525149e+05
   7.183290e+05  -8.419824e+05
   1.334263e+06  -3.999752e+05
   1.087911e+06   6.812560e+05
  -1.255526e+05   1.474272e+06
  -1.560354e+06   1.083560e+06
  -2.084214e+06  -3.980017e+05
  -1.115984e+06  -1.849301e+06
   7.514873e+05  -2.109126e+06
   2.163252e+06  -1.035279e+06
   2.185702e+06   4.242768e+05
   1.089962e+06   1.192680e+06
  -5.836373e+04   1.046349e+06
  -4.888872e+05   6.409589e+05
  -3.268879e+05   6.532946e+05
  -2.214248e+05   1.014170e+06
  -5.600792e+05   1.035066e+06
  -1.079809e+06   2.438959e+05
  -1.159333e+06  -9.893139e+05
  -4.737083e+05  -1.712703e+06
   5.857882e+05  -1.289273e+06
   1.171450e+06  -2.835624e+04
   7.722799e+05   1.077737e+06
  -2.296469e+05   1.239614e+06
  -9.011064e+05   5.086025e+05
  -7.091303e+05  -4.016826e+05
  -4.351568e+04  -8.387197e+05
   2.857375e+05  -7.282849e+05
  -2.885056e+03  -4.532312e+05
  -3.507477e+05  -3.459680e+05
  -2.844621e+04  -3.619006e+05
   9.621518e+05  -2.117645e+05
   1.753969e+06   2.614349e+05
   1.447585e+06   8.657368e+05
   8.417739e+04   1.195775e+06
  -1.285930e+06   9.791889e+05
  -1.593336e+06   3.339436e+05
  -7.927142e+05  -2.835061e+05
   1.710392e+05  -4.342301e+05
   4.157586e+05  -9.541248e+04
  -2.362825e+04   2.805883e+05
  -4.510742e+05   2.003679e+05
  -4.111475e+05  -3.129273e+05
  -1.041652e+05  -6.845912e+05
   2.836671e+04  -4.388586e+05
  -1.374298e+05   1.667744e+05
  -3.440741e+05   3.639649e+05
  -2.695841e+05  -1.956465e+05
   1.898367e+05  -9.262619e+05
   8.063654e+05  -9.320568e+05
   1.085008e+06  -7.324878e+04
   6.222745e+05   8.301959e+05
  -3.786463e+05   9.111833e+05
  -1.052036e+06   1.825418e+05
  -6.381560e+05  -5.579435e+05
   6.045992e+05  -6.047857e+05
   1.483948e+06   2.678768e+04
   1.061578e+06   7.516682e+05
  -3.248058e+05   9.894168e+05
  -1.387723e+06   5.933482e+05
  -1.220954e+06  -9.005014e+04
  -1.804821e+05  -4.937452e+05
   5.745245e+05  -2.976452e+05
   3.084257e+05   2.302688e+05
  -5.860856e+05   4.115499e+05
  -1.057164e+06  -1.678014e+05
  -4.926827e+05  -1.117221e+06
   6.711487e+05  -1.491003e+06
   1.410947e+06  -7.104621e+05
   1.126941e+06   7.432498e+05
   1.514744e+05   1.658498e+06
  -6.885605e+05   1.234004e+06
  -8.644950e+05  -9.683979e+04
  -4.596512e+05  -1.081612e+06
   1.129848e+05  -9.384664e+05
   4.855051e+05  -1.138336e+05
   4.921104e+05   3.654211e+05
   2.250078e+05   1.526785e+05
   1.606646e+04  -1.110638e+05
   1.435634e+05   2.173581e+05
   4.163077e+05   8.631539e+05
   2.580466e+05   1.005428e+06
  -5.500265e+05   3.735304e+05
  -1.359019e+06  -4.404837e+05
  -1.249703e+06  -7.764771e+05
  -1.739888e+05  -6.211396e+05
   8.585733e+05  -3.651714e+05
   9.293902e+05  -1.860759e+05
   2.659746e+05   5.722842e+03
  -1.646126e+05   1.960908e+05
   5.293896e+04   2.323477e+05
   3.338448e+05   1.411578e+05
   8.045139e+03   1.272423e+05
  -7.059344e+05   1.690857e+05
  -9.411181e+05  -5.392043e+04
  -2.474355e+05  -6.195537e+05
   8.720736e+05  -1.002132e+06
   1.495899e+06  -5.941254e+05
   1.162639e+06   4.664233e+05
   1.906320e+05   1.299848e+06
  -6.958912e+05   1.208940e+06
  -9.612683e+05   4.103445e+05
  -6.050955e+05  -2.731412e+05
  -7.677617e+04  -3.263066e+05
   1.425151e+05  -5.053178e+03
  -4.577112e+04   7.530201e+04
  -3.095750e+05  -3.129390e+05
  -2.474906e+05  -7.396453e+05
   1.927509e+05  -5.957151e+05
   6.343799e+05   1.816880e+05
   6.024904e+05   9.363389e+05
  -8.952253e+03   9.297711e+05
  -7.401851e+05   1.287753e+05
  -8.993330e+05  -7.507059e+05
  -2.411669e+05  -9.921008e+05
   6.740905e+05  -5.403947e+05
   9.739189e+05   1.126596e+05
   4.248061e+05   5.091826e+05
  -2.669627e+05   5.354070e+05
  -2.832492e+05   3.103464e+05
   2.992476e+05   4.298139e+04
   6.109206e+05  -1.104233e+04
   1.016094e+05   2.679425e+05
  -7.635250e+05   6.122030e+05
  -1.091725e+06   5.247423e+05
  -6.156533e+05  -1.159487e+05
   1.105752e+05  -7.586538e+05
   4.526034e+05  -7.378889e+05
   3.150041e+05  -8.576333e+04
  -3.200082e+02   4.669639e+05
  -2.396007e+05   3.505583e+05
  -3.206954e+05  -2.069199e+05
  -2.090170e+05  -5.323298e+05
   7.373712e+04  -3.264010e+05
   3.513782e+05   7.758279e+04
   4.039395e+05   2.179591e+05
   2.182111e+05   5.090330e+04
   4.814480e+03  -8.465895e+04
  -7.435396e+04   6.693864e+04
  -8.905707e+04   3.634680e+05
  -1.868354e+05   4.247108e+05
  -3.351754e+05   7.037590e+04
  -3.196480e+05  -4.324320e+05
  -1.111623e+04  -6.013500e+05
   4.110913e+05  -2.441584e+05
   5.532342e+05   3.116560e+05
   1.843678e+05   5.530415e+05
  -4.489107e+05   3.119381e+05
  -7.609893e+05  -1.167521e+05
  -4.076784e+05  -3.549088e+05
   2.751123e+05  -3.078725e+05
   5.673471e+05  -1.328412e+05
   1.760157e+05  -1.118233e+03
  -3.883550e+05   7.590249e+02
  -3.970280e+05  -1.409066e+05
   2.188762e+05  -3.047724e+05
   7.789755e+05  -2.271907e+05
