
 $NMID
 id='ANONYMOUS ', fmtdat='(2E16.6)'
 volume=1.0
 tramp=1.0
 $END
   4.399106e+07  -1.106966e+06
   2.742919e+07   2.619613e+07
  -4.663859e+06   2.987903e+07
  -2.119763e+07   1.247994e+07
  -1.331878e+07  -4.718029e+06
   2.175048e+06  -7.447148e+06
   7.856264e+06   4.533719e+05
   2.673632e+06   7.605084e+06
  -4.545017e+06   7.778080e+06
  -7.602315e+06   1.996590e+06
  -5.686219e+06  -4.787336e+06
  -7.903354e+05  -6.875641e+06
   3.137681e+06  -2.192983e+06
   2.206416e+06   4.444239e+06
  -2.844113e+06   5.455136e+06
  -6.287368e+06  -7.810703e+05
  -3.798314e+06  -7.960214e+06
   2.681436e+06  -9.423293e+06
   7.820502e+06  -4.849413e+06
   8.480972e+06   1.450904e+06
   5.218708e+06   5.716941e+06
   6.648705e+05   6.601866e+06
  -1.987300e+06   4.680087e+06
  -1.104776e+06   2.289380e+06
   1.049925e+06   2.013231e+06
   1.334266e+05   3.520258e+06
  -4.456689e+06   3.530907e+06
  -7.801920e+06   3.846435e+05
  -5.624075e+06  -3.258508e+06
  -1.100767e+05  -3.973253e+06
   3.076056e+06  -1.942569e+06
   1.924857e+06   1.632378e+05
  -7.557205e+05   8.775958e+05
  -2.097785e+06   3.179272e+05
  -1.790477e+06  -1.359770e+06
  -4.301812e+05  -3.256925e+06
   1.438078e+06  -3.012510e+06
   2.402877e+06   1.439106e+05
   1.250118e+06   2.795295e+06
  -5.452951e+05   1.334136e+06
  -1.658547e+05  -2.120247e+06
   1.995874e+06  -1.953964e+06
   2.061118e+06   2.447994e+06
  -1.640665e+06   4.906194e+06
  -5.279046e+06   1.026770e+06
  -4.136592e+06  -5.241675e+06
   1.242608e+06  -6.701922e+06
   5.780944e+06  -2.053296e+06
   5.695341e+06   3.412200e+06
   1.691541e+06   4.846396e+06
  -2.748235e+06   2.333751e+06
  -4.369108e+06  -1.067038e+06
  -2.138858e+06  -2.755039e+06
   1.820994e+06  -1.852074e+06
   3.633849e+06   5.891399e+05
   1.654877e+06   2.094558e+06
  -1.318980e+06   1.131053e+06
  -1.468634e+06  -7.894845e+05
   9.498950e+05  -8.611353e+05
   2.055281e+06   1.167625e+06
  -2.111505e+05   2.647945e+06
  -3.451338e+06   1.674513e+06
  -4.221785e+06  -8.286732e+05
  -1.976607e+06  -3.046082e+06
   1.384358e+06  -4.230209e+06
   4.042901e+06  -3.930038e+06
   4.972674e+06  -1.425447e+06
   3.649603e+06   2.512192e+06
   8.033954e+05   4.961694e+06
  -1.374281e+06   3.933322e+06
  -1.367653e+06   1.159385e+06
  -2.486283e+05  -6.654363e+04
  -1.758288e+05   8.023999e+05
  -1.438976e+06   1.354751e+06
  -2.321292e+06   5.831573e+04
  -1.611221e+06  -1.701924e+06
   7.575550e+04  -1.822136e+06
   1.387289e+06  -1.371292e+05
   1.436968e+06   1.793622e+06
  -9.809349e+03   2.454886e+06
  -2.276378e+06   1.331269e+06
  -3.610779e+06  -9.810580e+05
  -2.588291e+06  -2.989916e+06
  -1.631194e+04  -3.337434e+06
   1.737081e+06  -2.174086e+06
   1.720054e+06  -9.742562e+05
   1.466097e+06  -6.423717e+05
   2.433933e+06  -4.795153e+05
   3.627539e+06   5.519486e+05
   2.942371e+06   2.252912e+06
   1.563810e+05   3.450230e+06
  -2.661584e+06   3.286520e+06
  -3.494067e+06   1.764960e+06
  -2.199918e+06  -3.859868e+05
  -1.803818e+05  -1.873540e+06
   9.478329e+05  -1.588811e+06
   4.608363e+05   4.556593e+04
  -9.169876e+05   1.091958e+06
  -1.577972e+06   3.463961e+05
  -7.557918e+05  -9.847106e+05
   4.456497e+05  -9.361549e+05
   4.020699e+05   3.257138e+05
  -8.439774e+05   6.675130e+05
  -1.599741e+06  -9.273751e+05
  -7.116414e+05  -2.852153e+06
   1.160283e+06  -2.969691e+06
   2.602763e+06  -1.124644e+06
   2.880459e+06   1.109710e+06
   2.019939e+06   2.338811e+06
   4.180785e+05   2.240941e+06
  -1.050088e+06   1.241767e+06
  -1.333591e+06   1.878676e+05
  -4.151707e+05  -3.508720e+04
   3.092598e+05   6.293750e+05
  -3.201199e+05   1.121412e+06
  -1.573696e+06   5.077493e+05
  -1.713177e+06  -7.035204e+05
  -3.533092e+05  -1.174680e+06
   9.783610e+05  -4.999081e+05
   7.732149e+05   3.799496e+05
  -7.064407e+05   4.817551e+05
  -1.878835e+06  -2.208643e+05
  -1.529995e+06  -1.143537e+06
   1.792268e+05  -1.703427e+06
   1.945689e+06  -1.436116e+06
   2.343361e+06  -2.577841e+05
   1.036249e+06   1.044912e+06
  -7.487143e+05   1.256604e+06
  -1.289748e+06   1.737675e+05
  -1.695901e+05  -8.937947e+05
   1.267117e+06  -6.298790e+05
   1.459939e+06   6.365538e+05
   3.166143e+05   1.394781e+06
  -9.041472e+05   8.562511e+05
  -1.076182e+06  -2.325421e+05
  -2.327283e+05  -6.555949e+05
   6.616190e+05  -5.969477e+04
   6.257777e+05   8.781804e+05
  -4.785401e+05   1.200863e+06
  -1.689046e+06   4.659872e+05
  -1.720606e+06  -8.724827e+05
  -3.403133e+05  -1.744299e+06
   1.195565e+06  -1.398925e+06
   1.454587e+06  -1.982078e+05
   4.389879e+05   7.281833e+05
  -5.476962e+05   6.891949e+05
  -5.443578e+05   6.462605e+04
   9.481350e+04  -3.271237e+05
   4.349203e+05  -1.941933e+05
   1.329487e+05   6.974539e+04
  -3.717135e+05  -2.972156e+04
  -4.580983e+05  -5.447914e+05
   1.491092e+05  -1.004498e+06
   1.155596e+06  -7.719266e+05
   1.760694e+06   3.308745e+05
   1.250404e+06   1.627632e+06
  -1.666209e+05   2.049059e+06
  -1.360215e+06   1.217059e+06
  -1.444784e+06  -8.833093e+04
  -7.469581e+05  -7.706375e+05
  -2.683277e+05  -5.820990e+05
  -3.809539e+05  -1.957340e+05
  -5.139843e+05  -2.455473e+05
  -8.397178e+04  -6.302102e+05
   7.278236e+05  -7.725777e+05
   1.227615e+06  -2.939196e+05
   9.044804e+05   6.107071e+05
  -1.968076e+05   1.253728e+06
  -1.451817e+06   9.291681e+05
  -1.909293e+06  -3.907741e+05
  -9.832153e+05  -1.765022e+06
   8.199866e+05  -2.008869e+06
   2.131664e+06  -9.039539e+05
   2.002887e+06   5.262071e+05
   8.395215e+05   1.130669e+06
  -1.617654e+05   8.234911e+05
  -3.447869e+05   4.465715e+05
  -8.455439e+04   6.255221e+05
  -8.436865e+04   1.084492e+06
  -5.480956e+05   1.082763e+06
  -1.080634e+06   2.777382e+05
  -1.133307e+06  -9.022623e+05
  -4.820226e+05  -1.595681e+06
   5.164822e+05  -1.217411e+06
   1.088257e+06  -1.013099e+04
   7.021252e+05   1.072114e+06
  -3.074745e+05   1.184620e+06
  -9.702763e+05   3.695219e+05
  -6.959904e+05  -5.611055e+05
   7.720921e+04  -9.025392e+05
   4.298393e+05  -6.735584e+05
   6.411950e+04  -3.619720e+05
  -3.636224e+05  -2.827739e+05
  -5.078786e+04  -3.239349e+05
   9.628784e+05  -1.907245e+05
   1.737147e+06   2.578412e+05
   1.375535e+06   8.568963e+05
  -7.159162e+03   1.207849e+06
  -1.319121e+06   9.765383e+05
  -1.542957e+06   2.578690e+05
  -7.172111e+05  -3.984132e+05
   2.078119e+05  -4.781114e+05
   4.303093e+05  -3.959971e+04
   2.845721e+04   3.453767e+05
  -3.751222e+05   2.176320e+05
  -4.078033e+05  -2.843657e+05
  -2.095134e+05  -6.068585e+05
  -7.615800e+04  -4.005314e+05
  -1.191562e+05   8.692972e+04
  -2.441170e+05   2.536909e+05
  -2.366390e+05  -1.937900e+05
   1.170403e+05  -8.351260e+05
   7.493244e+05  -9.064030e+05
   1.136007e+06  -1.589130e+05
   7.176191e+05   7.604087e+05
  -3.368664e+05   9.582639e+05
  -1.049917e+06   2.911852e+05
  -6.222176e+05  -4.794355e+05
   5.868172e+05  -5.560798e+05
   1.348297e+06   6.635689e+04
   8.671735e+05   7.254016e+05
  -3.981321e+05   8.494801e+05
  -1.270706e+06   4.244090e+05
  -1.052667e+06  -1.509593e+05
  -1.196459e+05  -4.372926e+05
   5.483358e+05  -2.360544e+05
   3.268853e+05   2.423030e+05
  -4.902120e+05   4.425621e+05
  -9.976328e+05  -6.017397e+04
  -5.737748e+05  -9.901166e+05
   4.843589e+05  -1.440124e+06
   1.245330e+06  -7.595904e+05
   1.068388e+06   6.295206e+05
   1.871966e+05   1.514351e+06
  -6.171109e+05   1.103576e+06
  -7.878895e+05  -1.405901e+05
  -3.771823e+05  -1.007768e+06
   1.782773e+05  -8.264888e+05
   4.763290e+05  -7.761488e+04
   3.978271e+05   3.181765e+05
   1.391163e+05   1.179239e+05
   4.111058e+04  -8.233993e+04
   2.413245e+05   2.431385e+05
   4.412449e+05   8.117128e+05
   1.707266e+05   9.147368e+05
  -6.022195e+05   3.448643e+05
  -1.252844e+06  -3.803224e+05
  -1.090964e+06  -6.996387e+05
  -1.638574e+05  -5.902389e+05
   7.167554e+05  -3.607865e+05
   8.320613e+05  -1.623780e+05
   3.089717e+05   3.987733e+04
  -1.199129e+05   1.916441e+05
  -3.212267e+04   1.761942e+05
   2.205815e+05   7.911299e+04
   4.538442e+04   1.106222e+05
  -5.526610e+05   2.050156e+05
  -8.859000e+05   4.276445e+03
  -3.809860e+05  -5.765182e+05
   6.923932e+05  -1.006785e+06
   1.430371e+06  -6.670425e+05
   1.204086e+06   3.406718e+05
   2.520530e+05   1.185131e+06
  -6.323720e+05   1.177263e+06
  -8.797419e+05   4.729157e+05
  -5.554237e+05  -1.857427e+05
  -1.204230e+05  -3.004112e+05
   5.190934e+04  -5.753239e+04
  -7.269114e+04   1.251114e+04
  -2.575378e+05  -3.110049e+05
  -2.174091e+05  -6.828349e+05
   1.406759e+05  -5.783755e+05
   5.750414e+05   8.904833e+04
   6.412874e+05   7.886193e+05
   1.212710e+05   8.689376e+05
  -6.263484e+05   2.261738e+05
  -8.866089e+05  -5.868233e+05
  -3.165968e+05  -9.157013e+05
   5.900188e+05  -5.896948e+05
   9.512701e+05   4.253852e+04
   4.659923e+05   5.141149e+05
  -2.304456e+05   5.859523e+05
  -3.215305e+05   3.216208e+05
   2.012286e+05   4.143030e+03
   5.470603e+05  -4.349097e+04
   1.319638e+05   2.590632e+05
  -6.894938e+05   5.860945e+05
  -1.067258e+06   4.729296e+05
  -6.581663e+05  -1.419239e+05
   6.658730e+04  -7.404895e+05
   4.602897e+05  -7.392255e+05
   3.637077e+05  -1.523607e+05
   5.601499e+04   4.000247e+05
  -1.925457e+05   3.763587e+05
  -2.973673e+05  -1.117947e+05
  -2.254919e+05  -4.841637e+05
   3.326199e+04  -3.688759e+05
   3.309886e+05   2.799752e+04
   4.118684e+05   2.344405e+05
   2.086832e+05   8.257262e+04
  -3.754468e+04  -1.312630e+05
  -7.532799e+04  -4.790220e+04
   2.505420e+04   2.902985e+05
  -1.454207e+04   4.700245e+05
  -2.564050e+05   2.032685e+05
  -4.019037e+05  -3.001772e+05
  -1.577819e+05  -5.397103e+05
   3.347913e+05  -2.760740e+05
   5.712497e+05   2.178253e+05
   2.281012e+05   4.764870e+05
  -4.256973e+05   3.203767e+05
  -7.526994e+05  -4.318359e+04
  -4.147946e+05  -3.105313e+05
   2.397698e+05  -3.506662e+05
   5.371026e+05  -2.131489e+05
   2.183295e+05  -2.352144e+04
  -2.799083e+05   6.816553e+04
  -3.393191e+05  -3.785172e+04
   1.309269e+05  -2.410418e+05
   6.111104e+05  -2.393785e+05
