
 $NMID
 id='ANONYMOUS ', fmtdat='(2E16.6)'
 volume=1.0
 tramp=1.0
 $END
   5.121096e+07  -2.967854e+05
   3.128712e+07   3.124341e+07
  -6.212548e+06   3.472204e+07
  -2.502475e+07   1.390991e+07
  -1.535635e+07  -5.952699e+06
   2.770995e+06  -8.622148e+06
   9.122796e+06   8.040275e+05
   2.851958e+06   8.935505e+06
  -5.533446e+06   8.860990e+06
  -8.890103e+06   2.072542e+06
  -6.474817e+06  -5.687994e+06
  -7.524243e+05  -7.971720e+06
   3.678637e+06  -2.486052e+06
   2.431989e+06   5.153235e+06
  -3.450810e+06   6.203603e+06
  -7.278276e+06  -1.094562e+06
  -4.193376e+06  -9.341392e+06
   3.363513e+06  -1.086963e+07
   9.204344e+06  -5.447700e+06
   9.830359e+06   1.864839e+06
   5.972685e+06   6.760455e+06
   6.541761e+05   7.733536e+06
  -2.455717e+06   5.452900e+06
  -1.441426e+06   2.630694e+06
   1.092319e+06   2.279848e+06
   8.975569e+04   4.003782e+06
  -5.167455e+06   3.975107e+06
  -8.987828e+06   3.021907e+05
  -6.444116e+06  -3.870273e+06
  -9.536826e+04  -4.600626e+06
   3.541160e+06  -2.212415e+06
   2.214888e+06   1.645265e+05
  -8.254035e+05   9.329438e+05
  -2.341511e+06   3.184924e+05
  -2.007686e+06  -1.548235e+06
  -4.584734e+05  -3.723996e+06
   1.709155e+06  -3.471906e+06
   2.817103e+06   1.720005e+05
   1.440497e+06   3.267042e+06
  -6.498938e+05   1.596006e+06
  -1.660906e+05  -2.394197e+06
   2.343880e+06  -2.184639e+06
   2.320180e+06   2.904423e+06
  -2.062998e+06   5.667538e+06
  -6.211711e+06   1.063625e+06
  -4.702678e+06  -6.208834e+06
   1.618763e+06  -7.775808e+06
   6.764849e+06  -2.250707e+06
   6.490497e+06   4.095822e+06
   1.803285e+06   5.643029e+06
  -3.242205e+06   2.604299e+06
  -4.998539e+06  -1.370703e+06
  -2.370834e+06  -3.253755e+06
   2.175982e+06  -2.096162e+06
   4.199525e+06   7.858120e+05
   1.859014e+06   2.482329e+06
  -1.560825e+06   1.280999e+06
  -1.665674e+06  -9.552780e+05
   1.154068e+06  -9.571329e+05
   2.359555e+06   1.455158e+06
  -3.527732e+05   3.112842e+06
  -4.097456e+06   1.858075e+06
  -4.892596e+06  -1.100178e+06
  -2.208201e+06  -3.602593e+06
   1.694386e+06  -4.858509e+06
   4.736350e+06  -4.442222e+06
   5.764667e+06  -1.544308e+06
   4.172950e+06   2.968785e+06
   8.216204e+05   5.742525e+06
  -1.703308e+06   4.499153e+06
  -1.635001e+06   1.270154e+06
  -2.721931e+05  -1.326074e+05
  -1.659262e+05   8.934574e+05
  -1.632981e+06   1.541134e+06
  -2.646531e+06   5.537861e+04
  -1.817276e+06  -1.949614e+06
   1.038981e+05  -2.065016e+06
   1.563066e+06  -1.269666e+05
   1.589594e+06   2.071523e+06
  -6.220823e+04   2.806359e+06
  -2.636876e+06   1.489403e+06
  -4.141248e+06  -1.193265e+06
  -2.935207e+06  -3.506100e+06
   4.850890e+04  -3.872739e+06
   2.068698e+06  -2.489336e+06
   2.030207e+06  -1.084035e+06
   1.716638e+06  -6.894279e+05
   2.809941e+06  -4.751600e+05
   4.148048e+06   7.354604e+05
   3.314109e+06   2.663510e+06
   8.840153e+04   3.956622e+06
  -3.127629e+06   3.695459e+06
  -4.036110e+06   1.942733e+06
  -2.511339e+06  -4.789158e+05
  -1.781143e+05  -2.141150e+06
   1.109673e+06  -1.802880e+06
   5.285130e+05   5.590973e+04
  -1.070759e+06   1.230134e+06
  -1.820354e+06   3.613700e+05
  -8.513032e+05  -1.148322e+06
   5.272001e+05  -1.060773e+06
   4.416711e+05   3.855640e+05
  -1.002895e+06   7.281235e+05
  -1.814524e+06  -1.142779e+06
  -7.108837e+05  -3.318339e+06
   1.455965e+06  -3.361934e+06
   3.034816e+06  -1.177795e+06
   3.252878e+06   1.377498e+06
   2.222900e+06   2.729908e+06
   4.096572e+05   2.563511e+06
  -1.229233e+06   1.391522e+06
  -1.527444e+06   1.843463e+05
  -4.746223e+05  -5.093664e+04
   3.377800e+05   7.284701e+05
  -3.980769e+05   1.280955e+06
  -1.822966e+06   5.437414e+05
  -1.949501e+06  -8.557498e+05
  -3.726703e+05  -1.360725e+06
   1.134274e+06  -5.458823e+05
   8.685468e+05   4.553817e+05
  -8.269748e+05   5.215119e+05
  -2.136378e+06  -3.173186e+05
  -1.703598e+06  -1.351342e+06
   2.600196e+05  -1.934343e+06
   2.263687e+06  -1.583707e+06
   2.687727e+06  -2.314795e+05
   1.161558e+06   1.226941e+06
  -8.910303e+05   1.427091e+06
  -1.488953e+06   1.694610e+05
  -1.769971e+05  -1.030985e+06
   1.467644e+06  -6.908216e+05
   1.655045e+06   7.697697e+05
   3.201257e+05   1.606984e+06
  -1.063844e+06   9.512626e+05
  -1.225494e+06  -3.022910e+05
  -2.444931e+05  -7.599843e+05
   7.620425e+05  -5.093013e+04
   6.950641e+05   1.021121e+06
  -5.762129e+05   1.362134e+06
  -1.943459e+06   4.919998e+05
  -1.947860e+06  -1.041286e+06
  -3.450194e+05  -2.006600e+06
   1.407448e+06  -1.571436e+06
   1.672522e+06  -1.870575e+05
   4.820287e+05   8.470085e+05
  -6.459458e+05   7.737012e+05
  -6.205588e+05   6.068859e+04
   1.209113e+05  -3.641059e+05
   4.969488e+05  -2.019961e+05
   1.371535e+05   8.252326e+04
  -4.324298e+05  -5.426999e+04
  -5.069548e+05  -6.450924e+05
   2.034518e+05  -1.147848e+06
   1.345325e+06  -8.513670e+05
   2.006375e+06   4.259409e+05
   1.388988e+06   1.895708e+06
  -2.440965e+05   2.339133e+06
  -1.588228e+06   1.351978e+06
  -1.646403e+06  -1.439412e+05
  -8.257776e+05  -8.979874e+05
  -2.873897e+05  -6.613975e+05
  -4.361036e+05  -2.254462e+05
  -5.896727e+05  -2.964503e+05
  -8.072870e+04  -7.285072e+05
   8.566027e+05  -8.633639e+05
   1.411427e+06  -2.984829e+05
   1.011957e+06   7.225986e+05
  -2.636735e+05   1.422898e+06
  -1.685519e+06   1.019382e+06
  -2.171469e+06  -4.991156e+05
  -1.075020e+06  -2.046831e+06
   9.964969e+05  -2.278271e+06
   2.467799e+06  -9.750475e+05
   2.276024e+06   6.612678e+05
   9.221094e+05   1.317209e+06
  -2.126238e+05   9.308238e+05
  -4.016036e+05   4.938585e+05
  -1.027032e+05   7.130756e+05
  -1.188194e+05   1.244511e+06
  -6.563905e+05   1.229855e+06
  -1.246744e+06   2.918100e+05
  -1.274811e+06  -1.060832e+06
  -5.110633e+05  -1.837647e+06
   6.213853e+05  -1.379476e+06
   1.244789e+06   1.782076e+04
   7.740877e+05   1.247988e+06
  -3.873533e+05   1.348544e+06
  -1.126076e+06   3.925152e+05
  -7.834329e+05  -6.689326e+05
   1.173979e+05  -1.036339e+06
   5.171198e+05  -7.592669e+05
   8.620168e+04  -4.098348e+05
  -4.098188e+05  -3.314002e+05
  -5.025191e+04  -3.712338e+05
   1.109609e+06  -1.921518e+05
   1.984692e+06   3.417404e+05
   1.551793e+06   1.018854e+06
  -4.381831e+04   1.385702e+06
  -1.539964e+06   1.085248e+06
  -1.774586e+06   2.518856e+05
  -8.092824e+05  -4.809142e+05
   2.524883e+05  -5.448873e+05
   4.954177e+05  -3.158104e+04
   2.566348e+04   3.997536e+05
  -4.331006e+05   2.402538e+05
  -4.601316e+05  -3.359752e+05
  -2.284661e+05  -6.981911e+05
  -8.117627e+04  -4.595715e+05
  -1.385516e+05   9.288607e+04
  -2.825263e+05   2.791655e+05
  -2.642677e+05  -2.286696e+05
   1.539083e+05  -9.503049e+05
   8.809181e+05  -1.017999e+06
   1.308690e+06  -1.557750e+05
   8.066327e+05   8.878107e+05
  -4.098161e+05   1.091924e+06
  -1.211557e+06   3.107334e+05
  -7.000992e+05  -5.631503e+05
   6.872735e+05  -6.201935e+05
   1.539147e+06   1.139508e+05
   9.669661e+05   8.545100e+05
  -4.828381e+05   9.580121e+05
  -1.464191e+06   4.455273e+05
  -1.196256e+06  -2.040718e+05
  -1.229227e+05  -5.024436e+05
   6.340720e+05  -2.536415e+05
   3.693258e+05   2.868117e+05
  -5.695976e+05   4.956293e+05
  -1.139689e+06  -9.084378e+04
  -6.350730e+05  -1.145074e+06
   5.857657e+05  -1.636379e+06
   1.441367e+06  -8.400288e+05
   1.206088e+06   7.456853e+05
   1.757901e+05   1.735758e+06
  -7.343284e+05   1.243714e+06
  -8.967492e+05  -1.841731e+05
  -4.022056e+05  -1.162797e+06
   2.292814e+05  -9.384370e+05
   5.478810e+05  -7.479964e+04
   4.436579e+05   3.735560e+05
   1.527168e+05   1.375155e+05
   5.044010e+04  -9.226894e+04
   2.745307e+05   2.860596e+05
   4.856261e+05   9.403614e+05
   1.678521e+05   1.050013e+06
  -7.020620e+05   3.785587e+05
  -1.422305e+06  -4.670155e+05
  -1.225879e+06  -8.284276e+05
  -1.717259e+05  -6.800279e+05
   8.257077e+05  -3.943114e+05
   9.545453e+05  -1.629722e+05
   3.551904e+05   5.531525e+04
  -1.407178e+05   2.164498e+05
  -4.528283e+04   1.991334e+05
   2.458344e+05   9.415370e+04
   5.058629e+04   1.271475e+05
  -6.326670e+05   2.216184e+05
  -1.013617e+06  -1.616021e+04
  -4.272480e+05  -6.691647e+05
   8.131286e+05  -1.136236e+06
   1.655265e+06  -7.301558e+05
   1.373473e+06   4.172476e+05
   2.600188e+05   1.360967e+06
  -7.538587e+05   1.331906e+06
  -1.017846e+06   5.214620e+05
  -6.296844e+05  -2.241108e+05
  -1.319092e+05  -3.464194e+05
   5.707755e+04  -6.659004e+04
  -8.496628e+04   9.800702e+03
  -2.848871e+05  -3.634906e+05
  -2.299252e+05  -7.864394e+05
   1.743421e+05  -6.587447e+05
   6.543826e+05   1.134451e+05
   7.160274e+05   9.150234e+05
   1.215513e+05   9.969913e+05
  -7.193636e+05   2.467691e+05
  -1.000516e+06  -6.896166e+05
  -3.418879e+05  -1.055265e+06
   6.886932e+05  -6.625925e+05
   1.088749e+06   7.109255e+04
   5.225064e+05   6.020447e+05
  -2.781488e+05   6.678744e+05
  -3.787458e+05   3.608673e+05
   2.265635e+05   8.697297e+03
   6.258134e+05  -3.656887e+04
   1.457163e+05   3.002074e+05
  -8.032351e+05   6.527175e+05
  -1.235636e+06   5.119513e+05
  -7.529703e+05  -1.812118e+05
   9.413420e+04  -8.466982e+05
   5.478188e+05  -8.357208e+05
   4.231106e+05  -1.679757e+05
   5.587111e+04   4.573749e+05
  -2.288017e+05   4.275227e+05
  -3.369330e+05  -1.321686e+05
  -2.463853e+05  -5.592099e+05
   4.613846e+04  -4.238958e+05
   3.779293e+05   3.880724e+04
   4.665575e+05   2.804517e+05
   2.368311e+05   1.015985e+05
  -4.146214e+04  -1.533948e+05
  -8.539087e+04  -6.176162e+04
   2.572537e+04   3.303119e+05
  -2.178025e+04   5.402886e+05
  -2.959101e+05   2.318004e+05
  -4.562291e+05  -3.492084e+05
  -1.727134e+05  -6.203179e+05
   3.880280e+05  -3.089460e+05
   6.499597e+05   2.609939e+05
   2.506527e+05   5.492086e+05
  -4.957262e+05   3.564490e+05
  -8.616223e+05  -6.638087e+04
  -4.677285e+05  -3.652399e+05
   2.826889e+05  -3.975905e+05
   6.202450e+05  -2.336092e+05
   2.528230e+05  -2.221502e+04
  -3.181176e+05   7.346473e+04
  -3.855814e+05  -4.812200e+04
   1.529161e+05  -2.701587e+05
   7.001355e+05  -2.586021e+05
