
 $NMID
 id='ANONYMOUS ', fmtdat='(2E16.6)'
 volume=1.0
 tramp=1.0
 $END
   5.859403e+07   6.711316e+05
   3.455639e+07   3.714080e+07
  -8.632257e+06   3.965346e+07
  -2.899823e+07   1.437539e+07
  -1.677116e+07  -7.992788e+06
   3.807936e+06  -9.588989e+06
   1.007718e+07   1.736653e+06
   2.436063e+06   1.019787e+07
  -6.721147e+06   9.262805e+06
  -9.975019e+06   1.685828e+06
  -7.083070e+06  -6.453629e+06
  -7.492924e+05  -8.766134e+06
   4.099333e+06  -2.832872e+06
   2.600572e+06   5.425657e+06
  -3.988248e+06   6.473375e+06
  -8.063867e+06  -1.612701e+06
  -4.355964e+06  -1.059704e+07
   4.127048e+06  -1.208456e+07
   1.053121e+07  -5.984445e+06
   1.121544e+07   2.184090e+06
   6.920899e+06   7.847886e+06
   6.983424e+05   9.154277e+06
  -3.266393e+06   6.406007e+06
  -2.296143e+06   2.657684e+06
   9.311000e+05   1.888732e+06
   3.547757e+05   4.040920e+06
  -5.311247e+06   4.492175e+06
  -9.746894e+06   6.005321e+05
  -7.226231e+06  -4.184333e+06
  -4.119253e+05  -5.224458e+06
   3.639979e+06  -2.768315e+06
   2.561432e+06  -2.335571e+05
  -3.298386e+05   7.991724e+05
  -2.015981e+06   5.747396e+05
  -2.192466e+06  -1.211255e+06
  -8.670574e+05  -3.864037e+06
   1.795132e+06  -4.017112e+06
   3.481781e+06  -8.738974e+03
   1.914220e+06   3.794433e+06
  -8.314081e+05   2.193441e+06
  -4.715228e+05  -2.325761e+06
   2.467827e+06  -2.249123e+06
   2.421866e+06   3.357167e+06
  -2.739273e+06   6.297748e+06
  -7.383306e+06   8.928631e+05
  -5.254062e+06  -7.330419e+06
   2.167898e+06  -8.853696e+06
   7.724286e+06  -2.411560e+06
   6.990352e+06   4.650086e+06
   1.699411e+06   6.136691e+06
  -3.577615e+06   2.623101e+06
  -5.224910e+06  -1.698109e+06
  -2.295986e+06  -3.599969e+06
   2.574790e+06  -2.172479e+06
   4.625764e+06   1.065373e+06
   1.918124e+06   2.855179e+06
  -1.802310e+06   1.379258e+06
  -1.707552e+06  -1.078094e+06
   1.464990e+06  -8.321795e+05
   2.491400e+06   2.014338e+06
  -8.721411e+05   3.647637e+06
  -4.968897e+06   1.847071e+06
  -5.460025e+06  -1.598069e+06
  -2.281649e+06  -4.185299e+06
   1.862156e+06  -5.367800e+06
   5.042971e+06  -4.914421e+06
   6.290036e+06  -1.795676e+06
   4.714417e+06   3.200164e+06
   9.565939e+05   6.272354e+06
  -1.995822e+06   4.777716e+06
  -1.856718e+06   1.082694e+06
  -6.916650e+04  -4.038481e+05
   2.322999e+05   9.615466e+05
  -1.463573e+06   1.904585e+06
  -2.796419e+06   3.946075e+05
  -2.091223e+06  -1.806057e+06
  -1.292273e+05  -2.088135e+06
   1.448571e+06  -2.369650e+05
   1.633619e+06   1.997717e+06
   2.776966e+04   2.906458e+06
  -2.762575e+06   1.705390e+06
  -4.555370e+06  -1.159549e+06
  -3.320811e+06  -3.843953e+06
   4.482209e+04  -4.380575e+06
   2.394580e+06  -2.812280e+06
   2.354006e+06  -1.127330e+06
   1.890223e+06  -6.185183e+05
   2.954954e+06  -4.067850e+05
   4.339558e+06   8.310713e+05
   3.448926e+06   2.807024e+06
   8.848856e+04   4.112558e+06
  -3.206362e+06   3.865178e+06
  -4.144013e+06   2.130446e+06
  -2.664982e+06  -3.724106e+05
  -3.346864e+05  -2.214158e+06
   1.057174e+06  -1.957912e+06
   5.715740e+05   1.574851e+04
  -1.074298e+06   1.312534e+06
  -1.923410e+06   3.913573e+05
  -9.438114e+05  -1.223961e+06
   5.009376e+05  -1.107356e+06
   3.800321e+05   3.965129e+05
  -1.132030e+06   6.121296e+05
  -1.828607e+06  -1.457299e+06
  -4.667378e+05  -3.577222e+06
   1.797215e+06  -3.299965e+06
   3.191424e+06  -8.946642e+05
   3.186599e+06   1.571423e+06
   2.128166e+06   2.737420e+06
   3.986168e+05   2.543278e+06
  -1.225298e+06   1.442499e+06
  -1.560010e+06   2.325901e+05
  -4.907032e+05  -4.961054e+04
   3.485984e+05   7.556746e+05
  -4.455571e+05   1.353741e+06
  -1.947918e+06   5.596996e+05
  -2.037843e+06  -9.421405e+05
  -3.501520e+05  -1.445093e+06
   1.185925e+06  -5.466298e+05
   8.531104e+05   4.666134e+05
  -8.718993e+05   4.592206e+05
  -2.126328e+06  -4.014826e+05
  -1.648438e+06  -1.368028e+06
   3.048619e+05  -1.908561e+06
   2.308996e+06  -1.585601e+06
   2.761000e+06  -2.327200e+05
   1.205399e+06   1.294621e+06
  -9.488829e+05   1.520568e+06
  -1.596468e+06   1.794148e+05
  -2.083572e+05  -1.102642e+06
   1.531241e+06  -7.282046e+05
   1.704623e+06   8.168089e+05
   2.853654e+05   1.656824e+06
  -1.128103e+06   9.275268e+05
  -1.239826e+06  -3.677969e+05
  -2.039868e+05  -7.963774e+05
   8.178442e+05  -3.827324e+04
   7.354312e+05   1.067648e+06
  -5.805125e+05   1.426541e+06
  -2.010602e+06   5.374400e+05
  -2.033378e+06  -1.063092e+06
  -3.638126e+05  -2.084645e+06
   1.470340e+06  -1.627960e+06
   1.733131e+06  -1.773570e+05
   4.771160e+05   8.811314e+05
  -6.750541e+05   7.858218e+05
  -6.136299e+05   7.290836e+04
   1.375550e+05  -3.213754e+05
   4.612592e+05  -1.670078e+05
   6.254557e+04   5.266998e+04
  -4.742120e+05  -1.355161e+05
  -4.888340e+05  -7.178629e+05
   2.500754e+05  -1.188934e+06
   1.401376e+06  -8.707038e+05
   2.075720e+06   4.410367e+05
   1.446608e+06   1.959036e+06
  -2.385946e+05   2.407192e+06
  -1.619250e+06   1.365905e+06
  -1.654693e+06  -1.629887e+05
  -8.052765e+05  -8.738171e+05
  -3.008261e+05  -5.879878e+05
  -5.103773e+05  -1.858714e+05
  -6.621616e+05  -3.365745e+05
  -8.717015e+04  -7.906778e+05
   8.964520e+05  -8.814897e+05
   1.438531e+06  -2.871133e+05
   1.009308e+06   7.216473e+05
  -2.823776e+05   1.417247e+06
  -1.723090e+06   1.027253e+06
  -2.222868e+06  -5.111871e+05
  -1.088634e+06  -2.112350e+06
   1.063816e+06  -2.350627e+06
   2.570121e+06  -9.783803e+05
   2.319994e+06   7.158173e+05
   8.908618e+05   1.343622e+06
  -2.388912e+05   8.977281e+05
  -3.611920e+05   4.686023e+05
  -3.166575e+04   7.592754e+05
  -9.095053e+04   1.338171e+06
  -6.917661e+05   1.303968e+06
  -1.311452e+06   3.134036e+05
  -1.333657e+06  -1.086560e+06
  -5.438082e+05  -1.893046e+06
   6.277609e+05  -1.428747e+06
   1.278380e+06   2.069661e+04
   7.875893e+05   1.303490e+06
  -4.292969e+05   1.389962e+06
  -1.192222e+06   3.598974e+05
  -8.029738e+05  -7.520867e+05
   1.684583e+05  -1.096706e+06
   5.847345e+05  -7.663465e+05
   1.049375e+05  -3.955646e+05
  -4.383659e+05  -3.294507e+05
  -6.230469e+04  -3.792368e+05
   1.162528e+06  -1.927189e+05
   2.076085e+06   3.599707e+05
   1.603764e+06   1.063532e+06
  -7.870406e+04   1.450026e+06
  -1.628103e+06   1.131369e+06
  -1.840009e+06   2.402153e+05
  -8.147065e+05  -5.362291e+05
   2.810558e+05  -5.816471e+05
   5.195979e+05  -1.350029e+04
   3.727400e+04   4.434523e+05
  -4.319490e+05   2.624118e+05
  -4.828708e+05  -3.439432e+05
  -2.773999e+05  -7.167207e+05
  -1.198722e+05  -4.786124e+05
  -1.330406e+05   7.378820e+04
  -2.567603e+05   2.663183e+05
  -2.671907e+05  -2.367222e+05
   1.326006e+05  -9.740085e+05
   9.061390e+05  -1.063121e+06
   1.396272e+06  -1.836950e+05
   8.799285e+05   9.188365e+05
  -4.228724e+05   1.162687e+06
  -1.279495e+06   3.575832e+05
  -7.343902e+05  -5.661816e+05
   7.125256e+05  -6.350736e+05
   1.568164e+06   1.241580e+05
   9.536331e+05   8.741071e+05
  -5.198415e+05   9.538861e+05
  -1.486205e+06   4.208176e+05
  -1.196709e+06  -2.219709e+05
  -1.133708e+05  -5.046807e+05
   6.526089e+05  -2.474339e+05
   3.916532e+05   3.071423e+05
  -5.711886e+05   5.362655e+05
  -1.185479e+06  -5.931920e+04
  -6.992976e+05  -1.169295e+06
   5.554011e+05  -1.714164e+06
   1.465613e+06  -9.065774e+05
   1.254061e+06   7.443289e+05
   2.034159e+05   1.778504e+06
  -7.399174e+05   1.267765e+06
  -9.126784e+05  -2.025653e+05
  -3.995864e+05  -1.190782e+06
   2.539650e+05  -9.437121e+05
   5.692202e+05  -6.682154e+04
   4.389723e+05   3.704583e+05
   1.358366e+05   1.269249e+05
   5.869263e+04  -8.556513e+04
   3.159365e+05   3.166462e+05
   5.192121e+05   9.733650e+05
   1.535572e+05   1.066313e+06
  -7.513121e+05   3.823173e+05
  -1.462310e+06  -4.655753e+05
  -1.240413e+06  -8.346886e+05
  -1.780700e+05  -7.030764e+05
   8.220088e+05  -4.218262e+05
   9.691321e+05  -1.693213e+05
   3.831555e+05   7.287293e+04
  -1.337492e+05   2.288000e+05
  -7.003740e+04   1.841970e+05
   2.273273e+05   7.072450e+04
   6.598765e+04   1.314021e+05
  -6.189581e+05   2.547962e+05
  -1.050633e+06   3.546473e+03
  -4.920334e+05  -7.000712e+05
   7.994360e+05  -1.205887e+06
   1.723060e+06  -7.903775e+05
   1.462763e+06   4.044425e+05
   2.983259e+05   1.396981e+06
  -7.710178e+05   1.390689e+06
  -1.048243e+06   5.711146e+05
  -6.516233e+05  -2.050122e+05
  -1.534859e+05  -3.591605e+05
   3.585796e+04  -9.352076e+04
  -9.252949e+04  -1.170514e+04
  -2.819702e+05  -3.771225e+05
  -2.346294e+05  -8.053359e+05
   1.667217e+05  -6.894342e+05
   6.751246e+05   8.669796e+04
   7.730570e+05   9.182694e+05
   1.709359e+05   1.037388e+06
  -7.272066e+05   2.968630e+05
  -1.057039e+06  -6.731060e+05
  -3.861123e+05  -1.089645e+06
   7.013297e+05  -7.157260e+05
   1.140392e+06   5.303253e+04
   5.594085e+05   6.374752e+05
  -2.857489e+05   7.188557e+05
  -4.110682e+05   3.782789e+05
   2.098704e+05  -1.045209e+04
   6.390503e+05  -5.239826e+04
   1.624605e+05   3.147944e+05
  -8.186086e+05   6.806377e+05
  -1.285337e+06   5.200310e+05
  -8.006091e+05  -2.032314e+05
   8.534063e+04  -8.856845e+05
   5.788837e+05  -8.751959e+05
   4.647160e+05  -1.923059e+05
   8.066292e+04   4.633336e+05
  -2.281565e+05   4.598032e+05
  -3.533988e+05  -1.076177e+05
  -2.662744e+05  -5.732763e+05
   3.999404e+04  -4.610725e+05
   3.938942e+05   2.436002e+04
   4.899156e+05   3.009841e+05
   2.426444e+05   1.162209e+05
  -5.272072e+04  -1.790151e+05
  -8.055120e+04  -1.010501e+05
   6.788966e+04   3.327093e+05
   2.638031e+04   5.946202e+05
  -2.967824e+05   2.904351e+05
  -5.141243e+05  -3.323599e+05
  -2.307560e+05  -6.433930e+05
   3.862608e+05  -3.393486e+05
   6.943493e+05   2.471185e+05
   2.816223e+05   5.560886e+05
  -5.141019e+05   3.773635e+05
  -9.069160e+05  -4.771666e+04
  -4.955997e+05  -3.707651e+05
   2.897334e+05  -4.326513e+05
   6.480035e+05  -2.712422e+05
   2.802156e+05  -2.638211e+04
  -3.052780e+05   1.061156e+05
  -3.944523e+05  -1.444777e+04
   1.283651e+05  -2.700902e+05
   6.832871e+05  -2.869490e+05
