
 $NMID
 id='ANONYMOUS ', fmtdat='(2E16.6)'
 volume=1.0
 tramp=1.0
 $END
  -4.829936e+07  -1.855394e+05
  -2.962604e+07  -2.880200e+07
   5.352188e+06  -3.240013e+07
   2.334052e+07  -1.389760e+07
   1.485266e+07   4.688593e+06
  -2.174877e+06   8.183268e+06
  -8.763033e+06  -1.275487e+05
  -3.267130e+06  -8.358144e+06
   4.884255e+06  -9.000633e+06
   8.496617e+06  -2.437949e+06
   6.304363e+06   5.543117e+06
   6.860043e+05   7.892626e+06
  -3.660330e+06   2.282389e+06
  -2.456905e+06  -5.378846e+06
   3.245942e+06  -6.392924e+06
   7.034307e+06   8.164078e+05
   4.175320e+06   8.945706e+06
  -3.119162e+06   1.048438e+07
  -8.806819e+06   5.154435e+06
  -9.282256e+06  -1.982896e+06
  -5.353273e+06  -6.486709e+06
  -3.676530e+05  -7.029930e+06
   2.072006e+06  -4.806016e+06
   6.958050e+05  -2.625248e+06
  -1.489336e+06  -2.824480e+06
   1.339906e+05  -4.409018e+06
   5.601776e+06  -3.840041e+06
   9.135190e+06   8.463541e+04
   6.204233e+06   4.061196e+06
  -3.423172e+05   4.481556e+06
  -3.899558e+06   1.862104e+06
  -2.180502e+06  -6.529851e+05
   1.351495e+06  -1.295063e+06
   2.947015e+06  -2.062182e+05
   2.115601e+06   2.049022e+06
   9.781430e+04   4.025027e+06
  -1.885868e+06   3.239346e+06
  -2.458378e+06  -5.169049e+05
  -9.882638e+05  -3.153001e+06
   6.751600e+05  -1.104261e+06
  -7.930171e+04   2.764301e+06
  -2.428986e+06   2.313697e+06
  -2.336083e+06  -2.722415e+06
   1.694368e+06  -5.398169e+06
   5.559647e+06  -1.076655e+06
   4.345262e+06   5.766999e+06
  -1.434197e+06   7.288810e+06
  -6.453955e+06   2.108252e+06
  -6.483774e+06  -3.990105e+06
  -1.997957e+06  -5.623303e+06
   3.184330e+06  -2.764894e+06
   5.156057e+06   1.181487e+06
   2.598662e+06   3.158531e+06
  -1.980345e+06   2.118910e+06
  -4.089696e+06  -6.563692e+05
  -1.888655e+06  -2.333488e+06
   1.479912e+06  -1.246718e+06
   1.750188e+06   9.155338e+05
  -9.099396e+05   1.093405e+06
  -2.305973e+06  -1.046467e+06
  -1.382466e+04  -2.728967e+06
   3.585910e+06  -1.845091e+06
   4.651983e+06   8.073640e+05
   2.217831e+06   3.348740e+06
  -1.765932e+06   4.771139e+06
  -4.943152e+06   4.350207e+06
  -5.821842e+06   1.357112e+06
  -3.986237e+06  -3.112054e+06
  -6.800404e+05  -5.767633e+06
   1.594416e+06  -4.569882e+06
   1.494690e+06  -1.529018e+06
   4.217537e+05  -1.862828e+05
   5.863198e+05  -1.022651e+06
   2.038171e+06  -1.386363e+06
   2.834997e+06   2.917499e+05
   1.769678e+06   2.329016e+06
  -3.331627e+05   2.295167e+06
  -1.849805e+06   7.340395e+04
  -1.731397e+06  -2.332504e+06
   1.572991e+05  -2.988599e+06
   2.797042e+06  -1.402995e+06
   4.130137e+06   1.405040e+06
   2.766118e+06   3.563347e+06
  -1.519972e+05   3.722800e+06
  -1.993043e+06   2.330516e+06
  -1.892441e+06   1.076053e+06
  -1.674422e+06   7.962024e+05
  -2.901419e+06   5.788458e+05
  -4.322474e+06  -7.141460e+05
  -3.475255e+06  -2.765914e+06
  -9.640037e+04  -4.165160e+06
   3.343931e+06  -3.879930e+06
   4.329920e+06  -1.948271e+06
   2.622025e+06   6.454906e+05
   3.996740e+04   2.306104e+06
  -1.287092e+06   1.837661e+06
  -5.438433e+05  -1.096630e+05
   1.177238e+06  -1.270522e+06
   1.889410e+06  -3.527557e+05
   8.265464e+05   1.195464e+06
  -6.055740e+05   1.121361e+06
  -5.441530e+05  -3.923381e+05
   9.304812e+05  -8.865141e+05
   1.896940e+06   9.211798e+05
   9.850187e+05   3.292941e+06
  -1.198125e+06   3.655342e+06
  -3.068826e+06   1.558148e+06
  -3.579551e+06  -1.256810e+06
  -2.548268e+06  -2.922721e+06
  -4.914243e+05  -2.811951e+06
   1.344195e+06  -1.483158e+06
   1.645317e+06  -1.605792e+05
   5.023627e+05   5.597083e+04
  -3.578696e+05  -7.688472e+05
   3.953642e+05  -1.318186e+06
   1.866146e+06  -5.617662e+05
   2.025499e+06   8.544452e+05
   4.175902e+05   1.392985e+06
  -1.184876e+06   5.915045e+05
  -9.662860e+05  -4.762710e+05
   8.380665e+05  -6.308360e+05
   2.326404e+06   2.368262e+05
   1.926504e+06   1.427190e+06
  -2.121795e+05   2.129799e+06
  -2.411260e+06   1.739418e+06
  -2.859428e+06   2.596145e+05
  -1.217882e+06  -1.272013e+06
   9.266570e+05  -1.457834e+06
   1.519150e+06  -1.601367e+05
   1.517530e+05   1.061637e+06
  -1.543454e+06   7.144321e+05
  -1.752936e+06  -7.910844e+05
  -3.859135e+05  -1.692600e+06
   1.082805e+06  -1.054668e+06
   1.309173e+06   2.582990e+05
   3.030665e+05   7.818032e+05
  -7.758938e+05   6.070621e+04
  -7.189900e+05  -1.074783e+06
   6.283756e+05  -1.431050e+06
   2.064271e+06  -4.957850e+05
   2.048211e+06   1.118099e+06
   3.580416e+05   2.115322e+06
  -1.473210e+06   1.657042e+06
  -1.760321e+06   2.140871e+05
  -5.286429e+05  -8.849208e+05
   6.734456e+05  -8.305926e+05
   6.873108e+05  -6.019730e+04
  -1.018472e+05   4.390794e+05
  -5.689720e+05   2.708486e+05
  -2.343013e+05  -9.969797e+04
   4.098437e+05  -1.711413e+04
   5.607679e+05   6.207957e+05
  -1.729879e+05   1.203171e+06
  -1.409333e+06   9.113684e+05
  -2.123545e+06  -4.465797e+05
  -1.463667e+06  -2.007807e+06
   2.650791e+05  -2.490431e+06
   1.692674e+06  -1.470369e+06
   1.785281e+06   1.230655e+05
   9.369336e+05   9.892713e+05
   3.263319e+05   7.940834e+05
   4.156455e+05   2.992662e+05
   5.657605e+05   2.959181e+05
   7.500046e+04   7.344233e+05
  -8.898509e+05   9.245751e+05
  -1.508114e+06   3.474582e+05
  -1.117129e+06  -7.769030e+05
   2.511522e+05  -1.557824e+06
   1.794306e+06  -1.115134e+06
   2.323187e+06   5.227318e+05
   1.165316e+06   2.163093e+06
  -1.016844e+06   2.409921e+06
  -2.584595e+06   1.060643e+06
  -2.434354e+06  -6.561774e+05
  -1.044135e+06  -1.394684e+06
   1.882218e+05  -1.044534e+06
   4.667443e+05  -5.788159e+05
   1.867272e+05  -7.521584e+05
   1.683873e+05  -1.274347e+06
   6.879831e+05  -1.267057e+06
   1.299869e+06  -2.935229e+05
   1.338176e+06   1.134869e+06
   5.303159e+05   1.955035e+06
  -6.708893e+05   1.462259e+06
  -1.325769e+06  -1.279788e+04
  -8.307011e+05  -1.303743e+06
   3.783348e+05  -1.425011e+06
   1.152272e+06  -4.555553e+05
   8.223157e+05   6.452848e+05
  -8.231356e+04   1.060555e+06
  -4.922338e+05   8.106053e+05
  -6.817211e+04   4.575204e+05
   4.234369e+05   3.660112e+05
   4.543018e+04   3.996514e+05
  -1.157276e+06   2.080592e+05
  -2.076252e+06  -3.568060e+05
  -1.642758e+06  -1.065530e+06
   1.553908e+04  -1.442038e+06
   1.595350e+06  -1.133512e+06
   1.867665e+06  -2.878869e+05
   8.693149e+05   4.641351e+05
  -2.509375e+05   5.542960e+05
  -5.122349e+05   5.156456e+04
  -1.049029e+04  -3.955297e+05
   4.760638e+05  -2.450427e+05
   4.811030e+05   3.593316e+05
   2.041062e+05   7.530818e+05
   5.058123e+04   4.914201e+05
   1.506916e+05  -1.232304e+05
   3.279950e+05  -3.272635e+05
   2.871606e+05   2.392908e+05
  -1.839861e+05   1.021440e+06
  -9.375922e+05   1.070948e+06
  -1.348652e+06   1.353063e+05
  -8.106107e+05  -9.484278e+05
   4.405783e+05  -1.123858e+06
   1.264054e+06  -2.892853e+05
   7.355228e+05   6.127496e+05
  -7.225079e+05   6.631239e+05
  -1.649996e+06  -1.055878e+05
  -1.072627e+06  -9.001318e+05
   4.796088e+05  -1.045630e+06
   1.566015e+06  -5.202799e+05
   1.303264e+06   1.930847e+05
   1.480904e+05   5.427580e+05
  -6.701927e+05   2.847292e+05
  -3.793226e+05  -2.952425e+05
   6.253824e+05  -5.067872e+05
   1.208058e+06   1.298171e+05
   6.359640e+05   1.235515e+06
  -6.715207e+05   1.723116e+06
  -1.556974e+06   8.602426e+05
  -1.277091e+06  -8.145616e+05
  -1.720109e+05  -1.857413e+06
   7.892399e+05  -1.340038e+06
   9.607687e+05   1.777392e+05
   4.467166e+05   1.237354e+06
  -2.180698e+05   1.015965e+06
  -5.748430e+05   9.001752e+04
  -4.935963e+05  -4.054147e+05
  -1.871916e+05  -1.551816e+05
  -4.450222e+04   1.056566e+05
  -2.547192e+05  -2.895857e+05
  -4.985679e+05  -9.974698e+05
  -2.035387e+05  -1.125137e+06
   7.153321e+05  -4.046845e+05
   1.518248e+06   5.066002e+05
   1.330635e+06   8.893184e+05
   1.827109e+05   7.194684e+05
  -9.073904e+05   4.126382e+05
  -1.027545e+06   1.777987e+05
  -3.567087e+05  -4.621166e+04
   1.612513e+05  -2.270351e+05
   1.954552e+04  -2.263268e+05
  -2.932909e+05  -1.188786e+05
  -4.060379e+04  -1.380658e+05
   7.098230e+05  -2.192091e+05
   1.075263e+06   3.568861e+04
   4.022859e+05   7.114407e+05
  -9.063369e+05   1.183404e+06
  -1.747522e+06   7.383680e+05
  -1.419007e+06  -4.754551e+05
  -2.514275e+05  -1.456810e+06
   8.067010e+05  -1.399973e+06
   1.088065e+06  -5.237928e+05
   6.729562e+05   2.622981e+05
   1.234160e+05   3.697425e+05
  -8.890262e+04   5.206089e+04
   8.012102e+04  -3.085504e+04
   3.143328e+05   3.799789e+05
   2.496839e+05   8.390645e+05
  -1.987895e+05   6.927040e+05
  -7.017132e+05  -1.486396e+05
  -7.340237e+05  -1.002322e+06
  -8.447582e+04  -1.059275e+06
   7.870133e+05  -2.254944e+05
   1.047494e+06   7.724142e+05
   3.322560e+05   1.125291e+06
  -7.453532e+05   6.751632e+05
  -1.142995e+06  -9.662474e+04
  -5.319962e+05  -6.261619e+05
   3.016534e+05  -6.803458e+05
   3.825810e+05  -3.730885e+05
  -2.680780e+05  -2.192051e+04
  -6.735595e+05   2.765431e+04
  -1.422653e+05  -3.158830e+05
   8.618806e+05  -6.894627e+05
   1.296984e+06  -5.513577e+05
   7.718181e+05   1.800750e+05
  -1.122447e+05   8.890270e+05
  -5.686062e+05   8.716656e+05
  -4.251966e+05   1.539614e+05
  -3.990103e+04  -4.986808e+05
   2.537062e+05  -4.375447e+05
   3.587807e+05   1.687750e+05
   2.517336e+05   5.988937e+05
  -6.095486e+04   4.282443e+05
  -4.007042e+05  -5.656644e+04
  -4.842973e+05  -2.869744e+05
  -2.503323e+05  -9.558590e+04
   2.969436e+04   1.446809e+05
   8.924506e+04   2.698936e+04
   1.049157e+04  -3.679436e+05
   7.841723e+04  -5.481784e+05
   3.336914e+05  -1.983438e+05
   4.487642e+05   4.068256e+05
   1.324501e+05   6.665309e+05
  -4.293807e+05   3.117898e+05
  -6.719527e+05  -3.024660e+05
  -2.472016e+05  -5.976222e+05
   5.245377e+05  -3.692584e+05
   9.013175e+05   9.287772e+04
   4.855958e+05   3.952583e+05
  -3.060836e+05   4.007857e+05
  -6.564402e+05   2.176618e+05
  -2.498163e+05   1.618703e+04
   3.668778e+05  -5.431570e+04
   4.205891e+05   8.385785e+04
  -1.883431e+05   3.022625e+05
  -7.848886e+05   2.653947e+05
