
 $NMID
 id='ANONYMOUS ', fmtdat='(2E16.6)'
 volume=1.0
 tramp=1.0
 $END
  -3.574607e+07   1.663087e+06
  -2.328743e+07  -1.922678e+07
   1.977516e+06  -2.379783e+07
   1.626577e+07  -1.210422e+07
   1.146794e+07   1.824433e+06
  -7.913015e+05   6.167454e+06
  -6.585249e+06   9.622594e+05
  -3.376793e+06  -5.902311e+06
   2.792775e+06  -7.493310e+06
   6.232676e+06  -2.691095e+06
   5.134889e+06   3.966903e+06
   8.851985e+05   6.182952e+06
  -2.804118e+06   1.815994e+06
  -2.289308e+06  -4.363706e+06
   2.034151e+06  -5.416935e+06
   5.382318e+06   4.315436e+04
   3.732463e+06   6.526214e+06
  -1.742821e+06   8.111797e+06
  -6.390039e+06   4.239717e+06
  -6.980527e+06  -1.259462e+06
  -3.986959e+06  -4.683602e+06
  -3.214143e+05  -4.941056e+06
   1.103589e+06  -3.287335e+06
  -2.769207e+05  -2.042982e+06
  -1.755980e+06  -2.633969e+06
   4.185439e+04  -3.913090e+06
   4.671135e+06  -3.267935e+06
   7.449405e+06  -6.802652e+04
   4.947944e+06   3.110134e+06
  -4.574363e+05   3.523179e+06
  -3.378942e+06   1.400387e+06
  -1.789563e+06  -8.644421e+05
   1.462521e+06  -1.493496e+06
   2.910009e+06  -2.727944e+05
   1.935700e+06   1.979181e+06
  -2.568752e+04   3.513787e+06
  -1.522422e+06   2.471593e+06
  -1.681566e+06  -6.451611e+05
  -5.172462e+05  -2.396825e+06
   5.507976e+05  -4.569435e+05
  -1.104592e+05   2.572691e+06
  -1.876339e+06   2.095222e+06
  -1.998791e+06  -1.873347e+06
   7.433937e+05  -4.096988e+06
   3.753812e+06  -1.099314e+06
   3.385149e+06   3.977791e+06
  -6.275221e+05   5.398261e+06
  -4.742891e+06   1.854680e+06
  -5.350494e+06  -2.730918e+06
  -2.065437e+06  -4.328849e+06
   2.318965e+06  -2.512695e+06
   4.293746e+06   4.762463e+05
   2.435677e+06   2.268991e+06
  -1.283086e+06   1.797247e+06
  -3.176814e+06  -1.967542e+05
  -1.639434e+06  -1.620349e+06
   1.041353e+06  -1.033675e+06
   1.517439e+06   5.927512e+05
  -4.256542e+05   1.025360e+06
  -1.802540e+06  -3.339427e+05
  -4.627437e+05  -1.778658e+06
   2.276862e+06  -1.596176e+06
   3.488247e+06   1.479970e+05
   1.923137e+06   2.308168e+06
  -1.229688e+06   3.808681e+06
  -3.903893e+06   3.648795e+06
  -4.628245e+06   1.213626e+06
  -3.171062e+06  -2.417788e+06
  -7.117610e+05  -4.588816e+06
   9.224309e+05  -3.773435e+06
   9.550355e+05  -1.519753e+06
   4.345275e+05  -4.781292e+05
   7.897827e+05  -1.003539e+06
   1.938763e+06  -1.106388e+06
   2.480004e+06   3.864053e+05
   1.524428e+06   2.118834e+06
  -3.357240e+05   2.083204e+06
  -1.742968e+06   1.353723e+05
  -1.660225e+06  -1.995090e+06
   3.888523e+04  -2.566808e+06
   2.310126e+06  -1.198493e+06
   3.368813e+06   1.100112e+06
   2.232842e+06   2.759131e+06
  -3.837228e+04   2.837588e+06
  -1.407538e+06   1.799810e+06
  -1.319504e+06   9.318618e+05
  -1.238555e+06   8.158883e+05
  -2.350511e+06   7.192112e+05
  -3.633695e+06  -3.026451e+05
  -3.068414e+06  -2.095894e+06
  -3.243168e+05  -3.500626e+06
   2.637622e+06  -3.454312e+06
   3.614702e+06  -1.810654e+06
   2.240308e+06   5.206829e+05
   4.070677e+04   2.000531e+06
  -1.091292e+06   1.580053e+06
  -4.605017e+05  -1.077252e+05
   9.647761e+05  -1.122538e+06
   1.551750e+06  -3.800342e+05
   7.032613e+05   9.551774e+05
  -4.914039e+05   9.910467e+05
  -5.529326e+05  -2.785810e+05
   6.083330e+05  -8.973375e+05
   1.612612e+06   4.141331e+05
   1.211262e+06   2.514959e+06
  -4.901559e+05   3.219652e+06
  -2.352413e+06   1.759918e+06
  -3.205326e+06  -6.670755e+05
  -2.502564e+06  -2.339402e+06
  -6.393331e+05  -2.434350e+06
   1.089623e+06  -1.346145e+06
   1.413048e+06  -2.026008e+05
   4.289660e+05   2.078308e+04
  -3.488555e+05  -6.282632e+05
   2.375925e+05  -1.104636e+06
   1.493454e+06  -5.677150e+05
   1.728995e+06   5.636545e+05
   4.528985e+05   1.113407e+06
  -9.538847e+05   5.836299e+05
  -8.893395e+05  -3.357763e+05
   6.298670e+05  -6.496471e+05
   2.030677e+06  -3.015224e+04
   1.823345e+06   1.080979e+06
   8.446466e+03   1.882723e+06
  -1.948130e+06   1.670703e+06
  -2.418524e+06   4.000184e+05
  -1.093155e+06  -9.850810e+05
   6.908269e+05  -1.241508e+06
   1.230120e+06  -2.017910e+05
   1.570969e+05   8.684038e+05
  -1.258475e+06   6.802753e+05
  -1.530437e+06  -5.467530e+05
  -4.668985e+05  -1.400469e+06
   8.135670e+05  -9.961723e+05
   1.130599e+06   8.614619e+04
   3.414605e+05   6.214655e+05
  -6.246802e+05   1.023026e+05
  -6.569435e+05  -8.620748e+05
   4.640953e+05  -1.239674e+06
   1.726171e+06  -5.190123e+05
   1.788542e+06   8.422810e+05
   4.192558e+05   1.763495e+06
  -1.137601e+06   1.482115e+06
  -1.469260e+06   2.964861e+05
  -5.155999e+05  -7.082961e+05
   5.119440e+05  -7.538204e+05
   6.076024e+05  -9.119675e+04
  -3.028381e+04   4.232832e+05
  -4.974717e+05   3.184190e+05
  -2.848124e+05  -7.192787e+04
   2.948914e+05  -9.941737e+04
   5.250625e+05   4.349149e+05
  -4.013165e+04   1.012819e+06
  -1.125309e+06   8.603862e+05
  -1.822393e+06  -2.506424e+05
  -1.349721e+06  -1.616048e+06
   8.487697e+04  -2.137472e+06
   1.355154e+06  -1.379385e+06
   1.554318e+06  -2.879712e+04
   9.098121e+05   8.132935e+05
   3.497589e+05   7.362112e+05
   3.327942e+05   2.877692e+05
   4.412895e+05   2.065322e+05
   9.244784e+04   5.843315e+05
  -6.835117e+05   8.406806e+05
  -1.264601e+06   4.099638e+05
  -1.031044e+06  -5.990373e+05
   9.289062e+04  -1.375552e+06
   1.458933e+06  -1.080397e+06
   2.017717e+06   3.002355e+05
   1.136637e+06   1.757408e+06
  -6.863085e+05   2.094382e+06
  -2.099109e+06   1.071496e+06
  -2.118131e+06  -3.726436e+05
  -1.026436e+06  -1.114743e+06
   6.025281e+04  -9.453127e+05
   3.939476e+05  -5.711062e+05
   1.848488e+05  -6.521971e+05
   1.109808e+05  -1.053982e+06
   5.061253e+05  -1.080921e+06
   1.067081e+06  -3.084186e+05
   1.189869e+06   8.948483e+05
   5.539832e+05   1.634266e+06
  -4.946409e+05   1.280267e+06
  -1.130143e+06   7.276571e+04
  -7.879091e+05  -1.038718e+06
   2.090825e+05  -1.223431e+06
   9.095931e+05  -4.854143e+05
   7.216532e+05   4.422531e+05
   2.664824e+04   8.658453e+05
  -3.188940e+05   7.162485e+05
  -8.224327e+03   4.109725e+05
   3.710469e+05   3.000863e+05
   5.471817e+04   3.420730e+05
  -9.511735e+05   2.454722e+05
  -1.754814e+06  -1.793626e+05
  -1.451331e+06  -7.946416e+05
  -9.687426e+04  -1.196330e+06
   1.254266e+06  -1.035435e+06
   1.553029e+06  -3.706224e+05
   7.707239e+05   3.005120e+05
  -1.674590e+05   4.618005e+05
  -4.178411e+05   8.859244e+04
  -1.358527e+04  -3.103840e+05
   4.061263e+05  -2.275368e+05
   4.227427e+05   2.806625e+05
   1.827824e+05   6.418159e+05
   3.940898e+04   4.207740e+05
   1.218385e+05  -1.356490e+05
   2.815951e+05  -3.273142e+05
   2.625779e+05   1.820742e+05
  -1.144842e+05   8.901933e+05
  -7.359768e+05   9.547581e+05
  -1.102084e+06   1.627731e+05
  -7.022532e+05  -7.670902e+05
   3.166017e+05  -9.480482e+05
   1.039728e+06  -2.801570e+05
   6.542992e+05   4.918887e+05
  -5.682845e+05   6.086126e+05
  -1.420418e+06   2.129132e+04
  -1.004092e+06  -6.916806e+05
   3.142656e+05  -9.386140e+05
   1.305892e+06  -5.766232e+05
   1.145961e+06   6.380247e+04
   1.741572e+05   4.592334e+05
  -5.484946e+05   2.948454e+05
  -3.271404e+05  -2.210782e+05
   5.217243e+05  -4.510059e+05
   1.034531e+06   7.017611e+04
   5.789365e+05   1.033457e+06
  -5.164988e+05   1.493771e+06
  -1.299405e+06   7.945017e+05
  -1.130758e+06  -6.388537e+05
  -2.418016e+05  -1.581970e+06
   5.994504e+05  -1.202467e+06
   8.325113e+05   7.807297e+04
   4.695702e+05   1.025466e+06
  -1.009366e+05   8.910832e+05
  -4.754781e+05   1.191505e+05
  -4.641215e+05  -3.214016e+05
  -1.918217e+05  -1.269562e+05
  -2.282073e+04   9.866743e+04
  -1.984787e+05  -2.212761e+05
  -4.659805e+05  -8.187389e+05
  -2.624597e+05  -9.510965e+05
   5.563006e+05  -3.853396e+05
   1.327295e+06   3.510868e+05
   1.209124e+06   6.842947e+05
   1.970246e+05   5.979097e+05
  -7.751962e+05   4.002173e+05
  -8.746793e+05   2.162927e+05
  -2.858252e+05  -8.856296e+03
   1.349286e+05  -2.007973e+05
  -2.369833e+04  -2.045187e+05
  -2.869803e+05  -9.814746e+04
  -3.092181e+04  -1.185346e+05
   6.260348e+05  -2.160258e+05
   9.159137e+05  -1.542602e+04
   3.362707e+05   5.860136e+05
  -7.421136e+05   1.040524e+06
  -1.435245e+06   6.942107e+05
  -1.199602e+06  -3.543066e+05
  -2.766941e+05  -1.235414e+06
   6.104903e+05  -1.223269e+06
   9.025850e+05  -4.814690e+05
   5.927486e+05   2.052256e+05
   1.114209e+05   3.098049e+05
  -9.980384e+04   3.479563e+04
   5.522872e+04  -4.864864e+04
   2.993767e+05   2.978157e+05
   2.665183e+05   7.011770e+05
  -1.413688e+05   5.950394e+05
  -6.133842e+05  -1.103041e+05
  -6.606124e+05  -8.388580e+05
  -9.278322e+04  -8.993074e+05
   6.797188e+05  -2.059874e+05
   9.245121e+05   6.331199e+05
   3.199114e+05   9.434262e+05
  -6.090518e+05   5.919868e+05
  -9.661486e+05  -3.596034e+04
  -4.662806e+05  -4.906481e+05
   2.246581e+05  -5.694753e+05
   2.859846e+05  -3.283539e+05
  -2.552097e+05  -1.244656e+04
  -5.795796e+05   5.317940e+04
  -1.274919e+05  -2.584149e+05
   7.004365e+05  -6.332171e+05
   1.055077e+06  -5.495828e+05
   6.396336e+05   9.916761e+04
  -5.572328e+04   7.535636e+05
  -4.216261e+05   7.578939e+05
  -3.322147e+05   1.310602e+05
  -4.619644e+04  -4.347942e+05
   2.012715e+05  -3.722161e+05
   3.178650e+05   1.484317e+05
   2.400211e+05   4.995108e+05
  -3.967884e+04   3.482845e+05
  -3.444323e+05  -3.881715e+04
  -4.169803e+05  -2.066301e+05
  -2.160671e+05  -5.551565e+04
   1.901112e+04   1.057164e+05
   7.275984e+04  -1.744166e+04
   2.058565e+04  -3.321179e+05
   8.748657e+04  -4.515839e+05
   2.938454e+05  -1.458252e+05
   3.752873e+05   3.554710e+05
   1.053225e+05   5.699541e+05
  -3.638051e+05   2.763720e+05
  -5.737744e+05  -2.425226e+05
  -2.286136e+05  -5.079712e+05
   4.230781e+05  -3.355014e+05
   7.603826e+05   4.805689e+04
   4.259774e+05   3.151857e+05
  -2.438981e+05   3.392077e+05
  -5.455883e+05   1.951051e+05
  -1.948805e+05   1.982754e+04
   3.371429e+05  -4.841899e+04
   3.752349e+05   7.575485e+04
  -1.647836e+05   2.840844e+05
  -6.899509e+05   2.662812e+05
