
 $NMID
 id='ANONYMOUS ', fmtdat='(2E16.6)'
 volume=1.0
 tramp=1.0
 $END
  -4.562017e+07  -1.048085e+06
  -2.705540e+07  -2.786476e+07
   5.950493e+06  -3.032285e+07
   2.207869e+07  -1.231559e+07
   1.349249e+07   4.842778e+06
  -2.313457e+06   7.502290e+06
  -8.000843e+06  -4.168582e+05
  -2.728074e+06  -7.767829e+06
   4.664986e+06  -8.094308e+06
   7.863640e+06  -2.028679e+06
   5.825981e+06   5.236141e+06
   6.109881e+05   7.351893e+06
  -3.460432e+06   2.150969e+06
  -2.324058e+06  -4.924454e+06
   3.016441e+06  -5.805608e+06
   6.492086e+06   9.157850e+05
   3.733204e+06   8.402276e+06
  -3.090772e+06   9.730301e+06
  -8.359415e+06   4.710118e+06
  -8.768793e+06  -1.993905e+06
  -5.017153e+06  -6.277727e+06
  -1.833860e+05  -6.775859e+06
   2.220975e+06  -4.492957e+06
   8.363748e+05  -2.207493e+06
  -1.439948e+06  -2.366465e+06
  -4.294942e+04  -4.052360e+06
   5.132854e+06  -3.708924e+06
   8.543498e+06  -4.005760e+04
   5.854817e+06   3.801592e+06
  -2.551931e+05   4.311141e+06
  -3.633063e+06   1.909726e+06
  -2.173724e+06  -4.994762e+05
   1.015436e+06  -1.265454e+06
   2.614822e+06  -3.952420e+05
   2.081216e+06   1.745828e+06
   2.635332e+05   3.763754e+06
  -1.780221e+06   3.109051e+06
  -2.469670e+06  -5.062117e+05
  -9.860839e+05  -3.087923e+06
   7.705880e+05  -1.151070e+06
   9.271455e+04   2.543502e+06
  -2.196064e+06   2.132191e+06
  -2.098941e+06  -2.567610e+06
   1.756041e+06  -4.952405e+06
   5.311745e+06  -7.834856e+05
   3.966736e+06   5.571913e+06
  -1.540307e+06   6.815279e+06
  -6.105723e+06   1.879007e+06
  -5.967729e+06  -3.741392e+06
  -1.783579e+06  -5.161235e+06
   2.922336e+06  -2.496538e+06
   4.677742e+06   1.106127e+06
   2.315258e+06   2.886131e+06
  -1.880382e+06   1.892344e+06
  -3.774606e+06  -6.831062e+05
  -1.691685e+06  -2.193030e+06
   1.404050e+06  -1.134617e+06
   1.585941e+06   8.361911e+05
  -8.647769e+05   9.022126e+05
  -2.022924e+06  -1.092680e+06
   2.014289e+05  -2.511980e+06
   3.457969e+06  -1.549060e+06
   4.279637e+06   9.042237e+05
   1.968154e+06   3.168114e+06
  -1.655942e+06   4.460896e+06
  -4.567105e+06   4.105749e+06
  -5.440461e+06   1.308097e+06
  -3.776386e+06  -2.913749e+06
  -6.598681e+05  -5.382165e+06
   1.492818e+06  -4.180098e+06
   1.344201e+06  -1.307344e+06
   2.575822e+05  -1.389925e+05
   4.030889e+05  -1.041915e+06
   1.838871e+06  -1.440281e+06
   2.684397e+06   1.345454e+05
   1.760308e+06   2.082356e+06
  -1.877174e+05   2.137387e+06
  -1.658612e+06   1.632259e+05
  -1.641887e+06  -2.057412e+06
   7.410817e+04  -2.751788e+06
   2.581021e+06  -1.363069e+06
   3.890338e+06   1.262191e+06
   2.614336e+06   3.344934e+06
  -1.687998e+05   3.517793e+06
  -1.918886e+06   2.171832e+06
  -1.792803e+06   9.535215e+05
  -1.531829e+06   6.948137e+05
  -2.636130e+06   5.313693e+05
  -3.954267e+06  -6.246398e+05
  -3.204923e+06  -2.497072e+06
  -1.404338e+05  -3.805607e+06
   2.998509e+06  -3.607006e+06
   3.942092e+06  -1.882603e+06
   2.450540e+06   5.293825e+05
   1.155960e+05   2.137487e+06
  -1.141900e+06   1.744446e+06
  -5.154377e+05  -8.483901e+04
   1.055214e+06  -1.196126e+06
   1.736393e+06  -3.450608e+05
   7.830292e+05   1.105060e+06
  -5.256270e+05   1.045480e+06
  -4.791295e+05  -3.324258e+05
   8.347645e+05  -7.574412e+05
   1.667967e+06   8.889057e+05
   8.290325e+05   2.977200e+06
  -1.094128e+06   3.233191e+06
  -2.723857e+06   1.352337e+06
  -3.196470e+06  -1.103912e+06
  -2.332061e+06  -2.567690e+06
  -5.036109e+05  -2.520341e+06
   1.192710e+06  -1.383367e+06
   1.502693e+06  -1.866984e+05
   4.599587e+05   4.322824e+04
  -3.367374e+05  -6.971773e+05
   3.591815e+05  -1.210157e+06
   1.714196e+06  -5.242730e+05
   1.854922e+06   7.739830e+05
   3.816544e+05   1.269642e+06
  -1.072957e+06   5.484372e+05
  -8.756825e+05  -4.093737e+05
   7.429784e+05  -5.586395e+05
   2.083960e+06   1.879723e+05
   1.749236e+06   1.241142e+06
  -1.546929e+05   1.910017e+06
  -2.154768e+06   1.611882e+06
  -2.598861e+06   2.787557e+05
  -1.124950e+06  -1.153027e+06
   8.438433e+05  -1.351452e+06
   1.402982e+06  -1.561671e+05
   1.533431e+05   9.838257e+05
  -1.405847e+06   6.750456e+05
  -1.604221e+06  -7.023600e+05
  -3.628887e+05  -1.527810e+06
   9.697252e+05  -9.542654e+05
   1.177881e+06   2.283001e+05
   2.704269e+05   7.017375e+05
  -7.129708e+05   5.550671e+04
  -6.737149e+05  -9.776798e+05
   5.524145e+05  -1.323421e+06
   1.883239e+06  -4.899263e+05
   1.893636e+06   9.917024e+05
   3.563117e+05   1.929996e+06
  -1.326712e+06   1.530454e+06
  -1.601314e+06   2.141232e+05
  -4.872973e+05  -7.973155e+05
   6.019476e+05  -7.617224e+05
   6.201438e+05  -7.418595e+04
  -7.807553e+04   3.821143e+05
  -4.894886e+05   2.539077e+05
  -1.977803e+05  -5.968815e+04
   3.643131e+05   9.567253e+03
   4.978090e+05   5.666028e+05
  -1.539999e+05   1.091944e+06
  -1.274341e+06   8.458292e+05
  -1.944098e+06  -3.783838e+05
  -1.367014e+06  -1.813719e+06
   2.004474e+05  -2.275875e+06
   1.510046e+06  -1.360603e+06
   1.613060e+06   8.132137e+04
   8.658803e+05   8.622234e+05
   3.311944e+05   6.914355e+05
   4.122180e+05   2.659832e+05
   5.297443e+05   2.830995e+05
   7.124585e+04   6.814017e+05
  -8.000710e+05   8.499353e+05
  -1.359910e+06   3.357297e+05
  -1.024076e+06  -6.773282e+05
   1.986677e+05  -1.405948e+06
   1.609649e+06  -1.038425e+06
   2.121241e+06   4.381936e+05
   1.087339e+06   1.951196e+06
  -9.034170e+05   2.204241e+06
  -2.342783e+06   9.906174e+05
  -2.213203e+06  -5.673259e+05
  -9.570778e+05  -1.238600e+06
   1.486629e+05  -9.316005e+05
   3.918254e+05  -5.337270e+05
   1.418238e+05  -7.123375e+05
   1.375289e+05  -1.188227e+06
   6.214180e+05  -1.172919e+06
   1.191591e+06  -2.845993e+05
   1.244043e+06   1.017228e+06
   5.175195e+05   1.777897e+06
  -5.877896e+05   1.347776e+06
  -1.206801e+06   8.118743e+03
  -7.693735e+05  -1.179260e+06
   3.332491e+05  -1.297871e+06
   1.043453e+06  -4.114236e+05
   7.436930e+05   5.943813e+05
  -8.043070e+04   9.661480e+05
  -4.490539e+05   7.296289e+05
  -5.439742e+04   4.063021e+05
   3.988384e+05   3.273579e+05
   5.112291e+04   3.649193e+05
  -1.056457e+06   2.006319e+05
  -1.905345e+06  -3.041332e+05
  -1.511364e+06  -9.523280e+05
   8.124299e+03  -1.313887e+06
   1.453007e+06  -1.051422e+06
   1.697376e+06  -2.814040e+05
   7.843015e+05   4.184364e+05
  -2.314961e+05   5.104161e+05
  -4.646721e+05   4.662491e+04
  -1.152173e+04  -3.724319e+05
   4.293912e+05  -2.379973e+05
   4.469530e+05   3.218329e+05
   2.104279e+05   6.920187e+05
   6.322822e+04   4.568376e+05
   1.277027e+05  -1.099294e+05
   2.788148e+05  -3.041831e+05
   2.632533e+05   2.130372e+05
  -1.437155e+05   9.377621e+05
  -8.414705e+05   9.944344e+05
  -1.246889e+06   1.395059e+05
  -7.666885e+05  -8.646462e+05
   3.936498e+05  -1.042118e+06
   1.165746e+06  -2.866405e+05
   6.864920e+05   5.463711e+05
  -6.493284e+05   6.128199e+05
  -1.498591e+06  -7.021839e+04
  -9.792117e+05  -7.933006e+05
   4.212943e+05  -9.449499e+05
   1.404384e+06  -4.904798e+05
   1.177143e+06   1.524520e+05
   1.417959e+05   4.856000e+05
  -6.033487e+05   2.653161e+05
  -3.509014e+05  -2.695078e+05
   5.634431e+05  -4.824076e+05
   1.114057e+06   9.259572e+04
   6.138630e+05   1.123606e+06
  -5.784010e+05   1.599761e+06
  -1.409784e+06   8.237901e+05
  -1.184818e+06  -7.189914e+05
  -1.930059e+05  -1.692441e+06
   6.915918e+05  -1.232530e+06
   8.720057e+05   1.492984e+05
   4.224294e+05   1.115691e+06
  -1.840287e+05   9.181613e+05
  -5.217192e+05   8.632030e+04
  -4.535300e+05  -3.537880e+05
  -1.696613e+05  -1.293588e+05
  -3.894645e+04   9.258491e+04
  -2.416049e+05  -2.742488e+05
  -4.738395e+05  -9.074182e+05
  -1.996360e+05  -1.013499e+06
   6.528504e+05  -3.707808e+05
   1.393822e+06   4.340238e+05
   1.223198e+06   7.802680e+05
   1.768689e+05   6.540715e+05
  -8.157430e+05   4.005561e+05
  -9.298994e+05   1.807631e+05
  -3.274819e+05  -4.557245e+04
   1.415306e+05  -2.136022e+05
   1.695963e+04  -1.949840e+05
  -2.670027e+05  -9.021481e+04
  -4.316891e+04  -1.284110e+05
   6.396255e+05  -2.256068e+05
   9.869900e+05   1.197629e+04
   3.905214e+05   6.573455e+05
  -8.049105e+05   1.111230e+06
  -1.595839e+06   7.063083e+05
  -1.320535e+06  -4.154449e+05
  -2.609638e+05  -1.329334e+06
   7.170987e+05  -1.294699e+06
   9.914169e+05  -5.037726e+05
   6.238405e+05   2.219193e+05
   1.227751e+05   3.397594e+05
  -7.882619e+04   6.145984e+04
   6.921629e+04  -2.154108e+04
   2.879722e+05   3.399141e+05
   2.403398e+05   7.590676e+05
  -1.694404e+05   6.404493e+05
  -6.487797e+05  -1.161466e+05
  -7.000062e+05  -9.032191e+05
  -1.042036e+05  -9.775742e+05
   7.193071e+05  -2.331877e+05
   9.824341e+05   6.831242e+05
   3.291193e+05   1.029082e+06
  -6.743296e+05   6.382116e+05
  -1.053382e+06  -6.930602e+04
  -4.966426e+05  -5.728169e+05
   2.715476e+05  -6.340456e+05
   3.509767e+05  -3.429925e+05
  -2.418485e+05  -4.904300e+03
  -6.150474e+05   4.083590e+04
  -1.368161e+05  -2.902517e+05
   7.745394e+05  -6.455559e+05
   1.176123e+06  -5.165886e+05
   7.099891e+05   1.633804e+05
  -8.868956e+04   8.186305e+05
  -5.130325e+05   8.039073e+05
  -3.983433e+05   1.459792e+05
  -5.247109e+04  -4.567032e+05
   2.268384e+05  -4.100887e+05
   3.377721e+05   1.412861e+05
   2.426544e+05   5.440709e+05
  -5.241657e+04   4.003075e+05
  -3.709260e+05  -4.192744e+04
  -4.457539e+05  -2.601765e+05
  -2.265776e+05  -8.666216e+04
   2.755022e+04   1.400434e+05
   7.111877e+04   3.301107e+04
  -1.013355e+04  -3.424560e+05
   5.706127e+04  -5.232585e+05
   3.103164e+05  -2.031907e+05
   4.345429e+05   3.657294e+05
   1.456102e+05   6.186775e+05
  -3.873747e+05   2.999031e+05
  -6.292674e+05  -2.647162e+05
  -2.433719e+05  -5.433236e+05
   4.759483e+05  -3.465819e+05
   8.333268e+05   6.941750e+04
   4.538120e+05   3.545049e+05
  -2.777771e+05   3.771434e+05
  -6.046910e+05   2.153275e+05
  -2.342580e+05   1.506328e+04
   3.335627e+05  -6.919454e+04
   3.915964e+05   5.893560e+04
  -1.564967e+05   2.822908e+05
  -7.045088e+05   2.681794e+05
