
 $NMID
 id='ANONYMOUS ', fmtdat='(2E16.6)'
 volume=1.0
 tramp=1.0
 $END
   5.194510e+07   1.401546e+06
   3.060655e+07   3.250354e+07
  -7.363414e+06   3.482497e+07
  -2.561345e+07   1.337766e+07
  -1.527223e+07  -6.301105e+06
   3.001006e+06  -8.575556e+06
   9.136916e+06   9.798379e+05
   2.684344e+06   9.036000e+06
  -5.730110e+06   8.846517e+06
  -9.008573e+06   1.911467e+06
  -6.433425e+06  -5.961389e+06
  -5.634006e+05  -8.156882e+06
   3.841975e+06  -2.417178e+06
   2.403794e+06   5.355576e+06
  -3.605947e+06   6.259675e+06
  -7.329545e+06  -1.276611e+06
  -4.009549e+06  -9.579275e+06
   3.701307e+06  -1.093157e+07
   9.508489e+06  -5.251013e+06
   9.932548e+06   2.231346e+06
   5.806753e+06   7.095477e+06
   3.359455e+05   7.846922e+06
  -2.670692e+06   5.348938e+06
  -1.407731e+06   2.536827e+06
   1.218622e+06   2.383246e+06
   2.758155e+04   4.197888e+06
  -5.466472e+06   3.991305e+06
  -9.277934e+06   6.206031e+04
  -6.485452e+06  -4.171813e+06
   1.014085e+05  -4.750538e+06
   3.784389e+06  -2.175139e+06
   2.329839e+06   3.066070e+05
  -8.955485e+05   1.077371e+06
  -2.518215e+06   3.498476e+05
  -2.114518e+06  -1.691076e+06
  -3.743393e+05  -3.920601e+06
   1.888704e+06  -3.498874e+06
   2.868360e+06   3.518286e+05
   1.304252e+06   3.423101e+06
  -7.826021e+05   1.538882e+06
  -1.332492e+05  -2.551032e+06
   2.438542e+06  -2.215290e+06
   2.278102e+06   2.987778e+06
  -2.220392e+06   5.642586e+06
  -6.263844e+06   8.443054e+05
  -4.535927e+06  -6.437978e+06
   1.879062e+06  -7.802730e+06
   6.937906e+06  -2.074075e+06
   6.523769e+06   4.318488e+06
   1.744141e+06   5.774908e+06
  -3.337870e+06   2.604377e+06
  -5.073020e+06  -1.458872e+06
  -2.370540e+06  -3.325478e+06
   2.235900e+06  -2.062178e+06
   4.233853e+06   8.961258e+05
   1.822504e+06   2.548392e+06
  -1.617040e+06   1.253077e+06
  -1.686938e+06  -9.942149e+05
   1.140401e+06  -9.340322e+05
   2.303791e+06   1.482984e+06
  -4.336998e+05   3.051649e+06
  -4.148624e+06   1.722432e+06
  -4.889285e+06  -1.224758e+06
  -2.136981e+06  -3.688414e+06
   1.866106e+06  -4.925329e+06
   4.989097e+06  -4.452430e+06
   5.966017e+06  -1.427277e+06
   4.190218e+06   3.181424e+06
   6.907799e+05   5.913544e+06
  -1.812453e+06   4.553196e+06
  -1.633483e+06   1.281730e+06
  -2.476626e+05  -6.359007e+04
  -2.392243e+05   9.993106e+05
  -1.797268e+06   1.577138e+06
  -2.793295e+06  -3.192850e+04
  -1.864571e+06  -2.104741e+06
   1.555987e+05  -2.181764e+06
   1.656114e+06  -1.294217e+05
   1.641240e+06   2.174528e+06
  -1.148703e+05   2.911411e+06
  -2.768857e+06   1.472829e+06
  -4.237021e+06  -1.350056e+06
  -2.901997e+06  -3.685455e+06
   1.773058e+05  -3.948447e+06
   2.182524e+06  -2.459909e+06
   2.077571e+06  -1.039961e+06
   1.746381e+06  -6.775014e+05
   2.882268e+06  -4.540333e+05
   4.249620e+06   8.141886e+05
   3.370600e+06   2.788763e+06
   3.499991e+04   4.079799e+06
  -3.287488e+06   3.771776e+06
  -4.217062e+06   1.941800e+06
  -2.600020e+06  -5.568354e+05
  -1.361925e+05  -2.241532e+06
   1.198608e+06  -1.850355e+06
   5.489017e+05   7.636502e+04
  -1.134300e+06   1.255900e+06
  -1.881198e+06   3.362769e+05
  -8.463669e+05  -1.204739e+06
   5.668149e+05  -1.093083e+06
   4.599925e+05   3.904282e+05
  -1.005950e+06   7.359615e+05
  -1.808302e+06  -1.160754e+06
  -6.928083e+05  -3.360947e+06
   1.475681e+06  -3.410881e+06
   3.074366e+06  -1.203381e+06
   3.328573e+06   1.409414e+06
   2.294484e+06   2.820506e+06
   4.135782e+05   2.657647e+06
  -1.292081e+06   1.428041e+06
  -1.588124e+06   1.686693e+05
  -4.890689e+05  -5.904684e+04
   3.380928e+05   7.561341e+05
  -4.303853e+05   1.306036e+06
  -1.880323e+06   5.234927e+05
  -1.984909e+06  -9.076433e+05
  -3.611129e+05  -1.397615e+06
   1.174022e+06  -5.466410e+05
   8.967394e+05   4.746940e+05
  -8.428985e+05   5.349576e+05
  -2.196424e+06  -3.296263e+05
  -1.759932e+06  -1.397848e+06
   2.711586e+05  -1.996462e+06
   2.349808e+06  -1.616503e+06
   2.776165e+06  -2.073102e+05
   1.175293e+06   1.278814e+06
  -9.444106e+05   1.448614e+06
  -1.531801e+06   1.421287e+05
  -1.574461e+05  -1.066888e+06
   1.525008e+06  -6.881730e+05
   1.693464e+06   8.129210e+05
   3.144284e+05   1.653462e+06
  -1.096228e+06   9.674515e+05
  -1.252258e+06  -3.172847e+05
  -2.445993e+05  -7.771144e+05
   7.821038e+05  -3.800386e+04
   7.002526e+05   1.065821e+06
  -6.180756e+05   1.399962e+06
  -2.017903e+06   4.789186e+05
  -1.996587e+06  -1.105544e+06
  -3.264285e+05  -2.074921e+06
   1.471609e+06  -1.598639e+06
   1.723463e+06  -1.713101e+05
   4.861971e+05   8.754751e+05
  -6.740013e+05   7.892263e+05
  -6.465242e+05   5.746748e+04
   1.178625e+05  -3.794400e+05
   5.145738e+05  -2.178468e+05
   1.573819e+05   7.572723e+04
  -4.263397e+05  -5.625282e+04
  -5.095431e+05  -6.582605e+05
   2.196461e+05  -1.173663e+06
   1.395682e+06  -8.605413e+05
   2.064409e+06   4.654649e+05
   1.407413e+06   1.976005e+06
  -2.817978e+05   2.413716e+06
  -1.652439e+06   1.381792e+06
  -1.698959e+06  -1.589947e+05
  -8.560930e+05  -9.335031e+05
  -3.059639e+05  -6.974227e+05
  -4.492818e+05  -2.550150e+05
  -5.928677e+05  -3.197799e+05
  -6.698235e+04  -7.486256e+05
   8.904970e+05  -8.792732e+05
   1.458037e+06  -2.975046e+05
   1.044761e+06   7.533983e+05
  -2.778420e+05   1.469202e+06
  -1.748982e+06   1.037650e+06
  -2.237648e+06  -5.389629e+05
  -1.086033e+06  -2.121968e+06
   1.053087e+06  -2.331822e+06
   2.550880e+06  -9.735015e+05
   2.336937e+06   7.019543e+05
   9.446710e+05   1.361059e+06
  -2.168612e+05   9.614084e+05
  -4.189315e+05   5.196616e+05
  -1.282560e+05   7.460622e+05
  -1.525535e+05   1.282236e+06
  -6.979486e+05   1.253649e+06
  -1.289612e+06   2.789752e+05
  -1.301394e+06  -1.115332e+06
  -5.026242e+05  -1.906344e+06
   6.614944e+05  -1.417488e+06
   1.284710e+06   3.297940e+04
   7.812908e+05   1.293834e+06
  -4.131145e+05   1.381198e+06
  -1.154947e+06   3.902371e+05
  -7.889435e+05  -6.919352e+05
   1.338947e+05  -1.055801e+06
   5.341494e+05  -7.693583e+05
   8.725481e+04  -4.218467e+05
  -4.193788e+05  -3.511344e+05
  -4.703026e+04  -3.859444e+05
   1.144146e+06  -1.819620e+05
   2.039194e+06   3.816724e+05
   1.586024e+06   1.070002e+06
  -6.272690e+04   1.421063e+06
  -1.600634e+06   1.091843e+06
  -1.829639e+06   2.378567e+05
  -8.237911e+05  -4.982443e+05
   2.685949e+05  -5.530038e+05
   5.070047e+05  -2.709300e+04
   1.471373e+04   4.109518e+05
  -4.538525e+05   2.434636e+05
  -4.699311e+05  -3.540069e+05
  -2.229712e+05  -7.311616e+05
  -7.299153e+04  -4.813306e+05
  -1.409426e+05   9.864569e+04
  -2.950784e+05   2.938889e+05
  -2.709524e+05  -2.378585e+05
   1.718953e+05  -9.845306e+05
   9.244253e+05  -1.039076e+06
   1.351756e+06  -1.335732e+05
   8.155243e+05   9.347502e+05
  -4.431825e+05   1.117623e+06
  -1.257479e+06   2.959037e+05
  -7.166730e+05  -5.936513e+05
   7.154980e+05  -6.311559e+05
   1.587556e+06   1.323319e+05
   9.934956e+05   8.863159e+05
  -5.011038e+05   9.823088e+05
  -1.511871e+06   4.504234e+05
  -1.234027e+06  -2.172498e+05
  -1.246049e+05  -5.190806e+05
   6.551575e+05  -2.556040e+05
   3.742705e+05   3.014995e+05
  -6.006206e+05   5.046301e+05
  -1.180304e+06  -1.138106e+05
  -6.381631e+05  -1.199133e+06
   6.353161e+05  -1.687172e+06
   1.507481e+06  -8.480323e+05
   1.238493e+06   7.891055e+05
   1.593881e+05   1.798530e+06
  -7.724091e+05   1.279089e+06
  -9.221516e+05  -1.975030e+05
  -4.039064e+05  -1.203144e+06
   2.419407e+05  -9.652509e+05
   5.641193e+05  -7.086867e+04
   4.581113e+05   3.893682e+05
   1.610917e+05   1.416742e+05
   5.072246e+04  -9.435836e+04
   2.720821e+05   3.022437e+05
   4.865807e+05   9.794686e+05
   1.651988e+05   1.083927e+06
  -7.246732e+05   3.777467e+05
  -1.465235e+06  -5.006819e+05
  -1.260926e+06  -8.679728e+05
  -1.683954e+05  -7.038025e+05
   8.629812e+05  -4.002970e+05
   9.889796e+05  -1.589645e+05
   3.610381e+05   6.274096e+04
  -1.502412e+05   2.229323e+05
  -4.265538e+04   2.029241e+05
   2.604580e+05   9.842196e+04
   4.913245e+04   1.344779e+05
  -6.642507e+05   2.240769e+05
  -1.048975e+06  -3.258241e+04
  -4.249289e+05  -7.041557e+05
   8.639390e+05  -1.165620e+06
   1.722201e+06  -7.256465e+05
   1.411567e+06   4.590030e+05
   2.492006e+05   1.413854e+06
  -7.982980e+05   1.364372e+06
  -1.063151e+06   5.220767e+05
  -6.516743e+05  -2.424717e+05
  -1.295650e+05  -3.622280e+05
   6.690387e+04  -6.946541e+04
  -8.325955e+04   1.065537e+04
  -2.904450e+05  -3.762690e+05
  -2.287744e+05  -8.147533e+05
   1.915909e+05  -6.789244e+05
   6.794807e+05   1.288042e+05
   7.281498e+05   9.624811e+05
   1.060690e+05   1.037603e+06
  -7.547855e+05   2.434892e+05
  -1.027887e+06  -7.330066e+05
  -3.356164e+05  -1.099128e+06
   7.258049e+05  -6.731466e+05
   1.124375e+06   9.237337e+04
   5.264430e+05   6.296949e+05
  -3.009548e+05   6.826697e+05
  -3.942711e+05   3.633220e+05
   2.397886e+05   9.609772e+03
   6.496284e+05  -2.951682e+04
   1.443412e+05   3.131997e+05
  -8.394772e+05   6.644457e+05
  -1.278773e+06   5.117399e+05
  -7.690170e+05  -1.989250e+05
   1.113254e+05  -8.732367e+05
   5.765594e+05  -8.515098e+05
   4.389536e+05  -1.607892e+05
   5.089554e+04   4.777648e+05
  -2.457052e+05   4.376217e+05
  -3.505738e+05  -1.448574e+05
  -2.465439e+05  -5.827177e+05
   5.808962e+04  -4.355317e+05
   3.918809e+05   4.729925e+04
   4.748011e+05   2.955071e+05
   2.411976e+05   1.061956e+05
  -3.596452e+04  -1.583028e+05
  -8.139616e+04  -5.922592e+04
   1.919389e+04   3.495921e+05
  -4.153227e+04   5.618994e+05
  -3.185077e+05   2.312177e+05
  -4.665415e+05  -3.770907e+05
  -1.639030e+05  -6.514036e+05
   4.095785e+05  -3.141774e+05
   6.687649e+05   2.842478e+05
   2.511170e+05   5.752323e+05
  -5.174332e+05   3.600612e+05
  -8.900211e+05  -8.490185e+04
  -4.776815e+05  -3.858141e+05
   3.010120e+05  -4.045108e+05
   6.475116e+05  -2.283386e+05
   2.595361e+05  -1.583008e+04
  -3.373165e+05   7.249640e+04
  -4.040077e+05  -5.791357e+04
   1.629809e+05  -2.831542e+05
   7.337677e+05  -2.628395e+05
