
 $NMID
 id='ANONYMOUS ', fmtdat='(2E16.6)'
 volume=1.0
 tramp=1.0
 $END
   2.470143e+07   1.996300e+06
   1.493914e+07   1.309738e+07
  -1.740487e+06   1.534236e+07
  -1.114300e+07   8.976043e+06
  -8.373343e+06   1.565100e+05
  -6.833860e+04  -4.211051e+06
   4.780072e+06  -1.685950e+06
   3.212939e+06   3.968496e+06
  -1.485682e+06   6.302875e+06
  -4.573566e+06   2.556093e+06
  -3.763013e+06  -3.369297e+06
  -2.772797e+05  -5.117986e+06
   2.459531e+06  -9.959713e+05
   1.783270e+06   4.212282e+06
  -1.577586e+06   4.767736e+06
  -4.011273e+06   1.551378e+05
  -2.676900e+06  -4.948114e+06
   1.521611e+06  -5.956695e+06
   4.915162e+06  -2.587725e+06
   4.789612e+06   1.770203e+06
   1.872233e+06   3.755214e+06
  -6.719905e+05   2.891838e+06
  -4.962485e+05   1.410330e+06
   1.534300e+06   1.594574e+06
   2.180824e+06   3.278010e+06
  -6.033111e+05   4.097492e+06
  -4.954575e+06   2.313285e+06
  -6.617464e+06  -1.054305e+06
  -3.575858e+06  -3.286215e+06
   1.419919e+06  -2.791107e+06
   3.655537e+06  -3.989469e+05
   1.480287e+06   1.753757e+06
  -2.244654e+06   1.958912e+06
  -3.635249e+06  -3.445677e+04
  -1.818996e+06  -2.709323e+06
   8.445507e+05  -3.600628e+06
   1.798208e+06  -1.591112e+06
   7.658145e+05   1.354192e+06
  -5.722858e+05   1.909550e+06
  -6.240602e+05  -5.762943e+05
   6.337986e+05  -2.905600e+06
   1.833500e+06  -1.919818e+06
   1.579914e+06   1.335355e+06
  -1.932877e+05   2.824965e+06
  -1.972455e+06   6.270633e+05
  -1.868645e+06  -2.750722e+06
   5.598687e+05  -3.541456e+06
   3.522671e+06  -9.714086e+05
   4.315946e+06   2.388867e+06
   1.866632e+06   3.681063e+06
  -1.947022e+06   2.284085e+06
  -3.851691e+06  -2.444626e+05
  -2.347067e+06  -1.820945e+06
   7.945793e+05  -1.455634e+06
   2.429718e+06   1.065632e+05
   1.327291e+06   1.162589e+06
  -7.796703e+05   7.356822e+05
  -1.400264e+06  -4.881864e+05
  -7.993477e+04  -1.056042e+06
   1.322655e+06  -3.926653e+05
   9.250595e+05   7.220088e+05
  -1.029008e+06   1.100616e+06
  -2.416911e+06   1.981769e+05
  -1.464094e+06  -1.563350e+06
   1.399167e+06  -2.984055e+06
   3.899345e+06  -2.716779e+06
   4.104829e+06  -4.193422e+05
   2.206084e+06   2.515978e+06
   8.334322e+04   3.975183e+06
  -7.628753e+05   3.242900e+06
  -5.769870e+05   1.697171e+06
  -6.248459e+05   1.012033e+06
  -1.498579e+06   1.118391e+06
  -2.487748e+06   5.992349e+05
  -2.482706e+06  -1.087174e+06
  -1.144481e+06  -2.593631e+06
   7.877731e+05  -2.212614e+06
   2.026602e+06   2.893484e+04
   1.605344e+06   2.237055e+06
  -3.187563e+05   2.520707e+06
  -2.328144e+06   7.477810e+05
  -2.791566e+06  -1.514522e+06
  -1.416776e+06  -2.584646e+06
   4.125051e+05  -2.120447e+06
   1.170100e+06  -1.121591e+06
   9.032655e+05  -6.706427e+05
   9.882657e+05  -8.125256e+05
   2.171444e+06  -6.878692e+05
   3.366802e+06   3.843323e+05
   2.790189e+06   2.098522e+06
   1.328916e+05   3.356791e+06
  -2.786900e+06   3.148964e+06
  -3.698035e+06   1.388119e+06
  -2.096940e+06  -8.559033e+05
   3.072271e+05  -2.022869e+06
   1.334449e+06  -1.369726e+06
   4.207996e+05   2.121558e+05
  -1.065811e+06   9.872280e+05
  -1.457376e+06   2.336061e+05
  -5.024633e+05  -9.342140e+05
   6.021161e+05  -9.379093e+05
   6.447811e+05   2.553656e+05
  -3.917349e+05   1.007713e+06
  -1.446726e+06   6.925394e+01
  -1.396488e+06  -2.083172e+06
   4.463578e+04  -3.192555e+06
   2.070961e+06  -2.080405e+06
   3.260217e+06   4.495988e+05
   2.631401e+06   2.414067e+06
   6.043587e+05   2.540747e+06
  -1.193619e+06   1.267808e+06
  -1.429351e+06   6.964447e+04
  -4.142135e+05  -4.546888e+04
   3.044124e+05   6.194699e+05
  -2.472275e+05   9.849937e+05
  -1.364171e+06   4.383112e+05
  -1.567166e+06  -5.498162e+05
  -4.135272e+05  -1.011867e+06
   9.184349e+05  -5.345482e+05
   9.169180e+05   3.503444e+05
  -5.660484e+05   7.182477e+05
  -2.054044e+06   9.955395e+04
  -1.910108e+06  -1.112809e+06
  -2.993045e+04  -1.945792e+06
   1.982197e+06  -1.620632e+06
   2.377803e+06  -2.889929e+05
   9.820000e+05   9.633236e+05
  -7.098893e+05   1.071771e+06
  -1.104594e+06   9.165624e+04
  -4.332418e+04  -8.005444e+05
   1.234070e+06  -5.619859e+05
   1.446909e+06   5.652035e+05
   4.579723e+05   1.353374e+06
  -7.540462e+05   9.939774e+05
  -1.096347e+06  -3.326273e+04
  -3.698244e+05  -5.695666e+05
   5.523753e+05  -7.165331e+04
   5.574244e+05   8.576002e+05
  -5.461548e+05   1.154974e+06
  -1.708531e+06   3.686999e+05
  -1.661673e+06  -9.349896e+05
  -3.001494e+05  -1.710286e+06
   1.147299e+06  -1.359213e+06
   1.414591e+06  -2.375671e+05
   4.922332e+05   6.861880e+05
  -5.116097e+05   7.192074e+05
  -6.418886e+05   5.660813e+04
  -1.776862e+03  -4.906638e+05
   5.584739e+05  -3.829458e+05
   4.216378e+05   9.039076e+04
  -1.979915e+05   1.967682e+05
  -5.142687e+05  -3.404286e+05
   2.351023e+04  -9.491647e+05
   1.105650e+06  -7.859547e+05
   1.745019e+06   3.304675e+05
   1.207667e+06   1.633830e+06
  -2.017279e+05   2.085198e+06
  -1.392687e+06   1.330484e+06
  -1.569872e+06   4.144889e+03
  -9.502792e+05  -8.878443e+05
  -3.537462e+05  -8.849619e+05
  -2.392295e+05  -4.062812e+05
  -3.132160e+05  -2.032783e+05
  -3.368785e+04  -5.100697e+05
   6.754431e+05  -7.913729e+05
   1.262358e+06  -3.836703e+05
   1.043636e+06   6.469456e+05
  -1.071011e+05   1.406366e+06
  -1.477187e+06   1.028593e+06
  -1.973012e+06  -3.823837e+05
  -1.050944e+06  -1.744984e+06
   7.077524e+05  -1.976181e+06
   2.030387e+06  -9.686501e+05
   2.060526e+06   3.910533e+05
   1.048510e+06   1.118067e+06
  -3.459028e+04   1.003156e+06
  -4.707690e+05   6.328970e+05
  -3.446722e+05   6.293269e+05
  -2.412380e+05   9.469485e+05
  -5.392263e+05   9.576697e+05
  -1.015422e+06   2.129850e+05
  -1.085379e+06  -9.478858e+05
  -4.337146e+05  -1.624932e+06
   5.655952e+05  -1.216029e+06
   1.107061e+06  -2.338534e+04
   7.224604e+05   1.012333e+06
  -2.123071e+05   1.160401e+06
  -8.289500e+05   4.818496e+05
  -6.504552e+05  -3.598270e+05
  -4.482888e+04  -7.681410e+05
   2.506558e+05  -6.762810e+05
  -1.432347e+04  -4.322580e+05
  -3.280923e+05  -3.374008e+05
  -2.273691e+04  -3.464888e+05
   9.017915e+05  -1.917773e+05
   1.642731e+06   2.617233e+05
   1.357467e+06   8.211654e+05
   7.855705e+04   1.111967e+06
  -1.208900e+06   9.018333e+05
  -1.496420e+06   3.112646e+05
  -7.414997e+05  -2.516336e+05
   1.624962e+05  -3.961999e+05
   3.843365e+05  -9.201153e+04
  -3.657769e+04   2.576398e+05
  -4.362233e+05   1.868319e+05
  -3.848140e+05  -3.006729e+05
  -8.204753e+04  -6.607497e+05
   4.255502e+04  -4.235794e+05
  -1.273597e+05   1.674611e+05
  -3.321766e+05   3.597811e+05
  -2.553723e+05  -1.845714e+05
   1.909591e+05  -8.840971e+05
   7.711339e+05  -8.723582e+05
   1.016215e+06  -4.162550e+04
   5.661831e+05   8.005583e+05
  -3.730600e+05   8.460192e+05
  -9.953521e+05   1.455799e+05
  -6.001790e+05  -5.385618e+05
   5.710356e+05  -5.686435e+05
   1.405567e+06   2.416479e+04
   1.015897e+06   7.040044e+05
  -2.935381e+05   9.377687e+05
  -1.309533e+06   5.740596e+05
  -1.161505e+06  -7.577042e+04
  -1.766821e+05  -4.675619e+05
   5.399633e+05  -2.833592e+05
   2.828111e+05   2.183528e+05
  -5.686119e+05   3.820178e+05
  -1.004287e+06  -1.784143e+05
  -4.481923e+05  -1.074651e+06
   6.654146e+05  -1.410299e+06
   1.354845e+06  -6.567892e+05
   1.064561e+06   7.185409e+05
   1.312003e+05   1.577296e+06
  -6.573906e+05   1.172209e+06
  -8.160833e+05  -8.762771e+04
  -4.364584e+05  -1.021724e+06
   9.806657e+04  -8.883314e+05
   4.544648e+05  -1.072273e+05
   4.736117e+05   3.468446e+05
   2.234794e+05   1.437133e+05
   1.045436e+04  -1.059772e+05
   1.167402e+05   2.086008e+05
   3.815340e+05   8.212910e+05
   2.504595e+05   9.500685e+05
  -5.093608e+05   3.444209e+05
  -1.287412e+06  -4.264277e+05
  -1.190287e+06  -7.385049e+05
  -1.604554e+05  -5.870662e+05
   8.270269e+05  -3.445953e+05
   8.839790e+05  -1.754651e+05
   2.406120e+05   6.456273e+03
  -1.618271e+05   1.859055e+05
   6.331235e+04   2.197210e+05
   3.314317e+05   1.359543e+05
   2.113211e+03   1.243899e+05
  -6.867603e+05   1.575417e+05
  -8.926671e+05  -6.397789e+04
  -2.101673e+05  -5.984599e+05
   8.518136e+05  -9.423391e+05
   1.421186e+06  -5.362439e+05
   1.087735e+06   4.688166e+05
   1.655613e+05   1.239653e+06
  -6.703237e+05   1.134322e+06
  -9.203420e+05   3.719225e+05
  -5.772002e+05  -2.704465e+05
  -6.433498e+04  -3.131935e+05
   1.499918e+05  -2.658655e+03
  -3.529411e+04   7.676896e+04
  -2.940727e+05  -2.926394e+05
  -2.325840e+05  -7.007079e+05
   1.924099e+05  -5.619887e+05
   6.071509e+05   1.850230e+05
   5.602652e+05   9.060690e+05
  -3.115080e+04   8.885178e+05
  -7.172974e+05   1.081590e+05
  -8.485841e+05  -7.336424e+05
  -2.112047e+05  -9.476323e+05
   6.519624e+05  -4.987700e+05
   9.192802e+05   1.233070e+05
   3.865959e+05   4.835306e+05
  -2.642794e+05   4.943965e+05
  -2.639289e+05   2.832491e+05
   2.963314e+05   4.125014e+04
   5.835489e+05  -4.461159e+03
   8.897368e+04   2.554572e+05
  -7.294088e+05   5.747900e+05
  -1.027119e+06   4.895083e+05
  -5.675952e+05  -1.142241e+05
   1.157982e+05  -7.150961e+05
   4.302247e+05  -6.857779e+05
   2.940859e+05  -6.438457e+04
  -7.760683e+03   4.507560e+05
  -2.363236e+05   3.258598e+05
  -3.085711e+05  -2.083986e+05
  -1.917280e+05  -5.084986e+05
   8.104385e+04  -3.020631e+05
   3.347464e+05   8.148966e+04
   3.737785e+05   2.064118e+05
   2.028463e+05   4.473818e+04
   1.469042e+04  -7.591133e+04
  -6.166786e+04   7.776051e+04
  -9.738934e+04   3.580290e+05
  -2.063453e+05   4.023389e+05
  -3.352836e+05   5.004800e+04
  -2.934615e+05  -4.324908e+05
   1.128320e+04  -5.826491e+05
   4.003484e+05  -2.258017e+05
   5.194685e+05   3.117113e+05
   1.667401e+05   5.336175e+05
  -4.273828e+05   2.881994e+05
  -7.180781e+05  -1.265078e+05
  -3.805277e+05  -3.430824e+05
   2.687222e+05  -2.822452e+05
   5.426919e+05  -1.099132e+05
   1.606628e+05   6.854158e+03
  -3.835819e+05  -4.487635e+03
  -3.859430e+05  -1.458355e+05
   2.154248e+05  -2.984853e+05
   7.558107e+05  -2.157256e+05
