
 $NMID
 id='ANONYMOUS ', fmtdat='(2E16.6)'
 volume=1.0
 tramp=1.0
 $END
  -4.759331e+07   9.547450e+05
  -2.960798e+07  -2.833478e+07
   5.067136e+06  -3.225901e+07
   2.294810e+07  -1.355921e+07
   1.446881e+07   5.003149e+06
  -2.306108e+06   8.064872e+06
  -8.533019e+06  -4.141980e+05
  -2.963503e+06  -8.233551e+06
   4.897450e+06  -8.511777e+06
   8.257964e+06  -2.212650e+06
   6.166425e+06   5.233269e+06
   8.216501e+05   7.505557e+06
  -3.434248e+06   2.349324e+06
  -2.391974e+06  -4.905277e+06
   3.102824e+06  -5.982823e+06
   6.831275e+06   8.344966e+05
   4.115039e+06   8.653024e+06
  -2.931533e+06   1.022607e+07
  -8.502317e+06   5.218681e+06
  -9.170303e+06  -1.640093e+06
  -5.576641e+06  -6.220598e+06
  -6.562001e+05  -7.098133e+06
   2.122188e+06  -5.003375e+06
   1.094573e+06  -2.506791e+06
  -1.195958e+06  -2.302141e+06
  -8.560198e+04  -3.912513e+06
   4.958537e+06  -3.808845e+06
   8.548291e+06  -3.163749e+05
   6.089165e+06   3.616706e+06
   3.084733e+04   4.317409e+06
  -3.425656e+06   2.045715e+06
  -2.090601e+06  -2.681204e+05
   9.227365e+05  -1.008703e+06
   2.394049e+06  -3.102247e+05
   1.961948e+06   1.580696e+06
   3.900910e+05   3.608268e+06
  -1.613351e+06   3.245069e+06
  -2.561812e+06  -2.215812e+05
  -1.279294e+06  -3.036169e+06
   5.999150e+05  -1.373098e+06
   1.249045e+05   2.376593e+06
  -2.207190e+06   2.146215e+06
  -2.246397e+06  -2.655405e+06
   1.751498e+06  -5.314209e+06
   5.665891e+06  -1.107607e+06
   4.441784e+06   5.670055e+06
  -1.353382e+06   7.239564e+06
  -6.274314e+06   2.196202e+06
  -6.208174e+06  -3.739377e+06
  -1.857888e+06  -5.304566e+06
   3.007437e+06  -2.565230e+06
   4.799097e+06   1.157785e+06
   2.364383e+06   3.008999e+06
  -1.966176e+06   2.022589e+06
  -3.952344e+06  -6.377774e+05
  -1.806392e+06  -2.272742e+06
   1.432551e+06  -1.225518e+06
   1.616317e+06   8.642602e+05
  -1.002892e+06   9.628499e+05
  -2.237344e+06  -1.216708e+06
   1.766530e+05  -2.833635e+06
   3.694479e+06  -1.818112e+06
   4.574257e+06   8.741536e+05
   2.150622e+06   3.296838e+06
  -1.545021e+06   4.601338e+06
  -4.471987e+06   4.257429e+06
  -5.449338e+06   1.501391e+06
  -3.943605e+06  -2.785275e+06
  -8.299658e+05  -5.429593e+06
   1.504077e+06  -4.306169e+06
   1.481055e+06  -1.306130e+06
   3.014792e+05   2.271582e+04
   2.684128e+05  -8.915163e+05
   1.644678e+06  -1.441859e+06
   2.563769e+06   8.139249e+03
   1.739651e+06   1.930469e+06
  -1.327261e+05   2.026455e+06
  -1.563869e+06   1.305915e+05
  -1.582104e+06  -2.012584e+06
   4.077018e+04  -2.712233e+06
   2.520006e+06  -1.427522e+06
   3.937114e+06   1.125109e+06
   2.785460e+06   3.288077e+06
  -1.382340e+04   3.621655e+06
  -1.894760e+06   2.342322e+06
  -1.861982e+06   1.056879e+06
  -1.600118e+06   7.131772e+05
  -2.679230e+06   5.280339e+05
  -3.991433e+06  -6.201327e+05
  -3.230351e+06  -2.496273e+06
  -1.524447e+05  -3.806648e+06
   2.963859e+06  -3.606720e+06
   3.876773e+06  -1.908871e+06
   2.418854e+06   4.617492e+05
   1.628206e+05   2.074198e+06
  -1.073680e+06   1.735577e+06
  -5.053502e+05  -6.086160e+04
   1.025624e+06  -1.194285e+06
   1.737611e+06  -3.688598e+05
   8.166980e+05   1.087273e+06
  -5.051361e+05   1.030292e+06
  -4.547408e+05  -3.600543e+05
   9.154419e+05  -7.526572e+05
   1.760281e+06   9.854908e+05
   8.098286e+05   3.120215e+06
  -1.243535e+06   3.292612e+06
  -2.861096e+06   1.279470e+06
  -3.199184e+06  -1.211426e+06
  -2.248141e+06  -2.602911e+06
  -4.562269e+05  -2.493984e+06
   1.174383e+06  -1.365853e+06
   1.478010e+06  -1.933156e+05
   4.582687e+05   4.158652e+04
  -3.377328e+05  -6.962697e+05
   3.552675e+05  -1.230196e+06
   1.729716e+06  -5.497560e+05
   1.881669e+06   7.777845e+05
   3.877587e+05   1.291302e+06
  -1.080377e+06   5.485374e+05
  -8.590002e+05  -4.235268e+05
   7.777346e+05  -5.407682e+05
   2.084968e+06   2.399590e+05
   1.702616e+06   1.272994e+06
  -1.989216e+05   1.894055e+06
  -2.160311e+06   1.584046e+06
  -2.591571e+06   2.727266e+05
  -1.136431e+06  -1.155339e+06
   8.306678e+05  -1.374487e+06
   1.415401e+06  -1.818458e+05
   1.765075e+05   9.823407e+05
  -1.400792e+06   6.851815e+05
  -1.608574e+06  -7.075974e+05
  -3.492244e+05  -1.541068e+06
   9.967034e+05  -9.485201e+05
   1.189544e+06   2.529331e+05
   2.608045e+05   7.217948e+05
  -7.254859e+05   6.330486e+04
  -6.825644e+05  -9.720273e+05
   5.386814e+05  -1.320641e+06
   1.868482e+06  -4.997759e+05
   1.891879e+06   9.762705e+05
   3.640945e+05   1.926424e+06
  -1.325663e+06   1.536578e+06
  -1.605878e+06   2.130180e+05
  -4.837353e+05  -8.048174e+05
   6.070753e+05  -7.597281e+05
   6.062802e+05  -6.723257e+04
  -1.029872e+05   3.695115e+05
  -4.890358e+05   2.204513e+05
  -1.607349e+05  -8.096851e+04
   4.033714e+05   2.236066e+04
   5.071651e+05   5.945709e+05
  -1.638097e+05   1.106787e+06
  -1.278447e+06   8.469906e+05
  -1.941987e+06  -3.754856e+05
  -1.369496e+06  -1.804914e+06
   1.977633e+05  -2.263791e+06
   1.511682e+06  -1.341977e+06
   1.602225e+06   1.019709e+05
   8.301628e+05   8.627383e+05
   2.953530e+05   6.603637e+05
   4.110769e+05   2.280695e+05
   5.564609e+05   2.707238e+05
   8.739639e+04   6.902730e+05
  -8.059278e+05   8.505372e+05
  -1.360142e+06   3.218153e+05
  -1.002342e+06  -6.826819e+05
   2.211900e+05  -1.392046e+06
   1.610960e+06  -1.022739e+06
   2.109858e+06   4.426568e+05
   1.079319e+06   1.954540e+06
  -9.113288e+05   2.213121e+06
  -2.354874e+06   9.901117e+05
  -2.212943e+06  -5.862042e+05
  -9.313934e+05  -1.254361e+06
   1.781900e+05  -9.185226e+05
   3.910071e+05  -4.997992e+05
   1.101182e+05  -6.888163e+05
   1.063447e+05  -1.189318e+06
   6.102390e+05  -1.186512e+06
   1.191391e+06  -2.977471e+05
   1.243809e+06   1.004993e+06
   5.205984e+05   1.766284e+06
  -5.798675e+05   1.341216e+06
  -1.203006e+06   5.483456e+03
  -7.707322e+05  -1.185267e+06
   3.414305e+05  -1.306033e+06
   1.067389e+06  -4.091601e+05
   7.645364e+05   6.132935e+05
  -8.341884e+04   9.904416e+05
  -4.696143e+05   7.427742e+05
  -6.938587e+04   4.034727e+05
   3.978874e+05   3.169614e+05
   5.267509e+04   3.590826e+05
  -1.061573e+06   2.055881e+05
  -1.912451e+06  -2.943740e+05
  -1.513656e+06  -9.524304e+05
   9.931384e+03  -1.329714e+06
   1.456514e+06  -1.067936e+06
   1.703627e+06  -2.789715e+05
   7.920274e+05   4.369041e+05
  -2.294577e+05   5.230622e+05
  -4.735504e+05   4.420837e+04
  -2.677479e+04  -3.768506e+05
   4.184589e+05  -2.363488e+05
   4.475757e+05   3.170796e+05
   2.212013e+05   6.733912e+05
   7.571528e+04   4.432134e+05
   1.330801e+05  -9.934755e+04
   2.762519e+05  -2.835234e+05
   2.612564e+05   2.151655e+05
  -1.381756e+05   9.237771e+05
  -8.337929e+05   9.949296e+05
  -1.248875e+06   1.637951e+05
  -7.803495e+05  -8.450669e+05
   3.786891e+05  -1.050588e+06
   1.157643e+06  -3.086203e+05
   6.830224e+05   5.359406e+05
  -6.506147e+05   6.115868e+05
  -1.491999e+06  -7.924690e+04
  -9.612830e+05  -8.060823e+05
   4.399223e+05  -9.411245e+05
   1.408871e+06  -4.687617e+05
   1.167770e+06   1.697048e+05
   1.323125e+05   4.855640e+05
  -6.068518e+05   2.599939e+05
  -3.575565e+05  -2.680024e+05
   5.475376e+05  -4.824149e+05
   1.101090e+06   7.819175e+04
   6.211844e+05   1.100310e+06
  -5.521318e+05   1.585178e+06
  -1.384663e+06   8.259804e+05
  -1.175685e+06  -7.058655e+05
  -1.948820e+05  -1.676492e+06
   6.903905e+05  -1.218568e+06
   8.711788e+05   1.573255e+05
   4.136930e+05   1.116329e+06
  -1.980347e+05   9.154323e+05
  -5.256422e+05   8.458800e+04
  -4.411795e+05  -3.556432e+05
  -1.570305e+05  -1.328723e+05
  -4.447394e+04   9.209256e+04
  -2.590947e+05  -2.674019e+05
  -4.796317e+05  -8.991507e+05
  -1.871117e+05  -1.013563e+06
   6.624468e+05  -3.780127e+05
   1.383027e+06   4.297728e+05
   1.205707e+06   7.815876e+05
   1.774439e+05   6.526932e+05
  -7.991710e+05   3.928780e+05
  -9.226396e+05   1.749021e+05
  -3.378151e+05  -4.370734e+04
   1.355941e+05  -2.104324e+05
   3.195644e+04  -1.972293e+05
  -2.483755e+05  -9.222725e+04
  -4.720221e+04  -1.228677e+05
   6.180386e+05  -2.200198e+05
   9.783965e+05   3.844792e+03
   4.087628e+05   6.389678e+05
  -7.781147e+05   1.103769e+06
  -1.582374e+06   7.220334e+05
  -1.321310e+06  -3.888787e+05
  -2.669056e+05  -1.312622e+06
   7.068612e+05  -1.294263e+06
   9.758033e+05  -5.119372e+05
   6.129451e+05   2.127554e+05
   1.283607e+05   3.327835e+05
  -6.225090e+04   5.985855e+04
   7.889176e+04  -1.686539e+04
   2.846077e+05   3.442973e+05
   2.368397e+05   7.564192e+05
  -1.611897e+05   6.368301e+05
  -6.356034e+05  -1.066873e+05
  -6.989468e+05  -8.800788e+05
  -1.211852e+05  -9.604399e+05
   6.969094e+05  -2.397167e+05
   9.730560e+05   6.603565e+05
   3.389369e+05   1.014147e+06
  -6.575999e+05   6.429772e+05
  -1.048318e+06  -5.630544e+04
  -5.079297e+05  -5.684852e+05
   2.590282e+05  -6.410395e+05
   3.538406e+05  -3.517981e+05
  -2.267903e+05  -8.181781e+03
  -6.060747e+05   4.270209e+04
  -1.421341e+05  -2.864468e+05
   7.668365e+05  -6.425667e+05
   1.179580e+06  -5.173154e+05
   7.217565e+05   1.585617e+05
  -8.009679e+04   8.158991e+05
  -5.107803e+05   8.113415e+05
  -3.985436e+05   1.622173e+05
  -5.605459e+04  -4.442992e+05
   2.167110e+05  -4.117758e+05
   3.277607e+05   1.301061e+05
   2.444299e+05   5.370635e+05
  -4.083267e+04   4.035765e+05
  -3.652645e+05  -3.552938e+04
  -4.518255e+05  -2.596487e+05
  -2.299659e+05  -9.045893e+04
   3.843618e+04   1.420837e+05
   8.303029e+04   4.694140e+04
  -1.943135e+04  -3.234056e+05
   2.796051e+04  -5.144494e+05
   2.873590e+05  -2.148513e+05
   4.359033e+05   3.398093e+05
   1.624146e+05   5.981081e+05
  -3.743394e+05   3.000669e+05
  -6.265062e+05  -2.482581e+05
  -2.457590e+05  -5.300758e+05
   4.719070e+05  -3.497860e+05
   8.288433e+05   5.598396e+04
   4.544308e+05   3.467779e+05
  -2.678546e+05   3.823135e+05
  -5.940744e+05   2.271272e+05
  -2.381949e+05   2.357481e+04
   3.142859e+05  -6.937972e+04
   3.762150e+05   4.946150e+04
  -1.505911e+05   2.678247e+05
  -6.834540e+05   2.587899e+05
