
 $NMID
 id='ANONYMOUS ', fmtdat='(2E16.6)'
 volume=1.0
 tramp=1.0
 $END
   1.319833e+07   1.850649e+06
   7.998488e+06   6.758003e+06
  -7.303100e+05   8.003169e+06
  -6.019883e+06   5.315467e+06
  -4.920407e+06   6.574121e+05
  -3.226796e+05  -2.366296e+06
   2.803495e+06  -1.330817e+06
   2.147357e+06   2.197467e+06
  -7.004898e+05   3.933929e+06
  -2.650753e+06   1.684761e+06
  -2.114143e+06  -2.043484e+06
  -5.146886e+03  -3.064675e+06
   1.490444e+06  -4.270167e+05
   9.682414e+05   2.735500e+06
  -9.797881e+05   2.982685e+06
  -2.323893e+06   1.746146e+05
  -1.522312e+06  -2.842011e+06
   9.026586e+05  -3.374890e+06
   2.793881e+06  -1.308049e+06
   2.531325e+06   1.217483e+06
   7.043952e+05   2.110394e+06
  -5.819641e+05   1.302058e+06
  -5.358328e+04   5.059360e+05
   1.320229e+06   1.077963e+06
   1.412930e+06   2.400249e+06
  -6.424089e+05   2.682751e+06
  -3.304371e+06   1.153766e+06
  -4.035993e+06  -1.049731e+06
  -1.929007e+06  -2.174266e+06
   1.173904e+06  -1.547104e+06
   2.401757e+06   8.808289e+04
   7.859855e+05   1.381139e+06
  -1.752983e+06   1.289016e+06
  -2.545402e+06  -2.404379e+05
  -1.046381e+06  -1.994861e+06
   8.468545e+05  -2.304710e+06
   1.214936e+06  -7.668703e+05
   1.894657e+05   1.007953e+06
  -6.474027e+05   1.034463e+06
  -3.300496e+05  -6.535603e+05
   6.389859e+05  -1.937125e+06
   1.225073e+06  -1.182943e+06
   9.518650e+05   7.480889e+05
   5.038405e+04   1.589046e+06
  -8.355398e+05   4.008318e+05
  -8.981632e+05  -1.425118e+06
   2.765035e+05  -1.868250e+06
   1.967410e+06  -4.450042e+05
   2.562136e+06   1.499347e+06
   1.151244e+06   2.289686e+06
  -1.223190e+06   1.434923e+06
  -2.441340e+06  -1.540058e+05
  -1.519420e+06  -1.134918e+06
   4.083675e+05  -8.978033e+05
   1.421890e+06   4.078999e+04
   8.089914e+05   6.577799e+05
  -4.413022e+05   4.158695e+05
  -8.910690e+05  -3.179046e+05
  -1.502649e+05  -7.473084e+05
   8.226584e+05  -4.471928e+05
   7.946462e+05   2.755365e+05
  -3.541740e+05   6.838024e+05
  -1.361006e+06   2.501841e+05
  -8.776788e+05  -8.408644e+05
   9.613953e+05  -1.715676e+06
   2.549445e+06  -1.471402e+06
   2.516812e+06  -3.164643e+04
   1.150030e+06   1.649979e+06
  -1.384890e+05   2.415888e+06
  -4.924297e+05   2.000539e+06
  -3.402341e+05   1.178843e+06
  -5.251848e+05   7.669241e+05
  -1.195063e+06   6.716600e+05
  -1.743790e+06   1.685895e+05
  -1.552606e+06  -9.437875e+05
  -5.625148e+05  -1.818664e+06
   6.904462e+05  -1.433704e+06
   1.390169e+06   1.284899e+05
   9.733167e+05   1.564187e+06
  -3.316585e+05   1.618147e+06
  -1.516834e+06   3.276628e+05
  -1.627403e+06  -1.113998e+06
  -6.881358e+05  -1.622838e+06
   3.519130e+05  -1.179099e+06
   6.807659e+05  -5.646790e+05
   4.854675e+05  -3.912523e+05
   6.068773e+05  -5.325949e+05
   1.398225e+06  -4.113430e+05
   2.135262e+06   3.264438e+05
   1.720974e+06   1.421726e+06
  -2.300893e+04   2.161661e+06
  -1.916723e+06   1.922981e+06
  -2.451245e+06   7.198230e+05
  -1.298399e+06  -6.813281e+05
   3.351529e+05  -1.301647e+06
   9.520491e+05  -7.999150e+05
   2.542190e+05   1.717031e+05
  -7.375824e+05   5.846424e+05
  -9.298119e+05   9.296303e+04
  -2.623401e+05  -6.048226e+05
   4.407002e+05  -5.820974e+05
   4.438100e+05   1.845350e+05
  -2.363348e+05   7.002531e+05
  -9.463500e+05   8.365604e+04
  -9.542074e+05  -1.312007e+06
  -1.064583e+04  -2.131436e+06
   1.367658e+06  -1.425419e+06
   2.167752e+06   3.205172e+05
   1.703474e+06   1.677747e+06
   3.232700e+05   1.709592e+06
  -8.334259e+05   7.797778e+05
  -9.356188e+05  -2.053274e+04
  -2.659899e+05  -4.421314e+04
   1.764565e+05   4.088707e+05
  -1.771985e+05   6.129342e+05
  -8.655899e+05   2.370634e+05
  -9.811731e+05  -3.804000e+05
  -2.485392e+05  -6.476499e+05
   6.040430e+05  -3.226664e+05
   6.018411e+05   2.569518e+05
  -3.783997e+05   4.825537e+05
  -1.365957e+06   3.487154e+04
  -1.251373e+06  -7.904254e+05
   2.383012e+04  -1.299072e+06
   1.345651e+06  -1.007368e+06
   1.552834e+06  -1.128347e+05
   5.993911e+05   6.419157e+05
  -4.821665e+05   6.465106e+05
  -6.894970e+05   1.883344e+04
   1.168678e+04  -5.020983e+05
   8.093733e+05  -3.153958e+05
   9.180367e+05   4.022467e+05
   2.729064e+05   8.892443e+05
  -5.041397e+05   6.421491e+05
  -7.173966e+05  -3.063805e+04
  -2.422903e+05  -3.731779e+05
   3.449035e+05  -3.369422e+04
   3.238779e+05   5.674320e+05
  -3.982939e+05   7.204334e+05
  -1.116063e+06   1.690161e+05
  -1.034054e+06  -6.650225e+05
  -1.343446e+05  -1.109770e+06
   7.781433e+05  -8.380949e+05
   9.185199e+05  -1.145492e+05
   3.048733e+05   4.557628e+05
  -3.501379e+05   4.538289e+05
  -4.297543e+05   1.156113e+04
   7.234968e+03  -3.425114e+05
   3.965404e+05  -2.506732e+05
   3.078606e+05   8.470683e+04
  -1.187230e+05   1.571397e+05
  -3.359596e+05  -2.113061e+05
   2.733357e+04  -6.098418e+05
   7.343335e+05  -4.758451e+05
   1.115601e+06   2.698745e+05
   7.218842e+05   1.095211e+06
  -2.041403e+05   1.345661e+06
  -9.520813e+05   8.294901e+05
  -1.035477e+06  -4.001972e+04
  -6.093311e+05  -6.278306e+05
  -2.013812e+05  -6.277266e+05
  -1.152257e+05  -2.942580e+05
  -1.701824e+05  -1.292154e+05
  -2.350233e+03  -3.130961e+05
   4.562458e+05  -4.941116e+05
   8.366523e+05  -2.178663e+05
   6.714033e+05   4.620874e+05
  -1.081542e+05   9.296912e+05
  -9.955808e+05   6.296388e+05
  -1.272368e+06  -3.124923e+05
  -6.327340e+05  -1.162142e+06
   5.055891e+05  -1.254285e+06
   1.332943e+06  -5.726351e+05
   1.332187e+06   3.034374e+05
   6.704763e+05   7.624201e+05
  -4.379958e+04   6.761936e+05
  -3.483347e+05   4.149426e+05
  -2.786458e+05   3.875304e+05
  -2.033228e+05   5.806825e+05
  -3.743852e+05   5.852122e+05
  -6.525744e+05   9.820937e+04
  -6.630976e+05  -6.527818e+05
  -2.201969e+05  -1.067219e+06
   4.118188e+05  -7.661776e+05
   7.196311e+05   1.964423e+04
   4.390721e+05   6.706936e+05
  -1.612861e+05   7.434368e+05
  -5.363578e+05   3.046270e+05
  -4.095356e+05  -2.250696e+05
  -2.505335e+04  -4.841090e+05
   1.598976e+05  -4.355572e+05
  -3.507249e+03  -2.921535e+05
  -1.945765e+05  -2.351182e+05
   1.149538e+03  -2.269668e+05
   5.812261e+05  -9.686736e+04
   1.040926e+06   2.200665e+05
   8.499030e+05   5.697091e+05
   2.948430e+04   7.114835e+05
  -7.936377e+05   5.374843e+05
  -9.733053e+05   1.615011e+05
  -4.795444e+05  -1.677284e+05
   1.090976e+05  -2.413713e+05
   2.470831e+05  -5.563167e+04
  -3.792563e+04   1.514407e+05
  -2.954870e+05   1.004827e+05
  -2.354793e+05  -2.084203e+05
  -1.253737e+04  -4.330670e+05
   5.811321e+04  -2.717194e+05
  -9.164636e+04   1.147723e+05
  -2.419772e+05   2.332289e+05
  -1.619104e+05  -1.271186e+05
   1.639753e+05  -5.696953e+05
   5.288944e+05  -5.336608e+05
   6.383671e+05   1.807381e+04
   3.182466e+05   5.365196e+05
  -2.699290e+05   5.185702e+05
  -6.362015e+05   4.388646e+04
  -3.656943e+05  -3.750838e+05
   3.860711e+05  -3.514353e+05
   9.174003e+05   5.750604e+04
   6.549635e+05   4.903927e+05
  -2.091217e+05   6.123857e+05
  -8.758045e+05   3.476507e+05
  -7.659222e+05  -8.020678e+04
  -1.057805e+05  -3.141111e+05
   3.588164e+05  -1.723910e+05
   1.706073e+05   1.456545e+05
  -3.887148e+05   2.177324e+05
  -6.406052e+05  -1.642450e+05
  -2.350995e+05  -7.167916e+05
   4.996691e+05  -8.803627e+05
   9.089464e+05  -3.631765e+05
   6.616534e+05   5.112080e+05
   2.392390e+04   1.030993e+06
  -4.709765e+05   7.446725e+05
  -5.304931e+05  -7.696385e+04
  -2.566027e+05  -6.787881e+05
   8.348226e+04  -5.823057e+05
   2.953868e+05  -5.928644e+04
   3.042993e+05   2.460899e+05
   1.504102e+05   1.064772e+05
   6.828009e+03  -7.242799e+04
   5.298239e+04   1.298682e+05
   2.116530e+05   5.428232e+05
   1.407490e+05   6.299718e+05
  -3.279922e+05   2.092174e+05
  -8.218736e+05  -3.249883e+05
  -7.579308e+05  -5.248380e+05
  -8.432131e+04  -3.843392e+05
   5.604513e+05  -1.901233e+05
   5.848424e+05  -8.479124e+04
   1.472479e+05   5.205580e+03
  -1.161705e+05   1.128138e+05
   4.528433e+04   1.532384e+05
   2.230193e+05   1.100804e+05
  -9.021358e+03   8.092329e+04
  -4.658330e+05   6.866133e+04
  -5.738397e+05  -7.985511e+04
  -9.259669e+04  -3.911470e+05
   6.009340e+05  -5.677105e+05
   9.309185e+05  -2.832006e+05
   6.681958e+05   3.520318e+05
   5.325285e+04   8.115857e+05
  -4.740904e+05   7.046928e+05
  -6.094144e+05   1.955590e+05
  -3.645975e+05  -2.058593e+05
  -2.338649e+04  -2.044850e+05
   1.085471e+05   1.385679e+04
  -2.238974e+04   5.844045e+04
  -1.862125e+05  -1.975287e+05
  -1.290975e+05  -4.636056e+05
   1.491371e+05  -3.532276e+05
   3.877694e+05   1.534399e+05
   3.180056e+05   6.173554e+05
  -7.029780e+04   5.711784e+05
  -4.757882e+05   2.764466e+04
  -5.149240e+05  -5.206421e+05
  -9.045764e+04  -6.205298e+05
   4.432121e+05  -2.869945e+05
   5.834724e+05   1.195049e+05
   2.245397e+05   3.184820e+05
  -1.885275e+05   2.975918e+05
  -1.707946e+05   1.712952e+05
   2.019689e+05   4.448952e+04
   3.811785e+05   2.258799e+04
   4.353057e+04   1.661882e+05
  -4.954165e+05   3.451615e+05
  -6.752541e+05   2.867703e+05
  -3.520070e+05  -8.555339e+04
   1.039405e+05  -4.536211e+05
   2.946667e+05  -4.232728e+05
   1.799340e+05  -2.246853e+04
  -2.998982e+04   2.960151e+05
  -1.676827e+05   1.947607e+05
  -1.910985e+05  -1.582619e+05
  -1.020839e+05  -3.372555e+05
   6.648475e+04  -1.820758e+05
   2.125671e+05   7.094391e+04
   2.307876e+05   1.405678e+05
   1.301958e+05   3.020634e+04
   1.720881e+04  -3.937899e+04
  -4.472529e+04   6.576070e+04
  -9.344681e+04   2.334853e+05
  -1.702523e+05   2.379596e+05
  -2.240599e+05  -1.896195e+03
  -1.566539e+05  -3.035553e+05
   5.055716e+04  -3.766456e+05
   2.734604e+05  -1.240306e+05
   3.156815e+05   2.294713e+05
   8.027648e+04   3.562142e+05
  -2.849180e+05   1.680705e+05
  -4.528134e+05  -1.152888e+05
  -2.292166e+05  -2.375073e+05
   1.846013e+05  -1.635687e+05
   3.518625e+05  -3.928526e+04
   9.486862e+04   1.185070e+04
  -2.595407e+05  -2.863869e+04
  -2.475868e+05  -1.230158e+05
   1.623564e+05  -1.910082e+05
   5.146053e+05  -1.069531e+05
