
 $NMID
 id='ANONYMOUS ', fmtdat='(2E16.6)'
 volume=1.0
 tramp=1.0
 $END
  -3.516731e+07  -3.313605e+06
  -2.015456e+07  -2.069262e+07
   4.364000e+06  -2.226977e+07
   1.664392e+07  -1.061998e+07
   1.098595e+07   1.891167e+06
  -9.515476e+05   5.773041e+06
  -6.426223e+06   9.697167e+05
  -3.232086e+06  -5.806644e+06
   2.935847e+06  -7.571783e+06
   6.309271e+06  -2.493335e+06
   4.833875e+06   4.604795e+06
   2.550489e+05   6.582557e+06
  -3.197553e+06   1.443973e+06
  -2.117092e+06  -5.063611e+06
   2.390359e+06  -5.663739e+06
   5.340978e+06   3.659485e+05
   3.158567e+06   6.875904e+06
  -2.526467e+06   7.944635e+06
  -6.889756e+06   3.424858e+06
  -6.757941e+06  -2.343864e+06
  -3.023613e+06  -5.302528e+06
   7.024764e+05  -4.641203e+06
   1.325788e+06  -2.558493e+06
  -8.790251e+05  -1.915963e+06
  -2.225057e+06  -3.394328e+06
   5.116882e+05  -4.654480e+06
   5.776085e+06  -3.027931e+06
   8.199892e+06   1.000378e+06
   4.764106e+06   4.058542e+06
  -1.321555e+06   3.722107e+06
  -4.214575e+06   9.238550e+05
  -1.955758e+06  -1.611877e+06
   2.112347e+06  -2.018052e+06
   3.793365e+06  -1.158120e+05
   2.169632e+06   2.777103e+06
  -6.283663e+05   4.184291e+06
  -2.128247e+06   2.303113e+06
  -1.477818e+06  -1.339759e+06
   1.990304e+05  -2.638698e+06
   8.386687e+05   7.830358e+04
  -4.872002e+05   3.198969e+06
  -2.236829e+06   2.207981e+06
  -1.888958e+06  -1.979343e+06
   8.965085e+05  -3.845105e+06
   3.391762e+06  -5.683212e+05
   2.655223e+06   4.211818e+06
  -1.182054e+06   5.074671e+06
  -4.933831e+06   1.234697e+06
  -5.356875e+06  -3.307825e+06
  -1.966258e+06  -4.696557e+06
   2.577866e+06  -2.587471e+06
   4.600019e+06   6.602902e+05
   2.573823e+06   2.453374e+06
  -1.309066e+06   1.732782e+06
  -3.180930e+06  -4.152627e+05
  -1.562560e+06  -1.702416e+06
   1.124883e+06  -9.276925e+05
   1.626437e+06   6.977077e+05
  -2.359755e+05   1.095779e+06
  -1.665890e+06  -1.137501e+05
  -5.629114e+05  -1.381659e+06
   2.032382e+06  -1.262781e+06
   3.321985e+06   2.766886e+05
   1.730684e+06   2.364105e+06
  -1.786139e+06   3.857959e+06
  -4.753314e+06   3.473491e+06
  -5.160655e+06   6.608063e+05
  -2.986630e+06  -3.095283e+06
  -1.717263e+05  -5.017199e+06
   1.200545e+06  -3.949849e+06
   9.163839e+05  -1.745749e+06
   5.512385e+05  -8.616448e+05
   1.335490e+06  -1.279532e+06
   2.649119e+06  -9.682500e+05
   2.917964e+06   9.482780e+05
   1.501564e+06   2.810086e+06
  -7.106244e+05   2.502321e+06
  -2.179698e+06   2.686731e+04
  -1.813336e+06  -2.494847e+06
   3.199452e+05  -2.943964e+06
   2.765286e+06  -1.016416e+06
   3.534061e+06   1.720485e+06
   1.945226e+06   3.268046e+06
  -4.813279e+05   2.888910e+06
  -1.649920e+06   1.578294e+06
  -1.351130e+06   8.008208e+05
  -1.310344e+06   8.409333e+05
  -2.620857e+06   6.754152e+05
  -4.000359e+06  -5.896629e+05
  -3.258479e+06  -2.570600e+06
  -8.884012e+04  -3.960228e+06
   3.293710e+06  -3.680701e+06
   4.317369e+06  -1.684694e+06
   2.503467e+06   9.019012e+05
  -2.343658e+05   2.349447e+06
  -1.481844e+06   1.674119e+06
  -5.124361e+05  -2.063368e+05
   1.226848e+06  -1.177171e+06
   1.754724e+06  -2.707567e+05
   6.449730e+05   1.136985e+06
  -6.722395e+05   1.095662e+06
  -6.659646e+05  -3.149325e+05
   5.949831e+05  -1.028096e+06
   1.669113e+06   3.336892e+05
   1.317187e+06   2.654865e+06
  -4.502972e+05   3.577851e+06
  -2.558636e+06   2.050272e+06
  -3.634954e+06  -7.696681e+05
  -2.843305e+06  -2.805415e+06
  -6.205949e+05  -2.875164e+06
   1.374129e+06  -1.462280e+06
   1.652008e+06  -9.812381e+04
   4.847815e+05   5.792970e+04
  -3.441616e+05  -7.338919e+05
   3.422586e+05  -1.184039e+06
   1.675117e+06  -4.910903e+05
   1.855536e+06   7.334151e+05
   4.318417e+05   1.237342e+06
  -1.100441e+06   5.904110e+05
  -1.016707e+06  -4.265702e+05
   7.035104e+05  -7.428113e+05
   2.324953e+06   1.305099e+04
   2.089417e+06   1.320731e+06
  -5.154197e+04   2.183960e+06
  -2.325120e+06   1.800551e+06
  -2.773489e+06   2.837663e+05
  -1.140369e+06  -1.175574e+06
   8.774843e+05  -1.294487e+06
   1.357894e+06  -9.730285e+04
   6.733911e+04   9.756156e+05
  -1.469803e+06   6.512840e+05
  -1.679332e+06  -7.131502e+05
  -4.610020e+05  -1.593730e+06
   9.379846e+05  -1.092229e+06
   1.259273e+06   1.218783e+05
   3.709031e+05   6.893705e+05
  -6.808573e+05   5.963617e+04
  -6.540885e+05  -1.026494e+06
   6.448519e+05  -1.359518e+06
   2.007401e+06  -4.288796e+05
   1.948270e+06   1.111764e+06
   3.270591e+05   2.020121e+06
  -1.386968e+06   1.575788e+06
  -1.668519e+06   2.347149e+05
  -5.420061e+05  -8.207483e+05
   6.213525e+05  -8.181815e+05
   7.209457e+05  -6.341659e+04
  -2.638946e+04   5.143552e+05
  -6.076158e+05   3.858800e+05
  -4.013563e+05  -8.601583e+04
   2.737767e+05  -1.412986e+05
   5.617582e+05   4.692626e+05
  -9.056568e+04   1.118180e+06
  -1.324139e+06   8.891459e+05
  -2.039744e+06  -4.229168e+05
  -1.394089e+06  -1.936728e+06
   2.634540e+05  -2.426413e+06
   1.636292e+06  -1.495323e+06
   1.789762e+06   4.571757e+04
   1.039044e+06   1.004439e+06
   3.929575e+05   9.397506e+05
   3.331068e+05   4.244481e+05
   4.228266e+05   2.732135e+05
   3.599357e+04   6.398049e+05
  -8.213713e+05   9.028411e+05
  -1.467209e+06   3.979860e+05
  -1.167266e+06  -7.559190e+05
   1.700996e+05  -1.588363e+06
   1.733352e+06  -1.144380e+06
   2.279787e+06   4.846027e+05
   1.171382e+06   2.063367e+06
  -9.055417e+05   2.299035e+06
  -2.421327e+06   1.064171e+06
  -2.373632e+06  -5.366980e+05
  -1.137032e+06  -1.316354e+06
   8.678494e+04  -1.105944e+06
   5.089839e+05  -6.817421e+05
   3.330239e+05  -7.482476e+05
   2.619019e+05  -1.158578e+06
   6.622091e+05  -1.148411e+06
   1.217643e+06  -2.443737e+05
   1.269403e+06   1.119637e+06
   4.924825e+05   1.903780e+06
  -6.703258e+05   1.415282e+06
  -1.288284e+06   2.459697e+03
  -8.136928e+05  -1.215931e+06
   3.035268e+05  -1.353359e+06
   1.015295e+06  -5.004396e+05
   7.524598e+05   5.013108e+05
  -1.208492e+04   9.325610e+05
  -3.633712e+05   7.711711e+05
  -1.118465e+04   4.774194e+05
   3.928298e+05   3.867421e+05
   3.044386e+04   4.010168e+05
  -1.078234e+06   2.013558e+05
  -1.946940e+06  -3.451605e+05
  -1.574484e+06  -1.000496e+06
  -3.482201e+04  -1.325965e+06
   1.472984e+06  -1.045808e+06
   1.767101e+06  -3.137029e+05
   8.430475e+05   3.537726e+05
  -2.187879e+05   4.827379e+05
  -4.619936e+05   7.976665e+04
   3.395986e+04  -3.338064e+05
   4.969706e+05  -2.247436e+05
   4.529282e+05   3.558944e+05
   1.277380e+05   7.675275e+05
  -1.861791e+04   4.966328e+05
   1.435066e+05  -1.685455e+05
   3.596920e+05  -3.873812e+05
   2.885401e+05   2.228631e+05
  -2.138443e+05   1.021035e+06
  -9.155769e+05   1.017657e+06
  -1.237119e+06   5.606139e+04
  -6.976481e+05  -9.470888e+05
   4.506772e+05  -1.020808e+06
   1.196148e+06  -1.925095e+05
   7.031203e+05   6.248838e+05
  -6.833042e+05   6.487113e+05
  -1.622336e+06  -6.501331e+04
  -1.125594e+06  -8.389083e+05
   3.883077e+05  -1.055051e+06
   1.519297e+06  -6.010520e+05
   1.316774e+06   1.271333e+05
   1.816212e+05   5.363673e+05
  -6.361777e+05   3.049429e+05
  -3.384709e+05  -2.721644e+05
   6.526901e+05  -4.608695e+05
   1.178401e+06   1.906948e+05
   5.494282e+05   1.249059e+06
  -7.512101e+05   1.660258e+06
  -1.571197e+06   7.827495e+05
  -1.239324e+06  -8.336396e+05
  -1.449662e+05  -1.832152e+06
   7.741118e+05  -1.339581e+06
   9.398128e+05   1.333906e+05
   4.724396e+05   1.194849e+06
  -1.531590e+05   1.011192e+06
  -5.384485e+05   1.051272e+05
  -5.252252e+05  -4.001515e+05
  -2.336747e+05  -1.577210e+05
  -2.217076e+04   1.138103e+05
  -1.692733e+05  -2.671783e+05
  -4.496786e+05  -9.699557e+05
  -2.514981e+05  -1.098752e+06
   6.322448e+05  -3.855512e+05
   1.490156e+06   5.070155e+05
   1.349200e+06   8.673760e+05
   1.768710e+05   6.912879e+05
  -9.405270e+05   4.005674e+05
  -1.020050e+06   1.876070e+05
  -3.004872e+05  -2.837405e+04
   1.800515e+05  -2.193744e+05
  -4.283635e+04  -2.369436e+05
  -3.542125e+05  -1.389038e+05
  -1.475535e+04  -1.446611e+05
   7.676626e+05  -1.962805e+05
   1.046194e+06   7.042964e+04
   2.899983e+05   7.107809e+05
  -9.695554e+05   1.118466e+06
  -1.686419e+06   6.399122e+05
  -1.310286e+06  -5.384765e+05
  -2.008463e+05  -1.442968e+06
   7.981167e+05  -1.330293e+06
   1.079177e+06  -4.520489e+05
   6.695807e+05   2.992925e+05
   8.779463e+04   3.680623e+05
  -1.486783e+05   2.530337e+04
   4.966016e+04  -6.570391e+04
   3.250793e+05   3.511859e+05
   2.546180e+05   8.174248e+05
  -2.211437e+05   6.627900e+05
  -7.038564e+05  -1.955247e+05
  -6.723389e+05  -1.040071e+06
   4.074703e+03  -1.044518e+06
   8.215855e+05  -1.569866e+05
   1.001771e+06   8.313570e+05
   2.642883e+05   1.110920e+06
  -7.600868e+05   6.043383e+05
  -1.089517e+06  -1.394019e+05
  -4.654331e+05  -5.894030e+05
   3.155495e+05  -6.048933e+05
   3.357897e+05  -3.336687e+05
  -3.185296e+05  -3.475995e+04
  -6.742504e+05   8.906000e+03
  -1.124153e+05  -3.051758e+05
   8.528862e+05  -6.646241e+05
   1.222720e+06  -5.437307e+05
   6.883387e+05   1.608730e+05
  -1.360167e+05   8.461720e+05
  -5.307152e+05   8.083086e+05
  -3.744437e+05   9.197538e+04
  -6.279416e+03  -5.160521e+05
   2.730110e+05  -3.960500e+05
   3.609164e+05   2.182879e+05
   2.268400e+05   5.935952e+05
  -9.089136e+04   3.767920e+05
  -3.929853e+05  -8.466174e+04
  -4.430362e+05  -2.608194e+05
  -2.352787e+05  -6.886301e+04
  -6.464650e+03   1.102559e+05
   6.809737e+04  -4.866173e+04
   7.672605e+04  -4.049983e+05
   1.936793e+05  -5.032542e+05
   3.802063e+05  -1.068940e+05
   3.796706e+05   4.782143e+05
   3.242369e+04   6.810688e+05
  -4.559443e+05   2.773727e+05
  -6.253985e+05  -3.492058e+05
  -2.084747e+05  -6.142419e+05
   5.077227e+05  -3.390094e+05
   8.551073e+05   1.385135e+05
   4.517864e+05   4.012611e+05
  -3.161507e+05   3.488741e+05
  -6.433815e+05   1.510863e+05
  -2.085627e+05  -6.065634e+03
   4.213280e+05  -1.841436e+04
   4.422357e+05   1.402001e+05
  -2.264984e+05   3.332430e+05
  -8.442274e+05   2.562757e+05
