
 $NMID
 id='ANONYMOUS ', fmtdat='(2E16.6)'
 volume=1.0
 tramp=1.0
 $END
   4.863812e+07  -1.730300e+05
   2.980150e+07   2.902115e+07
  -5.437480e+06   3.264819e+07
  -2.338766e+07   1.380891e+07
  -1.472231e+07  -4.882006e+06
   2.278545e+06  -8.163849e+06
   8.681221e+06   2.628971e+05
   3.136005e+06   8.336319e+06
  -4.890286e+06   8.831557e+06
  -8.435665e+06   2.356003e+06
  -6.326920e+06  -5.464945e+06
  -7.815484e+05  -7.821353e+06
   3.619473e+06  -2.354754e+06
   2.511757e+06   5.218435e+06
  -3.167747e+06   6.276674e+06
  -6.997786e+06  -8.330460e+05
  -4.190435e+06  -8.907246e+06
   3.073925e+06  -1.048048e+07
   8.792008e+06  -5.236400e+06
   9.370216e+06   1.880884e+06
   5.513791e+06   6.501639e+06
   4.436249e+05   7.181498e+06
  -2.180372e+06   4.913424e+06
  -8.709053e+05   2.511945e+06
   1.459614e+06   2.567731e+06
   3.506340e+04   4.270491e+06
  -5.382390e+06   3.954943e+06
  -9.034755e+06   1.549274e+05
  -6.272029e+06  -3.914187e+06
   1.743030e+05  -4.520705e+06
   3.771822e+06  -2.030930e+06
   2.232688e+06   4.833211e+05
  -1.123942e+06   1.256731e+06
  -2.749385e+06   3.466899e+05
  -2.146660e+06  -1.840948e+06
  -2.871264e+05  -3.933720e+06
   1.801776e+06  -3.312997e+06
   2.581272e+06   4.257637e+05
   1.130435e+06   3.192774e+06
  -7.077804e+05   1.244322e+06
  -7.137802e+04  -2.656733e+06
   2.332229e+06  -2.289444e+06
   2.313858e+06   2.712849e+06
  -1.750160e+06   5.387314e+06
  -5.668570e+06   1.045841e+06
  -4.411748e+06  -5.820018e+06
   1.444257e+06  -7.339138e+06
   6.461229e+06  -2.163547e+06
   6.445050e+06   3.897617e+06
   1.983483e+06   5.515423e+06
  -3.110773e+06   2.716853e+06
  -5.040825e+06  -1.141164e+06
  -2.528175e+06  -3.088934e+06
   1.985513e+06  -2.085745e+06
   4.064749e+06   6.512388e+05
   1.866643e+06   2.322251e+06
  -1.475506e+06   1.248912e+06
  -1.710874e+06  -8.848377e+05
   9.401101e+05  -1.021258e+06
   2.255899e+06   1.131580e+06
  -1.078223e+05   2.762046e+06
  -3.671477e+06   1.806649e+06
  -4.640370e+06  -8.563023e+05
  -2.197979e+06  -3.354963e+06
   1.677721e+06  -4.771119e+06
   4.784551e+06  -4.411669e+06
   5.744327e+06  -1.472753e+06
   4.048910e+06   3.009454e+06
   7.854994e+05   5.702120e+06
  -1.543139e+06   4.501358e+06
  -1.466441e+06   1.437053e+06
  -3.312601e+05   1.163772e+05
  -4.300551e+05   1.033350e+06
  -1.900737e+06   1.489687e+06
  -2.794451e+06  -1.311939e+05
  -1.837445e+06  -2.177295e+06
   2.074757e+05  -2.234115e+06
   1.751184e+06  -1.452183e+05
   1.730180e+06   2.191836e+06
  -6.986579e+04   2.914580e+06
  -2.712018e+06   1.464692e+06
  -4.128151e+06  -1.279298e+06
  -2.832597e+06  -3.492718e+06
   9.395773e+04  -3.737150e+06
   1.982998e+06  -2.363935e+06
   1.897979e+06  -1.071844e+06
   1.644297e+06  -7.712633e+05
   2.821664e+06  -5.885108e+05
   4.228083e+06   6.383124e+05
   3.434416e+06   2.642373e+06
   1.688107e+05   4.054472e+06
  -3.173256e+06   3.848714e+06
  -4.170611e+06   2.012418e+06
  -2.587686e+06  -5.448659e+05
  -1.272591e+05  -2.248235e+06
   1.194432e+06  -1.843255e+06
   5.406640e+05   8.473617e+04
  -1.112825e+06   1.271132e+06
  -1.844153e+06   3.818761e+05
  -8.438368e+05  -1.161082e+06
   5.551332e+05  -1.107198e+06
   5.135264e+05   3.670963e+05
  -9.107625e+05   8.325797e+05
  -1.834995e+06  -9.418418e+05
  -9.308709e+05  -3.216321e+06
   1.178421e+06  -3.510463e+06
   2.957494e+06  -1.471338e+06
   3.443739e+06   1.193276e+06
   2.483691e+06   2.761906e+06
   5.267086e+05   2.691481e+06
  -1.266062e+06   1.469920e+06
  -1.592961e+06   1.999776e+05
  -4.896984e+05  -4.431720e+04
   3.620032e+05   7.415986e+05
  -3.714011e+05   1.296503e+06
  -1.823115e+06   5.774829e+05
  -1.989808e+06  -8.115051e+05
  -4.199325e+05  -1.356901e+06
   1.144130e+06  -5.915136e+05
   9.350711e+05   4.415562e+05
  -8.044462e+05   6.036816e+05
  -2.237816e+06  -2.058973e+05
  -1.866438e+06  -1.338191e+06
   1.738545e+05  -2.045386e+06
   2.300551e+06  -1.721454e+06
   2.769894e+06  -3.040073e+05
   1.208075e+06   1.222535e+06
  -8.843807e+05   1.447301e+06
  -1.491819e+06   1.827262e+05
  -1.735210e+05  -1.041736e+06
   1.492256e+06  -7.270072e+05
   1.716291e+06   7.427531e+05
   3.930796e+05   1.635359e+06
  -1.039425e+06   1.027583e+06
  -1.267283e+06  -2.422756e+05
  -2.942774e+05  -7.556556e+05
   7.613944e+05  -6.798658e+04
   7.234445e+05   1.035652e+06
  -5.804828e+05   1.408907e+06
  -1.999285e+06   5.287902e+05
  -2.018515e+06  -1.045982e+06
  -3.889410e+05  -2.053467e+06
   1.406599e+06  -1.638788e+06
   1.708359e+06  -2.356834e+05
   5.239863e+05   8.515115e+05
  -6.408930e+05   8.157301e+05
  -6.592879e+05   7.580148e+04
   9.197928e+04  -4.114277e+05
   5.301616e+05  -2.635368e+05
   2.069771e+05   7.902200e+04
  -4.027506e+05  -1.267827e+03
  -5.434952e+05  -6.071468e+05
   1.582661e+05  -1.171751e+06
   1.356147e+06  -9.085769e+05
   2.073161e+06   3.953204e+05
   1.463274e+06   1.925306e+06
  -2.072003e+05   2.423559e+06
  -1.610455e+06   1.452273e+06
  -1.723206e+06  -8.900019e+04
  -9.169869e+05  -9.261729e+05
  -3.371955e+05  -7.374794e+05
  -4.295745e+05  -2.717593e+05
  -5.698846e+05  -2.886935e+05
  -8.569057e+04  -7.240760e+05
   8.510456e+05  -9.112566e+05
   1.452550e+06  -3.597409e+05
   1.090130e+06   7.255705e+05
  -2.162311e+05   1.502386e+06
  -1.716849e+06   1.109861e+06
  -2.261782e+06  -4.630234e+05
  -1.166171e+06  -2.079372e+06
   9.540196e+05  -2.358860e+06
   2.497670e+06  -1.069156e+06
   2.367619e+06   6.012877e+05
   1.022956e+06   1.328534e+06
  -1.666034e+05   9.987455e+05
  -4.250053e+05   5.611042e+05
  -1.462239e+05   7.446985e+05
  -1.329220e+05   1.259097e+06
  -6.509695e+05   1.253848e+06
  -1.265720e+06   3.118964e+05
  -1.327187e+06  -1.076342e+06
  -5.566528e+05  -1.889673e+06
   6.209820e+05  -1.435548e+06
   1.286560e+06  -1.178093e+04
   8.273140e+05   1.255636e+06
  -3.500255e+05   1.389909e+06
  -1.118263e+06   4.491339e+05
  -8.065676e+05  -6.300853e+05
   7.576202e+04  -1.038121e+06
   4.778112e+05  -7.893406e+05
   6.131615e+04  -4.369660e+05
  -4.233607e+05  -3.448251e+05
  -5.475209e+04  -3.868123e+05
   1.125671e+06  -2.210414e+05
   2.032096e+06   3.118079e+05
   1.616157e+06   1.008698e+06
   7.284682e+02   1.405978e+06
  -1.541373e+06   1.132666e+06
  -1.811275e+06   3.080782e+05
  -8.454412e+05  -4.459195e+05
   2.406118e+05  -5.481162e+05
   4.984256e+05  -5.345942e+04
   1.923321e+04   3.939215e+05
  -4.543595e+05   2.518919e+05
  -4.766824e+05  -3.398950e+05
  -2.248268e+05  -7.288287e+05
  -6.883186e+04  -4.795627e+05
  -1.401976e+05   1.163207e+05
  -3.011902e+05   3.190767e+05
  -2.816039e+05  -2.271576e+05
   1.518397e+05  -9.950181e+05
   8.908847e+05  -1.061767e+06
   1.322595e+06  -1.611677e+05
   8.192536e+05   9.095311e+05
  -4.089474e+05   1.110903e+06
  -1.233370e+06   3.141465e+05
  -7.302901e+05  -5.779272e+05
   6.906176e+05  -6.561054e+05
   1.598998e+06   7.318603e+04
   1.046039e+06   8.505670e+05
  -4.516375e+05   1.013551e+06
  -1.502946e+06   5.239813e+05
  -1.258154e+06  -1.652055e+05
  -1.505469e+05  -5.199246e+05
   6.447852e+05  -2.849152e+05
   3.767123e+05   2.836376e+05
  -5.944385e+05   5.121858e+05
  -1.180645e+06  -9.390317e+04
  -6.545347e+05  -1.187109e+06
   6.071738e+05  -1.696692e+06
   1.492383e+06  -8.775742e+05
   1.260037e+06   7.608621e+05
   2.086285e+05   1.798960e+06
  -7.361066e+05   1.312875e+06
  -9.325027e+05  -1.581020e+05
  -4.527644e+05  -1.190629e+06
   1.971193e+05  -9.830626e+05
   5.575364e+05  -9.483771e+04
   4.821828e+05   3.794309e+05
   1.789769e+05   1.418251e+05
   4.283286e+04  -1.003305e+05
   2.616284e+05   2.845637e+05
   5.082042e+05   9.617485e+05
   2.135586e+05   1.083525e+06
  -6.952342e+05   4.027737e+05
  -1.483838e+06  -4.590631e+05
  -1.303040e+06  -8.324098e+05
  -1.910206e+05  -6.961728e+05
   8.658315e+05  -4.235694e+05
   9.905032e+05  -1.928398e+05
   3.516992e+05   4.379303e+04
  -1.493321e+05   2.257746e+05
  -2.080708e+04   2.128830e+05
   2.805138e+05   1.009690e+05
   4.610614e+04   1.340533e+05
  -6.767510e+05   2.354670e+05
  -1.047806e+06  -8.950748e+03
  -4.188858e+05  -6.890630e+05
   8.485137e+05  -1.178490e+06
   1.690597e+06  -7.601362e+05
   1.402417e+06   4.300720e+05
   2.805385e+05   1.410116e+06
  -7.566726e+05   1.380430e+06
  -1.048455e+06   5.390209e+05
  -6.604933e+05  -2.346606e+05
  -1.318684e+05  -3.582618e+05
   7.967653e+04  -6.068223e+04
  -7.772317e+04   2.472660e+04
  -3.087856e+05  -3.634497e+05
  -2.576662e+05  -8.087071e+05
   1.768208e+05  -6.802800e+05
   6.859561e+05   1.223501e+05
   7.432177e+05   9.541978e+05
   1.148797e+05   1.032414e+06
  -7.580248e+05   2.469770e+05
  -1.041272e+06  -7.208383e+05
  -3.535692e+05  -1.089062e+06
   7.104705e+05  -6.798098e+05
   1.118405e+06   6.746759e+04
   5.337984e+05   6.043490e+05
  -2.815014e+05   6.755548e+05
  -3.711227e+05   3.704390e+05
   2.546799e+05   9.472886e+03
   6.526507e+05  -4.399642e+04
   1.474464e+05   3.063680e+05
  -8.220142e+05   6.884943e+05
  -1.252777e+06   5.568263e+05
  -7.596130e+05  -1.666355e+05
   8.965566e+04  -8.700774e+05
   5.410410e+05  -8.607183e+05
   4.195726e+05  -1.618192e+05
   5.524526e+04   4.823264e+05
  -2.369325e+05   4.357724e+05
  -3.547807e+05  -1.490613e+05
  -2.594457e+05  -5.767232e+05
   5.013091e+04  -4.246573e+05
   3.923072e+05   4.305389e+04
   4.779041e+05   2.737393e+05
   2.439766e+05   9.156972e+04
  -3.354066e+04  -1.466685e+05
  -8.324483e+04  -3.534935e+04
   9.315250e+03   3.572102e+05
  -5.320658e+04   5.474376e+05
  -3.203995e+05   2.145764e+05
  -4.578084e+05  -3.806763e+05
  -1.565358e+05  -6.486291e+05
   4.081981e+05  -3.176825e+05
   6.666037e+05   2.759558e+05
   2.585938e+05   5.740220e+05
  -5.040668e+05   3.712326e+05
  -8.837958e+05  -6.820152e+04
  -4.833147e+05  -3.738607e+05
   2.904505e+05  -4.018789e+05
   6.376205e+05  -2.322864e+05
   2.483849e+05  -2.048233e+04
  -3.500398e+05   6.968113e+04
  -4.108592e+05  -6.304257e+04
   1.682392e+05  -2.959745e+05
   7.470241e+05  -2.802169e+05
