
 $NMID
 id='ANONYMOUS ', fmtdat='(2E16.6)'
 volume=1.0
 tramp=1.0
 $END
  -4.689203e+07  -5.131132e+05
  -2.836944e+07  -2.823974e+07
   5.576146e+06  -3.133857e+07
   2.266146e+07  -1.313519e+07
   1.417151e+07   4.739124e+06
  -2.228466e+06   7.841808e+06
  -8.378137e+06  -2.597891e+05
  -3.008081e+06  -8.053258e+06
   4.759835e+06  -8.546450e+06
   8.169500e+06  -2.243358e+06
   6.064889e+06   5.371129e+06
   6.589903e+05   7.608191e+06
  -3.549462e+06   2.218920e+06
  -2.391299e+06  -5.139061e+06
   3.120381e+06  -6.094866e+06
   6.757320e+06   8.537191e+05
   3.964416e+06   8.655320e+06
  -3.082055e+06   1.009896e+07
  -8.559913e+06   4.941878e+06
  -9.014297e+06  -1.965358e+06
  -5.191744e+06  -6.358449e+06
  -2.941305e+05  -6.891343e+06
   2.131324e+06  -4.652165e+06
   7.653583e+05  -2.421083e+06
  -1.458011e+06  -2.589934e+06
   4.226046e+04  -4.218972e+06
   5.348942e+06  -3.772130e+06
   8.819639e+06   8.959836e+03
   6.024270e+06   3.912775e+06
  -2.886206e+05   4.385643e+06
  -3.752000e+06   1.886237e+06
  -2.169412e+06  -5.692678e+05
   1.180672e+06  -1.272257e+06
   2.771162e+06  -2.983392e+05
   2.091258e+06   1.889443e+06
   1.844225e+05   3.881625e+06
  -1.821848e+06   3.170450e+06
  -2.458597e+06  -5.016108e+05
  -9.935657e+05  -3.109600e+06
   7.145979e+05  -1.129265e+06
   7.941896e+03   2.644707e+06
  -2.306172e+06   2.220863e+06
  -2.219349e+06  -2.638620e+06
   1.713938e+06  -5.174669e+06
   5.428962e+06  -9.434532e+05
   4.164165e+06   5.652460e+06
  -1.470015e+06   7.047125e+06
  -6.266464e+06   2.003717e+06
  -6.222155e+06  -3.850541e+06
  -1.894593e+06  -5.382559e+06
   3.046530e+06  -2.630406e+06
   4.911457e+06   1.137576e+06
   2.456655e+06   3.016768e+06
  -1.925979e+06   2.007012e+06
  -3.928649e+06  -6.626755e+05
  -1.791624e+06  -2.258273e+06
   1.438184e+06  -1.191867e+06
   1.666449e+06   8.732780e+05
  -8.874848e+05   9.994069e+05
  -2.167185e+06  -1.066472e+06
   8.779262e+04  -2.622543e+06
   3.516258e+06  -1.705043e+06
   4.463899e+06   8.468921e+05
   2.096822e+06   3.251299e+06
  -1.699809e+06   4.610169e+06
  -4.738464e+06   4.225822e+06
  -5.617090e+06   1.338960e+06
  -3.878479e+06  -2.999222e+06
  -6.773192e+05  -5.562668e+06
   1.536125e+06  -4.370391e+06
   1.418513e+06  -1.417618e+06
   3.412241e+05  -1.592555e+05
   4.911678e+05  -1.026052e+06
   1.929205e+06  -1.410461e+06
   2.750653e+06   2.087616e+05
   1.761439e+06   2.196859e+06
  -2.581055e+05   2.209272e+06
  -1.749071e+06   1.178249e+05
  -1.683419e+06  -2.189019e+06
   1.128668e+05  -2.863535e+06
   2.680715e+06  -1.383311e+06
   4.003093e+06   1.324251e+06
   2.690884e+06   3.442144e+06
  -1.526945e+05   3.613953e+06
  -1.947954e+06   2.251768e+06
  -1.838527e+06   1.017213e+06
  -1.600592e+06   7.464554e+05
  -2.763809e+06   5.567403e+05
  -4.131516e+06  -6.640691e+05
  -3.336225e+06  -2.623208e+06
  -1.218001e+05  -3.977358e+06
   3.161050e+06  -3.738420e+06
   4.124574e+06  -1.915006e+06
   2.530453e+06   5.830965e+05
   7.985273e+04   2.215569e+06
  -1.209344e+06   1.787618e+06
  -5.283078e+05  -9.632856e+04
   1.112469e+06  -1.231575e+06
   1.809000e+06  -3.502007e+05
   8.047163e+05   1.146744e+06
  -5.634939e+05   1.081276e+06
  -5.108400e+05  -3.621947e+05
   8.820768e+05  -8.219557e+05
   1.782850e+06   9.028936e+05
   9.089090e+05   3.131497e+06
  -1.143756e+06   3.441283e+06
  -2.893196e+06   1.454563e+06
  -3.383377e+06  -1.177582e+06
  -2.436063e+06  -2.739408e+06
  -4.974328e+05  -2.660369e+06
   1.264514e+06  -1.430877e+06
   1.570138e+06  -1.744321e+05
   4.801746e+05   4.911878e+04
  -3.472848e+05  -7.313006e+05
   3.752018e+05  -1.262499e+06
   1.786389e+06  -5.441927e+05
   1.937817e+06   8.109186e+05
   4.002920e+05   1.328966e+06
  -1.126536e+06   5.699900e+05
  -9.195010e+05  -4.416980e+05
   7.893290e+05  -5.943309e+05
   2.201598e+06   2.111434e+05
   1.834737e+06   1.331147e+06
  -1.824881e+05   2.016226e+06
  -2.277549e+06   1.673728e+06
  -2.723479e+06   2.706765e+05
  -1.170371e+06  -1.209178e+06
   8.819024e+05  -1.403023e+06
   1.458150e+06  -1.596852e+05
   1.535871e+05   1.020426e+06
  -1.471037e+06   6.948140e+05
  -1.676112e+06  -7.439817e+05
  -3.748113e+05  -1.607254e+06
   1.024176e+06  -1.003539e+06
   1.241910e+06   2.422727e+05
   2.868293e+05   7.407634e+05
  -7.431975e+05   5.905847e+04
  -6.961261e+05  -1.023371e+06
   5.876914e+05  -1.374886e+06
   1.969008e+06  -4.936995e+05
   1.967761e+06   1.050820e+06
   3.583028e+05   2.018245e+06
  -1.395837e+06   1.591904e+06
  -1.677487e+06   2.150252e+05
  -5.076460e+05  -8.393680e+05
   6.360085e+05  -7.952054e+05
   6.522679e+05  -6.727219e+04
  -9.004809e+04   4.099630e+05
  -5.283178e+05   2.616820e+05
  -2.151750e+05  -8.016549e+04
   3.872105e+05  -4.268677e+03
   5.292197e+05   5.925051e+05
  -1.622062e+05   1.145801e+06
  -1.338459e+06   8.780748e+05
  -2.030062e+06  -4.098683e+05
  -1.414124e+06  -1.905551e+06
   2.303952e+05  -2.378338e+06
   1.597290e+06  -1.413617e+06
   1.695878e+06   1.011857e+05
   8.995448e+05   9.235990e+05
   3.275202e+05   7.407224e+05
   4.128603e+05   2.808574e+05
   5.473503e+05   2.878377e+05
   7.404781e+04   7.063770e+05
  -8.425869e+05   8.862312e+05
  -1.430934e+06   3.418526e+05
  -1.068620e+06  -7.250365e+05
   2.238203e+05  -1.479018e+06
   1.697824e+06  -1.075767e+06
   2.218002e+06   4.778184e+05
   1.125736e+06   2.052292e+06
  -9.563369e+05   2.303662e+06
  -2.458253e+06   1.025832e+06
  -2.319943e+06  -6.090314e+05
  -9.993518e+05  -1.313884e+06
   1.680953e+05  -9.863251e+05
   4.283465e+05  -5.547645e+05
   1.629064e+05  -7.300374e+05
   1.509265e+05  -1.228638e+06
   6.519864e+05  -1.218299e+06
   1.242875e+06  -2.898296e+05
   1.289325e+06   1.072572e+06
   5.243929e+05   1.862061e+06
  -6.268266e+05   1.402553e+06
  -1.263765e+06  -1.363626e+03
  -7.996322e+05  -1.238500e+06
   3.540231e+05  -1.359348e+06
   1.095902e+06  -4.338171e+05
   7.826897e+05   6.181018e+05
  -8.011034e+04   1.012001e+06
  -4.693528e+05   7.695635e+05
  -6.118468e+04   4.312454e+05
   4.104375e+05   3.454082e+05
   4.846270e+04   3.813031e+05
  -1.104522e+06   2.050528e+05
  -1.987147e+06  -3.277891e+05
  -1.574862e+06  -1.005556e+06
   1.045032e+04  -1.375650e+06
   1.520106e+06  -1.092039e+06
   1.778953e+06  -2.856126e+05
   8.259779e+05   4.400413e+05
  -2.400747e+05   5.317596e+05
  -4.876649e+05   4.947216e+04
  -1.169371e+04  -3.830757e+05
   4.513958e+05  -2.411991e+05
   4.633185e+05   3.394083e+05
   2.074405e+05   7.203631e+05
   5.728326e+04   4.726683e+05
   1.390626e+05  -1.162870e+05
   3.027211e+05  -3.148790e+05
   2.748333e+05   2.254918e+05
  -1.627134e+05   9.773662e+05
  -8.866592e+05   1.031328e+06
  -1.294782e+06   1.388572e+05
  -7.879129e+05  -9.034232e+05
   4.149010e+05  -1.081187e+06
   1.211756e+06  -2.888088e+05
   7.098575e+05   5.776193e+05
  -6.840661e+05   6.372618e+05
  -1.571204e+06  -8.670320e+04
  -1.024352e+06  -8.446888e+05
   4.491867e+05  -9.938391e+05
   1.482209e+06  -5.051984e+05
   1.237909e+06   1.718835e+05
   1.448784e+05   5.131655e+05
  -6.354397e+05   2.749554e+05
  -3.647800e+05  -2.813853e+05
   5.924507e+05  -4.939263e+05
   1.158377e+06   1.098398e+05
   6.245327e+05   1.176072e+06
  -6.219276e+05   1.657990e+06
  -1.479134e+06   8.412976e+05
  -1.228767e+06  -7.640538e+05
  -1.834596e+05  -1.770864e+06
   7.380240e+05  -1.284023e+06
   9.147984e+05   1.626064e+05
   4.345302e+05   1.173953e+06
  -2.001695e+05   9.654615e+05
  -5.472302e+05   8.849423e+04
  -4.727060e+05  -3.786523e+05
  -1.779706e+05  -1.420938e+05
  -4.169825e+04   9.902534e+04
  -2.482177e+05  -2.807506e+05
  -4.860693e+05  -9.498880e+05
  -2.018089e+05  -1.067220e+06
   6.825315e+05  -3.878448e+05
   1.453248e+06   4.682078e+05
   1.274715e+06   8.323320e+05
   1.800100e+05   6.852084e+05
  -8.592432e+05   4.061097e+05
  -9.765458e+05   1.795225e+05
  -3.416598e+05  -4.532262e+04
   1.508252e+05  -2.198548e+05
   1.835489e+04  -2.105055e+05
  -2.792936e+05  -1.043932e+05
  -4.194727e+04  -1.327513e+05
   6.727807e+05  -2.221204e+05
   1.028803e+06   2.283686e+04
   3.963600e+05   6.820307e+05
  -8.524583e+05   1.145231e+06
  -1.667235e+06   7.224925e+05
  -1.367077e+06  -4.427937e+05
  -2.567700e+05  -1.389629e+06
   7.590100e+05  -1.345160e+06
   1.036767e+06  -5.136257e+05
   6.469512e+05   2.410094e+05
   1.231962e+05   3.537057e+05
  -8.329294e+04   5.645666e+04
   7.478011e+04  -2.623983e+04
   3.008528e+05   3.591197e+05
   2.451018e+05   7.972711e+05
  -1.830470e+05   6.652317e+05
  -6.736048e+05  -1.315210e+05
  -7.160666e+05  -9.497753e+05
  -9.515812e+04  -1.015711e+06
   7.508825e+05  -2.293576e+05
   1.013039e+06   7.250884e+05
   3.309569e+05   1.074295e+06
  -7.074294e+05   6.558602e+05
  -1.095785e+06  -8.163959e+04
  -5.140125e+05  -5.976015e+05
   2.850813e+05  -6.561246e+05
   3.656875e+05  -3.578966e+05
  -2.541669e+05  -1.346386e+04
  -6.427621e+05   3.464271e+04
  -1.395865e+05  -3.021834e+05
   8.158930e+05  -6.667058e+05
   1.233723e+06  -5.340307e+05
   7.397802e+05   1.704867e+05
  -9.939160e+04   8.520421e+05
  -5.388823e+05   8.367215e+05
  -4.105985e+05   1.503925e+05
  -4.640378e+04  -4.763725e+05
   2.391805e+05  -4.230734e+05
   3.473300e+05   1.543160e+05
   2.471305e+05   5.699555e+05
  -5.591308e+04   4.134133e+05
  -3.848762e+05  -4.875843e+04
  -4.644681e+05  -2.725440e+05
  -2.381883e+05  -9.078070e+04
   2.896445e+04   1.419493e+05
   8.051555e+04   3.002028e+04
  -6.382839e+01  -3.539353e+05
   6.661824e+04  -5.341046e+05
   3.205126e+05  -2.005797e+05
   4.407695e+05   3.845336e+05
   1.393886e+05   6.405089e+05
  -4.070098e+05   3.054057e+05
  -6.492651e+05  -2.821408e+05
  -2.451541e+05  -5.687979e+05
   4.988084e+05  -3.576521e+05
   8.653823e+05   8.000744e+04
   4.689981e+05   3.735576e+05
  -2.907272e+05   3.884208e+05
  -6.287306e+05   2.167155e+05
  -2.415119e+05   1.604206e+04
   3.490427e+05  -6.166311e+04
   4.048714e+05   7.091872e+04
  -1.719044e+05   2.914379e+05
  -7.426585e+05   2.663802e+05
