
 $NMID
 id='ANONYMOUS ', fmtdat='(2E16.6)'
 volume=1.0
 tramp=1.0
 $END
  -3.236233e+07   1.248241e+06
  -2.139949e+07  -1.763656e+07
   1.755226e+06  -2.187826e+07
   1.524452e+07  -1.115227e+07
   1.093006e+07   1.825158e+06
  -7.138957e+05   5.903641e+06
  -6.333435e+06   9.134654e+05
  -3.199831e+06  -5.648483e+06
   2.797882e+06  -7.093558e+06
   5.944935e+06  -2.458393e+06
   4.651043e+06   3.788266e+06
   6.119999e+05   5.745925e+06
  -2.615123e+06   1.591730e+06
  -1.919288e+06  -4.127580e+06
   2.093900e+06  -5.010712e+06
   5.017746e+06   1.218146e+05
   3.307387e+06   6.091527e+06
  -1.783821e+06   7.414345e+06
  -5.912829e+06   3.718928e+06
  -6.260031e+06  -1.280153e+06
  -3.499452e+06  -4.221087e+06
  -3.190769e+05  -4.381806e+06
   8.840977e+05  -3.061180e+06
  -2.171217e+05  -2.160892e+06
  -1.324305e+06  -2.667397e+06
   3.501982e+05  -3.530262e+06
   4.382243e+06  -2.660016e+06
   6.721738e+06   2.821156e+05
   4.377112e+06   2.969936e+06
  -5.129912e+05   3.090872e+06
  -3.063299e+06   1.050943e+06
  -1.452163e+06  -8.728937e+05
   1.571507e+06  -1.166179e+06
   2.700630e+06   9.719292e+04
   1.516187e+06   2.013075e+06
  -3.370928e+05   3.154589e+06
  -1.461532e+06   2.122819e+06
  -1.382905e+06  -5.826872e+05
  -3.937090e+05  -2.060409e+06
   3.413708e+05  -3.437896e+05
  -3.570569e+05   2.300488e+06
  -1.859326e+06   1.822313e+06
  -1.847685e+06  -1.793544e+06
   6.783283e+05  -3.847479e+06
   3.415366e+06  -1.122412e+06
   3.095465e+06   3.575559e+06
  -5.559247e+05   4.927490e+06
  -4.316832e+06   1.627356e+06
  -4.836557e+06  -2.673474e+06
  -1.759804e+06  -4.112999e+06
   2.277417e+06  -2.272432e+06
   4.019924e+06   6.290863e+05
   2.223526e+06   2.277807e+06
  -1.234877e+06   1.724983e+06
  -2.971800e+06  -2.259860e+05
  -1.533413e+06  -1.569187e+06
   9.679397e+05  -9.674934e+05
   1.413386e+06   6.301577e+05
  -4.432620e+05   1.056269e+06
  -1.806198e+06  -2.979576e+05
  -5.679966e+05  -1.755088e+06
   2.078779e+06  -1.576421e+06
   3.281448e+06   1.534578e+05
   1.767550e+06   2.171452e+06
  -1.265480e+06   3.395519e+06
  -3.720594e+06   3.085388e+06
  -4.226373e+06   8.785675e+05
  -2.736096e+06  -2.292487e+06
  -4.458134e+05  -4.198470e+06
   1.022543e+06  -3.487499e+06
   1.045058e+06  -1.432889e+06
   5.712826e+05  -3.736767e+05
   8.457647e+05  -7.221522e+05
   1.779422e+06  -7.724286e+05
   2.139394e+06   5.389155e+05
   1.184711e+06   2.015029e+06
  -4.814850e+05   1.849360e+06
  -1.618252e+06  -3.441241e+04
  -1.382545e+06  -1.966614e+06
   2.002897e+05  -2.346596e+06
   2.151966e+06  -9.536906e+05
   2.972833e+06   1.157213e+06
   1.899571e+06   2.569306e+06
  -1.101410e+05   2.550685e+06
  -1.304005e+06   1.598539e+06
  -1.234176e+06   8.391257e+05
  -1.199968e+06   7.175150e+05
  -2.219746e+06   5.424009e+05
  -3.330933e+06  -4.814151e+05
  -2.702398e+06  -2.109083e+06
  -8.930828e+04  -3.239569e+06
   2.633082e+06  -2.996317e+06
   3.414594e+06  -1.412780e+06
   1.993188e+06   6.158319e+05
  -1.057286e+05   1.804004e+06
  -1.096666e+06   1.359054e+06
  -4.151707e+05  -1.184576e+05
   9.434813e+05  -9.677071e+05
   1.447766e+06  -2.804756e+05
   6.033344e+05   8.992580e+05
  -5.134060e+05   8.895210e+05
  -5.159574e+05  -2.968927e+05
   6.243190e+05  -8.480288e+05
   1.541526e+06   4.303093e+05
   1.052205e+06   2.440728e+06
  -6.482900e+05   3.060332e+06
  -2.362988e+06   1.550409e+06
  -2.989451e+06  -8.494037e+05
  -2.167061e+06  -2.386539e+06
  -4.088564e+05  -2.310987e+06
   1.100159e+06  -1.155683e+06
   1.313152e+06  -8.365069e+04
   3.968467e+05   4.931567e+04
  -2.884964e+05  -5.958497e+05
   2.621863e+05  -1.008962e+06
   1.396980e+06  -4.606809e+05
   1.582298e+06   5.973499e+05
   3.857745e+05   1.058134e+06
  -9.049395e+05   5.019106e+05
  -8.091748e+05  -3.590308e+05
   6.253047e+05  -5.695930e+05
   1.894781e+06   1.060345e+05
   1.620701e+06   1.139583e+06
  -1.249861e+05   1.757973e+06
  -1.916370e+06   1.420089e+06
  -2.262944e+06   2.169680e+05
  -9.616460e+05  -9.723370e+05
   6.919986e+05  -1.109900e+06
   1.140949e+06  -1.333890e+05
   1.076196e+05   7.965401e+05
  -1.190663e+06   5.585435e+05
  -1.389175e+06  -5.901186e+05
  -3.604405e+05  -1.336491e+06
   8.178276e+05  -8.978550e+05
   1.064271e+06   1.347052e+05
   3.042261e+05   6.022972e+05
  -5.649092e+05   7.571295e+04
  -5.471863e+05  -8.117184e+05
   4.945589e+05  -1.092541e+06
   1.602856e+06  -3.629694e+05
   1.583269e+06   8.805541e+05
   2.803985e+05   1.645784e+06
  -1.136365e+06   1.303043e+06
  -1.384577e+06   1.903242e+05
  -4.498514e+05  -6.924149e+05
   5.134458e+05  -6.776711e+05
   5.717762e+05  -4.861715e+04
  -5.476073e+04   3.944820e+05
  -4.871751e+05   2.567564e+05
  -2.592783e+05  -1.032576e+05
   2.889712e+05  -8.594749e+04
   4.666912e+05   4.353870e+05
  -9.849683e+04   9.336124e+05
  -1.088835e+06   7.184512e+05
  -1.656142e+06  -3.463904e+05
  -1.134818e+06  -1.568452e+06
   2.198619e+05  -1.962993e+06
   1.350382e+06  -1.189172e+06
   1.451212e+06   8.216602e+04
   7.856984e+05   8.384794e+05
   2.495084e+05   7.282888e+05
   2.591988e+05   2.858201e+05
   3.819368e+05   1.996972e+05
   4.707505e+04   5.323728e+05
  -6.889479e+05   7.268811e+05
  -1.196114e+06   2.843160e+05
  -9.016599e+05  -6.374632e+05
   1.916412e+05  -1.268764e+06
   1.420280e+06  -8.934406e+05
   1.836084e+06   4.131828e+05
   9.385435e+05   1.691282e+06
  -7.529270e+05   1.890288e+06
  -1.999633e+06   8.668321e+05
  -1.943674e+06  -4.744944e+05
  -8.885810e+05  -1.110068e+06
   1.244694e+05  -8.872238e+05
   4.222962e+05  -4.981081e+05
   2.252994e+05  -5.658697e+05
   1.651964e+05  -9.443673e+05
   5.236565e+05  -9.593663e+05
   9.933071e+05  -2.194268e+05
   1.032739e+06   8.969060e+05
   4.027770e+05   1.536567e+06
  -5.372267e+05   1.144238e+06
  -1.046507e+06  -2.558501e+03
  -6.663221e+05  -1.002500e+06
   2.617879e+05  -1.119858e+06
   8.686487e+05  -4.084064e+05
   6.494745e+05   4.368887e+05
  -1.204296e+04   8.002352e+05
  -3.268992e+05   6.535871e+05
  -3.391569e+04   3.902355e+05
   3.130484e+05   3.033267e+05
   2.100543e+04   3.175810e+05
  -8.875449e+05   1.662937e+05
  -1.593736e+06  -2.731655e+05
  -1.284929e+06  -8.193341e+05
  -2.847694e+04  -1.105168e+06
   1.204832e+06  -8.768740e+05
   1.455214e+06  -2.516621e+05
   7.051820e+05   3.164313e+05
  -1.747257e+05   4.120522e+05
  -3.914404e+05   6.062616e+04
   8.775666e+03  -2.770336e+05
   3.951337e+05  -1.753489e+05
   3.689196e+05   2.882547e+05
   1.114561e+05   5.987473e+05
  -1.241361e+03   3.832291e+05
   1.291917e+05  -1.196162e+05
   2.922876e+05  -2.802132e+05
   2.248247e+05   1.854977e+05
  -1.766944e+05   8.046019e+05
  -7.355667e+05   8.210739e+05
  -1.001536e+06   7.737842e+04
  -5.799199e+05  -7.410870e+05
   3.464569e+05  -8.391471e+05
   9.596521e+05  -1.826266e+05
   5.639340e+05   4.991793e+05
  -5.640913e+05   5.257167e+05
  -1.317912e+06  -7.572295e+04
  -8.908545e+05  -7.137703e+05
   3.519007e+05  -8.580605e+05
   1.254744e+06  -4.527391e+05
   1.063719e+06   1.362555e+05
   1.325571e+05   4.405153e+05
  -5.258558e+05   2.414923e+05
  -2.857958e+05  -2.170359e+05
   5.083139e+05  -3.701748e+05
   9.376484e+05   1.393583e+05
   4.504580e+05   9.844076e+05
  -5.834666e+05   1.326124e+06
  -1.249474e+06   6.314228e+05
  -9.935306e+05  -6.691704e+05
  -1.103801e+05  -1.473988e+06
   6.388310e+05  -1.070320e+06
   7.669603e+05   1.241301e+05
   3.689571e+05   9.788129e+05
  -1.475682e+05   8.229155e+05
  -4.436823e+05   8.269479e+04
  -4.093593e+05  -3.324339e+05
  -1.733902e+05  -1.361760e+05
  -2.676300e+04   9.448617e+04
  -1.610570e+05  -2.035474e+05
  -3.716180e+05  -7.795225e+05
  -1.854071e+05  -9.016622e+05
   5.292018e+05  -3.264797e+05
   1.199200e+06   4.151323e+05
   1.073925e+06   7.190053e+05
   1.416061e+05   5.625409e+05
  -7.479342e+05   3.081952e+05
  -8.241811e+05   1.393405e+05
  -2.592567e+05  -1.932092e+04
   1.403164e+05  -1.736936e+05
  -1.210560e+04  -2.013923e+05
  -2.609757e+05  -1.210280e+05
  -1.569777e+04  -1.071094e+05
   5.965390e+05  -1.436626e+05
   8.384477e+05   5.034697e+04
   2.561804e+05   5.496178e+05
  -7.580701e+05   8.931417e+05
  -1.355520e+06   5.365813e+05
  -1.062217e+06  -4.059545e+05
  -1.631026e+05  -1.153040e+06
   6.409607e+05  -1.078799e+06
   8.563003e+05  -3.724259e+05
   5.261897e+05   2.349748e+05
   7.682793e+04   2.876115e+05
  -9.735554e+04   1.333793e+04
   5.563440e+04  -4.891297e+04
   2.601563e+05   2.940017e+05
   2.006366e+05   6.637473e+05
  -1.697852e+05   5.332352e+05
  -5.521660e+05  -1.498267e+05
  -5.394736e+05  -8.171485e+05
  -1.439784e+04  -8.243747e+05
   6.378568e+05  -1.300083e+05
   7.966047e+05   6.517672e+05
   2.223165e+05   8.840862e+05
  -5.973898e+05   4.930775e+05
  -8.776135e+05  -1.000306e+05
  -3.924151e+05  -4.724113e+05
   2.390124e+05  -4.982926e+05
   2.753001e+05  -2.846598e+05
  -2.400623e+05  -3.894139e+04
  -5.366964e+05   4.828122e+03
  -9.688000e+04  -2.427992e+05
   6.880682e+05  -5.338999e+05
   1.004501e+06  -4.423633e+05
   5.771665e+05   1.236981e+05
  -1.019951e+05   6.847150e+05
  -4.307797e+05   6.681971e+05
  -3.020551e+05   9.653392e+04
  -5.063548e+03  -4.029346e+05
   2.095573e+05  -3.218098e+05
   2.767696e+05   1.664286e+05
   1.838649e+05   4.748361e+05
  -5.817580e+04   3.088946e+05
  -3.110480e+05  -6.251199e+04
  -3.696323e+05  -2.118808e+05
  -1.977242e+05  -6.172393e+04
   1.050662e+04   8.979561e+04
   7.624193e+04  -2.285981e+04
   5.541378e+04  -3.010391e+05
   1.206886e+05  -3.905084e+05
   2.755058e+05  -9.680877e+04
   3.039073e+05   3.546895e+05
   4.270484e+04   5.227029e+05
  -3.545964e+05   2.216243e+05
  -5.009050e+05  -2.645394e+05
  -1.679142e+05  -4.823255e+05
   4.087731e+05  -2.782869e+05
   6.874833e+05   9.773537e+04
   3.665441e+05   3.176717e+05
  -2.435998e+05   2.889396e+05
  -5.079787e+05   1.357967e+05
  -1.742585e+05   7.173202e+03
   3.166284e+05  -9.933528e+03
   3.370083e+05   1.059375e+05
  -1.807874e+05   2.497789e+05
  -6.626274e+05   1.884457e+05
