
 $NMID
 id='ANONYMOUS ', fmtdat='(2E16.6)'
 volume=1.0
 tramp=1.0
 $END
  -2.547945e+07  -1.206621e+06
  -1.451268e+07  -1.649668e+07
   4.215419e+06  -1.703902e+07
   1.273901e+07  -5.995520e+06
   7.233142e+06   3.514957e+06
  -1.699509e+06   4.117024e+06
  -4.373970e+06  -7.638293e+05
  -1.032093e+06  -4.439840e+06
   2.967991e+06  -4.055726e+06
   4.371780e+06  -6.942315e+05
   3.034733e+06   2.936725e+06
   2.080768e+05   3.899290e+06
  -1.862706e+06   1.167561e+06
  -1.101515e+06  -2.495786e+06
   1.809197e+06  -2.868067e+06
   3.512657e+06   7.665089e+05
   1.793091e+06   4.691005e+06
  -1.948317e+06   5.242473e+06
  -4.689003e+06   2.460476e+06
  -4.854229e+06  -1.152644e+06
  -2.845557e+06  -3.539320e+06
  -1.182863e+05  -3.943615e+06
   1.469594e+06  -2.666081e+06
   8.989262e+05  -1.136315e+06
  -4.870836e+05  -9.587538e+05
  -6.923048e+04  -1.894710e+06
   2.516523e+06  -1.915246e+06
   4.388433e+06  -6.683712e+04
   3.119920e+06   2.000099e+06
   2.324664e+04   2.317425e+06
  -1.739567e+06   1.122303e+06
  -1.148081e+06  -3.185147e+04
   2.595591e+05  -4.407907e+05
   1.035889e+06  -2.209239e+05
   9.957530e+05   6.712093e+05
   2.678140e+05   1.804744e+06
  -8.935782e+05   1.721557e+06
  -1.483465e+06  -1.216240e+05
  -7.066315e+05  -1.700604e+06
   4.146771e+05  -8.628737e+05
   1.374316e+05   1.125721e+06
  -1.142456e+06   9.996707e+05
  -1.035720e+06  -1.486746e+06
   1.227033e+06  -2.704400e+06
   3.160648e+06  -2.922780e+05
   2.161488e+06   3.244939e+06
  -1.048994e+06   3.807551e+06
  -3.407369e+06   9.391325e+05
  -3.050272e+06  -2.136349e+06
  -7.202362e+05  -2.745417e+06
   1.610156e+06  -1.156049e+06
   2.334512e+06   7.780322e+05
   1.023648e+06   1.607009e+06
  -1.131699e+06   9.361686e+05
  -2.020637e+06  -5.073033e+05
  -8.217860e+05  -1.263653e+06
   8.033348e+05  -5.828961e+05
   7.641848e+05   4.911065e+05
  -6.075990e+05   3.756813e+05
  -1.063443e+06  -8.427385e+05
   3.650803e+05  -1.523489e+06
   2.127750e+06  -7.453226e+05
   2.353680e+06   7.241417e+05
   9.594148e+05   1.838707e+06
  -9.145409e+05   2.350013e+06
  -2.354112e+06   2.109982e+06
  -2.840375e+06   6.817746e+05
  -2.022884e+06  -1.519463e+06
  -3.175068e+05  -2.814242e+06
   9.245064e+05  -2.115327e+06
   8.052795e+05  -5.104593e+05
   5.048604e+04   1.099865e+05
  -5.278854e+03  -4.678144e+05
   7.647756e+05  -8.061998e+05
   1.298023e+06  -7.157789e+04
   9.074884e+05   9.118743e+05
  -1.158046e+04   9.857581e+05
  -7.099950e+05   8.301793e+04
  -7.387322e+05  -9.619473e+05
   3.987436e+04  -1.335608e+06
   1.287667e+06  -7.103084e+05
   2.016734e+06   6.189035e+05
   1.395946e+06   1.769978e+06
  -1.007708e+05   1.921058e+06
  -1.089788e+06   1.186718e+06
  -1.033746e+06   4.672250e+05
  -8.381684e+05   2.730507e+05
  -1.337841e+06   1.678492e+05
  -1.958245e+06  -4.163687e+05
  -1.536870e+06  -1.311510e+06
   5.878397e+03  -1.876390e+06
   1.518024e+06  -1.724760e+06
   1.934377e+06  -9.045270e+05
   1.209556e+06   2.319611e+05
   9.590951e+04   1.028385e+06
  -5.322020e+05   8.703846e+05
  -2.590465e+05  -2.496746e+04
   5.163106e+05  -5.821225e+05
   8.762907e+05  -1.501896e+05
   4.010091e+05   5.674283e+05
  -2.519563e+05   5.018393e+05
  -1.861689e+05  -1.799983e+05
   4.924294e+05  -2.901304e+05
   8.078846e+05   6.229326e+05
   2.201391e+05   1.586950e+06
  -7.803683e+05   1.502992e+06
  -1.430720e+06   4.394879e+05
  -1.465637e+06  -7.069088e+05
  -9.866719e+05  -1.279199e+06
  -1.685575e+05  -1.188298e+06
   5.861418e+05  -6.489951e+05
   7.232940e+05  -8.165023e+04
   2.239723e+05   2.872542e+04
  -1.509729e+05  -3.488667e+05
   2.138356e+05  -6.049859e+05
   8.830655e+05  -2.296840e+05
   9.117760e+05   4.428823e+05
   1.483423e+05   6.535847e+05
  -5.442893e+05   2.395249e+05
  -3.951359e+05  -2.202834e+05
   3.936014e+05  -2.166232e+05
   9.798552e+05   1.841319e+05
   7.656593e+05   6.406807e+05
  -1.450513e+05   8.862014e+05
  -1.075732e+06   7.134055e+05
  -1.268198e+06   7.887917e+04
  -5.336128e+05  -5.999279e+05
   4.484294e+05  -6.726463e+05
   7.198717e+05  -5.868062e+04
   7.445174e+04   5.006750e+05
  -7.064212e+05   3.118684e+05
  -7.700701e+05  -3.872829e+05
  -1.223299e+05  -7.579643e+05
   5.154638e+05  -4.213367e+05
   5.641873e+05   1.678564e+05
   9.398113e+04   3.602666e+05
  -3.670266e+05   9.178808e+03
  -3.201519e+05  -4.952435e+05
   2.858776e+05  -6.434570e+05
   9.274281e+05  -2.174732e+05
   9.150174e+05   5.129325e+05
   1.410548e+05   9.555828e+05
  -6.871748e+05   7.261499e+05
  -7.921004e+05   6.504098e+04
  -2.123758e+05  -4.052833e+05
   3.147899e+05  -3.542486e+05
   2.883156e+05  -2.645226e+04
  -5.930773e+04   1.565752e+05
  -2.208859e+05   8.477891e+04
  -4.803015e+04  -2.542987e+04
   2.029272e+05   5.197826e+04
   2.192403e+05   3.195220e+05
  -1.187855e+05   5.371738e+05
  -6.471910e+05   3.840777e+05
  -9.439530e+05  -2.242989e+05
  -6.378004e+05  -9.126227e+05
   1.375508e+05  -1.101504e+06
   7.576547e+05  -6.154293e+05
   7.637989e+05   8.575001e+04
   3.734127e+05   4.161120e+05
   1.380279e+05   2.930192e+05
   2.223082e+05   1.055211e+05
   2.853577e+05   1.588144e+05
   2.751586e+04   3.545948e+05
  -4.160950e+05   3.948135e+05
  -6.635339e+05   1.220850e+05
  -4.637462e+05  -3.432938e+05
   1.379568e+05  -6.557674e+05
   8.010751e+05  -4.583317e+05
   1.015994e+06   2.572275e+05
   4.798980e+05   9.767836e+05
  -5.045545e+05   1.061518e+06
  -1.179448e+06   4.240707e+05
  -1.057457e+06  -3.431461e+05
  -4.075168e+05  -6.230117e+05
   1.097455e+05  -4.202687e+05
   1.785464e+05  -2.237370e+05
   4.067330e+04  -3.480622e+05
   6.731195e+04  -6.022646e+05
   3.303761e+05  -5.805203e+05
   5.991577e+05  -1.245645e+05
   5.953115e+05   5.149048e+05
   2.250940e+05   8.742590e+05
  -3.061065e+05   6.470128e+05
  -5.859962e+05  -2.233452e+04
  -3.475190e+05  -6.007857e+05
   2.049680e+05  -6.294393e+05
   5.393552e+05  -1.591550e+05
   3.555848e+05   3.390470e+05
  -8.088894e+04   4.903850e+05
  -2.634652e+05   3.440293e+05
  -4.667862e+04   1.845093e+05
   1.947216e+05   1.593772e+05
   2.252488e+04   1.758508e+05
  -5.298218e+05   7.550375e+04
  -9.395733e+05  -1.877245e+05
  -7.209935e+05  -5.015933e+05
   4.605016e+04  -6.557831e+05
   7.498222e+05  -4.946023e+05
   8.411877e+05  -9.357177e+04
   3.682631e+05   2.439691e+05
  -1.319978e+05   2.573241e+05
  -2.345854e+05   4.047853e+03
  -7.517212e+03  -1.974462e+05
   2.048089e+05  -1.134504e+05
   2.156957e+05   1.638020e+05
   1.105194e+05   3.350486e+05
   4.153289e+04   2.222275e+05
   6.202528e+04  -3.791339e+04
   1.261670e+05  -1.266526e+05
   1.209616e+05   1.105374e+05
  -7.620561e+04   4.478501e+05
  -4.277523e+05   4.743565e+05
  -6.329452e+05   6.049064e+04
  -3.823361e+05  -4.331692e+05
   2.089015e+05  -5.197907e+05
   5.859842e+05  -1.395587e+05
   3.285621e+05   2.711743e+05
  -3.317898e+05   2.837165e+05
  -7.200704e+05  -7.070765e+04
  -4.371303e+05  -4.084099e+05
   2.407229e+05  -4.366734e+05
   6.868889e+05  -1.869269e+05
   5.525063e+05   1.090238e+05
   5.044128e+04   2.340937e+05
  -3.005867e+05   1.094045e+05
  -1.727727e+05  -1.432463e+05
   2.727574e+05  -2.352337e+05
   5.425998e+05   4.812879e+04
   2.988872e+05   5.488110e+05
  -2.852909e+05   7.768090e+05
  -6.883113e+05   3.921780e+05
  -5.657719e+05  -3.603286e+05
  -7.013985e+04  -8.205281e+05
   3.548883e+05  -5.769600e+05
   4.172358e+05   9.883015e+04
   1.740906e+05   5.500064e+05
  -1.207084e+05   4.331246e+05
  -2.595932e+05   2.639690e+04
  -2.021723e+05  -1.760362e+05
  -6.668382e+04  -6.109279e+04
  -2.559576e+04   4.006708e+04
  -1.324308e+05  -1.462727e+05
  -2.229488e+05  -4.518425e+05
  -6.433797e+04  -4.918058e+05
   3.415071e+05  -1.665205e+05
   6.666107e+05   2.319540e+05
   5.655352e+05   3.977729e+05
   7.362760e+04   3.234363e+05
  -3.883731e+05   1.833162e+05
  -4.488447e+05   6.803991e+04
  -1.697191e+05  -3.537508e+04
   6.658881e+04  -1.029704e+05
   2.732197e+04  -8.627143e+04
  -1.110743e+05  -3.844277e+04
  -2.581607e+04  -6.191379e+04
   2.953860e+05  -1.069840e+05
   4.814484e+05   1.444795e+04
   2.058236e+05   3.276621e+05
  -3.900590e+05   5.391359e+05
  -7.967309e+05   3.339501e+05
  -6.572787e+05  -2.100823e+05
  -1.155643e+05  -6.464781e+05
   3.706032e+05  -6.251498e+05
   4.889310e+05  -2.431175e+05
   2.976936e+05   1.066587e+05
   6.250126e+04   1.670469e+05
  -2.435399e+04   3.888621e+04
   3.944855e+04   2.021497e+03
   1.274154e+05   1.742452e+05
   9.974383e+04   3.722380e+05
  -8.737091e+04   3.126787e+05
  -3.104730e+05  -5.352170e+04
  -3.385288e+05  -4.368946e+05
  -5.651165e+04  -4.783224e+05
   3.425879e+05  -1.200691e+05
   4.741847e+05   3.296967e+05
   1.576913e+05   5.052868e+05
  -3.332016e+05   3.138039e+05
  -5.192670e+05  -4.228332e+04
  -2.435007e+05  -2.958626e+05
   1.411320e+05  -3.196085e+05
   1.883173e+05  -1.658281e+05
  -1.028272e+05   2.145179e+02
  -2.956194e+05   1.446368e+04
  -6.795061e+04  -1.456760e+05
   3.847390e+05  -3.019206e+05
   5.909563e+05  -2.250806e+05
   3.578088e+05   9.999969e+04
  -5.210777e+04   4.027349e+05
  -2.724322e+05   3.904323e+05
  -2.101640e+05   7.668952e+04
  -2.763012e+04  -2.165740e+05
   1.125462e+05  -2.045623e+05
   1.615919e+05   5.971523e+04
   1.133731e+05   2.669814e+05
  -2.678149e+04   2.060630e+05
  -1.803861e+05  -1.909606e+04
  -2.182087e+05  -1.411968e+05
  -1.092632e+05  -5.320818e+04
   1.842008e+04   7.880550e+04
   3.446763e+04   3.846310e+04
  -1.919183e+04  -1.580030e+05
   7.811624e+03  -2.682356e+05
   1.448295e+05  -1.193185e+05
   2.245354e+05   1.670973e+05
   8.706207e+04   3.003479e+05
  -1.850929e+05   1.478097e+05
  -3.117338e+05  -1.272283e+05
  -1.187660e+05  -2.616273e+05
   2.395367e+05  -1.648916e+05
   4.123150e+05   3.750700e+04
   2.204887e+05   1.773660e+05
  -1.394527e+05   1.901908e+05
  -3.001279e+05   1.099842e+05
  -1.246083e+05   6.778639e+03
   1.482074e+05  -4.052339e+04
   1.838650e+05   1.821118e+04
  -6.733859e+04   1.264074e+05
  -3.258343e+05   1.226812e+05
