
 $NMID
 id='ANONYMOUS ', fmtdat='(2E16.6)'
 volume=1.0
 tramp=1.0
 $END
  -4.851906e+07   2.908360e+05
  -2.982935e+07  -2.904802e+07
   5.433999e+06  -3.269728e+07
   2.344328e+07  -1.372534e+07
   1.473533e+07   5.022867e+06
  -2.333722e+06   8.185123e+06
  -8.702777e+06  -3.578063e+05
  -3.063960e+06  -8.382402e+06
   4.979640e+06  -8.761849e+06
   8.447861e+06  -2.282253e+06
   6.277831e+06   5.442240e+06
   7.574385e+05   7.752406e+06
  -3.578355e+06   2.345537e+06
  -2.442486e+06  -5.149414e+06
   3.206890e+06  -6.194291e+06
   6.983210e+06   8.701670e+05
   4.150053e+06   8.889277e+06
  -3.085811e+06   1.043893e+07
  -8.755373e+06   5.224042e+06
  -9.335083e+06  -1.836561e+06
  -5.541554e+06  -6.443826e+06
  -5.100321e+05  -7.183966e+06
   2.175281e+06  -4.977493e+06
   9.733227e+05  -2.548595e+06
  -1.334286e+06  -2.508527e+06
  -1.301587e+04  -4.154598e+06
   5.275257e+06  -3.875460e+06
   8.893703e+06  -1.564170e+05
   6.210559e+06   3.855001e+06
  -1.217919e+05   4.454063e+06
  -3.664547e+06   2.011954e+06
  -2.171369e+06  -4.185675e+05
   1.077780e+06  -1.145188e+06
   2.631678e+06  -2.952799e+05
   2.060190e+06   1.772256e+06
   2.916756e+05   3.823678e+06
  -1.753032e+06   3.289449e+06
  -2.572970e+06  -3.540671e+05
  -1.177621e+06  -3.142566e+06
   6.601122e+05  -1.294097e+06
   6.143956e+04   2.559496e+06
  -2.318119e+06   2.232783e+06
  -2.293515e+06  -2.721864e+06
   1.782168e+06  -5.396128e+06
   5.707568e+06  -1.067031e+06
   4.431901e+06   5.810741e+06
  -1.443133e+06   7.344222e+06
  -6.437155e+06   2.162555e+06
  -6.376518e+06  -3.899602e+06
  -1.916958e+06  -5.489080e+06
   3.113207e+06  -2.660600e+06
   4.981696e+06   1.189982e+06
   2.467708e+06   3.101401e+06
  -2.003536e+06   2.070537e+06
  -4.048357e+06  -6.699376e+05
  -1.847247e+06  -2.329928e+06
   1.474512e+06  -1.242075e+06
   1.682241e+06   8.959532e+05
  -9.804083e+05   1.009737e+06
  -2.271709e+06  -1.181042e+06
   1.352242e+05  -2.818672e+06
   3.711717e+06  -1.819988e+06
   4.649505e+06   8.858564e+05
   2.183498e+06   3.366419e+06
  -1.663028e+06   4.723454e+06
  -4.719146e+06   4.344068e+06
  -5.670065e+06   1.455903e+06
  -4.010265e+06  -2.960629e+06
  -7.718810e+05  -5.633720e+06
   1.567119e+06  -4.450566e+06
   1.499019e+06  -1.393691e+06
   3.351809e+05  -5.765064e+04
   3.837545e+05  -9.679850e+05
   1.819853e+06  -1.453812e+06
   2.711216e+06   1.102267e+05
   1.784372e+06   2.107799e+06
  -2.033292e+05   2.160268e+06
  -1.691042e+06   1.190485e+05
  -1.662420e+06  -2.154254e+06
   8.391308e+04  -2.852729e+06
   2.662192e+06  -1.437233e+06
   4.065803e+06   1.253675e+06
   2.808856e+06   3.447499e+06
  -8.102277e+04   3.711621e+06
  -1.969595e+06   2.360997e+06
  -1.901671e+06   1.066775e+06
  -1.646248e+06   7.462825e+05
  -2.793013e+06   5.494553e+05
  -4.162372e+06  -6.669648e+05
  -3.359468e+06  -2.630288e+06
  -1.317311e+05  -3.987872e+06
   3.144229e+06  -3.754624e+06
   4.098408e+06  -1.949819e+06
   2.530679e+06   5.369641e+05
   1.214250e+05   2.192416e+06
  -1.169080e+06   1.800185e+06
  -5.282172e+05  -8.030191e+04
   1.096239e+06  -1.239484e+06
   1.817578e+06  -3.656696e+05
   8.300371e+05   1.144686e+06
  -5.489515e+05   1.078918e+06
  -4.924846e+05  -3.737786e+05
   9.289937e+05  -8.054984e+05
   1.821388e+06   9.774737e+05
   8.736701e+05   3.215850e+06
  -1.241611e+06   3.453651e+06
  -2.962745e+06   1.390263e+06
  -3.371101e+06  -1.240058e+06
  -2.387232e+06  -2.746654e+06
  -4.781324e+05  -2.640492e+06
   1.251787e+06  -1.428041e+06
   1.559997e+06  -1.846328e+05
   4.804579e+05   4.756148e+04
  -3.492270e+05  -7.321370e+05
   3.767150e+05  -1.277569e+06
   1.803436e+06  -5.582063e+05
   1.956822e+06   8.185673e+05
   4.012207e+05   1.344964e+06
  -1.132653e+06   5.704474e+05
  -9.091365e+05  -4.468566e+05
   8.070654e+05  -5.789090e+05
   2.196378e+06   2.402158e+05
   1.805996e+06   1.341621e+06
  -2.038178e+05   2.002289e+06
  -2.278409e+06   1.661413e+06
  -2.723069e+06   2.711494e+05
  -1.179662e+06  -1.214219e+06
   8.794822e+05  -1.422260e+06
   1.473050e+06  -1.734536e+05
   1.682940e+05   1.025975e+06
  -1.472435e+06   7.040661e+05
  -1.681341e+06  -7.480860e+05
  -3.661517e+05  -1.615030e+06
   1.039908e+06  -9.975275e+05
   1.246343e+06   2.584350e+05
   2.783345e+05   7.517103e+05
  -7.534348e+05   6.173929e+04
  -7.044870e+05  -1.023358e+06
   5.793258e+05  -1.379117e+06
   1.965861e+06  -5.047373e+05
   1.974359e+06   1.042105e+06
   3.656890e+05   2.021319e+06
  -1.397932e+06   1.599723e+06
  -1.682931e+06   2.151196e+05
  -5.056403e+05  -8.442356e+05
   6.392526e+05  -7.949941e+05
   6.440586e+05  -6.653478e+04
  -1.019105e+05   3.986487e+05
  -5.223381e+05   2.432929e+05
  -1.900267e+05  -8.522052e+04
   4.080675e+05   1.049296e+04
   5.306287e+05   6.112732e+05
  -1.702381e+05   1.154811e+06
  -1.342984e+06   8.806561e+05
  -2.033637e+06  -4.070368e+05
  -1.421450e+06  -1.903548e+06
   2.251223e+05  -2.376595e+06
   1.596567e+06  -1.406390e+06
   1.688840e+06   1.099385e+05
   8.811479e+05   9.179243e+05
   3.140584e+05   7.167941e+05
   4.206892e+05   2.588731e+05
   5.665671e+05   2.860656e+05
   8.237168e+04   7.160059e+05
  -8.470225e+05   8.877930e+05
  -1.430829e+06   3.355277e+05
  -1.057612e+06  -7.244167e+05
   2.334178e+05  -1.469553e+06
   1.697952e+06  -1.069798e+06
   2.215166e+06   4.774073e+05
   1.124129e+06   2.055770e+06
  -9.628079e+05   2.312404e+06
  -2.469130e+06   1.026954e+06
  -2.320972e+06  -6.193731e+05
  -9.842405e+05  -1.319736e+06
   1.822265e+05  -9.749401e+05
   4.215896e+05  -5.366438e+05
   1.396539e+05  -7.241751e+05
   1.324346e+05  -1.237884e+06
   6.485277e+05  -1.231203e+06
   1.247522e+06  -2.989726e+05
   1.294876e+06   1.066534e+06
   5.308574e+05   1.859124e+06
  -6.211073e+05   1.403469e+06
  -1.263479e+06  -1.217063e+03
  -8.016945e+05  -1.244046e+06
   3.600485e+05  -1.365346e+06
   1.111127e+06  -4.294329e+05
   7.930221e+05   6.337875e+05
  -8.603186e+04   1.027513e+06
  -4.842072e+05   7.749689e+05
  -6.912290e+04   4.275169e+05
   4.129924e+05   3.395320e+05
   5.090906e+04   3.789169e+05
  -1.110436e+06   2.081566e+05
  -1.997274e+06  -3.226558e+05
  -1.579961e+06  -1.006828e+06
   1.362049e+04  -1.387145e+06
   1.527515e+06  -1.104168e+06
   1.785307e+06  -2.848357e+05
   8.287316e+05   4.525191e+05
  -2.414462e+05   5.407042e+05
  -4.932408e+05   4.678489e+04
  -2.000037e+04  -3.893663e+05
   4.453910e+05  -2.432011e+05
   4.657570e+05   3.370635e+05
   2.183137e+05   7.128928e+05
   6.768243e+04   4.680833e+05
   1.402703e+05  -1.094219e+05
   2.975152e+05  -3.042412e+05
   2.739832e+05   2.265564e+05
  -1.562967e+05   9.723613e+05
  -8.832389e+05   1.035805e+06
  -1.303133e+06   1.538161e+05
  -8.019097e+05  -8.959020e+05
   4.078725e+05  -1.091453e+06
   1.213499e+06  -3.046381e+05
   7.116987e+05   5.714515e+05
  -6.853993e+05   6.380292e+05
  -1.568674e+06  -8.962471e+04
  -1.014030e+06  -8.494196e+05
   4.593531e+05  -9.901921e+05
   1.482997e+06  -4.937945e+05
   1.231579e+06   1.794509e+05
   1.400429e+05   5.121532e+05
  -6.374455e+05   2.721743e+05
  -3.698528e+05  -2.821020e+05
   5.839960e+05  -4.984653e+05
   1.156006e+06   9.826816e+04
   6.354594e+05   1.165788e+06
  -6.037524e+05   1.658355e+06
  -1.467187e+06   8.502478e+05
  -1.228982e+06  -7.551732e+05
  -1.893775e+05  -1.765233e+06
   7.350253e+05  -1.279174e+06
   9.146184e+05   1.667293e+05
   4.310501e+05   1.174537e+06
  -2.074307e+05   9.631297e+05
  -5.501624e+05   8.729733e+04
  -4.663656e+05  -3.776733e+05
  -1.703908e+05  -1.417898e+05
  -4.481755e+04   9.786686e+04
  -2.604136e+05  -2.805809e+05
  -4.927061e+05  -9.476942e+05
  -1.957039e+05  -1.066687e+06
   6.905546e+05  -3.914065e+05
   1.450960e+06   4.634221e+05
   1.267371e+06   8.302924e+05
   1.814804e+05   6.857038e+05
  -8.494485e+05   4.063458e+05
  -9.729173e+05   1.786294e+05
  -3.487209e+05  -4.610593e+04
   1.468773e+05  -2.197153e+05
   2.738154e+04  -2.092658e+05
  -2.687008e+05  -1.018822e+05
  -4.556678e+04  -1.305590e+05
   6.602727e+05  -2.240687e+05
   1.027416e+06   1.569441e+04
   4.118528e+05   6.759716e+05
  -8.362071e+05   1.149022e+06
  -1.665181e+06   7.369193e+05
  -1.375727e+06  -4.273411e+05
  -2.650552e+05  -1.383574e+06
   7.534282e+05  -1.350087e+06
   1.030923e+06  -5.232180e+05
   6.438628e+05   2.335191e+05
   1.283200e+05   3.513505e+05
  -7.347058e+04   5.896898e+04
   7.960194e+04  -2.172395e+04
   2.988848e+05   3.614700e+05
   2.446580e+05   7.963992e+05
  -1.774022e+05   6.661752e+05
  -6.692159e+05  -1.231828e+05
  -7.221007e+05  -9.374222e+05
  -1.093403e+05  -1.010990e+06
   7.404329e+05  -2.385677e+05
   1.014572e+06   7.106503e+05
   3.410471e+05   1.069374e+06
  -6.995202e+05   6.637211e+05
  -1.097579e+06  -7.242392e+04
  -5.228635e+05  -5.980794e+05
   2.792472e+05  -6.641378e+05
   3.695294e+05  -3.634108e+05
  -2.452689e+05  -1.222979e+04
  -6.391299e+05   3.804818e+04
  -1.439229e+05  -3.014977e+05
   8.118991e+05  -6.683819e+05
   1.237848e+06  -5.357218e+05
   7.491152e+05   1.697817e+05
  -9.341534e+04   8.538619e+05
  -5.394490e+05   8.434970e+05
  -4.145938e+05   1.603841e+05
  -5.137923e+04  -4.707545e+05
   2.337719e+05  -4.270453e+05
   3.445033e+05   1.458822e+05
   2.504472e+05   5.671463e+05
  -4.962630e+04   4.184339e+05
  -3.836258e+05  -4.373171e+04
  -4.691956e+05  -2.736116e+05
  -2.399332e+05  -9.364945e+04
   3.504716e+04   1.455341e+05
   8.486454e+04   4.045871e+04
  -9.486338e+03  -3.453840e+05
   4.770518e+04  -5.358031e+05
   3.099419e+05  -2.125059e+05
   4.478067e+05   3.701542e+05
   1.539554e+05   6.330018e+05
  -4.000236e+05   3.089652e+05
  -6.523687e+05  -2.720911e+05
  -2.500531e+05  -5.624846e+05
   4.977844e+05  -3.613739e+05
   8.671532e+05   7.082525e+04
   4.720635e+05   3.695590e+05
  -2.862523e+05   3.943447e+05
  -6.259367e+05   2.265492e+05
  -2.459271e+05   2.042211e+04
   3.385081e+05  -6.594910e+04
   3.986349e+05   6.221730e+04
  -1.657357e+05   2.848878e+05
  -7.298057e+05   2.661452e+05
