
 $NMID
 id='ANONYMOUS ', fmtdat='(2E16.6)'
 volume=1.0
 tramp=1.0
 $END
  -4.028729e+07  -2.616296e+06
  -2.314827e+07  -2.436569e+07
   5.440876e+06  -2.602770e+07
   1.925172e+07  -1.121886e+07
   1.201436e+07   3.364465e+06
  -1.662209e+06   6.521932e+06
  -7.088176e+06   2.645241e+05
  -2.919193e+06  -6.687319e+06
   3.735776e+06  -7.741698e+06
   7.004357e+06  -2.225415e+06
   5.299592e+06   4.932843e+06
   4.215697e+05   6.969907e+06
  -3.357336e+06   1.784920e+06
  -2.260127e+06  -4.999150e+06
   2.656983e+06  -5.713454e+06
   5.857865e+06   6.576945e+05
   3.388350e+06   7.612758e+06
  -2.845567e+06   8.775154e+06
  -7.639510e+06   3.993227e+06
  -7.747770e+06  -2.252195e+06
  -3.946290e+06  -5.863193e+06
   3.784258e+05  -5.710592e+06
   1.847933e+06  -3.430797e+06
  -6.236122e+04  -1.945484e+06
  -1.938756e+06  -2.845464e+06
   1.804148e+05  -4.407347e+06
   5.492801e+06  -3.430633e+06
   8.435198e+06   4.713099e+05
   5.326476e+06   3.971433e+06
  -8.270825e+05   4.076873e+06
  -3.994765e+06   1.455724e+06
  -2.138101e+06  -1.085457e+06
   1.534958e+06  -1.742719e+06
   3.252213e+06  -3.444449e+05
   2.207707e+06   2.269501e+06
  -1.538398e+05   4.043288e+06
  -1.996652e+06   2.719687e+06
  -2.006418e+06  -9.954121e+05
  -3.533317e+05  -2.924792e+06
   8.803364e+05  -5.138515e+05
  -1.514577e+05   2.927486e+06
  -2.198084e+06   2.190526e+06
  -1.967715e+06  -2.258603e+06
   1.342727e+06  -4.326765e+06
   4.311181e+06  -5.805230e+05
   3.226734e+06   4.916662e+06
  -1.419041e+06   5.888027e+06
  -5.519852e+06   1.505703e+06
  -5.645715e+06  -3.512634e+06
  -1.885700e+06  -4.893551e+06
   2.719025e+06  -2.542956e+06
   4.616951e+06   8.445295e+05
   2.442875e+06   2.626878e+06
  -1.579131e+06   1.784868e+06
  -3.451228e+06  -5.559405e+05
  -1.606638e+06  -1.933576e+06
   1.264247e+06  -1.017941e+06
   1.604691e+06   7.505022e+05
  -5.154335e+05   9.696219e+05
  -1.779009e+06  -5.873600e+05
  -1.438676e+05  -1.869278e+06
   2.716451e+06  -1.328892e+06
   3.741128e+06   6.078609e+05
   1.812229e+06   2.747577e+06
  -1.733765e+06   4.163989e+06
  -4.679326e+06   3.817184e+06
  -5.327960e+06   9.865686e+05
  -3.393423e+06  -3.036249e+06
  -4.156206e+05  -5.219283e+06
   1.326275e+06  -4.050759e+06
   1.081486e+06  -1.518639e+06
   3.629744e+05  -5.398478e+05
   8.703959e+05  -1.231860e+06
   2.287036e+06  -1.259369e+06
   2.863470e+06   5.284608e+05
   1.687740e+06   2.471552e+06
  -4.243562e+05   2.366945e+06
  -1.942248e+06   1.376807e+05
  -1.776499e+06  -2.266194e+06
   1.719286e+05  -2.871200e+06
   2.692792e+06  -1.211122e+06
   3.743028e+06   1.500749e+06
   2.280426e+06   3.331662e+06
  -3.510093e+05   3.209167e+06
  -1.801883e+06   1.854830e+06
  -1.563771e+06   8.561318e+05
  -1.400741e+06   7.678799e+05
  -2.615328e+06   6.250321e+05
  -3.981439e+06  -5.753735e+05
  -3.256206e+06  -2.510386e+06
  -1.502990e+05  -3.890608e+06
   3.124503e+06  -3.687471e+06
   4.140933e+06  -1.831257e+06
   2.507869e+06   7.054286e+05
  -3.972550e+04   2.272509e+06
  -1.314380e+06   1.738491e+06
  -5.232099e+05  -1.458374e+05
   1.139065e+06  -1.205726e+06
   1.749794e+06  -3.193980e+05
   7.205654e+05   1.126426e+06
  -5.930646e+05   1.086156e+06
  -5.796415e+05  -3.076761e+05
   6.853646e+05  -8.908712e+05
   1.638884e+06   5.843258e+05
   1.086125e+06   2.770009e+06
  -7.099018e+05   3.380889e+06
  -2.581883e+06   1.728584e+06
  -3.413682e+06  -8.768968e+05
  -2.635514e+06  -2.643655e+06
  -6.064813e+05  -2.696707e+06
   1.273715e+06  -1.445492e+06
   1.586413e+06  -1.602067e+05
   4.744018e+05   4.629928e+04
  -3.482959e+05  -7.139919e+05
   3.435116e+05  -1.198526e+06
   1.692972e+06  -5.166481e+05
   1.859120e+06   7.400147e+05
   4.152346e+05   1.247703e+06
  -1.081502e+06   5.807504e+05
  -9.549934e+05  -4.029085e+05
   7.057094e+05  -6.588472e+05
   2.201162e+06   6.472533e+04
   1.943183e+06   1.248374e+06
  -6.862839e+04   2.049254e+06
  -2.221367e+06   1.738282e+06
  -2.689506e+06   3.111296e+05
  -1.143000e+06  -1.156692e+06
   8.563911e+05  -1.330217e+06
   1.382813e+06  -1.319164e+05
   1.145467e+05   9.847954e+05
  -1.437028e+06   6.770872e+05
  -1.650221e+06  -6.921335e+05
  -4.298143e+05  -1.554348e+06
   9.378018e+05  -1.032282e+06
   1.216206e+06   1.586883e+05
   3.279255e+05   6.873797e+05
  -6.956640e+05   6.124964e+04
  -6.741444e+05  -9.998459e+05
   5.890526e+05  -1.352883e+06
   1.949545e+06  -4.796602e+05
   1.937917e+06   1.038153e+06
   3.605600e+05   1.977539e+06
  -1.345271e+06   1.568136e+06
  -1.634604e+06   2.404728e+05
  -5.235147e+05  -8.033605e+05
   6.035102e+05  -7.976253e+05
   6.741312e+05  -7.959680e+04
  -3.896305e+04   4.493846e+05
  -5.412301e+05   3.352601e+05
  -3.075674e+05  -5.842729e+04
   3.063262e+05  -6.658562e+04
   5.289593e+05   5.073622e+05
  -1.110381e+05   1.102604e+06
  -1.291797e+06   8.810654e+05
  -2.000451e+06  -3.817904e+05
  -1.402485e+06  -1.867454e+06
   2.078681e+05  -2.361340e+06
   1.558703e+06  -1.450885e+06
   1.704886e+06   3.974645e+04
   9.726220e+05   9.201783e+05
   3.847457e+05   8.163108e+05
   3.826309e+05   3.518816e+05
   4.746164e+05   2.810030e+05
   5.465674e+04   6.610329e+05
  -8.017862e+05   8.847164e+05
  -1.409850e+06   3.852363e+05
  -1.109408e+06  -7.020013e+05
   1.616406e+05  -1.501659e+06
   1.660598e+06  -1.113954e+06
   2.211302e+06   4.372260e+05
   1.153205e+06   1.997501e+06
  -8.827420e+05   2.261350e+06
  -2.372907e+06   1.051480e+06
  -2.300467e+06  -5.251458e+05
  -1.066183e+06  -1.261475e+06
   9.803301e+04  -1.020901e+06
   4.403124e+05  -6.223950e+05
   2.354400e+05  -7.449075e+05
   1.968135e+05  -1.181898e+06
   6.364263e+05  -1.167278e+06
   1.206210e+06  -2.735644e+05
   1.271600e+06   1.061036e+06
   5.252610e+05   1.842727e+06
  -6.175433e+05   1.393324e+06
  -1.250476e+06   1.908490e+04
  -8.037866e+05  -1.190480e+06
   3.047466e+05  -1.327893e+06
   1.020053e+06  -4.641845e+05
   7.466414e+05   5.393782e+05
  -3.958721e+04   9.446767e+05
  -3.958911e+05   7.493974e+05
  -2.409603e+04   4.416061e+05
   4.017608e+05   3.563075e+05
   4.507199e+04   3.849035e+05
  -1.066514e+06   2.099231e+05
  -1.932265e+06  -3.095154e+05
  -1.554876e+06  -9.629859e+05
  -2.488242e+04  -1.317776e+06
   1.456590e+06  -1.060349e+06
   1.730489e+06  -3.151630e+05
   8.143706e+05   3.749205e+05
  -2.229424e+05   4.966463e+05
  -4.607966e+05   6.728447e+04
   1.248738e+04  -3.547899e+05
   4.643928e+05  -2.382577e+05
   4.545578e+05   3.363922e+05
   1.763920e+05   7.358390e+05
   2.571627e+04   4.827789e+05
   1.314544e+05  -1.428031e+05
   3.139464e+05  -3.554778e+05
   2.787014e+05   2.145074e+05
  -1.686754e+05   9.872310e+05
  -8.719293e+05   1.017602e+06
  -1.246065e+06   1.038007e+05
  -7.417239e+05  -9.072115e+05
   4.177218e+05  -1.037403e+06
   1.185903e+06  -2.471219e+05
   7.042626e+05   5.820131e+05
  -6.607169e+05   6.386428e+05
  -1.564351e+06  -4.888479e+04
  -1.065292e+06  -8.010917e+05
   3.900765e+05  -1.004106e+06
   1.454683e+06  -5.664235e+05
   1.250591e+06   1.216500e+05
   1.696300e+05   5.089429e+05
  -6.163689e+05   2.928007e+05
  -3.465432e+05  -2.692064e+05
   6.086136e+05  -4.808883e+05
   1.155219e+06   1.323529e+05
   5.959535e+05   1.189865e+06
  -6.546241e+05   1.647187e+06
  -1.492140e+06   8.225491e+05
  -1.226257e+06  -7.678325e+05
  -1.886072e+05  -1.768261e+06
   7.196636e+05  -1.299532e+06
   9.080110e+05   1.302845e+05
   4.620404e+05   1.151435e+06
  -1.550797e+05   9.668579e+05
  -5.287578e+05   1.011674e+05
  -4.970729e+05  -3.704708e+05
  -2.063715e+05  -1.390561e+05
  -2.807629e+04   1.030495e+05
  -2.048658e+05  -2.734198e+05
  -4.716315e+05  -9.387952e+05
  -2.398517e+05  -1.054038e+06
   6.384151e+05  -3.820161e+05
   1.452760e+06   4.565789e+05
   1.301189e+06   8.096349e+05
   1.839427e+05   6.725310e+05
  -8.790166e+05   4.143993e+05
  -9.759711e+05   1.968397e+05
  -3.124188e+05  -3.584910e+04
   1.600844e+05  -2.201708e+05
  -1.874281e+04  -2.134961e+05
  -3.169755e+05  -1.084436e+05
  -3.014190e+04  -1.384890e+05
   7.077014e+05  -2.229001e+05
   1.022263e+06   3.201834e+04
   3.454731e+05   6.893280e+05
  -8.837507e+05   1.131490e+06
  -1.643141e+06   6.884503e+05
  -1.326054e+06  -4.718297e+05
  -2.459449e+05  -1.391582e+06
   7.484564e+05  -1.323964e+06
   1.037615e+06  -4.891795e+05
   6.546624e+05   2.554462e+05
   1.085604e+05   3.561046e+05
  -1.176741e+05   4.736864e+04
   5.587164e+04  -4.417411e+04
   3.108237e+05   3.414438e+05
   2.571624e+05   7.874020e+05
  -1.907809e+05   6.569184e+05
  -6.839583e+05  -1.499665e+05
  -7.007066e+05  -9.725372e+05
  -5.816718e+04  -1.019333e+06
   7.767686e+05  -2.045588e+05
   1.007150e+06   7.534241e+05
   3.074187e+05   1.074297e+06
  -7.173835e+05   6.306363e+05
  -1.077571e+06  -9.654632e+04
  -4.853442e+05  -5.800408e+05
   2.921375e+05  -6.234203e+05
   3.410666e+05  -3.396793e+05
  -2.844103e+05  -1.412013e+04
  -6.481736e+05   3.212777e+04
  -1.269269e+05  -2.987454e+05
   8.102542e+05  -6.662815e+05
   1.195467e+06  -5.424340e+05
   6.995933e+05   1.583662e+05
  -1.061403e+05   8.369614e+05
  -5.163939e+05   8.111116e+05
  -3.881077e+05   1.187073e+05
  -3.506868e+04  -4.907457e+05
   2.492606e+05  -4.072495e+05
   3.559821e+05   1.781849e+05
   2.413656e+05   5.696106e+05
  -7.143103e+04   3.907165e+05
  -3.856831e+05  -6.049586e+04
  -4.462669e+05  -2.575203e+05
  -2.306823e+05  -7.506688e+04
   8.647058e+03   1.262533e+05
   6.454037e+04  -1.056417e+04
   2.941596e+04  -3.810994e+05
   1.269631e+05  -5.218539e+05
   3.520699e+05  -1.588870e+05
   4.153261e+05   4.257411e+05
   9.409026e+04   6.579640e+05
  -4.230080e+05   2.951501e+05
  -6.345581e+05  -3.052138e+05
  -2.333438e+05  -5.813999e+05
   4.907991e+05  -3.480438e+05
   8.498432e+05   9.863863e+04
   4.583158e+05   3.761720e+05
  -2.972337e+05   3.666583e+05
  -6.278168e+05   1.881273e+05
  -2.219122e+05   3.886198e+03
   3.828549e+05  -5.032494e+04
   4.240949e+05   9.594946e+04
  -1.883093e+05   3.149247e+05
  -7.774285e+05   2.758929e+05
