
 $NMID
 id='ANONYMOUS ', fmtdat='(2E16.6)'
 volume=1.0
 tramp=1.0
 $END
  -2.909378e+07  -1.468464e+06
  -1.724192e+07  -1.702011e+07
   3.291451e+06  -1.883406e+07
   1.375795e+07  -8.745420e+06
   9.017082e+06   1.940292e+06
  -9.351148e+05   4.825822e+06
  -5.272669e+06   5.267891e+05
  -2.450487e+06  -4.844692e+06
   2.542206e+06  -5.955344e+06
   5.143465e+06  -1.890191e+06
   3.959960e+06   3.584731e+06
   3.486085e+05   5.178230e+06
  -2.466915e+06   1.291728e+06
  -1.700953e+06  -3.805861e+06
   1.907927e+06  -4.384688e+06
   4.342389e+06   3.267948e+05
   2.630656e+06   5.538039e+06
  -1.939836e+06   6.486154e+06
  -5.517059e+06   2.989139e+06
  -5.608110e+06  -1.603233e+06
  -2.814894e+06  -4.184085e+06
   2.482963e+05  -3.995188e+06
   1.140515e+06  -2.411497e+06
  -3.133198e+05  -1.558597e+06
  -1.526482e+06  -2.359172e+06
   2.413963e+05  -3.405435e+06
   4.217610e+06  -2.493414e+06
   6.310284e+06   4.527061e+05
   3.902515e+06   2.969432e+06
  -7.244600e+05   2.954159e+06
  -3.052307e+06   9.457975e+05
  -1.526648e+06  -9.599561e+05
   1.367814e+06  -1.363701e+06
   2.622918e+06  -1.545034e+05
   1.633191e+06   1.872481e+06
  -2.561062e+05   3.080861e+06
  -1.506570e+06   1.943910e+06
  -1.337933e+06  -8.005477e+05
  -1.443755e+05  -2.084338e+06
   5.952886e+05  -2.181042e+05
  -2.310943e+05   2.283558e+06
  -1.678775e+06   1.684424e+06
  -1.517808e+06  -1.617809e+06
   8.134472e+05  -3.204595e+06
   3.000141e+06  -5.565220e+05
   2.383565e+06   3.456658e+06
  -8.942018e+05   4.271982e+06
  -3.993727e+06   1.154658e+06
  -4.257396e+06  -2.556060e+06
  -1.510115e+06  -3.670116e+06
   2.021114e+06  -1.982987e+06
   3.540207e+06   5.602685e+05
   1.936473e+06   1.950351e+06
  -1.105585e+06   1.381959e+06
  -2.566568e+06  -3.337845e+05
  -1.246617e+06  -1.390098e+06
   9.062053e+05  -7.698752e+05
   1.240461e+06   5.494670e+05
  -3.141044e+05   8.100257e+05
  -1.373707e+06  -2.801992e+05
  -2.994997e+05  -1.317071e+06
   1.846733e+06  -1.077943e+06
   2.761673e+06   2.981572e+05
   1.411456e+06   1.959387e+06
  -1.285109e+06   3.086184e+06
  -3.536970e+06   2.823710e+06
  -3.974300e+06   6.979619e+05
  -2.473560e+06  -2.274535e+06
  -2.908751e+05  -3.892081e+06
   9.404690e+05  -3.079309e+06
   7.891398e+05  -1.251764e+06
   3.654215e+05  -4.940990e+05
   8.061116e+05  -9.114332e+05
   1.819837e+06  -8.458957e+05
   2.160970e+06   5.228897e+05
   1.208791e+06   1.961622e+06
  -4.129059e+05   1.820392e+06
  -1.542729e+06   5.723776e+04
  -1.355564e+06  -1.793280e+06
   1.685301e+05  -2.198519e+06
   2.049999e+06  -8.710841e+05
   2.776576e+06   1.170966e+06
   1.660807e+06   2.475345e+06
  -2.578435e+05   2.337925e+06
  -1.289434e+06   1.354952e+06
  -1.117129e+06   6.662564e+05
  -1.044032e+06   6.251394e+05
  -1.998572e+06   5.058878e+05
  -3.044734e+06  -4.238120e+05
  -2.492165e+06  -1.916299e+06
  -1.096383e+05  -2.982320e+06
   2.415141e+06  -2.810472e+06
   3.188504e+06  -1.356167e+06
   1.895512e+06   5.846174e+05
  -8.587693e+04   1.737591e+06
  -1.038239e+06   1.296476e+06
  -3.903785e+05  -1.257738e+05
   8.864143e+05  -9.081260e+05
   1.329474e+06  -2.377991e+05
   5.314604e+05   8.507432e+05
  -4.716593e+05   8.266880e+05
  -4.696231e+05  -2.424045e+05
   5.039415e+05  -7.347710e+05
   1.288095e+06   3.625491e+05
   9.266562e+05   2.095206e+06
  -4.630516e+05   2.670311e+06
  -1.985878e+06   1.434397e+06
  -2.688304e+06  -6.399317e+05
  -2.072616e+06  -2.073639e+06
  -4.634203e+05  -2.110477e+06
   9.966004e+05  -1.104576e+06
   1.223304e+06  -1.050219e+05
   3.642211e+05   3.736942e+04
  -2.662364e+05  -5.484144e+05
   2.536053e+05  -9.116898e+05
   1.280396e+06  -3.972566e+05
   1.421720e+06   5.518242e+05
   3.298352e+05   9.478160e+05
  -8.284406e+05   4.498748e+05
  -7.471318e+05  -3.156367e+05
   5.426942e+05  -5.323461e+05
   1.722893e+06   3.427456e+04
   1.526779e+06   9.790648e+05
  -4.974525e+04   1.606912e+06
  -1.723501e+06   1.346697e+06
  -2.073131e+06   2.349732e+05
  -8.755492e+05  -8.816534e+05
   6.488197e+05  -1.006217e+06
   1.042870e+06  -1.001091e+05
   7.914821e+04   7.428475e+05
  -1.099922e+06   5.129844e+05
  -1.269415e+06  -5.283993e+05
  -3.420155e+05  -1.198640e+06
   7.158073e+05  -8.110641e+05
   9.455850e+05   1.073360e+05
   2.669992e+05   5.273763e+05
  -5.254226e+05   5.137269e+04
  -5.105553e+05  -7.652241e+05
   4.600439e+05  -1.031427e+06
   1.497261e+06  -3.547392e+05
   1.479578e+06   8.052715e+05
   2.710796e+05   1.516303e+06
  -1.031338e+06   1.201671e+06
  -1.255529e+06   1.871924e+05
  -4.077580e+05  -6.171154e+05
   4.635041e+05  -6.162287e+05
   5.265094e+05  -5.471617e+04
  -3.005088e+04   3.641753e+05
  -4.366355e+05   2.674020e+05
  -2.609569e+05  -6.098936e+04
   2.309713e+05  -7.871634e+04
   4.202366e+05   3.758935e+05
  -7.412649e+04   8.486523e+05
  -9.915743e+05   6.782393e+05
  -1.536036e+06  -2.972141e+05
  -1.070291e+06  -1.437577e+06
   1.695837e+05  -1.816930e+06
   1.209659e+06  -1.121108e+06
   1.326421e+06   3.153571e+04
   7.589913e+05   7.294730e+05
   2.880105e+05   6.596417e+05
   2.711687e+05   2.838182e+05
   3.483563e+05   2.042403e+05
   4.157142e+04   4.956305e+05
  -6.148961e+05   6.828595e+05
  -1.092553e+06   2.994791e+05
  -8.624938e+05  -5.522196e+05
   1.267310e+05  -1.172375e+06
   1.286428e+06  -8.606639e+05
   1.705577e+06   3.432722e+05
   8.893560e+05   1.539729e+06
  -6.720836e+05   1.739063e+06
  -1.820687e+06   8.138840e+05
  -1.779117e+06  -3.991463e+05
  -8.364591e+05  -9.806287e+05
   7.439728e+04  -8.066897e+05
   3.597405e+05  -4.885424e+05
   2.060582e+05  -5.606932e+05
   1.614998e+05  -8.888986e+05
   4.852484e+05  -8.854536e+05
   9.192455e+05  -2.050130e+05
   9.691303e+05   8.204173e+05
   3.943186e+05   1.418391e+06
  -4.820765e+05   1.067634e+06
  -9.637566e+05   1.234242e+04
  -6.200191e+05  -9.126549e+05
   2.275233e+05  -1.022567e+06
   7.778023e+05  -3.712297e+05
   5.780679e+05   3.962968e+05
  -1.543621e+04   7.198639e+05
  -2.901309e+05   5.837510e+05
  -1.560305e+04   3.493467e+05
   3.025954e+05   2.781913e+05
   3.029435e+04   2.969259e+05
  -8.152518e+05   1.620099e+05
  -1.476626e+06  -2.382923e+05
  -1.193532e+06  -7.398283e+05
  -2.826017e+04  -1.008588e+06
   1.109045e+06  -8.105048e+05
   1.329509e+06  -2.455815e+05
   6.341896e+05   2.779645e+05
  -1.647437e+05   3.761809e+05
  -3.527866e+05   5.751691e+04
   1.215323e+04  -2.621435e+05
   3.617164e+05  -1.768571e+05
   3.461407e+05   2.600439e+05
   1.203288e+05   5.653295e+05
   7.146583e+03   3.679913e+05
   1.058434e+05  -1.163777e+05
   2.549204e+05  -2.780676e+05
   2.159135e+05   1.657914e+05
  -1.407956e+05   7.599380e+05
  -6.732315e+05   7.765154e+05
  -9.424533e+05   7.192906e+04
  -5.530455e+05  -6.960141e+05
   3.216438e+05  -7.851748e+05
   9.010523e+05  -1.769655e+05
   5.357260e+05   4.533418e+05
  -5.085898e+05   4.915801e+05
  -1.209914e+06  -3.969630e+04
  -8.317659e+05  -6.231278e+05
   2.967615e+05  -7.839756e+05
   1.130075e+06  -4.440884e+05
   9.745158e+05   9.443471e+04
   1.330770e+05   3.969901e+05
  -4.759253e+05   2.284118e+05
  -2.629807e+05  -2.035989e+05
   4.732986e+05  -3.594819e+05
   8.832502e+05   1.151169e+05
   4.406958e+05   9.180963e+05
  -5.216686e+05   1.254423e+06
  -1.154286e+06   6.152882e+05
  -9.370179e+05  -6.007825e+05
  -1.334929e+05  -1.363257e+06
   5.628435e+05  -1.002103e+06
   7.028584e+05   9.867751e+04
   3.574677e+05   8.903168e+05
  -1.169810e+05   7.522203e+05
  -4.061888e+05   8.022296e+04
  -3.868648e+05  -2.919195e+05
  -1.647150e+05  -1.134421e+05
  -2.010714e+04   8.267225e+04
  -1.473691e+05  -2.020057e+05
  -3.549067e+05  -7.210371e+05
  -1.877400e+05  -8.177106e+05
   4.834036e+05  -2.965241e+05
   1.117161e+06   3.598170e+05
   1.005970e+06   6.332688e+05
   1.398482e+05   5.171408e+05
  -6.859385e+05   3.104199e+05
  -7.561329e+05   1.481198e+05
  -2.355824e+05  -2.219289e+04
   1.270101e+05  -1.665815e+05
  -2.053964e+04  -1.724090e+05
  -2.508135e+05  -9.415134e+04
  -1.834586e+04  -1.058519e+05
   5.545184e+05  -1.596120e+05
   7.835285e+05   3.321382e+04
   2.479592e+05   5.250907e+05
  -6.932827e+05   8.552860e+05
  -1.258283e+06   5.146536e+05
  -1.002579e+06  -3.718483e+05
  -1.760043e+05  -1.071599e+06
   5.798520e+05  -1.010953e+06
   7.980472e+05  -3.630803e+05
   5.009784e+05   2.063965e+05
   7.709610e+04   2.726840e+05
  -9.688209e+04   2.685941e+04
   4.261527e+04  -4.125169e+04
   2.423427e+05   2.632328e+05
   1.965825e+05   6.082744e+05
  -1.519737e+05   5.009017e+05
  -5.241246e+05  -1.267867e+05
  -5.242240e+05  -7.561355e+05
  -2.810985e+04  -7.788319e+05
   6.005343e+05  -1.410573e+05
   7.628898e+05   5.928629e+05
   2.232887e+05   8.248753e+05
  -5.544412e+05   4.725317e+05
  -8.219376e+05  -8.232223e+04
  -3.662384e+05  -4.407969e+05
   2.249192e+05  -4.690631e+05
   2.561339e+05  -2.595868e+05
  -2.255176e+05  -1.901054e+04
  -5.000151e+05   1.819780e+04
  -9.329963e+04  -2.277620e+05
   6.275173e+05  -5.078262e+05
   9.175775e+05  -4.178459e+05
   5.307960e+05   1.167290e+05
  -8.663180e+04   6.388939e+05
  -3.937368e+05   6.192050e+05
  -2.885600e+05   8.573375e+04
  -1.797093e+04  -3.791158e+05
   1.941910e+05  -3.061757e+05
   2.700414e+05   1.468904e+05
   1.802897e+05   4.391851e+05
  -5.702622e+04   2.922014e+05
  -2.943802e+05  -5.226991e+04
  -3.404733e+05  -1.947584e+05
  -1.784095e+05  -5.457731e+04
   4.196063e+03   8.982383e+04
   5.406246e+04  -1.980013e+04
   3.737606e+04  -2.935353e+05
   1.127955e+05  -3.863918e+05
   2.712306e+05  -1.042496e+05
   3.028794e+05   3.351923e+05
   5.396373e+04   5.024097e+05
  -3.295046e+05   2.186447e+05
  -4.784869e+05  -2.421078e+05
  -1.701580e+05  -4.499252e+05
   3.768668e+05  -2.636406e+05
   6.464674e+05   8.354171e+04
   3.471108e+05   2.916004e+05
  -2.288464e+05   2.739144e+05
  -4.790279e+05   1.338880e+05
  -1.641590e+05   2.411472e+03
   3.004676e+05  -2.676411e+04
   3.252157e+05   8.637651e+04
  -1.555633e+05   2.430856e+05
  -6.102214e+05   2.019117e+05
