
 $NMID
 id='ANONYMOUS ', fmtdat='(2E16.6)'
 volume=1.0
 tramp=1.0
 $END
   3.794392e+07   1.017157e+06
   2.313606e+07   2.191994e+07
  -3.797016e+06   2.488873e+07
  -1.797173e+07   1.171314e+07
  -1.197979e+07  -2.559772e+06
   1.193419e+06  -6.425474e+06
   6.997526e+06  -6.678400e+05
   3.236468e+06   6.417383e+06
  -3.380953e+06   7.804597e+06
  -6.762895e+06   2.487311e+06
  -5.188610e+06  -4.588086e+06
  -5.099720e+05  -6.675394e+06
   3.136420e+06  -1.719123e+06
   2.170408e+06   4.865108e+06
  -2.503964e+06   5.677408e+06
  -5.700460e+06  -3.899973e+05
  -3.514358e+06  -7.187124e+06
   2.418867e+06  -8.491995e+06
   7.100543e+06  -4.023593e+06
   7.312664e+06   1.896313e+06
   3.821463e+06   5.297818e+06
  -1.013849e+05   5.217979e+06
  -1.391298e+06   3.305789e+06
   2.869982e+05   2.155308e+06
   1.809111e+06   3.014431e+06
  -3.277374e+05   4.278850e+06
  -5.319379e+06   3.183875e+06
  -8.039698e+06  -5.013725e+05
  -5.057157e+06  -3.722926e+06
   8.163667e+05  -3.749896e+06
   3.800592e+06  -1.230135e+06
   1.885215e+06   1.136890e+06
  -1.735433e+06   1.601066e+06
  -3.253320e+06   1.168862e+05
  -1.999103e+06  -2.336083e+06
   3.067914e+05  -3.848003e+06
   1.851086e+06  -2.520654e+06
   1.722939e+06   8.922781e+05
   3.014252e+05   2.616967e+06
  -6.638139e+05   3.662634e+05
   3.125362e+05  -2.833280e+06
   2.163030e+06  -2.144915e+06
   2.001704e+06   2.110979e+06
  -1.037057e+06   4.260215e+06
  -3.982081e+06   8.676477e+05
  -3.250621e+06  -4.447202e+06
   1.056345e+06  -5.639091e+06
   5.168240e+06  -1.605979e+06
   5.532447e+06   3.282429e+06
   1.944379e+06   4.764530e+06
  -2.635208e+06   2.555113e+06
  -4.580177e+06  -7.622070e+05
  -2.488718e+06  -2.563758e+06
   1.457311e+06  -1.824454e+06
   3.358047e+06   4.144549e+05
   1.640304e+06   1.817043e+06
  -1.172293e+06   1.021370e+06
  -1.596472e+06  -7.245854e+05
   4.707500e+05  -1.072154e+06
   1.865106e+06   4.132881e+05
   4.075252e+05   1.838133e+06
  -2.461091e+06   1.508537e+06
  -3.663686e+06  -3.675993e+05
  -1.883268e+06  -2.562450e+06
   1.603754e+06  -3.989339e+06
   4.484513e+06  -3.641382e+06
   5.071719e+06  -9.504811e+05
   3.209903e+06   2.852370e+06
   4.224159e+05   4.983699e+06
  -1.224127e+06   3.986006e+06
  -1.084101e+06   1.601180e+06
  -5.034560e+05   5.535202e+05
  -9.840605e+05   1.075576e+06
  -2.239372e+06   1.051625e+06
  -2.689427e+06  -6.353250e+05
  -1.505852e+06  -2.446114e+06
   5.262366e+05  -2.265296e+06
   1.929455e+06  -3.649807e+04
   1.684356e+06   2.286710e+06
  -2.219628e+05   2.786087e+06
  -2.592716e+06   1.120944e+06
  -3.548551e+06  -1.450996e+06
  -2.177207e+06  -3.135913e+06
   2.675689e+05  -3.021531e+06
   1.633681e+06  -1.798972e+06
   1.457211e+06  -8.961119e+05
   1.369941e+06  -8.038552e+05
   2.578312e+06  -6.312787e+05
   3.903418e+06   5.619968e+05
   3.179390e+06   2.466840e+06
   1.204300e+05   3.810602e+06
  -3.092773e+06   3.567137e+06
  -4.051789e+06   1.712524e+06
  -2.396268e+06  -7.338061e+05
   1.072329e+05  -2.185508e+06
   1.306234e+06  -1.637481e+06
   4.912359e+05   1.540867e+05
  -1.126765e+06   1.149667e+06
  -1.699916e+06   3.033982e+05
  -6.861733e+05  -1.080935e+06
   6.020634e+05  -1.043286e+06
   5.890694e+05   3.294238e+05
  -6.893793e+05   9.391052e+05
  -1.694914e+06  -5.128248e+05
  -1.168154e+06  -2.754521e+06
   6.814138e+05  -3.447652e+06
   2.620629e+06  -1.791460e+06
   3.438236e+06   8.917166e+05
   2.592340e+06   2.690311e+06
   5.491933e+05   2.691250e+06
  -1.275132e+06   1.392581e+06
  -1.551269e+06   1.245874e+05
  -4.638908e+05  -5.035272e+04
   3.359773e+05   7.026592e+05
  -3.285049e+05   1.172255e+06
  -1.645091e+06   5.099838e+05
  -1.825090e+06  -7.174770e+05
  -4.176721e+05  -1.224427e+06
   1.066579e+06  -5.686909e+05
   9.457546e+05   4.180449e+05
  -7.156127e+05   6.704162e+05
  -2.205622e+06  -8.269223e+04
  -1.922773e+06  -1.282664e+06
   9.955098e+04  -2.048572e+06
   2.218333e+06  -1.692964e+06
   2.647601e+06  -2.787402e+05
   1.116459e+06   1.134413e+06
  -8.298340e+05   1.289951e+06
  -1.337360e+06   1.318382e+05
  -1.055650e+05  -9.476181e+05
   1.406786e+06  -6.504943e+05
   1.619941e+06   6.883993e+05
   4.209712e+05   1.542078e+06
  -9.353297e+05   1.029530e+06
  -1.215118e+06  -1.564766e+05
  -3.336012e+05  -6.871081e+05
   6.775689e+05  -6.644618e+04
   6.502241e+05   9.785093e+05
  -5.897290e+05   1.311774e+06
  -1.907993e+06   4.444074e+05
  -1.881451e+06  -1.034045e+06
  -3.367846e+05  -1.937245e+06
   1.327084e+06  -1.529156e+06
   1.607982e+06  -2.278119e+05
   5.143059e+05   7.963079e+05
  -6.005470e+05   7.829933e+05
  -6.675393e+05   6.068798e+04
   5.419693e+04  -4.615803e+05
   5.627358e+05  -3.224018e+05
   3.173117e+05   9.316903e+04
  -3.150481e+05   9.595491e+04
  -5.403773e+05  -4.959347e+05
   1.050717e+05  -1.091206e+06
   1.274085e+06  -8.590367e+05
   1.958511e+06   3.913142e+05
   1.355625e+06   1.841087e+06
  -2.319112e+05   2.313632e+06
  -1.557376e+06   1.412989e+06
  -1.690675e+06  -6.256389e+04
  -9.459669e+05  -9.416563e+05
  -3.421953e+05  -8.331587e+05
  -3.401170e+05  -3.466159e+05
  -4.550388e+05  -2.553898e+05
  -5.754125e+04  -6.360140e+05
   7.936592e+05  -8.677038e+05
   1.399049e+06  -3.669125e+05
   1.087012e+06   7.166497e+05
  -1.835105e+05   1.491575e+06
  -1.652276e+06   1.081315e+06
  -2.170816e+06  -4.558633e+05
  -1.119705e+06  -1.976864e+06
   8.763184e+05  -2.221105e+06
   2.338813e+06  -1.025157e+06
   2.271032e+06   5.342411e+05
   1.049240e+06   1.269804e+06
  -1.172506e+05   1.026235e+06
  -4.662436e+05   6.046738e+05
  -2.548107e+05   7.004718e+05
  -1.988626e+05   1.131999e+06
  -6.209564e+05   1.132589e+06
  -1.174887e+06   2.603840e+05
  -1.229960e+06  -1.050501e+06
  -4.921781e+05  -1.809596e+06
   6.217678e+05  -1.356057e+06
   1.229873e+06  -5.990663e+03
   7.856199e+05   1.174018e+06
  -3.025675e+05   1.309122e+06
  -1.008582e+06   4.687377e+05
  -7.468937e+05  -5.183797e+05
   2.504776e+04  -9.314845e+05
   3.843047e+05  -7.515552e+05
   3.044806e+04  -4.461824e+05
  -3.827036e+05  -3.529004e+05
  -3.642669e+04  -3.764619e+05
   1.044710e+06  -2.029414e+05
   1.886802e+06   3.113946e+05
   1.519657e+06   9.550141e+05
   2.824556e+04   1.296643e+06
  -1.423873e+06   1.034431e+06
  -1.703882e+06   3.018225e+05
  -8.133159e+05  -3.687476e+05
   2.114730e+05  -4.850670e+05
   4.556211e+05  -7.015259e+04
  -1.001679e+04   3.353254e+05
  -4.583856e+05   2.208590e+05
  -4.396984e+05  -3.327884e+05
  -1.523091e+05  -7.131091e+05
  -1.072704e+04  -4.624043e+05
  -1.396685e+05   1.431269e+05
  -3.285722e+05   3.429914e+05
  -2.737038e+05  -2.145301e+05
   1.846757e+05  -9.621788e+05
   8.626152e+05  -9.859543e+05
   1.203203e+06  -9.608609e+04
   7.054586e+05   8.829733e+05
  -4.094264e+05   1.003028e+06
  -1.146520e+06   2.283225e+05
  -6.778232e+05  -5.789289e+05
   6.545992e+05  -6.231259e+05
   1.542864e+06   6.598285e+04
   1.049746e+06   8.108630e+05
  -3.950707e+05   9.987894e+05
  -1.451540e+06   5.476520e+05
  -1.241203e+06  -1.380630e+05
  -1.620625e+05  -5.091524e+05
   6.121793e+05  -2.855608e+05
   3.374041e+05   2.609962e+05
  -5.999696e+05   4.538276e+05
  -1.119803e+06  -1.487442e+05
  -5.565859e+05  -1.164643e+06
   6.657435e+05  -1.588538e+06
   1.467429e+06  -7.748582e+05
   1.186203e+06   7.699694e+05
   1.583301e+05   1.734723e+06
  -7.282384e+05   1.268496e+06
  -8.974045e+05  -1.359395e+05
  -4.450115e+05  -1.141512e+06
   1.627764e+05  -9.600456e+05
   5.216469e+05  -9.868119e+04
   4.860115e+05   3.782455e+05
   2.037471e+05   1.492472e+05
   2.914806e+04  -1.057257e+05
   1.943958e+05   2.543181e+05
   4.493122e+05   9.196055e+05
   2.268349e+05   1.047495e+06
  -6.240325e+05   3.791457e+05
  -1.418475e+06  -4.681227e+05
  -1.271396e+06  -8.198184e+05
  -1.744363e+05  -6.610525e+05
   8.715870e+05  -3.854120e+05
   9.642325e+05  -1.792974e+05
   3.055672e+05   2.843075e+04
  -1.611423e+05   2.096082e+05
   1.770406e+04   2.229071e+05
   3.108333e+05   1.251052e+05
   2.404419e+04   1.322961e+05
  -6.997954e+05   1.944762e+05
  -9.957558e+05  -4.590570e+04
  -3.194066e+05  -6.622395e+05
   8.806568e+05  -1.080569e+06
   1.603761e+06  -6.531325e+05
   1.275422e+06   4.705624e+05
   2.170512e+05   1.361746e+06
  -7.443230e+05   1.285380e+06
  -1.014174e+06   4.595960e+05
  -6.321307e+05  -2.644548e+05
  -9.828498e+04  -3.450880e+05
   1.161067e+05  -3.114984e+04
  -5.991190e+04   5.101410e+04
  -3.061908e+05  -3.407546e+05
  -2.440954e+05  -7.778192e+05
   1.947397e+05  -6.361371e+05
   6.612676e+05   1.630693e+05
   6.605929e+05   9.593304e+05
   3.587108e+04   9.852865e+05
  -7.569191e+05   1.761037e+05
  -9.628186e+05  -7.537271e+05
  -2.815756e+05  -1.047462e+06
   7.037032e+05  -5.996489e+05
   1.045601e+06   1.062745e+05
   4.692298e+05   5.629893e+05
  -2.845038e+05   5.995284e+05
  -3.299384e+05   3.340625e+05
   2.809150e+05   2.926744e+04
   6.343594e+05  -1.907553e+04
   1.194663e+05   2.893709e+05
  -8.025034e+05   6.412413e+05
  -1.177341e+06   5.267226e+05
  -6.823235e+05  -1.501428e+05
   1.121941e+05  -8.132933e+05
   5.064154e+05  -7.910713e+05
   3.678569e+05  -1.149690e+05
   2.027789e+04   4.780952e+05
  -2.455768e+05   3.893163e+05
  -3.377809e+05  -1.854848e+05
  -2.267857e+05  -5.590014e+05
   6.938941e+04  -3.732558e+05
   3.722685e+05   6.672065e+04
   4.361956e+05   2.508463e+05
   2.294523e+05   7.274350e+04
  -1.008327e+04  -1.147223e+05
  -7.635449e+04   1.924508e+04
  -4.757761e+04   3.645481e+05
  -1.341315e+05   4.855624e+05
  -3.351258e+05   1.342889e+05
  -3.822224e+05  -4.180837e+05
  -7.082842e+04  -6.306736e+05
   4.164441e+05  -2.753407e+05
   6.062704e+05   3.056138e+05
   2.134547e+05   5.695479e+05
  -4.813855e+05   3.347779e+05
  -8.216729e+05  -1.061037e+05
  -4.405195e+05  -3.716500e+05
   2.893692e+05  -3.495337e+05
   6.068123e+05  -1.716584e+05
   2.107983e+05  -6.172217e+03
  -3.747503e+05   2.986784e+04
  -4.063734e+05  -1.100262e+05
   1.993481e+05  -3.016620e+05
   7.719914e+05  -2.461833e+05
