
 $NMID
 id='ANONYMOUS ', fmtdat='(2E16.6)'
 volume=1.0
 tramp=1.0
 $END
  -4.992062e+07   4.787551e+05
  -3.066636e+07  -2.987840e+07
   5.609199e+06  -3.363697e+07
   2.404379e+07  -1.403551e+07
   1.503402e+07   5.229610e+06
  -2.438596e+06   8.377451e+06
  -8.875499e+06  -4.241090e+05
  -3.082572e+06  -8.574560e+06
   5.094965e+06  -8.902369e+06
   8.625415e+06  -2.306925e+06
   6.453021e+06   5.539659e+06
   8.297111e+05   7.917422e+06
  -3.651662e+06   2.443123e+06
  -2.541620e+06  -5.203112e+06
   3.240361e+06  -6.299337e+06
   7.140333e+06   8.947674e+05
   4.267786e+06   9.092349e+06
  -3.135997e+06   1.070241e+07
  -8.969349e+06   5.399471e+06
  -9.617871e+06  -1.833373e+06
  -5.760621e+06  -6.618465e+06
  -5.550668e+05  -7.441524e+06
   2.285966e+06  -5.149752e+06
   1.075782e+06  -2.548372e+06
  -1.368165e+06  -2.444164e+06
  -1.050331e+05  -4.200484e+06
   5.305258e+06  -4.042979e+06
   9.081042e+06  -2.863925e+05
   6.409231e+06   3.881373e+06
  -4.344782e+04   4.594413e+06
  -3.703027e+06   2.153225e+06
  -2.260738e+06  -3.484999e+05
   9.917173e+05  -1.168001e+06
   2.608930e+06  -3.826326e+05
   2.138422e+06   1.716276e+06
   3.971741e+05   3.884900e+06
  -1.758611e+06   3.412680e+06
  -2.702092e+06  -3.242760e+05
  -1.275546e+06  -3.247903e+06
   6.993132e+05  -1.393282e+06
   1.431599e+05   2.579398e+06
  -2.326811e+06   2.283204e+06
  -2.342058e+06  -2.783452e+06
   1.850788e+06  -5.524490e+06
   5.901714e+06  -1.076050e+06
   4.575821e+06   5.983716e+06
  -1.482976e+06   7.553377e+06
  -6.604077e+06   2.246713e+06
  -6.524725e+06  -3.947209e+06
  -1.966488e+06  -5.572719e+06
   3.151956e+06  -2.709490e+06
   5.053595e+06   1.191842e+06
   2.500335e+06   3.140795e+06
  -2.054106e+06   2.107288e+06
  -4.138778e+06  -6.811721e+05
  -1.884520e+06  -2.381326e+06
   1.509204e+06  -1.275460e+06
   1.707480e+06   9.008521e+05
  -1.015627e+06   9.991483e+05
  -2.300733e+06  -1.248437e+06
   1.980593e+05  -2.899525e+06
   3.843595e+06  -1.844491e+06
   4.758384e+06   9.290276e+05
   2.229927e+06   3.451789e+06
  -1.659482e+06   4.847200e+06
  -4.761383e+06   4.493371e+06
  -5.779872e+06   1.555447e+06
  -4.148097e+06  -2.986347e+06
  -8.485532e+05  -5.748403e+06
   1.575957e+06  -4.532300e+06
   1.517474e+06  -1.385876e+06
   2.957264e+05  -2.972871e+04
   3.172346e+05  -1.005867e+06
   1.803335e+06  -1.548888e+06
   2.768175e+06   3.132554e+04
   1.871235e+06   2.089762e+06
  -1.431583e+05   2.191734e+06
  -1.689505e+06   1.629803e+05
  -1.712144e+06  -2.139249e+06
   3.830206e+04  -2.893148e+06
   2.690352e+06  -1.509077e+06
   4.174103e+06   1.221988e+06
   2.916938e+06   3.501806e+06
  -5.386289e+04   3.814726e+06
  -2.014675e+06   2.437829e+06
  -1.951199e+06   1.092026e+06
  -1.671128e+06   7.552718e+05
  -2.824498e+06   5.736136e+05
  -4.225188e+06  -6.396806e+05
  -3.431690e+06  -2.632351e+06
  -1.780995e+05  -4.037898e+06
   3.136571e+06  -3.844258e+06
   4.126239e+06  -2.040336e+06
   2.583151e+06   4.985614e+05
   1.710280e+05   2.223948e+06
  -1.152963e+06   1.853540e+06
  -5.414369e+05  -6.990213e+04
   1.091941e+06  -1.274962e+06
   1.842763e+06  -3.922777e+05
   8.616938e+05   1.157366e+06
  -5.371528e+05   1.102184e+06
  -4.917135e+05  -3.690872e+05
   9.394702e+05  -8.012220e+05
   1.836540e+06   1.007685e+06
   8.750129e+05   3.255998e+06
  -1.253854e+06   3.471640e+06
  -2.977719e+06   1.390348e+06
  -3.393577e+06  -1.231495e+06
  -2.425516e+06  -2.732878e+06
  -5.149308e+05  -2.649821e+06
   1.243807e+06  -1.462117e+06
   1.575689e+06  -2.118600e+05
   4.869783e+05   4.223601e+04
  -3.618711e+05  -7.373515e+05
   3.727104e+05  -1.300661e+06
   1.828433e+06  -5.831068e+05
   1.991432e+06   8.154521e+05
   4.150722e+05   1.361321e+06
  -1.141122e+06   5.876884e+05
  -9.190707e+05  -4.390699e+05
   8.090952e+05  -5.825697e+05
   2.210186e+06   2.252579e+05
   1.827578e+06   1.327892e+06
  -1.847839e+05   2.013678e+06
  -2.280009e+06   1.701401e+06
  -2.750141e+06   3.055735e+05
  -1.207714e+06  -1.219639e+06
   8.798210e+05  -1.455565e+06
   1.497939e+06  -1.909191e+05
   1.846867e+05   1.043228e+06
  -1.484888e+06   7.313614e+05
  -1.708743e+06  -7.406310e+05
  -3.826605e+05  -1.628059e+06
   1.043106e+06  -1.012311e+06
   1.258407e+06   2.543221e+05
   2.829109e+05   7.574294e+05
  -7.656862e+05   6.817896e+04
  -7.270681e+05  -1.029786e+06
   5.685581e+05  -1.405812e+06
   1.985021e+06  -5.379649e+05
   2.013813e+06   1.030587e+06
   3.941768e+05   2.043442e+06
  -1.398920e+06   1.635225e+06
  -1.701017e+06   2.345207e+05
  -5.182726e+05  -8.488422e+05
   6.383765e+05  -8.098837e+05
   6.475472e+05  -7.758406e+04
  -9.788441e+04   3.959147e+05
  -5.160615e+05   2.483071e+05
  -1.827561e+05  -7.570606e+04
   4.137599e+05   1.905397e+04
   5.365300e+05   6.186723e+05
  -1.650445e+05   1.169279e+06
  -1.350136e+06   9.048706e+05
  -2.063032e+06  -3.885907e+05
  -1.462225e+06  -1.910412e+06
   1.979477e+05  -2.406867e+06
   1.595063e+06  -1.438009e+06
   1.702915e+06   9.207427e+04
   8.972815e+05   9.088949e+05
   3.304341e+05   7.077617e+05
   4.394703e+05   2.525066e+05
   5.832351e+05   2.895477e+05
   9.053856e+04   7.293128e+05
  -8.481734e+05   9.059703e+05
  -1.440054e+06   3.535720e+05
  -1.074000e+06  -7.156037e+05
   2.186055e+05  -1.481359e+06
   1.701978e+06  -1.099008e+06
   2.244233e+06   4.559582e+05
   1.158258e+06   2.066101e+06
  -9.524789e+05   2.349439e+06
  -2.488743e+06   1.062754e+06
  -2.350038e+06  -6.035355e+05
  -1.002852e+06  -1.319156e+06
   1.733991e+05  -9.784598e+05
   4.107460e+05  -5.439161e+05
   1.227788e+05  -7.408489e+05
   1.171118e+05  -1.263385e+06
   6.454701e+05  -1.257917e+06
   1.263008e+06  -3.178357e+05
   1.325626e+06   1.063606e+06
   5.613534e+05   1.875118e+06
  -6.103297e+05   1.428648e+06
  -1.277452e+06   1.342519e+04
  -8.233770e+05  -1.251271e+06
   3.527356e+05  -1.384241e+06
   1.121908e+06  -4.395376e+05
   8.064369e+05   6.409680e+05
  -8.320394e+04   1.042765e+06
  -4.877532e+05   7.851580e+05
  -6.623551e+04   4.287150e+05
   4.245276e+05   3.375257e+05
   5.755137e+04   3.826012e+05
  -1.123437e+06   2.219248e+05
  -2.028351e+06  -3.054722e+05
  -1.610174e+06  -1.002204e+06
   3.337607e+03  -1.405283e+06
   1.538900e+06  -1.135112e+06
   1.803625e+06  -3.057135e+05
   8.391955e+05   4.532962e+05
  -2.418273e+05   5.519043e+05
  -4.989630e+05   4.989242e+04
  -2.501162e+04  -3.986987e+05
   4.462680e+05  -2.539018e+05
   4.764316e+05   3.356171e+05
   2.353838e+05   7.199133e+05
   7.903722e+04   4.749432e+05
   1.382860e+05  -1.094387e+05
   2.914003e+05  -3.094755e+05
   2.788903e+05   2.258357e+05
  -1.427243e+05   9.855905e+05
  -8.815944e+05   1.060201e+06
  -1.324275e+06   1.723302e+05
  -8.286380e+05  -8.994210e+05
   4.014315e+05  -1.114321e+06
   1.230055e+06  -3.265456e+05
   7.290680e+05   5.682372e+05
  -6.863982e+05   6.526357e+05
  -1.584999e+06  -7.267600e+04
  -1.029623e+06  -8.447680e+05
   4.550863e+05  -1.001193e+06
   1.489547e+06  -5.120812e+05
   1.242169e+06   1.674105e+05
   1.462235e+05   5.139965e+05
  -6.409809e+05   2.807933e+05
  -3.786301e+05  -2.831728e+05
   5.836223e+05  -5.154684e+05
   1.173564e+06   8.128476e+04
   6.634693e+05   1.172126e+06
  -5.854629e+05   1.690685e+06
  -1.473073e+06   8.840151e+05
  -1.254660e+06  -7.465457e+05
  -2.158164e+05  -1.782915e+06
   7.256097e+05  -1.301218e+06
   9.249657e+05   1.593978e+05
   4.478844e+05   1.181404e+06
  -2.001970e+05   9.725755e+05
  -5.557485e+05   9.306827e+04
  -4.741060e+05  -3.737156e+05
  -1.714918e+05  -1.383892e+05
  -4.480724e+04   9.787397e+04
  -2.706718e+05  -2.853202e+05
  -5.120788e+05  -9.543351e+05
  -2.082359e+05  -1.073715e+06
   6.977617e+05  -4.017556e+05
   1.473351e+06   4.494403e+05
   1.289179e+06   8.214316e+05
   1.916402e+05   6.919046e+05
  -8.509630e+05   4.243873e+05
  -9.800388e+05   1.928406e+05
  -3.551567e+05  -4.559092e+04
   1.446212e+05  -2.252905e+05
   2.785527e+04  -2.079935e+05
  -2.702515e+05  -9.499291e+04
  -4.964937e+04  -1.321195e+05
   6.615272e+05  -2.395750e+05
   1.041218e+06   1.150723e+03
   4.316738e+05   6.826261e+05
  -8.282796e+05   1.178798e+06
  -1.679965e+06   7.697554e+05
  -1.404628e+06  -4.144319e+05
  -2.889328e+05  -1.396943e+06
   7.462716e+05  -1.377407e+06
   1.038005e+06  -5.462824e+05
   6.554901e+05   2.249947e+05
   1.364087e+05   3.549280e+05
  -7.126640e+04   6.508398e+04
   8.011049e+04  -1.951041e+04
   3.047712e+05   3.620581e+05
   2.566911e+05   8.019291e+05
  -1.701906e+05   6.780686e+05
  -6.797620e+05  -1.123784e+05
  -7.475943e+05  -9.376774e+05
  -1.286956e+05  -1.024768e+06
   7.459107e+05  -2.567808e+05
   1.039963e+06   7.026216e+05
   3.623308e+05   1.079486e+06
  -6.999922e+05   6.847270e+05
  -1.114653e+06  -5.823492e+04
  -5.382832e+05  -6.022308e+05
   2.758159e+05  -6.795982e+05
   3.728419e+05  -3.720535e+05
  -2.455918e+05  -5.741790e+03
  -6.458222e+05   4.832994e+04
  -1.506790e+05  -3.046020e+05
   8.125068e+05  -6.871536e+05
   1.247406e+06  -5.548008e+05
   7.627271e+05   1.664219e+05
  -8.336379e+04   8.672604e+05
  -5.385280e+05   8.610373e+05
  -4.224966e+05   1.687205e+05
  -6.115881e+04  -4.753799e+05
   2.311632e+05  -4.378365e+05
   3.522563e+05   1.396325e+05
   2.618975e+05   5.708622e+05
  -4.519673e+04   4.277131e+05
  -3.898718e+05  -3.765570e+04
  -4.786859e+05  -2.734307e+05
  -2.431350e+05  -9.356786e+04
   3.777100e+04   1.502748e+05
   8.372026e+04   4.510216e+04
  -1.998740e+04  -3.498349e+05
   3.640534e+04  -5.500858e+05
   3.119588e+05  -2.264509e+05
   4.648608e+05   3.669882e+05
   1.706682e+05   6.412893e+05
  -3.999166e+05   3.208283e+05
  -6.675755e+05  -2.654346e+05
  -2.633239e+05  -5.655818e+05
   5.002149e+05  -3.727061e+05
   8.816484e+05   5.926736e+04
   4.840703e+05   3.680640e+05
  -2.856686e+05   4.056820e+05
  -6.330904e+05   2.405856e+05
  -2.515654e+05   2.323037e+04
   3.396110e+05  -7.603588e+04
   4.050002e+05   5.303488e+04
  -1.597246e+05   2.901077e+05
  -7.304173e+05   2.822938e+05
