
 $NMID
 id='ANONYMOUS ', fmtdat='(2E16.6)'
 volume=1.0
 tramp=1.0
 $END
   5.498548e+07   2.801227e+06
   3.120389e+07   3.537677e+07
  -9.012620e+06   3.655439e+07
  -2.729918e+07   1.310569e+07
  -1.558527e+07  -7.262088e+06
   3.529863e+06  -8.834473e+06
   9.397815e+06   1.440045e+06
   2.385954e+06   9.479657e+06
  -6.222316e+06   8.894452e+06
  -9.400568e+06   1.651157e+06
  -6.620743e+06  -6.368274e+06
  -4.805876e+05  -8.526505e+06
   4.085522e+06  -2.519163e+06
   2.485881e+06   5.521898e+06
  -3.835361e+06   6.345383e+06
  -7.596476e+06  -1.572362e+06
  -3.939988e+06  -1.013174e+07
   4.167510e+06  -1.136319e+07
   1.015246e+07  -5.314429e+06
   1.049468e+07   2.564538e+06
   6.054326e+06   7.706772e+06
   1.359499e+05   8.452638e+06
  -3.141599e+06   5.610456e+06
  -1.718469e+06   2.409365e+06
   1.273454e+06   2.218338e+06
   1.569819e+05   4.307126e+06
  -5.642202e+06   4.242843e+06
  -9.710420e+06   1.036448e+05
  -6.813254e+06  -4.429222e+06
   6.913829e+04  -5.094838e+06
   3.952960e+06  -2.417902e+06
   2.566000e+06   2.124827e+05
  -6.848096e+05   1.149673e+06
  -2.473400e+06   5.375877e+05
  -2.287786e+06  -1.603769e+06
  -5.342681e+05  -4.092592e+06
   2.019922e+06  -3.733496e+06
   3.182021e+06   3.999779e+05
   1.414900e+06   3.736716e+06
  -9.653450e+05   1.743531e+06
  -2.845651e+05  -2.612877e+06
   2.500967e+06  -2.257952e+06
   2.273478e+06   3.183857e+06
  -2.566735e+06   5.812287e+06
  -6.712913e+06   6.083626e+05
  -4.613704e+06  -6.983819e+06
   2.246874e+06  -8.180148e+06
   7.372097e+06  -2.021674e+06
   6.698554e+06   4.605969e+06
   1.676002e+06   5.975832e+06
  -3.473986e+06   2.600116e+06
  -5.153594e+06  -1.592490e+06
  -2.327030e+06  -3.449370e+06
   2.401355e+06  -2.051463e+06
   4.384547e+06   1.055155e+06
   1.810535e+06   2.706866e+06
  -1.730294e+06   1.268285e+06
  -1.703908e+06  -1.042277e+06
   1.231223e+06  -8.453701e+05
   2.274915e+06   1.708066e+06
  -7.088516e+05   3.176163e+06
  -4.490918e+06   1.595723e+06
  -5.055433e+06  -1.490755e+06
  -2.099764e+06  -3.934215e+06
   2.005525e+06  -5.143508e+06
   5.207197e+06  -4.652479e+06
   6.256415e+06  -1.480719e+06
   4.412366e+06   3.370494e+06
   6.930182e+05   6.188565e+06
  -1.953371e+06   4.657987e+06
  -1.681696e+06   1.195134e+06
  -1.211330e+05  -1.207436e+05
  -9.980514e+04   1.117424e+06
  -1.812153e+06   1.777790e+06
  -2.945845e+06   8.799626e+04
  -2.033242e+06  -2.111850e+06
   5.567581e+04  -2.261933e+06
   1.652381e+06  -2.106508e+05
   1.709869e+06   2.162870e+06
  -7.617815e+04   2.997195e+06
  -2.873443e+06   1.567060e+06
  -4.450835e+06  -1.396901e+06
  -3.037055e+06  -3.898670e+06
   2.457147e+05  -4.176539e+06
   2.367566e+06  -2.555833e+06
   2.216347e+06  -1.018465e+06
   1.806443e+06  -6.385263e+05
   2.945523e+06  -4.304731e+05
   4.349636e+06   8.571335e+05
   3.449814e+06   2.865458e+06
   4.145798e+04   4.177152e+06
  -3.348565e+06   3.885819e+06
  -4.319143e+06   2.047076e+06
  -2.709736e+06  -5.305705e+05
  -2.011288e+05  -2.321713e+06
   1.206203e+06  -1.948082e+06
   5.797458e+05   6.592218e+04
  -1.151874e+06   1.308932e+06
  -1.941153e+06   3.475608e+05
  -8.849436e+05  -1.255762e+06
   5.621999e+05  -1.132584e+06
   4.439144e+05   3.808266e+05
  -1.032026e+06   6.839443e+05
  -1.777430e+06  -1.272971e+06
  -5.883900e+05  -3.432446e+06
   1.570842e+06  -3.365933e+06
   3.092917e+06  -1.108067e+06
   3.310643e+06   1.450211e+06
   2.307310e+06   2.810787e+06
   4.425377e+05   2.670579e+06
  -1.300820e+06   1.473657e+06
  -1.624470e+06   1.960187e+05
  -5.007648e+05  -5.803428e+04
   3.471199e+05   7.725874e+05
  -4.544790e+05   1.340110e+06
  -1.943208e+06   5.268511e+05
  -2.028280e+06  -9.476378e+05
  -3.528693e+05  -1.434660e+06
   1.199366e+06  -5.534106e+05
   9.024470e+05   4.713057e+05
  -8.492746e+05   5.158842e+05
  -2.199853e+06  -3.409222e+05
  -1.766773e+06  -1.389755e+06
   2.661407e+05  -2.000064e+06
   2.374988e+06  -1.645993e+06
   2.829160e+06  -2.207308e+05
   1.201369e+06   1.314581e+06
  -9.806826e+05   1.494570e+06
  -1.587492e+06   1.396001e+05
  -1.661091e+05  -1.108883e+06
   1.564676e+06  -7.102293e+05
   1.726674e+06   8.324443e+05
   3.103511e+05   1.678300e+06
  -1.116706e+06   9.658824e+05
  -1.259826e+06  -3.353029e+05
  -2.325847e+05  -7.875802e+05
   8.068887e+05  -3.003795e+04
   7.223693e+05   1.094606e+06
  -6.255837e+05   1.441982e+06
  -2.067034e+06   5.053604e+05
  -2.053495e+06  -1.123322e+06
  -3.399682e+05  -2.124970e+06
   1.506043e+06  -1.636226e+06
   1.759583e+06  -1.731618e+05
   4.908525e+05   8.913627e+05
  -6.863103e+05   8.022769e+05
  -6.526662e+05   7.039487e+04
   1.122441e+05  -3.650875e+05
   4.969310e+05  -2.195363e+05
   1.384162e+05   4.832179e+04
  -4.293471e+05  -9.149572e+04
  -4.987186e+05  -6.829240e+05
   2.365724e+05  -1.192494e+06
   1.425885e+06  -8.773797e+05
   2.111316e+06   4.706513e+05
   1.447749e+06   2.017482e+06
  -2.741693e+05   2.466448e+06
  -1.670341e+06   1.409793e+06
  -1.716627e+06  -1.534701e+05
  -8.708960e+05  -9.220778e+05
  -3.355032e+05  -6.778135e+05
  -4.912393e+05  -2.544115e+05
  -6.196354e+05  -3.470477e+05
  -6.380211e+04  -7.793075e+05
   9.095910e+05  -8.943482e+05
   1.477075e+06  -3.039167e+05
   1.060982e+06   7.503663e+05
  -2.727677e+05   1.480232e+06
  -1.771899e+06   1.059103e+06
  -2.281014e+06  -5.385041e+05
  -1.108127e+06  -2.159517e+06
   1.081106e+06  -2.377303e+06
   2.605125e+06  -9.872051e+05
   2.371672e+06   7.159981e+05
   9.501388e+05   1.369002e+06
  -2.126919e+05   9.556108e+05
  -3.983436e+05   5.279542e+05
  -1.063243e+05   7.862494e+05
  -1.513905e+05   1.336380e+06
  -7.214497e+05   1.292396e+06
  -1.327919e+06   2.883030e+05
  -1.340946e+06  -1.135841e+06
  -5.259878e+05  -1.947639e+06
   6.673165e+05  -1.454524e+06
   1.309493e+06   2.916234e+04
   7.946751e+05   1.322346e+06
  -4.280840e+05   1.405246e+06
  -1.180050e+06   3.794556e+05
  -7.931149e+05  -7.256507e+05
   1.563802e+05  -1.078883e+06
   5.581926e+05  -7.705898e+05
   8.796975e+04  -4.179020e+05
  -4.375087e+05  -3.560447e+05
  -5.368179e+04  -3.947565e+05
   1.173174e+06  -1.835730e+05
   2.092383e+06   3.920867e+05
   1.621448e+06   1.092803e+06
  -7.592378e+04   1.451855e+06
  -1.647872e+06   1.116187e+06
  -1.867083e+06   2.396582e+05
  -8.272581e+05  -5.166035e+05
   2.841131e+05  -5.684001e+05
   5.168117e+05  -2.050065e+04
   1.364768e+04   4.331837e+05
  -4.605084e+05   2.583387e+05
  -4.845316e+05  -3.609107e+05
  -2.457781e+05  -7.534020e+05
  -8.822297e+04  -5.004802e+05
  -1.354897e+05   9.511806e+04
  -2.831882e+05   3.002551e+05
  -2.750319e+05  -2.411714e+05
   1.617715e+05  -1.008842e+06
   9.423739e+05  -1.069044e+06
   1.401340e+06  -1.393649e+05
   8.523942e+05   9.629406e+05
  -4.566276e+05   1.155777e+06
  -1.301648e+06   3.133412e+05
  -7.411785e+05  -6.012175e+05
   7.290733e+05  -6.443125e+05
   1.613176e+06   1.286058e+05
   1.002861e+06   8.902853e+05
  -5.095244e+05   9.876672e+05
  -1.525690e+06   4.555724e+05
  -1.244900e+06  -2.144271e+05
  -1.268223e+05  -5.219551e+05
   6.647281e+05  -2.582778e+05
   3.847143e+05   3.129408e+05
  -6.109199e+05   5.296711e+05
  -1.216333e+06  -1.020181e+05
  -6.739658e+05  -1.227359e+06
   6.312097e+05  -1.744562e+06
   1.537438e+06  -8.896522e+05
   1.275996e+06   7.950462e+05
   1.788547e+05   1.836416e+06
  -7.752763e+05   1.306741e+06
  -9.351889e+05  -2.008056e+05
  -4.124773e+05  -1.220993e+06
   2.452511e+05  -9.739631e+05
   5.750881e+05  -6.955849e+04
   4.653371e+05   3.868480e+05
   1.602109e+05   1.342003e+05
   5.192753e+04  -9.168253e+04
   2.861849e+05   3.223826e+05
   5.059266e+05   1.003693e+06
   1.685459e+05   1.096237e+06
  -7.469584e+05   3.794535e+05
  -1.499477e+06  -4.998337e+05
  -1.285746e+06  -8.702122e+05
  -1.741325e+05  -7.189455e+05
   8.723949e+05  -4.230982e+05
   1.004055e+06  -1.690812e+05
   3.716539e+05   7.216773e+04
  -1.497593e+05   2.325393e+05
  -4.700520e+04   1.948484e+05
   2.622096e+05   8.462811e+04
   5.554044e+04   1.400573e+05
  -6.708277e+05   2.473661e+05
  -1.077296e+06  -2.367795e+04
  -4.526887e+05  -7.319382e+05
   8.713603e+05  -1.213466e+06
   1.769793e+06  -7.566536e+05
   1.464947e+06   4.644775e+05
   2.712262e+05   1.446775e+06
  -8.120150e+05   1.403175e+06
  -1.090261e+06   5.488174e+05
  -6.723802e+05  -2.364797e+05
  -1.393823e+05  -3.737129e+05
   6.490143e+04  -8.491415e+04
  -8.221646e+04   2.215630e+03
  -2.930035e+05  -3.816095e+05
  -2.365195e+05  -8.285794e+05
   1.907652e+05  -7.002352e+05
   7.006067e+05   1.183789e+05
   7.644372e+05   9.784390e+05
   1.262348e+05   1.071986e+06
  -7.734493e+05   2.694456e+05
  -1.068976e+06  -7.366587e+05
  -3.580422e+05  -1.128718e+06
   7.424885e+05  -7.032249e+05
   1.158940e+06   8.705659e+04
   5.435214e+05   6.515427e+05
  -3.109551e+05   7.091057e+05
  -4.100565e+05   3.702059e+05
   2.403315e+05  -2.887609e+03
   6.639771e+05  -3.881873e+04
   1.516939e+05   3.237639e+05
  -8.530983e+05   6.858859e+05
  -1.306465e+06   5.214488e+05
  -7.911965e+05  -2.116053e+05
   1.092410e+05  -8.989938e+05
   5.938294e+05  -8.732348e+05
   4.619347e+05  -1.665630e+05
   6.355390e+04   4.894579e+05
  -2.506123e+05   4.560843e+05
  -3.665374e+05  -1.376620e+05
  -2.587147e+05  -5.955165e+05
   6.016066e+04  -4.551350e+05
   4.050623e+05   4.223672e+04
   4.864932e+05   3.063051e+05
   2.436675e+05   1.114873e+05
  -3.650695e+04  -1.711259e+05
  -7.281241e+04  -7.217152e+04
   3.733744e+04   3.626414e+05
  -3.073249e+04   5.976012e+05
  -3.321591e+05   2.574515e+05
  -4.991547e+05  -3.825936e+05
  -1.877140e+05  -6.769059e+05
   4.165012e+05  -3.324971e+05
   6.970539e+05   2.851478e+05
   2.687477e+05   5.876374e+05
  -5.302628e+05   3.722274e+05
  -9.200066e+05  -8.016436e+04
  -4.950088e+05  -3.930447e+05
   3.101248e+05  -4.225762e+05
   6.697915e+05  -2.444678e+05
   2.727551e+05  -1.418018e+04
  -3.422711e+05   9.085805e+04
  -4.189040e+05  -4.444126e+04
   1.531126e+05  -2.926843e+05
   7.386052e+05  -2.861337e+05
