
 $NMID
 id='ANONYMOUS ', fmtdat='(2E16.6)'
 volume=1.0
 tramp=1.0
 $END
  -2.460509e+07  -7.275026e+05
  -1.611451e+07  -1.191320e+07
   3.882122e+05  -1.551928e+07
   1.084098e+07  -1.017183e+07
   8.994032e+06  -9.524994e+05
   5.203738e+05   4.447223e+06
  -5.061170e+06   2.221543e+06
  -3.781055e+06  -4.014944e+06
   1.239923e+06  -6.880548e+06
   4.707093e+06  -3.025831e+06
   3.985194e+06   3.327138e+06
   3.983120e+05   5.282558e+06
  -2.468691e+06   1.025299e+06
  -1.878016e+06  -4.443785e+06
   1.540575e+06  -5.142313e+06
   4.190807e+06  -4.266780e+05
   3.023469e+06   4.959609e+06
  -1.246196e+06   6.191361e+06
  -4.831418e+06   2.832551e+06
  -4.796532e+06  -1.599906e+06
  -1.906200e+06  -3.565984e+06
   4.973354e+05  -2.682483e+06
   1.291540e+05  -1.387857e+06
  -1.894521e+06  -1.889453e+06
  -2.289224e+06  -3.702203e+06
   7.648080e+05  -4.348162e+06
   5.223152e+06  -2.314890e+06
   6.838645e+06   1.149963e+06
   3.646751e+06   3.336656e+06
  -1.534048e+06   2.746727e+06
  -3.807175e+06   2.451014e+05
  -1.397894e+06  -1.956855e+06
   2.610854e+06  -2.032281e+06
   3.964394e+06   2.123784e+05
   1.814611e+06   3.002393e+06
  -1.039944e+06   3.752551e+06
  -1.824771e+06   1.552432e+06
  -5.809423e+05  -1.393207e+06
   6.761026e+05  -1.805707e+06
   4.996599e+05   7.693415e+05
  -8.165619e+05   3.086694e+06
  -1.947421e+06   2.054401e+06
  -1.744311e+06  -1.302179e+06
  -8.045668e+04  -2.983907e+06
   1.819158e+06  -9.268435e+05
   2.033957e+06   2.549109e+06
  -2.755436e+05   3.596761e+06
  -3.493469e+06   1.143643e+06
  -4.583241e+06  -2.362207e+06
  -2.096847e+06  -3.860686e+06
   2.019200e+06  -2.498578e+06
   4.142849e+06   1.643461e+05
   2.598191e+06   1.897899e+06
  -7.381651e+05   1.612182e+06
  -2.543324e+06   2.308267e+04
  -1.471235e+06  -1.144194e+06
   7.573929e+05  -8.004821e+05
   1.514304e+06   4.960423e+05
   1.434457e+05   1.233590e+06
  -1.495670e+06   5.991526e+05
  -1.243131e+06  -7.275412e+05
   8.658136e+05  -1.343025e+06
   2.533805e+06  -4.426323e+05
   1.650326e+06   1.514476e+06
  -1.393103e+06   3.083634e+06
  -4.051061e+06   2.806815e+06
  -4.225961e+06   4.347788e+05
  -2.235721e+06  -2.563628e+06
  -1.093327e+05  -4.102879e+06
   7.163071e+05  -3.460130e+06
   6.091333e+05  -1.920982e+06
   7.953457e+05  -1.126663e+06
   1.731920e+06  -1.094384e+06
   2.668841e+06  -4.798778e+05
   2.555435e+06   1.269793e+06
   1.097704e+06   2.797165e+06
  -9.364172e+05   2.324402e+06
  -2.195837e+06  -1.068720e+05
  -1.678950e+06  -2.440579e+06
   3.774315e+05  -2.665949e+06
   2.438370e+06  -7.414376e+05
   2.863942e+06   1.592616e+06
   1.450485e+06   2.627391e+06
  -3.712199e+05   2.130655e+06
  -1.115491e+06   1.163562e+06
  -8.771030e+05   7.623696e+05
  -1.036130e+06   9.192071e+05
  -2.317841e+06   7.659260e+05
  -3.586287e+06  -3.853625e+05
  -2.972503e+06  -2.223131e+06
  -1.372916e+05  -3.572937e+06
   2.981353e+06  -3.329127e+06
   3.932370e+06  -1.422249e+06
   2.184939e+06   9.464709e+05
  -3.847225e+05   2.125212e+06
  -1.437995e+06   1.406227e+06
  -4.303224e+05  -2.365133e+05
   1.142200e+06  -1.028560e+06
   1.536280e+06  -2.468969e+05
   5.184148e+05   9.717653e+05
  -6.571292e+05   9.850079e+05
  -7.116075e+05  -2.905413e+05
   4.169750e+05  -1.139825e+06
   1.614272e+06  -7.943656e+04
   1.603741e+06   2.229798e+06
   7.074666e+03   3.522645e+06
  -2.261204e+06   2.333112e+06
  -3.565105e+06  -4.740267e+05
  -2.839845e+06  -2.644673e+06
  -6.240308e+05  -2.752427e+06
   1.291081e+06  -1.338149e+06
   1.522203e+06  -5.224794e+04
   4.409059e+05   5.051962e+04
  -3.232420e+05  -6.606638e+05
   2.492386e+05  -1.046106e+06
   1.434657e+06  -4.765919e+05
   1.672791e+06   5.667986e+05
   4.571400e+05   1.073617e+06
  -9.798585e+05   5.751767e+05
  -9.904209e+05  -3.871770e+05
   6.167998e+05  -7.946481e+05
   2.233723e+06  -1.080025e+05
   2.065929e+06   1.225175e+06
   1.983371e+04   2.113226e+06
  -2.139490e+06   1.733474e+06
  -2.543464e+06   2.999872e+05
  -1.047900e+06  -1.019901e+06
   7.413607e+05  -1.130656e+06
   1.157406e+06  -1.046014e+05
   4.238587e+04   8.357921e+05
  -1.309856e+06   5.933469e+05
  -1.547282e+06  -6.010753e+05
  -4.987896e+05  -1.454819e+06
   8.084100e+05  -1.081934e+06
   1.188774e+06   2.550902e+04
   4.108517e+05   6.142672e+05
  -5.821124e+05   8.502722e+04
  -5.882548e+05  -9.092426e+05
   5.878025e+05  -1.220847e+06
   1.817044e+06  -3.784413e+05
   1.759821e+06   1.002666e+06
   3.146265e+05   1.819669e+06
  -1.221340e+06   1.447841e+06
  -1.510592e+06   2.556029e+05
  -5.308920e+05  -7.350826e+05
   5.479270e+05  -7.711309e+05
   6.915745e+05  -4.916285e+04
  -6.989413e+03   5.442838e+05
  -6.232385e+05   4.098958e+05
  -4.695005e+05  -1.251134e+05
   2.190047e+05  -2.417997e+05
   5.700356e+05   3.546130e+05
  -1.391569e+04   1.019745e+06
  -1.179932e+06   8.404166e+05
  -1.859728e+06  -3.570596e+05
  -1.279379e+06  -1.744049e+06
   2.279623e+05  -2.223959e+06
   1.502889e+06  -1.420890e+06
   1.692877e+06   4.737115e+03
   1.016278e+06   9.774207e+05
   3.543278e+05   9.761018e+05
   2.245482e+05   4.378342e+05
   3.220223e+05   1.970692e+05
   4.099967e+04   5.309604e+05
  -7.212254e+05   8.483350e+05
  -1.359063e+06   4.088142e+05
  -1.118868e+06  -7.091022e+05
   1.257987e+05  -1.519952e+06
   1.590518e+06  -1.097877e+06
   2.109602e+06   4.196622e+05
   1.122461e+06   1.869881e+06
  -7.503208e+05   2.113659e+06
  -2.167656e+06   1.040724e+06
  -2.213659e+06  -4.188351e+05
  -1.132119e+06  -1.213940e+06
   4.643377e+04  -1.095169e+06
   5.304814e+05  -6.767828e+05
   3.899523e+05  -6.476577e+05
   2.602512e+05  -9.853123e+05
   5.667559e+05  -1.011377e+06
   1.073488e+06  -2.247676e+05
   1.147313e+06   1.014211e+06
   4.511657e+05   1.733189e+06
  -6.110879e+05   1.291189e+06
  -1.183872e+06   2.064838e+04
  -7.743271e+05  -1.079796e+06
   2.209918e+05  -1.244020e+06
   8.852602e+05  -5.324036e+05
   7.071553e+05   3.668034e+05
   6.640997e+04   8.203321e+05
  -2.563243e+05   7.367609e+05
   1.364946e+04   4.735263e+05
   3.414971e+05   3.621820e+05
   1.897837e+04   3.691041e+05
  -9.584044e+05   2.070977e+05
  -1.744514e+06  -2.767583e+05
  -1.447491e+06  -8.764210e+05
  -9.506103e+04  -1.186973e+06
   1.277952e+06  -9.622779e+05
   1.598881e+06  -3.353655e+05
   8.051211e+05   2.619096e+05
  -1.640562e+05   4.200040e+05
  -4.115567e+05   1.049297e+05
   3.708293e+04  -2.624888e+05
   4.680574e+05  -1.902871e+05
   4.065068e+05   3.213208e+05
   7.098134e+04   6.982478e+05
  -5.782674e+04   4.431490e+05
   1.442154e+05  -1.836702e+05
   3.717079e+05  -3.830369e+05
   2.740789e+05   1.988782e+05
  -2.167288e+05   9.400152e+05
  -8.244836e+05   9.237112e+05
  -1.065087e+06   4.257061e+04
  -5.864267e+05  -8.458781e+05
   3.937844e+05  -8.897913e+05
   1.045652e+06  -1.457836e+05
   6.317918e+05   5.792188e+05
  -6.111174e+05   6.072567e+05
  -1.507830e+06  -3.224969e+04
  -1.094883e+06  -7.660557e+05
   3.161659e+05  -1.015621e+06
   1.415372e+06  -6.161681e+05
   1.254004e+06   8.857591e+04
   1.886463e+05   5.068043e+05
  -5.805932e+05   3.048829e+05
  -2.997662e+05  -2.282149e+05
   6.086261e+05  -3.942157e+05
   1.061104e+06   2.032761e+05
   4.577092e+05   1.143549e+06
  -7.257980e+05   1.484481e+06
  -1.447133e+06   6.789495e+05
  -1.125480e+06  -7.766433e+05
  -1.250263e+05  -1.683362e+06
   7.144348e+05  -1.250313e+06
   8.773050e+05   9.467244e+04
   4.655899e+05   1.097940e+06
  -1.069508e+05   9.592676e+05
  -4.862231e+05   1.170363e+05
  -5.074188e+05  -3.805056e+05
  -2.420968e+05  -1.634389e+05
  -1.123701e+04   1.175391e+05
  -1.174403e+05  -2.094090e+05
  -3.990219e+05  -8.730770e+05
  -2.670734e+05  -1.024247e+06
   5.375485e+05  -3.739450e+05
   1.370893e+06   4.657926e+05
   1.271780e+06   8.036237e+05
   1.692848e+05   6.264380e+05
  -8.905753e+05   3.540681e+05
  -9.489210e+05   1.807368e+05
  -2.544778e+05   8.436367e+02
   1.759464e+05  -1.937297e+05
  -7.026390e+04  -2.463647e+05
  -3.566013e+05  -1.602343e+05
   2.687572e+03  -1.299840e+05
   7.393443e+05  -1.504363e+05
   9.468079e+05   7.700988e+04
   2.073813e+05   6.259476e+05
  -9.184691e+05   9.838134e+05
  -1.506061e+06   5.583797e+05
  -1.139047e+06  -5.033622e+05
  -1.612097e+05  -1.319871e+06
   7.181563e+05  -1.201560e+06
   9.775086e+05  -3.825543e+05
   6.091988e+05   2.988529e+05
   6.220265e+04   3.304465e+05
  -1.626881e+05  -1.044591e+04
   4.072202e+04  -8.995319e+04
   3.171882e+05   3.150511e+05
   2.454179e+05   7.511221e+05
  -2.096493e+05   5.932117e+05
  -6.412243e+05  -2.095426e+05
  -5.783576e+05  -9.704450e+05
   4.944933e+04  -9.360770e+05
   7.622772e+05  -9.611087e+04
   8.872858e+05   7.934287e+05
   2.114353e+05   1.005044e+06
  -6.940532e+05   5.177206e+05
  -9.709914e+05  -1.379519e+05
  -4.075528e+05  -5.079512e+05
   2.781895e+05  -5.167355e+05
   2.748193e+05  -3.034778e+05
  -3.200439e+05  -5.614395e+04
  -6.220440e+05  -3.343578e+03
  -9.114934e+04  -2.688436e+05
   7.822458e+05  -6.065543e+05
   1.096004e+06  -5.237091e+05
   6.008333e+05   1.137076e+05
  -1.274240e+05   7.564112e+05
  -4.543679e+05   7.289183e+05
  -3.010252e+05   6.716033e+04
   1.905852e+04  -4.792126e+05
   2.521460e+05  -3.392579e+05
   3.209528e+05   2.317061e+05
   1.982030e+05   5.421129e+05
  -8.524203e+04   3.127879e+05
  -3.525093e+05  -9.244445e+04
  -3.977238e+05  -2.160134e+05
  -2.191796e+05  -4.502515e+04
  -1.503863e+04   7.216697e+04
   7.604614e+04  -9.350244e+04
   1.203321e+05  -3.761050e+05
   2.301194e+05  -4.066718e+05
   3.504706e+05  -3.375768e+04
   2.918771e+05   4.629802e+05
  -3.055817e+04   6.101063e+05
  -4.285055e+05   2.300522e+05
  -5.411031e+05  -3.369166e+05
  -1.664801e+05  -5.689027e+05
   4.543021e+05  -3.035147e+05
   7.558650e+05   1.406551e+05
   3.994473e+05   3.668046e+05
  -2.838599e+05   2.925467e+05
  -5.708008e+05   1.071734e+05
  -1.643796e+05  -5.079838e+03
   4.107595e+05   2.066140e+04
   4.053948e+05   1.691582e+05
  -2.422949e+05   3.147223e+05
  -8.160900e+05   2.132044e+05
