
 $NMID
 id='ANONYMOUS ', fmtdat='(2E16.6)'
 volume=1.0
 tramp=1.0
 $END
  -6.137279e+07   4.340815e+05
  -3.661596e+07  -3.809729e+07
   8.357598e+06  -4.143859e+07
   2.977545e+07  -1.549995e+07
   1.739034e+07   7.910331e+06
  -3.774138e+06   9.955211e+06
  -1.036372e+07  -1.569438e+06
  -2.720759e+06  -1.042612e+07
   6.641337e+06  -9.702028e+06
   1.023758e+07  -1.989561e+06
   7.581240e+06   6.542049e+06
   1.070968e+06   9.150452e+06
  -4.245535e+06   3.099913e+06
  -2.982769e+06  -5.564845e+06
   3.872647e+06  -6.836195e+06
   8.388848e+06   1.476171e+06
   4.798309e+06   1.091898e+07
  -4.005925e+06   1.269016e+07
  -1.088283e+07   6.496629e+06
  -1.183088e+07  -2.060768e+06
  -7.418394e+06  -8.152271e+06
  -8.259566e+05  -9.628772e+06
   3.392850e+06  -6.681624e+06
   2.303548e+06  -2.616418e+06
  -1.217253e+06  -1.812891e+06
  -6.448793e+05  -4.281632e+06
   5.432447e+06  -5.021084e+06
   1.028432e+07  -1.021204e+06
   7.757928e+06   4.190302e+06
   5.778548e+05   5.582837e+06
  -3.816199e+06   3.136610e+06
  -2.824953e+06   3.234920e+05
   1.994210e+05  -1.017971e+06
   2.123392e+06  -8.686248e+05
   2.497366e+06   1.153706e+06
   1.141234e+06   4.124257e+06
  -1.808104e+06   4.317898e+06
  -3.748422e+06   1.642594e+04
  -2.096775e+06  -4.041451e+06
   9.501965e+05  -2.327475e+06
   6.948337e+05   2.493117e+06
  -2.456262e+06   2.465065e+06
  -2.590268e+06  -3.414214e+06
   2.723574e+06  -6.554081e+06
   7.673702e+06  -9.828678e+05
   5.603086e+06   7.584388e+06
  -2.108080e+06   9.262638e+06
  -8.027599e+06   2.691410e+06
  -7.431664e+06  -4.610579e+06
  -1.987138e+06  -6.285915e+06
   3.590557e+06  -2.848675e+06
   5.456337e+06   1.535717e+06
   2.496790e+06   3.603571e+06
  -2.602480e+06   2.297137e+06
  -4.826354e+06  -9.827134e+05
  -2.057497e+06  -2.902836e+06
   1.843300e+06  -1.478093e+06
   1.809200e+06   1.037055e+06
  -1.454711e+06   8.418483e+05
  -2.540319e+06  -2.031081e+06
   9.048186e+05  -3.719670e+06
   5.126862e+06  -1.939123e+06
   5.664121e+06   1.552366e+06
   2.449621e+06   4.286736e+06
  -1.783260e+06   5.696554e+06
  -5.124002e+06   5.379963e+06
  -6.567745e+06   2.117330e+06
  -5.084416e+06  -3.236298e+06
  -1.230429e+06  -6.563853e+06
   1.890961e+06  -5.026674e+06
   1.816372e+06  -1.152978e+06
  -1.584737e+04   3.691331e+05
  -3.168410e+05  -1.132886e+06
   1.512497e+06  -2.171880e+06
   3.019700e+06  -5.715688e+05
   2.371476e+06   1.828127e+06
   2.838813e+05   2.251112e+06
  -1.522110e+06   3.922598e+05
  -1.862372e+06  -1.982506e+06
  -1.917044e+05  -3.065849e+06
   2.853030e+06  -1.931464e+06
   4.868236e+06   1.053185e+06
   3.623813e+06   3.952218e+06
   6.004863e+04   4.610773e+06
  -2.452928e+06   2.997956e+06
  -2.421435e+06   1.216596e+06
  -1.917871e+06   6.997465e+05
  -3.038687e+06   5.596018e+05
  -4.555887e+06  -6.575195e+05
  -3.735955e+06  -2.757542e+06
  -3.062248e+05  -4.290338e+06
   3.152562e+06  -4.221759e+06
   4.251724e+06  -2.468103e+06
   2.851095e+06   2.583812e+05
   4.816397e+05   2.345861e+06
  -1.023290e+06   2.140555e+06
  -6.147598e+05   9.227326e+03
   1.062249e+06  -1.443521e+06
   1.997469e+06  -4.997874e+05
   1.044606e+06   1.252542e+06
  -4.636126e+05   1.199876e+06
  -4.128755e+05  -3.669729e+05
   1.108797e+06  -6.558374e+05
   1.889341e+06   1.430192e+06
   6.067980e+05   3.630645e+06
  -1.663761e+06   3.427451e+06
  -3.178077e+06   1.059820e+06
  -3.346145e+06  -1.421603e+06
  -2.383952e+06  -2.678307e+06
  -5.877304e+05  -2.616397e+06
   1.199182e+06  -1.588023e+06
   1.629272e+06  -3.368915e+05
   5.161177e+05   2.524847e+04
  -4.039786e+05  -7.703065e+05
   4.051489e+05  -1.428660e+06
   2.008587e+06  -6.677580e+05
   2.161337e+06   8.865769e+05
   4.276934e+05   1.481743e+06
  -1.204001e+06   6.291909e+05
  -9.139905e+05  -4.252084e+05
   8.591974e+05  -5.139265e+05
   2.209386e+06   2.823660e+05
   1.795304e+06   1.298205e+06
  -1.871255e+05   1.989086e+06
  -2.305115e+06   1.786432e+06
  -2.866800e+06   3.972060e+05
  -1.319931e+06  -1.290920e+06
   9.268857e+05  -1.633500e+06
   1.663991e+06  -2.541361e+05
   2.667342e+05   1.152233e+06
  -1.565743e+06   8.395576e+05
  -1.816435e+06  -7.606386e+05
  -3.850154e+05  -1.698883e+06
   1.111364e+06  -1.015117e+06
   1.293515e+06   3.125760e+05
   2.484514e+05   8.050086e+05
  -8.494248e+05   7.299455e+04
  -8.230162e+05  -1.081571e+06
   5.338586e+05  -1.527517e+06
   2.080176e+06  -6.716743e+05
   2.186747e+06   1.005913e+06
   4.893918e+05   2.160471e+06
  -1.450138e+06   1.774233e+06
  -1.795247e+06   2.757220e+05
  -5.421822e+05  -8.878677e+05
   6.583917e+05  -8.535785e+05
   6.382352e+05  -1.198092e+05
  -1.080902e+05   3.340661e+05
  -4.535559e+05   2.139566e+05
  -7.266010e+04  -2.135647e+04
   4.772066e+05   1.321495e+05
   5.283406e+05   7.153053e+05
  -2.012181e+05   1.241188e+06
  -1.413795e+06   9.801035e+05
  -2.190866e+06  -3.491534e+05
  -1.617158e+06  -1.971061e+06
   1.145381e+05  -2.530110e+06
   1.604445e+06  -1.518555e+06
   1.727705e+06   6.610233e+04
   9.024067e+05   8.479983e+05
   3.787673e+05   5.910644e+05
   5.639726e+05   1.830223e+05
   7.034597e+05   3.362122e+05
   1.208998e+05   8.250848e+05
  -8.855945e+05   9.637187e+05
  -1.477115e+06   3.823750e+05
  -1.097982e+06  -6.842168e+05
   2.009018e+05  -1.486838e+06
   1.732795e+06  -1.169690e+06
   2.348142e+06   4.059578e+05
   1.249925e+06   2.138713e+06
  -9.851867e+05   2.499797e+06
  -2.622248e+06   1.151171e+06
  -2.447252e+06  -6.137896e+05
  -1.003635e+06  -1.332072e+06
   1.805080e+05  -9.383178e+05
   3.329866e+05  -5.237363e+05
  -6.484078e+03  -8.218818e+05
   3.792965e+04  -1.417402e+06
   6.643357e+05  -1.397017e+06
   1.358372e+06  -3.911575e+05
   1.455884e+06   1.067206e+06
   6.734576e+05   1.952061e+06
  -5.781519e+05   1.530938e+06
  -1.334481e+06   5.007917e+04
  -8.870357e+05  -1.315307e+06
   3.742806e+05  -1.464225e+06
   1.212029e+06  -4.266438e+05
   8.575953e+05   7.445934e+05
  -1.293490e+05   1.140109e+06
  -5.669539e+05   8.129753e+05
  -7.992524e+04   4.109861e+05
   4.810690e+05   3.243316e+05
   8.781856e+04   3.957159e+05
  -1.202596e+06   2.580135e+05
  -2.186651e+06  -2.728616e+05
  -1.728271e+06  -1.024656e+06
   1.266761e+04  -1.508216e+06
   1.645116e+06  -1.257469e+06
   1.901843e+06  -3.464814e+05
   8.644269e+05   5.116602e+05
  -2.700450e+05   6.170629e+05
  -5.358118e+05   3.795227e+04
  -5.322819e+04  -4.671095e+05
   4.404706e+05  -3.037021e+05
   5.243987e+05   3.353713e+05
   3.332498e+05   7.471150e+05
   1.526419e+05   5.058967e+05
   1.264607e+05  -8.582161e+04
   2.431078e+05  -3.021769e+05
   2.909865e+05   2.305973e+05
  -8.092980e+04   1.032328e+06
  -8.919723e+05   1.161194e+06
  -1.459102e+06   2.540671e+05
  -9.716045e+05  -9.277422e+05
   3.903874e+05  -1.239737e+06
   1.331284e+06  -4.359537e+05
   8.035980e+05   5.539625e+05
  -7.078610e+05   7.002519e+05
  -1.639972e+06  -3.785833e+04
  -1.042173e+06  -8.447840e+05
   4.805987e+05  -1.013860e+06
   1.513222e+06  -5.255894e+05
   1.254418e+06   1.544751e+05
   1.495073e+05   5.149416e+05
  -6.627715e+05   2.933507e+05
  -4.226829e+05  -3.037872e+05
   5.741944e+05  -5.987105e+05
   1.253414e+06  -2.294190e+03
   8.015853e+05   1.196673e+06
  -4.912188e+05   1.838722e+06
  -1.492563e+06   1.036969e+06
  -1.359156e+06  -7.099805e+05
  -3.153596e+05  -1.852161e+06
   6.965618e+05  -1.368669e+06
   9.585019e+05   1.583835e+05
   4.839441e+05   1.215281e+06
  -2.065692e+05   9.910804e+05
  -5.873077e+05   9.866028e+04
  -4.821074e+05  -3.550948e+05
  -1.521498e+05  -1.164014e+05
  -5.385214e+04   8.948505e+04
  -3.423632e+05  -3.262701e+05
  -5.955470e+05  -9.943251e+05
  -2.227689e+05  -1.096729e+06
   7.628221e+05  -4.302054e+05
   1.557168e+06   4.031987e+05
   1.345377e+06   7.937277e+05
   2.238025e+05   7.246647e+05
  -8.378719e+05   4.966619e+05
  -1.001618e+06   2.351190e+05
  -3.998735e+05  -6.218099e+04
   1.281335e+05  -2.505401e+05
   5.768146e+04  -1.863955e+05
  -2.481150e+05  -5.022433e+04
  -7.711772e+04  -1.382838e+05
   6.384825e+05  -3.134724e+05
   1.103941e+06  -6.101967e+04
   5.526654e+05   7.223533e+05
  -7.771389e+05   1.318785e+06
  -1.769624e+06   9.168649e+05
  -1.561725e+06  -3.560200e+05
  -3.925234e+05  -1.451833e+06
   7.341308e+05  -1.497497e+06
   1.074317e+06  -6.567267e+05
   7.005883e+05   1.769875e+05
   1.806538e+05   3.726484e+05
  -3.897908e+04   1.094960e+05
   9.012653e+04   1.060179e+04
   3.132602e+05   3.743518e+05
   2.907954e+05   8.265371e+05
  -1.386984e+05   7.341669e+05
  -7.199610e+05  -5.117945e+04
  -8.687912e+05  -9.261518e+05
  -2.357135e+05  -1.090020e+06
   7.562978e+05  -3.581393e+05
   1.155406e+06   6.504508e+05
   4.649000e+05   1.128002e+06
  -7.033839e+05   7.911799e+05
  -1.201736e+06   2.628566e+03
  -6.148041e+05  -6.432266e+05
   2.691798e+05  -7.688392e+05
   4.121389e+05  -4.108657e+05
  -2.232752e+05   3.208855e+04
  -6.687613e+05   9.301146e+04
  -1.859981e+05  -3.243280e+05
   8.191170e+05  -7.592713e+05
   1.311498e+06  -6.087634e+05
   8.432078e+05   1.779494e+05
  -4.398907e+04   9.342968e+05
  -5.621264e+05   9.415842e+05
  -4.834263e+05   2.179507e+05
  -1.142616e+05  -4.865118e+05
   2.188881e+05  -4.966626e+05
   3.851275e+05   9.274931e+04
   3.114828e+05   5.877901e+05
  -2.413323e+04   4.880325e+05
  -4.182443e+05  -4.044760e+03
  -5.245685e+05  -2.913564e+05
  -2.555967e+05  -1.084278e+05
   5.848431e+04   1.890826e+05
   7.618206e+04   1.014993e+05
  -9.512235e+04  -3.571818e+05
  -5.112755e+04  -6.390785e+05
   3.109140e+05  -3.264279e+05
   5.679281e+05   3.315929e+05
   2.790479e+05   6.774008e+05
  -3.906632e+05   3.818179e+05
  -7.478529e+05  -2.264763e+05
  -3.298059e+05  -5.722079e+05
   5.196081e+05  -4.218544e+05
   9.579457e+05   4.824503e+03
   5.407424e+05   3.640060e+05
  -2.864166e+05   4.699460e+05
  -6.727251e+05   3.181726e+05
  -2.938433e+05   3.643993e+04
   3.214907e+05  -1.377620e+05
   4.244150e+05  -1.041590e+04
  -1.139414e+05   2.983849e+05
  -7.014547e+05   3.518808e+05
