
 $NMID
 id='ANONYMOUS ', fmtdat='(2E16.6)'
 volume=1.0
 tramp=1.0
 $END
   4.048778e+07  -4.418674e+05
   2.563444e+07   2.315168e+07
  -3.443007e+06   2.714775e+07
  -1.927632e+07   1.273327e+07
  -1.299005e+07  -3.043071e+06
   1.358366e+06  -7.032296e+06
   7.586343e+06  -4.990933e+05
   3.341084e+06   7.003620e+06
  -3.790499e+06   8.181968e+06
  -7.253014e+06   2.546624e+06
  -5.518944e+06  -4.699353e+06
  -6.487841e+05  -6.888633e+06
   3.162844e+06  -1.913034e+06
   2.204404e+06   4.875183e+06
  -2.684680e+06   5.828921e+06
  -6.082783e+06  -4.210257e+05
  -3.815482e+06  -7.567598e+06
   2.420419e+06  -9.041290e+06
   7.392878e+06  -4.485660e+06
   7.803614e+06   1.654654e+06
   4.397249e+06   5.380179e+06
   3.053249e+05   5.664278e+06
  -1.416165e+06   3.872269e+06
  -7.820234e+04   2.432479e+06
   1.525282e+06   2.907667e+06
  -2.904364e+05   4.127780e+06
  -5.173117e+06   3.279529e+06
  -8.091952e+06  -2.705543e+05
  -5.316238e+06  -3.611257e+06
   5.365325e+05  -3.806455e+06
   3.609678e+06  -1.387614e+06
   1.830136e+06   8.818069e+05
  -1.594378e+06   1.321143e+06
  -2.992030e+06   3.885479e+04
  -1.878512e+06  -2.146991e+06
   1.714424e+05  -3.697473e+06
   1.717421e+06  -2.685303e+06
   1.873130e+06   6.137537e+05
   6.104840e+05   2.621261e+06
  -5.242701e+05   6.390809e+05
   2.684369e+05  -2.651552e+06
   2.195947e+06  -2.136884e+06
   2.125603e+06   2.254658e+06
  -1.143437e+06   4.647210e+06
  -4.442857e+06   1.115641e+06
  -3.711193e+06  -4.678195e+06
   9.868958e+05  -6.130524e+06
   5.429123e+06  -1.872994e+06
   5.764075e+06   3.376636e+06
   1.952607e+06   4.951608e+06
  -2.764388e+06   2.587988e+06
  -4.693441e+06  -8.847026e+05
  -2.492665e+06  -2.730322e+06
   1.594438e+06  -1.936494e+06
   3.557437e+06   4.310077e+05
   1.732794e+06   1.942501e+06
  -1.230978e+06   1.104779e+06
  -1.616796e+06  -7.759008e+05
   6.445998e+05  -1.106262e+06
   2.071134e+06   6.100371e+05
   3.526325e+05   2.199949e+06
  -2.787975e+06   1.733292e+06
  -3.988021e+06  -4.275690e+05
  -2.033156e+06  -2.756502e+06
   1.545410e+06  -4.148721e+06
   4.440528e+06  -3.783979e+06
   5.125754e+06  -1.114504e+06
   3.391779e+06   2.772254e+06
   5.541716e+05   5.071016e+06
  -1.297868e+06   4.108536e+06
  -1.248490e+06   1.560603e+06
  -5.233865e+05   3.611407e+05
  -8.138826e+05   9.277243e+05
  -2.033714e+06   1.072281e+06
  -2.574998e+06  -4.952356e+05
  -1.491227e+06  -2.286879e+06
   4.632478e+05  -2.148582e+06
   1.817962e+06  -2.650654e+03
   1.606250e+06   2.239067e+06
  -2.022783e+05   2.745767e+06
  -2.547312e+06   1.180162e+06
  -3.612427e+06  -1.340967e+06
  -2.346943e+06  -3.125897e+06
   1.456512e+05  -3.162752e+06
   1.657067e+06  -1.975095e+06
   1.561337e+06  -9.815996e+05
   1.454951e+06  -7.970833e+05
   2.628767e+06  -5.951707e+05
   3.937202e+06   5.993554e+05
   3.182896e+06   2.498067e+06
   9.901349e+04   3.812601e+06
  -3.084504e+06   3.543453e+06
  -3.997981e+06   1.716915e+06
  -2.367129e+06  -6.741833e+05
   6.199588e+04  -2.123213e+06
   1.243570e+06  -1.628833e+06
   4.836431e+05   1.300800e+05
  -1.103475e+06   1.142983e+06
  -1.708021e+06   3.139073e+05
  -7.167835e+05  -1.073918e+06
   5.856846e+05  -1.024995e+06
   5.536519e+05   3.598396e+05
  -7.849570e+05   9.108638e+05
  -1.771050e+06  -6.524064e+05
  -1.092325e+06  -2.916423e+06
   8.884777e+05  -3.474135e+06
   2.771040e+06  -1.658505e+06
   3.408764e+06   1.041056e+06
   2.466684e+06   2.733618e+06
   4.777476e+05   2.655697e+06
  -1.263128e+06   1.364462e+06
  -1.525598e+06   1.226642e+05
  -4.615981e+05  -5.245289e+04
   3.308224e+05   7.044236e+05
  -3.385023e+05   1.191480e+06
  -1.670920e+06   5.198548e+05
  -1.846326e+06  -7.430689e+05
  -4.089034e+05  -1.252711e+06
   1.079210e+06  -5.576952e+05
   9.204480e+05   4.382336e+05
  -7.553748e+05   6.368760e+05
  -2.193708e+06  -1.596305e+05
  -1.852187e+06  -1.324471e+06
   1.632126e+05  -2.019699e+06
   2.232469e+06  -1.640110e+06
   2.639135e+06  -2.494818e+05
   1.117677e+06   1.148748e+06
  -8.311883e+05   1.309749e+06
  -1.356711e+06   1.453935e+05
  -1.228480e+05  -9.511656e+05
   1.408246e+06  -6.497062e+05
   1.616503e+06   7.091713e+05
   3.891430e+05   1.556792e+06
  -9.725711e+05   1.008809e+06
  -1.220956e+06  -1.967100e+05
  -3.127925e+05  -7.099218e+05
   6.929562e+05  -6.667308e+04
   6.519979e+05   9.789794e+05
  -5.851895e+05   1.305210e+06
  -1.896252e+06   4.408396e+05
  -1.872004e+06  -1.032858e+06
  -3.284003e+05  -1.936606e+06
   1.340114e+06  -1.523125e+06
   1.613895e+06  -2.109343e+05
   5.014680e+05   8.081528e+05
  -6.124690e+05   7.740553e+05
  -6.512098e+05   4.991079e+04
   8.284958e+04  -4.419407e+05
   5.577964e+05  -2.806316e+05
   2.712899e+05   1.116298e+05
  -3.557826e+05   7.100202e+04
  -5.399446e+05  -5.329596e+05
   1.286162e+05  -1.103606e+06
   1.285529e+06  -8.472903e+05
   1.951742e+06   4.050251e+05
   1.342525e+06   1.842748e+06
  -2.472703e+05   2.297156e+06
  -1.567134e+06   1.377150e+06
  -1.672869e+06  -9.835051e+04
  -8.973837e+05  -9.430264e+05
  -3.012069e+05  -7.944019e+05
  -3.430151e+05  -3.075794e+05
  -4.841111e+05  -2.510238e+05
  -6.760083e+04  -6.488951e+05
   8.074193e+05  -8.591768e+05
   1.398553e+06  -3.385806e+05
   1.054570e+06   7.273482e+05
  -2.187805e+05   1.468835e+06
  -1.658938e+06   1.048032e+06
  -2.151613e+06  -4.776710e+05
  -1.091645e+06  -1.987513e+06
   9.060744e+05  -2.219772e+06
   2.359523e+06  -1.000405e+06
   2.260563e+06   5.749986e+05
   1.005728e+06   1.290543e+06
  -1.561943e+05   1.004190e+06
  -4.636610e+05   5.629508e+05
  -2.214458e+05   6.782017e+05
  -1.749539e+05   1.136847e+06
  -6.212031e+05   1.143344e+06
  -1.178810e+06   2.640795e+05
  -1.221810e+06  -1.047353e+06
  -4.812440e+05  -1.800612e+06
   6.235275e+05  -1.343906e+06
   1.224382e+06   7.174136e+03
   7.748051e+05   1.187084e+06
  -3.247306e+05   1.312781e+06
  -1.037869e+06   4.520848e+05
  -7.607613e+05  -5.495978e+05
   4.152226e+04  -9.566110e+05
   4.159203e+05  -7.578831e+05
   5.032607e+04  -4.395365e+05
  -3.801873e+05  -3.445088e+05
  -3.581210e+04  -3.703702e+05
   1.052309e+06  -1.977381e+05
   1.892236e+06   3.188766e+05
   1.512417e+06   9.685310e+05
   1.149765e+04   1.312926e+06
  -1.439229e+06   1.038280e+06
  -1.711766e+06   2.823673e+05
  -8.142484e+05  -3.975723e+05
   2.159625e+05  -4.970500e+05
   4.651488e+05  -6.156885e+04
   2.727145e+03   3.428146e+05
  -4.477889e+05   2.168353e+05
  -4.379566e+05  -3.314804e+05
  -1.611840e+05  -6.956799e+05
  -2.290270e+04  -4.497139e+05
  -1.446394e+05   1.290527e+05
  -3.244446e+05   3.176376e+05
  -2.688557e+05  -2.186745e+05
   1.843773e+05  -9.454345e+05
   8.624321e+05  -9.794515e+05
   1.210037e+06  -1.114278e+05
   7.157811e+05   8.698688e+05
  -4.034213e+05   1.010793e+06
  -1.143162e+06   2.434653e+05
  -6.703296e+05  -5.725190e+05
   6.609248e+05  -6.151296e+05
   1.532111e+06   8.848914e+04
   1.019446e+06   8.302026e+05
  -4.234682e+05   9.865765e+05
  -1.456021e+06   5.094463e+05
  -1.225347e+06  -1.661968e+05
  -1.469735e+05  -5.083252e+05
   6.170909e+05  -2.733437e+05
   3.424251e+05   2.634799e+05
  -5.861572e+05   4.512458e+05
  -1.106268e+06  -1.403603e+05
  -5.582958e+05  -1.144718e+06
   6.479449e+05  -1.570567e+06
   1.446274e+06  -7.683760e+05
   1.170954e+06   7.639588e+05
   1.477283e+05   1.717776e+06
  -7.350858e+05   1.245920e+06
  -8.930132e+05  -1.525553e+05
  -4.247037e+05  -1.143633e+06
   1.860669e+05  -9.521170e+05
   5.260689e+05  -9.126487e+04
   4.683603e+05   3.819172e+05
   1.877563e+05   1.523209e+05
   3.604862e+04  -1.037719e+05
   2.124628e+05   2.518101e+05
   4.486743e+05   9.150681e+05
   2.035139e+05   1.046399e+06
  -6.389202e+05   3.792848e+05
  -1.402229e+06  -4.738003e+05
  -1.243647e+06  -8.286885e+05
  -1.692320e+05  -6.607213e+05
   8.547682e+05  -3.720959e+05
   9.560265e+05  -1.654754e+05
   3.167506e+05   3.115520e+04
  -1.558108e+05   2.057089e+05
  -1.203582e+03   2.224141e+05
   2.886769e+05   1.263278e+05
   2.835594e+04   1.271034e+05
  -6.762743e+05   1.861459e+05
  -9.867848e+05  -4.423585e+04
  -3.367821e+05  -6.480820e+05
   8.589478e+05  -1.068931e+06
   1.596808e+06  -6.580466e+05
   1.276283e+06   4.527891e+05
   2.143873e+05   1.345553e+06
  -7.440463e+05   1.279223e+06
  -1.002037e+06   4.621156e+05
  -6.191360e+05  -2.577538e+05
  -1.026046e+05  -3.391518e+05
   9.782693e+04  -3.158286e+04
  -6.999503e+04   4.341582e+04
  -2.983507e+05  -3.473821e+05
  -2.336209e+05  -7.758447e+05
   1.905609e+05  -6.315890e+05
   6.467498e+05   1.559365e+05
   6.548647e+05   9.390307e+05
   4.892141e+04   9.694723e+05
  -7.347213e+05   1.806970e+05
  -9.495151e+05  -7.350937e+05
  -2.855931e+05  -1.034800e+06
   6.912049e+05  -6.013481e+05
   1.040858e+06   1.003908e+05
   4.770113e+05   5.642481e+05
  -2.773381e+05   6.066177e+05
  -3.375412e+05   3.399357e+05
   2.633165e+05   3.243730e+04
   6.245883e+05  -1.713920e+04
   1.233261e+05   2.871061e+05
  -7.986718e+05   6.317713e+05
  -1.185143e+06   5.158400e+05
  -6.942892e+05  -1.532202e+05
   1.095054e+05  -8.103803e+05
   5.121652e+05  -7.944937e+05
   3.720163e+05  -1.292932e+05
   2.229879e+04   4.650469e+05
  -2.381492e+05   3.906345e+05
  -3.270852e+05  -1.741980e+05
  -2.248917e+05  -5.533057e+05
   6.066565e+04  -3.781989e+05
   3.664525e+05   6.191384e+04
   4.403638e+05   2.552066e+05
   2.315882e+05   7.958277e+04
  -2.056180e+04  -1.190923e+05
  -8.677842e+04   9.611935e+02
  -3.691621e+04   3.448232e+05
  -1.048355e+05   4.800582e+05
  -3.132526e+05   1.484274e+05
  -3.847384e+05  -3.931216e+05
  -8.750977e+04  -6.116232e+05
   4.043795e+05  -2.741109e+05
   6.032598e+05   2.922957e+05
   2.133691e+05   5.570075e+05
  -4.802430e+05   3.344840e+05
  -8.178269e+05  -9.784588e+04
  -4.390362e+05  -3.670075e+05
   2.824599e+05  -3.542753e+05
   5.986124e+05  -1.810579e+05
   2.166803e+05  -1.279930e+04
  -3.536891e+05   3.046183e+04
  -3.901161e+05  -1.002253e+05
   1.926181e+05  -2.849777e+05
   7.487599e+05  -2.328981e+05
