
 $NMID
 id='ANONYMOUS ', fmtdat='(2E16.6)'
 volume=1.0
 tramp=1.0
 $END
  -3.461596e+07   3.363232e+05
  -2.273844e+07  -1.788373e+07
   1.279638e+06  -2.263333e+07
   1.572380e+07  -1.294530e+07
   1.200180e+07   4.399297e+05
  -1.022568e+05   6.190238e+06
  -6.842677e+06   1.892490e+06
  -4.211944e+06  -5.806473e+06
   2.402311e+06  -8.430841e+06
   6.407821e+06  -3.332679e+06
   5.233276e+06   4.276526e+06
   6.464839e+05   6.655796e+06
  -3.056510e+06   1.579346e+06
  -2.311799e+06  -5.191337e+06
   2.173594e+06  -6.161190e+06
   5.575331e+06  -2.093359e+05
   3.877632e+06   6.683020e+06
  -1.779840e+06   8.272785e+06
  -6.493560e+06   4.027604e+06
  -6.729787e+06  -1.707886e+06
  -3.304350e+06  -4.723627e+06
   1.105110e+05  -4.291020e+06
   6.110680e+05  -2.672130e+06
  -1.333476e+06  -2.415771e+06
  -2.270611e+06  -3.858037e+06
   6.367824e+05  -4.821052e+06
   5.846418e+06  -3.071401e+06
   8.260892e+06   8.370633e+05
   4.875330e+06   3.817429e+06
  -1.258529e+06   3.543880e+06
  -4.190089e+06   7.880157e+05
  -1.749903e+06  -1.733033e+06
   2.527678e+06  -1.986781e+06
   4.067470e+06   1.316940e+05
   2.079775e+06   3.017818e+06
  -7.786834e+05   4.207120e+06
  -1.974059e+06   2.252723e+06
  -1.197020e+06  -1.201037e+06
   1.778386e+05  -2.359470e+06
   5.402258e+05   2.648934e+05
  -6.797706e+05   3.299003e+06
  -2.293013e+06   2.383846e+06
  -2.176081e+06  -1.856379e+06
   3.597008e+05  -4.124788e+06
   3.168046e+06  -1.221893e+06
   3.102134e+06   3.730677e+06
  -5.134037e+05   5.178454e+06
  -4.752319e+06   1.690713e+06
  -5.742226e+06  -3.038146e+06
  -2.374546e+06  -4.825730e+06
   2.582738e+06  -2.904654e+06
   4.948508e+06   4.458011e+05
   2.935986e+06   2.487294e+06
  -1.179349e+06   1.994391e+06
  -3.325803e+06  -1.183627e+05
  -1.809754e+06  -1.617008e+06
   1.044628e+06  -1.055761e+06
   1.770222e+06   6.664385e+05
  -1.686338e+05   1.364249e+06
  -1.970401e+06   1.902543e+05
  -1.076094e+06  -1.469526e+06
   1.779790e+06  -1.751029e+06
   3.512731e+06  -1.921744e+05
   2.080821e+06   2.221366e+06
  -1.586932e+06   3.962081e+06
  -4.702632e+06   3.638648e+06
  -5.145905e+06   8.421110e+05
  -3.051369e+06  -2.940225e+06
  -3.742890e+05  -5.044975e+06
   1.013375e+06  -4.217513e+06
   9.584540e+05  -2.045002e+06
   7.983355e+05  -9.471076e+05
   1.565603e+06  -1.154210e+06
   2.729566e+06  -7.978938e+05
   2.888555e+06   1.086951e+06
   1.417038e+06   2.929052e+06
  -8.456935e+05   2.549555e+06
  -2.322219e+06  -6.890431e+04
  -1.882367e+06  -2.666592e+06
   3.298209e+05  -3.050145e+06
   2.788595e+06  -1.048731e+06
   3.567194e+06   1.651477e+06
   2.060437e+06   3.149971e+06
  -2.767104e+05   2.849574e+06
  -1.461239e+06   1.689065e+06
  -1.273084e+06   9.842184e+05
  -1.348798e+06   1.009158e+06
  -2.756667e+06   8.213001e+05
  -4.220145e+06  -4.898809e+05
  -3.480935e+06  -2.605673e+06
  -1.735383e+05  -4.148117e+06
   3.388057e+06  -3.887057e+06
   4.460906e+06  -1.768360e+06
   2.550770e+06   9.331963e+05
  -2.816201e+05   2.398728e+06
  -1.527595e+06   1.692387e+06
  -5.083931e+05  -2.174939e+05
   1.265542e+06  -1.220888e+06
   1.808790e+06  -3.248401e+05
   6.820097e+05   1.133980e+06
  -7.047527e+05   1.134932e+06
  -7.422707e+05  -3.580391e+05
   6.276835e+05  -1.206742e+06
   1.916034e+06   2.060373e+05
   1.634841e+06   2.821191e+06
  -3.491537e+05   3.994427e+06
  -2.780417e+06   2.385969e+06
  -3.990460e+06  -7.562434e+05
  -3.078992e+06  -3.021766e+06
  -6.622862e+05  -3.074771e+06
   1.438841e+06  -1.535529e+06
   1.722420e+06  -1.010711e+05
   5.084785e+05   5.397129e+04
  -3.754933e+05  -7.640930e+05
   3.081673e+05  -1.251091e+06
   1.720445e+06  -5.759471e+05
   1.977568e+06   6.992461e+05
   5.102554e+05   1.289973e+06
  -1.148146e+06   6.539251e+05
  -1.095845e+06  -4.549886e+05
   7.565236e+05  -8.412390e+05
   2.519458e+06  -2.368415e+04
   2.260227e+06   1.420387e+06
  -4.247488e+04   2.358148e+06
  -2.451801e+06   1.941984e+06
  -2.919931e+06   3.403860e+05
  -1.227866e+06  -1.199683e+06
   8.638236e+05  -1.364945e+06
   1.393514e+06  -1.505854e+05
   9.205253e+04   9.928550e+05
  -1.518969e+06   7.087189e+05
  -1.789233e+06  -7.129458e+05
  -5.319501e+05  -1.690186e+06
   9.793989e+05  -1.204674e+06
   1.364897e+06   9.213649e+04
   4.305817e+05   7.361359e+05
  -7.065590e+05   9.595793e+04
  -7.023171e+05  -1.053195e+06
   6.527821e+05  -1.422962e+06
   2.086689e+06  -4.714052e+05
   2.049176e+06   1.131479e+06
   3.795000e+05   2.107539e+06
  -1.420314e+06   1.684355e+06
  -1.753785e+06   2.849493e+05
  -5.961644e+05  -8.602410e+05
   6.420568e+05  -8.803017e+05
   7.652727e+05  -5.991448e+04
  -3.946032e+04   5.748924e+05
  -6.786132e+05   4.115896e+05
  -4.474564e+05  -1.383865e+05
   3.098312e+05  -2.066535e+05
   6.407879e+05   4.743249e+05
  -5.442449e+04   1.194165e+06
  -1.374599e+06   9.668235e+05
  -2.149347e+06  -4.078245e+05
  -1.491970e+06  -2.005325e+06
   2.471227e+05  -2.551757e+06
   1.719524e+06  -1.603539e+06
   1.911031e+06   3.297176e+04
   1.106339e+06   1.087631e+06
   3.806008e+05   1.026265e+06
   3.044709e+05   4.347429e+05
   4.371824e+05   2.389264e+05
   6.552377e+04   6.506196e+05
  -8.466312e+05   9.734661e+05
  -1.554833e+06   4.446168e+05
  -1.245561e+06  -8.040328e+05
   1.720036e+05  -1.703031e+06
   1.823343e+06  -1.236157e+06
   2.411687e+06   4.825603e+05
   1.275588e+06   2.159938e+06
  -8.969193e+05   2.449069e+06
  -2.529729e+06   1.183441e+06
  -2.534368e+06  -5.227046e+05
  -1.239335e+06  -1.402363e+06
   9.387355e+04  -1.204720e+06
   5.702631e+05  -7.196776e+05
   3.635424e+05  -7.443577e+05
   2.460823e+05  -1.179914e+06
   6.533132e+05  -1.207574e+06
   1.257648e+06  -2.826841e+05
   1.339704e+06   1.151535e+06
   5.389860e+05   1.986938e+06
  -6.857912e+05   1.489563e+06
  -1.358467e+06   2.170472e+04
  -8.884095e+05  -1.262624e+06
   2.830541e+05  -1.442785e+06
   1.066010e+06  -5.797648e+05
   8.319244e+05   4.865691e+05
   3.934014e+04   9.899089e+05
  -3.523086e+05   8.499858e+05
  -9.326793e+03   5.233808e+05
   4.055385e+05   3.987132e+05
   3.162485e+04   4.178375e+05
  -1.124092e+06   2.407002e+05
  -2.041968e+06  -3.135709e+05
  -1.676246e+06  -1.018766e+06
  -8.466604e+04  -1.399706e+06
   1.506432e+06  -1.136715e+06
   1.857685e+06  -3.726332e+05
   9.215502e+05   3.482209e+05
  -2.024529e+05   5.113764e+05
  -4.894431e+05   1.050167e+05
   2.044952e+04  -3.307061e+05
   5.189576e+05  -2.298581e+05
   4.765239e+05   3.640532e+05
   1.243464e+05   7.862294e+05
  -2.727929e+04   5.025854e+05
   1.636874e+05  -1.857276e+05
   3.996932e+05  -4.071566e+05
   3.103172e+05   2.317524e+05
  -2.241072e+05   1.067461e+06
  -9.410915e+05   1.077306e+06
  -1.265763e+06   9.022364e+04
  -7.266594e+05  -9.596909e+05
   4.395490e+05  -1.062661e+06
   1.221695e+06  -2.178951e+05
   7.361269e+05   6.469243e+05
  -7.083521e+05   6.971396e+05
  -1.719573e+06  -4.825611e+04
  -1.215202e+06  -8.886734e+05
   3.969808e+05  -1.143157e+06
   1.618432e+06  -6.640552e+05
   1.410593e+06   1.247661e+05
   1.996786e+05   5.742818e+05
  -6.716274e+05   3.372183e+05
  -3.604805e+05  -2.699613e+05
   6.747922e+05  -4.747925e+05
   1.220485e+06   1.937232e+05
   5.701602e+05   1.288773e+06
  -7.744337e+05   1.720938e+06
  -1.630232e+06   8.181673e+05
  -1.299398e+06  -8.638799e+05
  -1.652812e+05  -1.919079e+06
   8.082763e+05  -1.419902e+06
   1.002532e+06   1.247828e+05
   5.194510e+05   1.260390e+06
  -1.478728e+05   1.086274e+06
  -5.675093e+05   1.263897e+05
  -5.607568e+05  -4.287264e+05
  -2.517341e+05  -1.800739e+05
  -2.286007e+04   1.279979e+05
  -1.765740e+05  -2.515427e+05
  -4.810236e+05  -1.001986e+06
  -2.836667e+05  -1.169031e+06
   6.490542e+05  -4.328403e+05
   1.569431e+06   5.193453e+05
   1.434841e+06   9.117034e+05
   1.975073e+05   7.226853e+05
  -9.897330e+05   4.144079e+05
  -1.076530e+06   2.056103e+05
  -3.157824e+05  -8.934559e+03
   1.887265e+05  -2.252184e+05
  -5.011882e+04  -2.702699e+05
  -3.748813e+05  -1.662026e+05
  -1.117433e+04  -1.450619e+05
   8.078803e+05  -1.894412e+05
   1.088780e+06   6.468665e+04
   2.957457e+05   7.127562e+05
  -1.004313e+06   1.155676e+06
  -1.736855e+06   6.892371e+05
  -1.350870e+06  -5.353800e+05
  -2.162493e+05  -1.502602e+06
   8.126734e+05  -1.400071e+06
   1.112001e+06  -4.755088e+05
   6.951102e+05   3.157976e+05
   9.054176e+04   3.762162e+05
  -1.552347e+05   5.500970e+03
   5.935994e+04  -8.309410e+04
   3.544538e+05   3.687132e+05
   2.793122e+05   8.595373e+05
  -2.235105e+05   6.891454e+05
  -7.284018e+05  -2.092078e+05
  -6.941383e+05  -1.078594e+06
   5.638065e+03  -1.071611e+06
   8.479955e+05  -1.501062e+05
   1.035648e+06   8.646626e+05
   2.798074e+05   1.146865e+06
  -7.781346e+05   6.272938e+05
  -1.129300e+06  -1.305387e+05
  -4.968221e+05  -5.940652e+05
   3.079671e+05  -6.257317e+05
   3.346505e+05  -3.632245e+05
  -3.377650e+05  -5.262559e+04
  -7.048196e+05   9.862349e+03
  -1.196189e+05  -3.105622e+05
   8.873176e+05  -7.040813e+05
   1.275367e+06  -6.006832e+05
   7.224078e+05   1.382641e+05
  -1.291632e+05   8.800152e+05
  -5.316637e+05   8.586498e+05
  -3.688933e+05   1.071246e+05
   5.829857e+02  -5.354206e+05
   2.753419e+05  -4.076750e+05
   3.660889e+05   2.350378e+05
   2.403615e+05   6.162813e+05
  -8.161506e+04   3.821150e+05
  -4.048978e+05  -8.845598e+04
  -4.714299e+05  -2.570482e+05
  -2.548648e+05  -6.373343e+04
   1.907058e+02   1.008810e+05
   9.275461e+04  -6.710093e+04
   9.853245e+04  -4.108590e+05
   2.015178e+05  -4.899278e+05
   3.771656e+05  -8.896093e+04
   3.717523e+05   4.892307e+05
   2.075565e+04   6.881395e+05
  -4.717427e+05   2.819399e+05
  -6.405687e+05  -3.563211e+05
  -2.126193e+05  -6.363603e+05
   5.222454e+05  -3.612040e+05
   8.821916e+05   1.332397e+05
   4.720683e+05   4.111455e+05
  -3.167029e+05   3.598325e+05
  -6.551661e+05   1.582366e+05
  -2.080349e+05   4.749234e+03
   4.392397e+05   4.070990e+01
   4.516821e+05   1.593212e+05
  -2.515170e+05   3.439586e+05
  -8.929172e+05   2.540931e+05
