
 $NMID
 id='ANONYMOUS ', fmtdat='(2E16.6)'
 volume=1.0
 tramp=1.0
 $END
   3.935338e+07  -7.313579e+05
   2.512016e+07   2.183043e+07
  -2.825272e+06   2.615790e+07
  -1.831267e+07   1.290760e+07
  -1.267123e+07  -2.321708e+06
   1.024267e+06  -6.799139e+06
   7.330290e+06  -8.859505e+05
   3.577700e+06   6.635469e+06
  -3.328099e+06   8.223496e+06
  -6.983082e+06   2.795408e+06
  -5.530986e+06  -4.539654e+06
  -7.638760e+05  -6.847184e+06
   3.138837e+06  -1.899059e+06
   2.351750e+06   4.907674e+06
  -2.445937e+06   5.929514e+06
  -5.951296e+06  -2.105093e+05
  -3.916182e+06  -7.323480e+06
   2.177493e+06  -8.900901e+06
   7.172957e+06  -4.472665e+06
   7.633458e+06   1.606061e+06
   4.227697e+06   5.257758e+06
   2.173171e+05   5.413739e+06
  -1.267625e+06   3.590094e+06
   2.708232e+05   2.327082e+06
   1.821099e+06   3.033776e+06
  -2.325331e+05   4.322976e+06
  -5.288248e+06   3.396818e+06
  -8.203430e+06  -2.256105e+05
  -5.322880e+06  -3.599939e+06
   6.417265e+05  -3.828334e+06
   3.766316e+06  -1.376974e+06
   1.902108e+06   1.039204e+06
  -1.722619e+06   1.572280e+06
  -3.245496e+06   1.442197e+05
  -2.037671e+06  -2.288932e+06
   1.911717e+05  -3.869601e+06
   1.760271e+06  -2.653991e+06
   1.791390e+06   7.589830e+05
   4.722906e+05   2.623355e+06
  -5.883448e+05   4.579081e+05
   2.561304e+05  -2.836747e+06
   2.163511e+06  -2.246546e+06
   2.154780e+06   2.131321e+06
  -9.310743e+05   4.509532e+06
  -4.153153e+06   1.126343e+06
  -3.606499e+06  -4.466558e+06
   8.464163e+05  -5.926948e+06
   5.279595e+06  -1.890057e+06
   5.815550e+06   3.206405e+06
   2.134230e+06   4.869771e+06
  -2.659586e+06   2.702616e+06
  -4.745321e+06  -6.833793e+05
  -2.628884e+06  -2.603693e+06
   1.468405e+06  -1.952223e+06
   3.502059e+06   3.155257e+05
   1.766024e+06   1.839002e+06
  -1.177475e+06   1.106147e+06
  -1.660871e+06  -7.117160e+05
   5.028463e+05  -1.139673e+06
   2.004349e+06   4.083177e+05
   4.934923e+05   1.985861e+06
  -2.545605e+06   1.716300e+06
  -3.857805e+06  -2.567709e+05
  -2.060477e+06  -2.607519e+06
   1.494474e+06  -4.154863e+06
   4.450045e+06  -3.870697e+06
   5.146618e+06  -1.159276e+06
   3.395722e+06   2.779075e+06
   6.123117e+05   5.084973e+06
  -1.153381e+06   4.147324e+06
  -1.121717e+06   1.670936e+06
  -5.309617e+05   5.203992e+05
  -9.427756e+05   1.054448e+06
  -2.191275e+06   1.110283e+06
  -2.706760e+06  -5.503893e+05
  -1.574106e+06  -2.409623e+06
   4.744409e+05  -2.280381e+06
   1.937610e+06  -6.150782e+04
   1.746948e+06   2.285659e+06
  -1.539722e+05   2.833675e+06
  -2.594993e+06   1.223223e+06
  -3.664219e+06  -1.346453e+06
  -2.354551e+06  -3.118586e+06
   1.383296e+05  -3.118567e+06
   1.604888e+06  -1.936300e+06
   1.485333e+06  -9.926574e+05
   1.404881e+06  -8.648016e+05
   2.635604e+06  -7.060281e+05
   4.013620e+06   4.801952e+05
   3.313474e+06   2.444873e+06
   2.146120e+05   3.889200e+06
  -3.064932e+06   3.711578e+06
  -4.073394e+06   1.846343e+06
  -2.447293e+06  -6.723365e+05
   4.723479e+04  -2.207628e+06
   1.272334e+06  -1.693662e+06
   4.996305e+05   1.381457e+05
  -1.113932e+06   1.197048e+06
  -1.728093e+06   3.576437e+05
  -7.366532e+05  -1.079204e+06
   5.848676e+05  -1.072151e+06
   6.024758e+05   3.353441e+05
  -7.131386e+05   9.798508e+05
  -1.785247e+06  -5.135121e+05
  -1.260675e+06  -2.841743e+06
   6.679987e+05  -3.571536e+06
   2.692937e+06  -1.873912e+06
   3.542233e+06   8.720534e+05
   2.681193e+06   2.708821e+06
   6.027360e+05   2.730619e+06
  -1.265339e+06   1.443647e+06
  -1.572057e+06   1.631364e+05
  -4.742406e+05  -4.037280e+04
   3.595517e+05   7.096951e+05
  -3.057296e+05   1.212114e+06
  -1.672544e+06   5.692432e+05
  -1.890979e+06  -6.905040e+05
  -4.586154e+05  -1.248814e+06
   1.079332e+06  -6.059326e+05
   9.706389e+05   4.120783e+05
  -7.300408e+05   6.974167e+05
  -2.259557e+06  -5.327984e+04
  -1.978712e+06  -1.281936e+06
   7.261411e+04  -2.092572e+06
   2.231685e+06  -1.770154e+06
   2.695943e+06  -3.423625e+05
   1.170807e+06   1.133248e+06
  -8.114773e+05   1.344123e+06
  -1.365642e+06   1.757363e+05
  -1.379453e+05  -9.631772e+05
   1.419504e+06  -6.999684e+05
   1.672547e+06   6.678148e+05
   4.612254e+05   1.571674e+06
  -9.424490e+05   1.073083e+06
  -1.251174e+06  -1.403233e+05
  -3.545109e+05  -7.025408e+05
   6.946805e+05  -8.729401e+04
   6.894342e+05   9.818874e+05
  -5.675459e+05   1.351340e+06
  -1.932592e+06   5.000393e+05
  -1.943634e+06  -1.007705e+06
  -3.908768e+05  -1.969253e+06
   1.319814e+06  -1.594530e+06
   1.639136e+06  -2.693704e+05
   5.428135e+05   8.047892e+05
  -5.976793e+05   8.132284e+05
  -6.759489e+05   7.350416e+04
   5.509258e+04  -4.701307e+05
   5.700421e+05  -3.297573e+05
   3.142633e+05   9.883905e+04
  -3.351582e+05   1.036669e+05
  -5.690825e+05  -5.038497e+05
   8.481232e+04  -1.123371e+06
   1.283266e+06  -9.073929e+05
   2.008542e+06   3.540630e+05
   1.427045e+06   1.846221e+06
  -1.840319e+05   2.363959e+06
  -1.560710e+06   1.472146e+06
  -1.726098e+06  -3.385048e+04
  -9.745618e+05  -9.433876e+05
  -3.527158e+05  -8.346137e+05
  -3.518286e+05  -3.322859e+05
  -4.795814e+05  -2.436880e+05
  -8.005185e+04  -6.503307e+05
   7.929936e+05  -9.051870e+05
   1.421937e+06  -4.016397e+05
   1.119115e+06   7.109449e+05
  -1.628545e+05   1.524492e+06
  -1.664837e+06   1.136608e+06
  -2.224037e+06  -4.186366e+05
  -1.186248e+06  -1.995686e+06
   8.466297e+05  -2.292841e+06
   2.370221e+06  -1.101433e+06
   2.333512e+06   5.008909e+05
   1.092543e+06   1.281097e+06
  -1.083725e+05   1.048529e+06
  -4.649165e+05   6.156468e+05
  -2.344195e+05   7.100205e+05
  -1.655988e+05   1.158737e+06
  -6.031706e+05   1.175264e+06
  -1.193053e+06   2.976939e+05
  -1.279320e+06  -1.040461e+06
  -5.442983e+05  -1.832696e+06
   6.017521e+05  -1.396336e+06
   1.254994e+06  -3.292557e+04
   8.303352e+05   1.183439e+06
  -2.815403e+05   1.347888e+06
  -1.028648e+06   5.029761e+05
  -7.840966e+05  -5.177868e+05
   3.426179e+03  -9.613642e+05
   3.819678e+05  -7.830709e+05
   2.671998e+04  -4.566462e+05
  -3.977855e+05  -3.479446e+05
  -4.591532e+04  -3.814154e+05
   1.064022e+06  -2.334411e+05
   1.936323e+06   2.707547e+05
   1.575017e+06   9.406733e+05
   5.910726e+04   1.329921e+06
  -1.430808e+06   1.095641e+06
  -1.736150e+06   3.468437e+05
  -8.436173e+05  -3.643359e+05
   2.031403e+05  -5.048636e+05
   4.673111e+05  -8.190135e+04
   3.466403e+03   3.431443e+05
  -4.592538e+05   2.345593e+05
  -4.565871e+05  -3.280750e+05
  -1.743535e+05  -7.171380e+05
  -2.504818e+04  -4.660059e+05
  -1.422612e+05   1.458991e+05
  -3.285346e+05   3.499883e+05
  -2.839307e+05  -2.138248e+05
   1.657280e+05  -9.814211e+05
   8.557230e+05  -1.026430e+06
   1.225623e+06  -1.348608e+05
   7.442836e+05   8.774266e+05
  -3.890443e+05   1.035874e+06
  -1.161130e+06   2.669431e+05
  -7.034730e+05  -5.722891e+05
   6.550124e+05  -6.511210e+05
   1.575822e+06   3.605065e+04
   1.085216e+06   8.105311e+05
  -3.879838e+05   1.029388e+06
  -1.473680e+06   5.848791e+05
  -1.268971e+06  -1.198568e+05
  -1.736490e+05  -5.171611e+05
   6.205613e+05  -3.039961e+05
   3.529800e+05   2.577959e+05
  -5.965815e+05   4.759970e+05
  -1.141275e+06  -1.220590e+05
  -5.959765e+05  -1.167698e+06
   6.351848e+05  -1.630317e+06
   1.471744e+06  -8.237935e+05
   1.224816e+06   7.552865e+05
   2.007554e+05   1.762307e+06
  -7.156097e+05   1.307111e+06
  -9.201552e+05  -1.214104e+05
  -4.774660e+05  -1.156841e+06
   1.497735e+05  -9.845460e+05
   5.322116e+05  -1.124057e+05
   5.006640e+05   3.769772e+05
   2.071294e+05   1.501486e+05
   2.945901e+04  -1.089343e+05
   2.103345e+05   2.513598e+05
   4.814601e+05   9.255609e+05
   2.509869e+05   1.065889e+06
  -6.317653e+05   4.050353e+05
  -1.455300e+06  -4.450840e+05
  -1.311060e+06  -8.103222e+05
  -1.933931e+05  -6.707160e+05
   8.759803e+05  -4.093918e+05
   9.786450e+05  -2.024066e+05
   3.164776e+05   2.051534e+04
  -1.578715e+05   2.161269e+05
   1.777983e+04   2.293594e+05
   3.136116e+05   1.229695e+05
   2.863515e+04   1.321974e+05
  -7.028213e+05   2.107969e+05
  -1.014349e+06  -2.181880e+04
  -3.466848e+05  -6.608409e+05
   8.655429e+05  -1.118944e+06
   1.617014e+06  -7.085637e+05
   1.311697e+06   4.415854e+05
   2.536706e+05   1.379353e+06
  -7.271778e+05   1.329020e+06
  -1.018993e+06   4.944102e+05
  -6.469595e+05  -2.531786e+05
  -1.097929e+05  -3.472077e+05
   1.118536e+05  -3.251629e+04
  -6.401894e+04   5.253565e+04
  -3.196703e+05  -3.429919e+05
  -2.655983e+05  -7.882704e+05
   1.816202e+05  -6.522431e+05
   6.735341e+05   1.490286e+05
   6.944204e+05   9.563406e+05
   6.406438e+04   9.978792e+05
  -7.602976e+05   1.977716e+05
  -9.953774e+05  -7.402312e+05
  -3.139884e+05  -1.057182e+06
   6.985114e+05  -6.290181e+05
   1.067556e+06   8.024383e+04
   4.960300e+05   5.618307e+05
  -2.716845e+05   6.204955e+05
  -3.297423e+05   3.523007e+05
   2.822848e+05   2.593716e+04
   6.440673e+05  -3.393880e+04
   1.303131e+05   2.910075e+05
  -8.024845e+05   6.716179e+05
  -1.191846e+06   5.655024e+05
  -7.044066e+05  -1.350199e+05
   9.305112e+04  -8.316189e+05
   4.977782e+05  -8.222312e+05
   3.718766e+05  -1.319066e+05
   3.195138e+04   4.829981e+05
  -2.380515e+05   4.030922e+05
  -3.446345e+05  -1.784162e+05
  -2.445189e+05  -5.630831e+05
   5.777215e+04  -3.831299e+05
   3.791635e+05   5.773406e+04
   4.535215e+05   2.455778e+05
   2.376201e+05   7.019921e+04
  -1.714149e+04  -1.168232e+05
  -8.313547e+04   1.719810e+04
  -3.837736e+04   3.656181e+05
  -1.158145e+05   4.933942e+05
  -3.297587e+05   1.472844e+05
  -3.983665e+05  -4.085798e+05
  -9.132424e+04  -6.335758e+05
   4.142402e+05  -2.897647e+05
   6.239064e+05   2.924318e+05
   2.308576e+05   5.717879e+05
  -4.823171e+05   3.538356e+05
  -8.389898e+05  -8.497851e+04
  -4.580775e+05  -3.666484e+05
   2.834867e+05  -3.647686e+05
   6.110151e+05  -1.927313e+05
   2.159532e+05  -1.461176e+04
  -3.749371e+05   3.755546e+04
  -4.111205e+05  -1.008474e+05
   1.957345e+05  -3.068334e+05
   7.759008e+05  -2.638882e+05
