
 $NMID
 id='ANONYMOUS ', fmtdat='(2E16.6)'
 volume=1.0
 tramp=1.0
 $END
  -1.514699e+07  -6.830207e+04
  -1.012459e+07  -7.326969e+06
   1.436763e+05  -9.722701e+06
   6.728363e+06  -6.271966e+06
   5.575981e+06  -4.404164e+05
   2.814617e+05   2.810245e+06
  -3.141594e+06   1.308972e+06
  -2.289248e+06  -2.510188e+06
   8.083197e+05  -4.183446e+06
   2.906438e+06  -1.822974e+06
   2.459932e+06   2.004244e+06
   2.785279e+05   3.204751e+06
  -1.486773e+06   6.745030e+05
  -1.150596e+06  -2.629287e+06
   9.373095e+05  -3.085587e+06
   2.568144e+06  -2.476264e+05
   1.854444e+06   3.025780e+06
  -7.549624e+05   3.786862e+06
  -2.944164e+06   1.767169e+06
  -2.957559e+06  -9.106691e+05
  -1.257048e+06  -2.144457e+06
   2.086055e+05  -1.700727e+06
   9.585285e+04  -9.576772e+05
  -1.019761e+06  -1.178361e+06
  -1.281508e+06  -2.153539e+06
   4.346588e+05  -2.530656e+06
   3.044582e+06  -1.402915e+06
   4.064618e+06   6.064297e+05
   2.242576e+06   1.943892e+06
  -8.215338e+05   1.661330e+06
  -2.208130e+06   2.132487e+05
  -8.288556e+05  -1.085049e+06
   1.500777e+06  -1.144341e+06
   2.284007e+06   1.381715e+05
   1.046669e+06   1.743213e+06
  -5.909894e+05   2.202322e+06
  -1.064418e+06   9.615185e+05
  -3.950447e+05  -7.695073e+05
   3.199275e+05  -1.080618e+06
   2.653073e+05   3.880579e+05
  -4.665836e+05   1.783593e+06
  -1.158536e+06   1.210678e+06
  -1.067626e+06  -8.072608e+05
  -3.198954e+04  -1.856425e+06
   1.180100e+06  -6.091071e+05
   1.315454e+06   1.552399e+06
  -1.373735e+05   2.233225e+06
  -2.119306e+06   7.412413e+05
  -2.762644e+06  -1.407605e+06
  -1.245065e+06  -2.322011e+06
   1.221986e+06  -1.493728e+06
   2.480844e+06   1.179828e+05
   1.546023e+06   1.170326e+06
  -4.666673e+05   1.000116e+06
  -1.561502e+06   2.039471e+04
  -9.061857e+05  -7.144751e+05
   4.581267e+05  -5.063740e+05
   9.090387e+05   3.039836e+05
   5.118678e+04   7.470669e+05
  -9.378268e+05   3.154821e+05
  -7.336653e+05  -5.154431e+05
   5.824832e+05  -8.485626e+05
   1.574400e+06  -2.460063e+05
   1.009159e+06   9.419088e+05
  -8.167061e+05   1.856394e+06
  -2.390879e+06   1.686383e+06
  -2.512707e+06   2.909792e+05
  -1.364199e+06  -1.500911e+06
  -9.504934e+04  -2.453104e+06
   4.455024e+05  -2.081179e+06
   4.086956e+05  -1.125508e+06
   4.819659e+05  -6.123356e+05
   9.802260e+05  -6.050209e+05
   1.520104e+06  -2.908778e+05
   1.481969e+06   7.092144e+05
   6.547208e+05   1.612708e+06
  -5.296764e+05   1.353935e+06
  -1.274109e+06  -5.980356e+04
  -9.848119e+05  -1.427209e+06
   2.112272e+05  -1.571853e+06
   1.432334e+06  -4.593290e+05
   1.712839e+06   9.151552e+05
   8.979240e+05   1.556092e+06
  -1.953765e+05   1.295819e+06
  -6.704428e+05   7.257271e+05
  -5.456077e+05   4.642814e+05
  -6.308909e+05   5.379691e+05
  -1.376882e+06   4.441124e+05
  -2.122186e+06  -2.352968e+05
  -1.756081e+06  -1.319510e+06
  -7.992413e+04  -2.109890e+06
   1.754936e+06  -1.961648e+06
   2.311185e+06  -8.452968e+05
   1.290234e+06   5.413047e+05
  -2.110402e+05   1.243693e+06
  -8.360430e+05   8.372904e+05
  -2.592414e+05  -1.296030e+05
   6.646155e+05  -6.119292e+05
   9.123336e+05  -1.572795e+05
   3.207831e+05   5.727141e+05
  -3.807973e+05   5.880986e+05
  -4.168792e+05  -1.699095e+05
   2.593160e+05  -6.687091e+05
   9.653656e+05  -2.299794e+04
   9.310952e+05   1.349484e+06
  -3.812585e+04   2.087706e+06
  -1.366359e+06   1.349476e+06
  -2.099683e+06  -3.143458e+05
  -1.652208e+06  -1.572696e+06
  -3.547945e+05  -1.617674e+06
   7.610283e+05  -7.844895e+05
   8.968675e+05  -3.130778e+04
   2.616939e+05   3.114630e+04
  -1.926406e+05  -3.884307e+05
   1.441861e+05  -6.229313e+05
   8.514380e+05  -2.896724e+05
   9.981472e+05   3.338338e+05
   2.774802e+05   6.402634e+05
  -5.753137e+05   3.450778e+05
  -5.810886e+05  -2.235729e+05
   3.654204e+05  -4.579469e+05
   1.309780e+06  -5.007528e+04
   1.203708e+06   7.270641e+05
   1.664471e+03   1.239467e+06
  -1.263668e+06   1.014860e+06
  -1.502262e+06   1.743045e+05
  -6.240024e+05  -6.060285e+05
   4.360045e+05  -6.769620e+05
   6.910078e+05  -6.911531e+04
   3.421710e+04   4.950061e+05
  -7.716768e+05   3.551523e+05
  -9.161461e+05  -3.553309e+05
  -2.932623e+05  -8.631966e+05
   4.824569e+05  -6.401421e+05
   7.060475e+05   1.738881e+04
   2.454121e+05   3.655537e+05
  -3.403537e+05   5.431481e+04
  -3.464410e+05  -5.298089e+05
   3.420173e+05  -7.147165e+05
   1.065796e+06  -2.230833e+05
   1.036466e+06   5.890855e+05
   1.865143e+05   1.074091e+06
  -7.230617e+05   8.568965e+05
  -8.970350e+05   1.505165e+05
  -3.171511e+05  -4.373018e+05
   3.220758e+05  -4.583503e+05
   4.065117e+05  -3.286946e+04
  -4.082399e+03   3.135911e+05
  -3.607287e+05   2.342948e+05
  -2.654604e+05  -7.281869e+04
   1.348855e+05  -1.327566e+05
   3.316497e+05   2.177595e+05
  -1.557658e+04   6.014550e+05
  -6.978959e+05   4.908594e+05
  -1.094312e+06  -2.135531e+05
  -7.518317e+05  -1.028977e+06
   1.372666e+05  -1.310786e+06
   8.895606e+05  -8.342530e+05
   9.978354e+05   9.336425e+03
   5.928380e+05   5.799685e+05
   2.024425e+05   5.724731e+05
   1.321232e+05   2.537503e+05
   1.921613e+05   1.168658e+05
   2.148465e+04   3.151023e+05
  -4.308935e+05   4.953505e+05
  -8.003278e+05   2.309192e+05
  -6.499429e+05  -4.226890e+05
   8.345774e+04  -8.903792e+05
   9.389178e+05  -6.380429e+05
   1.239328e+06   2.524305e+05
   6.573328e+05   1.103302e+06
  -4.460117e+05   1.245571e+06
  -1.281414e+06   6.106435e+05
  -1.305370e+06  -2.525653e+05
  -6.626965e+05  -7.192361e+05
   3.255000e+04  -6.428637e+05
   3.124723e+05  -3.931144e+05
   2.253386e+05  -3.795197e+05
   1.505857e+05  -5.833266e+05
   3.350782e+05  -5.991426e+05
   6.343512e+05  -1.332540e+05
   6.760950e+05   5.979851e+05
   2.652148e+05   1.021390e+06
  -3.601688e+05   7.607728e+05
  -6.974082e+05   1.155145e+04
  -4.553037e+05  -6.380031e+05
   1.332218e+05  -7.341795e+05
   5.254292e+05  -3.117202e+05
   4.177754e+05   2.204482e+05
   3.646699e+04   4.863641e+05
  -1.545606e+05   4.345019e+05
   6.154025e+03   2.790292e+05
   2.001031e+05   2.143007e+05
   9.345364e+03   2.172788e+05
  -5.664529e+05   1.191806e+05
  -1.028045e+06  -1.669053e+05
  -8.516366e+05  -5.189489e+05
  -5.424607e+04  -7.004032e+05
   7.552103e+05  -5.668100e+05
   9.443056e+05  -1.957423e+05
   4.749896e+05   1.571280e+05
  -9.807426e+04   2.485008e+05
  -2.436558e+05   6.001282e+04
   2.280585e+04  -1.565187e+05
   2.774858e+05  -1.113383e+05
   2.397763e+05   1.913018e+05
   4.129227e+04   4.119224e+05
  -3.343741e+04   2.611131e+05
   8.603112e+04  -1.059654e+05
   2.178456e+05  -2.221145e+05
   1.579584e+05   1.180712e+05
  -1.307099e+05   5.509871e+05
  -4.864826e+05   5.408986e+05
  -6.269598e+05   2.382712e+04
  -3.447874e+05  -4.984634e+05
   2.331438e+05  -5.243235e+05
   6.171556e+05  -8.517535e+04
   3.715171e+05   3.425609e+05
  -3.624010e+05   3.568799e+05
  -8.890651e+05  -2.321043e+04
  -6.419425e+05  -4.550773e+05
   1.907935e+05  -5.973141e+05
   8.358130e+05  -3.582602e+05
   7.376923e+05   5.576546e+04
   1.096369e+05   2.988326e+05
  -3.425261e+05   1.787586e+05
  -1.769883e+05  -1.342711e+05
   3.576499e+05  -2.315921e+05
   6.243983e+05   1.198501e+05
   2.692068e+05   6.735678e+05
  -4.286426e+05   8.743709e+05
  -8.538674e+05   3.988430e+05
  -6.626339e+05  -4.596347e+05
  -7.087624e+04  -9.927520e+05
   4.235523e+05  -7.351832e+05
   5.166310e+05   5.813833e+04
   2.716880e+05   6.476496e+05
  -6.505469e+04   5.640891e+05
  -2.861734e+05   6.772199e+04
  -2.973548e+05  -2.244441e+05
  -1.417498e+05  -9.595325e+04
  -7.127641e+03   6.948219e+04
  -6.999576e+04  -1.235974e+05
  -2.346900e+05  -5.151498e+05
  -1.555725e+05  -6.042367e+05
   3.183042e+05  -2.198752e+05
   8.074779e+05   2.766371e+05
   7.475664e+05   4.759580e+05
   9.825427e+04   3.696789e+05
  -5.251252e+05   2.070659e+05
  -5.593292e+05   1.045644e+05
  -1.505414e+05  -4.636577e+02
   1.037827e+05  -1.144602e+05
  -3.976510e+04  -1.454399e+05
  -2.083263e+05  -9.434389e+04
   1.723729e+03  -7.571834e+04
   4.346286e+05  -8.737912e+04
   5.575663e+05   4.625118e+04
   1.225977e+05   3.690000e+05
  -5.417637e+05   5.791326e+05
  -8.890709e+05   3.277361e+05
  -6.716341e+05  -2.979883e+05
  -9.312629e+04  -7.780392e+05
   4.253237e+05  -7.069064e+05
   5.761080e+05  -2.241177e+05
   3.577602e+05   1.762919e+05
   3.644250e+04   1.941481e+05
  -9.480703e+04  -6.199187e+03
   2.445110e+04  -5.228714e+04
   1.859117e+05   1.861853e+05
   1.435056e+05   4.425091e+05
  -1.234812e+05   3.494219e+05
  -3.770653e+05  -1.232432e+05
  -3.403245e+05  -5.716950e+05
   2.913556e+04  -5.517947e+05
   4.489541e+05  -5.659693e+04
   5.222819e+05   4.682166e+05
   1.236473e+05   5.928050e+05
  -4.097400e+05   3.045737e+05
  -5.722000e+05  -8.254649e+04
  -2.396487e+05  -3.000892e+05
   1.644703e+05  -3.043279e+05
   1.623779e+05  -1.786165e+05
  -1.882309e+05  -3.372757e+04
  -3.663337e+05  -3.096270e+03
  -5.339026e+04  -1.587961e+05
   4.619673e+05  -3.563985e+05
   6.474110e+05  -3.068067e+05
   3.548582e+05   6.839038e+04
  -7.602328e+04   4.461399e+05
  -2.695179e+05   4.293748e+05
  -1.782072e+05   3.951155e+04
   1.172320e+04  -2.822425e+05
   1.491024e+05  -1.998225e+05
   1.887599e+05   1.366187e+05
   1.160739e+05   3.198172e+05
  -5.052304e+04   1.847765e+05
  -2.077241e+05  -5.463931e+04
  -2.345025e+05  -1.282479e+05
  -1.292344e+05  -2.733194e+04
  -8.578685e+03   4.284129e+04
   4.506637e+04  -5.404678e+04
   7.058598e+04  -2.210851e+05
   1.349697e+05  -2.400623e+05
   2.062964e+05  -2.053605e+04
   1.722320e+05   2.726197e+05
  -1.787967e+04   3.594714e+05
  -2.526319e+05   1.351753e+05
  -3.187194e+05  -1.990254e+05
  -9.745991e+04  -3.352095e+05
   2.683614e+05  -1.782127e+05
   4.455724e+05   8.366288e+04
   2.351526e+05   2.166816e+05
  -1.676096e+05   1.726324e+05
  -3.368609e+05   6.315840e+04
  -9.763461e+04  -3.159113e+03
   2.413254e+05   1.196841e+04
   2.386470e+05   9.941420e+04
  -1.425290e+05   1.848745e+05
  -4.804624e+05   1.247154e+05
