
 $NMID
 id='ANONYMOUS ', fmtdat='(2E16.6)'
 volume=1.0
 tramp=1.0
 $END
  -5.588781e+07   3.015835e+06
  -3.649032e+07  -3.269853e+07
   4.696192e+06  -3.879853e+07
   2.726370e+07  -1.683340e+07
   1.785353e+07   5.915543e+06
  -2.574092e+06   9.903269e+06
  -1.048320e+07  -4.848109e+05
  -3.671911e+06  -1.004399e+07
   6.031585e+06  -1.026709e+07
   9.981582e+06  -2.692269e+06
   7.295625e+06   6.026505e+06
   1.005430e+06   8.696524e+06
  -3.846985e+06   2.795370e+06
  -2.573233e+06  -5.646680e+06
   3.841829e+06  -7.013773e+06
   8.210956e+06   9.252253e+05
   5.022535e+06   1.020129e+07
  -3.273283e+06   1.218220e+07
  -9.843276e+06   6.406527e+06
  -1.075336e+07  -1.530958e+06
  -6.842661e+06  -6.913444e+06
  -1.315106e+06  -8.274070e+06
   2.148511e+06  -6.284128e+06
   1.508487e+06  -3.455036e+06
  -8.622856e+05  -2.812894e+06
   1.539354e+05  -4.265562e+06
   5.560127e+06  -4.118959e+06
   9.609066e+06  -3.250634e+05
   6.986981e+06   3.999345e+06
   2.376233e+05   4.724239e+06
  -3.615865e+06   2.200093e+06
  -2.078700e+06  -1.456953e+05
   1.176351e+06  -6.737878e+05
   2.520694e+06   5.309428e+04
   1.892265e+06   1.773478e+06
   3.411632e+05   3.854154e+06
  -1.670782e+06   3.720624e+06
  -2.845085e+06   1.006741e+05
  -1.692922e+06  -3.243302e+06
   3.458913e+05  -1.724260e+06
  -6.105254e+04   2.474789e+06
  -2.650128e+06   2.383160e+06
  -2.721923e+06  -3.163016e+06
   1.992374e+06  -6.506527e+06
   6.802192e+06  -1.708658e+06
   5.543924e+06   6.501742e+06
  -1.339545e+06   8.685951e+06
  -7.305489e+06   2.771651e+06
  -7.266800e+06  -4.422063e+06
  -2.077885e+06  -6.326513e+06
   3.640938e+06  -2.953622e+06
   5.655519e+06   1.545612e+06
   2.735416e+06   3.697321e+06
  -2.359470e+06   2.465579e+06
  -4.707527e+06  -7.224438e+05
  -2.186688e+06  -2.707543e+06
   1.664527e+06  -1.477849e+06
   1.874195e+06   1.081369e+06
  -1.337518e+06   1.238331e+06
  -2.894901e+06  -1.512325e+06
   6.320035e+04  -3.662412e+06
   4.454309e+06  -2.454063e+06
   5.597928e+06   9.625764e+05
   2.659692e+06   3.933635e+06
  -1.745329e+06   5.324708e+06
  -5.106491e+06   4.810556e+06
  -6.202137e+06   1.728817e+06
  -4.526810e+06  -3.089261e+06
  -9.601965e+05  -6.212178e+06
   1.854413e+06  -5.058189e+06
   1.955993e+06  -1.540430e+06
   5.380452e+05   2.225787e+05
   2.910731e+05  -6.959853e+05
   1.691788e+06  -1.415960e+06
   2.672265e+06   6.052502e+04
   1.749599e+06   2.103255e+06
  -2.598403e+05   2.114954e+06
  -1.686447e+06  -4.810741e+04
  -1.592347e+06  -2.367415e+06
   1.644690e+05  -3.025409e+06
   2.825415e+06  -1.555131e+06
   4.423593e+06   1.259785e+06
   3.232792e+06   3.704026e+06
   1.017115e+05   4.187242e+06
  -2.130481e+06   2.819457e+06
  -2.213230e+06   1.321810e+06
  -1.958552e+06   8.170394e+05
  -3.168550e+06   4.962587e+05
  -4.602984e+06  -8.835235e+05
  -3.619292e+06  -3.011765e+06
   2.063790e+03  -4.370535e+06
   3.540788e+06  -3.962733e+06
   4.436099e+06  -1.982435e+06
   2.654220e+06   5.789325e+05
   9.954993e+04   2.261066e+06
  -1.225560e+06   1.873497e+06
  -5.391109e+05  -6.488731e+04
   1.194985e+06  -1.289021e+06
   1.989392e+06  -3.704005e+05
   9.147436e+05   1.232831e+06
  -6.071190e+05   1.115435e+06
  -4.826820e+05  -4.917506e+05
   1.206018e+06  -8.656339e+05
   2.169496e+06   1.291140e+06
   8.519493e+05   3.839592e+06
  -1.757370e+06   3.913513e+06
  -3.598392e+06   1.326481e+06
  -3.701571e+06  -1.700540e+06
  -2.361814e+06  -3.215132e+06
  -3.110783e+05  -2.886490e+06
   1.405957e+06  -1.472331e+06
   1.666975e+06  -1.404312e+05
   5.211662e+05   6.818349e+04
  -3.507232e+05  -8.129595e+05
   4.502805e+05  -1.415219e+06
   2.012111e+06  -5.882638e+05
   2.155164e+06   9.703921e+05
   4.027538e+05   1.520032e+06
  -1.273638e+06   5.736660e+05
  -9.438954e+05  -5.633327e+05
   9.884927e+05  -5.775551e+05
   2.423212e+06   4.600328e+05
   1.846178e+06   1.631142e+06
  -4.013505e+05   2.174651e+06
  -2.589716e+06   1.672501e+06
  -2.982151e+06   1.688338e+05
  -1.264114e+06  -1.374918e+06
   9.842522e+05  -1.555836e+06
   1.628259e+06  -1.841815e+05
   1.832587e+05   1.112705e+06
  -1.625446e+06   7.231166e+05
  -1.817669e+06  -8.967373e+05
  -3.135337e+05  -1.811782e+06
   1.230653e+06  -1.047586e+06
   1.382276e+06   3.753530e+05
   2.611713e+05   8.715220e+05
  -8.460695e+05   4.905012e+04
  -7.364597e+05  -1.139841e+06
   6.744837e+05  -1.472985e+06
   2.144929e+06  -4.772925e+05
   2.107462e+06   1.199026e+06
   3.276059e+05   2.218688e+06
  -1.592332e+06   1.704092e+06
  -1.859192e+06   1.677382e+05
  -5.147154e+05  -9.563138e+05
   7.411808e+05  -8.382299e+05
   6.799315e+05  -2.625775e+04
  -1.861238e+05   4.158690e+05
  -5.982555e+05   1.755229e+05
  -1.410630e+05  -1.619053e+05
   5.314001e+05   3.610104e+04
   5.882856e+05   7.450589e+05
  -2.493832e+05   1.294320e+06
  -1.519714e+06   9.123514e+05
  -2.207339e+06  -5.299974e+05
  -1.477496e+06  -2.130286e+06
   3.469313e+05  -2.571196e+06
   1.818791e+06  -1.439648e+06
   1.834764e+06   2.339696e+05
   8.622455e+05   1.057791e+06
   2.359128e+05   7.548816e+05
   4.338674e+05   2.312600e+05
   6.556324e+05   3.053876e+05
   9.457696e+04   8.023692e+05
  -9.798631e+05   9.443243e+05
  -1.594544e+06   2.805500e+05
  -1.093225e+06  -8.623792e+05
   3.684953e+05  -1.587945e+06
   1.919911e+06  -1.071508e+06
   2.389634e+06   6.328225e+05
   1.129046e+06   2.311504e+06
  -1.166729e+06   2.512108e+06
  -2.772539e+06   1.023193e+06
  -2.523358e+06  -8.128781e+05
  -9.798818e+05  -1.527200e+06
   3.023538e+05  -1.047335e+06
   4.971188e+05  -5.057891e+05
   1.331047e+05  -7.306227e+05
   1.375656e+05  -1.340617e+06
   7.358434e+05  -1.343006e+06
   1.374023e+06  -2.993462e+05
   1.368026e+06   1.200803e+06
   5.033828e+05   2.036292e+06
  -7.277853e+05   1.495140e+06
  -1.377276e+06  -6.238813e+04
  -8.293823e+05  -1.408516e+06
   4.654423e+05  -1.499157e+06
   1.282171e+06  -4.273340e+05
   8.885990e+05   7.571880e+05
  -1.352435e+05   1.169839e+06
  -5.985271e+05   8.605687e+05
  -1.230075e+05   4.651158e+05
   4.341091e+05   3.710681e+05
   4.097986e+04   4.073935e+05
  -1.235578e+06   1.924588e+05
  -2.187272e+06  -4.190424e+05
  -1.692931e+06  -1.171422e+06
   7.359895e+04  -1.549996e+06
   1.722768e+06  -1.176577e+06
   1.980693e+06  -2.334126e+05
   9.092686e+05   5.635115e+05
  -2.796449e+05   6.060393e+05
  -5.609377e+05   2.882706e+04
  -3.695381e+04  -4.322684e+05
   4.781973e+05  -2.428246e+05
   4.970402e+05   3.794366e+05
   2.244180e+05   7.523771e+05
   7.390392e+04   4.858827e+05
   1.730285e+05  -9.645157e+04
   3.428694e+05  -2.800071e+05
   2.885143e+05   2.676595e+05
  -2.084448e+05   1.033383e+06
  -1.000505e+06   1.096010e+06
  -1.432568e+06   1.578863e+05
  -8.602415e+05  -9.760009e+05
   4.633669e+05  -1.190616e+06
   1.321510e+06  -3.214977e+05
   7.464939e+05   6.381200e+05
  -7.812775e+05   6.690182e+05
  -1.707022e+06  -1.837027e+05
  -1.046483e+06  -1.004973e+06
   5.823716e+05  -1.065870e+06
   1.663083e+06  -4.386887e+05
   1.330623e+06   2.855144e+05
   1.135295e+05   5.704612e+05
  -7.184475e+05   2.615398e+05
  -4.046054e+05  -3.202055e+05
   6.317944e+05  -5.156205e+05
   1.233445e+06   1.346043e+05
   6.529456e+05   1.258527e+06
  -6.870847e+05   1.756137e+06
  -1.596000e+06   8.662841e+05
  -1.294044e+06  -8.576989e+05
  -1.314966e+05  -1.912544e+06
   8.624731e+05  -1.344410e+06
   9.967617e+05   2.375925e+05
   4.055698e+05   1.310388e+06
  -2.969619e+05   1.045849e+06
  -6.152612e+05   6.924013e+04
  -4.717307e+05  -4.418586e+05
  -1.571199e+05  -1.733689e+05
  -6.361638e+04   1.060328e+05
  -3.044067e+05  -3.004547e+05
  -5.078316e+05  -1.042150e+06
  -1.450794e+05  -1.181067e+06
   7.896133e+05  -4.160720e+05
   1.548906e+06   5.649645e+05
   1.321171e+06   9.721965e+05
   1.704298e+05   7.571528e+05
  -9.195055e+05   3.899167e+05
  -1.062382e+06   1.408774e+05
  -3.997060e+05  -5.881904e+04
   1.595676e+05  -2.266955e+05
   6.637664e+04  -2.373297e+05
  -2.552202e+05  -1.333612e+05
  -4.970219e+04  -1.337580e+05
   6.944637e+05  -1.999653e+05
   1.106740e+06   4.875025e+04
   4.516269e+05   7.182378e+05
  -9.169356e+05   1.201443e+06
  -1.826591e+06   7.626016e+05
  -1.483696e+06  -4.764352e+05
  -2.377990e+05  -1.494809e+06
   8.649211e+05  -1.444210e+06
   1.121036e+06  -5.399812e+05
   6.722693e+05   2.700954e+05
   1.335798e+05   3.759811e+05
  -5.222129e+04   5.327048e+04
   1.081833e+05  -1.440642e+04
   3.068972e+05   4.187270e+05
   2.260168e+05   8.794684e+05
  -2.086205e+05   7.126850e+05
  -6.999255e+05  -1.500925e+05
  -7.419968e+05  -1.014577e+06
  -1.038833e+05  -1.074858e+06
   7.769877e+05  -2.356246e+05
   1.057183e+06   7.816718e+05
   3.425276e+05   1.155615e+06
  -7.621223e+05   7.019539e+05
  -1.186866e+06  -1.033489e+05
  -5.675927e+05  -6.668796e+05
   3.092120e+05  -7.257044e+05
   4.237847e+05  -3.996422e+05
  -2.408911e+05  -3.416806e+04
  -6.850042e+05   1.521752e+04
  -1.540291e+05  -3.280409e+05
   9.048273e+05  -6.900097e+05
   1.386256e+06  -5.367074e+05
   8.350181e+05   2.053993e+05
  -1.232202e+05   9.242374e+05
  -6.209738e+05   9.152346e+05
  -4.571602e+05   1.891993e+05
  -3.949042e+04  -4.936925e+05
   2.548623e+05  -4.585853e+05
   3.492269e+05   1.562719e+05
   2.516530e+05   6.186815e+05
  -4.926406e+04   4.594806e+05
  -4.059282e+05  -5.379060e+04
  -5.140261e+05  -3.171516e+05
  -2.666990e+05  -1.190974e+05
   5.342761e+04   1.617272e+05
   1.181058e+05   7.103804e+04
  -7.739951e+03  -3.399173e+05
   2.222417e+04  -5.599742e+05
   3.015848e+05  -2.353051e+05
   4.701260e+05   3.750309e+05
   1.677713e+05   6.564426e+05
  -4.269549e+05   3.181601e+05
  -6.935873e+05  -2.957496e+05
  -2.506678e+05  -6.015816e+05
   5.527147e+05  -3.798102e+05
   9.351746e+05   9.057476e+04
   5.005575e+05   4.104310e+05
  -3.101567e+05   4.269077e+05
  -6.719774e+05   2.410355e+05
  -2.754962e+05   2.953669e+04
   3.368008e+05  -5.235107e+04
   4.019949e+05   7.155026e+04
  -1.867975e+05   2.756632e+05
  -7.738808e+05   2.364020e+05
