
 $NMID
 id='ANONYMOUS ', fmtdat='(2E16.6)'
 volume=1.0
 tramp=1.0
 $END
   1.073006e+07   9.550893e+05
   6.939317e+06   4.620151e+06
   1.766299e+05   6.334353e+06
  -4.425552e+06   5.080071e+06
  -4.171519e+06   1.309628e+06
  -6.526859e+05  -1.938058e+06
   2.279038e+06  -1.584820e+06
   2.180722e+06   1.617087e+06
  -1.603125e+05   3.569472e+06
  -2.109984e+06   1.778993e+06
  -1.936778e+06  -1.617843e+06
  -1.749321e+05  -2.674772e+06
   1.272539e+06  -4.069906e+05
   1.019063e+06   2.418988e+06
  -6.211082e+05   2.749944e+06
  -1.962075e+06   3.885152e+05
  -1.509652e+06  -2.285675e+06
   5.144507e+05  -2.908950e+06
   2.255837e+06  -1.228337e+06
   2.121971e+06   9.554997e+05
   5.448611e+05   1.715892e+06
  -5.143981e+05   9.409525e+05
   1.281062e+05   2.469103e+05
   1.473073e+06   8.984523e+05
   1.496502e+06   2.230019e+06
  -4.997725e+05   2.527527e+06
  -2.982707e+06   1.146794e+06
  -3.650269e+06  -8.214449e+05
  -1.742493e+06  -1.852717e+06
   1.076628e+06  -1.375374e+06
   2.220867e+06   6.096509e+04
   7.449967e+05   1.327743e+06
  -1.653713e+06   1.342349e+06
  -2.457113e+06  -1.191807e+05
  -1.064776e+06  -1.872936e+06
   7.389201e+05  -2.179362e+06
   1.082172e+06  -6.698831e+05
   1.019548e+05   9.802364e+05
  -6.548975e+05   8.973149e+05
  -3.227546e+05  -7.227475e+05
   5.438932e+05  -1.860281e+06
   1.045200e+06  -1.153250e+06
   8.951952e+05   5.414356e+05
   2.702421e+05   1.312740e+06
  -4.907828e+05   4.224257e+05
  -7.612931e+05  -1.041068e+06
   6.258414e+04  -1.496468e+06
   1.596521e+06  -4.622831e+05
   2.339324e+06   1.137081e+06
   1.210859e+06   1.948351e+06
  -9.766264e+05   1.391614e+06
  -2.216725e+06   6.744064e+04
  -1.489641e+06  -8.856660e+05
   2.337859e+05  -8.315163e+05
   1.219809e+06  -9.922430e+04
   7.716024e+05   4.796301e+05
  -3.303266e+05   3.839464e+05
  -8.346816e+05  -2.140261e+05
  -2.598639e+05  -7.020835e+05
   6.905524e+05  -5.849729e+05
   8.536230e+05   7.257836e+04
  -9.719772e+04   6.303108e+05
  -1.112377e+06   4.038113e+05
  -8.317813e+05  -6.060949e+05
   7.743961e+05  -1.537314e+06
   2.234503e+06  -1.406669e+06
   2.232814e+06  -1.062856e+05
   1.042233e+06   1.432928e+06
  -2.991060e+04   2.143479e+06
  -2.829577e+05   1.821688e+06
  -1.945921e+05   1.153986e+06
  -4.836866e+05   8.109054e+05
  -1.163082e+06   6.892475e+05
  -1.657150e+06   1.811836e+05
  -1.472533e+06  -8.647600e+05
  -5.736749e+05  -1.693267e+06
   6.055257e+05  -1.372464e+06
   1.323928e+06   5.638653e+04
   9.885544e+05   1.409810e+06
  -2.332400e+05   1.502299e+06
  -1.367335e+06   3.439467e+05
  -1.489124e+06  -9.581884e+05
  -6.425586e+05  -1.406613e+06
   2.735186e+05  -1.008188e+06
   5.404399e+05  -4.862889e+05
   3.619169e+05  -3.732375e+05
   4.943019e+05  -5.398227e+05
   1.241511e+06  -4.727491e+05
   1.958264e+06   1.655005e+05
   1.648348e+06   1.194189e+06
   9.982984e+04   1.975043e+06
  -1.656858e+06   1.858189e+06
  -2.217237e+06   7.685810e+05
  -1.215576e+06  -5.825712e+05
   2.702538e+05  -1.216407e+06
   8.512282e+05  -7.683400e+05
   2.371460e+05   1.516139e+05
  -6.503801e+05   5.671954e+05
  -8.340780e+05   1.331530e+05
  -2.576181e+05  -5.303222e+05
   3.782582e+05  -5.572259e+05
   4.334519e+05   1.384522e+05
  -1.452737e+05   6.825794e+05
  -8.579837e+05   1.997362e+05
  -1.006813e+06  -1.098815e+06
  -2.114457e+05  -1.981440e+06
   1.143972e+06  -1.460202e+06
   2.042130e+06   1.269395e+05
   1.702315e+06   1.454166e+06
   4.035440e+05   1.573262e+06
  -7.315725e+05   7.629648e+05
  -8.653442e+05   2.550807e+04
  -2.468943e+05  -2.575657e+04
   1.841121e+05   3.627555e+05
  -1.200227e+05   5.606671e+05
  -7.614471e+05   2.633857e+05
  -9.101304e+05  -2.774249e+05
  -2.720151e+05  -5.645907e+05
   5.275347e+05  -3.317512e+05
   5.737382e+05   1.989211e+05
  -3.124055e+05   4.791315e+05
  -1.264822e+06   1.284350e+05
  -1.218232e+06  -6.557989e+05
  -6.386552e+04  -1.211037e+06
   1.180619e+06  -1.012044e+06
   1.419557e+06  -1.940697e+05
   5.835914e+05   5.464703e+05
  -3.987044e+05   6.065386e+05
  -6.153383e+05   5.385097e+04
  -1.016399e+04  -4.507312e+05
   7.190218e+05  -3.298633e+05
   8.630758e+05   3.099323e+05
   3.124394e+05   7.963857e+05
  -4.136649e+05   6.286945e+05
  -6.609816e+05   2.900148e+04
  -2.545363e+05  -3.202572e+05
   3.036418e+05  -5.011930e+04
   3.207853e+05   4.993804e+05
  -3.307487e+05   6.764868e+05
  -1.013619e+06   2.083260e+05
  -9.793823e+05  -5.557571e+05
  -1.831329e+05  -1.006184e+06
   6.610896e+05  -8.099446e+05
   8.326206e+05  -1.620251e+05
   3.108838e+05   3.957123e+05
  -2.905602e+05   4.375631e+05
  -3.983657e+05   3.480399e+04
  -1.762665e+04  -3.245383e+05
   3.592150e+05  -2.625685e+05
   3.060091e+05   6.485475e+04
  -9.083909e+04   1.673493e+05
  -3.256200e+05  -1.623546e+05
  -1.731773e+04  -5.583867e+05
   6.441548e+05  -4.781603e+05
   1.036616e+06   1.856554e+05
   7.196152e+05   9.640693e+05
  -1.141152e+05   1.247800e+06
  -8.289462e+05   8.227566e+05
  -9.619815e+05   2.806919e+04
  -6.095719e+05  -5.514572e+05
  -2.253780e+05  -5.876856e+05
  -1.108152e+05  -2.786828e+05
  -1.487110e+05  -1.057589e+05
  -1.592196e+04  -2.793860e+05
   3.888640e+05  -4.809452e+05
   7.600585e+05  -2.515332e+05
   6.517765e+05   3.920413e+05
  -4.306054e+04   8.712771e+05
  -8.816181e+05   6.392684e+05
  -1.188870e+06  -2.161196e+05
  -6.495367e+05  -1.028742e+06
   3.849642e+05  -1.175584e+06
   1.182328e+06  -6.047898e+05
   1.243050e+06   1.932656e+05
   6.731001e+05   6.609600e+05
   6.337943e+03   6.360704e+05
  -3.063935e+05   4.130032e+05
  -2.528025e+05   3.699208e+05
  -1.643074e+05   5.330359e+05
  -3.087879e+05   5.485615e+05
  -5.874925e+05   1.223275e+05
  -6.406912e+05  -5.641732e+05
  -2.580778e+05  -9.675741e+05
   3.377604e+05  -7.248824e+05
   6.616210e+05  -2.331998e+04
   4.414915e+05   5.856475e+05
  -9.902156e+04   6.889758e+05
  -4.644404e+05   3.179259e+05
  -3.852296e+05  -1.686599e+05
  -5.930193e+04  -4.329085e+05
   1.090894e+05  -4.086408e+05
  -2.547673e+04  -2.729190e+05
  -1.892104e+05  -2.091927e+05
  -9.353719e+03  -2.104323e+05
   5.237114e+05  -1.213761e+05
   9.601645e+05   1.443815e+05
   8.095717e+05   4.723355e+05
   7.294259e+04   6.432148e+05
  -6.892000e+05   5.315306e+05
  -8.795911e+05   2.068606e+05
  -4.508494e+05  -1.158821e+05
   8.320270e+04  -2.216029e+05
   2.203981e+05  -6.865531e+04
  -3.085805e+04   1.353191e+05
  -2.701969e+05   1.072024e+05
  -2.265613e+05  -1.791548e+05
  -2.675136e+04  -4.007725e+05
   4.653062e+04  -2.541078e+05
  -7.878084e+04   1.163244e+05
  -2.157690e+05   2.343944e+05
  -1.565529e+05  -1.081373e+05
   1.250608e+05  -5.356560e+05
   4.576334e+05  -5.157043e+05
   5.777104e+05  -9.560552e+03
   3.104353e+05   4.774667e+05
  -2.214589e+05   4.823483e+05
  -5.772518e+05   6.516906e+04
  -3.549920e+05  -3.279268e+05
   3.333115e+05  -3.451424e+05
   8.491493e+05  -1.844071e+03
   6.392028e+05   4.118557e+05
  -1.501005e+05   5.801952e+05
  -7.868541e+05   3.787822e+05
  -7.148224e+05  -2.539837e+04
  -1.187160e+05  -2.843081e+05
   3.184676e+05  -1.814955e+05
   1.609945e+05   1.220671e+05
  -3.499584e+05   2.166008e+05
  -5.968021e+05  -1.235081e+05
  -2.464714e+05  -6.502094e+05
   4.219565e+05  -8.332447e+05
   8.212303e+05  -3.768213e+05
   6.354811e+05   4.381068e+05
   7.587739e+04   9.489586e+05
  -3.931449e+05   7.144409e+05
  -4.928396e+05  -3.712871e+04
  -2.774112e+05  -6.091034e+05
   3.830193e+04  -5.427421e+05
   2.658537e+05  -7.262572e+04
   2.980548e+05   2.107164e+05
   1.497922e+05   9.086314e+04
  -2.130655e+02  -6.854570e+04
   4.662744e+04   1.137141e+05
   2.201387e+05   4.864720e+05
   1.703405e+05   5.720331e+05
  -2.821649e+05   2.100715e+05
  -7.744727e+05  -2.551525e+05
  -7.317664e+05  -4.415510e+05
  -9.852121e+04  -3.476919e+05
   5.114723e+05  -2.048191e+05
   5.353830e+05  -1.114817e+05
   1.303929e+05  -5.728021e+03
  -1.030628e+05   1.097023e+05
   5.720462e+04   1.412418e+05
   2.185728e+05   9.266418e+04
  -7.232814e+03   7.576381e+04
  -4.332281e+05   8.556299e+04
  -5.310982e+05  -4.619404e+04
  -9.435483e+04  -3.553084e+05
   5.308394e+05  -5.497619e+05
   8.372989e+05  -3.023478e+05
   6.243067e+05   2.949242e+05
   8.804341e+04   7.454631e+05
  -3.983722e+05   6.696367e+05
  -5.511228e+05   2.058669e+05
  -3.473458e+05  -1.747213e+05
  -2.854413e+04  -1.871575e+05
   1.075576e+05   1.060860e+04
  -1.450203e+04   5.941540e+04
  -1.842874e+05  -1.693749e+05
  -1.452490e+05  -4.189659e+05
   1.206843e+05  -3.308281e+05
   3.663343e+05   1.259568e+05
   3.203228e+05   5.567229e+05
  -4.339044e+04   5.292154e+05
  -4.414246e+05   4.365664e+04
  -4.988679e+05  -4.592252e+05
  -1.101322e+05  -5.665074e+05
   3.950936e+05  -2.815111e+05
   5.395593e+05   8.298058e+04
   2.177126e+05   2.774876e+05
  -1.590342e+05   2.766881e+05
  -1.428628e+05   1.634701e+05
   1.948728e+05   3.191726e+04
   3.536411e+05   2.246376e+03
   4.610171e+04   1.498730e+05
  -4.378609e+05   3.435129e+05
  -6.001641e+05   3.019178e+05
  -3.210001e+05  -5.685583e+04
   7.344489e+04  -4.200385e+05
   2.444368e+05  -4.007484e+05
   1.589464e+05  -2.415560e+04
  -1.543765e+04   2.769989e+05
  -1.462183e+05   1.844442e+05
  -1.851647e+05  -1.414440e+05
  -1.100832e+05  -3.054168e+05
   5.437693e+04  -1.659496e+05
   1.992459e+05   5.698878e+04
   2.166883e+05   1.139657e+05
   1.206404e+05   1.766995e+04
   1.751172e+04  -3.312331e+04
  -3.610018e+04   7.189941e+04
  -8.135133e+04   2.244546e+05
  -1.567889e+05   2.232146e+05
  -2.115761e+05  -8.758974e+01
  -1.530881e+05  -2.793676e+05
   3.743395e+04  -3.516943e+05
   2.487231e+05  -1.255335e+05
   2.987777e+05   1.997340e+05
   8.914987e+04   3.264715e+05
  -2.521125e+05   1.677047e+05
  -4.193201e+05  -8.652850e+04
  -2.210468e+05  -2.073698e+05
   1.622884e+05  -1.554096e+05
   3.210002e+05  -4.833609e+04
   8.361087e+04   7.764845e+03
  -2.471047e+05  -1.677310e+04
  -2.374652e+05  -1.065550e+05
   1.441099e+05  -1.885030e+05
   4.763551e+05  -1.254876e+05
