
 $NMID
 id='ANONYMOUS ', fmtdat='(2E16.6)'
 volume=1.0
 tramp=1.0
 $END
  -8.586716e+06  -2.725739e+06
  -3.829874e+06  -5.968754e+06
   2.165425e+06  -5.101576e+06
   4.465369e+06  -1.888103e+06
   2.531499e+06   7.663148e+05
  -4.480925e+05   1.308224e+06
  -1.582882e+06   6.083884e+04
  -6.099509e+05  -1.503694e+06
   9.523667e+05  -1.810100e+06
   1.637646e+06  -4.082404e+05
   1.014897e+06   1.401142e+06
  -2.390905e+05   1.719095e+06
  -9.208873e+05   1.897672e+05
  -3.737505e+05  -1.465573e+06
   7.992084e+05  -1.401051e+06
   1.302476e+06   2.876499e+05
   4.985527e+05   1.847377e+06
  -9.706529e+05   1.864358e+06
  -1.883282e+06   5.116582e+05
  -1.570870e+06  -9.678125e+05
  -4.217302e+05  -1.523407e+06
   5.117017e+05  -1.080090e+06
   4.547672e+05  -4.378150e+05
  -2.998211e+05  -4.345379e+05
  -5.968280e+05  -1.028538e+06
   3.103830e+05  -1.306771e+06
   1.738346e+06  -5.920221e+05
   2.187395e+06   6.534114e+05
   1.055382e+06   1.331614e+06
  -6.110301e+05   9.556296e+05
  -1.266543e+06   4.091522e+04
  -5.032327e+05  -6.078229e+05
   6.938957e+05  -5.795890e+05
   1.126212e+06   6.872692e+04
   5.315326e+05   8.890999e+05
  -3.685535e+05   1.158779e+06
  -7.067926e+05   4.844571e+05
  -2.967661e+05  -5.236756e+05
   2.652279e+05  -7.168834e+05
   2.828958e+05   1.451280e+05
  -2.569774e+05   9.196087e+05
  -6.712425e+05   5.240977e+05
  -3.906696e+05  -5.593059e+05
   3.559735e+05  -8.779648e+05
   7.885408e+05   6.416918e+04
   4.081163e+05   1.174394e+06
  -5.352173e+05   1.173786e+06
  -1.302388e+06   6.462512e+04
  -1.261298e+06  -1.061674e+06
  -3.626534e+05  -1.281338e+06
   7.516026e+05  -5.948428e+05
   1.184857e+06   3.059600e+05
   5.975532e+05   6.992320e+05
  -3.842108e+05   3.745195e+05
  -7.804849e+05  -2.345867e+05
  -3.176114e+05  -4.809556e+05
   3.290790e+05  -1.784500e+05
   4.058410e+05   2.346671e+05
  -5.071514e+04   2.727413e+05
  -3.723183e+05  -3.181051e+04
  -1.085400e+05  -2.724919e+05
   4.905756e+05  -1.859316e+05
   7.747747e+05   1.791473e+05
   3.286224e+05   6.366987e+05
  -6.396719e+05   9.276445e+05
  -1.424721e+06   7.265060e+05
  -1.406113e+06  -5.944570e+04
  -6.384525e+05  -9.762606e+05
   1.815955e+05  -1.337922e+06
   4.437518e+05  -9.793058e+05
   2.463749e+05  -4.453100e+05
   1.589908e+05  -2.806462e+05
   4.595630e+05  -3.628474e+05
   8.307764e+05  -1.741529e+05
   8.093655e+05   4.071239e+05
   3.181804e+05   8.777106e+05
  -3.066763e+05   7.003105e+05
  -6.369627e+05  -5.900719e+04
  -4.328641e+05  -7.629799e+05
   2.011991e+05  -8.051711e+05
   8.075630e+05  -1.563456e+05
   8.785064e+05   6.340244e+05
   3.510366e+05   9.618615e+05
  -2.787906e+05   7.172327e+05
  -4.956902e+05   3.059633e+05
  -3.555376e+05   1.377678e+05
  -3.530362e+05   1.847926e+05
  -7.178318e+05   1.063964e+05
  -1.055117e+06  -2.842872e+05
  -7.945767e+05  -7.999750e+05
   1.062112e+05  -1.079969e+06
   1.026073e+06  -8.964741e+05
   1.252095e+06  -3.059816e+05
   6.606526e+05   3.571301e+05
  -1.629778e+05   6.556218e+05
  -4.870764e+05   4.042381e+05
  -1.356303e+05  -8.788505e+04
   3.873040e+05  -2.809039e+05
   4.877668e+05  -3.681716e+03
   1.222450e+05   3.388966e+05
  -2.335150e+05   2.794732e+05
  -1.851875e+05  -1.030393e+05
   1.673179e+05  -2.707353e+05
   4.183177e+05   1.009482e+05
   2.906116e+05   7.101686e+05
  -1.765512e+05   9.440796e+05
  -7.119602e+05   5.125651e+05
  -9.665867e+05  -2.819087e+05
  -7.163458e+05  -8.436757e+05
  -9.410929e+04  -8.144420e+05
   4.271308e+05  -3.588480e+05
   4.602004e+05   3.171558e+04
   1.292277e+05   3.250137e+04
  -7.011818e+04  -2.130567e+05
   1.332793e+05  -3.057359e+05
   4.674353e+05  -7.022112e+04
   4.726579e+05   2.606989e+05
   7.349973e+04   3.467673e+05
  -3.217439e+05   1.267759e+05
  -2.749971e+05  -1.480353e+05
   2.025786e+05  -1.944242e+05
   6.380443e+05   5.387611e+04
   5.493634e+05   4.164657e+05
  -6.681163e+04   6.033525e+05
  -6.904831e+05   4.276117e+05
  -7.668804e+05  -1.095921e+04
  -2.662459e+05  -3.565210e+05
   2.867810e+05  -3.138540e+05
   3.672116e+05   2.920511e+04
  -2.389052e+04   2.695153e+05
  -4.250249e+05   1.258927e+05
  -4.336737e+05  -2.478986e+05
  -7.832032e+04  -4.462142e+05
   2.838059e+05  -2.704892e+05
   3.379462e+05   6.682000e+04
   8.232644e+04   1.970256e+05
  -1.866569e+05  -5.044847e+03
  -1.465372e+05  -3.031405e+05
   2.221139e+05  -3.536888e+05
   5.660323e+05  -5.138628e+04
   4.960707e+05   3.700600e+05
   2.128009e+04   5.617459e+05
  -4.288442e+05   3.813993e+05
  -4.595483e+05   8.412148e+03
  -1.203270e+05  -2.410025e+05
   1.972479e+05  -2.043372e+05
   2.066513e+05   6.926663e+03
  -1.474442e+04   1.502345e+05
  -1.823935e+05   1.017734e+05
  -1.254460e+05  -3.070408e+04
   6.301126e+04  -4.053475e+04
   1.374417e+05   1.308867e+05
  -5.233263e+04   2.957301e+05
  -3.849032e+05   2.015658e+05
  -5.426002e+05  -1.790069e+05
  -3.174205e+05  -5.733254e+05
   1.505823e+05  -6.554230e+05
   4.938386e+05  -3.608544e+05
   4.900576e+05   6.313897e+04
   2.616526e+05   3.083610e+05
   8.573199e+04   2.811093e+05
   7.372771e+04   1.383439e+05
   9.613235e+04   8.769745e+04
  -1.346278e+04   1.681949e+05
  -2.462753e+05   2.197356e+05
  -4.100111e+05   7.021200e+04
  -3.023991e+05  -2.383850e+05
   8.641231e+04  -4.326804e+05
   5.061500e+05  -2.646441e+05
   6.096773e+05   2.010416e+05
   2.582377e+05   5.982153e+05
  -3.148750e+05   5.961272e+05
  -6.888148e+05   2.150462e+05
  -6.311177e+05  -2.149802e+05
  -2.780702e+05  -3.917720e+05
   4.961858e+04  -3.060016e+05
   1.635092e+05  -1.813385e+05
   1.277434e+05  -1.979933e+05
   1.190059e+05  -3.029916e+05
   2.192433e+05  -2.852907e+05
   3.378712e+05  -2.334784e+04
   3.090596e+05   3.491814e+05
   7.167575e+04   5.377896e+05
  -2.310607e+05   3.657802e+05
  -3.532142e+05  -3.964415e+04
  -1.839213e+05  -3.547854e+05
   1.215602e+05  -3.571743e+05
   2.845209e+05  -1.080189e+05
   1.845212e+05   1.509318e+05
  -2.838946e+04   2.456674e+05
  -1.146405e+05   1.970974e+05
  -1.390738e+04   1.323823e+05
   9.338198e+04   1.200153e+05
  -4.992631e+03   1.107793e+05
  -2.962970e+05   2.057945e+04
  -5.149835e+05  -1.557500e+05
  -3.969054e+05  -3.208858e+05
   2.896616e+04  -3.579770e+05
   4.305822e+05  -2.341419e+05
   4.894759e+05  -3.106381e+04
   2.184752e+05   1.162186e+05
  -7.337881e+04   1.199792e+05
  -1.252545e+05   9.434263e+03
   2.387917e+04  -8.492807e+04
   1.449912e+05  -4.346637e+04
   1.102017e+05   1.121051e+05
   4.331239e+03   2.162850e+05
  -2.680184e+04   1.368951e+05
   4.322403e+04  -4.553593e+04
   1.131759e+05  -1.016190e+05
   7.350422e+04   6.731928e+04
  -9.178123e+04   2.742323e+05
  -2.819479e+05   2.484660e+05
  -3.343307e+05  -2.906781e+04
  -1.537639e+05  -2.831062e+05
   1.574535e+05  -2.590084e+05
   3.302729e+05  -7.122425e+03
   1.709412e+05   1.954096e+05
  -2.056015e+05   1.551721e+05
  -4.417915e+05  -6.652321e+04
  -2.871067e+05  -2.611935e+05
   1.327107e+05  -2.780563e+05
   4.331499e+05  -1.235779e+05
   3.596361e+05   7.128350e+04
   3.567070e+04   1.529849e+05
  -1.827482e+05   6.536042e+04
  -8.180355e+04  -8.454086e+04
   1.970831e+05  -1.032895e+05
   3.170826e+05   9.496704e+04
   1.048511e+05   3.633273e+05
  -2.667523e+05   4.285969e+05
  -4.591418e+05   1.588924e+05
  -3.113452e+05  -2.709627e+05
   2.107753e+04  -5.070548e+05
   2.547065e+05  -3.440839e+05
   2.528992e+05   6.303804e+04
   9.437411e+04   3.408753e+05
  -6.904265e+04   2.738647e+05
  -1.490525e+05   1.354970e+04
  -1.349756e+05  -1.265468e+05
  -6.343235e+04  -5.137658e+04
  -8.198171e+03   3.112698e+04
  -3.145734e+04  -7.744032e+04
  -8.892142e+04  -2.798452e+05
  -3.763610e+04  -3.089922e+05
   1.801557e+05  -8.437990e+04
   3.920327e+05   1.876453e+05
   3.453561e+05   2.803403e+05
   2.631499e+04   1.935974e+05
  -2.743448e+05   7.919195e+04
  -2.863614e+05   1.992778e+04
  -7.728253e+04  -1.588411e+04
   5.842371e+04  -5.385224e+04
  -9.103806e+03  -6.708271e+04
  -9.846622e+04  -5.087821e+04
   2.036756e+03  -4.099572e+04
   2.223426e+05  -2.810054e+04
   2.840359e+05   5.547619e+04
   4.833179e+04   2.051813e+05
  -3.081759e+05   2.720111e+05
  -4.803314e+05   1.144202e+05
  -3.349732e+05  -1.952397e+05
  -5.218631e+03  -4.027313e+05
   2.614027e+05  -3.356179e+05
   3.110003e+05  -8.483841e+04
   1.750908e+05   1.065262e+05
   1.002846e+04   1.042819e+05
  -4.652738e+04   3.266771e+02
   1.327761e+04  -1.936807e+04
   7.945277e+04   1.048326e+05
   4.467667e+04   2.320591e+05
  -8.415620e+04   1.736554e+05
  -1.883832e+05  -8.016904e+04
  -1.472219e+05  -3.115449e+05
   4.186643e+04  -2.867010e+05
   2.343121e+05  -1.131169e+04
   2.456433e+05   2.659649e+05
   3.179988e+04   3.133037e+05
  -2.297882e+05   1.365331e+05
  -2.914954e+05  -7.644828e+04
  -1.044455e+05  -1.742626e+05
   1.071173e+05  -1.508891e+05
   9.963257e+04  -7.850958e+04
  -9.029962e+04  -2.092079e+04
  -1.859540e+05  -2.042617e+04
  -1.885196e+04  -8.665428e+04
   2.555986e+05  -1.538133e+05
   3.484721e+05  -1.100624e+05
   1.777967e+05   6.484315e+04
  -6.658466e+04   2.253364e+05
  -1.690323e+05   2.006375e+05
  -1.018834e+05   8.498579e+03
   1.750535e+04  -1.436210e+05
   8.926180e+04  -9.701954e+04
   9.247246e+04   7.558224e+04
   4.153068e+04   1.703184e+05
  -3.942695e+04   9.675625e+04
  -1.049554e+05  -3.821721e+04
  -1.104357e+05  -8.402333e+04
  -6.135794e+04  -2.436467e+04
  -8.104144e+03   2.746690e+04
   1.871059e+04  -1.726231e+04
   3.946511e+04  -1.120615e+05
   7.869941e+04  -1.287295e+05
   1.117904e+05  -9.832789e+03
   8.362705e+04   1.495723e+05
  -2.088437e+04   1.896854e+05
  -1.365106e+05   5.905513e+04
  -1.573601e+05  -1.198059e+05
  -3.478511e+04  -1.771410e+05
   1.492914e+05  -7.483029e+04
   2.274877e+05   6.907495e+04
   1.089543e+05   1.255168e+05
  -9.914623e+04   8.185300e+04
  -1.810819e+05   1.556694e+04
  -5.381041e+04  -1.022846e+04
   1.212220e+05   1.143097e+04
   1.190639e+05   5.753153e+04
  -7.632788e+04   8.707456e+04
  -2.456743e+05   4.268999e+04
