
 $NMID
 id='ANONYMOUS ', fmtdat='(2E16.6)'
 volume=1.0
 tramp=1.0
 $END
  -3.371573e+03   7.583337e+01
  -1.885722e+03  -2.022082e+03
   5.054254e+02  -2.090497e+03
   1.645133e+03  -7.360045e+02
   8.499411e+02   4.346850e+02
  -4.165635e+02   4.822027e+02
  -6.868586e+02  -2.704086e+02
  -4.663275e+01  -7.619218e+02
   6.249147e+02  -5.851749e+02
   7.848857e+02   6.117429e+01
   3.806532e+02   6.923427e+02
  -1.974971e+02   7.263209e+02
  -5.250261e+02   1.235386e+02
  -3.001016e+02  -5.646396e+02
   2.465189e+02  -6.221482e+02
   5.241086e+02  -1.151226e+01
   2.506258e+02   5.462244e+02
  -2.307256e+02   5.411548e+02
  -4.453902e+02   1.243557e+02
  -3.150831e+02  -2.638147e+02
  -2.258856e+01  -3.687899e+02
   2.061426e+02  -2.282362e+02
   1.956229e+02   7.197250e+00
  -8.898872e+01   1.130554e+02
  -3.519376e+02  -7.631963e+01
  -1.719371e+02  -3.636095e+02
   4.020564e+02  -3.663128e+02
   6.994682e+02   4.549085e+01
   3.595999e+02   4.519942e+02
  -3.076748e+02   4.063102e+02
  -6.112775e+02  -1.846112e+01
  -3.133263e+02  -4.042921e+02
   2.141561e+02  -4.518244e+02
   4.980944e+02  -1.827136e+02
   3.692948e+02   1.861280e+02
   6.446511e+01   3.980288e+02
  -1.719744e+02   2.294262e+02
  -1.405027e+02  -1.978300e+02
   1.449932e+02  -3.746503e+02
   3.857767e+02   5.260724e+00
   2.147081e+02   5.461325e+02
  -2.536745e+02   5.706262e+02
  -4.687933e+02   1.052160e+01
  -1.924447e+02  -4.558617e+02
   2.458675e+02  -2.768944e+02
   3.188899e+02   2.480993e+02
  -4.085260e+01   4.474249e+02
  -4.301028e+02   1.510989e+02
  -4.949484e+02  -3.166452e+02
  -1.619291e+02  -4.981492e+02
   2.984626e+02  -3.129066e+02
   5.205564e+02   3.871873e+01
   3.124540e+02   3.090179e+02
  -1.375198e+02   2.957459e+02
  -3.738690e+02   2.250725e+01
  -1.910223e+02  -1.904174e+02
   1.097335e+02  -9.933506e+01
   1.415281e+02   1.209469e+02
  -1.168816e+02   1.453892e+02
  -2.796084e+02  -4.902584e+01
  -1.183235e+02  -2.358604e+02
   1.496562e+02  -2.334855e+02
   2.760956e+02  -8.661589e+01
   1.942873e+02   7.189480e+01
   1.848503e+01   2.181718e+02
  -1.675036e+02   2.939596e+02
  -2.837238e+02   1.867639e+02
  -2.412178e+02  -1.116791e+02
  -5.067035e+01  -3.408922e+02
   9.971331e+01  -2.723821e+02
   8.468525e+01  -6.746797e+01
  -7.350923e+00   1.647378e+01
   1.046523e+01  -8.592781e+01
   1.478461e+02  -1.290147e+02
   2.382561e+02   2.873468e+01
   1.476664e+02   2.171613e+02
  -5.626869e+01   2.159290e+02
  -1.992962e+02   1.677905e+01
  -1.803405e+02  -1.959257e+02
   2.228435e+00  -2.464765e+02
   2.228969e+02  -1.088510e+02
   3.020779e+02   1.287567e+02
   1.582921e+02   2.852021e+02
  -8.463906e+01   2.522632e+02
  -1.833209e+02   1.032496e+02
  -1.165058e+02   1.113993e+01
  -7.313822e+01   4.252690e+01
  -1.834440e+02   7.501855e+01
  -3.336589e+02  -2.058221e+01
  -2.998752e+02  -2.295118e+02
  -2.655112e+01  -3.733306e+02
   2.779493e+02  -3.560519e+02
   4.036489e+02  -1.853791e+02
   2.823007e+02   7.228235e+01
   4.789468e+01   2.422610e+02
  -1.095178e+02   2.003511e+02
  -6.493540e+01   1.755689e+01
   8.704936e+01  -8.798029e+01
   1.660512e+02   7.941076e+00
   4.375622e+01   1.624637e+02
  -1.313730e+02   1.422431e+02
  -1.475586e+02  -4.955782e+01
   1.236725e+01  -1.639072e+02
   1.608480e+02  -3.595505e+01
   1.498687e+02   1.961404e+02
  -2.278226e+00   2.974052e+02
  -1.779823e+02   1.871348e+02
  -2.745040e+02  -2.581506e+01
  -2.371391e+02  -1.938889e+02
  -7.956305e+01  -2.229910e+02
   9.462421e+01  -1.336760e+02
   1.464824e+02  -9.668432e+00
   4.453126e+01   3.736866e+01
  -6.228615e+01  -2.677364e+01
  -3.154077e+01  -1.036928e+02
   9.762002e+01  -8.399864e+01
   1.513236e+02   1.878751e+01
   5.440016e+01   6.882873e+01
  -6.848716e+01   2.744656e+01
  -5.764818e+01  -5.731966e+01
   8.665937e+01  -8.631308e+01
   2.263544e+02  -2.254850e+01
   2.258918e+02   1.057503e+02
   6.595191e+01   2.189210e+02
  -1.399361e+02   2.220176e+02
  -2.341501e+02   1.060933e+02
  -1.473069e+02  -5.035322e+01
   1.451952e+01  -9.606059e+01
   7.835007e+01  -3.349874e+00
  -1.719987e+01   8.947259e+01
  -1.530073e+02   5.623789e+01
  -1.760018e+02  -8.372469e+01
  -6.404500e+01  -1.739665e+02
   7.189489e+01  -1.362800e+02
   1.247906e+02  -2.566838e+01
   6.635511e+01   4.145832e+01
  -2.439272e+01   1.069041e+01
  -4.145325e+01  -6.724919e+01
   4.857436e+01  -1.012563e+02
   1.633384e+02  -3.510452e+01
   1.656779e+02   9.801038e+01
   2.881534e+01   1.817257e+02
  -1.277214e+02   1.375846e+02
  -1.579490e+02   6.090084e+00
  -5.479829e+01  -9.300910e+01
   5.751020e+01  -9.124798e+01
   7.190605e+01  -2.490003e+01
   1.803399e+01   2.626352e+01
  -1.973467e+01   2.169656e+01
   2.053065e+00  -6.323675e+00
   5.840587e+01  -2.129617e+00
   8.003367e+01   5.640289e+01
   2.302911e+01   1.286838e+02
  -9.662859e+01   1.358582e+02
  -1.952050e+02   3.758389e+01
  -1.786418e+02  -1.157840e+02
  -4.815601e+01  -1.973275e+02
   8.194707e+01  -1.485452e+02
   1.136601e+02  -3.219307e+01
   6.632052e+01   3.959633e+01
   2.630841e+01   2.816414e+01
   4.047811e+01  -1.030910e+01
   6.338809e+01  -5.303465e+00
   3.954379e+01   3.815262e+01
  -2.399864e+01   7.096057e+01
  -7.908560e+01   4.828709e+01
  -7.719936e+01  -2.412399e+01
  -4.575274e-01  -9.144191e+01
   1.113684e+02  -8.032829e+01
   1.681834e+02   2.944968e+01
   9.344782e+01   1.640675e+02
  -7.756382e+01   1.945793e+02
  -2.117838e+02   9.216765e+01
  -2.089558e+02  -6.165100e+01
  -9.397074e+01  -1.464121e+02
   2.551069e+01  -1.262129e+02
   7.601820e+01  -6.863998e+01
   6.148739e+01  -4.883689e+01
   4.888005e+01  -6.750495e+01
   7.006570e+01  -6.423856e+01
   1.038917e+02   5.778694e+00
   1.041330e+02   1.121986e+02
   3.741985e+01   1.817156e+02
  -7.289965e+01   1.456174e+02
  -1.425603e+02   2.485042e+01
  -1.168151e+02  -9.437187e+01
  -1.989481e+01  -1.292119e+02
   5.380233e+01  -7.687286e+01
   5.511194e+01  -4.106213e-01
   9.616851e+00   3.355373e+01
  -8.347659e+00   2.911689e+01
   2.505284e+01   1.603013e+01
   6.102012e+01   1.689705e+01
   4.072605e+01   3.355505e+01
  -4.210541e+01   3.687325e+01
  -1.226790e+02   1.430996e+01
  -1.229675e+02  -3.442217e+01
  -2.504309e+01  -7.785785e+01
   8.799520e+01  -6.776774e+01
   1.185775e+02  -1.365438e+01
   4.861464e+01   3.561933e+01
  -4.198262e+01   3.527971e+01
  -6.312547e+01  -1.355755e+01
  -1.272261e+01  -5.744039e+01
   4.085398e+01  -5.116499e+01
   5.262103e+01  -1.984471e+00
   3.939373e+01   3.916203e+01
   3.615088e+01   3.554345e+01
   4.403938e+01   1.997656e+00
   5.324569e+01  -1.234970e+00
   3.539925e+01   5.159729e+01
  -1.459339e+01   1.184141e+02
  -8.795064e+01   1.212181e+02
  -1.361232e+02   3.740465e+01
  -1.068506e+02  -6.627680e+01
  -1.184604e+01  -1.005426e+02
   6.808453e+01  -5.354765e+01
   5.091894e+01   7.496788e+00
  -4.101092e+01   1.678334e+01
  -1.081227e+02  -2.925864e+01
  -6.407212e+01  -8.319626e+01
   6.421492e+01  -9.245986e+01
   1.547680e+02  -5.006037e+01
   1.356038e+02   2.033952e+01
   3.348322e+01   6.855079e+01
  -4.822292e+01   5.612315e+01
  -3.925258e+01   2.690205e+00
   3.207532e+01  -2.881146e+01
   7.511535e+01   1.283920e+01
   3.019399e+01   9.597466e+01
  -6.707793e+01   1.295112e+02
  -1.326622e+02   5.542282e+01
  -1.034716e+02  -7.961002e+01
  -1.222971e+01  -1.594183e+02
   6.496668e+01  -1.172413e+02
   8.663155e+01   2.414652e+00
   5.707522e+01   9.292946e+01
   2.357023e+00   8.657652e+01
  -3.914998e+01   1.929895e+01
  -4.230590e+01  -2.368552e+01
  -1.970561e+01  -6.603353e+00
  -1.760302e+00   1.840460e+01
  -2.077044e+01  -9.366818e+00
  -5.027838e+01  -7.272372e+01
  -3.382099e+01  -9.103823e+01
   4.027515e+01  -4.355670e+01
   1.153579e+02   2.468078e+01
   1.077960e+02   5.562344e+01
   1.761223e+01   4.290130e+01
  -6.769096e+01   2.361695e+01
  -7.128399e+01   1.035399e+01
  -1.222418e+01  -5.663400e+00
   2.833621e+01  -1.938486e+01
   1.155285e+01  -1.538348e+01
  -1.653628e+01   9.092522e-01
   2.037705e+00   5.158518e+00
   5.794961e+01  -7.700299e-01
   7.772228e+01   1.551963e+01
   1.408018e+01   6.656906e+01
  -8.916266e+01   1.003896e+02
  -1.475396e+02   5.890662e+01
  -1.153528e+02  -4.561015e+01
  -2.510589e+01  -1.259087e+02
   5.752083e+01  -1.221470e+02
   8.649697e+01  -4.890355e+01
   6.589207e+01   1.998336e+01
   2.334337e+01   2.998320e+01
   5.795472e-01   7.216558e+00
   9.593801e+00   1.590333e+00
   2.720016e+01   3.667661e+01
   2.175331e+01   7.513569e+01
  -2.040504e+01   6.211145e+01
  -6.601955e+01  -1.079557e+01
  -6.516238e+01  -8.395353e+01
  -4.751068e+00  -8.878523e+01
   6.688840e+01  -2.262966e+01
   8.632905e+01   5.688628e+01
   3.034250e+01   8.346845e+01
  -5.205073e+01   4.877496e+01
  -7.892080e+01  -3.413612e+00
  -3.368078e+01  -3.884910e+01
   2.410111e+01  -4.379127e+01
   2.546972e+01  -2.215039e+01
  -2.663163e+01   2.445958e+00
  -5.505682e+01   4.797482e+00
  -1.425655e+01  -2.137846e+01
   6.014001e+01  -5.298368e+01
   9.370649e+01  -4.797022e+01
   5.435880e+01   8.369139e+00
  -8.304758e+00   6.641578e+01
  -3.922098e+01   6.571614e+01
  -2.932618e+01   7.226585e+00
  -3.820048e+00  -4.305651e+01
   1.932387e+01  -3.547943e+01
   2.958878e+01   1.379397e+01
   2.407489e+01   4.416256e+01
  -5.894398e-01   2.714981e+01
  -2.790893e+01  -6.206862e+00
  -3.370644e+01  -1.759770e+01
  -1.665910e+01  -8.358856e-01
   1.569660e+00   1.182279e+01
   6.488006e+00  -1.794931e+00
   3.053897e+00  -3.055357e+01
   7.281607e+00  -3.593562e+01
   2.274928e+01  -7.554304e+00
   2.810397e+01   3.268178e+01
   4.289736e+00   4.821197e+01
  -3.347970e+01   1.974139e+01
  -4.948400e+01  -2.614391e+01
  -1.786244e+01  -4.931905e+01
   3.911210e+01  -3.005988e+01
   6.989387e+01   6.705404e+00
   3.996020e+01   3.256934e+01
  -2.121048e+01   3.375932e+01
  -4.911325e+01   1.730261e+01
  -1.898895e+01   2.635183e+00
   2.865891e+01  -7.629883e-01
   2.915080e+01   1.132568e+01
  -2.428211e+01   2.688148e+01
  -7.130723e+01   2.001107e+01
