
 $NMID
 id='ANONYMOUS ', fmtdat='(2E16.6)'
 volume=1.0
 tramp=1.0
 $END
   2.671724e+03  -2.697472e+02
   1.772485e+03   1.302783e+03
  -5.968043e+01   1.853747e+03
  -1.156346e+03   1.023248e+03
  -8.345778e+02   1.111549e+02
  -1.971467e+01  -2.636210e+02
   3.437783e+02   1.488817e+01
   7.848570e+01   4.615143e+02
  -3.756521e+02   5.244043e+02
  -5.694991e+02   9.954637e+01
  -3.892315e+02  -4.459890e+02
  -1.945708e+01  -5.833376e+02
   2.716297e+02  -1.836898e+02
   2.432660e+02   3.524600e+02
  -6.933753e+01   4.940850e+02
  -3.375879e+02   1.078027e+02
  -2.759426e+02  -3.815068e+02
   6.407493e+01  -5.080011e+02
   3.632203e+02  -2.315128e+02
   3.558075e+02   1.454472e+02
   1.259202e+02   3.172930e+02
  -1.089164e+02   2.310065e+02
  -9.113323e+01   6.771185e+01
   1.260730e+02   5.221046e+01
   2.407364e+02   2.057056e+02
   1.608646e+01   3.033798e+02
  -3.935462e+02   1.650725e+02
  -5.212608e+02  -1.411308e+02
  -2.104331e+02  -2.985638e+02
   2.560850e+02  -1.957599e+02
   4.383689e+02   8.531212e+01
   1.957637e+02   3.016660e+02
  -1.915885e+02   3.182353e+02
  -3.939045e+02   1.541342e+02
  -3.029964e+02  -1.140005e+02
  -1.112006e+02  -2.636753e+02
   2.723044e+01  -1.749898e+02
   9.004386e-01   8.143045e+01
  -1.124028e+02   1.718812e+02
  -1.852261e+02  -9.062715e+01
  -6.634812e+01  -4.022083e+02
   1.950851e+02  -3.781769e+02
   3.008163e+02  -9.264327e+00
   1.486208e+02   2.785431e+02
  -1.159119e+02   1.416275e+02
  -1.931112e+02  -2.068266e+02
   6.079266e+01  -3.217760e+02
   3.739457e+02  -6.094406e+01
   4.662278e+02   3.096614e+02
   1.844456e+02   4.223128e+02
  -2.355408e+02   2.557940e+02
  -4.572931e+02  -4.327401e+00
  -3.155768e+02  -1.891582e+02
   3.341305e+01  -2.128244e+02
   2.480846e+02  -9.066233e+01
   1.863442e+02   3.024379e+01
  -7.267779e+00   3.072389e+01
  -7.329139e+01  -5.949160e+01
   7.599920e+01  -8.327458e+01
   2.078272e+02   1.558963e+01
   1.146148e+02   1.570579e+02
  -1.084171e+02   2.063175e+02
  -2.681799e+02   1.153082e+02
  -2.021853e+02  -8.234834e+01
   1.302009e+01  -2.640965e+02
   2.247439e+02  -3.049219e+02
   2.962844e+02  -1.377107e+02
   2.135057e+02   1.368066e+02
   6.190360e+01   2.997993e+02
  -2.940492e+01   2.595253e+02
  -1.467066e+01   1.301935e+02
  -2.139930e+01   7.532168e+01
  -1.021132e+02   1.024564e+02
  -2.031918e+02   6.691539e+01
  -2.103664e+02  -8.856192e+01
  -9.151388e+01  -2.151108e+02
   7.402542e+01  -1.701031e+02
   1.754855e+02   1.515301e+01
   1.323605e+02   1.901657e+02
  -2.796043e+01   2.133870e+02
  -2.103562e+02   6.812905e+01
  -2.661109e+02  -1.325020e+02
  -1.496605e+02  -2.518398e+02
   4.724968e+01  -2.434719e+02
   1.376371e+02  -1.467009e+02
   1.223301e+02  -6.986679e+01
   1.285585e+02  -5.471318e+01
   2.363415e+02  -3.618634e+01
   3.464726e+02   6.745353e+01
   2.721613e+02   2.379863e+02
  -6.751833e+00   3.672258e+02
  -2.902830e+02   3.481039e+02
  -3.879911e+02   1.701756e+02
  -2.510788e+02  -7.080471e+01
  -3.942850e+01  -2.135957e+02
   7.383028e+01  -1.796423e+02
   1.768454e+01  -3.561289e+01
  -9.282100e+01   3.910963e+01
  -1.109259e+02  -2.823342e+01
  -9.837688e+00  -1.198281e+02
   9.957173e+01  -9.685336e+01
   9.055313e+01   3.215213e+01
  -2.042387e+01   1.096944e+02
  -1.317162e+02   9.611988e+00
  -1.268600e+02  -1.800830e+02
   1.186106e+01  -2.849429e+02
   1.915687e+02  -1.852522e+02
   2.871385e+02   3.589479e+01
   2.335297e+02   2.106439e+02
   5.422829e+01   2.251675e+02
  -1.057118e+02   1.170857e+02
  -1.282304e+02   6.836260e+00
  -3.382025e+01  -1.197307e+01
   4.534094e+01   5.097031e+01
   1.394747e+00   9.644088e+01
  -1.044908e+02   5.772254e+01
  -1.382103e+02  -2.181306e+01
  -3.750209e+01  -4.653614e+01
   6.553504e+01   4.806934e+00
   3.449912e+01   7.495307e+01
  -1.203114e+02   8.131860e+01
  -2.490790e+02   1.616117e+00
  -2.186292e+02  -1.287279e+02
  -3.921518e+01  -2.193290e+02
   1.512627e+02  -2.013274e+02
   2.133599e+02  -8.069965e+01
   1.140609e+02   4.084126e+01
  -2.257680e+01   6.907362e+01
  -6.043849e+01  -7.273940e+00
   3.386757e+01  -7.560981e+01
   1.484568e+02  -3.826444e+01
   1.624242e+02   8.167810e+01
   5.805316e+01   1.578303e+02
  -7.046640e+01   1.213049e+02
  -1.081640e+02   2.270843e+01
  -4.247991e+01  -2.892208e+01
   3.383599e+01   1.551032e+01
   2.469288e+01   9.072186e+01
  -7.959536e+01   1.044156e+02
  -1.794391e+02   2.084799e+01
  -1.592774e+02  -1.073584e+02
  -1.807015e+01  -1.784422e+02
   1.294315e+02  -1.354583e+02
   1.484055e+02  -1.415249e+01
   4.916439e+01   8.210843e+01
  -5.144207e+01   8.620127e+01
  -5.999854e+01   2.099799e+01
  -1.594672e+00  -2.244225e+01
   3.091873e+01  -8.612401e+00
  -7.085743e+00   2.398816e+01
  -7.601789e+01   6.522820e+00
  -9.140526e+01  -7.024956e+01
  -1.514770e+01  -1.458690e+02
   1.146270e+02  -1.346922e+02
   2.021720e+02  -1.978497e+01
   1.668625e+02   1.279106e+02
   3.983930e+01   1.935185e+02
  -8.027753e+01   1.421244e+02
  -1.090168e+02   3.188757e+01
  -6.639487e+01  -3.535675e+01
  -3.055809e+01  -2.364000e+01
  -4.732080e+01   1.257281e+01
  -7.500235e+01   8.434047e+00
  -4.983059e+01  -4.852335e+01
   2.936259e+01  -9.168358e+01
   1.007914e+02  -6.399979e+01
   9.496103e+01   3.217933e+01
  -5.707779e+00   1.094761e+02
  -1.330425e+02   8.602111e+01
  -1.757883e+02  -4.349111e+01
  -7.950210e+01  -1.758304e+02
   9.731790e+01  -1.939513e+02
   2.184229e+02  -7.759385e+01
   2.053367e+02   7.660619e+01
   8.238952e+01   1.442233e+02
  -3.310481e+01   1.161630e+02
  -7.013643e+01   6.408492e+01
  -5.273929e+01   5.629415e+01
  -4.388796e+01   8.217659e+01
  -7.478054e+01   7.302321e+01
  -1.119966e+02  -8.919364e+00
  -1.059705e+02  -1.231127e+02
  -2.935108e+01  -1.905220e+02
   7.843455e+01  -1.439276e+02
   1.448919e+02  -1.833993e+01
   1.132496e+02   1.025201e+02
   1.384600e+01   1.311013e+02
  -6.476911e+01   6.987548e+01
  -5.621058e+01  -1.151382e+01
   1.487464e+00  -4.442105e+01
   2.343575e+01  -2.943561e+01
  -1.965010e+01  -9.239954e+00
  -6.891523e+01  -1.406593e+01
  -4.355698e+01  -3.531662e+01
   5.754524e+01  -3.489508e+01
   1.433261e+02   5.074988e-01
   1.180829e+02   5.253309e+01
   2.061601e+00   8.274699e+01
  -1.100422e+02   6.162474e+01
  -1.216740e+02   3.536969e+00
  -4.270540e+01  -4.316076e+01
   4.795920e+01  -4.034095e+01
   6.598443e+01   1.267857e+01
   1.859407e+01   6.135896e+01
  -3.720980e+01   5.677958e+01
  -5.859212e+01   5.711129e+00
  -5.032543e+01  -4.042078e+01
  -4.237852e+01  -3.829729e+01
  -4.379778e+01  -1.921843e+00
  -5.774296e+01  -3.181228e-01
  -4.371752e+01  -6.024678e+01
   1.829403e+01  -1.279678e+02
   1.032777e+02  -1.237330e+02
   1.502436e+02  -3.193341e+01
   1.090428e+02   7.460166e+01
   3.863055e+00   1.109624e+02
  -7.627549e+01   6.004642e+01
  -5.469127e+01  -7.052998e+00
   4.649454e+01  -2.162748e+01
   1.142798e+02   2.960445e+01
   6.161610e+01   9.015344e+01
  -6.874110e+01   1.001004e+02
  -1.576395e+02   4.468682e+01
  -1.367633e+02  -3.034913e+01
  -3.226777e+01  -7.165388e+01
   4.874785e+01  -5.416026e+01
   3.990442e+01  -6.257410e-01
  -3.253734e+01   2.893913e+01
  -7.606569e+01  -1.364695e+01
  -3.293376e+01  -9.443475e+01
   6.339050e+01  -1.314598e+02
   1.302017e+02  -6.393088e+01
   1.104134e+02   6.938705e+01
   2.298745e+01   1.601591e+02
  -6.075290e+01   1.251062e+02
  -8.874808e+01  -1.553481e+00
  -5.422144e+01  -9.548476e+01
   2.687769e+00  -8.394007e+01
   4.220852e+01  -1.412416e+01
   3.814756e+01   2.460195e+01
   1.505403e+01   4.476937e+00
   3.557496e+00  -1.688423e+01
   2.570097e+01   1.529303e+01
   5.313274e+01   7.490198e+01
   3.196697e+01   9.059079e+01
  -4.522979e+01   4.007083e+01
  -1.134411e+02  -2.541506e+01
  -1.061609e+02  -5.740799e+01
  -1.730538e+01  -4.786994e+01
   6.650574e+01  -2.733058e+01
   7.282846e+01  -6.986413e+00
   1.665579e+01   1.001495e+01
  -2.701029e+01   2.045416e+01
  -1.636541e+01   1.037690e+01
   1.201182e+01  -4.533484e+00
  -2.985596e+00  -2.935442e+00
  -5.753545e+01   5.161701e+00
  -8.022009e+01  -1.550567e+01
  -2.298894e+01  -7.056349e+01
   8.461151e+01  -1.077785e+02
   1.566696e+02  -6.611865e+01
   1.331074e+02   4.212515e+01
   3.753696e+01   1.350365e+02
  -5.924817e+01   1.366558e+02
  -9.666348e+01   6.021880e+01
  -7.382376e+01  -1.582134e+01
  -2.493890e+01  -3.183329e+01
  -1.944051e+00  -1.066240e+01
  -1.143904e+01  -5.459369e+00
  -2.709044e+01  -3.763989e+01
  -1.940404e+01  -7.601878e+01
   2.039255e+01  -6.127577e+01
   6.575451e+01   9.930887e+00
   7.064986e+01   8.297802e+01
   1.516274e+01   9.480843e+01
  -6.458833e+01   3.131882e+01
  -9.357812e+01  -5.207460e+01
  -3.891950e+01  -8.585307e+01
   5.136029e+01  -5.659289e+01
   8.603136e+01   5.914392e-01
   4.007847e+01   4.479917e+01
  -2.479039e+01   5.094496e+01
  -3.047697e+01   2.550604e+01
   2.022208e+01  -5.024191e+00
   5.402838e+01  -8.547796e+00
   1.657133e+01   2.187395e+01
  -5.833085e+01   5.363144e+01
  -9.606210e+01   4.556426e+01
  -5.885807e+01  -1.165027e+01
   7.558174e+00  -6.760446e+01
   4.607030e+01  -6.782252e+01
   3.735031e+01  -1.082210e+01
   7.311371e+00   4.492374e+01
  -1.815446e+01   4.263813e+01
  -3.132182e+01  -6.738523e+00
  -2.618896e+01  -4.418262e+01
  -1.162516e+00  -3.474439e+01
   2.959625e+01   1.732892e+00
   3.699243e+01   1.964267e+01
   1.744887e+01   4.755945e+00
  -3.615585e+00  -1.595623e+01
  -4.782636e+00  -6.412191e+00
   6.497977e+00   2.784154e+01
   2.354010e+00   4.555398e+01
  -2.328493e+01   2.011497e+01
  -3.893677e+01  -2.654513e+01
  -1.505454e+01  -5.006991e+01
   3.101305e+01  -2.578706e+01
   5.431956e+01   2.277691e+01
   2.197668e+01   5.069838e+01
  -4.463112e+01   3.473615e+01
  -7.756184e+01  -3.331756e+00
  -4.459650e+01  -3.371303e+01
   2.044919e+01  -3.999991e+01
   5.230272e+01  -2.707414e+01
   2.353245e+01  -5.983053e+00
  -2.349062e+01   5.032462e+00
  -2.724220e+01  -2.834310e+00
   1.867021e+01  -2.331074e+01
   6.500481e+01  -2.194984e+01
