
 $NMID
 id='ANONYMOUS ', fmtdat='(2E16.6)'
 volume=1.0
 tramp=1.0
 $END
   2.842984e+03  -7.694534e+01
   2.088398e+03   1.243633e+03
   2.029164e+02   1.778717e+03
  -1.011324e+03   1.133784e+03
  -8.738175e+02   1.816060e+02
  -1.192736e+02  -2.284374e+02
   2.927551e+02   2.254168e+01
   1.137101e+02   4.388106e+02
  -2.869916e+02   5.322613e+02
  -5.151898e+02   1.318642e+02
  -4.000054e+02  -3.989236e+02
  -4.277139e+01  -5.594805e+02
   2.316652e+02  -1.949584e+02
   2.343910e+02   3.103013e+02
  -6.082407e+01   4.425514e+02
  -3.294204e+02   6.773401e+01
  -2.608988e+02  -4.149854e+02
   1.075623e+02  -5.620643e+02
   4.165377e+02  -2.638854e+02
   4.140922e+02   1.408269e+02
   1.531800e+02   2.890577e+02
  -6.566547e+01   1.958109e+02
  -3.451067e+01   7.723964e+01
   1.701101e+02   1.395733e+02
   2.064068e+02   2.961795e+02
  -5.862135e+01   3.052931e+02
  -4.240983e+02   9.104388e+01
  -4.727173e+02  -2.125657e+02
  -1.399996e+02  -3.059437e+02
   2.853662e+02  -1.293285e+02
   3.960055e+02   1.449798e+02
   1.221047e+02   2.962665e+02
  -2.414658e+02   2.536147e+02
  -3.700429e+02   8.349100e+01
  -2.303937e+02  -1.313793e+02
  -5.020481e+01  -2.339492e+02
   5.855132e+00  -1.457614e+02
  -7.276456e+01   4.148277e+01
  -1.523749e+02   7.283949e+01
  -1.317308e+02  -1.486970e+02
   5.726104e+01  -3.808372e+02
   2.428277e+02  -3.161023e+02
   2.431670e+02   1.414964e+01
   5.859451e+01   2.358940e+02
  -1.191767e+02   7.775326e+01
  -1.036930e+02  -2.367516e+02
   1.361888e+02  -3.164834e+02
   3.833525e+02  -3.784507e+01
   3.840912e+02   3.042486e+02
   9.996364e+01   4.098745e+02
  -2.580760e+02   2.106527e+02
  -4.249334e+02  -6.503300e+01
  -2.821920e+02  -2.099129e+02
   2.873934e+01  -1.841732e+02
   2.200256e+02  -8.830964e+01
   1.755094e+02  -5.228297e+00
   2.304695e+01  -6.754102e+00
  -3.079621e+01  -3.994268e+01
   8.756443e+01  -3.410770e+01
   1.866631e+02   4.151497e+01
   9.752863e+01   1.661955e+02
  -1.482425e+02   2.207180e+02
  -3.194986e+02   1.169561e+02
  -2.361892e+02  -1.153185e+02
   3.994033e+01  -3.121306e+02
   2.893175e+02  -3.131449e+02
   3.111991e+02  -1.148815e+02
   1.733767e+02   1.592180e+02
   3.309071e+01   2.980798e+02
  -2.445884e+01   2.657724e+02
  -1.588309e+01   1.673601e+02
  -5.079794e+01   1.104755e+02
  -1.538774e+02   1.003273e+02
  -2.339223e+02   1.229977e+01
  -1.960130e+02  -1.396300e+02
  -5.599489e+01  -2.333974e+02
   9.054661e+01  -1.557850e+02
   1.507177e+02   5.500863e+01
   9.125796e+01   2.160409e+02
  -5.778251e+01   2.051231e+02
  -2.141952e+02   3.130291e+01
  -2.506664e+02  -1.619542e+02
  -1.379418e+02  -2.555214e+02
   3.669965e+01  -2.176436e+02
   1.400781e+02  -1.360664e+02
   1.354226e+02  -7.863568e+01
   1.462132e+02  -5.535747e+01
   2.609514e+02  -3.117636e+00
   3.601596e+02   1.194946e+02
   2.675170e+02   2.920079e+02
  -4.739543e+01   3.898130e+02
  -3.640936e+02   3.347233e+02
  -4.302536e+02   1.252036e+02
  -2.346554e+02  -9.907208e+01
  -4.033870e+00  -2.053717e+02
   7.869996e+01  -1.498110e+02
  -4.686594e+00  -2.947611e+01
  -1.022132e+02   2.006337e+01
  -1.026490e+02  -4.144372e+01
   1.663883e+00  -1.085119e+02
   9.953694e+01  -7.341673e+01
   8.655323e+01   5.234884e+01
  -2.702300e+01   1.094883e+02
  -1.387226e+02  -5.440914e+00
  -1.286224e+02  -2.077029e+02
   2.310169e+01  -2.998677e+02
   2.256579e+02  -1.761379e+02
   3.153707e+02   6.624725e+01
   2.295434e+02   2.448025e+02
   3.773171e+01   2.476048e+02
  -1.185770e+02   1.159420e+02
  -1.235012e+02  -7.692861e-01
  -2.028130e+01  -9.625050e+00
   3.764236e+01   6.404058e+01
  -1.708643e+01   1.034278e+02
  -1.169941e+02   5.252070e+01
  -1.256757e+02  -2.409386e+01
  -1.826867e+01  -4.333836e+01
   7.243788e+01   2.222471e+01
   2.281207e+01   8.899331e+01
  -1.454959e+02   6.706942e+01
  -2.734258e+02  -4.481045e+01
  -2.169432e+02  -1.753760e+02
  -1.698223e+00  -2.404032e+02
   2.048216e+02  -1.966969e+02
   2.414141e+02  -6.753832e+01
   1.145209e+02   4.666258e+01
  -2.844327e+01   6.342544e+01
  -4.624277e+01  -9.732216e+00
   5.765038e+01  -6.656179e+01
   1.643604e+02  -1.865772e+01
   1.555480e+02   9.876281e+01
   3.838879e+01   1.662518e+02
  -7.779010e+01   1.149658e+02
  -1.056510e+02   1.018536e+01
  -3.274014e+01  -3.565466e+01
   4.137790e+01   2.501305e+01
   1.551260e+01   1.061874e+02
  -1.009287e+02   1.042501e+02
  -1.933431e+02  -1.431271e+00
  -1.491515e+02  -1.346360e+02
   5.284404e+00  -1.853445e+02
   1.451643e+02  -1.263611e+02
   1.520207e+02  -3.667810e+00
   4.582663e+01   8.238189e+01
  -5.189433e+01   7.706483e+01
  -5.706152e+01   1.568705e+01
   3.498128e+00  -2.353787e+01
   3.811805e+01  -3.093241e+00
  -6.077485e+00   2.922788e+01
  -8.331901e+01   2.652222e+00
  -9.559344e+01  -9.077615e+01
  -1.755295e+00  -1.656702e+02
   1.388152e+02  -1.322473e+02
   2.158798e+02   6.573968e+00
   1.607963e+02   1.550896e+02
   1.759803e+01   2.035008e+02
  -1.007619e+02   1.326946e+02
  -1.182973e+02   1.886015e+01
  -6.419536e+01  -4.454200e+01
  -2.803371e+01  -3.102599e+01
  -4.877750e+01   4.786111e+00
  -7.921802e+01  -6.526151e-02
  -5.131155e+01  -5.882099e+01
   4.336055e+01  -9.853318e+01
   1.213107e+02  -5.735328e+01
   1.008101e+02   4.872072e+01
  -2.385081e+01   1.199119e+02
  -1.565886e+02   7.204555e+01
  -1.818121e+02  -7.534245e+01
  -5.659140e+01  -1.996377e+02
   1.321976e+02  -1.894879e+02
   2.446059e+02  -5.974248e+01
   2.092506e+02   9.084318e+01
   7.375616e+01   1.468089e+02
  -4.120437e+01   1.138483e+02
  -7.244386e+01   6.666537e+01
  -5.587594e+01   6.437995e+01
  -5.261718e+01   8.687676e+01
  -8.441751e+01   6.971693e+01
  -1.220166e+02  -2.035986e+01
  -1.027978e+02  -1.417395e+02
  -1.328208e+01  -2.013318e+02
   9.782699e+01  -1.407188e+02
   1.508479e+02   7.741226e-01
   1.026530e+02   1.188274e+02
  -3.315888e+00   1.378660e+02
  -7.277427e+01   6.512476e+01
  -5.619412e+01  -1.850636e+01
   8.576108e+00  -5.036520e+01
   2.849265e+01  -2.944730e+01
  -2.084713e+01  -8.325836e+00
  -7.521240e+01  -1.557687e+01
  -4.712568e+01  -3.875408e+01
   6.687608e+01  -3.749165e+01
   1.561571e+02   8.109458e+00
   1.277146e+02   6.770288e+01
  -5.594311e+00   9.050833e+01
  -1.256352e+02   5.872305e+01
  -1.326323e+02  -7.520827e+00
  -3.859728e+01  -5.219931e+01
   5.558744e+01  -4.157751e+01
   6.999169e+01   1.808202e+01
   1.747370e+01   6.953901e+01
  -4.145278e+01   6.037401e+01
  -6.064790e+01  -6.566854e-01
  -4.948848e+01  -4.837914e+01
  -3.944512e+01  -3.959844e+01
  -4.735974e+01  -6.343940e-01
  -5.943517e+01  -2.017213e+00
  -3.937187e+01  -6.894750e+01
   3.198770e+01  -1.385237e+02
   1.198238e+02  -1.257446e+02
   1.645152e+02  -2.164193e+01
   1.126213e+02   9.216883e+01
  -1.711297e+00   1.251389e+02
  -8.477839e+01   6.335251e+01
  -5.700911e+01  -1.205353e+01
   5.039273e+01  -1.809761e+01
   1.147416e+02   3.956863e+01
   5.645747e+01   9.750792e+01
  -7.011038e+01   9.192030e+01
  -1.649338e+02   2.964745e+01
  -1.362412e+02  -4.446315e+01
  -2.301951e+01  -7.817492e+01
   6.033020e+01  -4.872135e+01
   4.540952e+01   6.400664e+00
  -3.590498e+01   2.833287e+01
  -8.421626e+01  -1.939556e+01
  -3.737783e+01  -1.043896e+02
   6.818251e+01  -1.376622e+02
   1.391958e+02  -6.210873e+01
   1.123164e+02   8.089885e+01
   1.416342e+01   1.694452e+02
  -7.788163e+01   1.203804e+02
  -9.384944e+01  -1.509463e+01
  -4.453712e+01  -1.088716e+02
   1.906805e+01  -9.189590e+01
   4.919135e+01  -1.134244e+01
   3.706279e+01   2.921499e+01
   9.821027e+00   7.148649e+00
   6.657461e+00  -1.362698e+01
   3.028466e+01   2.089717e+01
   4.784034e+01   8.061384e+01
   1.968014e+01   9.118941e+01
  -5.326072e+01   3.705474e+01
  -1.167826e+02  -3.364858e+01
  -1.013839e+02  -6.693509e+01
  -1.474600e+01  -5.154437e+01
   6.919217e+01  -2.390159e+01
   7.658300e+01   7.353571e-01
   1.818987e+01   1.483921e+01
  -2.892232e+01   1.672048e+01
  -1.878039e+01   7.131755e+00
   1.203847e+01  -4.813499e+00
  -1.630429e+00  -2.528915e+00
  -5.438022e+01   3.004479e+00
  -8.037956e+01  -2.028049e+01
  -1.976265e+01  -7.212577e+01
   9.277749e+01  -9.911556e+01
   1.668059e+02  -5.358714e+01
   1.384500e+02   5.293697e+01
   2.843360e+01   1.416803e+02
  -7.493761e+01   1.388323e+02
  -1.069675e+02   5.932859e+01
  -6.954463e+01  -1.582026e+01
  -2.073389e+01  -3.242984e+01
  -2.836969e+00  -1.260897e+01
  -1.488672e+01  -9.292565e+00
  -2.472324e+01  -4.713259e+01
  -9.794908e+00  -8.278185e+01
   3.022377e+01  -6.195138e+01
   6.839646e+01   1.569483e+01
   6.708116e+01   9.042063e+01
   1.105743e+01   9.708387e+01
  -6.512619e+01   2.784304e+01
  -8.883683e+01  -5.887466e+01
  -3.290401e+01  -9.241770e+01
   6.057012e+01  -5.662583e+01
   9.448535e+01   9.280425e+00
   4.001034e+01   5.766451e+01
  -3.128991e+01   5.934933e+01
  -3.809491e+01   2.515868e+01
   1.963144e+01  -7.906186e+00
   5.799315e+01  -6.471649e+00
   1.707337e+01   2.579669e+01
  -6.764985e+01   5.505062e+01
  -1.083475e+02   4.022330e+01
  -6.509062e+01  -1.997859e+01
   1.254299e+01  -7.701287e+01
   5.716135e+01  -7.123746e+01
   4.584650e+01  -1.199683e+01
   6.230538e+00   4.547389e+01
  -2.324872e+01   4.473213e+01
  -3.405670e+01  -7.610362e+00
  -2.551050e+01  -4.964460e+01
   1.343442e+00  -3.937564e+01
   3.033437e+01   2.949477e+00
   3.805566e+01   2.544973e+01
   1.999714e+01   7.278931e+00
  -2.930745e+00  -1.755658e+01
  -4.713541e+00  -9.772028e+00
   6.087413e+00   2.824745e+01
   9.938696e-01   4.955610e+01
  -2.472121e+01   2.183586e+01
  -3.916417e+01  -2.957316e+01
  -1.267983e+01  -5.355553e+01
   3.455158e+01  -2.332530e+01
   5.459400e+01   3.005912e+01
   1.743216e+01   5.153763e+01
  -4.935501e+01   2.920371e+01
  -8.141956e+01  -1.135080e+01
  -4.482650e+01  -3.840489e+01
   2.499334e+01  -4.153922e+01
   5.863010e+01  -2.633295e+01
   2.876060e+01  -6.175644e+00
  -2.039077e+01   4.659456e+00
  -2.733500e+01  -3.664143e+00
   1.871973e+01  -2.188184e+01
   6.502417e+01  -1.654103e+01
