
 $NMID
 id='ANONYMOUS ', fmtdat='(2E16.6)'
 volume=1.0
 tramp=1.0
 $END
   6.371899e+02   1.473198e+02
   4.135219e+02   2.667229e+02
   1.260259e+02   3.444443e+02
  -1.505159e+02   3.995345e+02
  -1.829712e+02   2.025990e+02
  -2.062823e+01   2.073425e+01
   8.269149e+01  -1.252106e+01
   4.172010e+01   3.175681e+01
  -2.843671e+01   4.387070e+01
  -1.014277e+02   3.352559e+01
  -9.571352e+01  -5.915812e+01
  -5.155669e+01  -1.147032e+02
   3.644883e+01  -5.849928e+01
   7.431419e+01   4.064510e+01
   1.763091e+01   6.568706e+01
  -5.832287e+01   2.131318e+01
  -6.150410e+01  -6.965211e+01
   7.024822e+00  -1.031083e+02
   7.272980e+01  -5.982746e+01
   5.618591e+01   1.369973e+01
   1.425324e+01   4.676399e+01
  -2.076493e+01   5.379255e+01
  -1.229082e+01   3.746019e+01
   1.449761e+01   1.309397e+01
   3.269030e+01   2.540797e+00
   2.470142e+01   3.345702e+01
  -6.231794e+01   5.545078e+01
  -1.207709e+02   1.442225e+01
  -8.858699e+01  -3.860161e+01
   2.062935e+01  -5.594066e+01
   9.180532e+01  -1.155725e+01
   5.816858e+01   4.214326e+01
  -1.829161e+01   5.477930e+01
  -8.102204e+01   2.445372e+01
  -6.220226e+01   8.668808e-01
  -3.393309e+01  -2.803704e+01
  -1.836951e+01  -3.939831e+01
  -8.380282e+00   6.593967e+00
  -1.516303e+01   3.447079e+01
  -4.482899e+01   8.105428e+00
  -5.530279e+01  -7.876988e+01
  -3.061770e+00  -1.120595e+02
   4.775153e+01  -4.065324e+01
   4.020614e+01   5.450202e+01
  -9.731597e+00   4.451776e+01
  -3.725036e+01  -3.392434e+01
  -1.772412e+01  -6.020671e+01
   4.533580e+01  -2.253349e+01
   6.426175e+01   3.561228e+01
   4.187266e+01   7.295609e+01
  -3.067439e+01   4.878189e+01
  -8.790925e+01   1.752690e+01
  -7.717097e+01  -1.631346e+01
  -9.285544e+00  -4.745882e+01
   4.840982e+01  -1.434294e+01
   4.191191e+01   2.867400e+01
  -1.595285e+01   2.104473e+01
  -3.717960e+01  -1.439152e+01
   3.443459e+00  -2.675406e+01
   4.806001e+01  -4.732133e+00
   4.618126e+01   2.896185e+01
  -1.013963e+01   5.331712e+01
  -5.335161e+01   3.875256e+01
  -5.379412e+01   4.382901e+00
  -3.905586e+00  -3.719233e+01
   2.750639e+01  -4.653635e+01
   3.548251e+01  -2.908302e+01
   2.011720e+01   2.275075e+00
   1.646938e+01   4.210925e+01
   2.457356e+00   5.146139e+01
  -5.303368e+00   3.331187e+01
   8.275441e-01   1.203981e+01
  -6.617605e+00   1.141784e+01
  -2.146682e+01   1.272296e+01
  -3.492303e+01  -4.775863e-01
  -2.920518e+01  -1.829272e+01
   6.084571e-02  -2.032328e+01
   1.784037e+01   7.455890e+00
   2.710876e+01   2.846649e+01
   1.001238e+01   3.018774e+01
  -1.920281e+01   1.832678e+01
  -4.175901e+01  -7.150568e-01
  -4.112158e+01  -2.031719e+01
  -5.220710e+00  -2.780573e+01
   2.445368e+01  -2.209514e+01
   2.447603e+01  -5.867375e+00
   1.626312e+01  -5.854066e-01
   2.332058e+01  -4.666045e+00
   5.522313e+01   5.898139e+00
   5.513759e+01   3.085019e+01
   1.037166e+01   5.483499e+01
  -3.728504e+01   5.866976e+01
  -5.045529e+01   5.033202e+01
  -3.752314e+01   2.042000e+01
  -1.519392e+01  -1.923631e+01
   5.210924e+00  -3.993925e+01
  -3.248818e+00  -2.236475e+01
  -1.599602e+01   4.841839e+00
  -2.468246e+01  -2.725291e-01
  -8.976154e+00  -2.350148e+01
   1.471824e+01  -3.167418e+01
   2.816593e+01  -3.517902e+00
   6.706493e+00   2.547977e+01
  -1.802095e+01   6.541616e+00
  -2.504742e+01  -3.359866e+01
  -4.401658e+00  -5.060157e+01
   2.368359e+01  -2.685421e+01
   4.729884e+01   1.170457e+01
   4.964964e+01   2.703475e+01
   1.746023e+01   2.287045e+01
  -1.087353e+01   1.569533e+01
  -1.888417e+01   4.854168e+00
  -4.954112e+00   3.866625e+00
   1.001036e+01   3.832578e+00
   7.662143e+00   7.578464e+00
  -2.926054e+00   6.691421e+00
  -1.252058e+01  -2.527206e+00
  -4.677863e+00  -3.277498e+00
   8.074968e+00   1.624214e+00
   5.291150e+00   1.144503e+01
  -1.699326e+01   1.167768e+01
  -2.931020e+01  -2.805858e+00
  -2.795419e+01  -1.976147e+01
  -1.336448e+01  -3.175905e+01
   1.389664e+01  -3.339522e+01
   3.332030e+01  -2.539219e+01
   2.548191e+01  -3.425223e+00
   2.674937e+00   7.136604e+00
  -9.811205e+00   2.003822e+00
   1.462411e+00  -5.727521e+00
   1.926381e+01  -9.290811e+00
   2.707710e+01   6.853097e+00
   1.764124e+01   1.832007e+01
  -2.013608e-01   1.529493e+01
  -1.371199e+01   6.956673e+00
  -9.977076e+00  -7.464118e-01
   8.784926e-01   8.671311e-01
   6.865743e+00   8.462803e+00
  -2.195839e+00   8.872475e+00
  -1.955849e+01   4.500976e+00
  -2.436013e+01  -7.339194e+00
  -1.086553e+01  -2.149349e+01
   1.235682e+01  -2.417754e+01
   2.070357e+01  -1.328967e+01
   1.036491e+01   2.757415e+00
  -4.889597e+00   7.691903e+00
  -7.028211e+00   6.130303e+00
  -2.268276e-01   1.257376e+00
   1.205836e+00  -8.677872e-01
  -4.927056e+00  -1.716678e+00
  -1.136877e+01  -6.033211e+00
  -1.243628e+01  -1.116131e+01
  -3.768198e+00  -1.554221e+01
   1.026392e+01  -1.646377e+01
   2.490465e+01  -9.782562e+00
   2.793877e+01   7.007936e+00
   1.662155e+01   2.117428e+01
  -1.051192e-01   2.445398e+01
  -1.117487e+01   1.413125e+01
  -1.185223e+01   3.312597e+00
  -1.125241e+01  -5.376700e-01
  -1.202905e+01   4.923474e+00
  -1.231908e+01   4.844973e+00
  -5.959516e+00  -3.693488e+00
   5.605613e+00  -1.018897e+01
   1.219128e+01  -9.944436e+00
   1.048092e+01   8.711645e-01
  -1.904660e+00   1.331817e+01
  -1.715094e+01   1.464972e+01
  -2.349673e+01   5.138256e-01
  -1.501944e+01  -1.958897e+01
   9.390758e+00  -2.607005e+01
   2.929401e+01  -8.305143e+00
   2.982386e+01   1.002505e+01
   1.473062e+01   1.724387e+01
  -1.909369e+00   1.447960e+01
  -1.494962e+01   1.203543e+01
  -1.418315e+01   9.104034e+00
  -8.076355e+00   1.459204e+01
  -8.909082e+00   1.473474e+01
  -1.086503e+01   2.268635e+00
  -1.594507e+01  -1.632839e+01
  -1.352523e+01  -3.028252e+01
   2.526385e+00  -2.632152e+01
   1.644635e+01  -8.023019e+00
   2.197646e+01   9.440480e+00
   1.436937e+01   1.676614e+01
   2.337977e+00   1.370249e+01
  -3.542677e+00   5.816847e+00
   2.343951e-01  -8.070538e-02
   1.874536e+00  -2.738288e+00
  -5.419980e+00  -2.030164e+00
  -1.509641e+01   1.188579e+00
  -1.287286e+01   1.119290e+00
   5.516920e+00   9.667600e-01
   2.167422e+01  -7.808611e-01
   2.146928e+01  -2.814609e+00
   3.938792e+00   1.752365e+00
  -1.605306e+01   6.616758e+00
  -2.483346e+01   8.997017e+00
  -9.684396e+00   4.652914e+00
   9.153812e+00  -3.682192e+00
   1.255144e+01  -2.728165e+00
   5.002153e+00   4.401908e+00
  -3.052252e+00   7.124036e+00
  -6.708613e+00   3.765962e+00
  -9.687740e+00  -5.537154e+00
  -1.338942e+01  -6.112509e+00
  -1.096196e+01   1.470863e+00
  -7.965070e+00   1.257730e+00
  -6.560809e-01  -9.100428e+00
   8.557699e+00  -2.123437e+01
   1.594236e+01  -1.921390e+01
   1.732746e+01  -5.709672e+00
   1.358041e+01   5.457222e+00
  -1.526496e+00   8.343407e+00
  -1.312925e+01   5.282437e+00
  -6.515241e+00   7.586674e-01
   1.309957e+01  -2.887157e+00
   2.075597e+01   2.339102e+00
   1.100017e+01   6.970978e+00
  -1.755329e+01   4.866683e+00
  -3.127113e+01   4.206270e+00
  -1.922591e+01  -8.113669e-01
  -2.831834e+00  -6.715802e+00
   6.334222e+00  -8.361869e+00
   4.394617e+00  -5.046074e+00
  -3.924127e+00   3.566098e-01
  -9.722994e+00  -2.462214e+00
  -7.378634e+00  -1.379802e+01
   6.944959e+00  -2.236668e+01
   1.941437e+01  -1.468975e+01
   1.850554e+01   7.776206e+00
   8.494840e+00   2.256231e+01
  -2.773762e+00   2.118124e+01
  -8.914449e+00   4.666460e+00
  -9.799678e+00  -1.020955e+01
  -5.366230e+00  -1.188248e+01
   1.703703e+00  -3.341235e+00
   6.789270e+00   1.346575e+00
   4.338824e+00   6.783920e-01
  -9.630564e-01  -2.071514e+00
   1.173666e+00   3.265994e+00
   1.120008e+01   1.118461e+01
   1.109767e+01   1.121369e+01
  -3.644848e-01   3.126672e+00
  -1.902527e+01  -1.015348e+00
  -2.283154e+01  -1.680747e+00
  -7.266031e+00  -4.969511e-02
   6.739146e+00  -1.906542e+00
   9.101220e+00  -6.655693e+00
   3.352992e+00  -6.904446e+00
  -2.667681e+00   1.702076e+00
   1.128809e-01   5.052137e+00
   2.063727e+00   1.242267e+00
  -3.754475e+00  -1.766757e+00
  -1.286401e+01   6.656880e-01
  -1.427909e+01   1.110074e+00
  -2.757257e+00  -9.397401e+00
   1.560861e+01  -1.825896e+01
   2.385221e+01  -1.509785e+01
   2.037778e+01   2.974803e+00
   6.151446e+00   1.800693e+01
  -6.524271e+00   2.120909e+01
  -1.077283e+01   1.196395e+01
  -7.510378e+00   1.396050e+00
  -1.740950e+00  -1.490202e+00
   8.536626e-01  -1.872586e+00
  -1.479306e+00  -3.193257e+00
  -5.691637e+00  -7.191171e+00
  -4.174853e+00  -1.269109e+01
   2.831017e+00  -9.076964e+00
   1.073759e+01   1.805803e+00
   1.379232e+01   1.349281e+01
   4.527289e+00   1.492312e+01
  -9.100710e+00   5.016628e+00
  -1.696466e+01  -8.943672e+00
  -9.674886e+00  -1.442307e+01
   6.664791e+00  -7.833334e+00
   1.311431e+01   4.394152e-01
   5.169928e+00   5.769210e+00
  -4.945287e+00   8.942827e+00
  -6.071671e+00   5.158158e+00
   4.167768e+00  -1.982251e+00
   1.149077e+01  -2.990188e+00
   3.032250e+00   1.949668e+00
  -1.553103e+01   9.889952e+00
  -2.171085e+01   1.001299e+01
  -1.062473e+01  -6.589046e-01
   1.597099e+00  -1.272254e+01
   9.025905e+00  -1.533494e+01
   6.860163e+00  -5.149736e+00
   2.472953e+00   5.653954e+00
  -1.322595e+00   7.977856e+00
  -4.453457e+00  -9.256371e-01
  -5.436160e+00  -5.795766e+00
  -2.597558e+00  -4.502547e+00
   4.975896e+00  -2.977388e-01
   7.488743e+00   1.192056e+00
   4.289695e+00  -6.310539e-01
   1.316806e-02  -2.027694e+00
  -2.038477e+00   1.071712e+00
  -8.339128e-01   7.400074e+00
  -1.065190e+00   8.193481e+00
  -3.548585e+00   1.515396e+00
  -4.326730e+00  -6.364852e+00
  -8.419704e-01  -8.160466e+00
   4.326512e+00  -3.346551e+00
   6.703677e+00   4.319501e+00
   3.602096e+00   8.987254e+00
  -5.873455e+00   6.029401e+00
  -1.194825e+01   7.708644e-01
  -7.515213e+00  -4.057777e+00
   2.594899e+00  -6.238959e+00
   9.265974e+00  -5.787503e+00
   3.454030e+00  -2.653972e+00
  -4.822653e+00  -5.963969e-01
  -5.361997e+00   1.578376e+00
   4.446498e+00  -1.925580e+00
   9.797285e+00  -5.143885e+00
