
 $NMID
 id='ANONYMOUS ', fmtdat='(2E16.6)'
 volume=1.0
 tramp=1.0
 $END
   3.255907e+03   5.037483e+01
   1.945190e+03   1.754321e+03
  -1.967316e+02   1.891911e+03
  -1.245398e+03   8.679682e+02
  -8.015124e+02  -1.375620e+02
   1.887055e+02  -3.016119e+02
   5.110361e+02   2.415726e+02
   2.441917e+01   7.186227e+02
  -5.036728e+02   6.208145e+02
  -6.518862e+02  -1.567356e+01
  -3.607184e+02  -5.947121e+02
   9.546603e+01  -6.573516e+02
   4.015741e+02  -1.142009e+02
   2.726442e+02   5.015049e+02
  -1.352698e+02   5.562891e+02
  -4.064230e+02   3.274192e+01
  -2.355123e+02  -4.946121e+02
   1.865812e+02  -5.420222e+02
   4.493836e+02  -1.492446e+02
   3.700628e+02   2.376068e+02
   8.032371e+01   3.238591e+02
  -1.444976e+02   1.839068e+02
  -9.269777e+01   3.370455e+01
   1.442923e+02   4.249721e+01
   2.780417e+02   2.184545e+02
   3.844376e+01   3.470058e+02
  -3.990314e+02   2.192330e+02
  -5.827556e+02  -1.743360e+02
  -2.290149e+02  -3.817986e+02
   3.206082e+02  -2.464344e+02
   5.081946e+02   1.225208e+02
   1.989641e+02   3.713509e+02
  -2.594047e+02   3.488565e+02
  -4.257766e+02   1.171884e+02
  -2.787857e+02  -1.724731e+02
  -3.883554e+01  -3.083544e+02
   9.442352e+01  -1.671845e+02
   2.371267e+01   1.190658e+02
  -1.650287e+02   2.131900e+02
  -2.518755e+02  -9.669871e+01
  -7.982235e+01  -4.706024e+02
   2.357120e+02  -4.471920e+02
   3.609220e+02  -4.360698e+00
   1.455979e+02   3.264068e+02
  -1.745385e+02   1.563388e+02
  -2.020619e+02  -2.505505e+02
   8.822005e+01  -3.940150e+02
   4.199323e+02  -8.945228e+01
   4.629091e+02   3.195888e+02
   1.299973e+02   4.578138e+02
  -2.935943e+02   2.532245e+02
  -4.859725e+02  -6.507534e+01
  -3.085703e+02  -2.741970e+02
   6.983959e+01  -2.460267e+02
   2.841729e+02  -8.435467e+01
   1.984007e+02   4.268357e+01
  -2.678115e+01   2.142469e+01
  -7.837247e+01  -6.669125e+01
   1.040520e+02  -8.384029e+01
   2.375709e+02   4.236626e+01
   1.192793e+02   1.973820e+02
  -1.495936e+02   2.179363e+02
  -3.078817e+02   9.517435e+01
  -2.191392e+02  -9.996932e+01
   2.096792e+01  -2.697230e+02
   2.466933e+02  -3.246376e+02
   3.086362e+02  -1.581393e+02
   2.212746e+02   1.377109e+02
   5.674499e+01   3.297005e+02
  -4.526813e+01   2.953717e+02
  -4.273758e+01   1.312226e+02
  -3.255673e+01   6.190101e+01
  -1.002887e+02   9.798440e+01
  -2.190504e+02   6.700704e+01
  -2.249923e+02  -9.632704e+01
  -9.156388e+01  -2.406138e+02
   8.499709e+01  -1.943792e+02
   1.774092e+02   1.841581e+01
   1.323883e+02   2.158578e+02
  -3.640346e+01   2.328904e+02
  -2.239955e+02   6.737963e+01
  -2.844009e+02  -1.574870e+02
  -1.564491e+02  -2.854140e+02
   5.252886e+01  -2.449943e+02
   1.650503e+02  -1.189254e+02
   1.344566e+02  -4.398587e+01
   1.120857e+02  -5.192733e+01
   2.162289e+02  -3.975721e+01
   3.474382e+02   8.116215e+01
   2.679811e+02   2.732139e+02
  -3.048719e+01   3.869397e+02
  -3.361885e+02   3.317701e+02
  -4.329150e+02   1.396370e+02
  -2.670869e+02  -9.951337e+01
  -2.739108e+01  -2.352210e+02
   1.013218e+02  -1.796302e+02
   3.711983e+01  -2.972328e+01
  -9.711264e+01   5.415255e+01
  -1.368736e+02  -2.063034e+01
  -2.295844e+01  -1.400504e+02
   1.138669e+02  -1.073332e+02
   1.171846e+02   5.140210e+01
  -2.479291e+01   1.372232e+02
  -1.518961e+02   1.148056e+01
  -1.364755e+02  -2.095387e+02
   2.632975e+01  -2.978272e+02
   2.131267e+02  -1.744795e+02
   3.005345e+02   5.733213e+01
   2.384013e+02   2.239328e+02
   5.392981e+01   2.386722e+02
  -1.159385e+02   1.297444e+02
  -1.421677e+02   3.283144e+00
  -3.790917e+01  -2.265388e+01
   5.108763e+01   4.860015e+01
   4.347330e+00   1.049813e+02
  -1.113942e+02   7.074951e+01
  -1.386509e+02  -1.194205e+01
  -3.077456e+01  -5.189897e+01
   7.590425e+01   3.617455e+00
   4.104931e+01   7.766197e+01
  -1.222443e+02   7.820003e+01
  -2.602352e+02  -6.336259e+00
  -2.212275e+02  -1.311636e+02
  -2.950950e+01  -2.234873e+02
   1.732239e+02  -2.146997e+02
   2.318554e+02  -9.316699e+01
   1.230178e+02   4.721057e+01
  -2.811325e+01   8.174297e+01
  -5.834099e+01  -3.330020e+00
   4.461171e+01  -8.024208e+01
   1.633690e+02  -3.464131e+01
   1.642960e+02   1.007205e+02
   4.557492e+01   1.776227e+02
  -8.513985e+01   1.235532e+02
  -1.172037e+02   1.178881e+01
  -4.456556e+01  -3.947109e+01
   3.533625e+01   1.239638e+01
   2.562151e+01   9.171806e+01
  -8.105235e+01   1.012512e+02
  -1.801597e+02   9.725961e+00
  -1.580800e+02  -1.224617e+02
  -4.207348e+00  -1.871456e+02
   1.423658e+02  -1.295319e+02
   1.560205e+02  -3.182284e+00
   4.936433e+01   9.189499e+01
  -5.427105e+01   8.607156e+01
  -6.303808e+01   1.731115e+01
  -1.528826e+00  -2.526331e+01
   3.421512e+01  -9.884941e+00
  -4.170088e+00   2.010539e+01
  -7.021899e+01   2.091170e+00
  -8.492158e+01  -7.715602e+01
  -4.609671e+00  -1.503936e+02
   1.269207e+02  -1.328017e+02
   2.078785e+02  -6.921441e+00
   1.619229e+02   1.432639e+02
   2.609416e+01   2.030883e+02
  -9.197001e+01   1.392855e+02
  -1.130583e+02   2.123406e+01
  -6.256370e+01  -4.619408e+01
  -2.894698e+01  -2.994475e+01
  -4.850646e+01   1.132219e+01
  -7.329863e+01   7.090072e+00
  -4.509151e+01  -4.741355e+01
   3.504118e+01  -8.919265e+01
   1.048293e+02  -5.762191e+01
   9.182120e+01   4.126302e+01
  -1.537170e+01   1.143715e+02
  -1.429642e+02   7.540111e+01
  -1.809647e+02  -6.171153e+01
  -7.398695e+01  -1.890520e+02
   1.152321e+02  -1.943353e+02
   2.320581e+02  -6.626822e+01
   2.073803e+02   8.222372e+01
   8.133837e+01   1.500038e+02
  -3.655566e+01   1.193676e+02
  -7.367510e+01   6.766141e+01
  -5.955870e+01   6.097875e+01
  -5.206326e+01   8.248048e+01
  -8.351424e+01   6.641476e+01
  -1.174373e+02  -1.985735e+01
  -1.030510e+02  -1.365915e+02
  -1.650817e+01  -1.959147e+02
   9.339510e+01  -1.441326e+02
   1.519957e+02  -9.182356e+00
   1.087196e+02   1.129112e+02
   4.506195e+00   1.394771e+02
  -6.661573e+01   6.965795e+01
  -5.279003e+01  -1.229904e+01
   2.100816e+00  -4.454227e+01
   1.878204e+01  -2.835902e+01
  -2.887732e+01  -1.019873e+01
  -7.363441e+01  -1.545535e+01
  -3.998341e+01  -3.797088e+01
   6.216813e+01  -3.611976e+01
   1.443143e+02   4.304250e+00
   1.184700e+02   5.430535e+01
   5.915689e-01   8.058645e+01
  -1.106903e+02   5.956779e+01
  -1.209202e+02   2.408816e+00
  -3.868823e+01  -4.442328e+01
   5.128754e+01  -3.838637e+01
   6.627817e+01   1.896583e+01
   1.264226e+01   6.587926e+01
  -4.516094e+01   5.530393e+01
  -5.995885e+01  -2.199231e+00
  -4.606804e+01  -4.945408e+01
  -3.838782e+01  -4.165794e+01
  -4.793926e+01  -3.645699e+00
  -5.768161e+01  -2.446189e-01
  -3.695069e+01  -6.145863e+01
   2.563264e+01  -1.327737e+02
   1.109257e+02  -1.258850e+02
   1.571506e+02  -2.825598e+01
   1.124130e+02   8.812403e+01
   2.170239e+00   1.194765e+02
  -7.940538e+01   5.692838e+01
  -5.608131e+01  -1.544473e+01
   4.686659e+01  -2.132349e+01
   1.134359e+02   4.004736e+01
   6.250268e+01   1.000552e+02
  -6.463326e+01   9.619693e+01
  -1.553920e+02   3.157357e+01
  -1.310668e+02  -4.196582e+01
  -2.582284e+01  -7.556404e+01
   5.800083e+01  -5.088722e+01
   4.613008e+01   3.849410e+00
  -3.211666e+01   2.835996e+01
  -7.892056e+01  -1.939485e+01
  -3.135805e+01  -1.016783e+02
   7.331536e+01  -1.329714e+02
   1.400598e+02  -5.580940e+01
   1.071897e+02   8.599948e+01
   8.095770e+00   1.682466e+02
  -7.875008e+01   1.209333e+02
  -9.232823e+01  -1.503235e+01
  -4.534653e+01  -1.075366e+02
   1.363373e+01  -9.073161e+01
   4.524320e+01  -1.261614e+01
   4.221805e+01   2.879249e+01
   1.721107e+01   7.486352e+00
   6.764178e+00  -1.625904e+01
   2.485593e+01   1.858092e+01
   4.565396e+01   8.087316e+01
   2.574244e+01   9.207912e+01
  -4.880433e+01   3.544635e+01
  -1.144651e+02  -3.638559e+01
  -1.046661e+02  -6.381032e+01
  -1.401850e+01  -4.925887e+01
   7.317876e+01  -2.014001e+01
   7.672317e+01   5.541187e-01
   1.292257e+01   1.497186e+01
  -3.327812e+01   1.836197e+01
  -1.882902e+01   7.576378e+00
   1.477631e+01  -4.885273e+00
  -2.130926e+00  -4.969939e+00
  -5.673724e+01  -5.873531e-01
  -7.831616e+01  -2.301859e+01
  -1.342016e+01  -7.226787e+01
   1.001472e+02  -9.824367e+01
   1.685510e+02  -4.934455e+01
   1.295976e+02   5.965561e+01
   1.965414e+01   1.411978e+02
  -7.783880e+01   1.301369e+02
  -1.035149e+02   5.052500e+01
  -6.881633e+01  -1.925821e+01
  -2.038381e+01  -3.433947e+01
  -1.268636e-01  -1.176970e+01
  -1.054662e+01  -5.989307e+00
  -2.465885e+01  -4.208985e+01
  -1.266514e+01  -7.872323e+01
   2.860827e+01  -6.219085e+01
   7.062960e+01   1.552372e+01
   6.820587e+01   9.259159e+01
   6.789759e+00   9.599543e+01
  -6.903118e+01   2.391179e+01
  -9.083684e+01  -6.212297e+01
  -2.992559e+01  -9.006256e+01
   6.155795e+01  -5.315975e+01
   9.057229e+01   9.709274e+00
   3.694372e+01   5.191611e+01
  -3.035820e+01   5.098561e+01
  -3.298021e+01   2.273520e+01
   2.734713e+01  -3.948562e+00
   6.273100e+01  -3.138403e+00
   1.468652e+01   2.679110e+01
  -7.017606e+01   5.891790e+01
  -1.068061e+02   4.524184e+01
  -6.397522e+01  -1.524617e+01
   9.220578e+00  -7.465155e+01
   5.058973e+01  -7.178778e+01
   3.885711e+01  -9.139567e+00
   2.578253e+00   4.689631e+01
  -2.291283e+01   4.015823e+01
  -3.191725e+01  -1.295258e+01
  -2.209063e+01  -4.740052e+01
   2.911141e+00  -3.231126e+01
   2.942030e+01   7.046832e+00
   3.427644e+01   2.361875e+01
   1.777947e+01   4.623809e+00
  -1.086369e+00  -1.703034e+01
  -6.231490e+00  -5.781020e+00
   5.730559e-01   2.772497e+01
  -5.917812e+00   4.463499e+01
  -2.656910e+01   1.741028e+01
  -3.427223e+01  -3.225014e+01
  -7.788527e+00  -5.389081e+01
   3.686999e+01  -2.319460e+01
   5.582558e+01   3.063435e+01
   1.649240e+01   5.327335e+01
  -5.189959e+01   3.153662e+01
  -8.393263e+01  -1.084037e+01
  -4.469597e+01  -3.791762e+01
   2.471352e+01  -3.993722e+01
   5.521888e+01  -2.350215e+01
   2.242769e+01  -5.929491e+00
  -2.677056e+01   1.325771e+00
  -2.922752e+01  -8.694250e+00
   2.260134e+01  -2.561436e+01
   7.158011e+01  -1.677183e+01
