
 $NMID
 id='ANONYMOUS ', fmtdat='(2E16.6)'
 volume=1.0
 tramp=1.0
 $END
  -2.826591e+03   5.920527e+01
  -1.955176e+03  -1.279261e+03
  -1.739939e+02  -1.635683e+03
   9.228209e+02  -1.060933e+03
   8.066602e+02  -2.664643e+02
   1.488365e+02   1.808538e+02
  -2.746644e+02  -4.453500e+01
  -1.149434e+02  -4.378685e+02
   2.919535e+02  -4.994907e+02
   4.893120e+02  -9.403109e+01
   3.632852e+02   4.061631e+02
   3.466809e+01   5.203501e+02
  -2.243422e+02   1.505654e+02
  -2.005963e+02  -3.319980e+02
   8.550557e+01  -4.279708e+02
   3.278893e+02  -5.258870e+01
   2.564280e+02   4.163615e+02
  -1.014156e+02   5.540760e+02
  -4.038148e+02   2.692813e+02
  -4.111106e+02  -1.342588e+02
  -1.466366e+02  -2.799052e+02
   6.230335e+01  -1.773629e+02
   1.774195e+01  -5.866409e+01
  -1.909162e+02  -1.325343e+02
  -2.255313e+02  -3.191959e+02
   7.169780e+01  -3.372186e+02
   4.326623e+02  -8.967458e+01
   4.793932e+02   2.322307e+02
   1.307562e+02   3.175879e+02
  -3.051430e+02   1.293437e+02
  -3.987606e+02  -1.691732e+02
  -1.126215e+02  -3.137524e+02
   2.668393e+02  -2.592859e+02
   3.849853e+02  -7.149241e+01
   2.347437e+02   1.569107e+02
   4.440181e+01   2.509575e+02
  -2.799242e+01   1.390316e+02
   7.639837e+01  -5.268604e+01
   1.865925e+02  -6.928233e+01
   1.449738e+02   1.715496e+02
  -7.098278e+01   4.152389e+02
  -2.826741e+02   3.255670e+02
  -2.558970e+02  -3.035411e+01
  -5.267240e+01  -2.439993e+02
   1.241621e+02  -7.495570e+01
   1.031514e+02   2.294036e+02
  -1.250722e+02   3.111897e+02
  -3.713572e+02   3.217176e+01
  -3.675746e+02  -3.225933e+02
  -8.921760e+01  -4.243937e+02
   2.768733e+02  -2.185694e+02
   4.446533e+02   7.171646e+01
   2.803823e+02   2.195859e+02
  -2.801422e+01   1.847379e+02
  -2.103254e+02   7.514050e+01
  -1.694300e+02   6.225776e+00
  -2.633199e+01   1.022753e+01
   1.819429e+01   3.205510e+01
  -8.635446e+01   3.057645e+01
  -1.783106e+02  -4.357811e+01
  -9.521513e+01  -1.668538e+02
   1.387224e+02  -2.213908e+02
   3.208465e+02  -1.189954e+02
   2.450884e+02   1.158729e+02
  -3.320707e+01   3.046683e+02
  -2.925946e+02   3.175173e+02
  -3.298174e+02   1.052354e+02
  -1.789906e+02  -1.633024e+02
  -2.588596e+01  -2.970986e+02
   2.584498e+01  -2.595403e+02
   6.865502e-01  -1.523166e+02
   4.014246e+01  -1.170785e+02
   1.560588e+02  -1.093525e+02
   2.475329e+02  -1.757537e+01
   2.054143e+02   1.397155e+02
   4.914307e+01   2.376130e+02
  -9.903983e+01   1.551212e+02
  -1.554558e+02  -5.981175e+01
  -8.953020e+01  -2.303126e+02
   6.772825e+01  -2.117055e+02
   2.256576e+02  -2.801119e+01
   2.572624e+02   1.731070e+02
   1.305180e+02   2.587605e+02
  -4.282486e+01   2.147022e+02
  -1.406909e+02   1.319168e+02
  -1.352975e+02   7.858223e+01
  -1.472602e+02   6.441502e+01
  -2.615992e+02   1.079755e+01
  -3.669016e+02  -1.219024e+02
  -2.727012e+02  -3.025875e+02
   4.653256e+01  -4.035172e+02
   3.623490e+02  -3.511484e+02
   4.376652e+02  -1.322513e+02
   2.464336e+02   1.035360e+02
   6.757982e+00   2.172351e+02
  -8.115480e+01   1.496175e+02
   7.903720e+00   2.462096e+01
   1.096204e+02  -1.724950e+01
   1.007693e+02   5.020236e+01
  -1.247013e+01   1.119055e+02
  -1.023981e+02   6.540640e+01
  -7.931016e+01  -5.752563e+01
   3.317261e+01  -1.022957e+02
   1.396062e+02   1.686457e+01
   1.269114e+02   2.139733e+02
  -3.548904e+01   3.000752e+02
  -2.370018e+02   1.770020e+02
  -3.286589e+02  -7.049894e+01
  -2.395242e+02  -2.500805e+02
  -3.612204e+01  -2.583430e+02
   1.213944e+02  -1.197747e+02
   1.207104e+02   3.266258e+00
   2.024740e+01   1.319705e+01
  -3.838794e+01  -6.468063e+01
   1.782544e+01  -1.046713e+02
   1.140728e+02  -5.182136e+01
   1.165597e+02   2.578363e+01
   1.486830e+01   4.500765e+01
  -7.481975e+01  -2.144486e+01
  -2.528099e+01  -8.749931e+01
   1.444033e+02  -7.118385e+01
   2.725429e+02   3.868202e+01
   2.175630e+02   1.667429e+02
  -7.652808e-02   2.421676e+02
  -2.067861e+02   2.066075e+02
  -2.400130e+02   7.238141e+01
  -1.097826e+02  -4.656851e+01
   3.389399e+01  -6.394250e+01
   4.562699e+01   1.376642e+01
  -6.126039e+01   6.878911e+01
  -1.667257e+02   1.731452e+01
  -1.558932e+02  -9.980617e+01
  -3.603603e+01  -1.665947e+02
   8.348279e+01  -1.108558e+02
   1.065337e+02  -3.506643e+00
   2.876220e+01   3.602104e+01
  -4.397351e+01  -2.897280e+01
  -1.661818e+01  -1.106908e+02
   1.032230e+02  -1.062121e+02
   1.962753e+02   6.974889e+00
   1.531433e+02   1.413537e+02
  -7.782802e+00   1.898524e+02
  -1.480702e+02   1.225319e+02
  -1.505194e+02  -1.792459e+00
  -4.117879e+01  -8.377747e+01
   5.472412e+01  -6.993958e+01
   5.660521e+01  -1.037748e+01
  -6.356912e+00   2.474070e+01
  -3.949697e+01   8.020424e-01
   8.049154e+00  -3.069534e+01
   8.545600e+01  -2.063222e+00
   9.648109e+01   9.076212e+01
  -3.805393e-01   1.662727e+02
  -1.419348e+02   1.342139e+02
  -2.171156e+02  -8.771118e+00
  -1.584289e+02  -1.573799e+02
  -1.303398e+01  -2.035703e+02
   1.029114e+02  -1.302007e+02
   1.159779e+02  -1.717598e+01
   6.141183e+01   4.533155e+01
   2.590106e+01   3.011670e+01
   4.822738e+01  -8.212535e+00
   8.063052e+01  -3.929730e+00
   5.523028e+01   5.624071e+01
  -4.013396e+01   1.012017e+02
  -1.219043e+02   6.203126e+01
  -1.018659e+02  -4.817309e+01
   2.569744e+01  -1.230824e+02
   1.597042e+02  -7.515410e+01
   1.830972e+02   7.760104e+01
   5.613436e+01   2.033953e+02
  -1.336464e+02   1.907367e+02
  -2.404732e+02   5.312009e+01
  -2.033468e+02  -9.164461e+01
  -7.503200e+01  -1.475124e+02
   4.222034e+01  -1.144345e+02
   7.564303e+01  -6.557643e+01
   5.655749e+01  -6.301145e+01
   4.898853e+01  -8.315470e+01
   8.248806e+01  -6.998924e+01
   1.224249e+02   1.938758e+01
   1.075318e+02   1.421517e+02
   1.417443e+01   2.029243e+02
  -1.003129e+02   1.413244e+02
  -1.530999e+02  -3.639237e+00
  -1.017518e+02  -1.242654e+02
   8.549909e+00  -1.385894e+02
   7.584874e+01  -6.176655e+01
   5.486994e+01   2.375087e+01
  -1.169983e+01   5.314448e+01
  -3.140859e+01   2.899127e+01
   2.216246e+01   7.044385e+00
   7.717942e+01   1.531826e+01
   4.284157e+01   4.164941e+01
  -6.915570e+01   3.765801e+01
  -1.546096e+02  -1.025412e+01
  -1.213859e+02  -6.838598e+01
   9.614954e+00  -9.286148e+01
   1.264109e+02  -6.077972e+01
   1.312820e+02   9.919333e+00
   3.642612e+01   5.692379e+01
  -5.404215e+01   4.058942e+01
  -7.035317e+01  -2.091522e+01
  -1.706188e+01  -6.988861e+01
   4.124041e+01  -5.825345e+01
   6.045884e+01   3.026917e+00
   4.915034e+01   4.698297e+01
   3.775645e+01   3.502577e+01
   4.665915e+01  -2.177459e+00
   5.921605e+01   2.548232e+00
   4.041415e+01   7.101270e+01
  -3.088165e+01   1.393915e+02
  -1.226208e+02   1.243577e+02
  -1.663828e+02   1.920543e+01
  -1.125903e+02  -9.497665e+01
   5.407499e+00  -1.233509e+02
   8.656112e+01  -5.801762e+01
   5.422711e+01   1.628041e+01
  -5.594942e+01   2.092763e+01
  -1.186654e+02  -3.936878e+01
  -5.748999e+01  -9.819113e+01
   7.257613e+01  -9.214664e+01
   1.621017e+02  -2.924440e+01
   1.350924e+02   4.267584e+01
   2.651680e+01   7.725165e+01
  -5.660231e+01   4.973750e+01
  -4.279274e+01  -4.663199e+00
   3.662296e+01  -2.596594e+01
   8.230139e+01   2.056407e+01
   3.396836e+01   1.030677e+02
  -7.187769e+01   1.345105e+02
  -1.392567e+02   6.107681e+01
  -1.110827e+02  -8.052939e+01
  -1.098373e+01  -1.696609e+02
   7.806775e+01  -1.213434e+02
   9.413022e+01   1.602373e+01
   4.214998e+01   1.093998e+02
  -2.049443e+01   9.019295e+01
  -5.090723e+01   9.053010e+00
  -3.666817e+01  -3.054627e+01
  -1.013089e+01  -6.731812e+00
  -6.426247e+00   1.478490e+01
  -3.067457e+01  -2.138094e+01
  -4.800699e+01  -8.236441e+01
  -2.121761e+01  -9.295436e+01
   5.515850e+01  -3.754830e+01
   1.185502e+02   3.474491e+01
   1.014200e+02   6.918410e+01
   1.304762e+01   5.755812e+01
  -7.172475e+01   2.335190e+01
  -7.676072e+01  -2.040863e+00
  -1.701336e+01  -1.731780e+01
   2.932922e+01  -1.874839e+01
   1.896596e+01  -6.847292e+00
  -1.114257e+01   4.959321e+00
   3.233230e+00   1.992463e+00
   5.807538e+01  -4.559083e+00
   8.385091e+01   2.135608e+01
   2.255534e+01   7.564496e+01
  -9.524505e+01   1.076694e+02
  -1.712348e+02   5.877353e+01
  -1.402574e+02  -5.151573e+01
  -3.122417e+01  -1.429780e+02
   7.344039e+01  -1.434864e+02
   1.059160e+02  -6.210765e+01
   7.029209e+01   1.573096e+01
   2.250551e+01   3.573832e+01
   4.621182e+00   1.421372e+01
   1.533836e+01   9.362950e+00
   2.409391e+01   4.726825e+01
   9.623930e+00   8.256599e+01
  -3.164921e+01   6.318925e+01
  -7.033255e+01  -1.338624e+01
  -7.112755e+01  -8.911376e+01
  -1.346997e+01  -9.831199e+01
   6.613365e+01  -3.004063e+01
   9.466119e+01   5.833324e+01
   3.575276e+01   9.280941e+01
  -6.081241e+01   5.840418e+01
  -9.510500e+01  -9.624529e+00
  -3.944541e+01  -5.912681e+01
   3.263806e+01  -5.913841e+01
   3.821274e+01  -2.430115e+01
  -1.875906e+01   8.540879e+00
  -5.773740e+01   5.884989e+00
  -1.385297e+01  -2.605346e+01
   7.036600e+01  -5.683585e+01
   1.064750e+02  -3.975742e+01
   6.310367e+01   2.114803e+01
  -1.290086e+01   7.892868e+01
  -5.777792e+01   7.312402e+01
  -4.510472e+01   9.407555e+00
  -6.384141e+00  -4.767976e+01
   2.217584e+01  -4.427499e+01
   3.205989e+01   9.133753e+00
   2.264150e+01   4.869072e+01
  -2.816193e+00   3.558953e+01
  -2.947466e+01  -6.376072e+00
  -3.451423e+01  -2.702171e+01
  -1.660827e+01  -6.624936e+00
   4.128333e+00   2.068872e+01
   4.975095e+00   1.186977e+01
  -6.088818e+00  -2.647212e+01
  -1.878798e-01  -4.954430e+01
   2.655311e+01  -2.267386e+01
   4.024121e+01   3.070393e+01
   1.445379e+01   5.564596e+01
  -3.596833e+01   2.444371e+01
  -5.911616e+01  -3.081160e+01
  -1.815952e+01  -5.280432e+01
   5.396171e+01  -3.071084e+01
   8.533547e+01   1.296890e+01
   4.393426e+01   3.987795e+01
  -2.702196e+01   4.042334e+01
  -5.792370e+01   2.391479e+01
  -2.716508e+01   5.163056e+00
   2.388713e+01  -3.569933e+00
   2.883541e+01   6.219670e+00
  -1.954587e+01   2.356687e+01
  -6.742180e+01   1.692683e+01
