
 $NMID
 id='ANONYMOUS ', fmtdat='(2E16.6)'
 volume=1.0
 tramp=1.0
 $END
  -2.629867e+03  -2.460944e+02
  -1.516234e+03  -1.631461e+03
   3.550876e+02  -1.828127e+03
   1.255717e+03  -8.786413e+02
   7.743413e+02   2.434698e+01
  -9.596000e+01   1.972287e+02
  -3.374353e+02  -1.505675e+02
   5.711043e+01  -5.301586e+02
   4.811288e+02  -5.034519e+02
   5.755035e+02  -8.557292e+00
   3.123502e+02   4.963275e+02
  -7.031862e+01   5.569270e+02
  -2.922332e+02   8.883194e+01
  -1.819066e+02  -4.326251e+02
   1.452413e+02  -4.801066e+02
   3.377997e+02  -3.285349e+01
   2.015050e+02   4.234492e+02
  -1.403460e+02   4.796223e+02
  -3.746125e+02   1.694387e+02
  -3.258910e+02  -1.957025e+02
  -7.548201e+01  -3.057450e+02
   1.371120e+02  -1.880345e+02
   8.752134e+01  -3.232858e+01
  -1.475045e+02  -4.941503e+01
  -2.595996e+02  -2.316121e+02
  -8.568576e+00  -3.366510e+02
   4.113074e+02  -1.813028e+02
   5.320253e+02   1.681719e+02
   1.929899e+02   3.404654e+02
  -3.053620e+02   1.884596e+02
  -4.473489e+02  -1.337192e+02
  -1.724096e+02  -3.358737e+02
   2.365516e+02  -3.152259e+02
   3.996172e+02  -1.138089e+02
   2.707351e+02   1.584143e+02
   5.821232e+01   2.846754e+02
  -6.233227e+01   1.513246e+02
   5.373213e+00  -1.074471e+02
   1.605524e+02  -1.713652e+02
   2.037097e+02   1.158152e+02
   3.151841e+01   4.290249e+02
  -2.366425e+02   3.792447e+02
  -3.076007e+02  -2.249526e+01
  -1.079546e+02  -2.851788e+02
   1.487723e+02  -1.141427e+02
   1.614735e+02   2.431746e+02
  -1.228552e+02   3.229451e+02
  -3.853332e+02   1.790667e+01
  -4.283588e+02  -3.416483e+02
  -1.229389e+02  -4.184947e+02
   2.729035e+02  -2.176681e+02
   4.453559e+02   5.800212e+01
   2.759517e+02   2.184737e+02
  -6.972004e+01   1.964531e+02
  -2.602357e+02   5.138350e+01
  -1.675801e+02  -4.838007e+01
   2.695674e+01  -1.744131e+01
   5.696180e+01   6.242799e+01
  -1.040909e+02   6.073875e+01
  -1.998156e+02  -4.979146e+01
  -8.476514e+01  -1.637934e+02
   1.265213e+02  -1.811547e+02
   2.626284e+02  -9.312721e+01
   1.944178e+02   8.033310e+01
  -9.896467e+00   2.470518e+02
  -2.278529e+02   2.964201e+02
  -3.011758e+02   1.292578e+02
  -2.044693e+02  -1.445254e+02
  -2.638364e+01  -2.919121e+02
   5.196112e+01  -2.484042e+02
   2.746309e+01  -1.059123e+02
   1.994509e+01  -6.695426e+01
   1.016308e+02  -9.654754e+01
   2.083191e+02  -5.591326e+01
   2.107679e+02   1.074194e+02
   7.683939e+01   2.265764e+02
  -8.876686e+01   1.684624e+02
  -1.727446e+02  -2.703749e+01
  -1.182592e+02  -2.047085e+02
   4.467250e+01  -2.106535e+02
   2.135300e+02  -4.921560e+01
   2.549103e+02   1.601863e+02
   1.249228e+02   2.641341e+02
  -6.092843e+01   2.250565e+02
  -1.456448e+02   1.175051e+02
  -1.188746e+02   4.901147e+01
  -1.131038e+02   4.828658e+01
  -2.142596e+02   3.323798e+01
  -3.217635e+02  -6.945617e+01
  -2.439019e+02  -2.426753e+02
   2.609406e+01  -3.590307e+02
   3.099058e+02  -3.122237e+02
   3.856397e+02  -1.254940e+02
   2.367572e+02   9.155696e+01
   1.200833e+01   2.133987e+02
  -9.147210e+01   1.603516e+02
  -1.516407e+01   2.446998e+01
   1.087211e+02  -3.745725e+01
   1.210830e+02   4.091431e+01
  -9.750035e-01   1.323028e+02
  -1.119359e+02   9.123243e+01
  -9.668801e+01  -4.942358e+01
   3.043532e+01  -1.134777e+02
   1.364459e+02   1.555908e+00
   1.148322e+02   1.912547e+02
  -3.138650e+01   2.723904e+02
  -1.965284e+02   1.639862e+02
  -2.735466e+02  -5.587872e+01
  -2.091931e+02  -2.225726e+02
  -3.641141e+01  -2.223175e+02
   1.134862e+02  -1.054118e+02
   1.283043e+02   5.234758e+00
   3.112263e+01   1.632058e+01
  -4.318965e+01  -5.201671e+01
   4.133304e+00  -9.483621e+01
   1.064992e+02  -4.994977e+01
   1.314559e+02   2.386862e+01
   2.691387e+01   4.711699e+01
  -6.969351e+01  -1.211482e+01
  -3.187867e+01  -7.948220e+01
   1.270842e+02  -7.300053e+01
   2.504093e+02   1.975664e+01
   2.086644e+02   1.433047e+02
   2.194247e+01   2.153191e+02
  -1.769259e+02   1.854144e+02
  -2.230169e+02   6.947917e+01
  -1.072650e+02  -4.808762e+01
   3.112205e+01  -6.942706e+01
   6.212938e+01   7.435004e+00
  -3.956989e+01   6.853507e+01
  -1.540046e+02   2.401982e+01
  -1.516774e+02  -9.496189e+01
  -3.708286e+01  -1.590149e+02
   8.265439e+01  -1.097143e+02
   1.093667e+02  -7.928944e+00
   3.746748e+01   3.770280e+01
  -3.545781e+01  -1.292980e+01
  -2.372185e+01  -9.051537e+01
   7.935899e+01  -9.851105e+01
   1.730204e+02  -1.019563e+01
   1.466965e+02   1.139230e+02
   3.650686e+00   1.725832e+02
  -1.299283e+02   1.203958e+02
  -1.429806e+02   2.444057e+00
  -3.941569e+01  -8.284419e+01
   5.575741e+01  -7.981288e+01
   5.702539e+01  -1.640174e+01
  -1.172486e-01   2.327966e+01
  -3.143806e+01   1.025279e+01
   6.033144e+00  -1.839147e+01
   6.879616e+01  -1.082679e+00
   8.058265e+01   7.171839e+01
   4.551400e+00   1.396020e+02
  -1.190033e+02   1.183602e+02
  -1.950640e+02   1.469656e+00
  -1.511769e+02  -1.380582e+02
  -1.861249e+01  -1.917066e+02
   9.311593e+01  -1.262769e+02
   1.064716e+02  -1.673136e+01
   5.671229e+01   4.230112e+01
   2.456937e+01   2.679658e+01
   4.381949e+01  -1.010697e+01
   7.046529e+01  -4.071589e+00
   4.370021e+01   4.685156e+01
  -3.439870e+01   8.542884e+01
  -9.920435e+01   5.443918e+01
  -8.530744e+01  -3.651638e+01
   1.310054e+01  -1.038747e+02
   1.303925e+02  -7.017724e+01
   1.630460e+02   5.848147e+01
   6.552949e+01   1.734758e+02
  -1.030108e+02   1.789433e+02
  -2.146786e+02   6.011662e+01
  -1.923650e+02  -8.081195e+01
  -7.517199e+01  -1.406860e+02
   4.082981e+01  -1.131970e+02
   7.527699e+01  -6.055013e+01
   5.704502e+01  -4.885082e+01
   4.748560e+01  -7.333597e+01
   7.557803e+01  -6.145631e+01
   1.072026e+02   1.763744e+01
   9.348780e+01   1.270971e+02
   1.226353e+01   1.840151e+02
  -8.935962e+01   1.314887e+02
  -1.415595e+02   4.096063e+00
  -9.600024e+01  -1.078586e+02
   8.345961e-01  -1.273941e+02
   6.923449e+01  -6.383192e+01
   5.422602e+01   1.549669e+01
  -1.637034e+00   4.691004e+01
  -2.415913e+01   3.162597e+01
   1.788725e+01   9.855209e+00
   6.420578e+01   1.431950e+01
   3.691593e+01   3.442225e+01
  -5.873700e+01   3.011697e+01
  -1.378868e+02  -7.304551e+00
  -1.111537e+02  -5.735834e+01
   4.694623e+00  -8.127514e+01
   1.105158e+02  -5.633234e+01
   1.189206e+02   2.504273e+00
   3.892756e+01   4.347548e+01
  -4.669424e+01   3.631276e+01
  -6.128212e+01  -1.722746e+01
  -1.266889e+01  -5.798191e+01
   3.967023e+01  -5.144282e+01
   5.651156e+01  -2.508220e+00
   4.866700e+01   4.001720e+01
   4.283280e+01   3.815320e+01
   4.766234e+01   7.925679e+00
   5.493119e+01   8.091034e+00
   3.508724e+01   6.218325e+01
  -2.930935e+01   1.237498e+02
  -1.106897e+02   1.156297e+02
  -1.491749e+02   1.985731e+01
  -9.964802e+01  -8.337982e+01
   4.847554e+00  -1.076639e+02
   7.668590e+01  -5.293996e+01
   5.071442e+01   1.109768e+01
  -4.928465e+01   1.789465e+01
  -1.059460e+02  -3.796377e+01
  -5.227956e+01  -9.146225e+01
   7.422067e+01  -9.076798e+01
   1.528936e+02  -2.650642e+01
   1.271147e+02   3.982374e+01
   2.325867e+01   7.072555e+01
  -5.374056e+01   4.992020e+01
  -3.836856e+01   7.563954e-01
   3.234508e+01  -2.405955e+01
   6.961332e+01   1.899565e+01
   2.332972e+01   9.064174e+01
  -7.274170e+01   1.177439e+02
  -1.281192e+02   4.627174e+01
  -1.001646e+02  -7.820806e+01
  -7.932351e+00  -1.544706e+02
   7.141813e+01  -1.134984e+02
   8.725185e+01   9.921875e+00
   4.503717e+01   9.944931e+01
  -1.098999e+01   8.332503e+01
  -4.134330e+01   1.200209e+01
  -3.590510e+01  -2.731010e+01
  -1.687490e+01  -4.654831e+00
  -8.279323e+00   1.705136e+01
  -2.618896e+01  -1.681090e+01
  -4.240823e+01  -7.672479e+01
  -2.275115e+01  -8.717880e+01
   4.451790e+01  -3.246921e+01
   1.031126e+02   3.317251e+01
   9.451896e+01   5.775026e+01
   1.553193e+01   3.931764e+01
  -6.370614e+01   1.595739e+01
  -6.849287e+01   1.163325e+00
  -1.375316e+01  -9.093384e+00
   2.898402e+01  -1.617736e+01
   1.746512e+01  -1.117162e+01
  -1.199683e+01   1.187189e+00
   3.310280e+00   3.360474e+00
   5.570684e+01   9.036057e-01
   7.635532e+01   2.090179e+01
   1.658740e+01   6.711673e+01
  -8.859658e+01   9.533385e+01
  -1.536696e+02   5.351180e+01
  -1.213986e+02  -4.753820e+01
  -2.385202e+01  -1.285500e+02
   6.630177e+01  -1.248616e+02
   9.554932e+01  -4.922364e+01
   6.849819e+01   1.815151e+01
   2.070245e+01   3.025884e+01
   1.743177e+00   7.793869e+00
   1.130055e+01   5.334539e+00
   2.420769e+01   4.115242e+01
   1.335935e+01   7.605583e+01
  -2.450242e+01   5.649158e+01
  -6.356273e+01  -1.682333e+01
  -6.174915e+01  -8.578161e+01
  -7.974907e+00  -8.783121e+01
   6.088646e+01  -2.240683e+01
   8.361812e+01   5.609052e+01
   2.779818e+01   8.121189e+01
  -5.370580e+01   4.737322e+01
  -8.039341e+01  -7.607339e+00
  -3.415118e+01  -4.459680e+01
   2.796138e+01  -4.628697e+01
   3.169355e+01  -2.371301e+01
  -2.202901e+01   9.633458e-02
  -5.693617e+01   2.720257e+00
  -1.494766e+01  -2.137998e+01
   6.365706e+01  -4.901428e+01
   9.783809e+01  -3.948287e+01
   5.548443e+01   1.224690e+01
  -1.332691e+01   6.344480e+01
  -5.045174e+01   6.269005e+01
  -3.395582e+01   9.244390e+00
  -1.598936e+00  -4.315056e+01
   2.067291e+01  -3.728450e+01
   2.699602e+01   1.092341e+01
   1.832170e+01   4.497914e+01
  -4.052423e+00   3.050777e+01
  -2.712393e+01  -6.449629e+00
  -3.191781e+01  -2.272692e+01
  -1.628093e+01  -5.586894e+00
   2.179314e+00   1.511358e+01
   5.932485e+00   5.393039e+00
  -2.068720e+00  -2.617322e+01
   1.892596e+00  -4.163275e+01
   2.197247e+01  -1.634755e+01
   3.192379e+01   2.838942e+01
   9.059115e+00   4.922570e+01
  -3.254587e+01   2.057568e+01
  -5.178774e+01  -2.805244e+01
  -1.650928e+01  -5.082708e+01
   4.702521e+01  -2.964379e+01
   7.707375e+01   1.154474e+01
   4.001693e+01   3.741763e+01
  -2.288483e+01   3.615706e+01
  -5.257297e+01   2.038845e+01
  -2.262808e+01   4.522035e+00
   2.178400e+01  -9.663239e-01
   2.431775e+01   6.490693e+00
  -2.162260e+01   2.023342e+01
  -6.517022e+01   1.429675e+01
