
 $NMID
 id='ANONYMOUS ', fmtdat='(2E16.6)'
 volume=1.0
 tramp=1.0
 $END
   1.656437e+03  -2.737115e+02
   1.116071e+03   6.751861e+02
   1.044684e+02   9.290190e+02
  -5.291279e+02   6.686167e+02
  -3.529085e+02   2.524088e+02
  -2.260827e-01   6.980512e+01
   1.098006e+02   6.686372e+01
  -3.751853e+01   2.214649e+02
  -2.378773e+02   2.720532e+02
  -2.876927e+02   8.760901e+01
  -2.298783e+02  -1.956433e+02
  -5.370827e+01  -2.907285e+02
   1.090943e+02  -1.061219e+02
   1.005752e+02   1.923408e+02
  -5.083519e+01   2.824233e+02
  -1.819636e+02   8.243278e+01
  -1.675083e+02  -1.950205e+02
   6.116712e+00  -2.929680e+02
   1.703567e+02  -1.683901e+02
   2.130488e+02   3.142005e+01
   1.008415e+02   1.601377e+02
  -1.202531e+01   1.369836e+02
  -1.703534e+01   5.549954e+01
   1.036344e+02   4.356477e+01
   1.455515e+02   1.300049e+02
   5.522321e+00   1.946244e+02
  -2.068241e+02   1.039723e+02
  -2.857171e+02  -5.120610e+01
  -1.023648e+02  -1.451043e+02
   1.439929e+02  -9.327051e+01
   2.480663e+02   4.835720e+01
   1.109935e+02   1.622758e+02
  -9.222356e+01   1.845593e+02
  -1.889951e+02   1.054060e+02
  -1.693167e+02  -5.238044e+01
  -6.585175e+01  -1.347172e+02
  -8.126763e+00  -6.774364e+01
  -2.857963e+01   5.356314e+01
  -8.506672e+01   8.537024e+01
  -1.058699e+02  -6.180951e+01
  -3.175062e+01  -2.539016e+02
   8.946307e+01  -2.352911e+02
   1.648741e+02  -1.685712e+01
   1.121448e+02   1.503480e+02
  -4.060671e+01   8.219059e+01
  -8.639673e+01  -1.093003e+02
   4.254358e+01  -1.782448e+02
   2.173556e+02  -4.424449e+01
   2.850457e+02   1.580958e+02
   1.263357e+02   2.377399e+02
  -1.227319e+02   1.569653e+02
  -2.648484e+02   1.230751e+01
  -1.843567e+02  -9.317940e+01
   1.545016e+01  -1.134869e+02
   1.475317e+02  -4.994246e+01
   1.119646e+02   3.442109e+00
   5.529052e-01   6.900164e+00
  -8.858643e+00  -1.940311e+01
   5.952953e+01  -2.397980e+01
   1.095371e+02   2.422607e+01
   5.559202e+01   8.758917e+01
  -5.941792e+01   1.169926e+02
  -1.431450e+02   8.885364e+01
  -1.327638e+02  -1.731742e+01
  -1.849424e+01  -1.513708e+02
   1.150856e+02  -2.163614e+02
   1.756753e+02  -1.148842e+02
   1.388837e+02   7.023750e+01
   4.968800e+01   1.771529e+02
  -2.253840e+00   1.610671e+02
   1.328872e+01   8.269137e+01
   1.406148e+00   6.120057e+01
  -6.429516e+01   7.082213e+01
  -1.283885e+02   4.112412e+01
  -1.211918e+02  -5.207687e+01
  -5.502188e+01  -1.216775e+02
   4.115506e+01  -1.022565e+02
   1.031327e+02   2.503164e+00
   8.792730e+01   1.061184e+02
  -5.861640e+00   1.219373e+02
  -1.197334e+02   4.178385e+01
  -1.615260e+02  -6.497792e+01
  -9.085213e+01  -1.271221e+02
   1.759755e+01  -1.286109e+02
   6.769718e+01  -8.839728e+01
   5.862936e+01  -6.371577e+01
   6.887261e+01  -5.883514e+01
   1.431930e+02  -3.929320e+01
   2.200180e+02   2.298673e+01
   1.711522e+02   1.265816e+02
   1.815333e+01   2.057186e+02
  -1.542106e+02   2.191846e+02
  -2.105283e+02   1.187642e+02
  -1.356177e+02  -3.694522e+01
  -1.057155e+01  -1.315579e+02
   3.800612e+01  -1.020885e+02
  -3.082107e+00  -1.149145e+01
  -6.110874e+01   3.081068e+01
  -6.093146e+01  -1.563702e+01
  -5.936835e+00  -6.865095e+01
   5.178890e+01  -5.431200e+01
   5.170022e+01   2.207976e+01
  -1.282508e+01   5.844667e+01
  -8.503779e+01   1.329797e+00
  -8.756426e+01  -1.077511e+02
  -5.606990e+00  -1.653678e+02
   1.065129e+02  -1.154037e+02
   1.856969e+02   2.589299e+00
   1.589667e+02   1.113776e+02
   4.815535e+01   1.367787e+02
  -6.026026e+01   7.598864e+01
  -7.812153e+01   1.349349e+01
  -1.953180e+01  -9.074578e-01
   2.528785e+01   3.221908e+01
   1.219839e-01   5.497751e+01
  -6.549185e+01   3.123142e+01
  -7.636068e+01  -1.108948e+01
  -1.631992e+01  -2.360392e+01
   4.444445e+01   5.697398e+00
   2.457902e+01   4.927061e+01
  -6.946448e+01   5.686688e+01
  -1.567741e+02   7.441862e+00
  -1.448798e+02  -7.344066e+01
  -2.497116e+01  -1.320598e+02
   9.542843e+01  -1.310565e+02
   1.233576e+02  -6.628863e+01
   6.495647e+01   1.513441e+01
  -1.597055e+01   3.746815e+01
  -3.004623e+01   1.275623e+00
   3.183117e+01  -3.935120e+01
   9.181660e+01  -1.889080e+01
   9.413606e+01   4.155406e+01
   3.070659e+01   8.647139e+01
  -3.811860e+01   6.808165e+01
  -5.811497e+01   1.456572e+01
  -1.975903e+01  -1.192197e+01
   2.566386e+01   1.382047e+01
   2.100396e+01   5.884004e+01
  -4.819026e+01   6.944662e+01
  -1.167918e+02   1.990025e+01
  -1.011399e+02  -5.565961e+01
  -1.607832e+01  -1.009139e+02
   6.743616e+01  -8.056913e+01
   8.134381e+01  -1.270743e+01
   2.663817e+01   4.423691e+01
  -2.906796e+01   5.079472e+01
  -3.303425e+01   1.554184e+01
   8.673915e-01  -1.450522e+01
   2.062599e+01  -6.493698e+00
  -2.079810e+00   1.667372e+01
  -4.611661e+01   1.262297e+01
  -6.219073e+01  -3.508430e+01
  -1.906590e+01  -8.925556e+01
   6.567052e+01  -8.865712e+01
   1.225645e+02  -2.078354e+01
   1.088578e+02   6.730451e+01
   3.310152e+01   1.133590e+02
  -3.768339e+01   8.343125e+01
  -5.524552e+01   2.468553e+01
  -3.355787e+01  -1.158997e+01
  -2.034569e+01  -4.324315e+00
  -3.295775e+01   1.906018e+01
  -4.887025e+01   1.200608e+01
  -3.385821e+01  -2.767993e+01
   1.388955e+01  -6.127596e+01
   5.766636e+01  -4.712575e+01
   5.707375e+01   1.324735e+01
   4.321357e-01   6.544508e+01
  -7.235524e+01   5.673650e+01
  -1.007895e+02  -2.011503e+01
  -4.983092e+01  -1.027618e+02
   5.224280e+01  -1.180635e+02
   1.315923e+02  -5.476638e+01
   1.286015e+02   3.659596e+01
   5.748686e+01   8.143951e+01
  -1.162791e+01   7.103955e+01
  -3.792167e+01   4.681147e+01
  -3.193719e+01   4.160878e+01
  -2.349966e+01   5.141127e+01
  -3.795340e+01   4.628187e+01
  -6.459768e+01  -7.328906e-01
  -6.833478e+01  -6.845747e+01
  -3.175976e+01  -1.087596e+02
   3.586973e+01  -8.723067e+01
   8.220180e+01  -1.270661e+01
   7.381072e+01   5.641599e+01
   1.586033e+01   7.404446e+01
  -3.337928e+01   4.153366e+01
  -3.376875e+01  -5.578530e+00
  -9.058706e-01  -2.782057e+01
   1.367042e+01  -2.052260e+01
  -1.168205e+01  -3.106986e+00
  -4.122235e+01  -3.903516e+00
  -2.486855e+01  -1.445266e+01
   3.793120e+01  -1.952639e+01
   8.881482e+01  -9.990067e+00
   6.988289e+01   2.141664e+01
   1.275822e-01   5.029889e+01
  -6.563922e+01   4.904479e+01
  -7.305212e+01   1.615556e+01
  -1.896402e+01  -2.092285e+01
   2.944434e+01  -2.447480e+01
   3.832995e+01   3.210906e+00
   1.128746e+01   3.264674e+01
  -1.812084e+01   3.502699e+01
  -3.167554e+01   6.949339e+00
  -3.139344e+01  -1.779846e+01
  -2.714981e+01  -1.523386e+01
  -3.227668e+01   4.268748e+00
  -3.239341e+01   3.453621e+00
  -2.629303e+01  -3.497373e+01
   3.402527e+00  -8.283876e+01
   5.153860e+01  -8.505441e+01
   8.654896e+01  -2.986991e+01
   7.385201e+01   4.248434e+01
   8.567851e+00   6.933082e+01
  -4.288188e+01   4.372404e+01
  -3.229270e+01   5.561361e-01
   2.798187e+01  -1.006143e+01
   6.428362e+01   1.555257e+01
   3.418527e+01   4.732906e+01
  -4.076718e+01   5.972354e+01
  -8.711663e+01   2.815009e+01
  -7.470533e+01  -1.388849e+01
  -1.429261e+01  -3.885661e+01
   2.871000e+01  -2.818071e+01
   1.885247e+01   1.768868e+00
  -1.913155e+01   1.815938e+01
  -4.433011e+01  -5.800090e+00
  -2.255091e+01  -5.408650e+01
   3.181773e+01  -8.096688e+01
   7.279733e+01  -4.207605e+01
   6.566959e+01   3.756969e+01
   1.723990e+01   9.273944e+01
  -3.049384e+01   7.342289e+01
  -4.920329e+01   2.569490e+00
  -3.122872e+01  -5.414506e+01
  -9.775369e-01  -4.946409e+01
   2.196397e+01  -1.153064e+01
   2.159411e+01   1.302897e+01
   8.028846e+00   4.773218e-01
   3.448541e+00  -9.177586e+00
   1.842012e+01   1.089662e+01
   3.535779e+01   4.266730e+01
   2.301803e+01   5.131482e+01
  -2.511822e+01   2.285257e+01
  -6.997322e+01  -1.144271e+01
  -6.417131e+01  -2.597980e+01
  -7.308739e+00  -2.383199e+01
   3.812130e+01  -1.275165e+01
   3.673947e+01  -7.054131e+00
   3.816470e+00   3.419329e+00
  -1.700665e+01   1.070097e+01
  -6.024216e+00   6.179515e+00
   7.527683e+00  -3.535973e+00
  -1.470269e+00  -3.794495e+00
  -3.276145e+01   4.138685e+00
  -4.563054e+01  -1.569358e+00
  -1.805043e+01  -3.529991e+01
   3.995350e+01  -6.720990e+01
   8.554878e+01  -5.378885e+01
   7.844260e+01   1.214783e+01
   2.997481e+01   7.427552e+01
  -2.330080e+01   8.306948e+01
  -5.203071e+01   4.053095e+01
  -4.278696e+01  -4.445549e+00
  -1.597224e+01  -1.790814e+01
  -2.894059e+00  -5.770068e+00
  -7.719589e+00  -4.347554e+00
  -1.681292e+01  -2.260658e+01
  -1.450093e+01  -4.354235e+01
   8.779686e+00  -3.669676e+01
   3.982446e+01   9.240731e-01
   4.828240e+01   4.165824e+01
   1.780515e+01   5.182216e+01
  -3.203369e+01   1.990576e+01
  -5.456159e+01  -2.304521e+01
  -2.524982e+01  -4.434957e+01
   2.883981e+01  -3.454571e+01
   5.315694e+01  -4.021121e+00
   2.753954e+01   2.635088e+01
  -1.175066e+01   3.538291e+01
  -1.880497e+01   1.885985e+01
   1.116260e+01  -3.570583e+00
   3.319840e+01  -1.050124e+01
   8.899146e+00   1.074149e+01
  -3.665883e+01   3.605557e+01
  -5.467517e+01   3.623694e+01
  -3.352608e+01  -3.865300e+00
   3.941788e+00  -4.440442e+01
   2.659304e+01  -4.537233e+01
   2.096928e+01  -6.489136e+00
   6.839727e+00   2.654228e+01
  -6.418537e+00   2.561664e+01
  -1.599680e+01  -2.297508e+00
  -1.593996e+01  -2.231726e+01
  -2.405917e+00  -1.729393e+01
   1.626021e+01   9.497436e-01
   2.062112e+01   1.001451e+01
   9.675794e+00   9.362536e-01
  -3.558540e+00  -9.475801e+00
  -5.116356e+00  -3.644555e+00
   4.917850e+00   1.596217e+01
   5.037553e+00   2.730189e+01
  -1.277619e+01   1.355164e+01
  -2.382696e+01  -1.433625e+01
  -1.182529e+01  -3.052242e+01
   1.873987e+01  -1.646234e+01
   3.472834e+01   1.141107e+01
   1.374715e+01   2.774453e+01
  -2.668646e+01   2.209390e+01
  -4.706204e+01   2.147932e+00
  -2.681389e+01  -1.811343e+01
   1.164897e+01  -2.555151e+01
   3.030898e+01  -2.001215e+01
   1.361585e+01  -7.856027e+00
  -1.408220e+01   5.608860e-01
  -1.617443e+01  -9.146825e-01
   1.054127e+01  -1.282803e+01
   3.680157e+01  -1.519206e+01
