
 $NMID
 id='ANONYMOUS ', fmtdat='(2E16.6)'
 volume=1.0
 tramp=1.0
 $END
  -2.495352e+03   4.832860e+02
  -1.850275e+03  -7.696984e+02
  -3.431802e+02  -1.465179e+03
   7.596590e+02  -1.148099e+03
   7.403743e+02  -4.297139e+02
   1.375008e+02   9.556883e+01
  -2.040028e+02  -9.471164e+00
  -5.761063e+01  -3.587968e+02
   3.138390e+02  -4.859767e+02
   4.890415e+02  -1.708870e+02
   4.037197e+02   3.120469e+02
   1.156096e+02   4.914859e+02
  -1.509936e+02   2.010107e+02
  -1.927293e+02  -2.621039e+02
   3.285208e+01  -4.414058e+02
   3.015803e+02  -1.151435e+02
   2.942879e+02   3.469836e+02
  -1.785576e+01   5.310168e+02
  -3.378573e+02   3.034678e+02
  -3.794211e+02  -6.677519e+01
  -1.694811e+02  -2.798474e+02
   3.624443e+01  -2.176058e+02
   1.617878e+01  -9.600032e+01
  -1.665065e+02  -1.166197e+02
  -2.178163e+02  -2.532337e+02
   2.899090e+01  -2.865249e+02
   3.893122e+02  -1.136543e+02
   4.566242e+02   1.216940e+02
   1.643483e+02   2.406309e+02
  -2.315068e+02   1.369340e+02
  -3.636195e+02  -8.923775e+01
  -1.546951e+02  -2.665659e+02
   1.791994e+02  -2.721317e+02
   3.445304e+02  -1.218418e+02
   2.603864e+02   9.699429e+01
   1.012716e+02   2.282087e+02
   2.444544e+01   1.415450e+02
   4.851453e+01  -5.070523e+01
   1.240581e+02  -1.008724e+02
   1.247190e+02   1.268325e+02
   7.153653e+00   3.801023e+02
  -1.619221e+02   3.357744e+02
  -2.355516e+02   1.921920e+01
  -1.287455e+02  -2.231208e+02
   7.460662e+01  -1.080840e+02
   1.487195e+02   1.755720e+02
  -6.639251e+01   2.920331e+02
  -3.457309e+02   7.020038e+01
  -4.258191e+02  -2.732978e+02
  -1.783667e+02  -3.935230e+02
   2.187964e+02  -2.459879e+02
   4.331058e+02   3.054412e+00
   3.086804e+02   1.572049e+02
  -5.707842e+00   1.804415e+02
  -2.290164e+02   1.064888e+02
  -1.992075e+02   1.311341e+01
  -3.639486e+01  -1.193803e+01
   3.373759e+01   1.903927e+01
  -5.637792e+01   3.911197e+01
  -1.593090e+02  -1.229986e+01
  -1.098403e+02  -1.313989e+02
   9.042801e+01  -2.113238e+02
   2.777065e+02  -1.466254e+02
   2.308355e+02   7.596498e+01
  -1.262701e+01   3.097440e+02
  -2.498973e+02   3.485634e+02
  -3.096402e+02   1.546400e+02
  -2.042996e+02  -1.406953e+02
  -5.321190e+01  -2.886973e+02
  -2.661752e+00  -2.628223e+02
  -1.542195e+01  -1.562981e+02
   1.932920e+01  -1.033902e+02
   1.262676e+02  -1.073986e+02
   2.154357e+02  -4.200843e+01
   1.994853e+02   1.015415e+02
   7.265827e+01   2.105253e+02
  -8.149681e+01   1.527662e+02
  -1.637381e+02  -3.662565e+01
  -1.159505e+02  -1.993754e+02
   3.685131e+01  -2.041104e+02
   2.049180e+02  -5.170369e+01
   2.549019e+02   1.336464e+02
   1.392563e+02   2.355246e+02
  -3.131724e+01   2.203419e+02
  -1.148914e+02   1.494665e+02
  -1.180409e+02   9.703370e+01
  -1.344188e+02   7.678917e+01
  -2.417876e+02   4.034752e+01
  -3.518818e+02  -6.613452e+01
  -2.876423e+02  -2.284245e+02
  -4.964258e+00  -3.664148e+02
   2.942830e+02  -3.596889e+02
   3.872131e+02  -1.675364e+02
   2.295537e+02   7.970784e+01
   1.868870e+01   2.108174e+02
  -5.980258e+01   1.556331e+02
   1.248056e+01   2.524146e+01
   9.859187e+01  -2.392828e+01
   9.501703e+01   3.985743e+01
   2.291639e-01   1.123734e+02
  -8.957839e+01   7.961019e+01
  -7.614102e+01  -3.938696e+01
   2.192432e+01  -9.588967e+01
   1.304194e+02   7.596445e-01
   1.378259e+02   1.867838e+02
   3.973578e+00   2.849020e+02
  -1.948690e+02   1.933700e+02
  -3.066942e+02  -2.500560e+01
  -2.453426e+02  -1.999129e+02
  -5.453993e+01  -2.214822e+02
   1.009713e+02  -1.126531e+02
   1.099459e+02  -8.781676e+00
   1.985298e+01   5.804440e+00
  -3.731417e+01  -5.725078e+01
   1.035703e+01  -9.185629e+01
   1.031414e+02  -4.907211e+01
   1.205024e+02   3.077805e+01
   2.522890e+01   4.613624e+01
  -7.001847e+01  -1.367441e+01
  -3.501167e+01  -8.353247e+01
   1.211678e+02  -8.791308e+01
   2.623202e+02   3.419057e+00
   2.304067e+02   1.378306e+02
   3.585520e+01   2.276777e+02
  -1.635168e+02   2.089136e+02
  -2.129776e+02   9.104252e+01
  -1.086960e+02  -3.260219e+01
   2.480592e+01  -6.129086e+01
   4.697186e+01   5.855679e+00
  -4.898430e+01   6.834289e+01
  -1.510252e+02   3.461195e+01
  -1.488397e+02  -7.111220e+01
  -4.885355e+01  -1.435476e+02
   6.661268e+01  -1.089190e+02
   9.411545e+01  -1.953558e+01
   2.870697e+01   2.461293e+01
  -4.285554e+01  -2.449956e+01
  -2.355738e+01  -1.014400e+02
   8.965076e+01  -1.094662e+02
   1.879940e+02  -1.965035e+01
   1.585564e+02   1.072967e+02
   1.671228e+01   1.724432e+02
  -1.189938e+02   1.297859e+02
  -1.372128e+02   1.735683e+01
  -4.433846e+01  -7.252883e+01
   4.760821e+01  -7.750848e+01
   5.323180e+01  -2.238458e+01
  -3.439609e+00   2.032179e+01
  -3.661861e+01   5.814747e+00
   5.856183e+00  -2.977896e+01
   8.151094e+01  -1.313634e+01
   1.010882e+02   7.228967e+01
   1.776097e+01   1.529738e+02
  -1.189075e+02   1.367276e+02
  -2.046870e+02   1.385286e+01
  -1.656665e+02  -1.302839e+02
  -3.615317e+01  -1.889059e+02
   8.031127e+01  -1.359235e+02
   1.069472e+02  -3.227708e+01
   6.305880e+01   3.183469e+01
   2.981212e+01   2.213276e+01
   4.682354e+01  -1.234419e+01
   7.821816e+01  -9.113047e+00
   5.545111e+01   4.857836e+01
  -3.044878e+01   9.724176e+01
  -1.084700e+02   6.798317e+01
  -9.920883e+01  -3.472952e+01
   1.104648e+01  -1.151872e+02
   1.402892e+02  -8.264951e+01
   1.760684e+02   5.160955e+01
   7.210594e+01   1.790324e+02
  -9.972448e+01   1.890234e+02
  -2.228079e+02   7.954645e+01
  -2.051435e+02  -6.761665e+01
  -8.763955e+01  -1.362583e+02
   2.765450e+01  -1.167436e+02
   6.967469e+01  -7.218508e+01
   5.002198e+01  -6.363403e+01
   3.811035e+01  -8.607178e+01
   6.925148e+01  -7.171646e+01
   1.147538e+02   8.757232e+00
   1.095561e+02   1.253170e+02
   3.298728e+01   1.834718e+02
  -7.714820e+01   1.392132e+02
  -1.416663e+02   1.289751e+01
  -1.084875e+02  -1.033406e+02
  -7.478496e+00  -1.298015e+02
   6.574597e+01  -6.841030e+01
   5.766505e+01   1.494664e+01
   2.868914e-01   5.353935e+01
  -2.466561e+01   3.800685e+01
   1.884714e+01   1.168499e+01
   6.936811e+01   9.026502e+00
   3.978775e+01   3.027563e+01
  -6.497153e+01   3.846565e+01
  -1.487980e+02   9.120775e+00
  -1.214587e+02  -5.087910e+01
  -1.999465e+00  -8.963475e+01
   1.100417e+02  -7.296002e+01
   1.222574e+02  -8.056361e+00
   3.930836e+01   4.955799e+01
  -4.719692e+01   4.550688e+01
  -6.639979e+01  -1.064273e+01
  -2.391120e+01  -6.396407e+01
   2.974869e+01  -6.000853e+01
   5.704259e+01  -6.561996e+00
   5.102069e+01   3.829195e+01
   4.235131e+01   3.357564e+01
   4.341989e+01  -5.393149e+00
   5.468754e+01  -1.746581e+00
   4.579284e+01   6.063126e+01
  -8.757060e+00   1.310830e+02
  -9.570731e+01   1.309102e+02
  -1.557926e+02   3.758331e+01
  -1.192121e+02  -7.272300e+01
  -7.608118e+00  -1.136789e+02
   7.588908e+01  -6.539382e+01
   5.482517e+01   4.606266e+00
  -4.858951e+01   2.175754e+01
  -1.139377e+02  -2.418092e+01
  -5.975268e+01  -8.474472e+01
   7.281692e+01  -9.688908e+01
   1.626835e+02  -4.402643e+01
   1.317443e+02   3.327119e+01
   2.688509e+01   7.361527e+01
  -5.443493e+01   5.286867e+01
  -4.267625e+01  -3.502850e+00
   3.334371e+01  -3.155675e+01
   7.817924e+01   1.046883e+01
   4.075131e+01   9.278930e+01
  -5.081533e+01   1.339656e+02
  -1.216700e+02   7.056446e+01
  -1.131071e+02  -6.485523e+01
  -3.116139e+01  -1.589807e+02
   5.657285e+01  -1.231313e+02
   8.983627e+01   3.726736e+00
   5.556031e+01   9.956659e+01
  -7.369799e+00   8.957984e+01
  -4.506924e+01   1.591561e+01
  -3.840683e+01  -2.533819e+01
  -1.145368e+01  -4.326121e+00
  -4.621118e+00   1.420394e+01
  -3.013843e+01  -1.649542e+01
  -5.384694e+01  -7.070415e+01
  -2.935004e+01  -8.610324e+01
   4.835837e+01  -3.945860e+01
   1.141505e+02   2.168792e+01
   1.010423e+02   5.136409e+01
   1.729278e+01   4.767078e+01
  -6.200461e+01   3.023165e+01
  -7.036978e+01   7.641543e+00
  -1.926208e+01  -1.399844e+01
   2.301700e+01  -2.040198e+01
   1.707123e+01  -7.919500e+00
  -8.554454e+00   5.764404e+00
   4.755606e+00   7.433908e-01
   5.461983e+01  -1.055088e+01
   7.931745e+01   1.117631e+01
   2.922102e+01   6.881075e+01
  -7.419217e+01   1.102993e+02
  -1.533758e+02   7.114691e+01
  -1.371910e+02  -3.732661e+01
  -4.402912e+01  -1.302100e+02
   5.492464e+01  -1.393373e+02
   9.560788e+01  -6.775492e+01
   7.321590e+01   9.521667e+00
   2.773444e+01   3.246633e+01
   6.031249e+00   1.497572e+01
   1.344881e+01   8.830900e+00
   2.639512e+01   4.139226e+01
   1.903659e+01   7.523631e+01
  -1.958253e+01   6.068321e+01
  -6.636557e+01  -6.538154e+00
  -7.246843e+01  -7.760048e+01
  -1.970133e+01  -8.961487e+01
   5.874473e+01  -3.347959e+01
   9.312232e+01   4.448156e+01
   4.251591e+01   8.358215e+01
  -5.030056e+01   6.166600e+01
  -8.858037e+01   1.627009e+00
  -4.265334e+01  -5.060712e+01
   2.229473e+01  -6.001678e+01
   3.166754e+01  -3.087285e+01
  -1.745935e+01   6.265749e+00
  -5.145800e+01   1.272086e+01
  -1.696783e+01  -2.156354e+01
   5.903035e+01  -6.071922e+01
   9.749106e+01  -5.029277e+01
   6.499753e+01   1.385777e+01
  -9.358167e-01   7.397586e+01
  -4.217899e+01   7.373006e+01
  -3.993126e+01   1.612098e+01
  -1.255584e+01  -4.153479e+01
   1.497156e+01  -4.186568e+01
   3.201038e+01   5.990235e+00
   2.802077e+01   4.367507e+01
   1.236556e+00   3.498970e+01
  -2.976499e+01  -6.690608e-01
  -3.750958e+01  -2.055339e+01
  -1.713412e+01  -5.660373e+00
   5.005042e+00   1.766975e+01
   5.460332e+00   1.023218e+01
  -1.036930e+01  -2.610979e+01
  -9.088409e+00  -4.803161e+01
   2.114601e+01  -2.599962e+01
   4.271119e+01   2.277418e+01
   2.029293e+01   5.037083e+01
  -3.241930e+01   2.721819e+01
  -5.927615e+01  -2.342761e+01
  -2.143264e+01  -5.100689e+01
   4.970958e+01  -3.681683e+01
   8.338476e+01   1.487443e+00
   4.757382e+01   3.354273e+01
  -2.044293e+01   4.302474e+01
  -5.212193e+01   3.094229e+01
  -2.482071e+01   9.929797e+00
   2.231467e+01  -6.574899e+00
   2.738270e+01  -1.418427e-02
  -1.684425e+01   2.280390e+01
  -6.113130e+01   2.478631e+01
