
 $NMID
 id='ANONYMOUS ', fmtdat='(2E16.6)'
 volume=1.0
 tramp=1.0
 $END
   2.931055e+03  -2.619323e+02
   1.985306e+03   1.351226e+03
   1.339518e+02   1.877642e+03
  -9.648743e+02   1.261727e+03
  -8.133310e+02   3.619113e+02
  -2.536132e+01  -7.128567e+01
   2.891223e+02   1.239731e+02
   3.531217e+01   4.946554e+02
  -3.780170e+02   5.690469e+02
  -5.499902e+02   1.621083e+02
  -4.168273e+02  -3.765619e+02
  -8.808330e+01  -5.538989e+02
   1.831622e+02  -1.901800e+02
   2.136921e+02   3.475538e+02
  -4.706275e+01   5.006843e+02
  -3.202885e+02   1.109328e+02
  -2.935933e+02  -4.065922e+02
   4.192392e+01  -5.784407e+02
   3.925687e+02  -3.012980e+02
   4.233164e+02   1.120720e+02
   1.869159e+02   3.285101e+02
  -6.078979e+01   2.566613e+02
  -6.725393e+01   1.077244e+02
   1.487960e+02   1.182786e+02
   2.326574e+02   2.690321e+02
  -2.737214e+01   3.077095e+02
  -4.203349e+02   1.140999e+02
  -5.218148e+02  -1.794940e+02
  -1.730415e+02  -2.955676e+02
   2.902250e+02  -1.591871e+02
   4.343027e+02   1.187913e+02
   1.760358e+02   3.165808e+02
  -2.176130e+02   2.990492e+02
  -3.948416e+02   1.209521e+02
  -2.665861e+02  -1.244498e+02
  -7.714315e+01  -2.451525e+02
   7.691869e+00  -1.247512e+02
  -5.849985e+01   7.643665e+01
  -1.642274e+02   1.092631e+02
  -1.663001e+02  -1.502591e+02
  -1.776869e+01  -4.328931e+02
   2.032208e+02  -3.874186e+02
   2.918208e+02  -1.360526e+01
   1.374267e+02   2.511421e+02
  -1.003093e+02   1.019946e+02
  -1.543487e+02  -2.277071e+02
   1.012657e+02  -3.387443e+02
   3.965832e+02  -5.753794e+01
   4.727114e+02   3.085726e+02
   1.758939e+02   4.298627e+02
  -2.456583e+02   2.437761e+02
  -4.569953e+02  -2.673410e+01
  -3.176704e+02  -1.947287e+02
   1.501264e+01  -1.948357e+02
   2.311868e+02  -9.409508e+01
   2.040716e+02  -1.685765e+00
   3.303915e+01   7.209185e+00
  -3.697628e+01  -2.916805e+01
   7.194912e+01  -4.750886e+01
   1.886873e+02   1.895494e+01
   1.164019e+02   1.501395e+02
  -1.184938e+02   2.252685e+02
  -3.057804e+02   1.461752e+02
  -2.604313e+02  -7.765598e+01
  -9.068372e-01  -3.231575e+02
   2.652841e+02  -3.748146e+02
   3.492773e+02  -1.731849e+02
   2.273290e+02   1.519854e+02
   4.843549e+01   3.314073e+02
  -2.663270e+01   2.945813e+02
  -5.825413e+00   1.589749e+02
  -2.124593e+01   1.005760e+02
  -1.279860e+02   1.087082e+02
  -2.312956e+02   3.710050e+01
  -2.118804e+02  -1.187393e+02
  -7.548846e+01  -2.321125e+02
   8.708483e+01  -1.743342e+02
   1.697497e+02   2.857319e+01
   1.198387e+02   2.152975e+02
  -4.402931e+01   2.267087e+02
  -2.193767e+02   5.738034e+01
  -2.780322e+02  -1.549688e+02
  -1.534988e+02  -2.690280e+02
   3.361876e+01  -2.461849e+02
   1.321076e+02  -1.504034e+02
   1.267230e+02  -8.868216e+01
   1.384583e+02  -7.159842e+01
   2.619938e+02  -3.585288e+01
   3.733233e+02   7.835854e+01
   2.905398e+02   2.570656e+02
  -1.564302e+01   3.850831e+02
  -3.452843e+02   3.694749e+02
  -4.400745e+02   1.584305e+02
  -2.588192e+02  -9.338357e+01
  -1.960426e+01  -2.256204e+02
   7.203972e+01  -1.754815e+02
  -2.924214e+00  -3.906900e+01
  -1.100977e+02   2.053505e+01
  -1.058907e+02  -4.507370e+01
   1.458558e+00  -1.227988e+02
   9.718066e+01  -8.294275e+01
   8.117686e+01   4.792275e+01
  -2.605055e+01   1.062532e+02
  -1.391351e+02  -4.331707e+00
  -1.382318e+02  -2.116907e+02
   7.606277e+00  -3.091833e+02
   2.105549e+02  -1.954175e+02
   3.270477e+02   4.522758e+01
   2.656644e+02   2.345552e+02
   5.974374e+01   2.522363e+02
  -1.174189e+02   1.315147e+02
  -1.384343e+02   1.109933e+01
  -3.157024e+01  -6.412355e+00
   4.021401e+01   6.287218e+01
  -9.372724e+00   1.030290e+02
  -1.163128e+02   5.690772e+01
  -1.387862e+02  -2.646058e+01
  -3.117409e+01  -4.444138e+01
   7.535359e+01   1.606189e+01
   3.681421e+01   8.845189e+01
  -1.381978e+02   8.701985e+01
  -2.832379e+02  -1.279234e+01
  -2.481830e+02  -1.563026e+02
  -3.252360e+01  -2.470801e+02
   1.890814e+02  -2.225962e+02
   2.445226e+02  -9.345560e+01
   1.205774e+02   3.468690e+01
  -2.623680e+01   6.723249e+01
  -4.823373e+01  -4.194437e+00
   5.551294e+01  -6.994461e+01
   1.691442e+02  -2.594282e+01
   1.701799e+02   9.272093e+01
   5.005033e+01   1.685232e+02
  -8.061392e+01   1.228552e+02
  -1.060169e+02   1.248176e+01
  -3.299474e+01  -3.093569e+01
   4.508030e+01   2.214619e+01
   2.497955e+01   1.078447e+02
  -9.347563e+01   1.168536e+02
  -1.977075e+02   1.689335e+01
  -1.653397e+02  -1.203701e+02
  -8.249966e+00  -1.885118e+02
   1.411273e+02  -1.349312e+02
   1.536272e+02  -9.872938e+00
   4.732420e+01   8.433457e+01
  -5.433741e+01   8.825568e+01
  -6.043821e+01   2.447973e+01
   3.157345e+00  -2.197452e+01
   3.699481e+01  -5.350685e+00
  -8.014245e+00   2.849928e+01
  -8.548440e+01   7.372881e+00
  -1.040923e+02  -8.486989e+01
  -1.312596e+01  -1.677225e+02
   1.329603e+02  -1.446795e+02
   2.232189e+02  -9.882527e+00
   1.749272e+02   1.463528e+02
   3.167865e+01   2.036458e+02
  -8.990036e+01   1.385513e+02
  -1.135088e+02   2.544782e+01
  -6.309433e+01  -3.959123e+01
  -2.724243e+01  -2.304922e+01
  -4.566468e+01   1.445342e+01
  -7.706837e+01   9.862205e+00
  -5.471503e+01  -5.174111e+01
   3.265041e+01  -1.011471e+02
   1.153334e+02  -6.921147e+01
   1.033356e+02   3.819012e+01
  -1.314778e+01   1.225643e+02
  -1.540408e+02   8.865539e+01
  -1.907811e+02  -5.799389e+01
  -7.367883e+01  -1.943455e+02
   1.174605e+02  -2.038227e+02
   2.477965e+02  -7.816962e+01
   2.235939e+02   7.916333e+01
   9.398637e+01   1.513115e+02
  -3.348147e+01   1.272482e+02
  -8.196252e+01   7.904543e+01
  -6.711985e+01   7.023279e+01
  -5.162128e+01   9.244126e+01
  -8.119921e+01   7.641614e+01
  -1.245827e+02  -1.577242e+01
  -1.170771e+02  -1.467152e+02
  -2.854158e+01  -2.103162e+02
   9.075397e+01  -1.542100e+02
   1.563087e+02  -9.867778e+00
   1.166908e+02   1.153807e+02
   6.816993e+00   1.416528e+02
  -7.181691e+01   7.017390e+01
  -5.969442e+01  -1.598397e+01
   3.283921e+00  -5.462677e+01
   2.677797e+01  -3.645948e+01
  -2.364239e+01  -8.150696e+00
  -7.973560e+01  -1.098526e+01
  -4.617559e+01  -3.534656e+01
   6.900963e+01  -4.226823e+01
   1.610433e+02  -2.332704e+00
   1.308251e+02   5.792334e+01
  -4.167406e+00   9.624255e+01
  -1.256335e+02   7.289461e+01
  -1.321611e+02   4.427375e+00
  -4.056121e+01  -5.008184e+01
   5.612105e+01  -4.484982e+01
   7.299122e+01   1.516545e+01
   2.147120e+01   6.884006e+01
  -3.836434e+01   6.422203e+01
  -6.698781e+01   5.930701e+00
  -5.966104e+01  -4.592673e+01
  -4.689270e+01  -4.214868e+01
  -4.781694e+01  -2.287815e+00
  -5.810923e+01   3.959472e-01
  -4.593556e+01  -6.451984e+01
   2.015887e+01  -1.393237e+02
   1.130715e+02  -1.400782e+02
   1.661312e+02  -3.677790e+01
   1.224076e+02   8.403400e+01
   4.011084e+00   1.258211e+02
  -8.164302e+01   6.931572e+01
  -5.701560e+01  -8.345527e+00
   5.212456e+01  -2.014795e+01
   1.201191e+02   3.708151e+01
   6.385360e+01   9.801424e+01
  -7.053613e+01   1.015345e+02
  -1.598007e+02   3.586632e+01
  -1.325797e+02  -3.934694e+01
  -2.507532e+01  -7.371339e+01
   5.627996e+01  -5.258468e+01
   4.342846e+01   5.961625e+00
  -3.444718e+01   3.455274e+01
  -8.238780e+01  -1.055023e+01
  -4.214827e+01  -1.022717e+02
   6.038583e+01  -1.451792e+02
   1.331236e+02  -7.074313e+01
   1.148921e+02   7.625540e+01
   2.265686e+01   1.703859e+02
  -6.880963e+01   1.238245e+02
  -9.327862e+01  -1.292879e+01
  -5.061569e+01  -1.077855e+02
   1.256787e+01  -8.731552e+01
   4.613976e+01  -1.194371e+01
   4.089045e+01   2.797032e+01
   1.468672e+01   4.437233e+00
   6.069600e+00  -1.413358e+01
   3.167530e+01   2.071940e+01
   5.487138e+01   7.950467e+01
   2.925668e+01   9.409445e+01
  -5.400430e+01   4.060046e+01
  -1.279243e+02  -2.938238e+01
  -1.139280e+02  -6.175225e+01
  -1.822150e+01  -5.054080e+01
   7.390798e+01  -2.851332e+01
   7.840196e+01  -6.285532e+00
   1.633205e+01   1.029768e+01
  -3.134151e+01   1.857561e+01
  -1.927316e+01   8.972577e+00
   1.336697e+01  -5.949265e+00
   4.167503e-01  -5.029722e+00
  -5.726919e+01   2.945457e+00
  -8.400364e+01  -1.651336e+01
  -2.811580e+01  -7.226018e+01
   8.812589e+01  -1.116284e+02
   1.704050e+02  -6.564195e+01
   1.464753e+02   4.898077e+01
   3.623374e+01   1.446375e+02
  -7.160315e+01   1.446640e+02
  -1.088886e+02   6.293983e+01
  -7.683479e+01  -1.531887e+01
  -2.618470e+01  -3.564164e+01
  -3.072193e+00  -1.379364e+01
  -1.101211e+01  -7.075229e+00
  -2.367232e+01  -4.236834e+01
  -1.570984e+01  -8.014737e+01
   2.424365e+01  -6.373087e+01
   7.110889e+01   1.238668e+01
   7.635962e+01   8.887244e+01
   1.758708e+01   1.002710e+02
  -6.642188e+01   3.490688e+01
  -9.901249e+01  -5.145901e+01
  -4.198726e+01  -9.101994e+01
   5.681668e+01  -6.305827e+01
   9.620874e+01   1.663695e+00
   4.387260e+01   5.453211e+01
  -2.840987e+01   6.069093e+01
  -3.680218e+01   2.944035e+01
   2.145834e+01  -6.747967e+00
   6.040320e+01  -1.046069e+01
   1.870186e+01   2.455594e+01
  -7.053013e+01   6.383177e+01
  -1.115266e+02   4.961366e+01
  -6.834484e+01  -1.677596e+01
   9.584490e+00  -7.998589e+01
   5.111437e+01  -7.811666e+01
   4.149167e+01  -1.513245e+01
   7.775835e+00   4.512973e+01
  -2.010746e+01   4.491874e+01
  -3.276117e+01  -7.214338e+00
  -2.571925e+01  -4.718545e+01
   1.238838e+00  -3.666900e+01
   3.143785e+01   3.970731e+00
   3.914254e+01   2.499146e+01
   1.825001e+01   5.878597e+00
  -5.430232e+00  -1.970298e+01
  -7.173493e+00  -1.194639e+01
   6.590442e+00   2.685237e+01
   5.375799e+00   5.008023e+01
  -2.262544e+01   2.478456e+01
  -4.064931e+01  -2.844992e+01
  -1.711264e+01  -5.611458e+01
   3.571157e+01  -2.678640e+01
   6.056252e+01   2.723124e+01
   2.189294e+01   5.570821e+01
  -5.062868e+01   3.642646e+01
  -8.587190e+01  -5.724409e+00
  -4.907493e+01  -3.790242e+01
   2.315069e+01  -4.486324e+01
   5.748886e+01  -3.040823e+01
   2.588426e+01  -7.704590e+00
  -2.467635e+01   6.153426e+00
  -3.031732e+01  -2.350431e+00
   1.944490e+01  -2.281596e+01
   6.648172e+01  -2.120725e+01
