
 $NMID
 id='ANONYMOUS ', fmtdat='(2E16.6)'
 volume=1.0
 tramp=1.0
 $END
  -2.246922e+03  -9.404715e+01
  -1.607069e+03  -1.213749e+03
  -1.276544e+02  -1.455671e+03
   6.744487e+02  -9.780552e+02
   6.324939e+02  -2.478605e+02
   5.416399e+01   4.633863e+01
  -1.931473e+02  -1.177224e+02
  -2.704156e+01  -4.153857e+02
   2.801683e+02  -4.511045e+02
   4.138693e+02  -8.196290e+01
   2.845004e+02   3.324791e+02
   1.363523e+01   4.097513e+02
  -1.660122e+02   1.016517e+02
  -1.449785e+02  -2.912051e+02
   6.363953e+01  -3.616587e+02
   2.526968e+02  -4.184432e+01
   1.836064e+02   3.358047e+02
  -7.994515e+01   4.344086e+02
  -3.198486e+02   1.989057e+02
  -3.140303e+02  -1.084010e+02
  -1.203323e+02  -2.516258e+02
   5.567629e+01  -1.820291e+02
   3.404124e+01  -7.086202e+01
  -1.406448e+02  -9.939270e+01
  -1.845498e+02  -2.377445e+02
   4.098721e+01  -2.639843e+02
   3.754714e+02  -8.405873e+01
   4.025958e+02   1.800654e+02
   8.392261e+01   2.513340e+02
  -2.588140e+02   8.505165e+01
  -3.362902e+02  -1.412315e+02
  -9.324869e+01  -2.540547e+02
   2.145601e+02  -2.112000e+02
   3.315834e+02  -7.113637e+01
   2.065230e+02   9.977919e+01
   3.971667e+01   1.907636e+02
  -1.899096e+01   1.119643e+02
   6.474119e+01  -5.765419e+01
   1.631417e+02  -7.639561e+01
   1.430642e+02   1.410169e+02
  -1.962485e+01   3.620927e+02
  -1.810399e+02   2.901908e+02
  -1.985963e+02  -1.627761e+01
  -4.671365e+01  -1.866060e+02
   1.056536e+02  -4.168220e+01
   8.420673e+01   2.115244e+02
  -1.237717e+02   2.662913e+02
  -3.365477e+02   1.230053e+01
  -3.253442e+02  -2.554826e+02
  -8.205039e+01  -3.364347e+02
   2.252281e+02  -1.576783e+02
   3.503860e+02   6.144674e+01
   2.165474e+02   1.807504e+02
  -2.971681e+01   1.561012e+02
  -1.878018e+02   6.880505e+01
  -1.499738e+02   4.329643e+00
  -3.044038e+01   5.268823e+00
   1.043575e+01   3.078364e+01
  -7.959282e+01   1.653653e+01
  -1.426555e+02  -4.673970e+01
  -6.831291e+01  -1.374164e+02
   1.211012e+02  -1.646283e+02
   2.547263e+02  -8.615063e+01
   1.938372e+02   8.096563e+01
  -2.837366e+01   2.570788e+02
  -2.211344e+02   2.771174e+02
  -2.689840e+02   1.043940e+02
  -1.548785e+02  -1.375529e+02
  -2.056444e+01  -2.674097e+02
   4.022848e+01  -2.214430e+02
   1.364137e+01  -1.077432e+02
   2.423745e+01  -7.153946e+01
   1.148185e+02  -8.202154e+01
   1.948565e+02  -2.113049e+01
   1.750062e+02   1.071260e+02
   4.568774e+01   1.938470e+02
  -8.500627e+01   1.258746e+02
  -1.339420e+02  -4.329900e+01
  -7.856733e+01  -1.775287e+02
   5.849856e+01  -1.718942e+02
   1.845459e+02  -2.512152e+01
   2.143208e+02   1.413453e+02
   1.084063e+02   2.191438e+02
  -3.085753e+01   1.837670e+02
  -1.088774e+02   1.039244e+02
  -1.045942e+02   6.198438e+01
  -1.209000e+02   4.943493e+01
  -2.175811e+02   1.235153e+01
  -3.012803e+02  -9.214268e+01
  -2.129052e+02  -2.392196e+02
   5.132016e+01  -3.175242e+02
   3.058271e+02  -2.614482e+02
   3.556545e+02  -8.833050e+01
   1.936040e+02   9.546263e+01
  -2.013712e+00   1.850270e+02
  -7.136909e+01   1.322068e+02
  -4.373661e+00   1.419581e+01
   8.636985e+01  -2.498901e+01
   8.626293e+01   3.132062e+01
  -1.421581e+00   9.426006e+01
  -7.805698e+01   5.499543e+01
  -5.942142e+01  -4.984857e+01
   3.359048e+01  -8.865066e+01
   1.172661e+02   1.521769e+01
   1.018128e+02   1.773860e+02
  -2.668558e+01   2.490228e+02
  -1.925411e+02   1.433305e+02
  -2.710792e+02  -5.785781e+01
  -2.032530e+02  -2.051202e+02
  -2.969979e+01  -2.143563e+02
   1.074197e+02  -1.067642e+02
   1.094248e+02   5.947456e-01
   1.804083e+01   6.018014e+00
  -3.112829e+01  -5.017091e+01
   1.927523e+01  -8.098375e+01
   9.921194e+01  -3.751668e+01
   9.828206e+01   2.595774e+01
   7.258462e+00   3.223665e+01
  -6.631641e+01  -2.054008e+01
  -2.432341e+01  -7.640977e+01
   1.189787e+02  -6.124360e+01
   2.324796e+02   2.979019e+01
   1.872650e+02   1.447910e+02
   4.118497e+00   2.043927e+02
  -1.715553e+02   1.654877e+02
  -2.006726e+02   4.921516e+01
  -9.256477e+01  -4.705141e+01
   3.134135e+01  -5.366496e+01
   4.098802e+01   8.676040e+00
  -5.473832e+01   5.580325e+01
  -1.370348e+02   1.055761e+01
  -1.237011e+02  -8.969904e+01
  -2.468436e+01  -1.393779e+02
   6.902478e+01  -9.202442e+01
   8.391500e+01  -1.955857e+00
   2.491753e+01   3.183474e+01
  -3.682435e+01  -2.023339e+01
  -1.522308e+01  -8.912419e+01
   8.155702e+01  -8.836090e+01
   1.600703e+02   2.182540e-01
   1.259393e+02   1.120739e+02
  -8.903193e+00   1.557558e+02
  -1.271872e+02   9.959226e+01
  -1.281297e+02  -3.438278e+00
  -3.403449e+01  -7.368037e+01
   4.649452e+01  -6.647924e+01
   4.732338e+01  -1.371135e+01
  -5.411489e+00   2.000748e+01
  -3.053727e+01   1.318655e+00
   7.528986e+00  -2.589751e+01
   7.099234e+01  -1.949118e+00
   7.735315e+01   7.824935e+01
  -2.895692e+00   1.404113e+02
  -1.211427e+02   1.103944e+02
  -1.816192e+02  -1.054104e+01
  -1.313694e+02  -1.326035e+02
  -1.369849e+01  -1.649453e+02
   7.822747e+01  -1.022663e+02
   8.926790e+01  -1.113798e+01
   4.608305e+01   3.411773e+01
   2.042801e+01   1.497481e+01
   4.108957e+01  -1.638576e+01
   6.716336e+01  -5.448496e+00
   4.345462e+01   4.828646e+01
  -3.134440e+01   8.451810e+01
  -9.851506e+01   5.023844e+01
  -8.474499e+01  -4.159213e+01
   1.760588e+01  -1.027288e+02
   1.319222e+02  -5.957843e+01
   1.537806e+02   6.571419e+01
   5.218343e+01   1.662851e+02
  -1.102685e+02   1.572611e+02
  -2.104477e+02   4.421102e+01
  -1.780709e+02  -7.955349e+01
  -6.014275e+01  -1.291169e+02
   3.774687e+01  -9.671954e+01
   6.689984e+01  -5.331289e+01
   5.181340e+01  -4.852300e+01
   4.722799e+01  -6.872047e+01
   7.029517e+01  -5.290483e+01
   9.818831e+01   2.333203e+01
   7.818272e+01   1.226295e+02
   6.398451e+00   1.645545e+02
  -8.268692e+01   1.125991e+02
  -1.248725e+02  -4.815269e+00
  -8.449721e+01  -9.886306e+01
   4.576568e+00  -1.116082e+02
   6.080016e+01  -5.038414e+01
   4.641298e+01   1.880339e+01
  -8.925362e+00   4.364033e+01
  -2.510473e+01   2.624042e+01
   2.006997e+01   2.319003e+00
   6.834204e+01   9.551870e+00
   3.771112e+01   2.989954e+01
  -5.888871e+01   3.084970e+01
  -1.298995e+02  -4.896934e+00
  -9.885129e+01  -5.495350e+01
   1.360702e+01  -7.806243e+01
   1.098025e+02  -5.050155e+01
   1.061468e+02   7.421330e+00
   2.395797e+01   4.801792e+01
  -5.278801e+01   3.406384e+01
  -5.959914e+01  -1.892436e+01
  -1.234245e+01  -5.956014e+01
   3.670100e+01  -4.994266e+01
   5.321695e+01  -1.551370e+00
   4.398943e+01   3.758970e+01
   3.421764e+01   3.416545e+01
   3.740032e+01   5.348222e+00
   4.689503e+01   4.451433e+00
   3.405303e+01   5.683198e+01
  -1.819478e+01   1.141899e+02
  -9.673361e+01   1.111078e+02
  -1.405692e+02   2.618186e+01
  -1.001469e+02  -7.590211e+01
   1.237937e+00  -1.084680e+02
   7.170970e+01  -5.638952e+01
   4.289395e+01   1.268844e+01
  -4.842634e+01   1.636179e+01
  -9.871912e+01  -3.835275e+01
  -4.771947e+01  -8.713832e+01
   6.047900e+01  -8.437415e+01
   1.382520e+02  -3.113255e+01
   1.113605e+02   3.473514e+01
   1.709495e+01   6.443737e+01
  -4.989041e+01   4.118331e+01
  -3.671139e+01  -6.100903e+00
   3.096447e+01  -2.206310e+01
   7.195791e+01   1.799694e+01
   2.850501e+01   8.900909e+01
  -5.906997e+01   1.151763e+02
  -1.154040e+02   4.788827e+01
  -9.264697e+01  -7.066315e+01
  -7.272565e+00  -1.423364e+02
   6.736653e+01  -9.381182e+01
   7.798576e+01   1.791761e+01
   3.451837e+01   9.271249e+01
  -1.834132e+01   7.245484e+01
  -4.101215e+01   5.892074e+00
  -3.209833e+01  -2.724747e+01
  -8.407731e+00  -6.549818e+00
  -5.181607e+00   1.206312e+01
  -2.681657e+01  -1.637972e+01
  -4.159650e+01  -6.693491e+01
  -1.310408e+01  -7.893885e+01
   5.225033e+01  -2.901712e+01
   1.015240e+02   3.329647e+01
   8.082405e+01   5.814332e+01
   6.445002e+00   4.180257e+01
  -6.028694e+01   1.752317e+01
  -6.206592e+01   1.056587e+00
  -1.183580e+01  -1.145362e+01
   2.566840e+01  -1.345810e+01
   1.479522e+01  -6.633602e+00
  -1.025283e+01   3.529013e+00
   1.152310e+00   4.274000e+00
   4.323133e+01   1.004390e+00
   6.381018e+01   1.929657e+01
   1.472656e+01   6.133504e+01
  -7.861928e+01   8.091586e+01
  -1.347136e+02   3.864178e+01
  -1.058243e+02  -4.904281e+01
  -1.574407e+01  -1.170875e+02
   6.761183e+01  -1.099235e+02
   8.782191e+01  -4.373589e+01
   5.611850e+01   1.508281e+01
   1.620917e+01   3.146222e+01
   2.276179e+00   1.342869e+01
   1.194837e+01   7.555578e+00
   2.143602e+01   3.626315e+01
   9.659470e+00   6.673256e+01
  -2.639153e+01   5.131605e+01
  -5.897859e+01  -1.099385e+01
  -5.592638e+01  -7.225841e+01
  -7.375615e+00  -7.725656e+01
   5.475292e+01  -2.213689e+01
   7.507896e+01   4.898525e+01
   2.680898e+01   7.674210e+01
  -5.147827e+01   4.834063e+01
  -7.938951e+01  -5.963124e+00
  -3.447428e+01  -4.714249e+01
   2.457397e+01  -4.824741e+01
   3.214536e+01  -2.091531e+01
  -1.761742e+01   3.845323e+00
  -4.816450e+01   3.406024e+00
  -1.149197e+01  -2.361768e+01
   6.027735e+01  -4.767653e+01
   8.928870e+01  -3.392010e+01
   5.324423e+01   1.871282e+01
  -1.150775e+01   6.614242e+01
  -4.587681e+01   6.270620e+01
  -3.695168e+01   9.806460e+00
  -4.951238e+00  -3.862029e+01
   1.816287e+01  -3.574923e+01
   2.608673e+01   8.994907e+00
   1.909019e+01   4.043702e+01
  -2.622686e+00   2.943596e+01
  -2.466648e+01  -3.668373e+00
  -3.116884e+01  -1.871837e+01
  -1.762075e+01  -3.550400e+00
   1.189691e+00   1.555818e+01
   3.402687e+00   6.315599e+00
  -5.931901e+00  -2.482044e+01
  -1.680225e+00  -4.048769e+01
   2.128340e+01  -1.852019e+01
   3.384372e+01   2.519260e+01
   1.189539e+01   4.581151e+01
  -2.993717e+01   2.006878e+01
  -4.744847e+01  -2.449337e+01
  -1.408187e+01  -4.537086e+01
   4.425281e+01  -2.545865e+01
   7.011034e+01   1.139135e+01
   3.774168e+01   3.484209e+01
  -2.293760e+01   3.700431e+01
  -4.971670e+01   2.290533e+01
  -2.379176e+01   5.570789e+00
   1.836644e+01  -4.282147e+00
   2.218579e+01   2.442937e+00
  -1.799327e+01   1.727264e+01
  -5.590089e+01   1.329953e+01
