
 $NMID
 id='ANONYMOUS ', fmtdat='(2E16.6)'
 volume=1.0
 tramp=1.0
 $END
  -2.831317e+03   1.160876e+02
  -1.986733e+03  -1.404388e+03
  -4.663030e+01  -1.871481e+03
   1.156276e+03  -1.100755e+03
   9.414671e+02  -1.242141e+02
   8.493862e+01   2.413260e+02
  -3.543601e+02  -7.012479e+01
  -8.763459e+01  -4.978553e+02
   3.711405e+02  -5.369054e+02
   6.318874e+02  -7.338849e+01
   4.398503e+02   5.093480e+02
  -1.494227e+01   6.499898e+02
  -3.426373e+02   2.011959e+02
  -2.972927e+02  -3.978694e+02
   8.187476e+01  -5.125762e+02
   4.100121e+02  -6.373481e+01
   3.023486e+02   4.843306e+02
  -1.237993e+02   6.081376e+02
  -4.679486e+02   2.609303e+02
  -4.224286e+02  -1.617685e+02
  -1.172171e+02  -3.440404e+02
   1.296718e+02  -2.292705e+02
   8.646345e+01  -5.312662e+01
  -1.835311e+02  -6.194144e+01
  -2.878081e+02  -2.397183e+02
  -1.116990e+01  -3.526753e+02
   4.682750e+02  -1.778749e+02
   6.175684e+02   1.505873e+02
   2.343579e+02   3.696348e+02
  -3.052031e+02   2.418938e+02
  -5.177154e+02  -9.872311e+01
  -2.147636e+02  -3.464305e+02
   2.306591e+02  -3.544838e+02
   4.463950e+02  -1.328334e+02
   3.372674e+02   1.576762e+02
   9.419269e+01   3.234568e+02
  -4.190937e+01   1.950430e+02
   1.094418e+01  -9.664461e+01
   1.785870e+02  -1.734478e+02
   2.207630e+02   1.328571e+02
   3.227095e+01   4.940758e+02
  -2.378523e+02   4.517283e+02
  -3.338992e+02   2.260797e+01
  -1.273011e+02  -2.937181e+02
   1.671033e+02  -1.564659e+02
   1.901658e+02   2.262955e+02
  -8.678692e+01   3.920553e+02
  -4.305685e+02   9.991074e+01
  -4.813067e+02  -3.186084e+02
  -1.491544e+02  -4.750428e+02
   2.908833e+02  -2.788425e+02
   5.024096e+02   3.917745e+01
   3.319710e+02   2.412127e+02
  -3.196978e+01   2.317986e+02
  -2.620315e+02   7.873157e+01
  -1.944867e+02  -2.240949e+01
   8.951198e+00  -1.322431e+01
   4.543127e+01   6.557209e+01
  -1.015172e+02   7.008929e+01
  -2.198418e+02  -5.095340e+01
  -1.194097e+02  -1.956195e+02
   1.467120e+02  -2.461371e+02
   3.347099e+02  -1.315149e+02
   2.630509e+02   1.095223e+02
  -1.638682e+01   3.217707e+02
  -2.660525e+02   3.632443e+02
  -3.492256e+02   1.535185e+02
  -2.424093e+02  -1.474500e+02
  -4.850137e+01  -3.451449e+02
   3.412221e+01  -3.038623e+02
   3.852152e+01  -1.608788e+02
   3.701521e+01  -9.981696e+01
   1.278558e+02  -1.157829e+02
   2.311825e+02  -6.544863e+01
   2.410992e+02   1.066248e+02
   1.071070e+02   2.525714e+02
  -7.804594e+01   1.997973e+02
  -1.891199e+02  -2.284626e+01
  -1.498658e+02  -2.326253e+02
   3.321732e+01  -2.542209e+02
   2.443638e+02  -8.040369e+01
   3.198715e+02   1.552732e+02
   1.889725e+02   2.876082e+02
  -3.419197e+01   2.573487e+02
  -1.604816e+02   1.444265e+02
  -1.415279e+02   7.800147e+01
  -1.392311e+02   7.248351e+01
  -2.619437e+02   4.739595e+01
  -3.894527e+02  -8.292527e+01
  -3.177137e+02  -2.835535e+02
  -5.121117e+00  -4.263403e+02
   3.431348e+02  -3.961677e+02
   4.614711e+02  -1.893006e+02
   2.901196e+02   8.683592e+01
   2.675819e+01   2.439260e+02
  -1.029065e+02   1.868798e+02
  -2.453724e+01   2.018894e+01
   1.110643e+02  -5.436651e+01
   1.269194e+02   2.738058e+01
   1.232931e+01   1.339393e+02
  -1.091956e+02   1.021533e+02
  -1.032138e+02  -5.087938e+01
   3.122145e+01  -1.326314e+02
   1.629277e+02  -1.105375e+01
   1.545547e+02   2.197812e+02
  -1.470309e+01   3.397212e+02
  -2.351869e+02   2.171662e+02
  -3.557214e+02  -5.304940e+01
  -2.784206e+02  -2.629115e+02
  -6.169424e+01  -2.734970e+02
   1.239305e+02  -1.429582e+02
   1.471481e+02  -9.028103e+00
   3.523380e+01   1.329413e+01
  -5.332482e+01  -5.654935e+01
  -1.573561e+00  -1.117069e+02
   1.149203e+02  -7.315490e+01
   1.369664e+02   2.193483e+01
   3.171149e+01   5.418623e+01
  -8.138948e+01  -3.511203e+00
  -4.351204e+01  -8.859082e+01
   1.348330e+02  -9.640270e+01
   2.858430e+02   3.774034e+00
   2.503287e+02   1.586371e+02
   3.225839e+01   2.643242e+02
  -1.957529e+02   2.278295e+02
  -2.653846e+02   9.744988e+01
  -1.457081e+02  -4.810168e+01
   2.103808e+01  -7.864285e+01
   6.384711e+01   1.383750e+00
  -4.270443e+01   7.711535e+01
  -1.708512e+02   3.962976e+01
  -1.861655e+02  -9.351573e+01
  -6.349943e+01  -1.801252e+02
   7.762000e+01  -1.369422e+02
   1.175028e+02  -2.449999e+01
   4.297729e+01   3.433955e+01
  -4.470111e+01  -1.944433e+01
  -3.024740e+01  -1.099174e+02
   9.256079e+01  -1.243440e+02
   2.065838e+02  -1.808151e+01
   1.820173e+02   1.322602e+02
   1.823525e+01   2.081226e+02
  -1.468704e+02   1.519082e+02
  -1.740625e+02   1.210920e+01
  -6.230801e+01  -9.326799e+01
   5.284378e+01  -9.328665e+01
   7.014452e+01  -2.220856e+01
   4.657986e+00   2.658728e+01
  -3.593600e+01   1.120141e+01
   5.032171e+00  -2.495864e+01
   8.628667e+01  -2.895014e+00
   1.059749e+02   8.731436e+01
   1.532515e+01   1.743902e+02
  -1.373952e+02   1.548327e+02
  -2.348636e+02   1.750999e+01
  -1.957541e+02  -1.524913e+02
  -4.287678e+01  -2.273390e+02
   9.868670e+01  -1.620769e+02
   1.320403e+02  -3.415621e+01
   7.917065e+01   4.490354e+01
   3.262369e+01   3.342708e+01
   4.673025e+01  -1.230610e+01
   8.035632e+01  -8.692107e+00
   5.728945e+01   5.494616e+01
  -2.920966e+01   1.025577e+02
  -1.150286e+02   6.582434e+01
  -1.090963e+02  -4.142254e+01
   9.237885e+00  -1.273370e+02
   1.566817e+02  -9.183374e+01
   2.043935e+02   6.008900e+01
   8.755377e+01   2.070937e+02
  -1.162260e+02   2.231466e+02
  -2.571029e+02   8.575981e+01
  -2.386854e+02  -8.662285e+01
  -9.680641e+01  -1.640675e+02
   3.077398e+01  -1.340935e+02
   7.661037e+01  -7.281971e+01
   5.892163e+01  -6.118277e+01
   5.005661e+01  -9.003636e+01
   8.605882e+01  -8.403896e+01
   1.323640e+02   7.355538e+00
   1.215874e+02   1.406398e+02
   2.919051e+01   2.191103e+02
  -9.818983e+01   1.648040e+02
  -1.666927e+02   1.651621e+01
  -1.228683e+02  -1.214832e+02
  -8.440095e+00  -1.535038e+02
   7.397715e+01  -8.168570e+01
   6.484176e+01   1.160392e+01
   8.942273e-01   5.084750e+01
  -2.383033e+01   3.461968e+01
   2.458235e+01   1.071408e+01
   8.347539e+01   1.565730e+01
   5.189906e+01   4.379458e+01
  -7.010636e+01   4.672519e+01
  -1.688710e+02   2.647165e+00
  -1.449739e+02  -6.540549e+01
  -3.361687e+00  -1.019218e+02
   1.328517e+02  -7.464459e+01
   1.428922e+02  -9.172778e-01
   4.238670e+01   5.079102e+01
  -6.014796e+01   4.393326e+01
  -7.690975e+01  -1.681416e+01
  -2.174105e+01  -7.433646e+01
   4.167546e+01  -6.855701e+01
   6.764899e+01  -5.791148e+00
   5.809284e+01   4.924067e+01
   4.582255e+01   4.413799e+01
   5.128981e+01  -2.485781e+00
   6.606081e+01  -2.490470e+00
   4.962342e+01   6.884781e+01
  -1.908501e+01   1.519925e+02
  -1.177819e+02   1.481749e+02
  -1.797445e+02   4.094805e+01
  -1.351761e+02  -8.903907e+01
  -9.153720e+00  -1.315975e+02
   8.914095e+01  -7.140927e+01
   6.563003e+01   1.017879e+01
  -4.943825e+01   2.600797e+01
  -1.292211e+02  -3.307955e+01
  -7.572516e+01  -9.982738e+01
   6.811098e+01  -1.008321e+02
   1.773699e+02  -3.859254e+01
   1.482402e+02   3.941551e+01
   2.829832e+01   7.993915e+01
  -6.158793e+01   5.321639e+01
  -4.503179e+01  -3.525207e+00
   3.964678e+01  -2.974503e+01
   9.282156e+01   1.962950e+01
   4.114519e+01   1.132048e+02
  -7.545900e+01   1.531646e+02
  -1.539312e+02   7.229631e+01
  -1.270650e+02  -8.540138e+01
  -1.976970e+01  -1.848891e+02
   7.762716e+01  -1.330406e+02
   9.918695e+01   7.593184e+00
   5.334486e+01   1.108568e+02
  -1.221869e+01   9.605759e+01
  -5.037836e+01   1.314198e+01
  -4.428279e+01  -3.079194e+01
  -1.477235e+01  -7.663858e+00
  -4.173049e+00   1.737872e+01
  -2.980068e+01  -1.761305e+01
  -5.897954e+01  -8.637756e+01
  -3.168503e+01  -1.035536e+02
   5.503628e+01  -4.567966e+01
   1.336516e+02   3.244933e+01
   1.190988e+02   6.674148e+01
   1.943271e+01   5.497324e+01
  -7.684904e+01   2.999026e+01
  -8.590065e+01   1.020047e+01
  -2.196365e+01  -1.271492e+01
   2.921894e+01  -2.314116e+01
   1.868770e+01  -1.474287e+01
  -1.383191e+01   4.533465e+00
  -1.893305e-01   4.866921e+00
   6.010481e+01  -7.458827e+00
   9.261636e+01   1.441651e+01
   2.823446e+01   7.528890e+01
  -9.756318e+01   1.147555e+02
  -1.758966e+02   6.959962e+01
  -1.458118e+02  -4.918605e+01
  -3.569582e+01  -1.485770e+02
   6.977946e+01  -1.506763e+02
   1.080050e+02  -6.477714e+01
   7.602262e+01   1.540846e+01
   2.707726e+01   3.820097e+01
   2.744904e+00   1.215889e+01
   1.091495e+01   5.157575e+00
   2.703038e+01   4.346105e+01
   1.962595e+01   8.494344e+01
  -2.568696e+01   7.065060e+01
  -7.558582e+01  -1.025943e+01
  -7.998458e+01  -9.237638e+01
  -1.865222e+01  -1.051454e+02
   7.131051e+01  -3.568116e+01
   1.048796e+02   5.784823e+01
   4.145598e+01   9.830682e+01
  -6.007720e+01   6.709655e+01
  -9.938327e+01  -3.248546e+00
  -4.760263e+01  -5.594179e+01
   2.939501e+01  -6.080396e+01
   3.902173e+01  -2.675501e+01
  -2.165883e+01   8.316792e+00
  -6.256262e+01   1.086743e+01
  -2.076866e+01  -2.703172e+01
   6.625511e+01  -6.126799e+01
   1.112570e+02  -5.163226e+01
   7.175123e+01   1.604009e+01
  -1.007113e+01   8.170081e+01
  -5.721774e+01   8.153850e+01
  -4.602875e+01   1.294715e+01
  -1.117392e+01  -5.254364e+01
   2.180763e+01  -4.970766e+01
   3.903587e+01   6.571720e+00
   3.152667e+01   5.091290e+01
   1.099250e+00   4.021965e+01
  -3.185787e+01  -8.516901e-01
  -4.162495e+01  -2.167407e+01
  -2.153439e+01  -3.618797e+00
   3.051928e+00   1.877237e+01
   5.991991e+00   7.422869e+00
  -5.876187e+00  -3.150821e+01
  -1.234472e+00  -5.182547e+01
   2.541058e+01  -2.389322e+01
   4.265978e+01   3.080583e+01
   1.779452e+01   5.792401e+01
  -3.686763e+01   2.855082e+01
  -6.405526e+01  -2.647479e+01
  -2.322558e+01  -5.764559e+01
   5.172114e+01  -4.067613e+01
   8.974173e+01   4.219151e+00
   5.086250e+01   3.900368e+01
  -2.518490e+01   4.552656e+01
  -5.979956e+01   3.024840e+01
  -2.641474e+01   8.297559e+00
   2.679193e+01  -4.107168e+00
   2.989636e+01   6.923425e+00
  -2.251194e+01   2.739503e+01
  -7.554329e+01   2.522647e+01
