
 $NMID
 id='ANONYMOUS ', fmtdat='(2E16.6)'
 volume=1.0
 tramp=1.0
 $END
   2.819739e+03  -1.151682e+02
   1.881288e+03   1.423418e+03
  -1.922644e+02   1.897497e+03
  -1.365313e+03   9.327678e+02
  -9.351002e+02  -1.220202e+02
   1.133585e+02  -3.539534e+02
   4.947608e+02   1.053666e+02
   8.840493e+01   5.736034e+02
  -4.265442e+02   5.126323e+02
  -6.536163e+02   2.846547e+01
  -4.154216e+02  -5.257310e+02
   9.888231e+00  -6.550334e+02
   3.466311e+02  -1.985288e+02
   2.849310e+02   3.979154e+02
  -1.265512e+02   4.916522e+02
  -4.148991e+02   4.465779e+01
  -2.539599e+02  -4.926613e+02
   1.805420e+02  -5.680543e+02
   4.634313e+02  -2.063202e+02
   3.560868e+02   2.047002e+02
   6.243847e+01   3.357228e+02
  -1.477070e+02   2.158666e+02
  -8.650881e+01   6.052991e+01
   1.367781e+02   6.071132e+01
   2.600166e+02   1.911162e+02
   2.418638e+01   3.078666e+02
  -4.263828e+02   1.859267e+02
  -6.149934e+02  -1.209533e+02
  -2.669868e+02  -3.601592e+02
   2.737271e+02  -2.607137e+02
   5.054441e+02   7.966200e+01
   2.123868e+02   3.435270e+02
  -2.378077e+02   3.429273e+02
  -4.322575e+02   1.144961e+02
  -2.997198e+02  -1.726769e+02
  -7.351366e+01  -3.156254e+02
   6.039784e+01  -1.848204e+02
   1.563008e+01   9.811591e+01
  -1.446923e+02   2.005097e+02
  -2.298787e+02  -8.445813e+01
  -9.100715e+01  -4.736246e+02
   2.219315e+02  -4.600295e+02
   3.466139e+02  -1.601929e+01
   1.430112e+02   3.205625e+02
  -1.706616e+02   1.747072e+02
  -2.062707e+02  -2.096612e+02
   6.301305e+01  -3.549799e+02
   3.897415e+02  -8.073451e+01
   4.082460e+02   3.240618e+02
   1.199941e+02   4.515350e+02
  -2.816379e+02   2.607448e+02
  -4.712324e+02  -5.012176e+01
  -3.056166e+02  -2.496103e+02
   4.780603e+01  -2.360034e+02
   2.648481e+02  -6.114215e+01
   1.883157e+02   6.349093e+01
  -2.831299e+01   4.021396e+01
  -6.718406e+01  -7.639942e+01
   9.690406e+01  -9.362574e+01
   2.334401e+02   4.496887e+01
   1.167696e+02   1.993535e+02
  -1.527415e+02   2.294500e+02
  -3.044520e+02   1.020784e+02
  -2.137650e+02  -9.241461e+01
   3.637183e+01  -2.652530e+02
   2.419391e+02  -2.877802e+02
   2.909479e+02  -1.249110e+02
   2.065525e+02   1.347407e+02
   4.839379e+01   3.150915e+02
  -4.464575e+01   2.891079e+02
  -4.160610e+01   1.322224e+02
  -2.927518e+01   6.458230e+01
  -9.476126e+01   9.229953e+01
  -1.938142e+02   7.090816e+01
  -2.103650e+02  -8.891157e+01
  -9.867193e+01  -2.234956e+02
   7.064212e+01  -1.776251e+02
   1.717204e+02   2.842220e+01
   1.311919e+02   2.143095e+02
  -3.132076e+01   2.226198e+02
  -2.131232e+02   6.321929e+01
  -2.729353e+02  -1.434912e+02
  -1.534085e+02  -2.601117e+02
   5.713257e+01  -2.260365e+02
   1.624812e+02  -1.236778e+02
   1.318119e+02  -5.196335e+01
   1.174532e+02  -4.900304e+01
   2.246677e+02  -3.511714e+01
   3.521941e+02   8.051431e+01
   2.811725e+02   2.575474e+02
  -1.394110e+01   3.798009e+02
  -3.202768e+02   3.511257e+02
  -4.143510e+02   1.728855e+02
  -2.563485e+02  -7.376476e+01
  -2.337324e+01  -2.140017e+02
   8.646130e+01  -1.756593e+02
   1.848179e+01  -3.461635e+01
  -1.074109e+02   4.795976e+01
  -1.240088e+02  -2.186526e+01
  -1.603328e+01  -1.362902e+02
   1.116771e+02  -1.143043e+02
   1.186954e+02   4.119146e+01
  -1.662858e+01   1.294323e+02
  -1.450040e+02   5.010444e+00
  -1.268387e+02  -2.151899e+02
   3.039726e+01  -3.014349e+02
   2.159037e+02  -1.661314e+02
   2.924515e+02   6.561779e+01
   2.288202e+02   2.223455e+02
   5.255112e+01   2.230946e+02
  -1.023863e+02   1.150231e+02
  -1.273960e+02   3.674727e+00
  -3.525498e+01  -1.892825e+01
   4.867920e+01   4.701926e+01
   7.632621e+00   9.628362e+01
  -9.872329e+01   6.085266e+01
  -1.241962e+02  -2.508643e+01
  -2.838534e+01  -5.177280e+01
   7.018224e+01   3.661998e+00
   3.178360e+01   7.462775e+01
  -1.277571e+02   7.086750e+01
  -2.514990e+02  -1.922801e+01
  -2.103433e+02  -1.481842e+02
  -2.009178e+01  -2.261623e+02
   1.744107e+02  -2.006335e+02
   2.371411e+02  -8.320738e+01
   1.263257e+02   4.185041e+01
  -1.807189e+01   7.222704e+01
  -5.932617e+01  -5.245970e-01
   3.580077e+01  -6.909917e+01
   1.505088e+02  -3.108007e+01
   1.579974e+02   9.121836e+01
   4.429857e+01   1.609782e+02
  -7.798595e+01   1.154486e+02
  -1.101491e+02   1.300582e+01
  -4.300483e+01  -3.534897e+01
   3.195644e+01   1.350065e+01
   2.089768e+01   8.830268e+01
  -8.263197e+01   9.492753e+01
  -1.772867e+02   7.988159e+00
  -1.512359e+02  -1.163740e+02
  -7.191263e+00  -1.819926e+02
   1.360780e+02  -1.326129e+02
   1.542311e+02  -9.429117e+00
   5.141596e+01   8.299058e+01
  -5.460793e+01   8.130913e+01
  -6.371441e+01   1.967383e+01
  -4.477797e+00  -2.240504e+01
   2.925912e+01  -1.004521e+01
  -8.052632e+00   1.764409e+01
  -7.299485e+01  -3.381058e+00
  -8.826633e+01  -7.922082e+01
  -8.936647e+00  -1.474390e+02
   1.210321e+02  -1.287300e+02
   2.032126e+02  -9.537978e+00
   1.645286e+02   1.359543e+02
   3.001550e+01   1.994186e+02
  -9.061300e+01   1.397159e+02
  -1.161420e+02   2.339132e+01
  -6.661287e+01  -4.418896e+01
  -2.810605e+01  -3.052907e+01
  -4.507638e+01   1.051414e+01
  -6.932309e+01   2.376550e+00
  -4.165310e+01  -5.181443e+01
   3.753230e+01  -8.826731e+01
   1.017820e+02  -5.046547e+01
   8.637358e+01   4.272452e+01
  -1.584797e+01   1.088932e+02
  -1.367495e+02   7.489447e+01
  -1.747237e+02  -5.434208e+01
  -7.474328e+01  -1.783219e+02
   1.018890e+02  -1.904875e+02
   2.251817e+02  -7.504519e+01
   2.130797e+02   7.491251e+01
   8.724193e+01   1.484889e+02
  -3.443626e+01   1.217307e+02
  -7.628629e+01   6.817324e+01
  -5.885755e+01   5.683969e+01
  -4.832821e+01   8.071699e+01
  -8.048202e+01   6.942147e+01
  -1.154851e+02  -1.415369e+01
  -1.020077e+02  -1.330710e+02
  -2.118568e+01  -1.961914e+02
   8.839224e+01  -1.445236e+02
   1.481747e+02  -1.028869e+01
   1.061049e+02   1.090739e+02
   7.860836e+00   1.338073e+02
  -6.305537e+01   7.037813e+01
  -4.992426e+01  -8.639486e+00
   2.516191e+00  -4.091280e+01
   1.877894e+01  -2.675388e+01
  -2.665502e+01  -8.811614e+00
  -7.276513e+01  -1.678241e+01
  -4.105755e+01  -3.694782e+01
   6.389727e+01  -3.416286e+01
   1.471904e+02   3.957469e+00
   1.218693e+02   5.690495e+01
  -8.412608e-01   7.959959e+01
  -1.140419e+02   5.643204e+01
  -1.221375e+02   2.668931e+00
  -3.894200e+01  -3.900705e+01
   5.187683e+01  -3.282755e+01
   6.500727e+01   1.760653e+01
   1.346614e+01   6.226347e+01
  -4.250213e+01   5.338302e+01
  -5.824699e+01  -2.452744e+00
  -4.681118e+01  -4.785853e+01
  -3.856823e+01  -3.911661e+01
  -4.556795e+01   2.406795e+00
  -5.497494e+01  -6.374407e-01
  -3.423647e+01  -6.502227e+01
   3.094932e+01  -1.327181e+02
   1.123938e+02  -1.173872e+02
   1.524235e+02  -2.073752e+01
   1.084360e+02   8.191494e+01
   3.745983e-01   1.100363e+02
  -8.082227e+01   5.600306e+01
  -5.418685e+01  -9.049823e+00
   5.108315e+01  -1.709198e+01
   1.166916e+02   3.303928e+01
   6.181127e+01   8.687623e+01
  -7.017104e+01   8.817961e+01
  -1.586788e+02   3.601275e+01
  -1.304758e+02  -3.424880e+01
  -2.785323e+01  -7.004653e+01
   5.134602e+01  -5.221661e+01
   3.825552e+01  -1.408028e+00
  -3.673214e+01   2.438326e+01
  -7.946305e+01  -2.023115e+01
  -3.206107e+01  -1.016438e+02
   7.361797e+01  -1.344638e+02
   1.414538e+02  -5.499689e+01
   1.100102e+02   8.440805e+01
   1.142721e+01   1.701544e+02
  -7.057260e+01   1.206300e+02
  -8.678764e+01  -9.763453e+00
  -4.579300e+01  -1.018628e+02
   9.273188e+00  -8.732172e+01
   4.172739e+01  -1.238536e+01
   3.941511e+01   2.700947e+01
   1.814298e+01   7.311099e+00
   5.142495e+00  -1.642095e+01
   2.369954e+01   1.675175e+01
   4.816613e+01   7.724107e+01
   3.027365e+01   8.854095e+01
  -4.476562e+01   3.512671e+01
  -1.183969e+02  -3.601966e+01
  -1.075660e+02  -6.220711e+01
  -1.402209e+01  -4.640964e+01
   7.135967e+01  -2.016290e+01
   7.571475e+01  -2.528009e+00
   1.445759e+01   1.014059e+01
  -3.129929e+01   1.653183e+01
  -1.806424e+01   9.516956e+00
   1.330971e+01  -4.135292e+00
  -4.290352e+00  -4.541456e+00
  -5.840868e+01   1.375382e-01
  -7.813592e+01  -2.242846e+01
  -1.269377e+01  -7.233014e+01
   9.799674e+01  -1.017991e+02
   1.645063e+02  -5.743269e+01
   1.323928e+02   5.206935e+01
   2.841022e+01   1.396550e+02
  -6.705758e+01   1.362657e+02
  -9.934148e+01   5.693597e+01
  -6.516752e+01  -1.821409e+01
  -2.027556e+01  -3.383919e+01
  -7.294242e-01  -9.218403e+00
  -1.201135e+01  -4.643785e+00
  -2.704606e+01  -4.126087e+01
  -1.711346e+01  -7.926634e+01
   2.499344e+01  -6.272781e+01
   6.756719e+01   1.281697e+01
   6.915122e+01   8.871265e+01
   1.239932e+01   9.717245e+01
  -6.667510e+01   2.607771e+01
  -9.351095e+01  -6.027749e+01
  -3.397271e+01  -9.117595e+01
   5.663016e+01  -5.625962e+01
   8.776114e+01   8.943255e+00
   3.852501e+01   4.978980e+01
  -2.976352e+01   4.807494e+01
  -3.218787e+01   1.976118e+01
   2.421774e+01  -6.416216e+00
   5.837132e+01  -6.156422e+00
   1.350121e+01   2.559686e+01
  -6.609536e+01   5.564203e+01
  -1.001372e+02   4.365315e+01
  -5.740629e+01  -1.420719e+01
   1.432148e+01  -7.061444e+01
   5.103384e+01  -6.671025e+01
   3.749834e+01  -7.502090e+00
   4.429579e+00   4.697259e+01
  -2.282582e+01   3.929415e+01
  -3.349483e+01  -1.217068e+01
  -2.308256e+01  -4.591520e+01
   3.821413e+00  -3.287520e+01
   2.961347e+01   5.936183e+00
   3.427547e+01   2.187392e+01
   1.648271e+01   2.796601e+00
  -2.148561e+00  -1.780127e+01
  -4.795990e+00  -4.911474e+00
   1.606670e+00   3.130524e+01
  -5.000116e+00   4.654113e+01
  -2.542787e+01   1.767327e+01
  -3.346963e+01  -3.401686e+01
  -8.226810e+00  -5.476882e+01
   3.616069e+01  -2.145203e+01
   5.436638e+01   3.046635e+01
   1.558212e+01   5.493879e+01
  -4.987906e+01   3.258249e+01
  -8.052533e+01  -1.083412e+01
  -4.322032e+01  -3.853377e+01
   2.512112e+01  -3.768850e+01
   5.826177e+01  -2.135095e+01
   2.356625e+01  -3.573360e+00
  -2.760502e+01   3.455962e+00
  -3.014326e+01  -5.445557e+00
   2.017188e+01  -2.334900e+01
   6.762514e+01  -1.840040e+01
