
 $NMID
 id='ANONYMOUS ', fmtdat='(2E16.6)'
 volume=1.0
 tramp=1.0
 $END
   2.748439e+03   3.631447e+02
   1.448003e+03   1.714341e+03
  -3.508544e+02   1.684676e+03
  -1.099989e+03   7.829302e+02
  -6.236204e+02  -8.710708e+01
   1.683880e+02  -1.600104e+02
   3.485170e+02   2.564202e+02
  -6.266184e+01   5.746839e+02
  -4.837996e+02   4.515697e+02
  -5.561404e+02  -5.547393e+01
  -2.711656e+02  -5.300146e+02
   1.449293e+02  -5.344359e+02
   3.483209e+02  -5.499311e+01
   1.768861e+02   4.480479e+02
  -1.840694e+02   4.418523e+02
  -3.500365e+02  -3.121818e+01
  -1.532093e+02  -4.539051e+02
   1.973661e+02  -4.516656e+02
   3.908534e+02  -1.067076e+02
   3.182521e+02   2.220930e+02
   7.318724e+01   3.094232e+02
  -1.308232e+02   1.859436e+02
  -1.034714e+02   1.421406e+01
   1.272788e+02   2.615697e+01
   2.351159e+02   2.067213e+02
   4.137797e+00   3.283530e+02
  -4.133883e+02   1.681680e+02
  -5.044487e+02  -1.936516e+02
  -1.703791e+02  -3.684753e+02
   3.176108e+02  -2.030466e+02
   4.466680e+02   1.267446e+02
   1.401932e+02   3.304209e+02
  -2.677728e+02   2.768914e+02
  -4.107375e+02   7.722468e+01
  -2.504663e+02  -1.737727e+02
  -1.181902e+00  -3.016536e+02
   1.191420e+02  -1.582646e+02
   4.471644e+00   1.284034e+02
  -2.083227e+02   1.878630e+02
  -2.318199e+02  -1.292964e+02
   1.224296e+01  -4.655262e+02
   2.855796e+02  -3.645786e+02
   3.049995e+02   6.266636e+01
   4.899081e+01   3.042154e+02
  -1.838748e+02   1.116104e+02
  -1.476180e+02  -2.492790e+02
   1.325510e+02  -3.393593e+02
   3.825522e+02  -3.316665e+01
   3.584720e+02   3.268343e+02
   5.223563e+01   4.138767e+02
  -2.930194e+02   1.892486e+02
  -4.147301e+02  -9.879249e+01
  -2.341063e+02  -2.658173e+02
   8.407081e+01  -2.038248e+02
   2.618022e+02  -4.262844e+01
   1.566757e+02   6.145570e+01
  -2.843261e+01   1.505008e+01
  -4.331201e+01  -7.370702e+01
   1.172060e+02  -5.075754e+01
   1.930150e+02   7.766739e+01
   7.104405e+01   1.827250e+02
  -1.545993e+02   1.685661e+02
  -2.706745e+02   5.234749e+01
  -1.794540e+02  -8.914210e+01
   3.381374e+01  -2.274188e+02
   2.333715e+02  -2.632452e+02
   2.941070e+02  -1.025541e+02
   1.808873e+02   1.533016e+02
   6.663529e+00   3.134517e+02
  -8.496386e+01   2.482342e+02
  -4.895753e+01   9.332975e+01
  -2.502791e+01   4.434133e+01
  -9.593907e+01   8.801327e+01
  -1.935271e+02   4.420175e+01
  -1.947850e+02  -9.712715e+01
  -6.414006e+01  -2.176798e+02
   9.037886e+01  -1.599930e+02
   1.523386e+02   3.768713e+01
   9.095862e+01   2.076651e+02
  -6.047496e+01   2.027176e+02
  -2.125155e+02   3.446506e+01
  -2.415598e+02  -1.706168e+02
  -1.100683e+02  -2.659620e+02
   6.853228e+01  -2.099828e+02
   1.519953e+02  -9.344178e+01
   1.180444e+02  -3.533205e+01
   1.108195e+02  -3.762456e+01
   2.137999e+02  -1.348084e+01
   3.071484e+02   9.649879e+01
   2.228240e+02   2.646452e+02
  -5.546200e+01   3.543478e+02
  -3.293554e+02   2.854229e+02
  -3.912607e+02   9.317528e+01
  -2.307598e+02  -1.176431e+02
  -1.141875e+00  -2.204041e+02
   1.025711e+02  -1.532344e+02
   3.246328e+01  -7.751734e+00
  -9.041063e+01   4.655794e+01
  -1.152855e+02  -3.173257e+01
  -6.294220e+00  -1.239993e+02
   1.060596e+02  -8.210943e+01
   9.451634e+01   5.716078e+01
  -3.100724e+01   1.169140e+02
  -1.381666e+02  -2.124543e+00
  -1.039497e+02  -1.956591e+02
   5.018364e+01  -2.651523e+02
   2.081087e+02  -1.398558e+02
   2.748555e+02   7.020392e+01
   2.002563e+02   2.234934e+02
   3.338931e+01   2.332927e+02
  -1.131887e+02   1.152777e+02
  -1.257166e+02  -8.206252e+00
  -2.265954e+01  -2.356008e+01
   4.412574e+01   4.541589e+01
  -7.370292e+00   9.616102e+01
  -1.090480e+02   5.250492e+01
  -1.204560e+02  -2.543081e+01
  -1.722734e+01  -4.731115e+01
   6.868426e+01   1.242576e+01
   2.829232e+01   7.690220e+01
  -1.171140e+02   6.265346e+01
  -2.334720e+02  -3.159963e+01
  -1.917656e+02  -1.547658e+02
  -7.699482e+00  -2.160266e+02
   1.785200e+02  -1.806596e+02
   2.232111e+02  -6.028453e+01
   1.082301e+02   5.619612e+01
  -3.366005e+01   6.894253e+01
  -5.196928e+01  -1.090040e+01
   5.514323e+01  -6.974846e+01
   1.568262e+02  -1.372804e+01
   1.416717e+02   1.030623e+02
   2.520065e+01   1.594905e+02
  -8.654001e+01   1.038704e+02
  -1.004903e+02   6.604213e+00
  -3.336513e+01  -3.576804e+01
   3.390605e+01   1.403285e+01
   1.503831e+01   8.419387e+01
  -8.655758e+01   8.758711e+01
  -1.689670e+02  -6.666762e+00
  -1.324078e+02  -1.250068e+02
   1.300747e+01  -1.737228e+02
   1.437304e+02  -1.080269e+02
   1.443985e+02   1.366099e+01
   3.700938e+01   9.002513e+01
  -5.405833e+01   7.091451e+01
  -5.745340e+01   8.038236e+00
  -2.531718e+00  -2.477421e+01
   2.537193e+01  -5.603745e+00
  -7.189559e+00   1.904550e+01
  -6.292521e+01  -7.798967e+00
  -6.914161e+01  -8.125487e+01
   8.209892e+00  -1.384539e+02
   1.268436e+02  -1.095399e+02
   1.932175e+02   1.488950e+01
   1.404960e+02   1.469614e+02
   6.193388e+00   1.868724e+02
  -9.976673e+01   1.137302e+02
  -1.052678e+02   5.570383e+00
  -4.815236e+01  -4.613331e+01
  -1.666230e+01  -2.459575e+01
  -3.916947e+01   1.051375e+01
  -6.593228e+01   1.903115e+00
  -3.834304e+01  -4.719626e+01
   3.415866e+01  -7.619363e+01
   9.463014e+01  -4.064271e+01
   7.706158e+01   4.228036e+01
  -2.084187e+01   9.875195e+01
  -1.322551e+02   5.591501e+01
  -1.549707e+02  -7.092997e+01
  -5.092293e+01  -1.758573e+02
   1.161526e+02  -1.622721e+02
   2.181467e+02  -3.476341e+01
   1.841186e+02   1.000203e+02
   5.836211e+01   1.449260e+02
  -4.451807e+01   1.015213e+02
  -7.579448e+01   5.235612e+01
  -6.069473e+01   4.849162e+01
  -6.016542e+01   6.922105e+01
  -8.076350e+01   4.870530e+01
  -1.014513e+02  -3.379390e+01
  -7.409086e+01  -1.355356e+02
   3.965720e+00  -1.753105e+02
   9.680811e+01  -1.159475e+02
   1.353535e+02   1.065755e+01
   8.681011e+01   1.105263e+02
  -1.035626e+01   1.215018e+02
  -6.629822e+01   5.600917e+01
  -4.887190e+01  -1.684436e+01
   7.412312e+00  -4.221297e+01
   2.155460e+01  -2.572998e+01
  -2.257312e+01  -7.806241e+00
  -6.774615e+01  -1.930093e+01
  -3.401284e+01  -3.527392e+01
   6.187479e+01  -2.830703e+01
   1.322473e+02   1.463559e+01
   1.046198e+02   6.054503e+01
  -1.148510e+01   7.868847e+01
  -1.128109e+02   4.799096e+01
  -1.101513e+02  -8.830734e+00
  -2.419109e+01  -4.732658e+01
   5.274011e+01  -3.053254e+01
   5.676107e+01   2.352671e+01
   3.207495e+00   6.048447e+01
  -4.397747e+01   4.511535e+01
  -5.107344e+01  -6.611333e+00
  -3.701601e+01  -4.505502e+01
  -3.328737e+01  -3.455974e+01
  -4.570860e+01  -2.235358e+00
  -5.481403e+01  -4.329781e+00
  -2.999932e+01  -6.083095e+01
   2.920333e+01  -1.183600e+02
   1.064932e+02  -1.075683e+02
   1.391472e+02  -1.702739e+01
   9.276870e+01   8.251009e+01
  -5.477413e+00   1.049616e+02
  -7.379512e+01   4.710342e+01
  -4.290066e+01  -1.556907e+01
   4.845067e+01  -1.186464e+01
   1.008998e+02   4.598548e+01
   4.845319e+01   9.105533e+01
  -6.801535e+01   8.135474e+01
  -1.503148e+02   2.403064e+01
  -1.210710e+02  -4.031689e+01
  -1.981092e+01  -6.857408e+01
   5.369449e+01  -4.414571e+01
   3.827639e+01   2.342764e+00
  -3.416134e+01   1.633535e+01
  -7.227960e+01  -2.498690e+01
  -1.923921e+01  -9.589847e+01
   7.700182e+01  -1.147705e+02
   1.285442e+02  -4.075997e+01
   9.171219e+01   8.471972e+01
  -4.607919e+00   1.547683e+02
  -7.969275e+01   9.833696e+01
  -8.247847e+01  -2.136826e+01
  -3.279080e+01  -1.004144e+02
   1.880158e+01  -7.915861e+01
   4.191898e+01  -6.167207e+00
   3.413252e+01   3.065341e+01
   1.177654e+01   9.643347e+00
   5.590768e+00  -1.232473e+01
   2.260094e+01   1.821389e+01
   3.762730e+01   7.466348e+01
   1.218603e+01   8.725484e+01
  -5.303415e+01   3.115688e+01
  -1.061972e+02  -4.279893e+01
  -8.710270e+01  -7.137952e+01
  -3.013343e+00  -4.823911e+01
   7.090181e+01  -1.466247e+01
   7.108313e+01   5.689538e+00
   1.063618e+01   1.572796e+01
  -3.063347e+01   1.475283e+01
  -1.632709e+01   7.147587e+00
   1.401888e+01  -2.070249e+00
  -4.088212e-02  -4.201458e+00
  -4.950423e+01  -3.709193e+00
  -6.752026e+01  -2.472682e+01
  -7.200668e+00  -6.417704e+01
   9.267427e+01  -7.913000e+01
   1.459499e+02  -3.108469e+01
   1.080392e+02   6.161824e+01
   7.919685e+00   1.279977e+02
  -7.579363e+01   1.134700e+02
  -9.467694e+01   4.195977e+01
  -5.744475e+01  -2.185866e+01
  -1.482261e+01  -3.481934e+01
   1.169346e+00  -1.090648e+01
  -9.512738e+00  -4.794729e+00
  -2.244943e+01  -3.862199e+01
  -8.783161e+00  -7.295649e+01
   3.109085e+01  -5.485864e+01
   6.298444e+01   1.687141e+01
   5.517306e+01   8.449063e+01
  -8.276105e-01   8.650621e+01
  -6.335982e+01   1.621129e+01
  -7.726832e+01  -6.135293e+01
  -1.985031e+01  -8.392348e+01
   5.738673e+01  -4.542887e+01
   7.984219e+01   1.425086e+01
   3.054774e+01   4.985544e+01
  -2.831435e+01   4.545129e+01
  -3.213671e+01   2.105291e+01
   2.036011e+01  -1.276692e+00
   5.112409e+01  -1.568333e+00
   1.131856e+01   2.338885e+01
  -6.355056e+01   4.786165e+01
  -9.579048e+01   3.409223e+01
  -5.432517e+01  -2.050201e+01
   1.719816e+01  -6.936203e+01
   5.366754e+01  -6.127769e+01
   3.766303e+01  -2.824131e+00
  -6.821093e-01   4.413129e+01
  -2.420858e+01   3.323340e+01
  -2.770697e+01  -1.516593e+01
  -1.482574e+01  -4.546178e+01
   5.392842e+00  -2.894119e+01
   2.459452e+01   8.021338e+00
   2.946279e+01   2.212857e+01
   1.672379e+01   4.213023e+00
   2.886025e-01  -1.596900e+01
  -3.981654e+00  -4.578845e+00
  -6.095975e-01   2.553267e+01
  -8.078963e+00   3.810498e+01
  -2.370500e+01   1.255969e+01
  -2.708862e+01  -3.260496e+01
  -1.387809e+00  -4.949135e+01
   3.548172e+01  -1.660525e+01
   4.628893e+01   3.204334e+01
   1.060559e+01   5.043078e+01
  -4.684795e+01   2.355452e+01
  -7.180369e+01  -1.809176e+01
  -3.664191e+01  -3.978669e+01
   2.517018e+01  -3.417378e+01
   5.297379e+01  -1.670763e+01
   2.273736e+01  -1.937941e+00
  -2.304409e+01   3.151888e-01
  -2.444508e+01  -1.053589e+01
   2.203677e+01  -2.146809e+01
   6.338046e+01  -9.417134e+00
