
 $NMID
 id='ANONYMOUS ', fmtdat='(2E16.6)'
 volume=1.0
 tramp=1.0
 $END
  -2.682239e+03   5.798296e+01
  -1.829520e+03  -1.572504e+03
   1.907156e+02  -1.847550e+03
   1.302445e+03  -9.696219e+02
   8.422049e+02  -3.938939e+01
  -6.527858e+01   2.258198e+02
  -3.602635e+02  -1.189730e+02
   1.348571e+01  -5.468732e+02
   4.566768e+02  -5.205241e+02
   5.489393e+02  -2.305665e+01
   2.955288e+02   4.925319e+02
  -7.641534e+01   5.591897e+02
  -2.938251e+02   1.062484e+02
  -1.868128e+02  -4.150670e+02
   1.110369e+02  -4.759494e+02
   3.298994e+02  -3.551924e+01
   1.919326e+02   4.383076e+02
  -1.564279e+02   4.954706e+02
  -4.038148e+02   1.811021e+02
  -3.519881e+02  -1.746327e+02
  -8.812852e+01  -3.002922e+02
   1.159160e+02  -2.003241e+02
   5.652019e+01  -6.451911e+01
  -1.538688e+02  -9.653855e+01
  -2.454597e+02  -2.430568e+02
   8.244049e+00  -3.225285e+02
   4.022175e+02  -1.277599e+02
   5.452432e+02   2.035414e+02
   1.776202e+02   3.545291e+02
  -3.174229e+02   1.775044e+02
  -4.641781e+02  -1.548843e+02
  -1.533244e+02  -3.437290e+02
   2.405100e+02  -3.099421e+02
   3.837637e+02  -9.085925e+01
   2.687455e+02   1.539179e+02
   5.373425e+01   2.683099e+02
  -4.690487e+01   1.648413e+02
   1.263755e+01  -7.453747e+01
   1.605874e+02  -1.436924e+02
   1.770264e+02   1.302159e+02
  -1.177248e+01   4.434136e+02
  -2.662460e+02   3.867350e+02
  -3.317536e+02  -2.747221e+01
  -1.128499e+02  -2.922010e+02
   1.554490e+02  -1.157264e+02
   1.617140e+02   2.554824e+02
  -1.090983e+02   3.528592e+02
  -4.127462e+02   2.637777e+01
  -4.330353e+02  -3.399565e+02
  -1.193293e+02  -4.167021e+02
   2.785568e+02  -2.057106e+02
   4.484623e+02   8.035417e+01
   2.665242e+02   2.430728e+02
  -8.313608e+01   2.114250e+02
  -2.794137e+02   7.555296e+01
  -1.830457e+02  -2.526784e+01
   5.168342e+00  -2.932270e+01
   2.295365e+01   4.325233e+01
  -1.106931e+02   4.025754e+01
  -1.947158e+02  -6.596644e+01
  -8.325264e+01  -1.699902e+02
   1.611759e+02  -1.804945e+02
   2.969877e+02  -8.509543e+01
   2.122651e+02   9.451484e+01
  -3.287271e+01   2.609087e+02
  -2.581881e+02   3.044095e+02
  -3.111537e+02   1.357759e+02
  -1.976163e+02  -1.508261e+02
  -3.076235e+01  -3.179368e+02
   4.502692e+01  -2.749261e+02
   3.361386e+01  -1.313394e+02
   3.397555e+01  -7.156289e+01
   1.210833e+02  -8.416028e+01
   2.185330e+02  -4.306086e+01
   2.048600e+02   1.162153e+02
   6.233533e+01   2.355172e+02
  -9.788212e+01   1.655220e+02
  -1.668384e+02  -4.787999e+01
  -9.905273e+01  -2.245070e+02
   6.501863e+01  -2.105534e+02
   2.215292e+02  -3.023302e+01
   2.483138e+02   1.838346e+02
   1.209625e+02   2.814156e+02
  -6.036489e+01   2.275846e+02
  -1.417764e+02   1.143462e+02
  -1.236464e+02   5.649071e+01
  -1.372265e+02   4.944530e+01
  -2.515120e+02   1.673276e+01
  -3.447225e+02  -1.176139e+02
  -2.409195e+02  -2.731751e+02
   6.164638e+01  -3.638901e+02
   3.542773e+02  -3.098279e+02
   4.202099e+02  -1.210579e+02
   2.417942e+02   1.057035e+02
   1.361072e-01   2.162094e+02
  -9.515530e+01   1.641788e+02
  -1.260142e+01   2.492901e+01
   1.160611e+02  -2.866179e+01
   1.188691e+02   4.486127e+01
  -1.251615e+00   1.351315e+02
  -1.179645e+02   8.931307e+01
  -9.839539e+01  -5.655892e+01
   3.517191e+01  -1.157529e+02
   1.402903e+02   8.348509e+00
   1.113353e+02   2.064334e+02
  -4.011705e+01   2.886373e+02
  -2.114064e+02   1.596051e+02
  -2.882070e+02  -7.597146e+01
  -2.095564e+02  -2.394170e+02
  -3.217977e+01  -2.321528e+02
   1.202040e+02  -1.070785e+02
   1.276030e+02   6.874492e+00
   2.929756e+01   1.164630e+01
  -4.026437e+01  -5.941719e+01
   1.354237e+01  -9.957015e+01
   1.125452e+02  -5.064524e+01
   1.252292e+02   2.768350e+01
   2.528967e+01   4.718857e+01
  -7.233426e+01  -1.822271e+01
  -2.481954e+01  -8.464440e+01
   1.443909e+02  -7.164674e+01
   2.701334e+02   3.775922e+01
   2.139921e+02   1.644561e+02
  -9.125458e-01   2.293578e+02
  -2.051511e+02   1.864184e+02
  -2.457237e+02   5.993475e+01
  -1.094832e+02  -5.345047e+01
   3.581601e+01  -6.671019e+01
   5.867511e+01   9.303291e+00
  -5.374581e+01   6.241023e+01
  -1.617529e+02   1.068714e+01
  -1.500696e+02  -1.063531e+02
  -2.912475e+01  -1.638940e+02
   8.765010e+01  -1.081087e+02
   1.061038e+02  -7.491011e+00
   3.492242e+01   3.425473e+01
  -3.468291e+01  -2.120766e+01
  -1.532482e+01  -9.793155e+01
   9.303482e+01  -9.816528e+01
   1.788115e+02   7.457112e-01
   1.415696e+02   1.251890e+02
  -8.413409e+00   1.792596e+02
  -1.432861e+02   1.176219e+02
  -1.475845e+02  -7.040346e+00
  -3.787198e+01  -8.986914e+01
   5.919828e+01  -8.233501e+01
   6.012985e+01  -1.645748e+01
  -1.573781e+00   2.216467e+01
  -3.335412e+01   6.592286e+00
   6.993254e+00  -1.897767e+01
   7.246214e+01   3.052354e+00
   8.179465e+01   8.314027e+01
  -2.842390e+00   1.506021e+02
  -1.333707e+02   1.217759e+02
  -2.090087e+02  -7.308935e+00
  -1.551924e+02  -1.517278e+02
  -1.319183e+01  -1.986209e+02
   9.866923e+01  -1.257848e+02
   1.119377e+02  -1.235901e+01
   5.609279e+01   4.572107e+01
   2.286243e+01   2.571671e+01
   4.462871e+01  -9.980189e+00
   7.375043e+01  -1.542023e+00
   4.257740e+01   5.175688e+01
  -4.150565e+01   8.979964e+01
  -1.076909e+02   5.074494e+01
  -8.890310e+01  -4.639760e+01
   2.650936e+01  -1.139417e+02
   1.503485e+02  -6.774814e+01
   1.721886e+02   7.397649e+01
   5.832022e+01   1.924296e+02
  -1.240450e+02   1.862384e+02
  -2.376670e+02   5.714622e+01
  -2.021104e+02  -8.633916e+01
  -7.368629e+01  -1.475689e+02
   4.459616e+01  -1.169097e+02
   7.787161e+01  -6.218885e+01
   5.790104e+01  -5.353472e+01
   4.949995e+01  -7.560456e+01
   8.101198e+01  -6.097527e+01
   1.123683e+02   2.474106e+01
   9.184729e+01   1.407576e+02
   2.377975e+00   1.960930e+02
  -1.003256e+02   1.329897e+02
  -1.488259e+02  -2.971789e+00
  -1.008000e+02  -1.182186e+02
   7.218430e-01  -1.347259e+02
   6.933047e+01  -6.626068e+01
   5.117878e+01   1.438611e+01
  -6.613646e+00   4.492294e+01
  -2.496120e+01   2.720965e+01
   2.670028e+01   6.653357e+00
   7.235597e+01   1.885441e+01
   4.072781e+01   3.702291e+01
  -6.585901e+01   2.923836e+01
  -1.509875e+02  -9.364798e+00
  -1.188827e+02  -6.507759e+01
   1.135152e+01  -8.857467e+01
   1.258030e+02  -5.291794e+01
   1.268204e+02   1.074786e+01
   3.172307e+01   4.945531e+01
  -5.485487e+01   3.092851e+01
  -6.510475e+01  -2.271516e+01
  -9.441615e+00  -6.385504e+01
   4.424595e+01  -5.254769e+01
   5.845155e+01   2.333342e+00
   4.358450e+01   4.746752e+01
   3.253364e+01   3.981823e+01
   4.518161e+01   5.736257e+00
   5.432273e+01   2.503145e+00
   3.385688e+01   6.503072e+01
  -3.267498e+01   1.281437e+02
  -1.144085e+02   1.122778e+02
  -1.560512e+02   1.069958e+01
  -1.046606e+02  -9.204685e+01
   7.776360e+00  -1.134986e+02
   8.133807e+01  -5.023814e+01
   5.214284e+01   1.372069e+01
  -5.416639e+01   1.224570e+01
  -1.151205e+02  -5.020493e+01
  -5.318125e+01  -1.016379e+02
   8.142545e+01  -9.435677e+01
   1.706060e+02  -2.687661e+01
   1.333684e+02   4.917176e+01
   1.923706e+01   7.897066e+01
  -6.354621e+01   5.356804e+01
  -4.557601e+01  -1.133848e+00
   3.464086e+01  -2.452529e+01
   7.682031e+01   2.265656e+01
   2.357566e+01   9.977305e+01
  -8.073932e+01   1.273346e+02
  -1.393534e+02   4.853068e+01
  -1.019288e+02  -8.804572e+01
  -8.783875e-01  -1.661313e+02
   7.959831e+01  -1.160962e+02
   8.978027e+01   1.673494e+01
   4.319353e+01   1.071765e+02
  -1.653944e+01   8.704474e+01
  -4.318856e+01   8.324989e+00
  -3.640232e+01  -3.109134e+01
  -1.249759e+01  -7.124527e+00
  -5.924178e+00   1.566637e+01
  -2.452313e+01  -1.743518e+01
  -4.465087e+01  -7.790562e+01
  -2.117715e+01  -9.134051e+01
   4.939466e+01  -3.290471e+01
   1.143483e+02   4.065107e+01
   1.023120e+02   6.816841e+01
   1.393274e+01   4.497018e+01
  -7.097771e+01   1.417693e+01
  -7.459091e+01  -3.258155e-01
  -1.367997e+01  -8.641601e+00
   3.170114e+01  -1.514822e+01
   1.690427e+01  -1.096713e+01
  -1.454093e+01  -6.588446e-01
   3.195695e+00   3.469048e+00
   6.089489e+01   5.097711e+00
   8.019320e+01   2.574977e+01
   1.233649e+01   7.085009e+01
  -1.005082e+02   9.373489e+01
  -1.651552e+02   4.437081e+01
  -1.259480e+02  -5.895035e+01
  -1.682786e+01  -1.395099e+02
   7.775817e+01  -1.274336e+02
   1.033997e+02  -5.121696e+01
   6.942795e+01   1.590065e+01
   2.152860e+01   3.203079e+01
   1.862969e+00   1.130050e+01
   1.007758e+01   9.138642e+00
   2.399502e+01   4.449356e+01
   1.110217e+01   7.774186e+01
  -2.941273e+01   5.682484e+01
  -6.625731e+01  -1.852664e+01
  -6.168484e+01  -9.231825e+01
  -6.558900e+00  -9.349874e+01
   6.448338e+01  -2.324345e+01
   8.730717e+01   5.831597e+01
   3.091529e+01   8.708684e+01
  -5.486910e+01   5.198305e+01
  -8.716632e+01  -1.074032e+01
  -3.701347e+01  -5.079340e+01
   3.249666e+01  -5.090259e+01
   3.590410e+01  -2.351193e+01
  -2.472239e+01   3.203231e+00
  -6.156063e+01   4.843479e+00
  -1.417274e+01  -2.409667e+01
   7.133658e+01  -5.196198e+01
   1.084354e+02  -4.117108e+01
   5.860408e+01   1.491924e+01
  -1.726113e+01   6.904180e+01
  -4.969778e+01   6.615917e+01
  -3.486661e+01   9.820854e+00
  -3.463153e+00  -4.461776e+01
   2.175176e+01  -3.993912e+01
   3.039617e+01   1.033198e+01
   2.158539e+01   4.818310e+01
  -3.311064e+00   3.452214e+01
  -2.887113e+01  -7.009249e+00
  -3.565167e+01  -2.607978e+01
  -1.710467e+01  -7.055429e+00
   4.273110e+00   1.530283e+01
   6.933700e+00   6.105715e+00
   6.844399e-02  -2.554137e+01
   4.099739e+00  -4.295585e+01
   2.154816e+01  -1.712675e+01
   3.131288e+01   3.160995e+01
   7.710652e+00   5.075060e+01
  -3.616968e+01   1.927098e+01
  -5.168211e+01  -3.074388e+01
  -1.137601e+01  -5.299869e+01
   5.220231e+01  -2.837716e+01
   8.021630e+01   1.492425e+01
   4.108517e+01   4.107657e+01
  -2.758458e+01   3.822617e+01
  -5.834822e+01   2.181875e+01
  -2.563381e+01   6.284354e+00
   2.362221e+01  -1.884322e-01
   2.721030e+01   7.126074e+00
  -2.316814e+01   1.952023e+01
  -7.144028e+01   1.193511e+01
