
 $NMID
 id='ANONYMOUS ', fmtdat='(2E16.6)'
 volume=1.0
 tramp=1.0
 $END
  -1.713211e+03  -3.660661e+02
  -1.226380e+03  -7.678874e+02
  -2.032704e+02  -1.162908e+03
   4.283287e+02  -1.004910e+03
   5.894473e+02  -4.774946e+02
   2.723995e+02   1.102633e+01
  -4.865997e+01   5.068766e+01
  -3.628496e+01  -1.853526e+02
   2.028833e+02  -3.293379e+02
   3.469534e+02  -1.179386e+02
   2.893591e+02   2.127164e+02
   9.467553e+01   3.384084e+02
  -6.304549e+01   1.508096e+02
  -1.138961e+02  -1.479251e+02
  -1.468961e+01  -2.883386e+02
   1.675253e+02  -1.035642e+02
   2.128045e+02   2.071262e+02
   2.437346e+01   3.770185e+02
  -2.350465e+02   2.626471e+02
  -2.925870e+02  -2.939966e+01
  -1.266875e+02  -2.330334e+02
   2.363284e+01  -1.856393e+02
  -1.118913e+01  -8.458779e+01
  -1.453871e+02  -1.089080e+02
  -1.167917e+02  -2.186704e+02
   8.739631e+01  -2.011603e+02
   3.196450e+02  -3.201926e+01
   2.886866e+02   1.022788e+02
   8.136060e+01   1.412840e+02
  -1.659846e+02   3.727571e+01
  -2.218480e+02  -9.373582e+01
  -6.308689e+01  -1.862668e+02
   1.491039e+02  -1.624371e+02
   2.523583e+02  -5.008649e+01
   1.828080e+02   6.459394e+01
   7.336156e+01   1.310644e+02
   4.699971e+01   7.521168e+01
   8.391851e+01  -3.426528e+01
   1.103005e+02  -3.879080e+00
   3.891805e+01   1.350837e+02
  -6.822590e+01   2.558827e+02
  -1.300532e+02   1.766983e+02
  -1.150170e+02  -2.619297e+01
  -3.087151e+01  -1.354007e+02
   4.947153e+01  -3.763203e+01
   4.630360e+01   1.480221e+02
  -9.467001e+01   1.960762e+02
  -2.497372e+02   1.685528e+01
  -2.846838e+02  -2.229254e+02
  -1.052528e+02  -2.798295e+02
   1.516502e+02  -1.452763e+02
   2.817281e+02   2.942875e+01
   2.069989e+02   1.055625e+02
   1.297422e+01   8.236335e+01
  -1.440728e+02   5.260658e+01
  -1.367302e+02   3.568091e+01
  -5.483060e+01   8.385585e+00
  -3.161913e+00   1.253235e+00
  -3.719433e+01   1.788128e+00
  -9.671091e+01  -2.086590e+01
  -7.971515e+01  -8.925653e+01
   6.003020e+01  -1.467432e+02
   2.033935e+02  -1.065999e+02
   1.826172e+02   5.364170e+01
  -1.422387e+01   2.275768e+02
  -2.076931e+02   2.412805e+02
  -2.553170e+02   7.942959e+01
  -1.283709e+02  -1.126245e+02
  -1.510507e+01  -2.003045e+02
  -8.680998e+00  -1.714952e+02
  -3.365186e+01  -1.304313e+02
   9.111597e+00  -1.034396e+02
   1.138541e+02  -8.426959e+01
   1.738396e+02  -6.205749e+00
   1.378946e+02   1.032750e+02
   2.398339e+01   1.550432e+02
  -7.317913e+01   9.290371e+01
  -1.051595e+02  -4.420188e+01
  -5.909125e+01  -1.441983e+02
   4.396023e+01  -1.291400e+02
   1.438635e+02  -1.731562e+01
   1.685852e+02   1.128845e+02
   9.158380e+01   1.683856e+02
  -2.145531e+01   1.618242e+02
  -8.235488e+01   1.176172e+02
  -9.519389e+01   8.296231e+01
  -1.128309e+02   5.535872e+01
  -1.900434e+02   1.305452e+01
  -2.584500e+02  -7.257197e+01
  -1.984173e+02  -1.881339e+02
   2.690916e+01  -2.684116e+02
   2.498049e+02  -2.363081e+02
   2.949134e+02  -8.263566e+01
   1.642214e+02   7.607349e+01
  -8.966894e-01   1.461745e+02
  -4.426039e+01   1.034806e+02
   1.817250e+01   3.223359e+01
   7.012689e+01   1.023510e+01
   5.421266e+01   4.025058e+01
  -1.287923e+01   6.656491e+01
  -4.938169e+01   4.283218e+01
  -3.829651e+01  -1.979847e+01
   1.577879e+01  -4.926874e+01
   7.932104e+01   1.358564e+01
   8.699552e+01   1.360941e+02
  -3.524837e+00   2.020649e+02
  -1.521699e+02   1.380960e+02
  -2.417665e+02  -2.599144e+01
  -1.941337e+02  -1.652119e+02
  -3.807684e+01  -1.808918e+02
   8.968083e+01  -8.821372e+01
   9.602617e+01  -2.612571e+00
   2.069294e+01   1.451248e+00
  -2.244890e+01  -4.579615e+01
   1.857963e+01  -6.376161e+01
   8.289929e+01  -2.351636e+01
   8.632040e+01   3.493787e+01
   1.229692e+01   3.153236e+01
  -5.017973e+01  -2.282123e+01
  -1.503490e+01  -7.051092e+01
   1.048733e+02  -5.656527e+01
   1.955698e+02   2.512955e+01
   1.610027e+02   1.289427e+02
   6.715438e+00   1.765941e+02
  -1.364141e+02   1.432927e+02
  -1.589094e+02   5.214005e+01
  -7.084715e+01  -2.733094e+01
   2.338592e+01  -3.526479e+01
   2.511529e+01   9.414898e+00
  -4.884855e+01   4.042757e+01
  -1.137340e+02   8.983168e+00
  -1.046487e+02  -6.536834e+01
  -2.687894e+01  -1.090960e+02
   5.488001e+01  -7.527850e+01
   7.160236e+01  -7.017707e+00
   2.099494e+01   1.894586e+01
  -3.088566e+01  -2.286300e+01
  -1.169190e+01  -8.039905e+01
   7.303762e+01  -7.562503e+01
   1.403895e+02   2.069265e+00
   1.118257e+02   8.929997e+01
   8.676451e-01   1.230704e+02
  -9.432625e+01   8.396098e+01
  -9.673611e+01   6.942584e+00
  -2.363239e+01  -5.011683e+01
   4.078708e+01  -5.132664e+01
   3.758915e+01  -1.437467e+01
  -8.979849e+00   1.301937e+01
  -2.959869e+01  -2.620155e-01
   9.187049e+00  -2.354044e+01
   6.756248e+01  -3.875532e+00
   7.542509e+01   6.506020e+01
   2.752215e+00   1.204326e+02
  -9.954557e+01   9.633518e+01
  -1.543071e+02  -4.314182e+00
  -1.152620e+02  -1.062036e+02
  -2.157323e+01  -1.377710e+02
   5.614496e+01  -9.402582e+01
   7.252385e+01  -2.172963e+01
   4.520982e+01   1.605572e+01
   2.700027e+01   7.082455e+00
   4.101445e+01  -1.380320e+01
   6.348997e+01  -4.864794e+00
   4.138833e+01   4.337195e+01
  -2.737621e+01   7.862984e+01
  -8.874245e+01   5.065524e+01
  -7.673753e+01  -3.417515e+01
   1.214457e+01  -9.280317e+01
   1.133293e+02  -5.922807e+01
   1.337816e+02   5.075739e+01
   4.551703e+01   1.424827e+02
  -8.968304e+01   1.354106e+02
  -1.741802e+02   4.016313e+01
  -1.521620e+02  -5.789582e+01
  -6.036589e+01  -1.047695e+02
   2.418817e+01  -8.213819e+01
   5.336707e+01  -5.470823e+01
   4.124723e+01  -4.914177e+01
   3.796185e+01  -6.572130e+01
   5.902972e+01  -5.156312e+01
   8.390201e+01   1.438599e+01
   7.335877e+01   9.980740e+01
   1.515099e+01   1.398389e+02
  -6.114265e+01   9.747113e+01
  -1.044405e+02  -3.033577e+00
  -7.231472e+01  -8.468022e+01
   2.720709e+00  -9.260837e+01
   5.444332e+01  -3.869562e+01
   4.259223e+01   2.040265e+01
  -7.911379e+00   4.022154e+01
  -2.411561e+01   2.466156e+01
   1.419439e+01   8.047452e+00
   5.564727e+01   1.152922e+01
   2.911635e+01   2.435166e+01
  -5.474601e+01   2.309874e+01
  -1.156378e+02  -5.534589e+00
  -8.788517e+01  -4.723396e+01
   1.174915e+01  -6.645992e+01
   9.353115e+01  -4.737787e+01
   9.240604e+01   4.405039e+00
   2.531553e+01   4.133312e+01
  -4.081939e+01   3.312220e+01
  -5.081965e+01  -1.158754e+01
  -1.492164e+01  -5.027475e+01
   2.565242e+01  -4.424896e+01
   4.551956e+01  -2.192172e+00
   4.159821e+01   3.380194e+01
   3.128691e+01   2.933091e+01
   3.430271e+01  -6.336728e-01
   4.250889e+01   2.264165e+00
   3.246942e+01   5.008844e+01
  -1.459450e+01   9.935528e+01
  -8.720266e+01   9.534900e+01
  -1.256440e+02   2.367011e+01
  -8.801330e+01  -6.032944e+01
   2.871149e+00  -8.914174e+01
   6.401575e+01  -5.012406e+01
   4.034439e+01   3.763872e+00
  -3.912330e+01   1.298716e+01
  -8.493267e+01  -2.365366e+01
  -3.902279e+01  -6.831199e+01
   6.212964e+01  -7.458225e+01
   1.224742e+02  -2.986500e+01
   9.656673e+01   3.005631e+01
   1.458685e+01   5.666513e+01
  -4.212872e+01   3.541843e+01
  -2.833663e+01  -4.344130e+00
   2.768174e+01  -2.255451e+01
   5.864812e+01   7.268914e+00
   2.883100e+01   6.807601e+01
  -3.819397e+01   1.006891e+02
  -8.840676e+01   5.362508e+01
  -7.973091e+01  -4.898408e+01
  -1.839676e+01  -1.190498e+02
   4.849275e+01  -8.874641e+01
   6.557086e+01   1.077665e+01
   3.102407e+01   7.781828e+01
  -1.326951e+01   6.062923e+01
  -3.538999e+01   6.538615e+00
  -2.625600e+01  -1.957229e+01
  -7.660993e+00  -1.897018e+00
  -5.197224e+00   9.164550e+00
  -2.406160e+01  -2.074814e+01
  -3.737768e+01  -6.130558e+01
  -1.439381e+01  -6.558510e+01
   4.306036e+01  -2.558736e+01
   8.860106e+01   2.248289e+01
   7.455714e+01   4.359817e+01
   9.907859e+00   3.691223e+01
  -4.689919e+01   1.970447e+01
  -5.386654e+01   1.323545e+00
  -1.342535e+01  -1.121174e+01
   1.861711e+01  -1.425311e+01
   1.314617e+01  -3.587124e+00
  -6.270229e+00   4.928500e+00
   2.244126e+00   8.495863e-01
   3.757304e+01  -5.284168e+00
   5.788464e+01   1.161566e+01
   1.809633e+01   5.309878e+01
  -6.651917e+01   7.736955e+01
  -1.197116e+02   4.356318e+01
  -1.007277e+02  -3.290941e+01
  -2.490880e+01  -1.008858e+02
   5.076688e+01  -1.020327e+02
   7.611786e+01  -4.623029e+01
   5.408592e+01   1.246870e+01
   1.884536e+01   2.638996e+01
   3.983784e+00   1.017273e+01
   1.103297e+01   7.150783e+00
   2.195307e+01   3.262106e+01
   1.278345e+01   5.952729e+01
  -1.768408e+01   4.629159e+01
  -4.889854e+01  -7.911700e+00
  -5.221588e+01  -5.982223e+01
  -1.252445e+01  -6.745151e+01
   4.519798e+01  -2.331290e+01
   6.737508e+01   3.551857e+01
   2.729918e+01   6.581451e+01
  -3.823801e+01   4.718077e+01
  -6.787746e+01  -1.774169e+00
  -3.408603e+01  -4.023603e+01
   1.960926e+01  -4.382559e+01
   2.827648e+01  -2.094162e+01
  -1.067800e+01   5.878711e+00
  -4.071505e+01   7.214071e+00
  -1.181902e+01  -1.823627e+01
   4.874261e+01  -4.354203e+01
   7.676737e+01  -3.055229e+01
   4.981986e+01   1.499644e+01
  -5.787222e+00   5.608983e+01
  -3.643692e+01   5.569299e+01
  -3.320729e+01   1.205102e+01
  -8.540372e+00  -2.976840e+01
   1.457161e+01  -3.200663e+01
   2.503810e+01   1.610306e+00
   1.898826e+01   3.140689e+01
   2.397902e-01   2.851754e+01
  -2.126727e+01  -1.704560e-01
  -2.769756e+01  -1.709716e+01
  -1.371562e+01  -6.199548e+00
   5.111018e+00   1.371970e+01
   4.844585e+00   1.028638e+01
  -7.281532e+00  -1.787996e+01
  -6.931853e+00  -3.748949e+01
   1.439228e+01  -2.183725e+01
   3.094206e+01   1.742767e+01
   1.565763e+01   3.670335e+01
  -2.477044e+01   1.901862e+01
  -4.284379e+01  -1.858454e+01
  -1.375586e+01  -3.827296e+01
   3.731848e+01  -2.569014e+01
   6.154257e+01   5.333288e+00
   3.477002e+01   2.724642e+01
  -1.751342e+01   3.272369e+01
  -4.007535e+01   2.293360e+01
  -2.020556e+01   4.640761e+00
   1.526910e+01  -7.154066e+00
   2.040852e+01  -5.773865e-01
  -1.081254e+01   1.529369e+01
  -4.482434e+01   1.762200e+01
