
 $NMID
 id='ANONYMOUS ', fmtdat='(2E16.6)'
 volume=1.0
 tramp=1.0
 $END
   9.205119e+02   2.829286e+02
   4.880303e+02   5.339592e+02
  -8.175283e+01   5.241769e+02
  -3.096266e+02   4.153848e+02
  -2.964557e+02   2.236935e+02
  -1.428836e+02   6.614663e+01
  -6.046436e+01  -8.180662e+00
  -2.919378e+01   4.535609e+01
  -6.169094e+01   1.258396e+02
  -1.071188e+02   7.574312e+01
  -9.676947e+01  -6.009928e+01
  -3.689997e+01  -1.320682e+02
   2.197434e+01  -5.767867e+01
   3.830934e+01   8.337412e+01
  -1.960528e+00   1.343557e+02
  -6.918081e+01   4.758945e+01
  -7.310440e+01  -8.871866e+01
   1.376682e+01  -1.464500e+02
   1.135147e+02  -8.837722e+01
   1.208111e+02   3.732903e+01
   4.755862e+01   1.074755e+02
  -2.095772e+01   9.929275e+01
  -2.631076e+01   5.531213e+01
   2.730121e+01   4.835543e+01
   3.989914e+01   7.308152e+01
  -3.224593e+01   6.865671e+01
  -1.096001e+02  -4.937895e+00
  -9.402632e+01  -4.345149e+01
  -2.305655e+01  -4.632325e+01
   6.453831e+01   1.590599e+00
   8.735203e+01   4.752597e+01
   2.738470e+01   6.574504e+01
  -4.510730e+01   6.274674e+01
  -9.744101e+01   3.201142e+01
  -6.562014e+01  -2.057235e+01
  -2.266931e+01  -5.236254e+01
  -4.725191e+00  -4.109471e+01
  -1.777917e+01  -3.064379e+00
  -3.206147e+01  -5.600585e-01
  -1.412672e+01  -3.634684e+01
   2.488213e+01  -1.084393e+02
   6.911107e+01  -8.881071e+01
   8.942247e+01  -1.057726e+01
   5.109569e+01   4.850255e+01
  -3.629465e+00   2.682960e+01
  -2.699187e+01  -5.574879e+01
   2.253787e+01  -7.239732e+01
   9.520209e+01   6.708735e+00
   1.327654e+02   7.253461e+01
   6.864229e+01   9.601401e+01
  -4.341116e+01   4.982776e+01
  -1.005628e+02  -5.216729e+00
  -8.274254e+01  -4.278101e+01
  -3.377403e+00  -4.369278e+01
   7.309590e+01  -3.028715e+01
   6.617447e+01  -4.383164e+00
   1.572637e+01   2.031457e+01
  -8.904228e+00   1.198349e+00
   1.099403e+01  -1.335907e+01
   5.098135e+01  -9.039765e+00
   4.752270e+01   2.794040e+01
  -1.827111e+01   5.824882e+01
  -8.484643e+01   5.115889e+01
  -6.581866e+01  -6.779494e+00
   8.989673e+00  -8.830962e+01
   8.106960e+01  -9.690350e+01
   9.416132e+01  -4.329160e+01
   3.994313e+01   4.234223e+01
  -8.060373e+00   8.628367e+01
  -1.126062e+01   6.147782e+01
   3.911797e+00   3.082787e+01
  -5.838824e-01   2.350348e+01
  -3.051366e+01   2.568120e+01
  -5.347790e+01   1.946940e+00
  -4.533834e+01  -3.734536e+01
  -1.162175e+01  -5.834708e+01
   1.962860e+01  -4.131106e+01
   3.287378e+01   4.795824e+00
   2.224628e+01   4.687742e+01
  -8.324982e+00   5.117120e+01
  -4.732954e+01   1.099510e+01
  -6.196395e+01  -3.975751e+01
  -3.757035e+01  -6.925976e+01
   6.571112e+00  -6.536731e+01
   3.560338e+01  -4.332905e+01
   3.187071e+01  -2.465986e+01
   3.480391e+01  -1.962010e+01
   5.711450e+01  -4.383347e+00
   8.673529e+01   3.123480e+01
   6.358509e+01   6.943578e+01
  -1.079712e+01   8.987064e+01
  -9.287411e+01   8.167649e+01
  -1.026299e+02   2.439764e+01
  -6.363485e+01  -2.683955e+01
  -3.134753e+00  -5.196430e+01
   1.952400e+01  -4.025094e+01
   2.095174e+00  -1.451463e+01
  -2.141775e+01   1.310564e+00
  -2.163574e+01  -1.568012e+01
   2.644225e+00  -3.268913e+01
   2.220862e+01  -1.428408e+01
   1.753994e+01   1.539080e+01
  -6.879812e+00   2.219210e+01
  -3.513183e+01  -2.220660e+00
  -3.432132e+01  -5.154125e+01
  -4.889794e+00  -7.097416e+01
   4.903512e+01  -4.828694e+01
   9.357659e+01   1.236821e+01
   7.919489e+01   7.232900e+01
   4.690213e+00   7.688433e+01
  -4.578920e+01   3.676860e+01
  -4.082290e+01  -2.364013e+00
  -7.848587e+00  -4.251771e-01
   5.167183e+00   1.681717e+01
  -6.496502e+00   2.444858e+01
  -3.252566e+01   1.018711e+01
  -3.752352e+01  -7.508849e+00
  -9.881442e+00  -1.046891e+01
   1.506632e+01   4.243874e+00
   7.569367e+00   2.252041e+01
  -3.132954e+01   2.496866e+01
  -6.533536e+01  -3.223647e+00
  -5.734745e+01  -4.152171e+01
  -3.988574e+00  -6.323963e+01
   5.445460e+01  -4.868745e+01
   5.867820e+01  -1.642816e+01
   2.347575e+01   1.321985e+01
  -9.293085e+00   1.526902e+01
  -1.140167e+01  -1.877273e+00
   1.674589e+01  -1.436166e+01
   4.052270e+01  -2.500737e+00
   3.740652e+01   2.926096e+01
   8.061168e+00   4.721328e+01
  -2.214783e+01   2.948321e+01
  -2.993292e+01   2.892688e+00
  -1.373192e+01  -1.215623e+01
   8.846060e+00   4.522793e+00
   6.506707e+00   2.857869e+01
  -2.423009e+01   2.689071e+01
  -4.942704e+01  -4.302673e+00
  -3.829806e+01  -3.634292e+01
   3.208582e+00  -4.438049e+01
   3.613972e+01  -2.619806e+01
   3.696432e+01   1.159599e+00
   9.482907e+00   2.265684e+01
  -1.502874e+01   2.488874e+01
  -1.541356e+01   7.443522e+00
   1.939371e+00  -5.219870e+00
   1.080789e+01  -9.429073e-01
  -2.215567e+00   1.055628e+01
  -2.359995e+01   5.967139e+00
  -2.711172e+01  -2.024983e+01
  -1.752293e+00  -4.227325e+01
   3.590978e+01  -3.794299e+01
   5.747332e+01  -1.157443e+00
   4.399998e+01   3.887147e+01
   8.553383e+00   5.327015e+01
  -2.055284e+01   3.959475e+01
  -2.758976e+01   1.168074e+01
  -1.879499e+01  -3.642826e+00
  -1.425618e+01  -2.228048e+00
  -1.827536e+01   2.909247e+00
  -2.329990e+01   9.451683e-02
  -1.556300e+01  -1.701165e+01
   8.974385e+00  -3.046250e+01
   3.259958e+01  -1.977489e+01
   3.054356e+01   1.200340e+01
  -8.952008e-01   3.400539e+01
  -3.996194e+01   2.266074e+01
  -5.055250e+01  -1.740426e+01
  -1.771977e+01  -4.844562e+01
   3.170598e+01  -4.591860e+01
   6.576073e+01  -1.793646e+01
   5.798307e+01   1.959016e+01
   2.116521e+01   4.022160e+01
  -1.155408e+01   2.941481e+01
  -2.456833e+01   1.816710e+01
  -2.144112e+01   1.358474e+01
  -1.482991e+01   2.064556e+01
  -1.951212e+01   2.059433e+01
  -2.738548e+01  -3.130391e+00
  -2.543199e+01  -3.524976e+01
  -7.808348e+00  -5.510507e+01
   1.706402e+01  -4.237855e+01
   3.478249e+01  -3.505339e+00
   2.788063e+01   2.864627e+01
   2.378663e+00   3.300032e+01
  -1.876836e+01   1.458689e+01
  -1.445471e+01  -7.540463e+00
   6.512189e+00  -1.470372e+01
   1.258511e+01  -9.627053e+00
  -2.370007e+00  -3.531968e+00
  -2.083708e+01  -3.300831e+00
  -1.501872e+01  -6.357345e+00
   1.508299e+01  -7.365185e+00
   4.112992e+01   1.383916e+00
   3.695629e+01   1.369092e+01
   1.867469e+00   2.472750e+01
  -3.290093e+01   2.159480e+01
  -4.017220e+01   6.893735e+00
  -1.435724e+01  -8.883261e+00
   1.384648e+01  -1.109845e+01
   1.744656e+01   2.763408e+00
   5.807331e+00   1.731003e+01
  -9.811411e+00   1.927160e+01
  -1.769235e+01   3.704400e+00
  -1.866171e+01  -1.409521e+01
  -1.624088e+01  -1.760326e+01
  -1.639446e+01  -6.748134e+00
  -1.461822e+01   5.135183e-01
  -1.174851e+01  -1.458324e+01
   5.744548e+00  -3.291836e+01
   3.384774e+01  -3.482451e+01
   4.550887e+01  -9.244367e+00
   3.146800e+01   2.274094e+01
  -2.782126e+00   3.352067e+01
  -2.531378e+01   1.870267e+01
  -1.588719e+01  -9.865149e-01
   1.259323e+01  -2.499691e+00
   2.729983e+01   1.164430e+01
   1.301375e+01   2.495239e+01
  -2.352477e+01   2.729074e+01
  -4.195951e+01   7.774127e+00
  -2.962801e+01  -1.392848e+01
  -3.315859e+00  -1.980968e+01
   1.355834e+01  -1.142962e+01
   9.570390e+00   4.236437e+00
  -7.714273e+00   1.132277e+01
  -2.087305e+01  -1.577840e+00
  -1.261483e+01  -2.628519e+01
   1.402265e+01  -3.963212e+01
   3.377407e+01  -2.165905e+01
   3.046524e+01   1.608776e+01
   3.817411e+00   4.035937e+01
  -2.174365e+01   2.618990e+01
  -2.314532e+01  -7.509681e+00
  -7.678710e+00  -2.896498e+01
   8.394551e+00  -2.495933e+01
   1.587101e+01  -3.037696e+00
   1.097058e+01   8.145696e+00
   2.714879e+00   1.195583e+00
   1.844481e-01  -3.893151e+00
   9.064016e+00   5.917608e+00
   1.532294e+01   2.281787e+01
   9.261596e+00   2.789233e+01
  -1.426014e+01   1.236197e+01
  -3.459133e+01  -6.174446e+00
  -3.459613e+01  -1.713541e+01
  -6.444530e+00  -1.161105e+01
   1.822835e+01  -4.836179e+00
   1.764255e+01  -9.848686e-01
   1.298331e+00  -7.298400e-01
  -9.656178e+00   2.535639e+00
  -4.794810e+00   8.870083e-01
   4.425981e+00  -1.906620e+00
   1.242787e+00  -2.132962e+00
  -1.267795e+01  -6.365844e-01
  -2.225134e+01  -3.839070e+00
  -1.033956e+01  -1.900163e+01
   1.887087e+01  -2.937631e+01
   4.481958e+01  -1.675787e+01
   4.133947e+01   1.223109e+01
   1.196192e+01   3.571184e+01
  -1.714820e+01   3.720529e+01
  -3.021584e+01   1.935016e+01
  -2.360710e+01  -3.591772e-01
  -8.648324e+00  -7.209343e+00
  -2.721319e-01  -2.934893e+00
  -2.840481e+00  -3.891313e+00
  -8.007339e+00  -1.319284e+01
  -5.525523e+00  -2.235420e+01
   7.161583e+00  -1.818672e+01
   2.023795e+01   2.051825e+00
   2.172434e+01   2.468355e+01
   6.432319e+00   2.796416e+01
  -1.557286e+01   1.045421e+01
  -2.529205e+01  -9.602770e+00
  -1.166286e+01  -2.294765e+01
   1.316942e+01  -1.758345e+01
   2.617848e+01   1.303114e+00
   1.264081e+01   1.509394e+01
  -8.977626e+00   1.722523e+01
  -1.208227e+01   1.031950e+01
   4.340640e+00  -1.753793e+00
   1.821162e+01  -2.664088e+00
   3.994338e+00   6.157582e+00
  -2.390941e+01   1.580717e+01
  -3.306927e+01   1.142145e+01
  -1.895975e+01  -5.643916e+00
   3.665704e+00  -2.318915e+01
   1.548066e+01  -2.537669e+01
   1.260446e+01  -5.154576e+00
   4.119677e+00   1.044898e+01
  -4.127683e+00   1.222891e+01
  -8.226462e+00   2.761304e-01
  -5.138676e+00  -1.180101e+01
   1.330258e+00  -1.142800e+01
   9.097492e+00   4.680286e-01
   1.093652e+01   9.167683e+00
   3.868538e+00   3.383458e+00
  -2.274711e+00  -5.604481e+00
   2.976579e-01  -4.656761e+00
   4.799408e+00   6.303576e+00
   3.366895e+00   1.450110e+01
  -4.624494e+00   8.778210e+00
  -9.144127e+00  -6.355115e+00
  -4.673184e+00  -1.338395e+01
   9.240489e+00  -6.036175e+00
   1.492654e+01   8.601618e+00
   3.934128e+00   1.647860e+01
  -1.417147e+01   9.196555e+00
  -2.268021e+01  -2.469092e+00
  -1.365317e+01  -1.206993e+01
   5.215466e+00  -1.301074e+01
   1.558058e+01  -9.787615e+00
   8.366049e+00  -2.348422e+00
  -4.483765e+00   2.327116e+00
  -7.061618e+00   1.275791e+00
   4.311615e+00  -4.187920e+00
   1.497856e+01  -5.017666e+00
