
 $NMID
 id='ANONYMOUS ', fmtdat='(2E16.6)'
 volume=1.0
 tramp=1.0
 $END
   2.707075e+03   1.068526e+02
   1.746490e+03   1.622202e+03
  -1.675900e+02   1.751791e+03
  -1.119961e+03   8.557661e+02
  -6.263535e+02  -2.063644e+01
   1.909731e+02  -1.194746e+02
   3.558681e+02   2.504338e+02
  -6.490990e+01   5.804430e+02
  -4.778489e+02   4.895152e+02
  -5.231026e+02  -8.891635e+00
  -2.735592e+02  -4.872699e+02
   9.732085e+01  -5.372923e+02
   3.177950e+02  -8.069893e+01
   1.834404e+02   4.431287e+02
  -1.561517e+02   4.810860e+02
  -3.553907e+02  -5.631196e-01
  -1.913569e+02  -4.646375e+02
   1.799494e+02  -5.002064e+02
   4.068093e+02  -1.495617e+02
   3.485681e+02   2.108709e+02
   1.060331e+02   3.118461e+02
  -9.664815e+01   1.828747e+02
  -5.998973e+01   2.897805e+01
   1.444214e+02   4.677620e+01
   2.450517e+02   2.284820e+02
   2.312653e+00   3.381253e+02
  -3.856277e+02   1.867531e+02
  -4.942084e+02  -1.766587e+02
  -1.578149e+02  -3.366269e+02
   3.138994e+02  -1.732815e+02
   4.265373e+02   1.437923e+02
   1.312941e+02   3.366660e+02
  -2.621530e+02   3.024951e+02
  -3.899091e+02   8.710937e+01
  -2.446136e+02  -1.604318e+02
  -1.880507e+01  -2.735791e+02
   8.045383e+01  -1.464410e+02
  -4.625216e+00   9.784690e+01
  -1.695022e+02   1.407423e+02
  -2.057006e+02  -1.433248e+02
  -8.318621e+00  -4.564964e+02
   2.555426e+02  -3.616985e+02
   3.313550e+02   3.784398e+01
   9.919125e+01   2.961493e+02
  -1.593085e+02   1.177302e+02
  -1.516508e+02  -2.530667e+02
   1.107805e+02  -3.522009e+02
   3.906004e+02  -4.689558e+01
   4.094938e+02   3.033150e+02
   8.936207e+01   4.119169e+02
  -2.891061e+02   2.041525e+02
  -4.345572e+02  -9.387549e+01
  -2.436575e+02  -2.567450e+02
   9.056670e+01  -2.022389e+02
   2.578416e+02  -5.803334e+01
   1.554664e+02   3.462112e+01
  -2.275682e+01   1.725529e+01
  -4.781643e+01  -6.283771e+01
   1.006004e+02  -7.001330e+01
   1.969591e+02   5.787090e+01
   8.977884e+01   1.793181e+02
  -1.563416e+02   1.873104e+02
  -2.810655e+02   6.371659e+01
  -1.919335e+02  -1.147650e+02
   3.684326e+01  -2.632495e+02
   2.560444e+02  -2.857701e+02
   3.202965e+02  -1.251032e+02
   2.024402e+02   1.483071e+02
   3.894890e+01   3.111812e+02
  -4.988428e+01   2.692669e+02
  -3.891990e+01   1.178765e+02
  -3.572135e+01   6.817003e+01
  -1.051583e+02   9.686633e+01
  -2.038652e+02   4.603889e+01
  -1.977064e+02  -1.106007e+02
  -6.809592e+01  -2.321023e+02
   8.772944e+01  -1.703038e+02
   1.625165e+02   3.478356e+01
   1.048354e+02   2.113142e+02
  -5.690757e+01   2.139580e+02
  -2.202741e+02   4.503699e+01
  -2.604168e+02  -1.650881e+02
  -1.250340e+02  -2.723412e+02
   5.945449e+01  -2.268416e+02
   1.507928e+02  -1.125565e+02
   1.226209e+02  -4.830464e+01
   1.178583e+02  -4.512256e+01
   2.251211e+02  -2.366438e+01
   3.275187e+02   1.016010e+02
   2.343876e+02   2.696691e+02
  -4.728195e+01   3.644178e+02
  -3.357717e+02   3.112636e+02
  -4.140764e+02   1.111798e+02
  -2.408183e+02  -1.092614e+02
  -1.441260e+00  -2.166635e+02
   1.005123e+02  -1.554748e+02
   1.821486e+01  -2.118541e+01
  -1.018783e+02   3.334722e+01
  -1.157467e+02  -3.578248e+01
  -1.861179e-01  -1.166223e+02
   1.096922e+02  -7.234011e+01
   9.332690e+01   5.740292e+01
  -4.214561e+01   1.114964e+02
  -1.447473e+02  -2.925811e+00
  -1.131211e+02  -1.968486e+02
   3.318585e+01  -2.754715e+02
   2.010690e+02  -1.559173e+02
   2.803254e+02   6.661375e+01
   2.093997e+02   2.261619e+02
   4.123560e+01   2.304785e+02
  -1.122820e+02   1.183510e+02
  -1.308134e+02   2.716215e+00
  -3.119404e+01  -1.670857e+01
   4.456848e+01   5.272691e+01
  -5.409191e+00   1.020708e+02
  -1.158361e+02   6.291849e+01
  -1.335497e+02  -1.479207e+01
  -2.666220e+01  -4.851987e+01
   7.367424e+01   1.115631e+01
   3.291909e+01   8.341938e+01
  -1.287494e+02   7.386113e+01
  -2.546738e+02  -2.809688e+01
  -2.092617e+02  -1.557005e+02
  -9.017313e+00  -2.217005e+02
   1.849607e+02  -1.842119e+02
   2.243376e+02  -5.970718e+01
   1.076510e+02   5.726619e+01
  -3.454928e+01   7.068934e+01
  -5.541692e+01  -1.132860e+01
   4.851949e+01  -7.581062e+01
   1.608039e+02  -2.917657e+01
   1.583681e+02   9.384816e+01
   3.538799e+01   1.645628e+02
  -8.446285e+01   1.148684e+02
  -1.046678e+02   9.383469e+00
  -3.143583e+01  -3.334854e+01
   3.830201e+01   1.904127e+01
   1.899939e+01   9.342134e+01
  -8.661491e+01   9.805903e+01
  -1.785521e+02   5.144079e+00
  -1.435583e+02  -1.199612e+02
   4.863686e+00  -1.741759e+02
   1.384246e+02  -1.140840e+02
   1.416138e+02   5.594124e+00
   3.933267e+01   8.740650e+01
  -5.313175e+01   7.753584e+01
  -5.868277e+01   1.151438e+01
  -5.978622e-01  -2.722810e+01
   3.346650e+01  -7.725388e+00
  -3.403094e+00   2.193896e+01
  -6.913534e+01  -4.279996e-01
  -8.079723e+01  -7.986842e+01
  -1.424231e+00  -1.474654e+02
   1.259978e+02  -1.239700e+02
   2.035230e+02   5.307904e-01
   1.521403e+02   1.396943e+02
   1.743345e+01   1.881372e+02
  -9.397307e+01   1.218765e+02
  -1.070508e+02   1.190224e+01
  -5.100321e+01  -4.310896e+01
  -1.467079e+01  -2.416434e+01
  -3.730421e+01   1.297183e+01
  -7.027198e+01   3.898067e+00
  -4.501493e+01  -4.704240e+01
   3.498291e+01  -8.056325e+01
   9.851042e+01  -4.675987e+01
   8.107577e+01   4.282886e+01
  -2.309607e+01   1.021949e+02
  -1.382275e+02   6.217677e+01
  -1.659910e+02  -6.647738e+01
  -5.735076e+01  -1.813690e+02
   1.179286e+02  -1.809199e+02
   2.256542e+02  -5.969024e+01
   1.942564e+02   8.157082e+01
   7.311862e+01   1.444789e+02
  -3.807135e+01   1.125598e+02
  -7.528177e+01   6.049380e+01
  -6.180004e+01   5.248888e+01
  -5.363615e+01   7.386366e+01
  -7.790052e+01   5.950991e+01
  -1.095924e+02  -2.273044e+01
  -9.229206e+01  -1.351466e+02
  -1.001960e+01  -1.893472e+02
   9.455332e+01  -1.350696e+02
   1.481261e+02  -2.021910e+00
   1.039265e+02   1.110936e+02
  -1.212866e+00   1.320557e+02
  -6.998073e+01   6.358708e+01
  -5.480526e+01  -1.387361e+01
   4.425076e+00  -4.596779e+01
   2.370844e+01  -3.008446e+01
  -1.868180e+01  -1.227263e+01
  -6.610700e+01  -1.760517e+01
  -3.765523e+01  -3.456866e+01
   6.341663e+01  -3.322630e+01
   1.413990e+02   6.395177e+00
   1.123840e+02   5.830763e+01
  -7.713629e+00   8.503562e+01
  -1.112910e+02   5.817060e+01
  -1.159714e+02  -3.279079e+00
  -2.968058e+01  -4.695161e+01
   5.228199e+01  -3.543848e+01
   6.032789e+01   2.001332e+01
   8.654888e+00   6.256911e+01
  -4.319695e+01   5.137181e+01
  -5.540663e+01  -2.052917e+00
  -4.392324e+01  -4.424224e+01
  -3.696893e+01  -3.573520e+01
  -4.441899e+01  -2.607152e+00
  -5.198363e+01  -1.527563e+00
  -3.336787e+01  -6.075343e+01
   2.853248e+01  -1.264570e+02
   1.103928e+02  -1.163680e+02
   1.489638e+02  -2.126558e+01
   1.030836e+02   8.464921e+01
  -1.815500e+00   1.131169e+02
  -7.576484e+01   5.270456e+01
  -4.818103e+01  -1.380384e+01
   5.131443e+01  -1.529550e+01
   1.097084e+02   4.216372e+01
   5.426798e+01   9.516744e+01
  -6.787296e+01   9.256652e+01
  -1.523514e+02   3.012374e+01
  -1.260772e+02  -4.105488e+01
  -1.898532e+01  -7.295144e+01
   5.895991e+01  -4.653096e+01
   4.221663e+01   7.148851e+00
  -3.623172e+01   2.578480e+01
  -7.495781e+01  -2.161107e+01
  -2.526285e+01  -9.840375e+01
   7.292869e+01  -1.240207e+02
   1.302196e+02  -4.822406e+01
   9.588595e+01   8.337998e+01
   1.505052e+00   1.586610e+02
  -7.544621e+01   1.117102e+02
  -8.658966e+01  -1.691902e+01
  -4.040873e+01  -1.037120e+02
   1.822363e+01  -8.442350e+01
   4.336487e+01  -8.374406e+00
   3.296671e+01   2.842772e+01
   1.017927e+01   5.266114e+00
   6.497100e+00  -1.722451e+01
   2.912848e+01   1.487362e+01
   4.492798e+01   7.480871e+01
   1.989100e+01   8.919008e+01
  -5.049071e+01   3.444012e+01
  -1.106704e+02  -3.427792e+01
  -9.436025e+01  -6.096376e+01
  -7.542059e+00  -4.745995e+01
   6.911111e+01  -1.765098e+01
   7.072024e+01   2.151076e+00
   1.090401e+01   1.363754e+01
  -3.025566e+01   1.751468e+01
  -1.669101e+01   7.949089e+00
   1.255342e+01  -3.386143e+00
  -2.612876e+00  -4.694005e+00
  -5.612771e+01  -3.761486e+00
  -7.205073e+01  -2.496440e+01
  -9.624621e+00  -6.904611e+01
   9.595002e+01  -9.175125e+01
   1.564408e+02  -4.596568e+01
   1.187123e+02   5.702014e+01
   1.897718e+01   1.332805e+02
  -7.304877e+01   1.233648e+02
  -9.867186e+01   4.606367e+01
  -6.749382e+01  -2.109793e+01
  -2.030121e+01  -3.251228e+01
   3.415115e-01  -9.668612e+00
  -9.658523e+00  -7.206896e+00
  -2.195029e+01  -4.115784e+01
  -1.145104e+01  -7.445060e+01
   2.746937e+01  -5.576714e+01
   6.336119e+01   1.764575e+01
   5.935163e+01   8.539214e+01
   6.118111e+00   8.738855e+01
  -6.342748e+01   2.098641e+01
  -8.383373e+01  -5.749637e+01
  -2.677232e+01  -8.612680e+01
   5.435840e+01  -5.017727e+01
   8.337891e+01   9.235159e+00
   3.560707e+01   4.737931e+01
  -2.884396e+01   4.811273e+01
  -3.122769e+01   2.269835e+01
   2.392427e+01  -2.906382e+00
   5.582858e+01  -5.954475e+00
   1.237748e+01   2.376424e+01
  -6.674541e+01   5.340668e+01
  -9.739861e+01   3.919975e+01
  -5.456464e+01  -1.593793e+01
   1.436983e+01  -6.914516e+01
   4.793544e+01  -6.331356e+01
   3.519419e+01  -6.611987e+00
   3.496865e+00   4.504607e+01
  -2.172084e+01   3.687845e+01
  -2.930235e+01  -1.221718e+01
  -2.007926e+01  -4.644276e+01
   2.388197e+00  -3.318754e+01
   2.786451e+01   7.902819e+00
   3.214893e+01   2.463588e+01
   1.567160e+01   4.951740e+00
  -3.422326e+00  -1.666903e+01
  -7.079041e+00  -7.465840e+00
   8.675891e-01   2.422002e+01
  -4.031767e+00   4.068931e+01
  -2.237209e+01   1.520121e+01
  -3.007436e+01  -3.231426e+01
  -6.403734e+00  -5.073561e+01
   3.620991e+01  -1.922036e+01
   4.990126e+01   3.072776e+01
   1.429356e+01   5.116422e+01
  -4.708174e+01   2.679929e+01
  -7.493322e+01  -1.324376e+01
  -3.983349e+01  -3.619010e+01
   2.268022e+01  -3.515342e+01
   5.170418e+01  -2.105796e+01
   2.280022e+01  -5.671525e+00
  -2.229037e+01  -2.147214e-01
  -2.666758e+01  -9.278571e+00
   2.113667e+01  -2.090247e+01
   6.648668e+01  -1.103640e+01
