
 $NMID
 id='ANONYMOUS ', fmtdat='(2E16.6)'
 volume=1.0
 tramp=1.0
 $END
   1.102143e+03  -2.943989e+01
   5.800740e+02   4.394895e+02
  -7.991834e+01   5.297711e+02
  -3.230912e+02   1.263062e+02
  -5.856954e+01  -8.877142e+01
   2.266650e+02  -4.193221e+01
   1.602493e+02   1.914002e+02
  -4.345189e+01   2.527672e+02
  -1.904682e+02   1.155298e+02
  -1.646342e+02  -8.089376e+01
  -7.912492e+01  -1.857430e+02
   4.583648e+01  -1.348299e+02
   1.206654e+02   1.314057e+01
   6.333802e+01   1.265468e+02
  -5.522899e+01   8.834169e+01
  -1.072484e+02  -4.673069e+01
  -1.718531e+01  -1.417058e+02
   1.070484e+02  -1.071132e+02
   1.358874e+02  -4.459972e+00
   7.740309e+01   5.745669e+01
  -1.687268e+01   8.108276e+01
  -5.597286e+01   4.149157e+01
  -2.286259e+01  -1.078689e+01
   5.384983e+01  -2.347816e+01
   9.030620e+01   3.980359e+01
   2.014868e+01   1.024197e+02
  -1.228926e+02   5.501148e+01
  -1.780410e+02  -5.984835e+01
  -5.098088e+01  -1.327825e+02
   1.189646e+02  -7.623705e+01
   1.452663e+02   2.371233e+01
   3.016985e+01   9.445198e+01
  -7.252197e+01   6.058231e+01
  -8.322905e+01   1.785906e+00
  -5.604465e+01  -4.489788e+01
  -5.017165e-01  -6.671780e+01
   2.163273e+01  -3.417009e+01
   3.235299e+00   4.386019e+01
  -5.592592e+01   6.157631e+01
  -8.538613e+01  -3.524213e+01
  -2.907416e+01  -1.590336e+02
   6.719708e+01  -1.345931e+02
   1.001948e+02  -4.488573e-01
   1.601771e+01   8.811627e+01
  -6.482555e+01   3.809413e+01
  -6.020773e+01  -8.174396e+01
   3.602936e+01  -9.042566e+01
   1.299119e+02  -1.231680e+01
   6.773988e+01   6.735465e+01
  -2.158833e+01   8.410492e+01
  -9.611331e+01   3.514631e+01
  -1.135290e+02  -4.797900e+01
  -5.574693e+01  -8.367888e+01
   3.604921e+01  -6.393749e+01
   7.744160e+01  -1.029003e+01
   2.940784e+01   3.384854e+01
  -2.683063e+01   1.496409e+01
  -1.528843e+01  -4.428318e+01
   4.623880e+01  -3.806403e+01
   7.007520e+01   2.264941e+01
   9.106680e+00   6.551849e+01
  -6.065843e+01   4.834985e+01
  -5.939545e+01  -3.061521e+00
  -4.827727e+00  -3.068120e+01
   3.790051e+01  -3.576692e+01
   5.629143e+01  -4.306666e+01
   6.481732e+01  -3.200024e+01
   4.410953e+01   3.207728e+01
   1.250158e+01   9.493573e+01
  -1.706000e+01   9.362756e+01
  -1.750886e+01   4.374050e+01
  -7.580281e+00   1.835823e+01
  -2.320766e+01   2.132966e+01
  -5.451595e+01   2.133390e+01
  -6.211511e+01  -1.727369e+01
  -3.133074e+01  -5.730564e+01
   1.555613e+01  -4.666374e+01
   4.425234e+01   1.121993e+01
   2.702544e+01   5.851080e+01
  -1.435012e+01   5.762383e+01
  -5.763433e+01   1.316767e+01
  -6.598142e+01  -4.289646e+01
  -2.823802e+01  -6.819691e+01
   2.275057e+01  -4.586329e+01
   4.193567e+01  -8.285622e+00
   2.369239e+01   8.754536e+00
   1.210102e+01  -4.853153e+00
   4.862916e+01  -8.614165e+00
   8.551319e+01   1.503213e+01
   6.789346e+01   6.493347e+01
  -1.359376e+01   9.033112e+01
  -8.610055e+01   8.507066e+01
  -9.738681e+01   3.225508e+01
  -5.792012e+01  -2.374807e+01
  -2.499072e+00  -5.695812e+01
   3.020014e+01  -4.117630e+01
   1.335010e+01   6.544110e+00
  -2.517634e+01   3.147068e+01
  -4.896482e+01  -1.439330e-01
  -2.050193e+01  -3.958229e+01
   3.065226e+01  -3.654435e+01
   3.731202e+01   1.256146e+01
  -5.646314e+00   3.851312e+01
  -4.811969e+01   3.161781e+00
  -3.942333e+01  -5.706505e+01
   1.062624e+01  -7.267207e+01
   5.793321e+01  -3.452372e+01
   7.602977e+01   1.610287e+01
   5.724607e+01   4.867852e+01
   2.115559e+01   6.229898e+01
  -2.251622e+01   3.745132e+01
  -3.235768e+01   7.384315e+00
  -2.346939e+00  -6.713445e+00
   1.837740e+01   1.159034e+01
   3.673417e+00   3.072738e+01
  -2.964565e+01   2.465123e+01
  -2.507620e+01  -1.070830e+00
  -1.026188e-01  -1.768434e+01
   2.363414e+01   4.820181e-01
   1.213864e+01   2.019750e+01
  -3.247316e+01   2.138043e+01
  -6.419117e+01   1.960957e+00
  -5.299250e+01  -3.329103e+01
  -2.287593e+00  -5.801537e+01
   4.877718e+01  -5.582585e+01
   6.032422e+01  -2.150769e+01
   3.076463e+01   1.479127e+01
  -1.276232e+01   1.981719e+01
  -1.582289e+01  -2.979607e+00
   1.798254e+01  -2.450709e+01
   4.832806e+01  -6.364188e+00
   4.333808e+01   2.620801e+01
   9.478201e+00   4.475866e+01
  -2.452089e+01   2.822964e+01
  -2.675721e+01   1.430897e+00
  -9.604632e+00  -8.213187e+00
   7.821436e+00   2.480177e+00
   6.110984e+00   1.738327e+01
  -1.807004e+01   2.050214e+01
  -4.461911e+01  -1.229973e-01
  -3.658902e+01  -2.957531e+01
   4.784401e+00  -4.568095e+01
   4.285550e+01  -3.406617e+01
   4.422150e+01  -7.159181e-01
   1.157739e+01   2.486829e+01
  -1.398955e+01   1.958613e+01
  -1.432822e+01   4.486248e+00
  -3.274350e-01  -4.519923e+00
   6.440069e+00  -1.394598e+00
  -4.797617e+00   3.674500e+00
  -1.710405e+01  -4.773737e+00
  -1.675428e+01  -2.201940e+01
   1.133798e+00  -3.449945e+01
   2.933936e+01  -2.935663e+01
   4.874777e+01   1.789890e+00
   3.590291e+01   3.307157e+01
   3.372016e+00   4.666548e+01
  -2.215476e+01   2.891645e+01
  -2.143054e+01   1.805911e+00
  -9.687883e+00  -9.554768e+00
  -6.783212e+00  -2.214493e+00
  -1.704551e+01   6.387510e+00
  -2.026017e+01   8.972745e-01
  -9.968182e+00  -1.378537e+01
   7.637891e+00  -2.040118e+01
   2.049231e+01  -1.174324e+01
   1.558008e+01   7.575437e+00
  -5.783371e+00   2.066560e+01
  -3.057738e+01   1.308382e+01
  -3.874424e+01  -1.332695e+01
  -1.678300e+01  -4.231091e+01
   2.592782e+01  -4.735199e+01
   5.783971e+01  -1.711641e+01
   5.526684e+01   2.261843e+01
   1.885606e+01   4.350214e+01
  -1.409384e+01   3.053589e+01
  -2.404806e+01   1.357033e+01
  -1.587384e+01   1.444670e+01
  -1.209642e+01   2.277598e+01
  -2.058698e+01   1.580108e+01
  -2.651701e+01  -9.235366e+00
  -2.091074e+01  -3.678618e+01
  -5.166539e+00  -4.770493e+01
   1.845420e+01  -3.383563e+01
   3.349309e+01  -8.049338e-01
   2.566205e+01   2.613467e+01
   3.584679e+00   3.140297e+01
  -9.981432e+00   1.719853e+01
  -8.295081e+00   1.884747e-01
   5.817195e-01  -7.842820e+00
  -4.644034e-01  -5.865740e+00
  -1.303011e+01  -3.778975e+00
  -1.544140e+01  -3.996261e+00
  -7.011837e+00  -1.744174e+00
   1.256982e+01  -1.475252e+00
   2.775773e+01  -1.318174e+00
   2.331867e+01   3.149553e+00
   3.756581e-01   1.044482e+01
  -2.209321e+01   1.335441e+01
  -2.423882e+01   9.110440e+00
  -3.948592e+00  -2.072777e+00
   1.314738e+01  -4.478100e+00
   1.202263e+01   3.138853e+00
  -2.627945e+00   1.131489e+01
  -1.186469e+01   8.976251e+00
  -1.052894e+01  -1.664767e+00
  -6.279257e+00  -9.182615e+00
  -7.823130e+00  -5.648011e+00
  -1.824938e+01   3.473403e+00
  -1.696947e+01  -1.770544e+00
  -8.148258e+00  -2.065227e+01
   1.126916e+01  -3.835787e+01
   3.197029e+01  -3.100091e+01
   3.750199e+01  -2.625067e+00
   2.426114e+01   2.291452e+01
  -4.162156e+00   2.568888e+01
  -1.968087e+01   9.135111e+00
  -8.727567e+00  -6.907322e+00
   1.816962e+01  -5.320014e+00
   3.363147e+01   1.289232e+01
   1.569306e+01   2.095046e+01
  -1.546483e+01   1.924820e+01
  -3.810560e+01   1.139619e+01
  -3.499402e+01  -4.659441e+00
  -7.885942e+00  -1.766233e+01
   1.313311e+01  -1.392572e+01
   1.028193e+01  -3.818614e+00
  -8.198956e+00   1.663227e+00
  -1.783145e+01  -4.742309e+00
  -6.477841e+00  -1.932248e+01
   1.509574e+01  -2.671731e+01
   3.086906e+01  -1.246985e+01
   2.521939e+01   1.719159e+01
   2.909323e+00   3.862217e+01
  -1.671154e+01   2.895796e+01
  -2.023255e+01  -1.600337e+00
  -1.287182e+01  -2.563456e+01
  -1.404533e+00  -2.257071e+01
   8.522032e+00  -2.696610e+00
   9.557116e+00   8.093125e+00
   3.287634e+00   2.975746e+00
   2.323369e-01  -3.596662e+00
   6.010560e+00   5.383803e+00
   1.112169e+01   1.987419e+01
   7.146740e+00   2.214892e+01
  -1.574827e+01   6.133230e+00
  -3.205853e+01  -1.019300e+01
  -2.290901e+01  -1.261630e+01
   2.299554e+00  -9.459382e+00
   2.207981e+01  -3.505005e+00
   1.480739e+01  -6.927779e-01
  -6.115477e-01   3.167197e+00
  -9.552418e+00   5.517660e+00
  -1.607236e+00   3.888364e+00
   3.719304e+00   8.616626e-02
  -4.766983e+00  -2.422328e+00
  -1.812767e+01  -2.550682e+00
  -1.586547e+01  -7.371847e+00
   4.426924e+00  -1.710736e+01
   2.817161e+01  -2.266233e+01
   3.562621e+01  -9.898850e+00
   2.404809e+01   1.581962e+01
   1.217481e+00   3.364287e+01
  -1.790921e+01   3.039023e+01
  -2.104396e+01   1.186896e+01
  -9.777384e+00  -5.110612e+00
  -2.326952e+00  -6.383495e+00
   4.493246e-01  -6.211369e-01
  -4.572088e+00  -2.295675e+00
  -6.872248e+00  -1.024638e+01
  -1.815331e+00  -1.866144e+01
   7.719308e+00  -1.323456e+01
   1.455346e+01   6.069021e+00
   1.311395e+01   2.216889e+01
  -1.086677e+00   1.966277e+01
  -1.627670e+01  -6.819172e-02
  -1.517126e+01  -1.750127e+01
  -2.780067e+00  -2.000039e+01
   1.345807e+01  -8.632434e+00
   1.977835e+01   3.206505e+00
   7.195228e+00   9.333326e+00
  -6.542699e+00   1.164857e+01
  -3.952083e+00   7.637425e+00
   8.315941e+00   4.229740e-01
   1.155455e+01  -6.008628e-01
  -2.582222e-01   6.078741e+00
  -1.814482e+01   1.317769e+01
  -1.922266e+01   1.113231e+01
  -8.961690e+00  -3.001425e+00
   4.800285e+00  -1.716167e+01
   8.099239e+00  -1.575373e+01
   5.788885e+00  -1.774691e-01
  -1.366865e-01   1.075287e+01
  -4.234485e+00   5.430849e+00
  -5.249144e+00  -5.272559e+00
  -3.352502e+00  -1.073465e+01
   1.686959e-01  -4.660611e+00
   4.529408e+00   3.522512e+00
   7.309361e+00   3.122165e+00
   5.551669e+00  -1.449063e+00
   5.923720e-01  -3.346489e+00
  -1.810669e+00   7.246533e-01
  -3.644037e+00   7.242520e+00
  -4.331889e+00   8.770153e+00
  -5.390404e+00  -7.551536e-01
  -5.002442e+00  -1.082232e+01
   1.412961e+00  -1.158419e+01
   1.008721e+01  -4.267028e+00
   1.239906e+01   7.818107e+00
   3.465253e+00   1.183763e+01
  -1.108984e+01   7.089570e+00
  -1.862748e+01  -3.632688e+00
  -1.036423e+01  -8.872929e+00
   6.498904e+00  -8.370848e+00
   1.330629e+01  -4.475465e+00
   5.403242e+00  -1.376632e+00
  -7.168927e+00  -2.521512e+00
  -6.439994e+00  -4.102831e+00
   6.531271e+00  -5.554918e+00
   1.871256e+01  -2.658868e+00
