
 $NMID
 id='ANONYMOUS ', fmtdat='(2E16.6)'
 volume=1.0
 tramp=1.0
 $END
  -2.658692e+02   4.320071e+02
  -4.343293e+02   1.755796e+02
  -1.906108e+02  -2.720014e+02
   4.325162e+00  -3.803959e+02
   1.801712e+02  -1.662429e+02
   9.917374e+01   5.171280e+01
  -3.741113e+01   1.302521e+02
  -7.743094e+01   2.102306e+01
  -5.700706e+01  -7.103034e+01
   3.125097e+01  -1.091473e+02
   1.173500e+02  -5.301232e+01
   1.187639e+02   4.189781e+01
   2.793407e+01   1.005022e+02
  -6.982447e+01   7.247503e+01
  -8.372422e+01  -1.275125e+01
  -1.007606e+00  -7.126771e+01
   7.678123e+01  -3.277682e+01
   6.902399e+01   2.511902e+01
   9.121195e+00   5.380181e+01
  -3.236342e+01   5.099802e+01
  -2.406792e+01   9.835601e+00
  -1.854154e+01  -2.779826e+01
  -1.285389e+01  -5.422851e+01
   9.171992e+00  -2.027636e+01
   1.336756e+01   4.188272e+01
  -1.619583e+01   4.469976e+01
  -5.920402e+01  -1.093535e+01
  -3.428684e+00  -9.920129e+01
   6.979758e+01  -5.263823e+01
   5.972971e+01   2.488307e+01
   8.846465e+00   8.288945e+01
  -3.229544e+01   4.895398e+01
  -4.952399e+01  -1.400235e+01
  -3.908651e+01  -5.525084e+01
   2.578312e+01  -5.251768e+01
   7.054283e+01  -1.173131e+01
   5.946867e+01   2.377596e+01
  -6.012412e+00   2.694310e+01
  -6.039824e+01  -9.285934e+00
  -8.131385e+00  -5.995115e+01
   7.961243e+01  -2.963185e+01
   1.170935e+02   3.402923e+01
   2.670666e+01   7.135097e+01
  -6.133754e+01   2.260166e+01
  -4.872522e+01  -3.424391e+01
   3.888609e+01  -2.014303e+01
   6.895139e+01   9.581319e+00
   3.264868e+01   5.241913e+01
  -3.360034e+01   4.983776e+01
  -6.601701e+01   1.304626e+01
  -4.471675e+01  -3.368142e+01
   7.962117e+00  -6.247895e+01
   5.013010e+01  -4.925356e+01
   4.567295e+01  -2.640608e+00
  -5.013138e+00   3.583408e+01
  -2.652616e+01   2.394856e+01
  -8.781614e+00  -1.575527e+01
   1.512844e+01  -5.104256e+00
   9.000913e+00   2.096208e+01
  -2.654415e+01   3.080230e+01
  -3.607438e+01   2.210692e+00
  -1.093725e+01  -2.778514e+01
   1.451848e+00  -2.747418e+01
  -1.418741e+00  -3.104279e+01
  -1.279795e+00  -2.887559e+01
   2.521178e+01  -5.483153e+00
   4.017016e+01   3.867251e+01
  -6.150046e-01   4.166786e+01
  -5.979986e+01   4.142964e-01
  -5.605812e+01  -4.443837e+01
  -3.513150e+00  -5.066407e+01
   1.658638e+01  -2.454427e+01
   1.187773e+00   3.942089e+00
  -1.777481e+01  -8.710933e+00
  -7.088143e+00  -2.392821e+01
   2.355060e+01  -2.515177e+01
   3.143871e+01  -4.666980e+00
   7.108509e+00   1.379612e+01
  -2.777111e+01   1.958906e+01
  -3.768137e+01   2.038392e+00
  -1.921798e+01  -2.884477e+01
   1.490444e+01  -4.902313e+01
   3.966493e+01  -3.517711e+01
   2.825646e+01   1.457185e+00
   2.842531e+00   2.700916e+01
  -5.984310e+00   1.960745e+01
  -4.783585e-02   9.642456e+00
   2.162431e+00   1.880740e+01
  -1.729460e+01   3.959226e+01
  -3.755714e+01   4.045277e+01
  -4.308871e+01   7.685560e+00
  -3.357078e+01  -3.969585e+01
  -2.233863e+01  -5.996350e+01
   1.363441e+00  -4.347420e+01
   2.563213e+01  -1.163182e+01
   3.384996e+01   2.163622e+01
   1.164966e+01   1.982075e+01
  -1.685765e+01  -8.433048e+00
  -1.013334e+01  -1.965237e+01
   1.618267e+01  -4.327725e+00
   1.268736e+01   1.905042e+01
  -1.188819e+01   1.838404e+01
  -2.007519e+01  -7.416209e+00
   5.019430e-02  -2.157046e+01
   2.833231e+01  -1.242349e+01
   3.593708e+01   7.756881e+00
   1.384144e+01   1.908657e+01
  -1.249538e+01   2.378151e+01
  -2.845461e+01   1.852886e+01
  -3.085669e+01   7.928077e+00
  -1.993749e+01  -8.549000e+00
  -9.697222e+00  -1.916105e+01
  -7.012428e-01  -1.642778e+01
  -1.148696e+00   3.291443e+00
  -1.152568e+01   4.770737e+00
  -1.260842e+01  -8.525743e+00
  -6.282494e+00  -1.473682e+01
   7.482390e+00  -4.396332e+00
   6.894749e+00   9.180947e+00
  -1.518821e-01   1.087550e+01
  -5.915031e+00   3.018095e-01
  -9.872604e+00  -1.615853e+01
  -8.613265e-01  -2.571569e+01
   1.395777e+01  -1.514578e+01
   2.998677e+01   9.476242e+00
   2.481831e+01   3.379532e+01
  -3.225739e+00   2.917733e+01
  -1.404510e+01   7.623236e+00
  -4.517475e+00  -1.130548e+01
   9.356259e+00  -1.805351e+00
   2.892105e+00   1.696416e+01
  -1.344437e+01   2.360349e+01
  -2.111900e+01   1.072226e+01
  -1.550446e+01  -6.128377e+00
  -1.288432e+00  -1.605354e+01
   4.208087e+00  -1.319603e+01
   1.977737e+00  -2.926392e+00
  -5.525103e+00   6.734458e+00
  -9.851739e+00   1.691013e+00
  -4.010208e+00  -1.208209e+01
   1.003570e+01  -2.048205e+01
   2.411254e+01  -9.591621e+00
   2.175788e+01   1.259792e+01
   3.217673e+00   2.337375e+01
  -1.244991e+01   1.612982e+01
  -1.151057e+01  -7.895721e-01
  -2.640938e+00  -8.388512e+00
   3.207291e+00  -4.662866e+00
   3.316731e+00  -1.287530e+00
   1.393986e+00   1.179028e+00
   1.297066e+00  -2.036161e+00
   7.769492e+00  -6.088835e+00
   1.642149e+01  -3.785442e+00
   1.814558e+01   9.058480e+00
   6.875152e+00   2.252750e+01
  -1.270589e+01   2.700479e+01
  -2.510212e+01   8.476659e+00
  -2.037943e+01  -1.305974e+01
  -5.671998e+00  -2.018913e+01
   7.609675e+00  -1.321922e+01
   1.135895e+01  -5.364157e+00
   8.348864e+00  -3.092355e+00
   2.405347e+00  -3.606584e+00
   4.151308e-01  -3.268586e-01
   2.197652e+00   4.285314e+00
   1.680567e+00   6.824748e+00
   7.519578e-01   6.498691e+00
  -6.962887e+00  -8.446437e-01
  -6.784392e+00  -1.366228e+01
   7.129233e+00  -2.001726e+01
   1.944512e+01  -1.470354e+01
   2.445055e+01   1.021559e+01
   9.982459e+00   3.325529e+01
  -9.018260e+00   3.338864e+01
  -1.915273e+01   1.599488e+01
  -1.827956e+01  -3.198211e+00
  -7.710390e+00  -1.232430e+01
  -3.478618e+00  -1.190403e+01
  -6.677972e+00  -8.636813e+00
  -7.631137e+00  -1.027902e+01
  -1.162775e+00  -1.014865e+01
   1.146033e+01  -1.365576e+01
   2.428640e+01  -3.740920e+00
   2.310744e+01   9.025286e+00
   8.355057e+00   1.598520e+01
  -9.847655e+00   1.305958e+01
  -1.792570e+01   3.085274e+00
  -1.227255e+01  -5.921205e+00
  -1.458489e+00  -6.540196e+00
   2.961152e+00  -3.817002e+00
   4.750678e+00  -1.057107e+00
   1.517680e+00  -4.163925e+00
   5.568455e+00  -6.902791e+00
   7.213426e+00  -5.820042e+00
   2.236291e+00   2.751768e+00
  -3.372736e+00   1.699431e+01
  -8.534250e+00   2.077348e+01
  -1.033854e+01   9.238738e+00
  -8.041092e+00  -1.022267e+01
  -4.179274e+00  -2.218565e+01
   1.336103e+00  -1.572145e+01
   4.866126e+00  -3.275131e-02
   1.251821e-01   1.014059e+01
  -5.756065e+00   4.640576e+00
  -5.050106e+00  -2.989263e+00
   1.111426e+00  -6.505520e+00
   7.750470e+00  -3.186941e+00
   5.404886e+00  -1.744469e+00
   1.129970e+00  -3.171687e+00
  -3.367887e+00  -5.693274e+00
   1.315672e+00  -3.107000e+00
   1.188493e+01   2.064400e+00
   1.221360e+01   9.575420e+00
   2.663232e+00   1.282453e+01
  -1.123920e+01   1.316455e+01
  -1.229955e+01   2.762514e+00
  -6.387916e+00  -9.409352e+00
   1.289324e+00  -1.097486e+01
   2.687082e+00  -1.259079e+00
  -7.551572e-01   1.101368e+01
  -7.659399e+00   1.302743e+01
  -4.095383e+00   7.036302e-02
   1.309272e+00  -1.203296e+01
   5.118053e+00  -1.267904e+01
   4.134002e+00  -3.429844e+00
   3.088590e+00   3.209381e+00
   4.400377e-01   4.493884e+00
   2.635659e-01  -2.714060e+00
   6.427474e+00  -8.406389e+00
   1.746962e+01  -4.427636e-02
   1.836283e+01   1.562728e+01
   2.915910e+00   2.314499e+01
  -1.451526e+01   1.621644e+01
  -2.157768e+01   1.088317e+00
  -1.521572e+01  -8.100939e+00
  -3.340216e+00  -1.014396e+01
   9.531583e+00  -8.201443e+00
   1.201984e+01  -2.295044e+00
   5.563644e+00   3.182251e+00
  -1.414885e+00   6.281766e+00
  -2.367077e+00   1.997249e+00
   1.029585e+00  -2.552222e+00
  -7.066069e-01  -1.310489e+00
  -6.776455e+00   5.472429e+00
  -9.900138e+00   7.732464e+00
  -3.895633e+00   7.434450e-01
   4.970424e+00  -1.388797e+01
   8.380081e+00  -1.772520e+01
   3.048510e+00  -6.343828e+00
   6.977713e-01   6.207366e+00
   3.184473e+00   8.705424e+00
   3.130961e+00   2.495714e+00
   1.420336e+00  -3.198339e+00
  -3.241955e+00  -1.303409e+00
  -8.584397e-01   2.584878e+00
   3.084019e+00   1.183919e+00
   3.770516e+00  -4.397347e+00
   1.585241e+00  -8.143147e+00
   3.402244e+00  -1.189927e+00
   5.828936e+00   1.182228e+01
   2.162947e+00   1.767204e+01
  -7.846481e+00   8.530409e+00
  -1.204390e+01  -4.820538e-01
  -1.284389e+01  -7.511899e+00
  -5.607678e+00  -8.684719e+00
   3.798435e-01  -5.173581e+00
   2.714993e+00  -3.097756e+00
   7.643031e-01  -1.297146e+00
  -1.814840e-01   7.544136e-01
   3.529190e+00  -9.257739e-01
   7.742465e+00  -2.081532e+00
   7.873695e+00   2.171473e+00
   8.601644e-01   6.539899e+00
  -1.069350e+01   8.078900e+00
  -1.245684e+01   1.772863e+00
  -2.488567e+00  -6.099293e+00
   5.586448e+00  -8.248272e+00
   8.872445e+00  -2.842297e+00
   5.036149e+00   4.570500e+00
  -1.800908e+00   7.180839e+00
  -3.402042e+00   2.796889e+00
  -3.961145e+00  -5.144415e+00
  -2.197154e+00  -5.004227e+00
  -1.127547e+00   3.811401e+00
   2.541192e+00   1.066644e+01
  -1.386579e+00   4.196592e+00
  -6.302224e+00  -8.170665e+00
  -8.609622e+00  -1.708549e+01
   3.435789e-01  -1.105389e+01
   7.904873e+00   1.446432e+00
   8.200353e+00   8.057245e+00
   3.831859e-01   3.081054e+00
  -6.400135e+00  -7.011942e-01
  -4.589550e+00  -3.856093e+00
   2.274923e+00  -4.771882e+00
   7.587952e+00  -3.371442e+00
   6.945521e+00   1.699962e-01
  -8.277651e-01   3.549127e+00
  -4.207896e+00   2.995208e+00
  -1.547126e+00   2.556872e+00
   2.232993e+00   1.750782e-01
   1.065872e+00  -1.074226e+00
  -2.031092e+00  -1.127031e-02
  -3.325505e+00  -1.023952e+00
  -1.609426e-01  -6.364980e-01
   4.485309e+00   2.545265e-01
   4.877536e+00   2.049419e-01
   3.143790e-01   4.453831e+00
  -2.795943e+00   6.589813e+00
  -5.591105e+00   2.375106e+00
  -4.054512e+00  -4.254747e+00
   4.227191e-01  -8.978887e+00
   4.825636e+00  -5.464033e+00
   4.537733e+00   3.074658e+00
   1.992769e-02   7.048758e+00
  -8.011207e-01   2.949552e+00
  -5.656758e-01  -3.615875e+00
   2.957655e+00  -5.507768e+00
   3.088474e+00   1.476688e+00
  -1.742266e-02   9.399410e+00
