
 $NMID
 id='ANONYMOUS ', fmtdat='(2E16.6)'
 volume=1.0
 tramp=1.0
 $END
   3.144607e+03  -6.368227e+02
   2.151259e+03   1.400033e+03
   3.267918e+02   2.100271e+03
  -1.092298e+03   1.385359e+03
  -9.755743e+02   2.729166e+02
  -9.830605e+01  -2.883265e+02
   3.937899e+02  -5.974801e+00
   1.677690e+02   5.228535e+02
  -3.770537e+02   6.346759e+02
  -6.348828e+02   1.886841e+02
  -4.864683e+02  -4.313393e+02
  -8.110406e+01  -6.252684e+02
   2.724085e+02  -2.193051e+02
   2.703153e+02   3.638634e+02
  -9.272279e+01   5.492378e+02
  -4.162160e+02   1.344703e+02
  -3.512084e+02  -4.458631e+02
   6.778110e+01  -6.326266e+02
   4.421300e+02  -3.048785e+02
   4.413549e+02   1.605700e+02
   1.583479e+02   3.693191e+02
  -9.670375e+01   2.763582e+02
  -7.110521e+01   1.167824e+02
   1.322381e+02   8.997966e+01
   2.244750e+02   2.158909e+02
  -5.673765e+00   3.024004e+02
  -4.051566e+02   2.033180e+02
  -5.436448e+02  -1.026879e+02
  -2.491629e+02  -2.892190e+02
   2.474940e+02  -2.243110e+02
   4.383166e+02   6.183622e+01
   2.064051e+02   3.233295e+02
  -2.185636e+02   3.516170e+02
  -4.116587e+02   1.654479e+02
  -3.201685e+02  -1.191271e+02
  -1.164370e+02  -2.789041e+02
   1.117214e+01  -1.735888e+02
  -1.205394e+01   8.639553e+01
  -1.244942e+02   1.728051e+02
  -1.967294e+02  -8.522669e+01
  -9.284872e+01  -4.178266e+02
   1.572986e+02  -4.038946e+02
   2.901065e+02  -3.259849e+01
   1.509871e+02   2.876641e+02
  -1.107881e+02   1.557969e+02
  -1.764347e+02  -2.100395e+02
   7.748220e+01  -3.557351e+02
   3.965254e+02  -6.843598e+01
   4.546738e+02   3.429367e+02
   1.763514e+02   4.718563e+02
  -2.589352e+02   2.772688e+02
  -4.926408e+02  -1.588577e+01
  -3.490620e+02  -2.023901e+02
   1.907190e+01  -2.203580e+02
   2.718101e+02  -1.034921e+02
   2.205041e+02   1.878597e+01
   1.793095e+01   2.715931e+01
  -7.534165e+01  -3.991485e+01
   6.523008e+01  -6.363196e+01
   2.223068e+02   2.057528e+01
   1.428949e+02   1.804489e+02
  -1.230152e+02   2.491722e+02
  -3.182439e+02   1.342590e+02
  -2.516996e+02  -9.852080e+01
   5.888375e+00  -3.157535e+02
   2.612195e+02  -3.456152e+02
   3.256933e+02  -1.625091e+02
   2.277696e+02   1.408697e+02
   8.083904e+01   3.164844e+02
  -1.393169e+01   2.890068e+02
  -1.234530e+01   1.651274e+02
  -2.946102e+01   9.762394e+01
  -1.079476e+02   1.048186e+02
  -2.093746e+02   5.671145e+01
  -2.152607e+02  -9.811515e+01
  -9.378088e+01  -2.244877e+02
   8.071802e+01  -1.765001e+02
   1.846726e+02   2.634388e+01
   1.431877e+02   2.078429e+02
  -2.711052e+01   2.275391e+02
  -2.175167e+02   7.546217e+01
  -2.882287e+02  -1.359279e+02
  -1.666196e+02  -2.750975e+02
   4.463064e+01  -2.686463e+02
   1.529066e+02  -1.646114e+02
   1.436376e+02  -7.939821e+01
   1.423902e+02  -5.839702e+01
   2.539525e+02  -3.702545e+01
   3.763339e+02   6.178069e+01
   2.998429e+02   2.469570e+02
  -4.790728e+00   3.970420e+02
  -3.260970e+02   3.780794e+02
  -4.266833e+02   1.760835e+02
  -2.668811e+02  -8.124909e+01
  -4.279012e+01  -2.332909e+02
   6.577999e+01  -1.982195e+02
   1.936362e+01  -4.649708e+01
  -8.764170e+01   3.908640e+01
  -1.115772e+02  -1.938143e+01
  -1.845422e+01  -1.220333e+02
   9.142059e+01  -1.043835e+02
   9.506907e+01   3.468547e+01
  -1.568314e+01   1.171767e+02
  -1.391971e+02   1.394236e+01
  -1.428590e+02  -2.046651e+02
   7.040136e+00  -3.183019e+02
   2.095398e+02  -2.063112e+02
   3.237499e+02   4.058472e+01
   2.592115e+02   2.279947e+02
   6.953389e+01   2.474709e+02
  -1.055467e+02   1.319681e+02
  -1.380306e+02   1.411128e+01
  -3.397658e+01  -1.265438e+01
   4.674666e+01   5.026103e+01
   2.862778e+00   9.864919e+01
  -1.099539e+02   6.263490e+01
  -1.431703e+02  -1.866972e+01
  -3.491767e+01  -4.498137e+01
   7.073966e+01   1.088980e+01
   3.719460e+01   8.392924e+01
  -1.317124e+02   8.391854e+01
  -2.788487e+02  -1.280530e+01
  -2.494184e+02  -1.454386e+02
  -4.708495e+01  -2.324035e+02
   1.630507e+02  -2.165250e+02
   2.271659e+02  -1.019698e+02
   1.300828e+02   2.758241e+01
  -1.690217e+01   6.977026e+01
  -5.645913e+01  -7.821632e-01
   3.623122e+01  -7.829535e+01
   1.578001e+02  -4.239613e+01
   1.708415e+02   8.445121e+01
   6.200866e+01   1.643345e+02
  -6.909202e+01   1.249945e+02
  -1.062721e+02   1.805760e+01
  -4.201943e+01  -2.865006e+01
   3.734952e+01   2.067323e+01
   2.624365e+01   9.884970e+01
  -8.305982e+01   1.113066e+02
  -1.937070e+02   2.109290e+01
  -1.762214e+02  -1.104126e+02
  -2.215249e+01  -1.861311e+02
   1.353934e+02  -1.441833e+02
   1.578574e+02  -2.339813e+01
   5.642819e+01   7.996291e+01
  -5.409997e+01   9.061866e+01
  -6.414287e+01   3.254206e+01
  -3.312461e+00  -1.766821e+01
   3.364641e+01  -7.391794e+00
  -6.878344e+00   2.372661e+01
  -8.215059e+01   4.349469e+00
  -1.023587e+02  -7.834102e+01
  -1.911458e+01  -1.572049e+02
   1.233119e+02  -1.470276e+02
   2.190201e+02  -2.204536e+01
   1.849881e+02   1.360998e+02
   4.758282e+01   2.072335e+02
  -8.116461e+01   1.528138e+02
  -1.167992e+02   3.685512e+01
  -7.085408e+01  -3.511911e+01
  -3.206306e+01  -2.121528e+01
  -4.901415e+01   2.122890e+01
  -8.109124e+01   1.164234e+01
  -5.687646e+01  -5.056444e+01
   2.923002e+01  -9.822784e+01
   1.079556e+02  -6.518988e+01
   9.968504e+01   3.902936e+01
  -1.283786e+01   1.202837e+02
  -1.500823e+02   8.875908e+01
  -1.946086e+02  -5.070688e+01
  -8.681900e+01  -1.879561e+02
   1.032806e+02  -2.014567e+02
   2.375674e+02  -8.616540e+01
   2.266309e+02   6.578952e+01
   1.070967e+02   1.446272e+02
  -2.201073e+01   1.270699e+02
  -7.444189e+01   8.475498e+01
  -6.105520e+01   7.296573e+01
  -5.035835e+01   9.242327e+01
  -8.016973e+01   7.788641e+01
  -1.237200e+02  -1.050687e+01
  -1.192416e+02  -1.381511e+02
  -3.777010e+01  -2.061830e+02
   8.461046e+01  -1.579948e+02
   1.567776e+02  -1.983128e+01
   1.235040e+02   1.085938e+02
   1.914519e+01   1.434966e+02
  -6.541202e+01   7.700576e+01
  -5.914200e+01  -9.584697e+00
   7.024155e-01  -4.964056e+01
   2.495259e+01  -3.321713e+01
  -2.443744e+01  -1.017627e+01
  -7.848934e+01  -1.526353e+01
  -4.849997e+01  -3.686516e+01
   6.389647e+01  -3.941539e+01
   1.572629e+02  -3.598843e+00
   1.289765e+02   5.211732e+01
   3.041396e-01   8.772481e+01
  -1.174311e+02   6.833449e+01
  -1.250542e+02   1.083226e+01
  -3.942756e+01  -4.382555e+01
   5.095015e+01  -4.565746e+01
   7.198920e+01   1.408103e+01
   2.156930e+01   7.073967e+01
  -4.012832e+01   6.656633e+01
  -6.754424e+01   7.097583e+00
  -6.198639e+01  -4.553383e+01
  -5.209524e+01  -3.950114e+01
  -5.188062e+01  -2.004126e+00
  -5.842944e+01  -1.574461e+00
  -4.314787e+01  -6.816471e+01
   1.622695e+01  -1.430834e+02
   1.054437e+02  -1.381338e+02
   1.614689e+02  -3.701266e+01
   1.241607e+02   7.884105e+01
   9.686164e+00   1.185519e+02
  -7.854056e+01   6.628929e+01
  -5.696031e+01  -4.564972e+00
   4.868985e+01  -1.760104e+01
   1.228393e+02   3.180619e+01
   6.856931e+01   9.248209e+01
  -7.141049e+01   1.025481e+02
  -1.667049e+02   5.052943e+01
  -1.405294e+02  -2.433015e+01
  -2.966686e+01  -6.991217e+01
   5.312780e+01  -5.410616e+01
   3.917952e+01   1.399121e+00
  -4.039634e+01   3.165650e+01
  -8.538221e+01  -1.279390e+01
  -4.168309e+01  -1.035798e+02
   6.221895e+01  -1.475010e+02
   1.347972e+02  -7.382300e+01
   1.161060e+02   7.729804e+01
   2.372271e+01   1.724507e+02
  -6.167413e+01   1.296966e+02
  -9.123520e+01  -6.421953e+00
  -5.459518e+01  -1.053176e+02
   7.453445e+00  -9.077055e+01
   4.513552e+01  -1.269368e+01
   4.174075e+01   2.761427e+01
   1.444528e+01   5.166124e+00
   5.659268e+00  -1.504887e+01
   3.072337e+01   2.112363e+01
   5.829158e+01   8.240579e+01
   3.216218e+01   9.490838e+01
  -5.161739e+01   4.104371e+01
  -1.242352e+02  -2.754642e+01
  -1.141401e+02  -5.656131e+01
  -1.954024e+01  -4.998945e+01
   7.069786e+01  -2.993524e+01
   7.987954e+01  -1.230025e+01
   1.867971e+01   1.022524e+01
  -2.769804e+01   2.399753e+01
  -1.759639e+01   1.358886e+01
   1.101340e+01  -4.880536e+00
  -3.212288e+00  -4.434927e+00
  -6.160532e+01   6.471105e+00
  -8.592651e+01  -1.466272e+01
  -2.377025e+01  -7.488909e+01
   9.117699e+01  -1.155559e+02
   1.666754e+02  -7.201084e+01
   1.406084e+02   4.429281e+01
   3.619132e+01   1.420583e+02
  -6.483984e+01   1.418462e+02
  -1.007375e+02   6.412311e+01
  -7.530919e+01  -1.693783e+01
  -2.752110e+01  -3.484674e+01
  -2.553119e+00  -1.423517e+01
  -1.086300e+01  -9.229108e+00
  -2.658573e+01  -4.404256e+01
  -1.802617e+01  -8.212272e+01
   2.256592e+01  -6.716882e+01
   7.227070e+01   1.043219e+01
   8.044154e+01   8.748202e+01
   1.902120e+01   1.009194e+02
  -6.747772e+01   3.677457e+01
  -1.022683e+02  -5.029776e+01
  -4.599986e+01  -9.254152e+01
   5.238887e+01  -6.338118e+01
   9.539804e+01  -1.874421e+00
   4.480152e+01   4.932476e+01
  -2.631756e+01   5.664495e+01
  -3.624698e+01   2.648130e+01
   2.182324e+01  -7.854847e+00
   6.137587e+01  -1.018100e+01
   1.863607e+01   2.486583e+01
  -6.601085e+01   6.233357e+01
  -1.074694e+02   4.914123e+01
  -6.618308e+01  -1.602354e+01
   7.212541e+00  -7.904148e+01
   4.901533e+01  -7.676740e+01
   4.397967e+01  -1.351310e+01
   1.059583e+01   4.756171e+01
  -1.929436e+01   4.708845e+01
  -3.479690e+01  -6.656595e+00
  -2.943858e+01  -4.964604e+01
  -1.391555e+00  -3.801575e+01
   3.102703e+01   2.096273e+00
   4.058621e+01   2.062196e+01
   2.100240e+01   2.985808e+00
  -1.809298e+00  -1.864300e+01
  -3.338984e+00  -8.265343e+00
   7.423007e+00   3.059257e+01
   1.124214e+00   5.115510e+01
  -2.569044e+01   2.212157e+01
  -4.216677e+01  -3.021936e+01
  -1.630981e+01  -5.512302e+01
   3.506749e+01  -2.662251e+01
   6.025193e+01   2.643249e+01
   2.378472e+01   5.295410e+01
  -5.019243e+01   3.419140e+01
  -8.786278e+01  -5.079567e+00
  -4.996622e+01  -3.565030e+01
   2.291955e+01  -4.354145e+01
   5.742946e+01  -2.956633e+01
   2.649725e+01  -6.491970e+00
  -2.537034e+01   6.721505e+00
  -3.144004e+01  -3.366491e+00
   1.931655e+01  -2.595005e+01
   6.764937e+01  -2.504862e+01
