
 $NMID
 id='ANONYMOUS ', fmtdat='(2E16.6)'
 volume=1.0
 tramp=1.0
 $END
   1.568946e+03   4.573501e+02
   7.712342e+02   9.247216e+02
  -1.613961e+02   8.975212e+02
  -6.185177e+02   6.294507e+02
  -4.638748e+02   2.023281e+02
  -5.984756e+01   1.114870e+01
   8.046658e+01   6.258140e+01
  -4.615394e+01   2.162701e+02
  -2.182980e+02   2.416147e+02
  -2.482673e+02   2.923533e+01
  -1.542264e+02  -2.275691e+02
   1.077965e+01  -2.848504e+02
   1.197605e+02  -6.379075e+01
   9.198928e+01   2.011574e+02
  -3.304741e+01   2.428614e+02
  -1.538886e+02   4.002272e+01
  -1.285260e+02  -2.245684e+02
   5.983704e+01  -2.834716e+02
   2.317423e+02  -1.223095e+02
   2.467587e+02   1.078621e+02
   8.129855e+01   1.890606e+02
  -7.153707e+01   1.227932e+02
  -4.295437e+01   4.673382e+01
   8.632851e+01   6.950920e+01
   1.181506e+02   1.532140e+02
  -4.337737e+01   1.613971e+02
  -2.254376e+02   2.671419e+01
  -2.455487e+02  -1.307036e+02
  -6.518220e+01  -1.701659e+02
   1.747168e+02  -5.287521e+01
   2.404287e+02   9.313185e+01
   6.559007e+01   1.783924e+02
  -1.554737e+02   1.525031e+02
  -2.398625e+02   4.737076e+01
  -1.478825e+02  -1.001403e+02
  -8.793635e+00  -1.670262e+02
   5.427707e+01  -9.113917e+01
  -8.252757e+00   3.623300e+01
  -7.913005e+01   5.111725e+01
  -7.710205e+01  -9.841889e+01
   5.271916e+01  -2.357181e+02
   1.597256e+02  -1.778868e+02
   1.627237e+02   3.226109e+01
   4.589853e+01   1.713641e+02
  -6.042775e+01   5.372812e+01
  -6.872253e+01  -1.425989e+02
   5.874273e+01  -1.846079e+02
   2.096417e+02  -2.158086e+01
   2.309056e+02   1.574414e+02
   6.987447e+01   2.249259e+02
  -1.340633e+02   1.103559e+02
  -2.409623e+02  -5.124381e+01
  -1.523765e+02  -1.359940e+02
   3.839453e+01  -1.100448e+02
   1.381758e+02  -4.505306e+01
   1.040763e+02   8.239165e+00
   1.303339e+01   1.431991e-01
  -2.389495e+01  -2.387798e+01
   4.320553e+01  -1.579391e+01
   1.058372e+02   3.088484e+01
   5.802500e+01   7.941687e+01
  -7.385819e+01   1.046931e+02
  -1.632087e+02   5.458806e+01
  -1.342520e+02  -5.062570e+01
   1.422810e+01  -1.608535e+02
   1.737897e+02  -1.744788e+02
   2.083622e+02  -7.609105e+01
   1.120377e+02   1.032971e+02
  -3.868126e+00   1.900748e+02
  -4.254622e+01   1.501457e+02
  -1.882888e+01   8.136243e+01
  -2.449696e+01   5.370730e+01
  -8.346192e+01   5.603039e+01
  -1.377336e+02   1.373684e+01
  -1.115455e+02  -7.771355e+01
  -3.002946e+01  -1.396517e+02
   5.665538e+01  -9.799026e+01
   8.707733e+01   2.564556e+01
   4.571295e+01   1.248169e+02
  -4.285937e+01   1.161693e+02
  -1.247989e+02   8.519741e+00
  -1.412617e+02  -1.093334e+02
  -6.702820e+01  -1.522032e+02
   3.151674e+01  -1.251179e+02
   8.370387e+01  -6.807892e+01
   7.673943e+01  -3.682537e+01
   8.224565e+01  -2.996108e+01
   1.374183e+02   2.705344e+00
   1.915055e+02   8.287299e+01
   1.277571e+02   1.632211e+02
  -3.553117e+01   2.126505e+02
  -2.157903e+02   1.812164e+02
  -2.465692e+02   6.177294e+01
  -1.386439e+02  -7.310211e+01
   7.338106e+00  -1.264116e+02
   4.858696e+01  -9.032392e+01
   3.730685e-01  -1.940915e+01
  -6.085910e+01   5.437206e+00
  -5.596612e+01  -3.624068e+01
   1.153654e+01  -6.642077e+01
   6.667196e+01  -3.547474e+01
   4.865877e+01   3.671221e+01
  -1.988706e+01   6.084438e+01
  -7.817418e+01  -4.385812e+00
  -7.431514e+01  -1.139561e+02
   1.188997e+01  -1.658139e+02
   1.240735e+02  -9.598107e+01
   1.789636e+02   4.360317e+01
   1.279002e+02   1.513144e+02
   1.211059e+01   1.516322e+02
  -7.818888e+01   6.426488e+01
  -7.853219e+01  -8.494196e+00
  -1.411482e+01  -8.443381e+00
   1.831053e+01   3.752050e+01
  -1.468885e+01   5.965438e+01
  -7.274855e+01   2.233424e+01
  -7.334660e+01  -1.718959e+01
  -7.620515e+00  -2.424184e+01
   4.218041e+01   1.471361e+01
   1.265304e+01   5.035175e+01
  -8.197255e+01   3.899474e+01
  -1.545625e+02  -2.561860e+01
  -1.151885e+02  -1.069411e+02
   7.097047e+00  -1.328842e+02
   1.220853e+02  -1.022297e+02
   1.364064e+02  -2.552709e+01
   6.395114e+01   3.237257e+01
  -1.956372e+01   3.303512e+01
  -2.560001e+01  -4.497930e+00
   3.729907e+01  -3.043817e+01
   9.334199e+01   3.005983e+00
   8.308721e+01   6.298638e+01
   1.445152e+01   9.143035e+01
  -5.031655e+01   5.736480e+01
  -5.814118e+01  -3.248481e+00
  -1.530304e+01  -2.133807e+01
   2.508646e+01   1.433108e+01
   9.014021e+00   5.979958e+01
  -5.516359e+01   5.627910e+01
  -1.052854e+02  -5.590277e+00
  -8.088883e+01  -7.738753e+01
   8.612325e+00  -1.014791e+02
   8.824091e+01  -6.174366e+01
   8.634099e+01   8.323333e+00
   2.201047e+01   5.225348e+01
  -3.005892e+01   4.715591e+01
  -3.366594e+01   9.962212e+00
   3.152553e+00  -1.144768e+01
   2.076109e+01   1.330008e+00
  -4.844963e+00   1.847219e+01
  -4.470150e+01   2.015213e+00
  -4.953326e+01  -5.078344e+01
   3.313940e+00  -9.062298e+01
   8.339459e+01  -6.898879e+01
   1.195435e+02   1.294636e+01
   8.333645e+01   9.038647e+01
   5.401952e+00   1.126816e+02
  -5.734337e+01   7.410341e+01
  -6.469353e+01   1.086577e+01
  -3.681341e+01  -2.349634e+01
  -1.933507e+01  -1.689744e+01
  -3.221176e+01  -9.570406e-01
  -4.269944e+01  -7.017920e+00
  -2.173803e+01  -3.445246e+01
   2.969651e+01  -5.199720e+01
   6.765576e+01  -2.799916e+01
   5.182328e+01   3.034914e+01
  -1.689545e+01   6.876074e+01
  -9.016774e+01   3.803904e+01
  -1.028326e+02  -4.782066e+01
  -2.935399e+01  -1.158906e+02
   7.704805e+01  -1.042786e+02
   1.407679e+02  -1.635757e+01
   1.166427e+02   6.683543e+01
   3.436302e+01   9.370412e+01
  -3.339076e+01   6.362998e+01
  -5.412314e+01   2.880154e+01
  -4.260530e+01   2.582716e+01
  -3.470068e+01   4.051701e+01
  -4.744895e+01   3.022507e+01
  -6.142830e+01  -1.830472e+01
  -4.621701e+01  -8.161015e+01
   3.213050e+00  -1.113531e+02
   6.166538e+01  -7.511002e+01
   8.484055e+01   6.731411e+00
   5.457579e+01   7.520958e+01
  -6.458046e+00   8.163901e+01
  -4.676316e+01   3.588936e+01
  -3.402030e+01  -1.350927e+01
   6.891038e+00  -3.002987e+01
   1.967082e+01  -1.716429e+01
  -8.557303e+00  -6.951391e+00
  -4.077593e+01  -1.460353e+01
  -2.728068e+01  -2.140461e+01
   3.366128e+01  -1.669379e+01
   8.541978e+01   5.407527e+00
   7.237439e+01   3.417592e+01
  -1.179931e+00   4.857613e+01
  -7.179506e+01   3.387423e+01
  -7.572220e+01  -2.271749e+00
  -2.167631e+01  -2.800956e+01
   2.964290e+01  -2.367702e+01
   3.723509e+01   1.179185e+01
   7.562574e+00   3.792013e+01
  -2.448310e+01   3.009392e+01
  -3.411622e+01  -3.479970e+00
  -2.681762e+01  -3.019952e+01
  -2.149641e+01  -2.245353e+01
  -2.662186e+01  -3.157050e+00
  -3.114204e+01   3.220286e-01
  -2.117599e+01  -3.704390e+01
   1.872660e+01  -7.852655e+01
   6.926123e+01  -6.886036e+01
   9.509654e+01  -8.619296e+00
   6.327922e+01   5.506779e+01
  -2.782051e+00   6.982422e+01
  -4.777818e+01   3.298087e+01
  -3.288930e+01  -8.313513e+00
   2.746448e+01  -7.112639e+00
   6.239476e+01   2.593318e+01
   2.969290e+01   5.574362e+01
  -4.314085e+01   5.249641e+01
  -9.496516e+01   1.288209e+01
  -7.342716e+01  -2.957757e+01
  -8.834628e+00  -4.248546e+01
   3.347398e+01  -2.561478e+01
   2.441007e+01   5.516371e+00
  -2.209504e+01   1.227723e+01
  -4.564264e+01  -1.249508e+01
  -1.571344e+01  -5.670520e+01
   4.419604e+01  -7.430952e+01
   8.041291e+01  -3.202968e+01
   6.105128e+01   4.447791e+01
   4.675177e+00   9.324432e+01
  -4.575600e+01   6.501535e+01
  -5.103585e+01  -1.135813e+01
  -2.056459e+01  -6.186730e+01
   1.450308e+01  -4.770684e+01
   2.739839e+01  -2.501388e+00
   2.155737e+01   1.699929e+01
   8.892988e+00   3.825389e+00
   5.770034e+00  -7.701250e+00
   1.448783e+01   1.504614e+01
   2.103864e+01   4.782384e+01
   5.819232e+00   5.510414e+01
  -3.405306e+01   1.644364e+01
  -6.820055e+01  -2.619401e+01
  -5.672266e+01  -4.169690e+01
  -3.534028e+00  -3.077959e+01
   4.259540e+01  -1.340509e+01
   4.386207e+01  -1.702628e-01
   7.566591e+00   6.872991e+00
  -2.015648e+01   8.988074e+00
  -1.343903e+01   4.431189e+00
   6.045200e+00  -3.046934e+00
  -9.093238e-02  -5.951127e+00
  -2.997855e+01  -3.825433e+00
  -4.178942e+01  -1.554419e+01
  -6.562628e+00  -4.185339e+01
   5.710200e+01  -5.486874e+01
   1.011210e+02  -2.471114e+01
   7.936202e+01   3.748959e+01
   1.179962e+01   8.324108e+01
  -4.772156e+01   7.514417e+01
  -6.343535e+01   3.091986e+01
  -4.044599e+01  -8.926282e+00
  -1.294332e+01  -1.812293e+01
  -1.919241e+00  -7.235561e+00
  -8.695051e+00  -6.785202e+00
  -1.142839e+01  -2.671061e+01
  -5.048897e-01  -4.479443e+01
   2.052354e+01  -3.210546e+01
   3.851425e+01   1.099900e+01
   3.464884e+01   5.405231e+01
   2.692638e+00   5.617229e+01
  -3.813531e+01   1.568762e+01
  -5.002686e+01  -3.391266e+01
  -1.792033e+01  -5.252063e+01
   3.274825e+01  -2.993780e+01
   5.301195e+01   7.933246e+00
   2.076454e+01   3.287732e+01
  -1.956773e+01   3.080599e+01
  -2.170999e+01   9.863165e+00
   1.204165e+01  -3.590348e+00
   3.307501e+01  -1.950431e+00
   8.432404e+00   1.487169e+01
  -3.863226e+01   2.976710e+01
  -5.760240e+01   2.182843e+01
  -3.460308e+01  -1.129570e+01
   9.525187e+00  -4.220428e+01
   3.247157e+01  -3.949485e+01
   2.385196e+01  -5.037851e+00
   2.906235e-01   2.590013e+01
  -1.443960e+01   2.428607e+01
  -1.730507e+01  -5.319381e+00
  -1.199249e+01  -2.760568e+01
   2.100020e-01  -2.218297e+01
   1.631995e+01   2.524320e+00
   2.123760e+01   1.362062e+01
   1.214401e+01   3.592403e+00
   1.383498e+00  -9.637683e+00
  -1.008820e+00  -4.552182e+00
   2.312081e+00   1.568353e+01
  -1.090575e+00   2.659401e+01
  -1.326970e+01   1.079936e+01
  -1.892632e+01  -1.542153e+01
  -3.687626e+00  -2.784852e+01
   2.038637e+01  -1.118015e+01
   3.044158e+01   1.772957e+01
   1.063178e+01   3.073263e+01
  -2.957491e+01   1.614996e+01
  -4.610103e+01  -8.912667e+00
  -2.369621e+01  -2.347557e+01
   1.491051e+01  -2.163256e+01
   3.173705e+01  -1.144240e+01
   1.413656e+01  -2.131393e+00
  -1.204801e+01  -9.007687e-01
  -1.643602e+01  -4.768796e+00
   1.165089e+01  -1.107969e+01
   3.610745e+01  -6.127665e+00
