
 $NMID
 id='ANONYMOUS ', fmtdat='(2E16.6)'
 volume=1.0
 tramp=1.0
 $END
   1.716244e+03   2.118752e+02
   1.246046e+03   7.219159e+02
   3.556743e+02   1.072588e+03
  -5.169658e+02   8.971295e+02
  -6.837115e+02   3.793573e+02
  -3.055519e+02  -5.194202e+01
   6.418946e+01  -1.267281e+02
   1.225509e+02   1.596689e+02
  -1.005570e+02   2.825234e+02
  -3.108875e+02   1.175790e+02
  -2.939345e+02  -2.021982e+02
  -1.103946e+02  -3.391206e+02
   9.649826e+01  -1.666676e+02
   1.394413e+02   1.284053e+02
  -5.726783e+00   2.548675e+02
  -1.958150e+02   9.233625e+01
  -2.297620e+02  -2.347839e+02
  -8.353295e+00  -3.891468e+02
   2.446463e+02  -2.561674e+02
   3.121621e+02   2.649260e+01
   1.192280e+02   1.722169e+02
  -4.490438e+01   1.379072e+02
  -1.534290e+01   8.344207e+01
   1.177169e+02   1.301632e+02
   1.262760e+02   2.092717e+02
  -5.981370e+01   1.762564e+02
  -2.657548e+02   2.593022e+01
  -3.110208e+02  -1.256583e+02
  -1.028381e+02  -1.603029e+02
   1.661773e+02  -5.234799e+01
   2.438807e+02   8.576750e+01
   8.084583e+01   1.735918e+02
  -1.304939e+02   1.793583e+02
  -2.226603e+02   9.629444e+01
  -1.771139e+02  -5.871688e+01
  -8.916817e+01  -1.547318e+02
  -7.601831e+01  -9.637278e+01
  -1.087607e+02   1.164374e+01
  -1.019987e+02   2.449069e+01
  -4.242891e+01  -1.166028e+02
   5.320825e+01  -2.495498e+02
   9.889378e+01  -2.338644e+02
   1.011926e+02  -2.733070e+01
   4.238788e+01   1.211697e+02
  -3.122981e+01   4.375868e+01
  -4.933457e+01  -1.404092e+02
   5.477962e+01  -1.761913e+02
   2.110451e+02  -1.343665e+01
   2.506967e+02   1.961569e+02
   9.988122e+01   2.646340e+02
  -1.472285e+02   1.522006e+02
  -2.838574e+02  -1.501913e+01
  -2.058354e+02  -8.461208e+01
  -1.165649e+01  -8.707110e+01
   1.317982e+02  -5.720245e+01
   1.265763e+02  -2.448099e+01
   3.814788e+01  -1.520749e+00
  -8.013132e+00   1.416730e+01
   4.844447e+01   1.039953e+01
   1.139150e+02   2.992587e+01
   6.913310e+01   9.402794e+01
  -7.573731e+01   1.550935e+02
  -2.084107e+02   1.151042e+02
  -1.867684e+02  -4.686281e+01
  -1.290531e+01  -2.071973e+02
   1.721106e+02  -2.347607e+02
   2.192658e+02  -8.704675e+01
   1.369371e+02   9.368893e+01
   3.851856e+01   1.740028e+02
   2.124356e+01   1.506396e+02
   2.272971e+01   1.227325e+02
  -2.883719e+01   1.169919e+02
  -1.237318e+02   9.819008e+01
  -1.709370e+02   2.205884e+01
  -1.386288e+02  -8.761386e+01
  -4.405095e+01  -1.519662e+02
   5.816062e+01  -9.452686e+01
   1.075457e+02   4.593199e+01
   6.953570e+01   1.556901e+02
  -3.653875e+01   1.447624e+02
  -1.479023e+02   2.894524e+01
  -1.841861e+02  -9.224089e+01
  -1.123768e+02  -1.500197e+02
   8.056809e+00  -1.409244e+02
   8.099762e+01  -1.089699e+02
   9.285452e+01  -8.167985e+01
   1.106966e+02  -6.244627e+01
   1.853181e+02  -1.853414e+01
   2.604229e+02   5.984270e+01
   2.072332e+02   1.777657e+02
  -4.293305e+00   2.775704e+02
  -2.264345e+02   2.598069e+02
  -2.825179e+02   1.170955e+02
  -1.679439e+02  -5.565129e+01
  -5.442993e+00  -1.454177e+02
   4.124556e+01  -1.108397e+02
  -1.338508e+01  -2.826719e+01
  -7.811396e+01   1.155985e+01
  -6.141171e+01  -2.893917e+01
   6.497257e+00  -7.195324e+01
   6.191972e+01  -4.865762e+01
   4.988059e+01   3.199136e+01
  -2.231591e+01   6.488076e+01
  -9.819207e+01  -8.106416e+00
  -9.851427e+01  -1.424904e+02
   2.283919e+00  -2.173875e+02
   1.527312e+02  -1.476720e+02
   2.376998e+02   2.968975e+01
   1.814386e+02   1.734305e+02
   3.154467e+01   1.784580e+02
  -8.402559e+01   7.878505e+01
  -8.337645e+01  -4.066886e+00
  -1.231689e+01  -1.761161e+00
   2.766860e+01   4.384671e+01
  -8.867046e+00   6.724176e+01
  -7.021284e+01   3.168442e+01
  -7.055978e+01  -1.855611e+01
  -8.515206e+00  -3.019418e+01
   5.397389e+01   1.351447e+01
   2.113824e+01   6.040479e+01
  -9.799051e+01   5.542642e+01
  -1.941796e+02  -1.516573e+01
  -1.664110e+02  -1.115204e+02
  -1.330870e+01  -1.669395e+02
   1.356601e+02  -1.462583e+02
   1.668695e+02  -6.732058e+01
   8.140812e+01   2.009649e+01
  -1.528609e+01   3.580486e+01
  -3.309778e+01  -4.362591e+00
   3.475198e+01  -4.260472e+01
   1.103144e+02  -1.452922e+01
   1.148266e+02   6.050612e+01
   4.014855e+01   1.083510e+02
  -4.801525e+01   7.832802e+01
  -7.581621e+01   8.635534e+00
  -2.714452e+01  -2.185106e+01
   3.126861e+01   1.745338e+01
   1.970201e+01   7.621411e+01
  -6.346155e+01   7.827829e+01
  -1.352237e+02   8.295636e+00
  -1.137961e+02  -8.262909e+01
  -9.008737e+00  -1.266895e+02
   8.890900e+01  -9.313417e+01
   1.012399e+02  -1.520192e+01
   3.268712e+01   4.703482e+01
  -3.717637e+01   5.168073e+01
  -4.239009e+01   1.196569e+01
   3.367835e+00  -1.607859e+01
   2.796073e+01  -3.841185e+00
  -7.200474e+00   2.099587e+01
  -6.522454e+01   3.638971e+00
  -7.729698e+01  -6.335216e+01
  -1.268582e+01  -1.207649e+02
   9.120485e+01  -1.033755e+02
   1.545595e+02  -1.082248e+01
   1.277749e+02   9.580928e+01
   2.907009e+01   1.419178e+02
  -6.102853e+01   1.002877e+02
  -8.177772e+01   2.382740e+01
  -5.021365e+01  -2.408459e+01
  -2.071178e+01  -1.584090e+01
  -3.269292e+01   1.166021e+01
  -5.747602e+01   8.231466e+00
  -4.271168e+01  -3.621959e+01
   2.151389e+01  -7.601546e+01
   8.163537e+01  -5.418810e+01
   7.717220e+01   2.613788e+01
  -7.594866e+00   9.035583e+01
  -1.097924e+02   6.758927e+01
  -1.369378e+02  -3.757324e+01
  -5.357067e+01  -1.370842e+02
   7.539638e+01  -1.458562e+02
   1.600607e+02  -5.888041e+01
   1.496501e+02   5.107990e+01
   6.335059e+01   1.009717e+02
  -1.559954e+01   8.809699e+01
  -4.683879e+01   5.120626e+01
  -3.626078e+01   4.518256e+01
  -3.134247e+01   6.077199e+01
  -5.533415e+01   5.600826e+01
  -8.735293e+01  -3.236449e+00
  -7.987628e+01  -9.025794e+01
  -2.184250e+01  -1.417255e+02
   6.026191e+01  -1.038834e+02
   1.038117e+02  -8.649810e+00
   7.929879e+01   7.622918e+01
   6.127600e+00   9.481123e+01
  -4.847062e+01   4.913547e+01
  -4.246438e+01  -1.039123e+01
   2.442287e+00  -3.501054e+01
   2.145247e+01  -2.468002e+01
  -1.306467e+01  -5.316983e+00
  -5.581789e+01  -1.191697e+01
  -3.606718e+01  -2.956288e+01
   4.678843e+01  -3.089611e+01
   1.186666e+02  -5.250178e+00
   9.984166e+01   4.093815e+01
  -1.757530e+00   6.941257e+01
  -9.261335e+01   5.411831e+01
  -9.527411e+01   5.032649e+00
  -2.930541e+01  -3.479125e+01
   3.568916e+01  -3.501946e+01
   5.255741e+01   7.576979e+00
   1.976795e+01   4.863262e+01
  -2.282702e+01   4.856151e+01
  -4.618842e+01   7.407994e+00
  -4.462102e+01  -3.080142e+01
  -3.248207e+01  -2.874137e+01
  -3.396396e+01  -3.100211e+00
  -4.179110e+01  -2.255434e+00
  -3.462303e+01  -4.750041e+01
   9.753297e+00  -9.802772e+01
   7.767300e+01  -9.715485e+01
   1.224034e+02  -2.732470e+01
   9.284497e+01   5.799709e+01
   6.848754e+00   8.622731e+01
  -6.006580e+01   5.069901e+01
  -4.553166e+01  -1.463468e+00
   3.076907e+01  -1.474769e+01
   8.275273e+01   1.927531e+01
   5.120880e+01   6.146297e+01
  -4.904720e+01   6.735149e+01
  -1.242583e+02   2.858069e+01
  -1.055075e+02  -3.000166e+01
  -1.896305e+01  -5.786726e+01
   4.733856e+01  -4.083263e+01
   3.448670e+01   2.091099e+00
  -2.581643e+01   2.246892e+01
  -6.427321e+01  -8.597265e+00
  -3.298624e+01  -7.284101e+01
   4.151016e+01  -1.038182e+02
   9.734437e+01  -5.553299e+01
   8.620355e+01   4.778080e+01
   1.930614e+01   1.201641e+02
  -4.945413e+01   9.272921e+01
  -6.851746e+01  -4.164823e+00
  -3.799707e+01  -7.677073e+01
   6.789900e+00  -6.535731e+01
   3.130608e+01  -1.089719e+01
   2.625387e+01   1.853831e+01
   9.829453e+00   3.720857e+00
   5.035399e+00  -1.129780e+01
   2.254243e+01   1.325763e+01
   3.863145e+01   5.299997e+01
   2.017633e+01   6.323797e+01
  -3.435860e+01   2.798389e+01
  -8.496399e+01  -1.822449e+01
  -7.844111e+01  -3.730428e+01
  -1.520711e+01  -3.185540e+01
   4.811620e+01  -1.893645e+01
   5.377948e+01  -6.775189e+00
   1.172271e+01   5.639413e+00
  -1.969819e+01   1.304503e+01
  -1.073872e+01   8.814160e+00
   9.899307e+00  -1.612559e+00
  -1.483407e+00  -1.510348e+00
  -4.191632e+01   7.871228e+00
  -6.417756e+01  -4.496059e+00
  -2.342307e+01  -4.709799e+01
   6.063069e+01  -8.321543e+01
   1.189278e+02  -5.767156e+01
   1.056780e+02   2.670605e+01
   3.057896e+01   1.024055e+02
  -4.535066e+01   1.099550e+02
  -7.145519e+01   5.198322e+01
  -5.156505e+01  -8.583510e+00
  -1.992150e+01  -2.391131e+01
  -5.455385e+00  -8.680021e+00
  -1.047478e+01  -5.694560e+00
  -1.847736e+01  -3.029147e+01
  -1.197676e+01  -5.780423e+01
   1.408746e+01  -4.778487e+01
   4.673666e+01   4.513204e+00
   5.333152e+01   5.900823e+01
   1.555832e+01   6.866945e+01
  -4.272120e+01   2.680490e+01
  -6.877903e+01  -3.381624e+01
  -3.157244e+01  -6.578900e+01
   3.536498e+01  -4.702232e+01
   6.718391e+01  -1.167760e+00
   3.133511e+01   3.762606e+01
  -2.050235e+01   4.520719e+01
  -2.753591e+01   2.048123e+01
   1.410916e+01  -7.548894e+00
   4.294485e+01  -1.047518e+01
   1.378006e+01   1.627261e+01
  -4.966896e+01   4.291963e+01
  -7.848784e+01   3.883669e+01
  -4.834229e+01  -8.616783e+00
   5.268950e+00  -5.318418e+01
   3.643576e+01  -5.572128e+01
   3.010947e+01  -1.527548e+01
   7.968931e+00   2.940779e+01
  -1.211436e+01   3.308173e+01
  -2.467442e+01  -1.055944e+00
  -2.296393e+01  -3.311376e+01
  -2.848488e+00  -2.889354e+01
   2.267458e+01  -9.133523e-01
   3.134340e+01   1.575420e+01
   1.471672e+01   5.515415e+00
  -5.886951e+00  -1.335142e+01
  -7.596005e+00  -9.699296e+00
   6.095394e+00   1.809709e+01
   8.969305e+00   3.695719e+01
  -1.302171e+01   2.042488e+01
  -3.241698e+01  -1.604566e+01
  -1.779101e+01  -3.768670e+01
   2.172582e+01  -2.103295e+01
   4.225845e+01   1.514319e+01
   1.835517e+01   3.463472e+01
  -3.345895e+01   2.506290e+01
  -5.987371e+01  -1.303413e+00
  -3.540217e+01  -2.393180e+01
   1.435272e+01  -3.198400e+01
   4.042940e+01  -2.484342e+01
   2.186412e+01  -8.690635e+00
  -1.124417e+01   2.499331e+00
  -1.834898e+01   1.261709e-01
   1.018229e+01  -1.298857e+01
   4.340736e+01  -1.702375e+01
