
 $NMID
 id='ANONYMOUS ', fmtdat='(2E16.6)'
 volume=1.0
 tramp=1.0
 $END
  -1.680476e+03  -1.028529e+02
  -9.048392e+02  -9.388455e+02
   1.602075e+02  -9.253033e+02
   5.087880e+02  -3.429251e+02
   2.347180e+02  -6.893088e+00
  -1.053373e+02  -1.561794e+00
  -1.455054e+02  -1.505466e+02
   9.457566e+01  -3.014149e+02
   2.511562e+02  -2.207365e+02
   2.339662e+02   4.653945e+01
   7.049552e+01   2.502742e+02
  -8.582359e+01   2.314462e+02
  -1.285858e+02  -6.322475e+00
  -5.359962e+01  -2.352196e+02
   7.405396e+01  -2.349192e+02
   1.340168e+02  -2.537180e+00
   7.524686e+01   1.956310e+02
  -6.877957e+01   2.043530e+02
  -1.611367e+02   7.501994e+01
  -1.484609e+02  -6.250075e+01
  -4.337910e+01  -1.146073e+02
   4.213937e+01  -6.630971e+01
   1.609452e+01  -3.718206e+01
  -8.617987e+01  -5.647163e+01
  -1.260191e+02  -1.520441e+02
   1.514942e+01  -1.711590e+02
   2.059616e+02  -3.747274e+01
   2.668291e+02   1.361608e+02
   6.918677e+01   1.814889e+02
  -1.709680e+02   6.187847e+01
  -2.097526e+02  -1.010554e+02
  -5.839143e+01  -1.697938e+02
   1.327837e+02  -1.394673e+02
   1.888503e+02  -2.111277e+01
   1.087012e+02   8.550240e+01
  -1.308604e+00   1.222688e+02
  -3.799285e+01   5.050391e+01
   2.790962e+01  -6.045549e+01
   9.950197e+01  -5.387414e+01
   7.473944e+01   9.820916e+01
  -5.488833e+01   2.312723e+02
  -1.890026e+02   1.556697e+02
  -1.552498e+02  -7.140610e+01
  -5.194925e+00  -1.742431e+02
   9.592241e+01  -2.506401e+01
   7.111345e+01   1.674346e+02
  -8.428392e+01   1.852339e+02
  -2.044778e+02   5.172317e-01
  -1.969018e+02  -1.799828e+02
  -4.302832e+01  -1.935254e+02
   1.265521e+02  -7.127414e+01
   1.883429e+02   6.746651e+01
   9.705349e+01   1.123391e+02
  -6.440103e+01   6.450176e+01
  -1.258724e+02   5.369036e+00
  -6.923759e+01  -2.258349e+01
   1.184983e+01   9.594358e+00
   1.850235e+01   2.802616e+01
  -5.179340e+01   7.159131e+00
  -9.419275e+01  -4.408118e+01
  -3.873664e+01  -7.655596e+01
   6.935728e+01  -6.904386e+01
   1.373422e+02  -3.186563e+01
   9.951318e+01   4.211683e+01
  -1.631755e+01   1.187111e+02
  -1.326288e+02   1.383731e+02
  -1.584004e+02   5.375817e+01
  -8.482513e+01  -9.204409e+01
   1.420329e+01  -1.486331e+02
   3.596452e+01  -1.068824e+02
   2.247916e+00  -5.101641e+01
   3.422006e+00  -4.105613e+01
   6.485050e+01  -4.518123e+01
   1.162541e+02  -7.640561e+00
   9.986145e+01   7.252243e+01
   1.326359e+01   1.162474e+02
  -5.828989e+01   7.871522e+01
  -7.549015e+01  -2.170348e+01
  -3.387491e+01  -1.047565e+02
   3.577975e+01  -1.016152e+02
   1.040835e+02  -7.553699e+00
   1.084324e+02   1.005285e+02
   4.595422e+01   1.407256e+02
  -3.200876e+01   1.016368e+02
  -6.675756e+01   4.342920e+01
  -4.766430e+01   2.226419e+01
  -5.657466e+01   3.163972e+01
  -1.145763e+02   1.110270e+01
  -1.666806e+02  -6.492289e+01
  -1.085412e+02  -1.428528e+02
   4.190363e+01  -1.766658e+02
   1.802715e+02  -1.326680e+02
   2.079944e+02  -3.598426e+01
   1.128836e+02   6.156321e+01
  -8.154012e+00   1.018081e+02
  -4.812201e+01   6.958987e+01
   1.067732e+00   1.294659e+01
   6.250622e+01  -4.765149e+00
   5.083132e+01   3.535826e+01
  -1.860896e+01   6.530429e+01
  -6.703903e+01   2.765625e+01
  -3.710579e+01  -3.841185e+01
   2.752978e+01  -5.143095e+01
   6.367722e+01   1.173962e+01
   4.164775e+01   9.456057e+01
  -2.425911e+01   1.304813e+02
  -9.671284e+01   7.331266e+01
  -1.273745e+02  -3.340595e+01
  -9.863798e+01  -1.118038e+02
  -1.687806e+01  -1.134510e+02
   6.043916e+01  -5.219602e+01
   6.448123e+01   6.090339e+00
   1.595283e+01   1.151059e+01
  -1.874903e+01  -3.084547e+01
   1.209477e+01  -5.203816e+01
   6.055483e+01  -2.300262e+01
   5.962338e+01   1.951999e+01
   6.934885e+00   2.524933e+01
  -3.589424e+01  -9.115164e+00
  -1.094732e+01  -3.918530e+01
   6.374954e+01  -3.138698e+01
   1.180316e+02   1.829951e+01
   9.474927e+01   7.485497e+01
  -6.665186e+00   1.056794e+02
  -1.027167e+02   7.742013e+01
  -1.131867e+02   5.983730e+00
  -4.200953e+01  -3.660322e+01
   2.585047e+01  -3.056502e+01
   2.649050e+01   1.256671e+01
  -2.704155e+01   3.096809e+01
  -7.432673e+01   3.124217e+00
  -6.756513e+01  -5.173100e+01
  -1.210502e+01  -7.872997e+01
   4.411353e+01  -4.870801e+01
   5.467578e+01   1.711125e+00
   1.697809e+01   1.710376e+01
  -1.760929e+01  -1.129147e+01
  -7.341945e+00  -4.858028e+01
   4.580686e+01  -4.420238e+01
   8.694366e+01   3.524813e+00
   6.840284e+01   6.137869e+01
  -8.558299e+00   8.358485e+01
  -7.150541e+01   5.021376e+01
  -6.846132e+01  -8.054479e+00
  -1.334962e+01  -4.339286e+01
   3.125350e+01  -3.670030e+01
   2.777389e+01  -3.750911e+00
  -5.088076e+00   1.201352e+01
  -2.078863e+01   3.550294e+00
  -1.267651e+00  -1.143621e+01
   3.129599e+01  -2.053251e+00
   3.793398e+01   3.512059e+01
  -1.488963e+00   6.724985e+01
  -6.363733e+01   5.348559e+01
  -9.718480e+01  -7.037848e+00
  -6.779753e+01  -7.405959e+01
  -1.336074e-01  -8.945363e+01
   4.822517e+01  -5.306979e+01
   4.841898e+01  -2.320880e+00
   2.237055e+01   1.833387e+01
   9.984525e+00   7.878395e+00
   2.524727e+01  -5.744005e+00
   3.828443e+01  -1.012428e+00
   2.242202e+01   2.304024e+01
  -1.927306e+01   4.070241e+01
  -5.032421e+01   2.631749e+01
  -4.246476e+01  -1.940633e+01
   1.034261e+01  -5.425293e+01
   7.190421e+01  -3.421320e+01
   8.343737e+01   3.577293e+01
   2.042618e+01   9.567958e+01
  -6.716792e+01   8.485818e+01
  -1.111199e+02   1.380654e+01
  -8.518542e+01  -5.281496e+01
  -2.570473e+01  -7.088782e+01
   2.858518e+01  -4.745311e+01
   3.915798e+01  -2.251650e+01
   2.951313e+01  -2.189903e+01
   2.398385e+01  -3.095427e+01
   3.704421e+01  -2.595608e+01
   5.007956e+01   1.580157e+01
   3.950651e+01   6.562504e+01
  -4.053925e+00   8.851672e+01
  -5.146681e+01   5.649779e+01
  -6.882093e+01  -7.435964e+00
  -4.030544e+01  -6.023883e+01
   6.701703e+00  -6.450648e+01
   3.764055e+01  -2.653112e+01
   2.480761e+01   1.110687e+01
  -5.178800e+00   2.345024e+01
  -1.242193e+01   1.441147e+01
   1.055257e+01   8.162296e+00
   3.276584e+01   1.109617e+01
   1.677362e+01   1.718607e+01
  -3.263252e+01   8.100992e+00
  -7.202387e+01  -1.001137e+01
  -5.353332e+01  -3.270547e+01
   6.528319e+00  -3.790981e+01
   5.850896e+01  -2.212042e+01
   5.859927e+01   5.531804e+00
   1.565994e+01   2.006387e+01
  -2.461320e+01   1.093754e+01
  -3.099622e+01  -1.160301e+01
  -6.418115e+00  -2.882360e+01
   2.004980e+01  -2.440272e+01
   2.659742e+01   1.137347e-01
   2.171410e+01   1.669631e+01
   1.802112e+01   1.417894e+01
   2.520653e+01   1.397122e+00
   2.631153e+01   8.601652e-01
   1.704881e+01   2.728606e+01
  -1.447060e+01   5.813899e+01
  -5.196948e+01   5.568283e+01
  -7.382661e+01   6.425381e+00
  -4.738404e+01  -4.390211e+01
   6.046292e+00  -5.523462e+01
   3.762918e+01  -2.426147e+01
   2.201972e+01   7.027744e+00
  -2.457554e+01   4.445380e+00
  -4.820332e+01  -2.451997e+01
  -1.888477e+01  -5.060657e+01
   3.847453e+01  -4.503126e+01
   7.905632e+01  -8.362581e+00
   6.208521e+01   2.621761e+01
   9.773042e+00   3.730105e+01
  -2.884641e+01   2.183703e+01
  -2.318824e+01  -2.067430e+00
   1.393344e+01  -1.226128e+01
   3.346440e+01   1.139465e+01
   9.327727e+00   4.675456e+01
  -4.168162e+01   5.591666e+01
  -6.489119e+01   1.980884e+01
  -4.162374e+01  -3.918345e+01
   3.148725e+00  -7.506208e+01
   3.969202e+01  -5.410472e+01
   3.994708e+01   8.426424e+00
   1.661447e+01   5.115575e+01
  -1.127722e+01   4.313735e+01
  -2.341941e+01   3.650884e+00
  -1.746161e+01  -1.515369e+01
  -6.821679e+00  -4.528649e+00
  -2.565168e+00   7.527432e+00
  -1.449318e+01  -8.113596e+00
  -2.352577e+01  -3.993338e+01
  -1.088375e+01  -4.636677e+01
   2.274258e+01  -1.898613e+01
   5.144984e+01   1.820637e+01
   4.744020e+01   3.378766e+01
   1.105431e+01   2.133863e+01
  -2.787386e+01   4.891865e+00
  -3.097180e+01  -1.489247e+00
  -7.689116e+00  -4.623442e+00
   1.375041e+01  -4.934438e+00
   9.394246e+00  -7.451951e-01
  -6.525468e+00   1.708617e+00
  -8.142722e-01   1.063755e+00
   2.611020e+01   1.524154e+00
   3.804349e+01   1.519408e+01
   7.042067e+00   3.492384e+01
  -5.099663e+01   4.207323e+01
  -8.267889e+01   1.315090e+01
  -6.195943e+01  -2.846919e+01
  -6.280289e+00  -6.085500e+01
   3.962538e+01  -5.485966e+01
   5.039239e+01  -2.398879e+01
   3.110287e+01   5.383762e+00
   8.308142e+00   1.261851e+01
   4.470863e-01   4.935090e+00
   6.761091e+00   4.669031e+00
   1.084033e+01   2.200355e+01
   2.291580e+00   3.832179e+01
  -1.469973e+01   2.561598e+01
  -2.872430e+01  -1.240288e+01
  -2.404620e+01  -4.518694e+01
  -1.489461e+00  -4.310389e+01
   2.846166e+01  -8.615290e+00
   3.719215e+01   3.015654e+01
   1.335991e+01   4.117112e+01
  -2.563462e+01   1.951357e+01
  -3.953981e+01  -7.543736e+00
  -1.440186e+01  -2.411129e+01
   1.813733e+01  -2.129734e+01
   1.589051e+01  -9.077710e+00
  -1.171482e+01   3.576087e-01
  -3.005346e+01  -7.193995e-01
  -7.474018e+00  -1.174918e+01
   3.457743e+01  -1.923592e+01
   5.173708e+01  -1.436985e+01
   2.792087e+01   6.762804e+00
  -9.577964e+00   3.141787e+01
  -2.492814e+01   3.182893e+01
  -1.740583e+01   6.408473e+00
  -4.269065e-02  -1.975771e+01
   1.004442e+01  -2.142098e+01
   1.172625e+01   3.249794e+00
   1.023121e+01   2.264760e+01
   1.335336e+00   1.544443e+01
  -9.712923e+00  -2.344022e+00
  -1.574776e+01  -9.411719e+00
  -9.417475e+00  -1.355386e+00
   4.308884e-01   8.781338e+00
   3.300400e+00   5.726183e+00
   8.844327e-01  -9.734815e+00
  -4.588762e-02  -1.937046e+01
   7.231054e+00  -7.244284e+00
   1.222173e+01   1.239836e+01
   2.574883e+00   1.965578e+01
  -1.526875e+01   7.030853e+00
  -2.045534e+01  -1.448707e+01
  -2.556332e+00  -2.199715e+01
   2.520200e+01  -1.120642e+01
   3.550519e+01   8.129174e+00
   1.669514e+01   1.857033e+01
  -1.405982e+01   1.540832e+01
  -2.485171e+01   7.335174e+00
  -1.126074e+01   2.414894e+00
   1.123971e+01   1.777897e+00
   1.156566e+01   4.109879e+00
  -1.036043e+01   6.034375e+00
  -2.984370e+01   3.144447e+00
