
 $NMID
 id='ANONYMOUS ', fmtdat='(2E16.6)'
 volume=1.0
 tramp=1.0
 $END
  -1.144493e+03   1.164348e+02
  -6.931730e+02  -3.152040e+02
  -3.231110e+01  -5.135674e+02
   3.222323e+02  -2.925142e+02
   1.136113e+02  -1.070050e+01
  -1.455663e+02   4.499754e+01
  -1.714706e+02  -1.370136e+02
   7.869583e+00  -2.523069e+02
   1.398764e+02  -1.623262e+02
   1.972300e+02  -6.072687e+00
   1.671479e+02   1.613034e+02
   3.629471e+01   1.928545e+02
  -9.113015e+01   7.060990e+01
  -9.737163e+01  -1.023190e+02
   2.767970e+01  -1.255247e+02
   1.235233e+02   4.478477e+00
   8.121983e+01   1.427219e+02
  -5.858077e+01   1.759750e+02
  -1.382449e+02   7.436695e+01
  -1.149443e+02  -2.720222e+01
  -6.645200e+00  -9.440784e+01
   4.594536e+01  -5.995835e+01
   3.369274e+01  -6.309830e+00
  -5.935179e+01   8.962382e+00
  -1.006736e+02  -4.422125e+01
  -2.607998e+01  -9.606265e+01
   1.433102e+02  -5.257889e+01
   1.972725e+02   3.483449e+01
   8.176376e+01   1.149218e+02
  -9.406381e+01   9.526760e+01
  -1.530282e+02   3.824327e+00
  -6.470231e+01  -9.033412e+01
   5.411942e+01  -9.321858e+01
   9.540795e+01  -3.565455e+01
   8.253389e+01   3.170072e+01
   3.753009e+01   7.021350e+01
   1.127269e+01   5.436685e+01
   9.660881e+00  -3.258997e+01
   3.479626e+01  -5.469187e+01
   6.606944e+01   2.566905e+01
   4.129708e+01   1.483410e+02
  -4.111306e+01   1.588575e+02
  -8.477039e+01   3.313382e+01
  -3.496660e+01  -8.430610e+01
   4.528498e+01  -4.792247e+01
   7.462021e+01   6.589657e+01
  -1.754313e+01   1.054296e+02
  -1.209576e+02   4.806496e+01
  -1.128057e+02  -6.038336e+01
  -3.137254e+01  -1.152989e+02
   7.049685e+01  -7.299873e+01
   1.330632e+02   5.489459e+00
   9.791138e+01   6.007669e+01
  -1.839467e-01   7.146827e+01
  -7.796762e+01   3.527017e+01
  -6.301939e+01  -1.711448e+01
  -3.053076e+00  -2.607353e+01
   1.912599e+01   1.666588e+01
  -2.406200e+01   3.219968e+01
  -6.320702e+01   5.386263e+00
  -1.957944e+01  -4.348475e+01
   4.297996e+01  -7.630997e+01
   7.384600e+01  -4.508084e+01
   4.367988e+01   2.132778e+01
  -1.702955e+01   7.574755e+01
  -5.856911e+01   9.698080e+01
  -8.052540e+01   6.092675e+01
  -6.416545e+01  -3.513061e+01
  -3.457048e+01  -1.074919e+02
   2.236252e+01  -1.011771e+02
   1.683000e+01  -5.674140e+01
   1.458501e+01  -2.741691e+01
   2.731007e+01  -3.217660e+01
   5.380060e+01  -2.763931e+01
   6.640402e+01   1.873118e+01
   4.012144e+01   6.508605e+01
  -1.133686e+01   5.536084e+01
  -5.254860e+01  -7.722053e+00
  -4.737663e+01  -6.558944e+01
   2.121759e-01  -7.041579e+01
   6.338111e+01  -3.023190e+01
   8.973011e+01   2.596099e+01
   5.695141e+01   6.811504e+01
  -7.765981e+00   6.568183e+01
  -4.384436e+01   4.113698e+01
  -3.462829e+01   1.647041e+01
  -2.166387e+01   1.610197e+01
  -5.635239e+01   1.595543e+01
  -1.110728e+02  -1.245713e+01
  -1.061084e+02  -7.351533e+01
  -1.589695e+01  -1.160176e+02
   8.901326e+01  -1.147143e+02
   1.198687e+02  -5.595022e+01
   7.939596e+01   1.621505e+01
   1.628190e+01   6.235007e+01
  -2.507213e+01   5.006863e+01
  -1.248902e+01   3.520674e+00
   2.175926e+01  -2.848716e+01
   4.581636e+01  -2.769045e-01
   1.793836e+01   4.088374e+01
  -3.305536e+01   3.971121e+01
  -4.068485e+01  -1.054625e+01
  -5.980756e+00  -4.208424e+01
   4.532355e+01  -1.058177e+01
   5.223962e+01   4.972864e+01
   5.241866e+00   8.073263e+01
  -5.758084e+01   5.954422e+01
  -9.665505e+01   3.999174e+00
  -8.536759e+01  -4.807931e+01
  -2.592211e+01  -7.353199e+01
   3.069348e+01  -4.729156e+01
   3.978606e+01  -1.032890e+01
   5.072291e+00   8.162013e+00
  -1.968903e+01  -8.781063e+00
  -6.923038e+00  -3.123457e+01
   2.622073e+01  -2.505941e+01
   2.820587e+01   5.065979e+00
   2.398707e+00   1.690026e+01
  -2.587244e+01  -1.357763e+00
  -1.398390e+01  -2.604627e+01
   3.565117e+01  -2.920079e+01
   7.423558e+01  -8.780816e+00
   7.027724e+01   3.348825e+01
   1.622336e+01   7.315448e+01
  -4.357692e+01   7.519283e+01
  -6.310953e+01   3.571327e+01
  -3.607320e+01  -7.925214e+00
   6.581311e+00  -2.249268e+01
   1.499343e+01   2.274051e+00
  -1.631542e+01   2.810678e+01
  -5.614705e+01   1.844634e+01
  -5.633271e+01  -2.070076e+01
  -2.270018e+01  -4.989401e+01
   1.795368e+01  -3.794290e+01
   3.281699e+01  -1.010767e+01
   1.822209e+01   7.049541e+00
  -7.814033e+00  -1.668208e+00
  -1.205504e+01  -2.401711e+01
   1.745970e+01  -3.173509e+01
   5.478564e+01  -8.224430e+00
   5.354755e+01   3.338035e+01
   8.639309e+00   5.592116e+01
  -3.976638e+01   4.443027e+01
  -4.931770e+01   8.327486e+00
  -1.937025e+01  -2.323507e+01
   1.110943e+01  -2.012012e+01
   1.767997e+01  -5.949743e+00
  -1.757190e-01   5.133436e+00
  -1.126171e+01   2.852097e+00
  -1.725599e+00  -7.856236e+00
   2.137837e+01  -2.298481e+00
   3.195412e+01   1.816792e+01
   1.278579e+01   4.164076e+01
  -2.905281e+01   4.290912e+01
  -6.265993e+01   9.736906e+00
  -5.808623e+01  -3.338401e+01
  -1.912091e+01  -5.821353e+01
   2.019054e+01  -4.685224e+01
   3.340200e+01  -1.383168e+01
   2.357427e+01   7.473097e+00
   1.388415e+01   3.948902e+00
   1.412796e+01  -6.881730e+00
   2.201915e+01  -4.256740e+00
   1.701012e+01   1.440092e+01
  -1.905646e+00   3.192745e+01
  -2.336269e+01   2.358663e+01
  -2.672397e+01  -4.827498e+00
  -3.476657e+00  -2.932339e+01
   3.398069e+01  -2.387105e+01
   4.954495e+01   1.132838e+01
   2.710469e+01   4.769821e+01
  -2.343689e+01   5.980175e+01
  -6.894938e+01   2.777693e+01
  -7.098888e+01  -1.690023e+01
  -3.368858e+01  -4.459522e+01
   8.254446e+00  -3.801463e+01
   2.128387e+01  -2.475457e+01
   1.344896e+01  -2.419968e+01
   1.057956e+01  -3.087016e+01
   2.120479e+01  -2.419551e+01
   3.536068e+01   3.455129e+00
   3.567973e+01   3.670002e+01
   1.616526e+01   5.343620e+01
  -1.662519e+01   4.154994e+01
  -4.217761e+01   8.624117e+00
  -3.782796e+01  -2.643383e+01
  -8.151304e+00  -3.761595e+01
   1.286099e+01  -2.455803e+01
   1.387527e+01  -1.287865e+00
   4.664621e-01   1.140919e+01
  -2.302554e+00   8.011155e+00
   1.162900e+01   4.694303e+00
   2.388168e+01   1.525532e+00
   1.418711e+01   3.311455e+00
  -1.616841e+01   7.365294e+00
  -3.774761e+01   1.019420e+01
  -3.547617e+01  -2.149749e+00
  -6.693953e+00  -1.561411e+01
   2.131975e+01  -2.480911e+01
   3.010811e+01  -1.521337e+01
   1.099608e+01   5.780931e+00
  -1.482830e+01   9.918431e+00
  -2.014476e+01  -2.399165e+00
  -6.765977e+00  -1.959255e+01
   1.018079e+01  -1.862404e+01
   1.666385e+01  -1.050801e+00
   1.464507e+01   1.221767e+01
   1.275179e+01   7.169041e+00
   1.501754e+01  -7.644975e+00
   1.812596e+01  -5.119432e+00
   1.573688e+01   1.769210e+01
   2.292751e+00   4.376183e+01
  -2.669116e+01   4.489643e+01
  -4.658159e+01   1.413857e+01
  -3.760437e+01  -1.916514e+01
  -3.736171e+00  -3.119702e+01
   2.161405e+01  -1.941697e+01
   1.500459e+01   1.882595e+00
  -1.796426e+01   6.616755e+00
  -4.018795e+01  -7.680388e+00
  -2.313977e+01  -2.362144e+01
   1.406146e+01  -2.853309e+01
   4.863221e+01  -2.140206e+01
   4.837412e+01   3.368283e+00
   1.488777e+01   2.303850e+01
  -1.373932e+01   2.060080e+01
  -1.312786e+01   3.403125e+00
   9.309504e+00  -7.604540e+00
   2.270534e+01   1.575444e+00
   1.284157e+01   2.626957e+01
  -1.422715e+01   4.050443e+01
  -3.589474e+01   2.574809e+01
  -3.153884e+01  -1.601640e+01
  -1.013739e+01  -4.740210e+01
   1.777615e+01  -4.065723e+01
   2.657799e+01  -1.812262e+00
   1.813986e+01   2.907542e+01
   4.150241e-01   2.895191e+01
  -1.307093e+01   8.254559e+00
  -1.140419e+01  -4.152451e+00
  -4.671626e+00   9.987613e-01
  -7.083495e-01   5.228130e+00
  -1.081928e+01  -5.533774e+00
  -1.777367e+01  -2.229505e+01
  -1.112722e+01  -2.613259e+01
   1.305099e+01  -1.250765e+01
   3.588851e+01   2.718829e+00
   3.098450e+01   1.253018e+01
   3.820927e+00   1.595333e+01
  -2.144283e+01   1.096600e+01
  -1.980863e+01   1.377487e+00
  -7.049065e-01  -7.723180e+00
   8.068011e+00  -8.600083e+00
   2.243937e+00  -2.867016e+00
  -3.317937e+00   4.045344e-01
   6.492692e+00   6.228842e-01
   2.191195e+01  -2.214969e+00
   2.345344e+01   4.719514e+00
   5.679881e+00   2.268305e+01
  -2.527329e+01   3.560728e+01
  -4.485283e+01   2.609543e+01
  -4.010742e+01  -6.999368e+00
  -1.571703e+01  -3.765726e+01
   1.036122e+01  -4.201878e+01
   2.309951e+01  -2.295816e+01
   1.785719e+01   2.019390e+00
   6.852881e+00   7.947062e+00
   3.866857e-01   2.246997e+00
   4.761104e+00   8.538389e-01
   1.039616e+01   1.125211e+01
   7.354007e+00   2.414912e+01
  -4.905351e+00   2.118916e+01
  -1.970453e+01  -6.697283e-01
  -2.192182e+01  -2.166556e+01
  -5.052978e+00  -2.486726e+01
   1.851792e+01  -7.754270e+00
   2.649516e+01   1.662001e+01
   1.161868e+01   2.535713e+01
  -1.507886e+01   1.708764e+01
  -2.744268e+01   1.860126e+00
  -1.197193e+01  -1.251537e+01
   7.658686e+00  -1.718854e+01
   8.348554e+00  -1.098142e+01
  -7.212527e+00   1.145692e+00
  -1.797545e+01   2.530021e+00
  -5.619070e+00  -8.029054e+00
   1.705006e+01  -2.038811e+01
   2.729691e+01  -1.619094e+01
   1.753811e+01   2.799130e+00
  -3.405796e-01   2.254040e+01
  -1.089371e+01   2.158869e+01
  -1.181352e+01   3.253405e+00
  -2.451077e+00  -1.299504e+01
   4.746110e+00  -1.086760e+01
   8.839817e+00   3.014438e+00
   8.723662e+00   1.313419e+01
   1.295909e+00   7.939378e+00
  -8.244000e+00   3.649713e-01
  -1.270645e+01  -2.329237e+00
  -6.838994e+00   1.319882e+00
   6.117061e-01   5.035350e+00
   1.120918e+00   1.979190e+00
  -2.170755e+00  -9.176918e+00
  -1.913465e+00  -1.389930e+01
   6.675750e+00  -4.430450e+00
   1.156356e+01   8.850390e+00
   2.638837e+00   1.464752e+01
  -1.027293e+01   7.579943e+00
  -1.595925e+01  -6.605540e+00
  -4.956263e+00  -1.366873e+01
   1.309523e+01  -1.166801e+01
   2.370205e+01  -1.370333e+00
   1.496309e+01   8.399488e+00
  -5.041714e+00   1.318819e+01
  -1.410793e+01   9.916317e+00
  -6.933521e+00   2.806968e+00
   8.010866e+00  -1.049849e+00
   8.521013e+00   1.601870e+00
  -5.107264e+00   8.167064e+00
  -1.895849e+01   8.748933e+00
