
 $NMID
 id='ANONYMOUS ', fmtdat='(2E16.6)'
 volume=1.0
 tramp=1.0
 $END
   2.737158e+02  -2.448725e+02
   2.029532e+02  -2.343781e+02
   2.125683e+02   1.117614e+02
   6.645270e+01   3.143423e+02
  -1.297270e+02   2.107705e+02
  -5.920847e+01  -1.482294e+00
   2.316150e+01  -1.212330e+02
   3.876302e+01  -6.064302e+01
   4.567500e+01   3.676092e+01
  -1.509286e+01   1.210308e+02
  -1.166805e+02   8.527120e+01
  -1.491671e+02  -2.912568e+01
  -6.439041e+01  -1.134973e+02
   5.409667e+01  -8.591204e+01
   8.292410e+01   4.938699e+00
   1.697679e+01   7.133183e+01
  -6.699773e+01   5.177778e+01
  -7.280683e+01  -1.269394e+01
  -2.863185e+01  -4.238456e+01
   4.071246e+00  -4.922561e+01
   1.499334e+01  -9.792363e+00
   2.471602e+01   2.683199e+01
   1.101552e+01   5.571966e+01
  -2.395404e+01   2.310511e+01
  -1.926597e+01  -4.736529e+01
   1.910190e+01  -5.715731e+01
   3.219799e+01   5.143725e+00
  -1.168883e+00   1.014568e+02
  -6.279959e+01   7.194601e+01
  -6.682726e+01  -1.517808e+01
  -2.245594e+01  -7.939188e+01
   2.316402e+01  -5.570248e+01
   4.682724e+01  -3.090624e+00
   3.039742e+01   4.326846e+01
  -1.711478e+01   5.588179e+01
  -6.594576e+01   1.920125e+01
  -6.065933e+01  -1.608665e+01
   9.134192e-01  -2.715571e+01
   6.536378e+01   4.119265e+00
   3.057987e+01   5.236118e+01
  -6.808585e+01   2.428110e+01
  -9.270838e+01  -3.802168e+01
  -3.764692e+01  -5.314924e+01
   4.496071e+01  -3.282354e+00
   4.481281e+01   2.922852e+01
  -2.855865e+01   2.039539e+01
  -5.068933e+01  -1.025625e+01
  -3.977114e+01  -5.129801e+01
   9.580321e+00  -5.448213e+01
   6.725512e+01  -2.415764e+01
   6.566608e+01   2.391488e+01
   1.409500e+01   6.231947e+01
  -3.558478e+01   4.897414e+01
  -3.868872e+01   1.560101e+00
  -8.849468e-01  -2.057595e+01
   3.238232e+01  -7.413153e-01
   1.323692e+01   2.871435e+01
  -2.562056e+01   9.007813e+00
  -1.992920e+01  -2.555379e+01
   2.892125e+01  -3.887411e+01
   3.746899e+01  -8.818611e+00
   2.792927e+01   2.000025e+01
   1.176174e+01   3.047668e+01
   2.881095e+00   3.981030e+01
  -4.408085e+00   3.948408e+01
  -3.616742e+01   1.690426e+01
  -3.695682e+01  -2.920037e+01
  -5.542312e+00  -4.352300e+01
   4.249585e+01  -1.340685e+01
   2.509556e+01   1.494746e+01
  -9.982748e-01   2.496682e+01
  -6.621955e+00   1.117322e+01
   1.256415e+01  -3.232575e+00
   2.496739e+01   1.140658e+01
   1.197433e+01   2.262723e+01
  -1.652040e+01   2.682916e+01
  -3.069609e+01   8.086725e+00
  -1.389815e+01  -1.146989e+01
   1.625611e+01  -2.760631e+01
   3.523724e+01  -1.187518e+01
   2.761083e+01   2.637452e+01
  -2.916935e+00   5.102044e+01
  -2.874630e+01   3.857595e+01
  -2.096893e+01  -1.784760e+00
  -5.254844e+00  -2.943595e+01
  -1.794784e+00  -2.147908e+01
  -4.640501e+00  -5.185520e+00
  -7.572473e+00  -1.057247e+01
   2.099008e+01  -3.171043e+01
   3.878231e+01  -3.852512e+01
   4.404719e+01  -1.906277e+01
   4.230513e+01   2.409371e+01
   3.044495e+01   5.903921e+01
  -3.295281e+00   5.288942e+01
  -3.543841e+01   1.776233e+01
  -3.673135e+01  -2.668956e+01
  -7.031555e+00  -2.927799e+01
   2.001251e+01   4.371114e+00
   1.365914e+01   1.662291e+01
  -6.928743e+00   5.677649e+00
  -1.233521e+01  -1.926497e+01
   3.377909e+00  -2.116868e+01
   2.019188e+01   3.424861e-02
   9.215898e+00   1.627115e+01
  -1.775071e+01   1.604774e+01
  -3.178160e+01   1.217191e+00
  -1.907889e+01  -1.303682e+01
   4.317512e+00  -2.752471e+01
   2.163461e+01  -2.102775e+01
   2.585923e+01  -7.839874e+00
   1.839970e+01   9.695832e+00
   3.501669e+00   2.668673e+01
  -8.544824e+00   1.729673e+01
  -4.848730e+00  -6.873606e+00
   8.932974e+00  -1.202395e+01
   1.419580e+01  -1.344061e+00
   3.838363e+00   3.197819e+00
  -8.081011e+00   6.411951e+00
  -8.693270e+00  -6.094732e+00
   2.709443e+00  -1.108462e+01
   9.826762e+00  -2.059403e+00
   7.964058e+00   1.767289e+01
  -7.363640e+00   2.848412e+01
  -2.154875e+01   1.367178e+01
  -3.045561e+01  -9.859086e+00
  -2.026404e+01  -3.089840e+01
   2.751526e+00  -2.786648e+01
   1.565796e+01  -8.530561e+00
   4.742340e+00   1.122534e+01
  -9.384010e+00   6.057935e+00
  -9.895142e+00  -1.177737e+01
   6.676574e+00  -2.188348e+01
   2.150099e+01  -1.132082e+01
   1.732164e+01   4.839856e+00
   3.364106e+00   1.734785e+01
  -8.997023e+00   1.619506e+01
  -6.763569e+00   3.093128e+00
   3.614386e+00  -1.058137e+01
   1.262772e+01  -4.376193e+00
   5.043653e+00   1.070170e+01
  -1.185873e+01   2.110162e+01
  -2.481722e+01   1.095101e+01
  -1.955254e+01  -1.337456e+01
  -4.108540e+00  -2.565499e+01
   1.080207e+01  -1.756232e+01
   1.203299e+01   1.742691e+00
   3.273489e+00   1.423472e+01
  -2.445502e+00   9.024334e+00
  -4.330373e+00   1.906184e+00
  -1.312370e+00  -1.319292e+00
  -1.733641e+00   3.760857e+00
  -9.884222e+00   9.862192e+00
  -1.836121e+01   7.410615e+00
  -2.068488e+01  -9.200590e+00
  -7.776386e+00  -2.722784e+01
   1.349167e+01  -2.923641e+01
   2.726093e+01  -8.984192e+00
   2.169290e+01   1.463526e+01
   5.631894e+00   2.034920e+01
  -7.802910e+00   1.128430e+01
  -1.070016e+01   3.821239e+00
  -3.740839e+00   2.784436e+00
  -6.856665e-01   6.290451e+00
  -3.205333e+00   3.909722e+00
  -7.439700e+00  -4.332605e+00
  -5.443841e+00  -1.055478e+01
  -1.161121e-01  -1.027086e+01
   1.033090e+01  -2.620165e+00
   1.205256e+01   1.239679e+01
  -9.679356e-01   2.344216e+01
  -2.010245e+01   2.418916e+01
  -2.725522e+01  -1.058255e+00
  -1.865436e+01  -2.792292e+01
   8.648771e-01  -3.369513e+01
   1.582696e+01  -1.971797e+01
   1.711397e+01  -1.311885e+00
   1.132663e+01   9.352744e+00
   5.701866e+00   9.161261e+00
   8.481488e+00   4.927277e+00
   1.187970e+01   8.039537e+00
   5.469667e+00   1.404799e+01
  -9.342876e+00   1.805717e+01
  -2.051311e+01   8.265075e+00
  -2.093446e+01  -6.296948e+00
  -8.996313e+00  -1.721045e+01
   9.423476e+00  -1.474331e+01
   1.688938e+01  -2.940107e+00
   1.140399e+01   5.470883e+00
   3.700568e+00   6.301867e+00
  -1.681032e-01   3.896284e+00
  -3.120072e+00   1.476113e+00
  -2.938710e+00   2.695829e+00
  -5.787468e+00   4.274524e+00
  -8.347551e+00   1.964918e+00
  -3.121225e+00  -3.272935e+00
   9.415333e-01  -1.411789e+01
   6.584391e+00  -1.560402e+01
   1.395205e+01  -8.708810e+00
   1.144597e+01   7.969223e+00
   3.318881e+00   2.042108e+01
  -6.611665e+00   1.391742e+01
  -6.326047e+00  -1.274416e-01
   4.698285e-02  -1.202579e+01
   6.641687e+00  -4.976635e+00
   6.556403e+00   2.419941e+00
   7.006453e-01   5.109506e+00
  -3.976488e+00   2.686544e+00
  -2.572481e+00  -4.423473e-01
  -1.669119e-03   2.949919e+00
   2.435812e+00   5.090619e+00
  -2.042246e+00   1.834379e+00
  -8.338750e+00  -3.030086e+00
  -1.168016e+01  -7.404126e+00
  -6.687741e+00  -9.930533e+00
   7.249233e+00  -1.363502e+01
   1.128354e+01  -6.444085e+00
   6.854205e+00   5.962315e+00
  -2.925636e+00   1.070199e+01
  -6.853223e+00   2.481973e+00
  -6.099652e-01  -1.342606e+01
   9.032414e+00  -1.461383e+01
   7.429285e+00  -2.532156e+00
   3.676267e+00   1.157310e+01
  -4.186493e+00   1.415936e+01
  -6.563288e+00   4.911102e+00
  -5.447730e+00  -4.679058e+00
   6.215861e-01  -4.626578e+00
   2.829860e+00   2.813275e+00
  -7.625522e-01   1.090033e+01
  -1.323849e+01   5.334127e+00
  -1.771640e+01  -9.233721e+00
  -1.034002e+01  -2.043814e+01
   6.451114e+00  -1.955110e+01
   1.554858e+01  -5.759919e+00
   1.471122e+01   8.295082e+00
   5.399740e+00   1.464120e+01
  -6.573387e+00   1.276312e+01
  -1.506457e+01   2.439422e+00
  -6.539726e+00  -6.363878e+00
   7.572302e-01  -8.167715e+00
   1.173768e+00  -2.598543e+00
  -3.101777e+00   1.864251e+00
  -1.031266e+00   2.600181e-01
   7.723533e+00  -7.664296e+00
   1.407074e+01  -6.813141e+00
   8.898488e+00   2.745249e-01
  -5.291794e-01   1.422769e+01
  -6.576238e+00   1.451950e+01
  -3.867191e+00   3.318228e+00
  -6.434486e-01  -7.061265e+00
  -1.963173e+00  -8.019479e+00
  -3.560831e+00  -2.097374e+00
   1.429290e+00   4.418922e+00
   4.231196e+00   1.738122e+00
   1.549731e+00  -3.781219e+00
  -1.455993e+00  -2.630663e+00
  -1.129087e+00   5.120943e+00
  -5.193698e-01   9.482879e+00
  -3.700921e+00   2.350831e+00
  -5.603080e+00  -8.796492e+00
  -2.270344e+00  -1.601620e+01
   6.659948e+00  -1.089751e+01
   1.345782e+01  -1.085852e+00
   1.295740e+01   5.690891e+00
   4.624159e+00   7.774829e+00
  -3.320943e+00   4.445675e+00
  -3.110039e+00   2.796911e+00
   1.722349e-02   3.220456e-01
   1.592550e+00  -9.186110e-01
  -1.068032e+00   1.454931e+00
  -6.043241e+00   3.956549e+00
  -8.767879e+00  -1.244489e+00
  -5.669415e-01  -7.185386e+00
   1.048774e+01  -9.399824e+00
   1.223131e+01   2.561469e-01
   1.786526e+00   9.302723e+00
  -6.198050e+00   9.684338e+00
  -1.063250e+01   3.228558e+00
  -5.921596e+00  -4.425277e+00
   4.512125e-01  -9.290231e+00
   2.549640e+00  -5.075586e+00
   4.035972e+00   3.810108e+00
   3.393492e+00   4.952663e+00
   2.554123e-01  -2.189343e+00
  -9.006824e-01  -8.321201e+00
   2.805499e+00  -2.495611e+00
   8.142135e+00   9.103652e+00
   9.574997e+00   1.781446e+01
  -1.585156e+00   9.802199e+00
  -1.164364e+01  -2.867103e-02
  -1.298102e+01  -7.311158e+00
  -2.162600e+00  -5.393776e+00
   5.374275e+00  -2.420402e+00
   6.953472e+00   1.899552e+00
  -5.733602e-01   4.634468e+00
  -7.040041e+00   5.420906e+00
  -6.700468e+00   1.038013e-01
   3.830892e-01  -5.506386e+00
   4.302402e+00  -6.875641e+00
   1.682716e+00  -3.719512e+00
  -9.920160e-01   6.819927e-01
   1.338514e-01   1.741672e+00
   2.591969e+00   5.945161e-01
   3.802741e+00   4.396216e-01
   5.292078e-01   3.676035e-01
  -3.255253e+00   8.746318e-01
  -3.767032e+00   1.105169e+00
  -2.674689e+00  -3.251676e+00
   5.869513e-01  -5.666898e+00
   4.903969e+00  -2.835879e+00
   4.821071e+00   3.021859e+00
   2.184492e+00   9.398551e+00
  -3.470465e+00   7.654822e+00
  -4.623200e+00  -8.563693e-01
  -2.604814e+00  -6.151747e+00
  -8.881468e-01  -3.031697e+00
  -1.787550e+00   4.170219e+00
  -3.064887e+00   5.500421e+00
  -1.335705e+00  -2.074618e+00
   2.976741e-01  -8.634970e+00
