
 $NMID
 id='ANONYMOUS ', fmtdat='(2E16.6)'
 volume=1.0
 tramp=1.0
 $END
   2.817182e+03  -1.238252e+02
   1.770193e+03   1.435361e+03
  -3.861261e+01   1.803911e+03
  -1.102206e+03   1.000489e+03
  -8.077857e+02   1.232889e+02
   3.620139e+01  -2.255768e+02
   3.731548e+02   1.137328e+02
   4.860725e+01   5.596448e+02
  -4.302574e+02   5.476695e+02
  -6.259868e+02   3.712457e+01
  -3.744932e+02  -5.315976e+02
   2.435159e+01  -6.147267e+02
   3.077464e+02  -1.264216e+02
   2.254687e+02   4.151096e+02
  -1.111494e+02   4.881083e+02
  -3.537304e+02   3.750089e+01
  -2.334811e+02  -4.627304e+02
   1.335723e+02  -5.638197e+02
   4.277073e+02  -2.337591e+02
   3.926189e+02   1.780269e+02
   1.175375e+02   3.114529e+02
  -1.243593e+02   1.919881e+02
  -6.188942e+01   4.998682e+01
   1.664332e+02   7.105572e+01
   2.668891e+02   2.440978e+02
   2.272530e+00   3.252979e+02
  -4.285117e+02   1.519198e+02
  -5.681625e+02  -1.881445e+02
  -1.862019e+02  -3.468484e+02
   3.276547e+02  -1.743677e+02
   4.957650e+02   1.463439e+02
   1.784310e+02   3.500348e+02
  -2.630530e+02   3.172572e+02
  -4.560712e+02   1.147836e+02
  -2.902254e+02  -1.585297e+02
  -4.992180e+01  -2.969337e+02
   7.489699e+01  -1.701306e+02
  -2.200514e+01   1.054778e+02
  -1.867603e+02   1.719216e+02
  -2.100727e+02  -1.251808e+02
  -2.028193e+01  -4.652635e+02
   2.525305e+02  -4.422790e+02
   3.161703e+02  -5.039505e+00
   1.081543e+02   2.905788e+02
  -1.536685e+02   1.259855e+02
  -1.576585e+02  -2.546489e+02
   1.154649e+02  -3.510777e+02
   4.287678e+02  -5.919723e+01
   4.469475e+02   3.200775e+02
   1.295463e+02   4.466520e+02
  -2.953778e+02   2.416288e+02
  -4.932611e+02  -7.672716e+01
  -3.139801e+02  -2.613889e+02
   5.934493e+01  -2.360029e+02
   2.791854e+02  -7.270707e+01
   2.002228e+02   4.373333e+01
  -1.195111e+01   1.301854e+01
  -5.261037e+01  -5.875646e+01
   1.041795e+02  -5.625236e+01
   2.088470e+02   5.747752e+01
   1.006905e+02   1.770683e+02
  -1.495351e+02   2.103085e+02
  -3.024555e+02   1.101180e+02
  -2.336631e+02  -9.385473e+01
   2.158671e+01  -2.997535e+02
   2.806552e+02  -3.481192e+02
   3.445841e+02  -1.282667e+02
   2.087507e+02   1.785347e+02
   3.086280e+01   3.335802e+02
  -4.180395e+01   2.735683e+02
  -2.088020e+01   1.238341e+02
  -2.584557e+01   7.843939e+01
  -1.296547e+02   1.078043e+02
  -2.392298e+02   5.827356e+01
  -2.242729e+02  -1.183711e+02
  -7.764786e+01  -2.498575e+02
   9.550664e+01  -1.803652e+02
   1.808648e+02   4.623450e+01
   1.178819e+02   2.425364e+02
  -6.298695e+01   2.389794e+02
  -2.411369e+02   4.404513e+01
  -2.795068e+02  -1.838492e+02
  -1.363248e+02  -2.850962e+02
   5.796062e+01  -2.288812e+02
   1.561092e+02  -1.168462e+02
   1.305177e+02  -5.580645e+01
   1.296839e+02  -5.522714e+01
   2.502800e+02  -3.197145e+01
   3.657579e+02   8.861424e+01
   2.810919e+02   2.807537e+02
  -3.711209e+01   4.043748e+02
  -3.663207e+02   3.516125e+02
  -4.600290e+02   1.417067e+02
  -2.642986e+02  -1.117799e+02
  -1.360160e+00  -2.388840e+02
   1.034237e+02  -1.768798e+02
   1.221190e+01  -2.444017e+01
  -1.226826e+02   3.902792e+01
  -1.243553e+02  -4.200785e+01
   4.994815e+00  -1.385370e+02
   1.227398e+02  -9.395235e+01
   1.032554e+02   5.411811e+01
  -3.542890e+01   1.271170e+02
  -1.598146e+02  -2.692583e+00
  -1.378918e+02  -2.219343e+02
   3.077401e+01  -3.174631e+02
   2.349052e+02  -1.861532e+02
   3.288038e+02   6.896348e+01
   2.449609e+02   2.501280e+02
   4.253076e+01   2.537641e+02
  -1.235122e+02   1.243363e+02
  -1.367998e+02   1.203335e+00
  -3.282324e+01  -1.102907e+01
   4.590680e+01   6.211971e+01
  -6.948776e+00   1.075154e+02
  -1.173253e+02   5.852314e+01
  -1.346359e+02  -2.481016e+01
  -2.217798e+01  -4.984868e+01
   8.078416e+01   1.606083e+01
   3.423369e+01   9.088651e+01
  -1.440598e+02   7.935540e+01
  -2.803575e+02  -2.804477e+01
  -2.325274e+02  -1.678523e+02
  -1.733635e+01  -2.456068e+02
   2.058755e+02  -2.105948e+02
   2.611450e+02  -8.387801e+01
   1.326990e+02   4.845810e+01
  -2.783739e+01   7.305842e+01
  -5.863235e+01  -6.373183e+00
   5.413563e+01  -7.113411e+01
   1.720017e+02  -2.327438e+01
   1.711406e+02   1.027455e+02
   4.176397e+01   1.753220e+02
  -8.695689e+01   1.193536e+02
  -1.166857e+02   9.205707e+00
  -3.833550e+01  -3.979522e+01
   4.301422e+01   2.019156e+01
   2.265031e+01   1.042322e+02
  -9.382236e+01   1.085811e+02
  -1.899451e+02   5.507415e+00
  -1.591256e+02  -1.308525e+02
  -1.160769e+00  -1.946894e+02
   1.463640e+02  -1.332706e+02
   1.569179e+02  -3.986636e+00
   4.787619e+01   8.921333e+01
  -5.618987e+01   8.264554e+01
  -6.171554e+01   1.490317e+01
   1.557940e+00  -2.696408e+01
   3.688813e+01  -7.461242e+00
  -7.076825e+00   2.475686e+01
  -8.211352e+01  -1.672329e-01
  -9.419466e+01  -9.097366e+01
  -3.086786e+00  -1.680757e+02
   1.398406e+02  -1.392736e+02
   2.214115e+02   1.845910e+00
   1.726845e+02   1.566297e+02
   2.620939e+01   2.104107e+02
  -9.906634e+01   1.370892e+02
  -1.203159e+02   1.873694e+01
  -6.556217e+01  -4.699954e+01
  -2.692138e+01  -3.030329e+01
  -4.202494e+01   1.097223e+01
  -7.311132e+01   4.875051e+00
  -5.106018e+01  -5.178655e+01
   3.740702e+01  -9.731430e+01
   1.162965e+02  -5.988761e+01
   1.011600e+02   4.524257e+01
  -1.670959e+01   1.229194e+02
  -1.543907e+02   8.090810e+01
  -1.896523e+02  -6.597311e+01
  -7.398156e+01  -2.012180e+02
   1.228040e+02  -2.038113e+02
   2.481342e+02  -6.769982e+01
   2.209959e+02   9.092516e+01
   8.489592e+01   1.648263e+02
  -4.721879e+01   1.273229e+02
  -8.771839e+01   6.622654e+01
  -6.863457e+01   5.770129e+01
  -5.552246e+01   8.082418e+01
  -8.366681e+01   6.922294e+01
  -1.192614e+02  -2.125772e+01
  -1.036942e+02  -1.471873e+02
  -1.475369e+01  -2.069816e+02
   9.887402e+01  -1.458910e+02
   1.568722e+02  -1.512876e+00
   1.112461e+02   1.245781e+02
   2.649070e+00   1.443274e+02
  -7.490578e+01   7.150854e+01
  -5.990802e+01  -1.658523e+01
   2.770460e+00  -5.102681e+01
   2.549735e+01  -3.447568e+01
  -2.554001e+01  -1.166458e+01
  -7.617010e+01  -1.940071e+01
  -4.003618e+01  -3.929688e+01
   7.371387e+01  -3.469891e+01
   1.656571e+02   8.253527e+00
   1.301257e+02   6.249900e+01
  -9.669115e+00   9.058261e+01
  -1.316964e+02   6.260145e+01
  -1.335856e+02   4.582443e-02
  -3.735643e+01  -4.881916e+01
   5.804450e+01  -4.031276e+01
   7.022877e+01   1.900012e+01
   1.426834e+01   6.790956e+01
  -4.601171e+01   5.834533e+01
  -6.363951e+01  -2.739837e+00
  -5.019415e+01  -4.981081e+01
  -4.161029e+01  -3.840123e+01
  -4.801443e+01  -4.893113e-01
  -5.967908e+01  -1.356603e+00
  -4.019820e+01  -6.892706e+01
   2.947505e+01  -1.423892e+02
   1.223682e+02  -1.270650e+02
   1.662983e+02  -2.184826e+01
   1.170327e+02   9.320076e+01
  -9.014156e-01   1.274093e+02
  -8.728681e+01   6.242686e+01
  -5.518446e+01  -1.333422e+01
   5.280354e+01  -2.119267e+01
   1.193542e+02   4.312991e+01
   6.195744e+01   1.047143e+02
  -7.584166e+01   1.017505e+02
  -1.744524e+02   3.437583e+01
  -1.410176e+02  -4.375364e+01
  -2.566881e+01  -8.119416e+01
   6.253210e+01  -5.506105e+01
   4.472941e+01   2.293908e+00
  -3.802201e+01   2.666024e+01
  -8.628417e+01  -2.293438e+01
  -3.390469e+01  -1.099442e+02
   7.669174e+01  -1.438206e+02
   1.470000e+02  -5.975582e+01
   1.151847e+02   8.929124e+01
   1.310440e+01   1.750024e+02
  -7.312201e+01   1.236795e+02
  -9.408091e+01  -1.450620e+01
  -4.854573e+01  -1.117243e+02
   1.588341e+01  -9.422459e+01
   5.013231e+01  -1.296798e+01
   4.264211e+01   2.993519e+01
   1.601703e+01   8.016454e+00
   6.317105e+00  -1.615507e+01
   2.797335e+01   1.794977e+01
   5.268249e+01   8.449690e+01
   2.615279e+01   9.705717e+01
  -5.515140e+01   3.716565e+01
  -1.254467e+02  -4.196949e+01
  -1.086070e+02  -6.864161e+01
  -1.200772e+01  -4.830055e+01
   7.687296e+01  -1.882806e+01
   7.733722e+01  -6.338519e-01
   1.393464e+01   9.518128e+00
  -3.231786e+01   1.608576e+01
  -1.747657e+01   1.169053e+01
   1.420022e+01  -2.512499e+00
  -2.375929e+00  -7.135495e+00
  -5.921379e+01  -3.056331e+00
  -8.387479e+01  -2.282538e+01
  -1.729837e+01  -7.353041e+01
   1.011053e+02  -1.025479e+02
   1.722845e+02  -5.600437e+01
   1.344924e+02   5.707162e+01
   2.107647e+01   1.451241e+02
  -7.995035e+01   1.400519e+02
  -1.077030e+02   5.828648e+01
  -7.077512e+01  -1.847544e+01
  -2.081534e+01  -3.695044e+01
  -3.679061e+00  -1.292217e+01
  -1.614403e+01  -5.733861e+00
  -2.873716e+01  -4.406986e+01
  -1.499563e+01  -8.472648e+01
   3.078607e+01  -6.651492e+01
   7.320978e+01   1.445289e+01
   7.189891e+01   9.344903e+01
   9.912547e+00   1.014649e+02
  -6.877266e+01   2.764340e+01
  -9.478098e+01  -6.105219e+01
  -3.309415e+01  -9.302192e+01
   6.291933e+01  -5.629837e+01
   9.681246e+01   7.423249e+00
   4.107769e+01   5.451592e+01
  -3.243824e+01   5.856811e+01
  -3.830727e+01   2.764014e+01
   2.203240e+01  -4.343605e+00
   6.178540e+01  -9.516128e+00
   1.486216e+01   2.443443e+01
  -7.495368e+01   6.029989e+01
  -1.146365e+02   4.812926e+01
  -6.389737e+01  -1.732933e+01
   1.425945e+01  -7.905841e+01
   5.674530e+01  -7.515690e+01
   4.287138e+01  -9.795527e+00
   4.560445e+00   4.832044e+01
  -2.224439e+01   4.347382e+01
  -3.287284e+01  -1.140828e+01
  -2.396607e+01  -5.003490e+01
   3.602476e+00  -3.627586e+01
   3.155695e+01   6.849836e+00
   3.720135e+01   2.481647e+01
   1.805590e+01   5.153350e+00
  -3.643883e+00  -1.838980e+01
  -7.452089e+00  -8.035870e+00
   3.281108e+00   3.066392e+01
  -2.074295e-01   4.932039e+01
  -2.470939e+01   1.996350e+01
  -3.841325e+01  -3.238514e+01
  -1.348559e+01  -5.455686e+01
   3.413235e+01  -2.256893e+01
   5.755958e+01   3.043090e+01
   1.922726e+01   5.495681e+01
  -5.295402e+01   3.166828e+01
  -8.742697e+01  -1.262242e+01
  -4.596539e+01  -4.209115e+01
   2.824577e+01  -4.208378e+01
   6.203215e+01  -2.476817e+01
   2.756745e+01  -5.393529e+00
  -2.465077e+01   3.484337e+00
  -2.864696e+01  -5.345117e+00
   2.236780e+01  -2.346871e+01
   7.054138e+01  -1.829584e+01
