
 $NMID
 id='ANONYMOUS ', fmtdat='(2E16.6)'
 volume=1.0
 tramp=1.0
 $END
   1.215286e+03   3.330582e+02
   7.811035e+02   6.615118e+02
  -5.265947e+01   6.226796e+02
  -4.481154e+02   4.610805e+02
  -2.869152e+02   1.695540e+02
  -1.978058e+01   4.250790e+01
   4.893309e+01   9.588809e+01
  -1.778363e+01   1.894577e+02
  -1.362383e+02   1.614849e+02
  -1.867249e+02   1.548893e+01
  -1.358549e+02  -1.779512e+02
  -1.254878e+01  -2.159822e+02
   6.395028e+01  -6.421989e+01
   6.214442e+01   1.131714e+02
  -1.212531e+01   1.452772e+02
  -1.013137e+02   2.063170e+01
  -8.323180e+01  -1.371647e+02
   5.971851e+00  -1.866939e+02
   1.264234e+02  -1.019342e+02
   1.491808e+02   1.228343e+01
   4.325886e+01   8.536633e+01
  -5.380208e+01   7.729972e+01
  -4.253404e+01   2.377668e+01
   8.126513e+01   2.543109e+01
   1.245704e+02   9.123131e+01
   1.325032e+01   1.256702e+02
  -1.671537e+02   3.849478e+01
  -2.468485e+02  -7.424887e+01
  -7.516961e+01  -1.341351e+02
   1.188956e+02  -6.385980e+01
   1.763656e+02   4.349126e+01
   7.504031e+01   1.024967e+02
  -6.442442e+01   8.709421e+01
  -1.257794e+02   5.229986e+01
  -1.121883e+02  -2.240296e+01
  -5.072411e+01  -9.061814e+01
  -1.049175e+01  -7.272871e+01
  -2.555820e+01   2.608991e+01
  -7.496387e+01   6.219836e+01
  -8.149574e+01  -4.317878e+01
   1.363056e+01  -1.886773e+02
   9.256388e+01  -1.751235e+02
   8.118979e+01  -1.750324e+01
   5.915078e+00   8.912033e+01
  -6.044313e+01   3.320192e+01
  -5.240934e+01  -1.005230e+02
   6.219678e+01  -1.237947e+02
   1.619745e+02  -2.190867e+01
   1.501289e+02   1.134044e+02
   5.219819e+01   1.476320e+02
  -8.375462e+01   7.282864e+01
  -1.589744e+02  -2.818911e+01
  -1.095266e+02  -7.426631e+01
   2.259524e+00  -6.813743e+01
   7.978622e+01  -2.611418e+01
   7.329604e+01   6.609385e+00
   1.775941e+01   1.030990e+00
  -7.177002e-01  -1.166477e+01
   4.206731e+01  -1.868841e+00
   6.058829e+01   1.905116e+01
   2.420860e+01   5.829818e+01
  -5.096635e+01   8.060072e+01
  -9.958165e+01   6.231528e+01
  -1.004795e+02  -3.853628e-01
  -2.131038e+01  -8.737461e+01
   8.341002e+01  -1.451395e+02
   1.386056e+02  -7.670324e+01
   9.532745e+01   4.709217e+01
   2.383889e+01   1.388945e+02
  -2.037520e+01   1.273673e+02
  -2.297206e+01   6.825519e+01
  -1.553189e+01   3.686510e+01
  -4.291265e+01   4.288729e+01
  -9.027807e+01   2.778431e+01
  -8.745799e+01  -3.593129e+01
  -3.766755e+01  -8.592597e+01
   2.831358e+01  -6.135245e+01
   5.671675e+01   2.275416e+01
   4.198102e+01   9.322899e+01
  -1.647799e+01   9.026945e+01
  -8.550596e+01   2.462835e+01
  -1.123917e+02  -5.773145e+01
  -6.707956e+01  -9.950251e+01
   1.032510e+01  -7.976707e+01
   4.781025e+01  -4.007067e+01
   3.770196e+01  -2.564680e+01
   4.060586e+01  -2.920148e+01
   1.009247e+02  -2.199389e+01
   1.477259e+02   2.157918e+01
   1.210271e+02   9.289573e+01
   1.018482e+00   1.499240e+02
  -1.288661e+02   1.430886e+02
  -1.689980e+02   6.869782e+01
  -9.279274e+01  -3.221106e+01
  -2.390028e+00  -8.643232e+01
   3.830869e+01  -6.068363e+01
   4.568018e-01   1.518755e+00
  -5.278476e+01   2.045680e+01
  -5.020842e+01  -1.957260e+01
  -1.696817e+00  -4.972548e+01
   4.344321e+01  -3.032045e+01
   3.685042e+01   2.513449e+01
  -8.240340e+00   4.751371e+01
  -5.584726e+01  -3.232544e+00
  -5.603965e+01  -7.735913e+01
  -2.003492e+00  -1.098846e+02
   7.014709e+01  -7.329466e+01
   1.189124e+02   1.469396e+01
   9.723471e+01   8.476403e+01
   2.414309e+01   9.528847e+01
  -4.511268e+01   5.089666e+01
  -5.559677e+01   2.614994e+00
  -7.378246e+00  -6.945102e+00
   2.141586e+01   1.896867e+01
   9.163336e-01   4.075420e+01
  -4.006956e+01   2.594854e+01
  -3.895306e+01  -5.344787e+00
  -5.964929e+00  -1.744289e+01
   3.138544e+01   5.024247e+00
   1.418449e+01   3.331346e+01
  -5.655836e+01   3.166572e+01
  -1.141975e+02  -5.039626e+00
  -9.133530e+01  -5.603896e+01
  -6.693481e+00  -8.723271e+01
   7.288117e+01  -8.270194e+01
   9.171380e+01  -3.891309e+01
   4.386842e+01   8.533829e+00
  -1.418255e+01   2.008222e+01
  -2.295193e+01  -1.939913e+00
   2.276417e+01  -2.550900e+01
   7.144979e+01  -1.102359e+01
   6.764615e+01   3.405853e+01
   1.986493e+01   6.280061e+01
  -2.743885e+01   4.395702e+01
  -4.079489e+01   4.899929e+00
  -2.005039e+01  -1.528749e+01
   1.359017e+01   4.859869e+00
   1.349589e+01   3.628563e+01
  -2.747921e+01   4.047540e+01
  -6.779526e+01   1.235563e+00
  -6.341366e+01  -4.896188e+01
  -3.726216e+00  -7.207987e+01
   5.560329e+01  -5.195109e+01
   6.179135e+01  -7.682812e+00
   2.007885e+01   2.664513e+01
  -1.817130e+01   2.747200e+01
  -2.316573e+01   8.939423e+00
   1.057819e-02  -7.036402e+00
   1.364829e+01  -5.254633e+00
  -1.394027e+00   5.697759e+00
  -3.004032e+01  -5.586020e-01
  -3.802467e+01  -3.062306e+01
  -8.533086e+00  -5.949619e+01
   4.514276e+01  -5.601848e+01
   8.031733e+01  -7.363163e+00
   7.101044e+01   5.039844e+01
   1.881843e+01   7.535414e+01
  -3.227848e+01   5.335476e+01
  -4.340011e+01   1.263534e+01
  -2.588236e+01  -1.380279e+01
  -1.354264e+01  -1.078821e+01
  -2.138486e+01   3.233410e+00
  -3.204537e+01   2.700713e+00
  -2.157896e+01  -1.884908e+01
   1.048029e+01  -3.601638e+01
   4.253907e+01  -2.696041e+01
   4.111732e+01   7.283924e+00
  -6.824803e-01   4.096508e+01
  -5.151261e+01   3.302417e+01
  -6.773709e+01  -1.650222e+01
  -3.299312e+01  -6.762760e+01
   3.825252e+01  -7.467460e+01
   8.651556e+01  -3.110410e+01
   8.565505e+01   2.875247e+01
   3.444821e+01   5.784130e+01
  -1.069791e+01   4.622100e+01
  -3.012107e+01   2.619479e+01
  -2.592572e+01   2.369992e+01
  -2.195971e+01   3.335691e+01
  -2.857865e+01   2.995450e+01
  -4.110747e+01  -1.895116e+00
  -3.935623e+01  -5.178223e+01
  -1.205725e+01  -7.633766e+01
   2.905009e+01  -5.903632e+01
   5.552969e+01  -9.276463e+00
   4.552747e+01   3.939534e+01
   7.317865e+00   5.492202e+01
  -1.974380e+01   3.161049e+01
  -1.879958e+01   4.225078e-01
   3.630232e-01  -1.519012e+01
   7.253750e+00  -1.300616e+01
  -1.215736e+01  -3.444519e+00
  -3.435950e+01  -3.758178e+00
  -2.415637e+01  -1.181837e+01
   1.962519e+01  -1.786124e+01
   6.280168e+01  -7.811772e+00
   5.765369e+01   1.540528e+01
   5.495867e+00   3.213444e+01
  -4.236899e+01   2.639561e+01
  -5.090422e+01   3.710270e+00
  -1.838519e+01  -1.588532e+01
   1.644874e+01  -1.261843e+01
   2.615949e+01   5.832711e+00
   9.804364e+00   2.271543e+01
  -1.061377e+01   1.913709e+01
  -2.054304e+01   1.140651e+00
  -2.025766e+01  -1.496770e+01
  -1.628248e+01  -1.330720e+01
  -1.720411e+01  -2.139346e+00
  -2.095217e+01  -3.705527e-01
  -1.308267e+01  -2.076019e+01
   8.732094e+00  -4.768209e+01
   4.380051e+01  -4.740345e+01
   6.012712e+01  -1.825673e+01
   4.735912e+01   2.611870e+01
   5.871045e+00   4.485857e+01
  -2.747904e+01   2.757029e+01
  -1.732381e+01   1.027057e+00
   2.238442e+01  -3.661347e+00
   4.834038e+01   1.646243e+01
   2.646321e+01   3.595648e+01
  -2.262433e+01   3.513604e+01
  -6.337369e+01   1.831020e+01
  -5.665391e+01  -1.055613e+01
  -1.567898e+01  -2.803181e+01
   1.997371e+01  -2.519586e+01
   1.973617e+01  -4.933598e+00
  -8.781152e+00   7.553421e+00
  -3.191086e+01  -2.675294e+00
  -1.864343e+01  -3.340061e+01
   1.773432e+01  -5.350923e+01
   5.034130e+01  -3.251061e+01
   4.742804e+01   2.420939e+01
   1.015192e+01   6.387446e+01
  -2.978146e+01   4.878747e+01
  -3.762458e+01  -4.340838e+00
  -2.016148e+01  -4.621065e+01
   6.175790e+00  -3.915110e+01
   1.887876e+01  -7.262178e+00
   1.443642e+01   1.093635e+01
   4.055405e+00   3.561466e+00
   2.055960e+00  -4.580473e+00
   9.685493e+00   6.696304e+00
   1.805374e+01   2.808058e+01
   9.556468e+00   3.204018e+01
  -1.491924e+01   1.172075e+01
  -4.249993e+01  -1.059497e+01
  -4.076276e+01  -1.859383e+01
  -9.519613e+00  -1.469833e+01
   2.520932e+01  -8.871322e+00
   2.977661e+01  -4.261096e+00
   8.225210e+00   2.389638e+00
  -1.005505e+01   5.971826e+00
  -5.131652e+00   4.779653e+00
   5.980842e+00   2.704060e-01
  -1.601285e+00  -1.617213e+00
  -2.360231e+01   3.389055e-01
  -3.092902e+01  -3.805816e+00
  -6.505519e+00  -2.295710e+01
   3.422233e+01  -3.617686e+01
   5.774451e+01  -2.573193e+01
   4.463595e+01   1.228259e+01
   1.055302e+01   4.762993e+01
  -2.144358e+01   5.134558e+01
  -3.335514e+01   2.498926e+01
  -2.105631e+01  -2.021581e+00
  -7.543451e+00  -1.050480e+01
  -2.513024e+00  -4.750948e+00
  -6.483107e+00  -4.402737e+00
  -1.162534e+01  -1.855992e+01
  -6.521559e+00  -3.194372e+01
   9.873817e+00  -2.298203e+01
   2.567247e+01   5.269442e+00
   2.858273e+01   3.257218e+01
   6.256455e+00   3.504994e+01
  -2.235330e+01   9.971303e+00
  -3.586110e+01  -2.114442e+01
  -1.575412e+01  -3.299794e+01
   2.008272e+01  -2.203721e+01
   3.458983e+01   2.494272e-01
   1.417017e+01   1.700214e+01
  -8.979880e+00   2.031292e+01
  -1.107948e+01   1.088445e+01
   1.034047e+01  -1.110873e+00
   2.238826e+01  -3.982416e+00
   7.524603e+00   9.350779e+00
  -2.601488e+01   2.715244e+01
  -4.331380e+01   2.632594e+01
  -2.918248e+01  -2.983991e+00
   3.447244e-01  -3.186087e+01
   1.755001e+01  -3.118393e+01
   1.481153e+01  -1.048960e+01
   4.542002e+00   1.474206e+01
  -3.697963e+00   1.614290e+01
  -9.990484e+00  -2.801674e+00
  -1.249460e+01  -1.653162e+01
  -2.029648e+00  -1.267975e+01
   1.133928e+01   8.576096e-01
   1.793468e+01   6.418981e+00
   1.039881e+01   4.153397e-01
  -1.634454e+00  -5.900916e+00
  -4.159727e+00  -2.241114e+00
   9.753036e-01   8.888347e+00
   1.827511e+00   1.384800e+01
  -6.105279e+00   5.429459e+00
  -9.863075e+00  -8.584587e+00
  -2.000952e+00  -1.474401e+01
   1.276253e+01  -5.232185e+00
   2.001408e+01   1.060467e+01
   5.202020e+00   1.757836e+01
  -2.020263e+01   1.273794e+01
  -3.539841e+01   4.850117e-01
  -2.035795e+01  -1.205757e+01
   7.709824e+00  -1.698778e+01
   2.215238e+01  -1.364357e+01
   1.144816e+01  -5.922948e+00
  -8.721128e+00  -8.473828e-01
  -1.171969e+01  -1.085911e+00
   5.728927e+00  -6.994319e+00
   2.403453e+01  -7.206095e+00
