
 $NMID
 id='ANONYMOUS ', fmtdat='(2E16.6)'
 volume=1.0
 tramp=1.0
 $END
  -1.580348e+03   3.511312e+01
  -9.964714e+02  -6.296954e+02
  -6.811650e+01  -9.936755e+02
   5.259165e+02  -7.935261e+02
   4.852477e+02  -2.745919e+02
   1.611716e+02   9.773928e+01
  -1.366316e+02   4.936764e+01
  -7.627663e+01  -2.538669e+02
   1.873165e+02  -3.434116e+02
   3.158093e+02  -9.283441e+01
   2.344717e+02   2.236735e+02
   3.501987e+01   3.098614e+02
  -1.060441e+02   1.026914e+02
  -9.867067e+01  -1.987854e+02
   4.100012e+01  -2.980711e+02
   1.899903e+02  -9.123686e+01
   1.803710e+02   2.180986e+02
  -2.409561e+01   3.496017e+02
  -2.391158e+02   1.888733e+02
  -2.602872e+02  -7.054330e+01
  -9.567372e+01  -2.052472e+02
   4.172061e+01  -1.306769e+02
   1.274237e+01  -4.108517e+01
  -1.150747e+02  -7.593425e+01
  -1.354436e+02  -1.856721e+02
   2.817208e+01  -2.031163e+02
   2.314987e+02  -5.938256e+01
   2.913240e+02   1.036803e+02
   1.036035e+02   1.582372e+02
  -1.472316e+02   6.910463e+01
  -2.359303e+02  -8.417852e+01
  -9.762183e+01  -1.849888e+02
   1.236302e+02  -1.898079e+02
   2.372977e+02  -6.181801e+01
   1.786015e+02   7.688285e+01
   4.726635e+01   1.511086e+02
   9.239482e+00   7.029595e+01
   5.196079e+01  -4.194405e+01
   1.176014e+02  -5.367120e+01
   9.044503e+01   8.227202e+01
  -5.017745e+00   2.360159e+02
  -1.199098e+02   2.144767e+02
  -1.474382e+02   1.399184e+01
  -7.342578e+01  -1.347138e+02
   5.854173e+01  -4.677980e+01
   7.520715e+01   1.447562e+02
  -6.677005e+01   1.988339e+02
  -2.518385e+02   6.187414e+00
  -2.823232e+02  -2.298863e+02
  -9.823013e+01  -2.786986e+02
   1.636861e+02  -1.385146e+02
   2.761100e+02   4.279236e+01
   1.751745e+02   1.305389e+02
  -2.988985e+01   1.223162e+02
  -1.539404e+02   5.032223e+01
  -1.171301e+02   5.498441e+00
  -2.282196e+01   4.204845e+00
   4.764026e+00   9.815370e+00
  -5.871418e+01   2.423437e+00
  -1.183783e+02  -2.251915e+01
  -7.379004e+01  -8.233949e+01
   7.295879e+01  -1.303604e+02
   1.984015e+02  -9.664663e+01
   1.655108e+02   5.633894e+01
  -2.118260e+01   2.078665e+02
  -2.033653e+02   2.339339e+02
  -2.310393e+02   8.595133e+01
  -1.337170e+02  -1.035466e+02
  -1.244977e+01  -1.973505e+02
   3.432082e-01  -1.661534e+02
  -9.521341e+00  -1.058600e+02
   8.835712e+00  -7.843916e+01
   8.723497e+01  -6.630717e+01
   1.521775e+02  -1.612973e+01
   1.352629e+02   8.081228e+01
   3.923110e+01   1.520762e+02
  -6.445976e+01   1.058811e+02
  -1.080449e+02  -2.749921e+01
  -6.811492e+01  -1.399842e+02
   3.501171e+01  -1.375976e+02
   1.357469e+02  -2.314334e+01
   1.616952e+02   9.974230e+01
   9.012853e+01   1.654843e+02
  -1.351995e+01   1.554511e+02
  -7.378033e+01   9.985096e+01
  -8.158393e+01   6.377412e+01
  -1.034386e+02   4.432730e+01
  -1.715522e+02   1.654972e+01
  -2.327187e+02  -5.276333e+01
  -1.777303e+02  -1.595798e+02
   1.851897e+01  -2.423955e+02
   2.197101e+02  -2.186938e+02
   2.725049e+02  -9.300974e+01
   1.577246e+02   6.251362e+01
   4.600830e+00   1.423154e+02
  -4.979044e+01   9.628030e+01
  -1.753001e+00   1.284641e+01
   6.934158e+01  -1.217468e+01
   6.532238e+01   3.385215e+01
  -2.219353e+00   7.607083e+01
  -5.812041e+01   4.788105e+01
  -4.282732e+01  -3.405403e+01
   2.121137e+01  -6.285685e+01
   8.328482e+01   1.445502e+01
   8.108815e+01   1.338819e+02
  -9.941642e+00   1.887753e+02
  -1.365717e+02   1.241510e+02
  -2.118714e+02  -3.066444e+01
  -1.630862e+02  -1.549728e+02
  -2.640497e+01  -1.539653e+02
   7.957904e+01  -7.474699e+01
   7.804697e+01  -2.822798e-01
   1.291356e+01   1.764646e+00
  -2.496587e+01  -4.101677e+01
   1.106436e+01  -6.568563e+01
   7.264042e+01  -3.362512e+01
   8.281727e+01   1.827374e+01
   1.623648e+01   2.764224e+01
  -5.220264e+01  -1.154807e+01
  -2.463851e+01  -5.943222e+01
   9.056371e+01  -5.949053e+01
   1.845131e+02   7.272777e+00
   1.505721e+02   9.702857e+01
   8.953640e+00   1.514869e+02
  -1.232232e+02   1.259006e+02
  -1.485275e+02   4.263020e+01
  -6.938496e+01  -3.059619e+01
   2.125642e+01  -4.160760e+01
   3.498879e+01   6.567815e+00
  -2.888899e+01   4.304686e+01
  -9.646925e+01   1.740237e+01
  -9.761167e+01  -5.806542e+01
  -2.805611e+01  -1.017988e+02
   4.827952e+01  -7.204756e+01
   6.759218e+01  -3.363386e+00
   1.935787e+01   2.284207e+01
  -2.900316e+01  -1.545518e+01
  -1.630242e+01  -7.087142e+01
   5.994569e+01  -7.344487e+01
   1.207355e+02  -1.220492e+01
   1.011356e+02   7.254996e+01
   4.651237e+00   1.164815e+02
  -8.180037e+01   8.619019e+01
  -9.018499e+01   8.527460e+00
  -2.601559e+01  -5.037810e+01
   3.439637e+01  -5.545632e+01
   3.477777e+01  -1.598521e+01
  -3.773411e+00   1.328516e+01
  -2.339166e+01   6.144863e+00
   5.732848e+00  -1.479120e+01
   5.493600e+01  -3.354273e+00
   6.200333e+01   5.314078e+01
   2.346447e+00   1.032992e+02
  -8.721140e+01   8.847353e+01
  -1.370237e+02   1.364557e+00
  -1.056675e+02  -9.402688e+01
  -1.971863e+01  -1.269490e+02
   5.160826e+01  -8.663435e+01
   6.604034e+01  -1.887912e+01
   3.773509e+01   2.045746e+01
   1.859553e+01   9.728164e+00
   3.324430e+01  -1.410234e+01
   5.460531e+01  -7.359531e+00
   3.609669e+01   3.340073e+01
  -2.145990e+01   6.591315e+01
  -7.568386e+01   4.223168e+01
  -6.686897e+01  -2.929644e+01
   1.167383e+01  -8.082017e+01
   9.921130e+01  -5.387186e+01
   1.201026e+02   4.119162e+01
   4.535353e+01   1.269224e+02
  -7.407792e+01   1.258665e+02
  -1.507216e+02   4.510859e+01
  -1.353118e+02  -5.174059e+01
  -5.055370e+01  -8.963508e+01
   2.122599e+01  -7.496794e+01
   4.408702e+01  -4.408388e+01
   3.343258e+01  -3.886258e+01
   2.878411e+01  -5.501613e+01
   5.047432e+01  -4.663452e+01
   7.723532e+01   6.813730e+00
   7.353042e+01   8.272139e+01
   1.651152e+01   1.267670e+02
  -5.429422e+01   9.482462e+01
  -9.546292e+01   7.426482e+00
  -6.941193e+01  -7.415954e+01
  -2.511260e+00  -8.829391e+01
   4.861639e+01  -4.574295e+01
   3.988078e+01   1.522878e+01
  -2.577769e+00   3.718568e+01
  -2.183613e+01   2.347825e+01
   1.011453e+01   3.281124e+00
   4.698953e+01   4.854620e+00
   2.851297e+01   2.199961e+01
  -4.386017e+01   2.405436e+01
  -1.037747e+02  -4.832316e+00
  -8.343552e+01  -4.301786e+01
   7.130992e+00  -6.110352e+01
   8.192846e+01  -4.361284e+01
   8.563380e+01   1.991756e+00
   2.226895e+01   3.506743e+01
  -3.805220e+01   2.701959e+01
  -4.765375e+01  -1.031437e+01
  -1.429705e+01  -4.238987e+01
   2.513902e+01  -3.908389e+01
   3.948950e+01  -3.737928e+00
   3.381169e+01   2.597282e+01
   2.892862e+01   2.195144e+01
   3.311695e+01   1.881185e+00
   3.638278e+01   3.846582e+00
   2.486772e+01   3.885292e+01
  -1.323028e+01   7.938417e+01
  -6.434664e+01   8.078509e+01
  -1.016836e+02   2.039789e+01
  -7.367095e+01  -5.446039e+01
  -5.533200e-01  -7.877156e+01
   5.459375e+01  -4.218505e+01
   3.792883e+01   5.477770e+00
  -2.923704e+01   1.497044e+01
  -7.393299e+01  -1.995436e+01
  -4.257107e+01  -6.189586e+01
   4.875605e+01  -6.467168e+01
   1.097850e+02  -2.148580e+01
   8.847792e+01   2.620289e+01
   1.396708e+01   4.898366e+01
  -3.691391e+01   3.209777e+01
  -2.525738e+01  -2.625084e+00
   2.210250e+01  -1.962836e+01
   5.256680e+01   8.954703e+00
   2.261812e+01   6.384879e+01
  -4.247825e+01   8.696228e+01
  -8.417271e+01   3.929196e+01
  -6.761463e+01  -5.044520e+01
  -8.375700e+00  -1.100744e+02
   4.681614e+01  -8.023862e+01
   6.043747e+01   7.243401e+00
   3.053060e+01   6.997200e+01
  -1.025487e+01   5.901736e+01
  -3.161794e+01   8.508068e+00
  -2.383855e+01  -1.860796e+01
  -5.539779e+00  -2.676157e+00
  -3.143830e+00   9.394799e+00
  -2.024628e+01  -1.076150e+01
  -3.437848e+01  -4.933687e+01
  -1.704568e+01  -5.962326e+01
   3.297524e+01  -2.610099e+01
   7.604617e+01   1.802670e+01
   6.959010e+01   4.081670e+01
   1.152187e+01   3.186389e+01
  -4.364578e+01   1.623993e+01
  -4.932480e+01   3.942601e+00
  -1.238442e+01  -6.636025e+00
   1.777910e+01  -1.199043e+01
   1.481619e+01  -7.843658e+00
  -4.927821e+00   1.775269e+00
   3.768679e-02   3.353427e+00
   3.188315e+01  -1.225815e+00
   5.294549e+01   9.703349e+00
   2.082054e+01   4.605905e+01
  -5.115221e+01   7.175713e+01
  -1.041082e+02   4.303075e+01
  -9.081899e+01  -2.806660e+01
  -2.244784e+01  -8.699705e+01
   4.543595e+01  -8.888030e+01
   6.895929e+01  -3.823360e+01
   5.148745e+01   7.991949e+00
   1.791078e+01   2.117634e+01
   3.383020e+00   9.597316e+00
   8.856275e+00   5.630201e+00
   1.808271e+01   2.946242e+01
   1.069274e+01   5.364792e+01
  -1.641644e+01   4.190023e+01
  -4.379703e+01  -5.993237e+00
  -4.439194e+01  -5.627614e+01
  -1.026329e+01  -6.168775e+01
   3.954770e+01  -2.211463e+01
   6.193127e+01   3.255288e+01
   2.749852e+01   5.740123e+01
  -3.441976e+01   3.988779e+01
  -6.129897e+01  -1.009070e+00
  -2.939720e+01  -3.386926e+01
   1.891512e+01  -3.721492e+01
   2.646294e+01  -1.760761e+01
  -1.191064e+01   4.101422e+00
  -3.996358e+01   4.659194e+00
  -1.348045e+01  -1.521794e+01
   4.468126e+01  -3.563620e+01
   7.256851e+01  -2.847361e+01
   4.302339e+01   1.032140e+01
  -7.148872e+00   4.763006e+01
  -3.458266e+01   4.855734e+01
  -2.631433e+01   1.110763e+01
  -5.112872e+00  -2.792801e+01
   1.197293e+01  -2.911081e+01
   2.050158e+01   4.082417e+00
   1.644146e+01   3.092180e+01
  -9.914774e-01   2.176276e+01
  -1.958020e+01  -2.209956e+00
  -2.394158e+01  -1.658167e+01
  -1.116594e+01  -4.801909e+00
   2.878249e+00   1.169685e+01
   5.882302e+00   7.315765e+00
  -2.862410e+00  -1.641026e+01
  -3.837757e+00  -3.079008e+01
   1.398478e+01  -1.567263e+01
   2.599203e+01   1.408823e+01
   1.168483e+01   3.288004e+01
  -2.119291e+01   1.703923e+01
  -3.814094e+01  -1.607080e+01
  -1.177109e+01  -3.223199e+01
   3.343051e+01  -2.203494e+01
   5.365826e+01   3.180743e+00
   2.860565e+01   2.343514e+01
  -1.633708e+01   2.792956e+01
  -3.759584e+01   1.815747e+01
  -1.835794e+01   5.861105e+00
   1.354293e+01  -4.522280e+00
   1.797292e+01  -1.269273e+00
  -1.093523e+01   1.203551e+01
  -3.999982e+01   1.434286e+01
