
 $NMID
 id='ANONYMOUS ', fmtdat='(2E16.6)'
 volume=1.0
 tramp=1.0
 $END
   7.459310e+02  -2.013571e+02
   5.913737e+02   1.314812e+02
   1.644921e+02   4.182180e+02
  -1.309336e+02   3.244411e+02
  -1.652802e+02   1.950560e+02
  -8.059928e+01  -5.043885e+00
   2.136387e+00  -8.256345e+00
   7.686810e+01   6.641527e+01
   9.909029e+00   1.091967e+02
  -7.799390e+01   7.439693e+01
  -1.347583e+02  -3.651068e+01
  -9.811821e+01  -1.142835e+02
  -5.971605e-01  -8.739665e+01
   8.477305e+01   5.849082e+00
   5.121749e+01   6.515907e+01
  -4.880159e+01   4.891891e+01
  -8.801648e+01  -4.412504e+01
  -3.385102e+01  -1.155874e+02
   5.633541e+01  -1.046072e+02
   7.922228e+01  -2.775325e+01
   4.381064e+01   4.576669e+01
  -2.051031e+00   5.790183e+01
  -1.204650e+01   4.342615e+01
   1.973238e+01   3.249273e+01
   3.373589e+01   2.122676e+01
  -5.606981e-01   1.221367e+01
  -8.058617e+01   4.119569e+00
  -8.542882e+01   2.109858e+01
  -6.437095e+01  -2.447302e+01
   1.094001e+01  -3.792850e+01
   5.347396e+01  -3.192928e+01
   4.962479e+01   7.893228e+00
   2.708362e+00   4.206096e+01
  -6.067109e+01   5.255521e+01
  -7.342126e+01   9.598827e+00
  -6.550685e+01  -3.508155e+01
  -4.099652e+01  -6.851562e+01
  -4.468966e+00  -2.982261e+01
   1.122054e+01  -1.711886e+00
  -2.689106e+00   4.277531e+00
  -1.895791e+01  -4.298841e+01
  -3.622142e+00  -6.221810e+01
   8.898016e+00  -4.327620e+01
   2.137363e+01   7.687065e+00
   1.096393e+01   1.850787e+01
  -2.615080e+01  -8.890522e+00
  -6.184547e+00  -3.705736e+01
   2.426043e+01  -2.634117e+01
   3.685789e+01   1.686290e+01
   4.479797e+01   5.329397e+01
  -1.100816e+01   5.254616e+01
  -7.231304e+01   3.606140e+01
  -8.976127e+01   7.066105e+00
  -5.243564e+01  -3.444292e+01
   1.756575e+01  -4.844533e+01
   5.605537e+01  -2.405776e+01
   3.264691e+01   7.944504e+00
  -8.048015e+00   1.432468e+01
  -1.923147e+01  -7.870403e+00
   3.713511e+00  -2.029019e+01
   1.417386e+01   4.170895e+00
   1.165676e+00   4.513730e+01
  -3.421921e+01   5.017002e+01
  -3.318860e+01   1.290471e+01
  -1.792595e-01  -3.913302e+01
   2.750020e+01  -6.789714e+01
   4.302163e+01  -5.367923e+01
   3.639858e+01   1.301614e+01
   2.383737e+01   6.092518e+01
   7.329167e+00   7.589574e+01
   7.196490e+00   5.132439e+01
  -1.158727e+01   2.451682e+01
  -2.513435e+01   1.738313e+01
  -3.455622e+01   1.461814e+01
  -3.848221e+01  -3.450513e+00
  -2.247697e+01  -2.404187e+01
  -3.885913e+00  -1.796263e+01
   1.547042e+01   6.998580e+00
   1.904016e+01   2.648196e+01
   8.064491e+00   2.534834e+01
  -2.006846e+01   1.659867e+01
  -4.566777e+01   4.659152e+00
  -3.731144e+01  -1.297505e+01
  -1.341358e+01  -3.339799e+01
   1.235232e+01  -4.695390e+01
   2.260435e+01  -3.525664e+01
   2.369496e+01  -1.360005e+01
   4.164644e+01  -3.784208e-01
   7.090645e+01   7.426814e+00
   6.603131e+01   3.143148e+01
   1.746654e+01   5.453182e+01
  -3.140736e+01   6.356893e+01
  -5.742475e+01   4.766103e+01
  -4.262214e+01   1.378869e+01
  -1.642780e+01  -1.950507e+01
  -1.225433e+00  -2.616898e+01
   1.791924e+00  -1.148123e+01
  -7.819827e+00   1.114704e+01
  -2.221416e+01   8.082160e+00
  -1.536286e+01  -1.006054e+01
  -8.936170e-02  -2.071295e+01
   1.330450e+01  -5.173616e+00
   9.912729e+00   1.123047e+01
  -1.288339e+01   2.399289e+00
  -2.809905e+01  -2.360863e+01
  -1.222111e+01  -4.566818e+01
   3.137591e+01  -4.330694e+01
   6.121194e+01  -1.378208e+01
   6.282084e+01   1.642060e+01
   2.822000e+01   3.913929e+01
  -7.203553e+00   3.597922e+01
  -2.041208e+01   1.850704e+01
  -6.243061e+00   5.192759e+00
   4.507164e+00   5.532442e+00
   3.669834e+00   1.218059e+01
  -9.459130e+00   9.763673e+00
  -1.598157e+01  -3.069614e+00
  -5.631747e+00  -1.861522e+00
   7.982835e+00   3.045760e+00
   6.247236e+00   1.196233e+01
  -1.597195e+01   1.551129e+01
  -4.459520e+01   8.549783e+00
  -4.932788e+01  -1.433853e+01
  -2.272889e+01  -3.974392e+01
   1.541754e+01  -4.669821e+01
   3.296804e+01  -2.759455e+01
   2.014290e+01  -6.327870e+00
   1.636548e-01   5.836089e+00
  -5.465693e+00   2.529285e-01
   7.441308e+00  -1.154315e+01
   2.783701e+01  -1.015805e+01
   3.178886e+01   6.635920e+00
   2.046322e+01   2.167992e+01
  -4.990208e+00   2.209045e+01
  -1.891823e+01   6.564378e+00
  -1.396239e+01  -3.078335e+00
   1.595595e+00   1.980804e+00
   8.530140e+00   1.218808e+01
  -5.395879e+00   1.671742e+01
  -2.734367e+01   6.740326e+00
  -3.420217e+01  -1.226195e+01
  -1.372079e+01  -2.626355e+01
   1.342984e+01  -2.918446e+01
   2.546335e+01  -1.624531e+01
   1.365904e+01   4.397305e+00
  -3.963484e+00   8.936154e+00
  -8.830724e+00   6.197769e+00
  -1.135800e+00  -1.995156e+00
   7.073627e+00  -3.714146e+00
   3.177582e+00   2.775199e+00
  -1.049720e+01   2.351523e+00
  -2.088099e+01  -8.872554e+00
  -1.097328e+01  -2.321149e+01
   1.144196e+01  -2.727993e+01
   3.288080e+01  -1.242993e+01
   3.355089e+01   1.110030e+01
   1.886515e+01   2.649445e+01
  -1.319513e+00   2.775112e+01
  -1.498312e+01   1.524500e+01
  -1.639794e+01   1.456984e+00
  -1.174485e+01   7.573511e-02
  -1.096487e+01   3.633782e+00
  -1.515303e+01   4.369584e+00
  -1.368738e+01  -7.289994e+00
  -1.441005e-02  -2.243112e+01
   1.564795e+01  -2.244244e+01
   2.129717e+01  -1.847305e+00
   4.925545e+00   1.937147e+01
  -1.963906e+01   1.988187e+01
  -3.334389e+01   1.911517e-02
  -2.203270e+01  -2.302498e+01
   4.689596e+00  -3.185886e+01
   3.496755e+01  -2.849177e+01
   4.392811e+01  -3.961514e+00
   3.115377e+01   1.739244e+01
   2.803987e+00   2.373271e+01
  -1.170189e+01   2.294172e+01
  -9.486060e+00   1.860965e+01
  -4.538791e+00   2.004746e+01
  -7.602787e+00   1.680991e+01
  -1.926406e+01   3.548545e+00
  -2.483053e+01  -1.633534e+01
  -1.635076e+01  -2.857332e+01
   3.195477e+00  -2.778018e+01
   2.100200e+01  -1.045599e+01
   2.462681e+01   1.182234e+01
   1.014393e+01   1.943705e+01
  -4.067090e+00   1.443254e+01
  -5.087691e+00   1.355590e+00
   8.862349e-01  -6.495146e+00
   3.272328e+00  -4.609772e+00
  -5.693289e+00  -8.584492e-01
  -1.456289e+01   1.116402e+00
  -1.352735e+01   4.690370e-02
   4.438682e+00  -5.081153e+00
   1.987320e+01  -6.185694e+00
   2.391421e+01  -1.922350e-01
   8.249763e+00   7.603806e+00
  -1.226382e+01   1.439652e+01
  -2.215689e+01   1.101825e+01
  -1.293313e+01  -2.600301e+00
   6.259483e+00  -8.466243e+00
   1.246311e+01  -2.602055e+00
   8.352448e+00   1.020184e+01
  -2.888038e+00   1.271978e+01
  -1.027094e+01   3.170339e+00
  -1.285324e+01  -6.262845e+00
  -1.184187e+01  -7.479284e+00
  -1.026486e+01   1.246514e+00
  -9.772495e+00   1.377125e+00
  -9.525518e+00  -9.797245e+00
  -1.986467e+00  -2.284838e+01
   1.596616e+01  -2.853345e+01
   2.914381e+01  -1.476936e+01
   2.370717e+01   3.474441e+00
   5.460637e+00   1.445975e+01
  -1.221902e+01   1.228462e+01
  -8.935916e+00   3.342621e+00
   1.042332e+01  -2.199722e+00
   2.550888e+01   1.001896e+00
   1.650273e+01   1.044312e+01
  -7.100433e+00   1.632638e+01
  -2.829067e+01   1.960974e+01
  -3.079876e+01   4.576446e+00
  -1.429178e+01  -1.068167e+01
   1.171954e+00  -1.504181e+01
   7.237417e+00  -6.993257e+00
  -4.798485e+00   5.182082e+00
  -1.461741e+01   3.465065e+00
  -1.244179e+01  -1.510770e+01
  -3.003254e-02  -3.009852e+01
   1.782532e+01  -2.496878e+01
   2.380084e+01   1.680857e+00
   1.340282e+01   2.732336e+01
  -4.881565e+00   2.903512e+01
  -1.890015e+01   5.243092e+00
  -1.622899e+01  -1.427298e+01
  -5.433182e+00  -1.439606e+01
   6.585488e+00  -6.685317e+00
   6.513691e+00  -1.165740e+00
   1.393548e+00  -5.303121e+00
  -7.895497e-01  -4.531568e+00
   5.911851e+00   5.131861e+00
   1.256782e+01   1.206642e+01
   1.146932e+01   1.284757e+01
  -4.062528e+00   7.738363e+00
  -2.038618e+01   3.072306e+00
  -2.312639e+01  -3.830184e+00
  -8.606494e+00  -1.029199e+01
   8.379329e+00  -1.220476e+01
   1.314469e+01  -5.690946e+00
   3.454164e+00   4.756161e+00
  -3.115882e+00   8.463607e+00
  -2.577265e+00   4.054956e+00
   6.607004e-01  -1.102580e+00
  -4.879931e+00  -1.271868e+00
  -1.311302e+01   1.836671e+00
  -1.571972e+01   1.519639e+00
  -9.237224e+00  -1.101533e+01
   8.791038e+00  -2.478292e+01
   2.187937e+01  -2.483863e+01
   2.766694e+01  -6.253005e+00
   2.077817e+01   1.710205e+01
   3.389982e+00   2.801537e+01
  -1.198599e+01   2.177229e+01
  -1.353166e+01   5.379548e+00
  -6.410093e+00  -3.766063e+00
  -1.710697e+00  -3.261489e+00
  -2.339702e+00  -1.811129e+00
  -8.087231e+00  -5.964756e+00
  -9.339120e+00  -1.282045e+01
  -1.731789e+00  -1.440262e+01
   1.059719e+01  -5.930079e+00
   1.625567e+01   7.740706e+00
   8.933016e+00   1.671633e+01
  -6.975503e+00   1.036279e+01
  -1.722476e+01  -6.171732e+00
  -1.117823e+01  -1.501936e+01
   5.667431e+00  -1.316689e+01
   1.465879e+01  -4.194472e+00
   8.385566e+00   6.984962e+00
  -2.653640e+00   1.152147e+01
  -5.210729e+00   7.775532e+00
   3.331704e+00  -1.005092e+00
   1.112870e+01  -4.084985e+00
   5.030293e+00   1.669202e+00
  -7.643554e+00   1.235554e+01
  -1.662512e+01   1.419623e+01
  -1.323935e+01   2.352343e+00
  -3.174615e+00  -1.270841e+01
   5.297162e+00  -1.550925e+01
   7.169066e+00  -4.785525e+00
   3.345998e+00   7.943548e+00
  -1.230376e+00   9.512407e+00
  -6.506772e+00   5.340129e-01
  -8.770222e+00  -7.505024e+00
  -3.371392e+00  -6.957772e+00
   5.438427e+00  -4.360535e+00
   9.982875e+00  -8.318753e-01
   5.551608e+00  -2.158525e+00
   4.366477e-01  -4.192644e+00
   1.504464e+00  -1.015225e+00
   5.696944e+00   7.771240e+00
   4.406741e+00   9.817855e+00
  -3.776774e+00   5.838552e+00
  -7.915904e+00  -2.073653e+00
  -4.031913e+00  -7.975703e+00
   4.646371e+00  -4.710358e+00
   1.149260e+01   3.204894e+00
   5.017219e+00   8.334170e+00
  -8.277403e+00   8.432072e+00
  -1.605712e+01   3.300574e+00
  -1.125790e+01  -3.204734e+00
   1.370465e+00  -8.629551e+00
   7.614796e+00  -7.713404e+00
   3.649883e+00  -2.871808e+00
  -5.280475e+00   1.945434e+00
  -5.529288e+00   2.568805e+00
   2.667495e+00  -4.894541e+00
   1.044962e+01  -8.757099e+00
