
 $NMID
 id='ANONYMOUS ', fmtdat='(2E16.6)'
 volume=1.0
 tramp=1.0
 $END
  -8.303695e+02  -7.617982e+00
  -3.900601e+02  -4.018077e+02
   1.443120e+02  -3.404022e+02
   2.786312e+02  -1.575106e+02
   1.523686e+02   1.348016e+01
  -1.006749e+02   4.161369e+01
  -1.232395e+02  -5.192755e+01
   2.378549e+01  -9.238138e+01
   1.507421e+02  -9.463565e+01
   1.451179e+02  -3.430893e+01
   1.019180e+02   8.870895e+01
   1.950554e+01   1.427019e+02
  -5.989710e+01   5.537421e+01
  -6.450449e+01  -8.045415e+01
   1.780088e+01  -1.117240e+02
   8.880406e+01  -3.378445e+01
   7.637449e+01   6.044649e+01
  -2.063284e+00   7.326155e+01
  -5.043485e+01   2.957158e+01
  -3.426214e+01  -2.924851e+01
   1.028860e+01  -5.570802e+01
   4.244880e+01  -4.929008e+01
   5.348560e+01  -2.538895e+01
   2.545616e+00   2.309790e+01
  -6.421582e+01   3.226675e+01
  -6.232731e+01  -3.439598e+01
   6.128682e+01  -9.231540e+01
   1.478690e+02  -6.356949e+01
   1.001477e+02   5.514724e+01
  -3.178109e+01   9.504667e+01
  -9.183665e+01   3.553640e+01
  -5.616081e+01  -5.007887e+01
   2.578165e+01  -7.103334e+01
   7.253567e+01  -5.100416e+01
   5.285224e+01   1.125119e+01
   3.843518e+01   5.671095e+01
  -2.002450e+00   4.150290e+01
  -2.775810e+01  -3.681387e+01
  -4.654155e+00  -7.874438e+01
   6.658754e+01  -1.857202e+01
   8.855817e+01   1.090778e+02
   6.278356e+00   1.279504e+02
  -7.959718e+01   1.179880e+01
  -6.545872e+01  -1.020453e+02
   3.426316e+01  -6.903981e+01
   8.729693e+01   4.031401e+01
   1.548171e+01   9.090079e+01
  -5.674365e+01   3.532245e+01
  -9.060223e+01  -3.399267e+01
  -6.428881e+01  -6.471440e+01
   1.982660e+01  -6.421163e+01
   8.806584e+01  -3.378238e+01
   7.411752e+01   2.572826e+01
  -1.463611e+01   5.148832e+01
  -6.380973e+01   3.273664e+00
  -4.780981e+01  -4.663948e+01
   2.105615e+01  -2.279783e+01
   4.409523e+01   2.619699e+01
  -1.193550e+01   4.680427e+01
  -6.580445e+01   6.324424e+00
  -4.004428e+01  -4.479864e+01
   7.721510e+00  -4.918495e+01
   2.345717e+01  -2.474800e+01
   1.449289e+01  -2.525946e+01
   1.417717e+01  -3.363069e+00
   1.606021e+01   3.525315e+01
  -1.480379e+01   6.192071e+01
  -3.757074e+01   1.272331e+01
  -2.153505e+01  -4.330474e+01
   1.656925e+01  -4.544734e+01
   1.834657e+01  -9.771547e+00
  -5.446415e+00   8.915215e+00
  -2.191963e+01  -1.370252e+01
   3.022909e+00  -3.534210e+01
   3.011711e+01  -2.308808e+01
   3.503220e+01   1.391958e+01
   7.818387e+00   3.222591e+01
  -2.617139e+01   1.208894e+01
  -3.905898e+01  -1.658580e+01
  -2.317332e+01  -3.555631e+01
   1.753009e+01  -3.673405e+01
   5.157181e+01  -9.681183e+00
   3.223384e+01   2.564607e+01
  -1.301900e+01   4.199859e+01
  -2.914527e+01   2.176483e+01
  -1.382656e+01   1.501893e+00
   7.506062e+00   4.091282e+00
  -3.479564e+00   2.410897e+01
  -4.366411e+01   2.316442e+01
  -6.008152e+01   1.154608e+00
  -3.766482e+01  -2.539543e+01
   2.046547e+00  -4.726823e+01
   3.458471e+01  -5.366341e+01
   4.140509e+01  -2.229380e+01
   2.851868e+01   3.029537e+01
  -2.341519e+00   5.146622e+01
  -1.749911e+01   1.827373e+01
   1.347917e+00  -2.183125e+01
   2.881844e+01  -1.139013e+01
   1.340235e+01   2.877488e+01
  -2.066871e+01   3.385936e+01
  -3.153129e+01   1.848410e+00
  -1.509317e+01  -2.892845e+01
   1.633799e+01  -2.108690e+01
   2.941733e+01   1.290601e+01
   1.758707e+01   3.095846e+01
  -2.238614e+00   2.617254e+01
  -2.598869e+01   1.304688e+01
  -4.039415e+01  -1.952776e+00
  -2.657969e+01  -1.760647e+01
   1.901180e+00  -2.435196e+01
   2.114282e+01  -1.718905e+01
   9.229432e+00  -4.122243e+00
  -8.132716e+00   1.190477e+00
  -1.208614e+01  -9.337286e+00
   7.359431e+00  -1.236569e+01
   3.138889e+01   1.251464e-01
   2.140244e+01   6.553257e+00
  -1.180704e-01   1.235868e+01
  -1.094545e+01   5.129809e+00
  -2.610166e+00  -6.346819e+00
   1.747274e+01  -1.753954e+01
   3.703929e+01  -9.446492e+00
   3.480960e+01   1.570786e+01
   5.542659e+00   4.076753e+01
  -1.458210e+01   4.450768e+01
  -2.485133e+01   1.212529e+01
  -6.600809e+00  -1.322285e+01
   1.123610e+01  -1.035194e+01
   4.491040e+00   9.699492e+00
  -1.371552e+01   2.052947e+01
  -2.836486e+01   5.233689e+00
  -2.468692e+01  -1.667668e+01
  -2.794511e+00  -2.399479e+01
   1.489124e+01  -1.939377e+01
   1.956006e+01  -5.352599e+00
   5.637870e+00   4.532168e+00
  -9.975834e+00   2.794360e+00
  -7.228913e+00  -8.172806e+00
   1.437123e+01  -1.229275e+01
   3.228401e+01  -2.420086e+00
   2.141867e+01   1.597382e+01
  -7.393247e+00   2.437320e+01
  -2.229440e+01   1.454495e+01
  -1.320116e+01  -4.947763e+00
   5.419240e+00  -1.675371e+01
   1.199167e+01  -1.432928e+01
   7.801726e+00  -1.537765e+00
   3.252137e+00   3.948400e+00
   1.054249e+00   2.768045e+00
   4.968414e+00  -2.598101e+00
   1.401737e+01  -2.531406e+00
   1.866720e+01   7.011711e+00
   8.281000e+00   2.266707e+01
  -1.650290e+01   2.533058e+01
  -3.247313e+01   7.790976e+00
  -2.550348e+01  -1.929948e+01
  -2.519714e+00  -3.066104e+01
   1.293398e+01  -1.747246e+01
   1.364816e+01   1.373609e+00
   1.047647e+01   4.165708e+00
   7.135103e+00   7.397170e-01
   4.883601e+00  -6.172319e+00
   3.808873e+00  -4.039620e+00
   1.780466e+00   6.321589e+00
   1.342085e+00   1.266669e+01
  -1.551651e+00   8.193405e+00
  -4.323825e+00  -6.010026e+00
   3.683674e+00  -1.589837e+01
   1.949228e+01  -9.002666e+00
   2.679590e+01   9.522580e+00
   9.614856e+00   3.053487e+01
  -1.924623e+01   2.898581e+01
  -3.486544e+01   1.181324e+01
  -2.741602e+01  -1.108650e+01
  -4.154251e+00  -1.870706e+01
   1.026236e+01  -1.707285e+01
   1.061116e+01  -1.179417e+01
   1.449651e+00  -1.075796e+01
  -1.674889e+00  -1.106694e+01
   5.246253e+00  -7.693940e+00
   1.836848e+01   5.207001e+00
   1.894021e+01   1.782731e+01
   5.248146e+00   2.252120e+01
  -1.173660e+01   1.408765e+01
  -2.050001e+01  -1.370621e+00
  -1.484344e+01  -1.347668e+01
  -2.476662e+00  -1.350466e+01
   4.426467e+00  -6.370761e+00
   3.945087e+00   1.256012e+00
   5.096650e+00   4.969019e+00
   5.752453e+00   4.229645e+00
   5.399667e+00   1.297348e+00
   6.520171e+00   2.100106e+00
   1.018921e+00   6.209528e+00
  -1.009543e+01   1.405755e+01
  -1.743870e+01   1.050304e+01
  -1.650723e+01  -1.824166e+00
  -1.875812e+00  -1.360847e+01
   1.462963e+01  -1.928450e+01
   1.554084e+01  -6.384324e+00
   1.236718e+00   5.638180e+00
  -6.732767e+00   7.884868e+00
  -4.855214e+00  -1.818116e+00
   1.491597e+00  -7.050425e+00
   5.698179e+00  -5.931625e+00
   7.690628e+00   6.495036e-01
   1.084131e+01   3.953262e+00
   9.443070e+00   1.720112e+00
   6.215849e+00  -3.179237e+00
   5.967691e+00   1.887274e+00
   4.553864e+00   1.189493e+01
   2.029346e+00   1.891380e+01
  -5.331400e+00   1.462566e+01
  -1.462858e+01   6.856818e+00
  -9.504928e+00  -1.923903e+00
   2.432368e-01  -7.192235e+00
   6.729224e+00  -4.259142e+00
  -1.884988e+00   2.073202e+00
  -1.261274e+01   3.849771e+00
  -1.339174e+01   1.313810e-01
   5.632439e+00  -1.030077e+01
   1.440457e+01  -1.515105e+01
   1.945199e+01  -8.300051e+00
   1.040020e+01   5.445235e+00
  -1.417310e+00   1.454934e+01
  -6.617842e+00   7.765344e+00
   7.505376e-01  -4.455842e+00
   7.657994e+00  -6.882623e+00
   8.661627e+00   4.642922e+00
  -1.837132e-01   1.691323e+01
  -9.352933e+00   1.509440e+01
  -1.522476e+01   1.332082e+00
  -1.068571e+01  -1.341789e+01
  -2.087953e+00  -2.116813e+01
   8.837462e+00  -9.138138e+00
   1.337436e+01   5.918138e+00
   9.448198e+00   1.257224e+01
  -3.164936e+00   6.952656e+00
  -9.100669e+00  -7.510558e-01
  -4.367836e+00  -1.170122e+00
   1.693667e+00   1.799291e+00
  -3.116951e-01  -1.577691e+00
  -9.507577e+00  -6.211356e+00
  -1.356608e+01  -9.519544e+00
  -1.535978e+00  -5.090416e+00
   1.273805e+01  -5.200567e+00
   1.658765e+01  -5.861063e+00
   5.253478e+00  -5.024906e-01
  -6.635061e+00   6.123717e+00
  -5.769926e+00   6.717742e+00
   8.731468e-01   2.283414e+00
   2.825148e+00  -5.496308e+00
  -1.437976e+00  -4.060978e+00
  -2.222382e+00   2.621366e+00
   2.633320e+00   2.925170e+00
   9.256495e+00  -2.481058e+00
   7.303992e+00  -4.610798e+00
   2.553681e-01   6.550111e+00
  -9.081784e+00   1.825827e+01
  -1.577306e+01   1.380423e+01
  -1.453623e+01  -2.908259e+00
  -8.842823e+00  -1.557402e+01
  -4.975485e-01  -1.572697e+01
   8.008300e+00  -9.116176e+00
   1.122546e+01  -5.533522e-01
   3.990942e+00   9.988325e-01
  -4.062128e-01  -4.285283e-01
   1.471688e+00  -1.965761e-01
   5.018089e+00   5.384124e+00
   6.985340e+00   9.091093e+00
   3.181215e+00   9.166404e+00
  -8.667165e+00   2.116378e+00
  -1.390326e+01  -6.104412e+00
  -7.342867e+00  -1.060092e+01
   6.299059e+00  -5.193159e+00
   1.125427e+01   2.655420e+00
   7.741729e+00   6.591820e+00
  -4.697448e+00   4.536924e+00
  -8.814926e+00   2.282743e+00
  -2.864579e+00  -1.983510e+00
   2.052102e+00  -5.516090e+00
   9.601835e-01  -4.741118e+00
  -3.488691e+00   1.415515e+00
  -1.021280e+01   6.249781e+00
  -5.107195e+00  -7.840376e-01
   3.797222e+00  -1.559182e+01
   8.682050e+00  -1.803737e+01
   8.220633e+00  -6.147377e+00
   5.398440e+00   7.189299e+00
   1.664866e+00   1.259412e+01
  -1.481269e-01   3.272040e+00
  -1.984288e+00  -3.648579e+00
  -3.095868e+00  -3.644956e+00
   1.515680e+00   1.150017e+00
   5.415700e+00   1.460578e+00
   4.160181e+00   6.899512e-01
  -2.698216e+00   3.715852e-01
  -5.894830e+00   1.081202e+00
  -1.924747e+00   1.059844e+00
   1.523351e+00   6.306120e-01
   2.023258e+00  -2.613498e+00
   6.640164e-01  -5.433196e+00
   3.381566e-01  -3.104531e+00
   3.288819e+00   1.960598e+00
   3.555198e+00   6.732355e+00
   2.897767e-01   5.924487e+00
  -3.253942e+00   3.142215e+00
  -7.570194e+00  -1.213867e+00
  -6.386763e+00  -5.079485e+00
   1.580103e+00  -5.895767e+00
   6.347253e+00  -6.760464e+00
   7.324119e+00  -2.190360e+00
   1.654759e+00   2.652016e+00
  -3.385911e+00   4.966993e+00
  -8.365921e-01   2.332960e+00
   7.816468e+00  -1.939013e+00
   7.149054e+00  -2.926514e-01
  -3.848286e+00   6.675682e+00
  -1.060563e+01   8.871078e+00
