
 $NMID
 id='ANONYMOUS ', fmtdat='(2E16.6)'
 volume=1.0
 tramp=1.0
 $END
   2.816569e+03   3.349411e+02
   1.413658e+03   1.481593e+03
  -3.156439e+02   1.476608e+03
  -1.007190e+03   7.469690e+02
  -6.153613e+02   1.374613e+02
  -3.322377e-01   2.911722e+01
   1.896926e+02   1.950482e+02
  -6.745223e+01   3.966286e+02
  -3.486734e+02   3.837975e+02
  -4.709711e+02   3.548011e+01
  -2.821809e+02  -4.229709e+02
   4.200872e+01  -4.957298e+02
   2.362650e+02  -1.038326e+02
   1.394165e+02   3.804254e+02
  -1.396248e+02   4.177365e+02
  -3.186923e+02   1.832032e+01
  -2.105496e+02  -4.178040e+02
   1.158838e+02  -5.040080e+02
   3.854139e+02  -2.277991e+02
   3.713569e+02   1.293751e+02
   1.059437e+02   2.780567e+02
  -1.099875e+02   1.749336e+02
  -6.801067e+01   2.723442e+01
   1.869404e+02   7.412463e+01
   2.751666e+02   2.721074e+02
  -2.500372e+01   3.326036e+02
  -4.389471e+02   8.455699e+01
  -5.127879e+02  -2.276434e+02
  -1.365091e+02  -3.383176e+02
   3.301567e+02  -1.433423e+02
   4.402054e+02   1.575693e+02
   1.410196e+02   3.326398e+02
  -2.486629e+02   2.912986e+02
  -3.939636e+02   7.334996e+01
  -2.661816e+02  -1.734687e+02
  -3.685440e+01  -2.832901e+02
   5.946672e+01  -1.380706e+02
  -4.926266e+01   9.986924e+01
  -1.883473e+02   1.177288e+02
  -1.716777e+02  -1.574599e+02
   4.645117e+01  -4.271798e+02
   2.441521e+02  -3.299815e+02
   2.614618e+02   3.542940e+01
   4.785787e+01   2.605677e+02
  -1.580839e+02   8.666204e+01
  -1.178941e+02  -2.621401e+02
   1.488206e+02  -3.296627e+02
   3.899474e+02  -4.126638e+01
   3.958974e+02   3.184659e+02
   9.362012e+01   4.210653e+02
  -2.717513e+02   2.070592e+02
  -4.345063e+02  -8.031167e+01
  -2.712073e+02  -2.303737e+02
   3.969822e+01  -1.870262e+02
   2.298884e+02  -5.407508e+01
   1.701822e+02   2.042749e+01
  -5.073052e+00   5.898472e+00
  -3.838514e+01  -4.763480e+01
   8.269855e+01  -5.732636e+01
   1.857721e+02   3.794259e+01
   9.701451e+01   1.547172e+02
  -1.259479e+02   2.052746e+02
  -2.914947e+02   1.189678e+02
  -2.433148e+02  -7.296631e+01
   1.773561e+01  -2.829104e+02
   2.701893e+02  -3.237482e+02
   3.488557e+02  -1.326252e+02
   2.052049e+02   1.671474e+02
   1.462533e+01   3.269240e+02
  -7.655822e+01   2.780029e+02
  -3.355631e+01   1.378968e+02
  -2.150706e+01   9.022482e+01
  -1.214681e+02   1.089308e+02
  -2.328102e+02   4.825500e+01
  -2.157852e+02  -1.192519e+02
  -7.528671e+01  -2.384740e+02
   9.117457e+01  -1.762807e+02
   1.613161e+02   3.911235e+01
   1.052200e+02   2.193252e+02
  -5.677521e+01   2.192857e+02
  -2.237496e+02   4.176023e+01
  -2.606850e+02  -1.678953e+02
  -1.296320e+02  -2.588299e+02
   5.197644e+01  -2.105503e+02
   1.426886e+02  -1.155112e+02
   1.157989e+02  -6.928904e+01
   1.145026e+02  -6.762973e+01
   2.345948e+02  -3.652632e+01
   3.470799e+02   9.714591e+01
   2.659691e+02   2.712877e+02
  -2.668015e+01   3.791328e+02
  -3.343692e+02   3.270350e+02
  -4.204592e+02   1.337460e+02
  -2.476906e+02  -1.036269e+02
  -9.619902e-01  -2.140949e+02
   9.256369e+01  -1.507158e+02
   6.151434e+00  -1.423496e+01
  -1.138856e+02   2.787434e+01
  -1.153814e+02  -5.308932e+01
   1.356271e+01  -1.271835e+02
   1.190962e+02  -6.949562e+01
   8.836880e+01   6.950177e+01
  -4.163232e+01   1.203115e+02
  -1.501854e+02  -5.071364e+00
  -1.287236e+02  -2.066996e+02
   2.203133e+01  -2.940950e+02
   2.133401e+02  -1.795180e+02
   3.113298e+02   5.813900e+01
   2.386860e+02   2.456243e+02
   3.904144e+01   2.554243e+02
  -1.279094e+02   1.237195e+02
  -1.360835e+02  -1.096052e+01
  -2.176914e+01  -2.047182e+01
   4.905172e+01   5.991600e+01
  -9.091472e+00   1.059626e+02
  -1.125512e+02   5.214365e+01
  -1.183633e+02  -3.392960e+01
  -1.866840e+01  -5.288051e+01
   7.583326e+01   1.354023e+01
   3.524112e+01   8.556669e+01
  -1.258511e+02   7.537895e+01
  -2.574350e+02  -2.342067e+01
  -2.144023e+02  -1.539626e+02
  -9.556060e+00  -2.323939e+02
   1.924147e+02  -1.938914e+02
   2.285421e+02  -6.737276e+01
   1.106268e+02   4.867274e+01
  -3.450425e+01   6.373372e+01
  -4.919280e+01  -1.422898e+01
   6.163442e+01  -7.143897e+01
   1.681146e+02  -1.519828e+01
   1.529335e+02   1.049436e+02
   3.206890e+01   1.679302e+02
  -8.501077e+01   1.144939e+02
  -1.056944e+02   6.812036e+00
  -3.267303e+01  -4.229270e+01
   4.522714e+01   1.529873e+01
   2.486090e+01   1.017579e+02
  -8.977542e+01   1.089386e+02
  -1.846969e+02   7.202132e+00
  -1.515005e+02  -1.277547e+02
   1.845817e+00  -1.828181e+02
   1.441316e+02  -1.179433e+02
   1.505476e+02   5.169646e+00
   4.299508e+01   8.306738e+01
  -5.166220e+01   7.335954e+01
  -6.095467e+01   1.237465e+01
   1.042136e+00  -2.497719e+01
   3.851364e+01  -6.556242e+00
   3.487365e-01   2.556738e+01
  -7.391506e+01   6.652726e+00
  -9.434321e+01  -7.737882e+01
  -1.294860e+01  -1.561194e+02
   1.276928e+02  -1.347132e+02
   2.110408e+02  -1.709569e+00
   1.581495e+02   1.462774e+02
   1.981798e+01   1.985593e+02
  -9.658934e+01   1.316480e+02
  -1.127047e+02   1.957702e+01
  -6.157125e+01  -3.892472e+01
  -2.932540e+01  -2.638550e+01
  -5.148690e+01   1.024699e+01
  -7.875558e+01   2.341163e+00
  -5.175341e+01  -5.377380e+01
   3.478291e+01  -9.771210e+01
   1.115113e+02  -6.274333e+01
   9.666521e+01   4.042308e+01
  -1.649830e+01   1.172785e+02
  -1.458696e+02   7.751334e+01
  -1.776677e+02  -6.642857e+01
  -6.149661e+01  -1.913349e+02
   1.200474e+02  -1.875669e+02
   2.325780e+02  -5.332445e+01
   2.060988e+02   9.143767e+01
   7.374280e+01   1.498591e+02
  -4.352401e+01   1.121727e+02
  -8.073292e+01   5.999978e+01
  -6.109465e+01   5.262733e+01
  -5.300799e+01   7.813249e+01
  -7.916550e+01   6.668585e+01
  -1.135726e+02  -1.956834e+01
  -1.001887e+02  -1.335730e+02
  -1.681927e+01  -1.905204e+02
   9.398181e+01  -1.391710e+02
   1.492811e+02  -4.382904e+00
   1.031250e+02   1.118546e+02
  -9.544448e-01   1.355001e+02
  -7.003319e+01   6.908274e+01
  -5.514472e+01  -1.658952e+01
   7.577066e+00  -4.843402e+01
   2.628502e+01  -2.991423e+01
  -1.919339e+01  -8.754581e+00
  -7.243359e+01  -1.438994e+01
  -4.622097e+01  -3.739926e+01
   6.017451e+01  -3.801739e+01
   1.506442e+02   3.450638e+00
   1.228611e+02   6.056942e+01
  -1.794034e+00   8.830072e+01
  -1.150763e+02   6.157897e+01
  -1.263219e+02   1.168151e+00
  -4.011567e+01  -4.768890e+01
   4.800960e+01  -3.786753e+01
   6.664859e+01   1.653473e+01
   1.755791e+01   6.400331e+01
  -3.684533e+01   5.632758e+01
  -6.011254e+01   3.517940e+00
  -5.254442e+01  -4.183869e+01
  -4.258848e+01  -3.983873e+01
  -4.385147e+01  -6.364917e+00
  -5.468939e+01  -1.646524e+00
  -3.891631e+01  -6.351280e+01
   2.499750e+01  -1.344576e+02
   1.142584e+02  -1.283122e+02
   1.590880e+02  -2.534925e+01
   1.149095e+02   8.473991e+01
   3.833800e+00   1.156790e+02
  -7.615406e+01   5.937607e+01
  -5.185500e+01  -8.460240e+00
   4.425492e+01  -1.257182e+01
   1.055242e+02   3.984084e+01
   5.815165e+01   9.176534e+01
  -6.452352e+01   8.522440e+01
  -1.549050e+02   2.709930e+01
  -1.315590e+02  -4.132110e+01
  -2.209907e+01  -7.160275e+01
   5.789531e+01  -4.588774e+01
   4.221382e+01   6.420497e+00
  -3.465820e+01   2.667518e+01
  -7.762999e+01  -1.649852e+01
  -3.266494e+01  -9.746202e+01
   6.830385e+01  -1.294393e+02
   1.317100e+02  -5.670429e+01
   1.034173e+02   7.850989e+01
   1.013876e+01   1.645772e+02
  -7.306063e+01   1.163144e+02
  -8.821146e+01  -1.763461e+01
  -4.117323e+01  -1.067073e+02
   2.060116e+01  -8.560950e+01
   4.870330e+01  -8.623182e+00
   3.575015e+01   2.995098e+01
   1.277141e+01   8.991316e+00
   7.309301e+00  -1.487367e+01
   2.745184e+01   1.760355e+01
   4.503075e+01   7.511280e+01
   2.120044e+01   9.199601e+01
  -4.971876e+01   3.649909e+01
  -1.118208e+02  -3.455648e+01
  -9.762010e+01  -6.335046e+01
  -1.151642e+01  -4.576525e+01
   6.908923e+01  -1.848903e+01
   7.312826e+01  -7.440191e-01
   1.494642e+01   1.098475e+01
  -3.195326e+01   1.663508e+01
  -1.981974e+01   1.080024e+01
   1.099400e+01  -3.344431e+00
   8.417533e-01  -6.753695e+00
  -5.452919e+01  -6.246359e+00
  -7.810900e+01  -2.327134e+01
  -1.902322e+01  -6.769850e+01
   9.467736e+01  -9.265434e+01
   1.662392e+02  -4.881543e+01
   1.322777e+02   5.144199e+01
   2.545703e+01   1.352764e+02
  -7.004047e+01   1.324103e+02
  -1.011774e+02   5.693904e+01
  -6.653539e+01  -1.489684e+01
  -2.043241e+01  -3.410001e+01
  -2.551952e+00  -1.101269e+01
  -1.131066e+01  -4.729370e+00
  -2.333013e+01  -4.047771e+01
  -1.351865e+01  -7.697791e+01
   2.557609e+01  -6.090765e+01
   6.549081e+01   1.344330e+01
   6.691442e+01   8.410926e+01
   1.525363e+01   9.234021e+01
  -6.081913e+01   2.693922e+01
  -8.922384e+01  -5.452911e+01
  -3.575366e+01  -8.629908e+01
   5.420102e+01  -5.647248e+01
   8.837502e+01   5.590792e+00
   4.119418e+01   5.008517e+01
  -2.792856e+01   5.295721e+01
  -3.727488e+01   2.526511e+01
   1.786908e+01  -5.827118e+00
   5.280248e+01  -7.492082e+00
   1.546234e+01   2.237489e+01
  -6.433454e+01   5.204664e+01
  -1.000120e+02   3.840596e+01
  -6.065293e+01  -1.698127e+01
   1.241556e+01  -7.030227e+01
   5.238387e+01  -7.000820e+01
   4.114162e+01  -1.121596e+01
   6.071241e+00   4.346219e+01
  -1.975572e+01   4.059152e+01
  -2.998481e+01  -7.379265e+00
  -2.314621e+01  -4.358264e+01
   1.164982e-01  -3.365609e+01
   2.823675e+01   4.314303e+00
   3.644760e+01   2.304825e+01
   1.798362e+01   4.853883e+00
  -3.852737e+00  -1.851739e+01
  -7.843831e+00  -9.535042e+00
   2.573061e+00   2.423844e+01
   5.455310e-01   4.359577e+01
  -2.050476e+01   2.083749e+01
  -3.370857e+01  -2.631059e+01
  -1.334962e+01  -4.872625e+01
   3.163610e+01  -2.303030e+01
   5.284894e+01   2.451803e+01
   1.600135e+01   4.854962e+01
  -4.756420e+01   3.034004e+01
  -7.832581e+01  -1.014533e+01
  -4.177604e+01  -3.729328e+01
   2.339000e+01  -3.835036e+01
   5.474141e+01  -2.395842e+01
   2.481876e+01  -6.290387e+00
  -2.307658e+01   1.682565e+00
  -2.696044e+01  -6.630429e+00
   1.872244e+01  -1.883057e+01
   6.272426e+01  -1.305493e+01
