
 $NMID
 id='ANONYMOUS ', fmtdat='(2E16.6)'
 volume=1.0
 tramp=1.0
 $END
  -2.659228e+03  -4.776949e+02
  -1.615934e+03  -1.788324e+03
   3.756564e+02  -1.749574e+03
   1.301471e+03  -7.493874e+02
   7.684077e+02   1.267094e+02
  -1.536901e+02   2.828824e+02
  -4.258742e+02  -2.085802e+02
   4.934798e+01  -5.975917e+02
   5.608215e+02  -5.019581e+02
   6.312418e+02   3.580846e+01
   3.258167e+02   5.693521e+02
  -1.248881e+02   6.154244e+02
  -3.730998e+02   1.199672e+02
  -2.304872e+02  -4.551337e+02
   1.674072e+02  -5.325175e+02
   3.909003e+02  -3.716099e+01
   2.119623e+02   4.516951e+02
  -1.704568e+02   4.863624e+02
  -4.014090e+02   1.278880e+02
  -3.355444e+02  -2.424140e+02
  -5.483379e+01  -3.415978e+02
   1.627097e+02  -2.079096e+02
   1.164785e+02  -2.816364e+01
  -1.243758e+02  -2.359085e+01
  -2.541527e+02  -1.953929e+02
  -4.422043e+01  -3.206556e+02
   3.742359e+02  -2.062875e+02
   5.573917e+02   1.318395e+02
   2.294218e+02   3.690010e+02
  -2.941725e+02   2.580985e+02
  -4.931788e+02  -7.451854e+01
  -2.073167e+02  -3.423939e+02
   2.290039e+02  -3.376937e+02
   4.232653e+02  -1.296047e+02
   2.887196e+02   1.815624e+02
   3.195892e+01   3.248914e+02
  -1.126700e+02   1.713606e+02
  -5.935439e+01  -1.422409e+02
   1.356657e+02  -2.307984e+02
   2.412685e+02   7.476419e+01
   5.662908e+01   4.613496e+02
  -2.498980e+02   4.228542e+02
  -3.712269e+02  -3.298962e+01
  -1.392456e+02  -3.478497e+02
   1.720264e+02  -1.796164e+02
   1.974487e+02   2.240231e+02
  -9.061270e+01   3.535870e+02
  -3.983631e+02   5.376684e+01
  -4.245620e+02  -3.308695e+02
  -1.136771e+02  -4.295733e+02
   2.735681e+02  -2.335289e+02
   4.379987e+02   6.518180e+01
   2.586285e+02   2.559118e+02
  -8.783243e+01   2.269864e+02
  -2.875368e+02   5.127089e+01
  -1.833343e+02  -8.486042e+01
   3.927236e+01  -4.307072e+01
   7.731844e+01   7.672282e+01
  -1.041583e+02   9.094708e+01
  -2.236733e+02  -4.973665e+01
  -1.104692e+02  -1.920268e+02
   1.463995e+02  -1.984941e+02
   2.812908e+02  -7.244765e+01
   2.058992e+02   9.322842e+01
  -5.298825e+00   2.319221e+02
  -2.174219e+02   2.679055e+02
  -3.078527e+02   1.187345e+02
  -2.032441e+02  -1.328949e+02
  -1.897097e+01  -3.083876e+02
   8.232451e+01  -2.519109e+02
   5.919320e+01  -1.037019e+02
   2.451779e+01  -3.304452e+01
   7.464293e+01  -7.855411e+01
   1.791720e+02  -6.018063e+01
   2.012270e+02   8.016056e+01
   8.208335e+01   2.129820e+02
  -8.146818e+01   1.775711e+02
  -1.688219e+02  -7.988264e+00
  -1.231822e+02  -1.893552e+02
   2.900951e+01  -2.101383e+02
   1.977965e+02  -6.147515e+01
   2.498186e+02   1.495822e+02
   1.313981e+02   2.650632e+02
  -6.660521e+01   2.326623e+02
  -1.586600e+02   1.069368e+02
  -1.215864e+02   3.473528e+01
  -1.026976e+02   4.568089e+01
  -2.105610e+02   3.914221e+01
  -3.083574e+02  -7.076527e+01
  -2.444364e+02  -2.477286e+02
   2.904184e+01  -3.520790e+02
   3.045052e+02  -3.033625e+02
   3.915416e+02  -1.156351e+02
   2.400808e+02   1.021533e+02
   2.104342e+01   2.174211e+02
  -9.351090e+01   1.693144e+02
  -3.521422e+01   2.119906e+01
   8.783894e+01  -4.547587e+01
   1.197092e+02   2.307566e+01
   1.728261e+01   1.187660e+02
  -9.906806e+01   9.447158e+01
  -9.541033e+01  -4.440131e+01
   2.488795e+01  -1.101304e+02
   1.320172e+02  -1.544954e+00
   1.116639e+02   1.894228e+02
  -2.900602e+01   2.692155e+02
  -1.923679e+02   1.517966e+02
  -2.730869e+02  -6.510895e+01
  -2.048545e+02  -2.183118e+02
  -3.034265e+01  -2.264984e+02
   1.203011e+02  -1.115415e+02
   1.413611e+02   8.151565e+00
   3.666956e+01   2.783629e+01
  -4.423683e+01  -3.905767e+01
  -1.494639e-01  -9.261155e+01
   1.034339e+02  -5.503219e+01
   1.323311e+02   2.230500e+01
   3.491203e+01   5.180887e+01
  -6.040588e+01  -2.687048e+00
  -3.104857e+01  -7.286523e+01
   1.156885e+02  -7.121035e+01
   2.345143e+02   2.191390e+01
   1.969251e+02   1.403760e+02
   2.572978e+01   2.068730e+02
  -1.616950e+02   1.831441e+02
  -2.165283e+02   6.561989e+01
  -1.160073e+02  -4.985152e+01
   2.416799e+01  -7.293769e+01
   5.846206e+01   6.448868e-01
  -4.059576e+01   6.476161e+01
  -1.486772e+02   1.594988e+01
  -1.476602e+02  -9.411982e+01
  -3.909230e+01  -1.570354e+02
   8.432895e+01  -1.082574e+02
   1.065288e+02  -1.336692e+01
   4.385033e+01   3.055104e+01
  -2.755096e+01  -1.065060e+01
  -1.933511e+01  -7.882391e+01
   7.479028e+01  -8.881584e+01
   1.630218e+02  -6.094721e+00
   1.412326e+02   1.117341e+02
   2.781078e+00   1.682326e+02
  -1.291149e+02   1.109687e+02
  -1.358014e+02  -9.190853e+00
  -3.939599e+01  -8.716623e+01
   5.323597e+01  -7.819283e+01
   6.002574e+01  -1.561714e+01
   7.094481e+00   2.184444e+01
  -2.492731e+01   7.703789e+00
   5.610933e+00  -1.774577e+01
   6.342210e+01   1.219364e+00
   7.321685e+01   7.012513e+01
   1.793377e+00   1.343404e+02
  -1.175325e+02   1.143095e+02
  -1.885383e+02   1.586370e+00
  -1.458417e+02  -1.311524e+02
  -1.771554e+01  -1.849734e+02
   9.463193e+01  -1.256084e+02
   1.097010e+02  -1.754627e+01
   5.855728e+01   4.382804e+01
   2.104412e+01   3.193472e+01
   3.567276e+01  -2.289478e+00
   5.928815e+01  -1.517140e+00
   3.589776e+01   4.169384e+01
  -3.596458e+01   7.313486e+01
  -9.496008e+01   4.301140e+01
  -8.048917e+01  -3.502273e+01
   1.270087e+01  -9.671193e+01
   1.234386e+02  -6.713902e+01
   1.566745e+02   4.973857e+01
   6.791544e+01   1.632064e+02
  -9.359173e+01   1.720638e+02
  -2.068132e+02   5.589289e+01
  -1.910087e+02  -8.645683e+01
  -7.283496e+01  -1.449377e+02
   3.911241e+01  -1.074943e+02
   8.022651e+01  -5.253988e+01
   6.517869e+01  -4.405852e+01
   5.502013e+01  -6.420513e+01
   7.339386e+01  -5.388002e+01
   9.798318e+01   2.200078e+01
   8.561751e+01   1.275965e+02
   1.207903e+01   1.789357e+02
  -8.906629e+01   1.297173e+02
  -1.392453e+02   5.011135e+00
  -9.888177e+01  -1.014604e+02
  -1.685526e+00  -1.240548e+02
   6.187857e+01  -6.130478e+01
   4.833872e+01   1.001785e+01
  -4.413004e+00   3.867709e+01
  -2.062369e+01   2.563194e+01
   2.015904e+01   8.470639e+00
   6.201801e+01   1.745756e+01
   3.728589e+01   3.374812e+01
  -5.252029e+01   3.215673e+01
  -1.288857e+02  -5.881624e+00
  -1.048584e+02  -5.286692e+01
  -1.520777e-01  -7.740019e+01
   1.025888e+02  -5.242930e+01
   1.135781e+02   3.139716e+00
   3.364075e+01   4.590871e+01
  -4.833593e+01   3.669863e+01
  -6.175707e+01  -1.842949e+01
  -1.041943e+01  -6.151385e+01
   4.114237e+01  -5.008010e+01
   5.275425e+01   5.456862e+00
   3.816414e+01   4.598056e+01
   3.146581e+01   3.682508e+01
   3.832103e+01   3.235015e+00
   4.904555e+01  -3.162303e-01
   2.960515e+01   5.331305e+01
  -2.696134e+01   1.120262e+02
  -9.930909e+01   1.046567e+02
  -1.327572e+02   2.014980e+01
  -9.272793e+01  -7.906099e+01
   3.106264e+00  -1.020206e+02
   7.296688e+01  -4.857655e+01
   4.678828e+01   1.344290e+01
  -4.756919e+01   1.348946e+01
  -1.070335e+02  -4.162422e+01
  -5.331555e+01  -8.924469e+01
   6.364282e+01  -8.999178e+01
   1.428406e+02  -3.571983e+01
   1.223159e+02   3.664563e+01
   2.670734e+01   6.932269e+01
  -4.718803e+01   4.766055e+01
  -3.753922e+01  -2.478015e+00
   3.057335e+01  -2.302596e+01
   7.008260e+01   1.653527e+01
   2.336278e+01   9.088885e+01
  -7.130884e+01   1.183666e+02
  -1.294358e+02   5.044174e+01
  -1.000702e+02  -7.798048e+01
  -6.400312e+00  -1.544890e+02
   7.371077e+01  -1.122861e+02
   8.339634e+01   9.646480e+00
   4.141780e+01   9.527592e+01
  -1.341882e+01   8.300235e+01
  -4.279706e+01   1.312254e+01
  -3.936952e+01  -2.756432e+01
  -1.484135e+01  -8.256407e+00
  -3.483489e+00   1.344160e+01
  -1.994442e+01  -1.630402e+01
  -4.468085e+01  -7.267581e+01
  -2.154663e+01  -8.729847e+01
   4.679186e+01  -3.229702e+01
   1.072078e+02   3.462488e+01
   9.303431e+01   6.216013e+01
   9.930301e+00   4.589102e+01
  -6.738241e+01   1.896349e+01
  -7.102434e+01  -1.779727e+00
  -1.304835e+01  -1.427298e+01
   2.822311e+01  -1.757049e+01
   1.536882e+01  -7.971989e+00
  -1.290477e+01   4.598979e+00
   1.684568e+00   4.310105e+00
   5.028052e+01   4.153801e-01
   6.906656e+01   1.982084e+01
   1.232524e+01   6.283084e+01
  -8.664342e+01   8.548706e+01
  -1.455776e+02   3.879670e+01
  -1.138812e+02  -5.327882e+01
  -2.037563e+01  -1.264231e+02
   6.698794e+01  -1.164545e+02
   9.401426e+01  -4.297681e+01
   6.744822e+01   1.918030e+01
   2.223994e+01   3.175676e+01
   1.055899e+00   1.119045e+01
   6.396969e+00   6.452388e+00
   1.963534e+01   3.971302e+01
   1.049813e+01   7.258426e+01
  -2.598048e+01   5.551937e+01
  -6.087962e+01  -1.468697e+01
  -5.831528e+01  -8.383040e+01
  -4.110919e+00  -8.836133e+01
   6.298155e+01  -2.137931e+01
   8.363982e+01   5.456666e+01
   2.642886e+01   8.094128e+01
  -5.398366e+01   4.838097e+01
  -7.813343e+01  -8.937000e+00
  -3.136936e+01  -4.462586e+01
   2.786166e+01  -4.218235e+01
   2.929738e+01  -1.927400e+01
  -2.194215e+01   4.136512e+00
  -5.350680e+01   3.606636e+00
  -1.362276e+01  -2.402986e+01
   6.417746e+01  -5.071769e+01
   9.331540e+01  -3.684266e+01
   5.294084e+01   1.841860e+01
  -1.419317e+01   6.426360e+01
  -4.607831e+01   5.862452e+01
  -3.293907e+01   4.301674e+00
  -1.529117e+00  -4.314688e+01
   2.232161e+01  -3.564371e+01
   2.980401e+01   1.113538e+01
   2.075250e+01   4.282838e+01
  -2.737560e+00   3.086826e+01
  -2.598492e+01  -4.211808e+00
  -3.064809e+01  -1.981642e+01
  -1.757309e+01  -4.894550e+00
   4.359823e-01   1.308406e+01
   4.428078e+00   3.178751e+00
  -2.226239e-01  -2.493423e+01
   4.931395e+00  -3.717551e+01
   2.196372e+01  -1.326080e+01
   2.741282e+01   2.933349e+01
   5.365235e+00   4.725709e+01
  -3.188753e+01   1.721528e+01
  -4.662033e+01  -2.922926e+01
  -1.457582e+01  -4.799403e+01
   4.500772e+01  -2.602179e+01
   7.171668e+01   1.221434e+01
   3.697348e+01   3.616064e+01
  -2.465397e+01   3.316327e+01
  -5.119081e+01   1.897228e+01
  -2.009089e+01   3.791183e+00
   2.629881e+01   4.032104e-01
   2.680796e+01   1.010380e+01
  -2.138589e+01   2.255513e+01
  -6.586273e+01   1.338744e+01
