
 $NMID
 id='ANONYMOUS ', fmtdat='(2E16.6)'
 volume=1.0
 tramp=1.0
 $END
   2.728996e+03   3.978703e+02
   1.527966e+03   1.668644e+03
  -2.950475e+02   1.600875e+03
  -1.075746e+03   7.540131e+02
  -6.564604e+02   3.457332e+01
   1.038119e+02  -8.766681e+01
   2.878588e+02   2.167825e+02
  -4.816070e+01   4.667030e+02
  -4.405151e+02   4.007927e+02
  -5.142959e+02  -1.433879e+01
  -2.788863e+02  -4.724674e+02
   9.116740e+01  -5.247976e+02
   2.970643e+02  -1.091749e+02
   1.652153e+02   4.015145e+02
  -1.573238e+02   4.467047e+02
  -3.415365e+02   9.054699e+00
  -1.800156e+02  -4.489140e+02
   1.800336e+02  -4.912350e+02
   4.098938e+02  -1.439695e+02
   3.498867e+02   2.124909e+02
   8.542898e+01   2.949185e+02
  -1.105877e+02   1.705273e+02
  -7.217652e+01   5.013041e+01
   1.410324e+02   8.144628e+01
   2.489583e+02   2.467202e+02
  -1.092074e+01   3.225154e+02
  -4.025828e+02   1.297983e+02
  -5.191988e+02  -2.142307e+02
  -1.545176e+02  -3.531518e+02
   3.201715e+02  -1.695119e+02
   4.612997e+02   1.502836e+02
   1.429166e+02   3.375576e+02
  -2.564907e+02   2.909656e+02
  -4.019350e+02   8.760130e+01
  -2.478611e+02  -1.785495e+02
  -2.171307e+01  -2.946328e+02
   7.673273e+01  -1.577764e+02
  -2.410509e+01   9.393724e+01
  -1.676636e+02   1.381252e+02
  -1.758767e+02  -1.368132e+02
   4.516311e+01  -4.252424e+02
   2.778484e+02  -3.684505e+02
   3.144031e+02   5.013354e+01
   8.008842e+01   3.031288e+02
  -1.716628e+02   1.089199e+02
  -1.623050e+02  -2.553213e+02
   1.254171e+02  -3.268985e+02
   4.010781e+02  -2.853796e+01
   4.094453e+02   3.178843e+02
   1.010973e+02   4.090654e+02
  -2.695203e+02   2.041493e+02
  -4.307533e+02  -7.209442e+01
  -2.571546e+02  -2.453283e+02
   6.947392e+01  -2.095706e+02
   2.564427e+02  -6.483933e+01
   1.743073e+02   3.633922e+01
  -1.130011e+01   1.627590e+01
  -3.619387e+01  -5.814980e+01
   1.152673e+02  -5.147536e+01
   1.986466e+02   7.015875e+01
   7.916076e+01   1.752335e+02
  -1.459591e+02   1.806705e+02
  -2.775979e+02   8.573856e+01
  -1.992953e+02  -8.836265e+01
   3.510716e+01  -2.496825e+02
   2.603885e+02  -2.792838e+02
   3.172425e+02  -9.478187e+01
   1.821343e+02   1.645130e+02
  -6.990881e+00   2.992843e+02
  -6.870795e+01   2.332986e+02
  -2.892988e+01   1.002874e+02
  -2.990623e+01   6.747759e+01
  -1.173621e+02   9.525936e+01
  -2.119018e+02   3.761967e+01
  -1.975717e+02  -1.131988e+02
  -5.592005e+01  -2.310966e+02
   9.907058e+01  -1.621043e+02
   1.555156e+02   4.385247e+01
   8.972996e+01   2.108091e+02
  -6.227970e+01   2.031942e+02
  -2.130643e+02   2.920351e+01
  -2.374495e+02  -1.768456e+02
  -1.094679e+02  -2.637116e+02
   6.295076e+01  -2.019628e+02
   1.424452e+02  -9.087889e+01
   1.159591e+02  -3.808992e+01
   1.133227e+02  -4.839031e+01
   2.161507e+02  -1.848935e+01
   3.134499e+02   1.052728e+02
   2.318981e+02   2.635557e+02
  -5.246916e+01   3.598234e+02
  -3.356104e+02   3.040630e+02
  -3.940639e+02   1.136275e+02
  -2.289484e+02  -1.043244e+02
   3.909090e-01  -2.142581e+02
   9.923747e+01  -1.553160e+02
   1.987106e+01  -2.145053e+01
  -1.040520e+02   3.124323e+01
  -1.128276e+02  -4.399815e+01
   5.256220e+00  -1.252098e+02
   1.116534e+02  -7.640776e+01
   9.279145e+01   5.833544e+01
  -2.784425e+01   1.131011e+02
  -1.376532e+02  -3.460643e+00
  -1.153564e+02  -1.923363e+02
   3.516081e+01  -2.655477e+02
   2.045952e+02  -1.501492e+02
   2.762128e+02   7.304241e+01
   2.014652e+02   2.324649e+02
   1.989241e+01   2.348746e+02
  -1.242223e+02   1.064035e+02
  -1.303335e+02  -1.351024e+01
  -2.797955e+01  -1.760894e+01
   3.899800e+01   5.292589e+01
  -1.240993e+01   9.450794e+01
  -1.131018e+02   4.513468e+01
  -1.229823e+02  -2.798674e+01
  -1.832526e+01  -4.965303e+01
   7.181505e+01   1.566341e+01
   2.996192e+01   8.028095e+01
  -1.246691e+02   6.653824e+01
  -2.437556e+02  -3.302423e+01
  -1.949666e+02  -1.556271e+02
  -2.852573e+00  -2.135090e+02
   1.891498e+02  -1.752497e+02
   2.267820e+02  -6.056021e+01
   1.059446e+02   5.416459e+01
  -3.516281e+01   6.861399e+01
  -5.620897e+01  -5.249974e+00
   5.043059e+01  -6.049615e+01
   1.533945e+02  -1.084416e+01
   1.441391e+02   1.007466e+02
   2.737816e+01   1.603706e+02
  -8.470422e+01   1.054111e+02
  -1.041186e+02   9.290881e+00
  -3.885343e+01  -3.492181e+01
   3.270984e+01   1.586626e+01
   1.694613e+01   8.780839e+01
  -8.588366e+01   9.150384e+01
  -1.727270e+02  -5.614915e-01
  -1.378354e+02  -1.258101e+02
   9.216894e+00  -1.728466e+02
   1.402969e+02  -1.078574e+02
   1.440456e+02   1.120134e+01
   3.825861e+01   8.644352e+01
  -5.443743e+01   7.744196e+01
  -6.067614e+01   1.130520e+01
  -4.919475e-01  -2.355194e+01
   3.058611e+01  -5.575146e+00
  -6.764930e+00   2.104809e+01
  -6.740574e+01  -2.545210e+00
  -7.669206e+01  -8.017171e+01
  -1.487201e-01  -1.434381e+02
   1.269427e+02  -1.130046e+02
   1.943808e+02   1.304712e+01
   1.410000e+02   1.473830e+02
   4.625250e+00   1.902291e+02
  -1.033770e+02   1.152923e+02
  -1.068371e+02   5.392266e+00
  -4.998057e+01  -4.610164e+01
  -1.961249e+01  -2.627068e+01
  -4.385526e+01   7.613227e+00
  -6.815849e+01  -6.649869e-01
  -3.904736e+01  -4.813858e+01
   4.036161e+01  -7.959822e+01
   1.026653e+02  -4.583033e+01
   8.379411e+01   4.209399e+01
  -2.172968e+01   1.020167e+02
  -1.395338e+02   6.011040e+01
  -1.633486e+02  -6.836851e+01
  -5.235176e+01  -1.795419e+02
   1.226769e+02  -1.702208e+02
   2.265845e+02  -4.020211e+01
   1.878486e+02   1.002539e+02
   5.952454e+01   1.501657e+02
  -4.756690e+01   1.110069e+02
  -7.938861e+01   5.580044e+01
  -6.329227e+01   4.789366e+01
  -5.672181e+01   6.612677e+01
  -7.717469e+01   5.339987e+01
  -1.018112e+02  -2.713491e+01
  -7.983302e+01  -1.297840e+02
  -6.411070e+00  -1.782547e+02
   9.177998e+01  -1.207382e+02
   1.356761e+02   5.137788e+00
   8.842867e+01   1.091033e+02
  -7.486237e+00   1.221644e+02
  -6.532523e+01   5.616217e+01
  -4.879885e+01  -1.732966e+01
   8.353492e+00  -4.122759e+01
   2.353361e+01  -2.689051e+01
  -2.363807e+01  -1.234534e+01
  -6.541857e+01  -2.316253e+01
  -3.479478e+01  -3.670992e+01
   6.653470e+01  -2.637524e+01
   1.421278e+02   1.457175e+01
   1.091320e+02   5.990818e+01
  -8.585499e+00   8.027948e+01
  -1.147179e+02   5.494760e+01
  -1.182561e+02  -1.504731e+00
  -3.196248e+01  -4.236699e+01
   4.881683e+01  -3.456307e+01
   5.801197e+01   1.734631e+01
   7.846663e+00   5.763339e+01
  -4.039955e+01   4.732050e+01
  -5.125636e+01  -2.621228e+00
  -4.161426e+01  -4.160986e+01
  -3.736554e+01  -3.493743e+01
  -4.878721e+01  -7.862821e+00
  -5.423277e+01  -7.554324e+00
  -2.955926e+01  -6.210851e+01
   3.338324e+01  -1.216652e+02
   1.088150e+02  -1.104816e+02
   1.464200e+02  -1.507490e+01
   9.729901e+01   8.955690e+01
  -3.958587e+00   1.138307e+02
  -7.645423e+01   5.369114e+01
  -5.150024e+01  -1.246391e+01
   4.328747e+01  -1.459831e+01
   9.949414e+01   4.119166e+01
   5.083704e+01   9.071244e+01
  -6.881783e+01   8.705041e+01
  -1.508158e+02   2.210398e+01
  -1.191758e+02  -4.698151e+01
  -1.722820e+01  -7.124624e+01
   5.754288e+01  -4.314351e+01
   4.010612e+01   7.183340e+00
  -3.295549e+01   2.220219e+01
  -7.231361e+01  -2.028159e+01
  -2.363859e+01  -9.336992e+01
   7.437435e+01  -1.162610e+02
   1.299911e+02  -4.562304e+01
   9.478381e+01   8.109629e+01
  -1.325860e+00   1.522105e+02
  -7.820793e+01   1.029663e+02
  -8.418473e+01  -1.867084e+01
  -3.693046e+01  -1.011288e+02
   1.675097e+01  -8.367457e+01
   4.321155e+01  -9.505518e+00
   3.812701e+01   2.827797e+01
   1.689849e+01   8.558305e+00
   5.230381e+00  -1.391202e+01
   2.097982e+01   1.667953e+01
   3.941526e+01   7.567699e+01
   1.852166e+01   8.914839e+01
  -4.827514e+01   3.174752e+01
  -1.067748e+02  -3.991738e+01
  -9.436013e+01  -6.405730e+01
  -9.459875e+00  -4.265403e+01
   6.851197e+01  -1.501290e+01
   6.845963e+01   8.825548e-01
   8.833033e+00   1.017824e+01
  -3.237262e+01   1.365966e+01
  -1.539125e+01   9.921660e+00
   1.389865e+01  -1.591022e+00
  -1.002857e+00  -5.181561e+00
  -5.318819e+01  -4.333145e+00
  -7.411571e+01  -2.213536e+01
  -1.149256e+01  -6.539416e+01
   9.217542e+01  -8.595574e+01
   1.567247e+02  -4.357579e+01
   1.191884e+02   5.496147e+01
   1.657313e+01   1.314460e+02
  -7.278565e+01   1.231287e+02
  -9.623100e+01   4.785835e+01
  -6.199004e+01  -1.793497e+01
  -1.760853e+01  -3.224334e+01
  -1.114831e+00  -9.421393e+00
  -9.204626e+00  -5.239526e+00
  -1.798014e+01  -3.908290e+01
  -5.207309e+00  -7.142356e+01
   2.813594e+01  -5.256175e+01
   6.026859e+01   1.964740e+01
   5.370897e+01   8.800376e+01
   2.400536e+00   8.904056e+01
  -6.175653e+01   1.897520e+01
  -8.105229e+01  -5.964307e+01
  -2.412518e+01  -8.478429e+01
   5.655333e+01  -4.704376e+01
   8.327316e+01   1.298363e+01
   3.371228e+01   4.986349e+01
  -2.998153e+01   4.926303e+01
  -3.308713e+01   2.399850e+01
   2.056602e+01  -1.737463e+00
   5.600301e+01  -3.524284e+00
   1.332773e+01   2.218162e+01
  -6.843281e+01   4.885129e+01
  -1.030364e+02   4.174986e+01
  -5.849949e+01  -1.681578e+01
   1.460916e+01  -6.844295e+01
   5.254040e+01  -6.697620e+01
   3.739929e+01  -8.539048e+00
   1.804868e+00   4.236188e+01
  -2.039161e+01   3.684094e+01
  -2.737280e+01  -1.087557e+01
  -1.783095e+01  -4.490292e+01
   4.066975e+00  -3.100549e+01
   2.598280e+01   7.454945e+00
   3.207106e+01   2.558540e+01
   1.717642e+01   7.057352e+00
  -1.528060e+00  -1.632668e+01
  -4.942626e+00  -7.468796e+00
   5.523890e-01   2.507599e+01
  -5.286249e+00   4.045241e+01
  -2.252012e+01   1.578538e+01
  -2.817132e+01  -2.938309e+01
  -6.565753e+00  -4.691489e+01
   3.208499e+01  -1.606718e+01
   4.546696e+01   3.075851e+01
   1.116745e+01   4.744238e+01
  -4.799594e+01   2.078876e+01
  -7.230060e+01  -1.943021e+01
  -3.628015e+01  -4.002302e+01
   2.651637e+01  -3.490422e+01
   5.512582e+01  -1.835552e+01
   2.519541e+01  -2.668124e+00
  -2.053145e+01   1.812892e-01
  -2.463673e+01  -8.308794e+00
   2.154051e+01  -1.911809e+01
   6.302145e+01  -9.218632e+00
