
 $NMID
 id='ANONYMOUS ', fmtdat='(2E16.6)'
 volume=1.0
 tramp=1.0
 $END
  -2.840031e+03  -9.249400e+00
  -1.811619e+03  -1.452656e+03
  -7.760365e+01  -1.732795e+03
   9.573695e+02  -1.068423e+03
   7.724535e+02  -2.151674e+02
   1.101267e+02   1.466423e+02
  -2.424881e+02  -3.879961e+01
  -5.400117e+01  -4.009971e+02
   3.175862e+02  -4.627064e+02
   5.286037e+02  -5.428087e+01
   3.622282e+02   4.574821e+02
   2.039633e+01   5.478917e+02
  -2.347182e+02   1.578615e+02
  -1.907418e+02  -3.260846e+02
   8.646727e+01  -4.156744e+02
   3.092319e+02  -3.768116e+01
   2.337849e+02   4.099318e+02
  -1.012231e+02   5.442043e+02
  -3.908961e+02   2.491261e+02
  -3.975437e+02  -1.272529e+02
  -1.283353e+02  -2.741892e+02
   9.476729e+01  -1.772044e+02
   4.734998e+01  -5.299298e+01
  -1.707381e+02  -9.353300e+01
  -2.494429e+02  -2.638531e+02
   1.889966e+01  -3.074809e+02
   4.008151e+02  -1.073510e+02
   5.135315e+02   2.062495e+02
   1.582728e+02   3.009515e+02
  -2.929114e+02   1.285212e+02
  -4.430327e+02  -1.513248e+02
  -1.428923e+02  -3.066445e+02
   2.442746e+02  -2.815542e+02
   3.968238e+02  -1.139114e+02
   2.628704e+02   1.354475e+02
   5.031133e+01   2.585570e+02
  -2.307482e+01   1.414777e+02
   6.811642e+01  -8.143941e+01
   1.765846e+02  -1.259106e+02
   1.677449e+02   1.328359e+02
  -1.480235e+01   3.947069e+02
  -2.067536e+02   3.747152e+02
  -2.456872e+02   2.440072e+01
  -9.038867e+01  -2.149925e+02
   1.230488e+02  -8.865374e+01
   1.243672e+02   2.268179e+02
  -1.211123e+02   3.058496e+02
  -3.878482e+02   3.545975e+01
  -4.027160e+02  -3.085289e+02
  -1.225871e+02  -4.130846e+02
   2.611753e+02  -2.276009e+02
   4.366233e+02   5.607934e+01
   2.930734e+02   2.165898e+02
  -1.567572e+01   1.964452e+02
  -2.251640e+02   8.209932e+01
  -1.929122e+02  -8.955745e+00
  -1.074856e+01  -1.704054e+01
   3.340863e+01   1.721045e+01
  -8.635271e+01   2.768412e+01
  -1.701986e+02  -4.485124e+01
  -8.022187e+01  -1.506944e+02
   1.397594e+02  -1.887154e+02
   2.910340e+02  -1.123691e+02
   2.336015e+02   7.867197e+01
  -1.550858e+01   2.719272e+02
  -2.589461e+02   3.237628e+02
  -3.232379e+02   1.205523e+02
  -1.963666e+02  -1.576751e+02
  -2.659923e+01  -3.102266e+02
   3.552839e+01  -2.621524e+02
   1.236273e+01  -1.402711e+02
   3.074781e+01  -9.879628e+01
   1.336742e+02  -1.100432e+02
   2.320002e+02  -4.497251e+01
   2.090215e+02   1.146911e+02
   6.866487e+01   2.266774e+02
  -8.719907e+01   1.623993e+02
  -1.602692e+02  -4.674795e+01
  -1.046998e+02  -2.255534e+02
   5.473777e+01  -2.195694e+02
   2.193695e+02  -4.466412e+01
   2.550859e+02   1.621939e+02
   1.380612e+02   2.546630e+02
  -4.162818e+01   2.105586e+02
  -1.340837e+02   1.187002e+02
  -1.247147e+02   6.879556e+01
  -1.319362e+02   6.309667e+01
  -2.452643e+02   2.751206e+01
  -3.542572e+02  -8.362890e+01
  -2.826166e+02  -2.625210e+02
   1.734491e+01  -3.859763e+02
   3.376590e+02  -3.530942e+02
   4.223655e+02  -1.445816e+02
   2.419578e+02   1.023344e+02
   4.752784e+00   2.174044e+02
  -8.637000e+01   1.589130e+02
  -7.359524e-01   2.457709e+01
   1.113321e+02  -2.991063e+01
   1.106367e+02   4.159814e+01
  -4.408415e+00   1.265076e+02
  -1.073079e+02   8.278408e+01
  -9.234669e+01  -5.165023e+01
   2.630444e+01  -1.117098e+02
   1.414018e+02   4.619517e+00
   1.256743e+02   2.013668e+02
  -2.570643e+01   2.902318e+02
  -2.176606e+02   1.736893e+02
  -3.094397e+02  -6.193990e+01
  -2.291365e+02  -2.352726e+02
  -3.646955e+01  -2.401994e+02
   1.188193e+02  -1.149676e+02
   1.278499e+02   8.180449e+00
   2.534041e+01   1.545158e+01
  -4.523713e+01  -5.668139e+01
   5.912535e+00  -9.813404e+01
   1.046144e+02  -5.459093e+01
   1.145311e+02   2.226269e+01
   1.684284e+01   4.595259e+01
  -7.431632e+01  -1.850568e+01
  -2.943029e+01  -8.666006e+01
   1.372080e+02  -7.679017e+01
   2.673876e+02   2.716661e+01
   2.177214e+02   1.603392e+02
   1.394839e+01   2.339956e+02
  -1.949016e+02   1.972028e+02
  -2.440023e+02   7.634231e+01
  -1.183713e+02  -3.868928e+01
   2.728781e+01  -6.229979e+01
   5.252857e+01   8.091177e+00
  -5.397132e+01   6.355008e+01
  -1.601765e+02   1.734624e+01
  -1.585690e+02  -9.330867e+01
  -4.383164e+01  -1.574959e+02
   7.674981e+01  -1.091534e+02
   1.055995e+02  -1.321394e+01
   3.613072e+01   3.148514e+01
  -3.884964e+01  -2.221632e+01
  -2.063037e+01  -9.762159e+01
   8.827702e+01  -1.002634e+02
   1.815361e+02  -4.339010e+00
   1.517067e+02   1.222360e+02
   9.336987e-01   1.807701e+02
  -1.376999e+02   1.252858e+02
  -1.489877e+02   7.656490e+00
  -4.475442e+01  -7.873714e+01
   5.156737e+01  -7.579820e+01
   5.827760e+01  -1.547198e+01
  -9.482029e-01   2.382792e+01
  -3.567275e+01   8.493243e+00
   5.193766e+00  -2.415853e+01
   7.654214e+01  -1.953642e+00
   9.187375e+01   8.465796e+01
   6.008415e+00   1.585357e+02
  -1.293590e+02   1.323351e+02
  -2.076551e+02  -2.109049e+00
  -1.627276e+02  -1.479262e+02
  -2.429020e+01  -1.950712e+02
   9.052769e+01  -1.247041e+02
   1.076952e+02  -1.692274e+01
   5.791049e+01   3.922532e+01
   2.622348e+01   2.052668e+01
   4.707906e+01  -1.837689e+01
   7.671555e+01  -8.890365e+00
   5.283593e+01   5.069433e+01
  -3.150611e+01   9.646785e+01
  -1.088891e+02   6.173869e+01
  -9.707255e+01  -3.948688e+01
   1.309229e+01  -1.149426e+02
   1.437686e+02  -7.769694e+01
   1.793180e+02   6.149485e+01
   6.992161e+01   1.860855e+02
  -1.158197e+02   1.904019e+02
  -2.364570e+02   6.229618e+01
  -2.099407e+02  -8.286780e+01
  -8.135693e+01  -1.496979e+02
   4.059333e+01  -1.194031e+02
   7.937359e+01  -6.604234e+01
   6.240817e+01  -5.898636e+01
   5.165590e+01  -7.944955e+01
   7.925414e+01  -6.986531e+01
   1.149271e+02   1.700102e+01
   1.003501e+02   1.358440e+02
   1.701628e+01   1.984822e+02
  -9.281381e+01   1.408236e+02
  -1.490755e+02   2.881734e+00
  -1.068533e+02  -1.180327e+02
  -1.663673e+00  -1.369141e+02
   7.097123e+01  -6.744625e+01
   5.562711e+01   1.547280e+01
  -5.568633e+00   4.958344e+01
  -2.599875e+01   3.299272e+01
   2.267771e+01   1.129130e+01
   7.149914e+01   1.458470e+01
   4.193573e+01   3.214451e+01
  -6.980920e+01   3.141962e+01
  -1.579389e+02  -6.852871e+00
  -1.257564e+02  -5.787774e+01
   6.268066e+00  -8.608446e+01
   1.233956e+02  -6.116814e+01
   1.273873e+02  -3.264679e+00
   3.533316e+01   4.385324e+01
  -5.341552e+01   3.805870e+01
  -6.889713e+01  -1.676295e+01
  -1.634334e+01  -6.501952e+01
   4.047050e+01  -5.811878e+01
   6.004354e+01  -1.785621e+00
   5.154945e+01   4.360692e+01
   4.151405e+01   3.522432e+01
   4.852395e+01   1.476260e+00
   5.972351e+01   1.258260e+00
   3.996813e+01   6.625473e+01
  -2.547352e+01   1.387118e+02
  -1.149269e+02   1.254806e+02
  -1.607823e+02   2.790077e+01
  -1.148750e+02  -8.756131e+01
  -3.413082e+00  -1.200194e+02
   7.958390e+01  -6.244137e+01
   5.471097e+01   8.026814e+00
  -4.328870e+01   1.671999e+01
  -1.077102e+02  -3.685818e+01
  -5.941198e+01  -9.429077e+01
   7.155726e+01  -9.092446e+01
   1.679789e+02  -3.429390e+01
   1.357797e+02   4.015536e+01
   2.368477e+01   7.629783e+01
  -6.101000e+01   5.233089e+01
  -4.543364e+01  -1.704076e+00
   3.379870e+01  -2.452112e+01
   8.300080e+01   1.888773e+01
   3.570385e+01   9.998212e+01
  -6.944769e+01   1.350723e+02
  -1.397221e+02   6.312968e+01
  -1.089074e+02  -8.036002e+01
  -1.307108e+01  -1.656325e+02
   7.171366e+01  -1.197180e+02
   9.038880e+01   1.214552e+01
   4.552797e+01   1.076330e+02
  -1.592501e+01   9.198101e+01
  -4.744117e+01   1.275862e+01
  -3.979599e+01  -2.946856e+01
  -1.422755e+01  -8.408020e+00
  -5.388780e+00   1.398020e+01
  -2.813044e+01  -1.850097e+01
  -4.957215e+01  -7.888474e+01
  -2.358693e+01  -8.989967e+01
   5.153427e+01  -3.439889e+01
   1.166430e+02   3.603302e+01
   1.034295e+02   6.077821e+01
   1.479498e+01   4.244683e+01
  -6.867796e+01   2.019602e+01
  -7.201743e+01   4.290316e+00
  -1.314576e+01  -8.334903e+00
   3.030642e+01  -1.485384e+01
   1.585354e+01  -9.491528e+00
  -1.487894e+01   3.449861e+00
  -1.190544e+00   4.427320e+00
   5.457433e+01  -2.712904e+00
   8.130822e+01   1.769982e+01
   2.106668e+01   6.757260e+01
  -9.264036e+01   9.909542e+01
  -1.651489e+02   5.644448e+01
  -1.339134e+02  -5.216615e+01
  -2.638703e+01  -1.374440e+02
   7.145647e+01  -1.347126e+02
   1.010361e+02  -5.859217e+01
   6.573444e+01   1.684556e+01
   2.005008e+01   3.446427e+01
   3.779853e+00   1.059786e+01
   1.481499e+01   4.104656e+00
   2.662706e+01   4.012862e+01
   1.429417e+01   7.976396e+01
  -2.788640e+01   6.398078e+01
  -6.830736e+01  -1.197966e+01
  -7.073896e+01  -8.661587e+01
  -1.496126e+01  -9.538299e+01
   6.274793e+01  -2.953909e+01
   9.401087e+01   5.229738e+01
   3.754999e+01   8.734698e+01
  -5.559752e+01   5.931108e+01
  -9.306330e+01  -2.852832e+00
  -4.387439e+01  -5.102833e+01
   2.815031e+01  -5.723823e+01
   3.617060e+01  -2.857694e+01
  -2.052013e+01   4.473303e+00
  -5.890845e+01   1.097832e+01
  -1.774935e+01  -2.229301e+01
   6.792964e+01  -5.842784e+01
   1.088598e+02  -4.956712e+01
   6.529424e+01   1.443473e+01
  -1.040141e+01   7.588218e+01
  -5.275391e+01   7.475599e+01
  -4.131655e+01   1.164765e+01
  -6.457571e+00  -4.551776e+01
   1.903316e+01  -4.319773e+01
   3.265989e+01   8.985292e+00
   2.571997e+01   4.786537e+01
  -1.892224e+00   3.675079e+01
  -2.960147e+01  -2.639778e+00
  -3.873924e+01  -2.275077e+01
  -2.021978e+01  -5.433356e+00
   3.850374e+00   1.783472e+01
   6.668159e+00   9.596697e+00
  -5.449427e+00  -2.530167e+01
  -3.086532e+00  -4.622335e+01
   2.126517e+01  -2.305237e+01
   3.676645e+01   2.570691e+01
   1.665012e+01   4.993525e+01
  -3.034527e+01   2.360939e+01
  -5.404488e+01  -2.535663e+01
  -1.893464e+01  -4.938578e+01
   4.835565e+01  -3.055460e+01
   8.225274e+01   1.118551e+01
   4.507004e+01   3.908869e+01
  -2.440354e+01   4.156999e+01
  -5.847651e+01   2.630559e+01
  -2.799034e+01   6.552552e+00
   2.186713e+01  -4.063070e+00
   2.709227e+01   4.297313e+00
  -1.837535e+01   2.011116e+01
  -6.549378e+01   1.625002e+01
