
 $NMID
 id='ANONYMOUS ', fmtdat='(2E16.6)'
 volume=1.0
 tramp=1.0
 $END
   2.504899e+03   9.387855e+01
   1.851271e+03   1.093457e+03
   2.861496e+02   1.500427e+03
  -8.781143e+02   1.075679e+03
  -7.577683e+02   2.387816e+02
  -1.340936e+02  -1.400031e+02
   2.882137e+02   1.016292e+01
   1.163670e+02   3.751198e+02
  -2.729942e+02   4.334732e+02
  -4.708161e+02   8.599310e+01
  -3.536976e+02  -3.511110e+02
  -4.400498e+01  -4.929639e+02
   2.015160e+02  -1.725080e+02
   1.935306e+02   2.734663e+02
  -7.057394e+01   3.845553e+02
  -2.976229e+02   7.330640e+01
  -2.550570e+02  -3.680342e+02
   6.014887e+01  -4.909511e+02
   3.376738e+02  -2.516267e+02
   3.585391e+02   8.007120e+01
   1.297138e+02   2.393270e+02
  -7.478906e+01   1.793607e+02
  -3.760045e+01   6.403703e+01
   1.552778e+02   9.431637e+01
   2.210474e+02   2.419199e+02
  -2.840323e+01   2.970984e+02
  -3.824241e+02   1.295642e+02
  -4.939360e+02  -1.686293e+02
  -1.651927e+02  -2.842489e+02
   2.512600e+02  -1.410849e+02
   3.705098e+02   1.178333e+02
   1.346826e+02   2.688216e+02
  -2.074292e+02   2.766389e+02
  -3.483210e+02   1.135774e+02
  -2.489899e+02  -1.109080e+02
  -7.415310e+01  -2.326562e+02
  -1.016551e+01  -1.414145e+02
  -6.899709e+01   6.016915e+01
  -1.638783e+02   9.091791e+01
  -1.418530e+02  -1.331525e+02
   2.757767e+01  -3.816056e+02
   2.183614e+02  -3.245114e+02
   2.258103e+02   1.995738e+01
   5.583000e+01   2.355487e+02
  -1.296621e+02   8.549908e+01
  -1.260937e+02  -2.222372e+02
   8.407427e+01  -3.044967e+02
   3.346937e+02  -4.747229e+01
   3.737424e+02   2.986810e+02
   1.263997e+02   3.991731e+02
  -2.333210e+02   2.169929e+02
  -4.054910e+02  -4.673953e+01
  -2.772879e+02  -1.912352e+02
   8.250644e+00  -1.630107e+02
   2.040309e+02  -5.762789e+01
   1.806548e+02  -4.805570e+00
   3.040594e+01   9.191418e+00
  -1.731417e+01  -3.826245e+00
   7.335552e+01  -1.034563e+01
   1.597519e+02   3.751765e+01
   8.814249e+01   1.432998e+02
  -1.035114e+02   2.001185e+02
  -2.729440e+02   1.407703e+02
  -2.323443e+02  -6.229222e+01
  -7.922116e+00  -2.695036e+02
   2.349540e+02  -3.231161e+02
   3.061487e+02  -1.307811e+02
   2.019590e+02   1.308885e+02
   5.042628e+01   2.891286e+02
  -1.089497e+01   2.607516e+02
  -4.275754e+00   1.554088e+02
  -3.032814e+01   1.100036e+02
  -1.236755e+02   1.070074e+02
  -2.122356e+02   3.996689e+01
  -1.976251e+02  -1.010685e+02
  -7.102579e+01  -2.026219e+02
   7.511789e+01  -1.433468e+02
   1.472414e+02   4.436795e+01
   1.026860e+02   2.035580e+02
  -3.746597e+01   2.018982e+02
  -1.988475e+02   5.118994e+01
  -2.563942e+02  -1.268681e+02
  -1.548715e+02  -2.245048e+02
   2.483401e+01  -2.020287e+02
   1.251012e+02  -1.320858e+02
   1.173079e+02  -8.072370e+01
   1.280633e+02  -6.670808e+01
   2.385820e+02  -3.294705e+01
   3.448744e+02   6.982163e+01
   2.794324e+02   2.467815e+02
  -1.189590e+01   3.707878e+02
  -3.045029e+02   3.381272e+02
  -3.926875e+02   1.493254e+02
  -2.292019e+02  -8.056269e+01
  -8.061174e+00  -1.999991e+02
   7.209311e+01  -1.525678e+02
   2.551661e+00  -2.039819e+01
  -1.022174e+02   2.815207e+01
  -1.030280e+02  -3.267208e+01
   2.104885e+00  -1.089334e+02
   9.304468e+01  -7.078433e+01
   8.147431e+01   4.918114e+01
  -2.884663e+01   9.845062e+01
  -1.334275e+02  -1.382842e+01
  -1.251339e+02  -1.953276e+02
   1.059307e+01  -2.805297e+02
   1.999896e+02  -1.758327e+02
   3.018486e+02   4.171258e+01
   2.373862e+02   2.111602e+02
   5.335208e+01   2.271551e+02
  -9.795886e+01   1.118160e+02
  -1.137279e+02   6.789556e-01
  -2.608662e+01  -1.463132e+01
   4.248056e+01   5.003235e+01
  -2.958560e+00   9.079304e+01
  -9.587922e+01   5.432591e+01
  -1.047444e+02  -1.967305e+01
  -1.412912e+01  -4.781875e+01
   7.303219e+01   1.179428e+01
   3.029948e+01   8.078715e+01
  -1.289704e+02   7.625896e+01
  -2.586089e+02  -2.294532e+01
  -2.161406e+02  -1.482434e+02
  -1.625094e+01  -2.217681e+02
   1.778800e+02  -1.936378e+02
   2.300328e+02  -7.596361e+01
   1.120941e+02   3.574057e+01
  -2.433799e+01   6.013266e+01
  -5.022805e+01  -6.160990e+00
   4.279059e+01  -6.311351e+01
   1.491182e+02  -2.704678e+01
   1.505088e+02   8.066053e+01
   4.781542e+01   1.471657e+02
  -6.761402e+01   1.052858e+02
  -1.000704e+02   1.042292e+01
  -3.116866e+01  -3.088983e+01
   4.209087e+01   2.049381e+01
   2.518043e+01   9.708853e+01
  -8.458640e+01   1.032816e+02
  -1.799352e+02   1.275806e+01
  -1.518258e+02  -1.109277e+02
  -7.628340e+00  -1.720608e+02
   1.272593e+02  -1.244458e+02
   1.402402e+02  -1.263273e+01
   4.419586e+01   7.282485e+01
  -5.282319e+01   7.335878e+01
  -5.902616e+01   1.850364e+01
  -2.512870e+00  -2.119753e+01
   3.264822e+01  -9.502938e+00
  -6.477252e+00   2.133409e+01
  -7.714274e+01   2.192642e+00
  -9.125843e+01  -7.791771e+01
  -1.141676e+01  -1.505405e+02
   1.199756e+02  -1.315155e+02
   1.988392e+02  -1.031699e+01
   1.598110e+02   1.330149e+02
   2.990446e+01   1.882486e+02
  -8.287674e+01   1.309709e+02
  -1.031391e+02   2.714043e+01
  -5.733549e+01  -3.249998e+01
  -2.709887e+01  -1.754530e+01
  -4.877571e+01   2.240347e+01
  -8.033981e+01   1.371095e+01
  -5.669139e+01  -4.837029e+01
   2.688058e+01  -9.768995e+01
   1.068221e+02  -6.668998e+01
   9.934010e+01   3.473846e+01
  -8.480290e+00   1.164713e+02
  -1.382847e+02   8.651299e+01
  -1.780632e+02  -4.944991e+01
  -7.407075e+01  -1.816928e+02
   1.048104e+02  -1.922694e+02
   2.231785e+02  -7.199125e+01
   1.991240e+02   7.740176e+01
   7.453279e+01   1.376260e+02
  -2.989884e+01   1.127826e+02
  -6.498738e+01   6.180140e+01
  -4.863577e+01   5.388688e+01
  -4.090148e+01   7.673092e+01
  -7.144372e+01   7.059195e+01
  -1.123738e+02  -7.191336e+00
  -1.031493e+02  -1.214267e+02
  -2.538105e+01  -1.851541e+02
   8.001211e+01  -1.410152e+02
   1.388436e+02  -1.180612e+01
   1.068871e+02   1.063498e+02
   1.169325e+01   1.309265e+02
  -6.188645e+01   6.891392e+01
  -5.372306e+01  -1.263834e+01
   1.481794e+00  -4.973372e+01
   2.543049e+01  -3.169863e+01
  -2.033969e+01  -6.647340e+00
  -6.973672e+01  -6.981799e+00
  -4.506810e+01  -3.222594e+01
   5.923557e+01  -3.782865e+01
   1.494999e+02  -3.967383e+00
   1.246458e+02   5.420498e+01
  -2.070711e+00   8.579108e+01
  -1.148036e+02   6.365475e+01
  -1.222411e+02   4.925181e+00
  -3.540082e+01  -4.273058e+01
   4.982804e+01  -3.854243e+01
   6.677349e+01   1.290960e+01
   2.112270e+01   6.023094e+01
  -3.347813e+01   5.743266e+01
  -5.590268e+01   4.857449e+00
  -5.008906e+01  -3.692322e+01
  -3.962056e+01  -3.123592e+01
  -4.434455e+01   8.319187e-01
  -5.220334e+01   9.472383e-01
  -3.846200e+01  -5.766722e+01
   1.612975e+01  -1.282949e+02
   9.837943e+01  -1.279980e+02
   1.509047e+02  -3.612846e+01
   1.118087e+02   7.710180e+01
   2.759231e+00   1.144362e+02
  -8.002663e+01   6.500719e+01
  -5.379049e+01  -8.185318e+00
   4.931121e+01  -2.561420e+01
   1.117720e+02   2.447027e+01
   6.084309e+01   8.513253e+01
  -6.883386e+01   9.213794e+01
  -1.575719e+02   3.970435e+01
  -1.288276e+02  -2.963261e+01
  -2.605493e+01  -7.026348e+01
   5.294357e+01  -4.975331e+01
   3.946117e+01   1.228316e+00
  -3.358011e+01   2.707390e+01
  -7.953378e+01  -1.305950e+01
  -3.879700e+01  -9.324197e+01
   5.646288e+01  -1.293750e+02
   1.239948e+02  -6.553749e+01
   1.048914e+02   6.580488e+01
   1.646846e+01   1.506831e+02
  -6.600372e+01   1.094219e+02
  -8.570275e+01  -1.107424e+01
  -4.278884e+01  -9.847148e+01
   1.396519e+01  -8.520774e+01
   4.487135e+01  -1.338340e+01
   3.648676e+01   2.755430e+01
   1.106786e+01   6.908707e+00
   5.495505e+00  -1.234763e+01
   2.911020e+01   1.796301e+01
   5.096153e+01   7.371474e+01
   2.599627e+01   8.358155e+01
  -4.756664e+01   3.642687e+01
  -1.095816e+02  -2.773358e+01
  -1.009614e+02  -5.495257e+01
  -1.818232e+01  -4.458778e+01
   6.139943e+01  -2.291286e+01
   6.871929e+01  -5.407316e+00
   1.570433e+01   8.879475e+00
  -2.581558e+01   1.671608e+01
  -1.623518e+01   8.529518e+00
   1.092468e+01  -5.269490e+00
  -1.555152e-01  -2.633352e+00
  -4.945436e+01   9.792966e+00
  -7.811377e+01  -9.432088e+00
  -2.755405e+01  -6.365495e+01
   7.750476e+01  -1.034109e+02
   1.516297e+02  -6.561133e+01
   1.294978e+02   3.856872e+01
   3.396386e+01   1.248358e+02
  -5.905671e+01   1.273864e+02
  -9.084510e+01   6.002388e+01
  -6.349755e+01  -1.151496e+01
  -2.250664e+01  -3.139518e+01
  -4.230735e+00  -1.241881e+01
  -1.342224e+01  -6.625332e+00
  -2.624405e+01  -3.971162e+01
  -1.802339e+01  -7.468225e+01
   2.167532e+01  -6.171541e+01
   6.628397e+01   6.850005e+00
   7.199868e+01   7.783712e+01
   1.900276e+01   8.978231e+01
  -5.824769e+01   3.054654e+01
  -8.955334e+01  -4.825565e+01
  -3.729850e+01  -8.291922e+01
   5.010568e+01  -5.741287e+01
   8.706921e+01   3.390522e+00
   4.105031e+01   4.966836e+01
  -2.651105e+01   5.438682e+01
  -3.553730e+01   2.499448e+01
   1.832178e+01  -9.055973e+00
   5.600165e+01  -1.243075e+01
   1.957632e+01   2.274136e+01
  -6.243066e+01   5.985308e+01
  -1.045628e+02   5.007632e+01
  -6.543501e+01  -1.370911e+01
   6.954820e+00  -7.408958e+01
   4.742489e+01  -7.446804e+01
   3.986140e+01  -1.556603e+01
   9.426133e+00   4.259354e+01
  -1.680694e+01   4.286206e+01
  -3.144320e+01  -5.549360e+00
  -2.546997e+01  -4.307048e+01
  -2.192671e-01  -3.323738e+01
   2.643539e+01   3.741271e+00
   3.323728e+01   2.180940e+01
   1.600230e+01   4.022161e+00
  -5.474062e+00  -1.838940e+01
  -6.132478e+00  -1.074894e+01
   7.346596e+00   2.332286e+01
   4.258800e+00   4.395986e+01
  -2.047315e+01   2.264732e+01
  -3.618806e+01  -2.359644e+01
  -1.718216e+01  -4.895628e+01
   3.007011e+01  -2.439269e+01
   5.374016e+01   2.207333e+01
   1.975965e+01   4.549029e+01
  -4.602279e+01   3.210515e+01
  -7.746106e+01  -4.498413e+00
  -4.291893e+01  -3.331669e+01
   2.328421e+01  -4.046491e+01
   5.477596e+01  -2.694759e+01
   2.527384e+01  -7.429865e+00
  -2.043833e+01   4.610937e+00
  -2.584075e+01  -2.391661e+00
   1.517230e+01  -1.947789e+01
   5.868829e+01  -1.760011e+01
