
 $NMID
 id='ANONYMOUS ', fmtdat='(2E16.6)'
 volume=1.0
 tramp=1.0
 $END
  -2.649046e+03   3.126021e+02
  -2.142193e+03  -1.178880e+03
  -3.603747e+02  -1.796498e+03
   9.432959e+02  -1.265993e+03
   8.935188e+02  -2.414935e+02
   6.812753e+01   2.550667e+02
  -4.039190e+02  -3.602999e+00
  -1.629527e+02  -4.889569e+02
   3.459797e+02  -5.809724e+02
   5.909656e+02  -1.608175e+02
   4.610199e+02   3.992968e+02
   7.240743e+01   6.074040e+02
  -2.660431e+02   2.416319e+02
  -2.675725e+02  -3.213435e+02
   8.556630e+01  -5.009596e+02
   3.949541e+02  -1.267552e+02
   3.315434e+02   4.224288e+02
  -7.469404e+01   5.881325e+02
  -4.252320e+02   2.901723e+02
  -4.247613e+02  -1.401170e+02
  -1.347901e+02  -3.231741e+02
   9.445245e+01  -2.330969e+02
   5.941769e+01  -7.722246e+01
  -1.371043e+02  -6.538378e+01
  -2.346290e+02  -2.201866e+02
  -1.048523e+01  -3.112254e+02
   3.697064e+02  -1.879981e+02
   5.371899e+02   1.318334e+02
   2.344936e+02   3.050711e+02
  -2.434584e+02   2.154075e+02
  -4.400663e+02  -7.336031e+01
  -1.886419e+02  -3.152487e+02
   2.165390e+02  -3.367220e+02
   3.873066e+02  -1.363157e+02
   2.895090e+02   1.219021e+02
   9.342709e+01   2.661352e+02
  -1.707617e+00   1.686580e+02
   3.340093e+01  -5.556803e+01
   1.376168e+02  -1.311436e+02
   1.675507e+02   9.359974e+01
   4.377150e+01   3.914439e+02
  -1.769931e+02   3.844604e+02
  -2.724731e+02   2.143875e+01
  -1.324044e+02  -2.654230e+02
   1.112693e+02  -1.433370e+02
   1.680759e+02   2.006010e+02
  -6.441980e+01   3.517423e+02
  -3.560807e+02   8.558668e+01
  -4.312681e+02  -3.211524e+02
  -1.733139e+02  -4.481560e+02
   2.282666e+02  -2.690683e+02
   4.361041e+02   7.555629e+00
   3.147257e+02   1.856265e+02
   4.022593e-01   1.975304e+02
  -2.296132e+02   9.323483e+01
  -2.124805e+02  -9.780744e+00
  -2.900692e+01  -3.961931e+01
   5.383251e+01   5.915015e+00
  -5.213444e+01   5.434157e+01
  -1.957240e+02  -2.215103e+01
  -1.428730e+02  -1.671886e+02
   1.031100e+02  -2.416502e+02
   3.118662e+02  -1.467207e+02
   2.643524e+02   8.927443e+01
  -1.674667e+01   2.920050e+02
  -2.645646e+02   3.266927e+02
  -3.156605e+02   1.513196e+02
  -2.217022e+02  -1.291695e+02
  -8.123938e+01  -3.077498e+02
  -1.379653e+01  -3.026209e+02
   4.200477e+00  -1.750918e+02
   4.539539e+01  -1.122685e+02
   1.280851e+02  -1.061084e+02
   2.167583e+02  -5.361672e+01
   2.112725e+02   9.834028e+01
   8.626979e+01   2.193168e+02
  -7.759709e+01   1.681263e+02
  -1.718658e+02  -3.061626e+01
  -1.275544e+02  -2.017744e+02
   2.963816e+01  -2.146459e+02
   2.093379e+02  -6.256721e+01
   2.692453e+02   1.305727e+02
   1.531632e+02   2.474424e+02
  -4.009565e+01   2.344154e+02
  -1.494545e+02   1.500014e+02
  -1.369209e+02   7.575986e+01
  -1.267246e+02   5.792871e+01
  -2.302378e+02   4.821402e+01
  -3.580518e+02  -5.131987e+01
  -2.982954e+02  -2.371263e+02
  -7.333104e+00  -3.778975e+02
   3.062019e+02  -3.585162e+02
   4.026859e+02  -1.612273e+02
   2.420871e+02   8.136414e+01
   1.852754e+01   2.141251e+02
  -6.976840e+01   1.792215e+02
  -9.809599e+00   3.552386e+01
   9.423795e+01  -3.168776e+01
   1.020126e+02   2.028480e+01
   9.874724e+00   1.121136e+02
  -8.771677e+01   9.761727e+01
  -9.121164e+01  -2.824410e+01
   9.928899e+00  -1.040965e+02
   1.256111e+02  -4.633587e+00
   1.338126e+02   1.951583e+02
  -2.021454e+00   3.097696e+02
  -2.063598e+02   1.981859e+02
  -3.133795e+02  -4.069466e+01
  -2.554642e+02  -2.236784e+02
  -6.640573e+01  -2.333747e+02
   1.014652e+02  -1.209530e+02
   1.250991e+02  -8.865973e+00
   3.318243e+01   1.406514e+01
  -4.466296e+01  -4.949415e+01
  -2.265575e+00  -9.690155e+01
   1.042583e+02  -6.244012e+01
   1.253681e+02   1.896404e+01
   2.826048e+01   5.112863e+01
  -7.183756e+01  -6.690237e+00
  -3.548803e+01  -8.023275e+01
   1.301054e+02  -8.466081e+01
   2.652125e+02   1.307620e+01
   2.313980e+02   1.477634e+02
   3.018383e+01   2.344370e+02
  -1.743448e+02   2.081016e+02
  -2.332614e+02   7.904132e+01
  -1.232516e+02  -4.602441e+01
   2.109877e+01  -7.201206e+01
   6.082192e+01   5.758199e+00
  -3.374533e+01   7.607512e+01
  -1.522620e+02   4.184461e+01
  -1.701983e+02  -7.665240e+01
  -6.192278e+01  -1.611423e+02
   6.851234e+01  -1.250354e+02
   1.110953e+02  -2.052695e+01
   4.228958e+01   2.793473e+01
  -3.806319e+01  -1.882851e+01
  -2.658507e+01  -9.918546e+01
   8.609241e+01  -1.098485e+02
   1.934093e+02  -2.074339e+01
   1.713759e+02   1.110651e+02
   2.191336e+01   1.857118e+02
  -1.261478e+02   1.449747e+02
  -1.535441e+02   2.318590e+01
  -5.484228e+01  -7.795396e+01
   5.354554e+01  -8.437277e+01
   6.139822e+01  -2.284810e+01
   4.136311e-01   2.425931e+01
  -3.782248e+01   9.248575e+00
   4.511705e+00  -2.590309e+01
   8.250426e+01  -8.959326e+00
   1.021937e+02   7.665457e+01
   1.668192e+01   1.586317e+02
  -1.230851e+02   1.427390e+02
  -2.105851e+02   1.869471e+01
  -1.745564e+02  -1.351392e+02
  -4.341101e+01  -2.032784e+02
   8.113559e+01  -1.476252e+02
   1.152886e+02  -3.491656e+01
   7.149402e+01   3.500376e+01
   3.285727e+01   2.474169e+01
   4.778620e+01  -1.447900e+01
   7.889505e+01  -1.100391e+01
   5.695382e+01   5.048368e+01
  -3.209445e+01   1.011077e+02
  -1.111851e+02   6.503981e+01
  -9.928886e+01  -4.118469e+01
   1.719102e+01  -1.226295e+02
   1.529170e+02  -8.675487e+01
   1.902264e+02   5.705173e+01
   7.844846e+01   1.944677e+02
  -1.066392e+02   2.100591e+02
  -2.334471e+02   8.941595e+01
  -2.212518e+02  -6.469073e+01
  -9.897018e+01  -1.458030e+02
   2.665731e+01  -1.265516e+02
   6.822307e+01  -7.292025e+01
   5.062512e+01  -6.513465e+01
   3.832967e+01  -8.810680e+01
   7.528286e+01  -8.075517e+01
   1.227190e+02   7.421764e+00
   1.150896e+02   1.317418e+02
   3.310897e+01   1.969435e+02
  -8.311576e+01   1.483364e+02
  -1.501657e+02   1.542565e+01
  -1.164794e+02  -1.090298e+02
  -1.383936e+01  -1.368538e+02
   6.537209e+01  -7.214370e+01
   5.837870e+01   1.243720e+01
  -4.815471e-01   5.048173e+01
  -2.425393e+01   3.278622e+01
   2.283716e+01   7.855447e+00
   7.403178e+01   1.072931e+01
   4.532152e+01   3.555820e+01
  -6.808830e+01   3.779345e+01
  -1.595117e+02   4.496439e-02
  -1.293203e+02  -5.528223e+01
   3.775533e-01  -8.953457e+01
   1.177397e+02  -7.088322e+01
   1.298289e+02  -8.537598e+00
   4.279040e+01   4.364917e+01
  -4.998501e+01   4.051830e+01
  -7.133892e+01  -1.489528e+01
  -2.143145e+01  -6.712663e+01
   3.670987e+01  -6.170875e+01
   6.202980e+01  -4.844280e+00
   5.715355e+01   4.286943e+01
   4.467678e+01   3.477707e+01
   4.905237e+01  -1.635868e+00
   5.486490e+01  -1.691995e+00
   4.416141e+01   6.318034e+01
  -1.455623e+01   1.411091e+02
  -1.028413e+02   1.376500e+02
  -1.608699e+02   3.743277e+01
  -1.220716e+02  -7.972441e+01
  -4.409941e+00  -1.193949e+02
   8.454448e+01  -6.624205e+01
   5.842201e+01   6.248916e+00
  -5.147896e+01   2.298633e+01
  -1.209937e+02  -2.737840e+01
  -6.493794e+01  -9.054240e+01
   7.496044e+01  -1.001373e+02
   1.693615e+02  -4.838838e+01
   1.438284e+02   2.332315e+01
   3.282991e+01   7.288483e+01
  -5.516584e+01   5.670894e+01
  -4.199665e+01  -7.066075e-01
   3.816529e+01  -3.313881e+01
   8.684699e+01   1.327340e+01
   4.270959e+01   1.044676e+02
  -6.223921e+01   1.468610e+02
  -1.374098e+02   7.317536e+01
  -1.161771e+02  -7.534511e+01
  -2.299803e+01  -1.719917e+02
   6.631430e+01  -1.316613e+02
   9.305217e+01   7.219831e+00
   5.228298e+01   1.055407e+02
  -1.059224e+01   9.156180e+01
  -4.692571e+01   1.289974e+01
  -4.064688e+01  -2.938098e+01
  -1.333461e+01  -7.438304e+00
  -3.650815e+00   1.683750e+01
  -3.065934e+01  -1.757244e+01
  -5.779971e+01  -7.697027e+01
  -3.394333e+01  -9.248225e+01
   4.792637e+01  -4.364489e+01
   1.211002e+02   2.451656e+01
   1.101683e+02   5.582110e+01
   1.992912e+01   4.702776e+01
  -6.889096e+01   2.533719e+01
  -7.465827e+01   4.137415e+00
  -1.643707e+01  -1.171696e+01
   2.922116e+01  -2.068905e+01
   1.939958e+01  -9.724160e+00
  -1.093344e+01   5.611889e+00
   2.309847e+00   2.273654e+00
   6.043256e+01  -8.436219e+00
   8.711587e+01   1.682277e+01
   2.710716e+01   7.795918e+01
  -9.023785e+01   1.208710e+02
  -1.694906e+02   7.488496e+01
  -1.448268e+02  -4.602489e+01
  -4.207945e+01  -1.470727e+02
   6.066166e+01  -1.457646e+02
   1.026023e+02  -6.533899e+01
   7.590304e+01   1.840660e+01
   2.648591e+01   3.681362e+01
   2.159252e+00   1.344991e+01
   1.154718e+01   6.059937e+00
   2.590188e+01   4.154286e+01
   2.039378e+01   7.966978e+01
  -2.082673e+01   6.619344e+01
  -7.096524e+01  -5.339552e+00
  -8.134876e+01  -8.393887e+01
  -2.271408e+01  -1.003032e+02
   6.739331e+01  -3.746829e+01
   1.046908e+02   5.043991e+01
   4.444805e+01   9.304301e+01
  -5.571324e+01   6.597459e+01
  -9.602343e+01  -8.446021e-01
  -4.545562e+01  -5.288132e+01
   2.977178e+01  -5.828995e+01
   3.745752e+01  -2.598707e+01
  -2.090199e+01   8.612999e+00
  -6.133768e+01   1.245590e+01
  -2.004412e+01  -2.582856e+01
   6.524255e+01  -6.355669e+01
   1.045692e+02  -5.044234e+01
   6.636152e+01   1.330109e+01
  -5.677370e+00   7.770882e+01
  -5.001120e+01   7.715586e+01
  -4.366895e+01   1.281648e+01
  -1.041361e+01  -4.838031e+01
   2.068193e+01  -4.577666e+01
   3.560345e+01   8.210127e+00
   2.715759e+01   4.820948e+01
  -7.570385e-01   3.612863e+01
  -3.037855e+01  -4.028562e+00
  -3.554615e+01  -2.242565e+01
  -1.482142e+01  -4.160264e+00
   5.643054e+00   1.942230e+01
   4.363201e+00   1.095029e+01
  -9.380391e+00  -2.650329e+01
  -4.173566e+00  -4.962858e+01
   2.544075e+01  -2.559841e+01
   4.402748e+01   2.835559e+01
   1.836167e+01   5.765533e+01
  -3.605747e+01   2.860388e+01
  -6.204428e+01  -2.412592e+01
  -2.271453e+01  -5.291289e+01
   4.965865e+01  -3.621043e+01
   8.417679e+01   4.417560e+00
   4.805161e+01   3.611906e+01
  -2.199451e+01   4.250547e+01
  -5.671026e+01   2.747354e+01
  -2.648488e+01   5.788619e+00
   2.412346e+01  -6.770098e+00
   3.103719e+01   2.826861e+00
  -1.547423e+01   2.658907e+01
  -6.782800e+01   2.567547e+01
