
 $NMID
 id='ANONYMOUS ', fmtdat='(2E16.6)'
 volume=1.0
 tramp=1.0
 $END
   2.154236e+03   3.994298e+01
   1.420338e+03   1.048304e+03
   1.946469e+01   1.422789e+03
  -8.575256e+02   8.727084e+02
  -6.001132e+02   2.365575e+02
  -3.347664e+01  -8.517073e+01
   1.900276e+02   5.707508e+01
  -5.509641e+01   3.459858e+02
  -3.552160e+02   3.854973e+02
  -4.276459e+02   7.984501e+01
  -3.002409e+02  -3.109948e+02
  -3.658780e+01  -4.065771e+02
   1.515524e+02  -1.231157e+02
   1.346470e+02   2.662429e+02
  -8.838278e+01   3.762304e+02
  -2.657481e+02   6.642547e+01
  -1.991264e+02  -3.185239e+02
   6.782211e+01  -4.304337e+02
   3.082056e+02  -1.970484e+02
   3.090233e+02   1.080091e+02
   1.006054e+02   2.530738e+02
  -6.247382e+01   1.772105e+02
  -2.227628e+01   5.827124e+01
   1.384824e+02   7.338083e+01
   1.670684e+02   2.213651e+02
  -4.251154e+01   2.607231e+02
  -3.213795e+02   9.109900e+01
  -3.770817e+02  -1.647429e+02
  -1.238395e+02  -2.305708e+02
   2.157823e+02  -9.638701e+01
   2.984478e+02   1.159948e+02
   9.800903e+01   2.524724e+02
  -1.920296e+02   2.305250e+02
  -2.975964e+02   6.752705e+01
  -2.204477e+02  -1.129460e+02
  -5.878974e+01  -2.057120e+02
   1.238666e+01  -1.170923e+02
  -4.154279e+01   6.299062e+01
  -1.277491e+02   8.912868e+01
  -1.192254e+02  -9.965111e+01
   1.328595e+01  -3.380021e+02
   1.715463e+02  -2.674542e+02
   2.093919e+02   2.273476e+01
   7.717825e+01   2.069999e+02
  -9.109061e+01   7.937368e+01
  -9.524886e+01  -1.932496e+02
   9.522220e+01  -2.628095e+02
   3.163276e+02  -1.696758e+01
   3.379750e+02   2.856677e+02
   1.017129e+02   3.476103e+02
  -2.125513e+02   1.819683e+02
  -3.510957e+02  -4.419882e+01
  -2.129639e+02  -1.696207e+02
   4.338502e+01  -1.556753e+02
   2.032405e+02  -6.476772e+01
   1.562260e+02   3.824707e+00
   1.356895e+01   1.297455e+01
  -2.200266e+01  -1.001193e+01
   7.262016e+01  -2.668881e+01
   1.467240e+02   3.087770e+01
   8.200810e+01   1.267990e+02
  -1.077850e+02   1.619637e+02
  -2.431672e+02   8.391539e+01
  -1.883474e+02  -7.967292e+01
   2.907861e+01  -2.395767e+02
   2.264299e+02  -2.612914e+02
   2.712398e+02  -9.935726e+01
   1.596455e+02   1.192317e+02
   3.325638e+01   2.386440e+02
  -7.357799e+00   2.213939e+02
   2.875791e+00   1.352722e+02
  -2.309668e+01   9.214424e+01
  -1.020880e+02   8.182781e+01
  -1.800449e+02   2.471411e+01
  -1.614741e+02  -9.853753e+01
  -4.669288e+01  -1.762988e+02
   7.877071e+01  -1.183054e+02
   1.295772e+02   3.878806e+01
   8.040095e+01   1.655484e+02
  -4.467685e+01   1.576417e+02
  -1.638433e+02   2.595460e+01
  -1.876545e+02  -1.260788e+02
  -9.389384e+01  -2.034886e+02
   3.765614e+01  -1.895061e+02
   1.035547e+02  -1.172251e+02
   9.742631e+01  -6.456338e+01
   1.139575e+02  -4.164297e+01
   2.009947e+02  -1.479122e+01
   2.830491e+02   6.845548e+01
   2.113072e+02   2.002796e+02
  -3.597640e+01   2.882319e+02
  -2.725499e+02   2.534970e+02
  -3.182534e+02   1.042145e+02
  -1.868314e+02  -7.176633e+01
  -5.467545e+00  -1.695368e+02
   7.009075e+01  -1.334424e+02
   8.399169e+00  -2.892950e+01
  -7.673986e+01   8.949223e+00
  -8.341358e+01  -3.215780e+01
  -1.248864e+00  -9.239517e+01
   7.304228e+01  -6.961906e+01
   6.642365e+01   2.928928e+01
  -1.975492e+01   8.012536e+01
  -1.015544e+02  -6.582933e+00
  -9.183709e+01  -1.565312e+02
   2.093303e+01  -2.279447e+02
   1.651684e+02  -1.411602e+02
   2.406294e+02   4.272250e+01
   1.884521e+02   1.817128e+02
   4.030252e+01   1.879493e+02
  -9.114584e+01   9.760969e+01
  -1.030247e+02   4.008879e+00
  -2.714113e+01  -1.513317e+01
   3.253129e+01   4.171579e+01
  -6.321118e+00   7.464983e+01
  -8.914836e+01   4.098386e+01
  -9.996467e+01  -2.052569e+01
  -2.140468e+01  -3.481364e+01
   5.410951e+01   1.514054e+01
   2.142935e+01   6.771425e+01
  -1.079834e+02   5.788240e+01
  -2.095358e+02  -2.332969e+01
  -1.784675e+02  -1.273696e+02
  -1.505096e+01  -1.799515e+02
   1.444288e+02  -1.435877e+02
   1.827745e+02  -4.354939e+01
   8.791560e+01   4.219411e+01
  -2.771667e+01   4.853390e+01
  -4.750977e+01  -1.325834e+01
   3.727476e+01  -5.765095e+01
   1.286163e+02  -1.587378e+01
   1.220097e+02   7.672678e+01
   3.060145e+01   1.242448e+02
  -6.372820e+01   8.824094e+01
  -8.045233e+01   1.051809e+01
  -2.534925e+01  -1.668246e+01
   3.051730e+01   2.097096e+01
   1.060463e+01   7.844931e+01
  -7.614033e+01   7.910004e+01
  -1.507693e+02   1.731813e+00
  -1.200843e+02  -9.729038e+01
   2.335113e+00  -1.387781e+02
   1.099967e+02  -9.357568e+01
   1.128744e+02  -1.647765e+00
   2.888491e+01   6.393994e+01
  -4.731658e+01   6.329380e+01
  -4.572838e+01   1.706818e+01
   2.532716e+00  -1.372437e+01
   2.515208e+01  -3.610208e+00
  -8.124810e+00   1.736251e+01
  -6.200818e+01   6.950020e-02
  -6.915343e+01  -6.296869e+01
  -1.682502e+00  -1.208003e+02
   1.019015e+02  -1.020631e+02
   1.637751e+02  -7.657470e-01
   1.283263e+02   1.151194e+02
   2.105757e+01   1.563845e+02
  -6.689336e+01   1.063849e+02
  -8.644873e+01   2.140062e+01
  -5.058351e+01  -2.689460e+01
  -2.533326e+01  -1.686624e+01
  -3.990263e+01   1.041320e+01
  -6.156198e+01   1.384355e+00
  -4.000629e+01  -4.034614e+01
   2.706554e+01  -7.114715e+01
   8.651272e+01  -4.526360e+01
   7.357663e+01   3.111904e+01
  -1.305913e+01   8.767811e+01
  -1.120651e+02   5.676196e+01
  -1.397033e+02  -5.001045e+01
  -4.971636e+01  -1.482204e+02
   9.204123e+01  -1.451037e+02
   1.860913e+02  -4.450024e+01
   1.625766e+02   6.936483e+01
   6.211570e+01   1.150922e+02
  -3.135923e+01   9.172112e+01
  -6.424932e+01   5.274573e+01
  -5.006059e+01   4.721383e+01
  -4.035001e+01   6.449346e+01
  -6.216395e+01   5.289508e+01
  -8.826099e+01  -1.625901e+01
  -7.667791e+01  -1.093421e+02
  -1.424302e+01  -1.589380e+02
   7.325652e+01  -1.139471e+02
   1.177358e+02  -4.250456e+00
   8.561466e+01   9.056503e+01
   3.755358e+00   1.090809e+02
  -5.547999e+01   5.445922e+01
  -4.542094e+01  -1.354018e+01
   5.231721e+00  -4.170348e+01
   2.346457e+01  -2.692941e+01
  -1.205851e+01  -7.477934e+00
  -5.462781e+01  -8.798312e+00
  -3.359702e+01  -2.355747e+01
   4.939493e+01  -2.299681e+01
   1.180925e+02   8.324600e+00
   9.567828e+01   4.569797e+01
  -6.300834e+00   6.357055e+01
  -9.377982e+01   4.301804e+01
  -9.545405e+01   3.173325e-01
  -2.518201e+01  -3.341966e+01
   4.072868e+01  -2.732682e+01
   5.347732e+01   1.335943e+01
   1.427087e+01   5.171087e+01
  -3.124243e+01   4.615536e+01
  -4.716018e+01   1.895436e+00
  -4.135900e+01  -3.410690e+01
  -3.369432e+01  -2.935355e+01
  -4.107331e+01   2.551403e+00
  -4.745837e+01   6.529075e-02
  -3.257455e+01  -5.082350e+01
   1.884477e+01  -1.053698e+02
   9.220011e+01  -1.009026e+02
   1.260378e+02  -1.956373e+01
   8.542750e+01   6.830534e+01
  -7.685121e+00   9.175653e+01
  -6.894305e+01   4.590074e+01
  -4.055981e+01  -7.686365e+00
   4.427773e+01  -1.308042e+01
   9.514744e+01   3.059737e+01
   4.632810e+01   7.715565e+01
  -6.507434e+01   8.075014e+01
  -1.357301e+02   3.128941e+01
  -1.114327e+02  -2.756971e+01
  -2.182313e+01  -5.954418e+01
   4.454890e+01  -3.977484e+01
   3.385101e+01   3.380032e+00
  -2.838362e+01   2.242197e+01
  -6.331823e+01  -1.385372e+01
  -2.673948e+01  -7.933866e+01
   5.297005e+01  -1.041036e+02
   1.050737e+02  -4.538529e+01
   8.199930e+01   6.404851e+01
   9.015044e+00   1.289961e+02
  -5.581907e+01   9.573971e+01
  -7.000892e+01  -6.617769e+00
  -3.567690e+01  -8.099712e+01
   1.161659e+01  -7.000429e+01
   3.378013e+01  -9.618456e+00
   2.644751e+01   2.253181e+01
   7.903852e+00   6.192192e+00
   4.302410e+00  -1.020372e+01
   2.133909e+01   1.528953e+01
   3.596770e+01   6.180825e+01
   1.677818e+01   6.994056e+01
  -3.991893e+01   2.789170e+01
  -8.698338e+01  -2.504731e+01
  -7.869865e+01  -4.699869e+01
  -1.332002e+01  -3.659058e+01
   5.083960e+01  -1.709331e+01
   5.877623e+01  -1.405012e+00
   1.725517e+01   8.451423e+00
  -1.976975e+01   1.454557e+01
  -1.535864e+01   8.896551e+00
   6.635489e+00  -2.916382e+00
  -1.588242e+00  -2.513789e+00
  -4.295339e+01   1.695687e+00
  -6.223076e+01  -1.670568e+01
  -1.731332e+01  -5.416798e+01
   7.104241e+01  -7.798254e+01
   1.277057e+02  -4.130129e+01
   1.044054e+02   4.105839e+01
   2.067519e+01   1.051344e+02
  -5.914027e+01   1.022795e+02
  -8.351089e+01   4.197319e+01
  -5.938693e+01  -1.496154e+01
  -1.797762e+01  -2.663027e+01
  -8.036424e-01  -8.840799e+00
  -8.278392e+00  -7.065712e+00
  -1.938767e+01  -3.659527e+01
  -1.128739e+01  -6.381091e+01
   1.925672e+01  -4.802329e+01
   5.282412e+01   1.207806e+01
   5.414054e+01   6.947397e+01
   1.141329e+01   7.453696e+01
  -4.936731e+01   2.291384e+01
  -7.287797e+01  -4.304822e+01
  -2.811406e+01  -6.877884e+01
   4.391543e+01  -4.633571e+01
   7.137496e+01   4.404939e+00
   3.305836e+01   4.148403e+01
  -2.457815e+01   4.245218e+01
  -3.180172e+01   2.021028e+01
   1.547550e+01  -3.702746e+00
   4.429944e+01  -4.051668e+00
   1.231003e+01   1.872910e+01
  -5.490480e+01   4.202164e+01
  -8.211937e+01   3.202250e+01
  -4.691044e+01  -1.463455e+01
   1.033330e+01  -5.530390e+01
   4.057628e+01  -5.457673e+01
   3.208134e+01  -9.414830e+00
   4.439404e+00   3.581762e+01
  -1.785378e+01   3.380256e+01
  -2.554617e+01  -7.169806e+00
  -1.795752e+01  -3.772403e+01
   1.043191e+00  -2.815225e+01
   2.184531e+01   2.315799e+00
   2.707847e+01   1.723157e+01
   1.402406e+01   2.885942e+00
  -1.410423e+00  -1.560593e+01
  -2.128296e+00  -7.464469e+00
   4.575091e+00   2.139105e+01
   2.524940e-01   3.710267e+01
  -1.885202e+01   1.769491e+01
  -2.888155e+01  -2.192525e+01
  -1.080539e+01  -4.151783e+01
   2.676651e+01  -1.870211e+01
   4.453821e+01   2.003290e+01
   1.501413e+01   3.756627e+01
  -3.653533e+01   2.554541e+01
  -6.221143e+01  -4.990194e+00
  -3.371041e+01  -2.774997e+01
   1.876147e+01  -3.016176e+01
   4.475686e+01  -1.756910e+01
   2.196591e+01  -4.805050e+00
  -1.701650e+01   3.439005e+00
  -2.282908e+01  -1.562670e+00
   1.146886e+01  -1.487057e+01
   5.069401e+01  -1.298595e+01
