
 $NMID
 id='ANONYMOUS ', fmtdat='(2E16.6)'
 volume=1.0
 tramp=1.0
 $END
  -2.472522e+03  -1.954140e+02
  -1.813246e+03  -1.124706e+03
  -1.849594e+02  -1.486027e+03
   8.203448e+02  -1.109486e+03
   7.494836e+02  -3.571562e+02
   1.565565e+02   7.681140e+01
  -1.867728e+02  -3.247249e+01
  -5.524216e+01  -3.526595e+02
   2.727863e+02  -4.211108e+02
   4.688458e+02  -1.164990e+02
   3.895676e+02   3.600723e+02
   8.423812e+01   5.094534e+02
  -1.788375e+02   1.909618e+02
  -2.014403e+02  -2.801073e+02
   4.431791e+01  -4.169532e+02
   3.096875e+02  -8.698644e+01
   2.800673e+02   3.685221e+02
  -2.819607e+01   5.277427e+02
  -3.543534e+02   2.866926e+02
  -3.870859e+02  -7.379336e+01
  -1.308306e+02  -2.610578e+02
   9.378264e+01  -1.973835e+02
   6.060411e+01  -5.595290e+01
  -1.813171e+02  -7.710240e+01
  -2.536213e+02  -2.328782e+02
  -1.313523e+00  -2.967481e+02
   4.046902e+02  -9.796436e+01
   5.151437e+02   1.607700e+02
   1.770597e+02   2.873747e+02
  -2.614520e+02   1.520312e+02
  -3.959500e+02  -9.724955e+01
  -1.636838e+02  -2.677176e+02
   1.922678e+02  -2.695422e+02
   3.524273e+02  -1.115383e+02
   2.693093e+02   1.163511e+02
   8.386234e+01   2.457450e+02
  -4.543687e+00   1.518535e+02
   5.668272e+01  -7.821743e+01
   1.587919e+02  -1.216562e+02
   1.542927e+02   1.247969e+02
  -1.844137e+01   4.063047e+02
  -1.847940e+02   3.454487e+02
  -2.096427e+02   8.479523e+00
  -5.043766e+01  -2.178376e+02
   1.162366e+02  -9.548947e+01
   1.205657e+02   2.101147e+02
  -1.064603e+02   3.041651e+02
  -3.487940e+02   6.491023e+01
  -3.810737e+02  -2.829989e+02
  -1.434399e+02  -3.981029e+02
   2.287739e+02  -2.328575e+02
   4.268725e+02   2.431129e+01
   3.016403e+02   1.824951e+02
   1.076124e+01   1.818388e+02
  -1.981712e+02   8.944179e+01
  -1.706957e+02   1.648304e+01
  -2.233111e+01   3.825166e+00
   2.421348e+01   3.505772e+01
  -7.900129e+01   4.437364e+01
  -1.691394e+02  -2.324598e+01
  -1.000923e+02  -1.520382e+02
   1.132404e+02  -2.310902e+02
   2.837945e+02  -1.506558e+02
   2.559350e+02   6.947480e+01
   1.424260e+01   2.951185e+02
  -2.279681e+02   3.452802e+02
  -3.230767e+02   1.460280e+02
  -2.101141e+02  -1.294678e+02
  -5.105866e+01  -2.998360e+02
   2.259107e+01  -2.608071e+02
   1.419817e+01  -1.514150e+02
   2.526156e+01  -1.008508e+02
   1.145010e+02  -1.133884e+02
   2.138327e+02  -5.213772e+01
   2.110198e+02   1.036878e+02
   8.357897e+01   2.210343e+02
  -7.999846e+01   1.612455e+02
  -1.628048e+02  -4.123784e+01
  -1.211984e+02  -2.131936e+02
   3.408474e+01  -2.130844e+02
   2.088792e+02  -5.715470e+01
   2.648924e+02   1.321202e+02
   1.595111e+02   2.339461e+02
  -2.675219e+01   2.108937e+02
  -1.245038e+02   1.355358e+02
  -1.142326e+02   8.591003e+01
  -1.260466e+02   7.645452e+01
  -2.525826e+02   4.392672e+01
  -3.637994e+02  -7.462426e+01
  -2.929825e+02  -2.574523e+02
   3.530477e+00  -3.853673e+02
   3.154663e+02  -3.474982e+02
   4.004319e+02  -1.614604e+02
   2.390963e+02   7.782329e+01
   2.057559e+01   2.097794e+02
  -7.923143e+01   1.605118e+02
  -8.907671e+00   2.373684e+01
   9.824723e+01  -3.845335e+01
   1.062433e+02   3.592785e+01
   7.283169e+00   1.096986e+02
  -8.308631e+01   7.800212e+01
  -7.904820e+01  -4.627895e+01
   2.456297e+01  -1.070426e+02
   1.364174e+02  -3.158418e-01
   1.402032e+02   1.975853e+02
  -4.277795e+00   2.992719e+02
  -2.044481e+02   1.991660e+02
  -3.189544e+02  -3.479636e+01
  -2.494413e+02  -2.179901e+02
  -5.726135e+01  -2.348387e+02
   1.054188e+02  -1.251205e+02
   1.211418e+02  -9.468697e+00
   1.960048e+01   8.387363e+00
  -4.812806e+01  -5.308669e+01
   4.404592e+00  -9.790163e+01
   1.018015e+02  -5.801744e+01
   1.130069e+02   2.355471e+01
   1.897408e+01   4.777759e+01
  -7.389076e+01  -9.787515e+00
  -3.424314e+01  -8.226133e+01
   1.304051e+02  -8.307371e+01
   2.655871e+02   8.852802e+00
   2.213790e+02   1.443595e+02
   2.373017e+01   2.346024e+02
  -1.716440e+02   2.108798e+02
  -2.195551e+02   9.162439e+01
  -1.147809e+02  -3.255636e+01
   2.462190e+01  -5.739330e+01
   4.755771e+01   1.168136e+01
  -5.248126e+01   7.222808e+01
  -1.597359e+02   2.862437e+01
  -1.592895e+02  -8.726142e+01
  -5.170583e+01  -1.564310e+02
   6.810784e+01  -1.108720e+02
   9.647077e+01  -1.004893e+01
   3.335722e+01   3.512848e+01
  -4.314447e+01  -1.876108e+01
  -2.941092e+01  -1.026202e+02
   8.177725e+01  -1.158292e+02
   1.837827e+02  -1.565489e+01
   1.632262e+02   1.170852e+02
   1.831366e+01   1.838998e+02
  -1.279012e+02   1.352640e+02
  -1.474357e+02   1.661755e+01
  -5.180576e+01  -7.429007e+01
   4.597912e+01  -7.459382e+01
   5.921729e+01  -1.804969e+01
   1.762464e-01   2.369254e+01
  -3.727438e+01   7.799165e+00
   2.054767e+00  -2.775643e+01
   7.919830e+01  -8.894092e+00
   1.046863e+02   7.622998e+01
   2.385245e+01   1.572576e+02
  -1.183481e+02   1.451644e+02
  -2.115374e+02   1.879346e+01
  -1.767216e+02  -1.313322e+02
  -4.365541e+01  -1.977796e+02
   8.291431e+01  -1.419854e+02
   1.150056e+02  -3.170805e+01
   6.965862e+01   3.743957e+01
   2.908314e+01   2.729158e+01
   4.142331e+01  -1.364889e+01
   7.527410e+01  -1.275025e+01
   5.790287e+01   4.550213e+01
  -2.297256e+01   9.634061e+01
  -1.061846e+02   7.169827e+01
  -1.040863e+02  -3.065650e+01
   4.427052e+00  -1.199077e+02
   1.404655e+02  -9.258633e+01
   1.850843e+02   4.565079e+01
   8.606336e+01   1.798654e+02
  -9.670412e+01   1.961975e+02
  -2.241071e+02   8.127080e+01
  -2.129271e+02  -6.393808e+01
  -8.939314e+01  -1.402442e+02
   2.687064e+01  -1.176366e+02
   7.045800e+01  -7.159750e+01
   5.085418e+01  -5.995699e+01
   4.087835e+01  -8.292675e+01
   7.140421e+01  -7.656535e+01
   1.157587e+02   4.130344e+00
   1.124437e+02   1.256884e+02
   3.529086e+01   1.915551e+02
  -8.024385e+01   1.477839e+02
  -1.481705e+02   1.809984e+01
  -1.139039e+02  -1.041039e+02
  -1.149654e+01  -1.354767e+02
   6.381623e+01  -7.298826e+01
   5.571282e+01   1.033837e+01
  -1.121017e+00   4.829231e+01
  -2.322775e+01   3.330218e+01
   2.239361e+01   6.423814e+00
   7.655928e+01   8.989833e+00
   4.909137e+01   3.627293e+01
  -6.366279e+01   4.885819e+01
  -1.566103e+02   1.435316e+01
  -1.327085e+02  -5.078958e+01
  -6.461394e+00  -9.169568e+01
   1.083419e+02  -7.385991e+01
   1.226608e+02  -8.009241e+00
   3.952519e+01   4.890466e+01
  -4.913689e+01   4.110782e+01
  -6.828350e+01  -1.446392e+01
  -2.339639e+01  -6.499788e+01
   3.239077e+01  -5.788192e+01
   5.967724e+01  -2.014804e+00
   5.235710e+01   4.343472e+01
   3.778295e+01   3.672743e+01
   3.757189e+01  -4.555244e+00
   5.424833e+01  -6.188930e+00
   4.581615e+01   6.011499e+01
  -1.096618e+01   1.348032e+02
  -1.048513e+02   1.330967e+02
  -1.588607e+02   4.169860e+01
  -1.229438e+02  -7.451370e+01
  -1.401059e+01  -1.176640e+02
   7.431101e+01  -6.958650e+01
   5.420754e+01   3.375796e+00
  -4.404559e+01   2.157189e+01
  -1.150264e+02  -2.602157e+01
  -6.710622e+01  -8.667383e+01
   5.760214e+01  -9.484432e+01
   1.536714e+02  -4.878658e+01
   1.372553e+02   2.839354e+01
   3.281423e+01   7.064450e+01
  -5.061117e+01   5.360854e+01
  -4.372634e+01  -2.112180e-01
   3.280109e+01  -2.828953e+01
   8.373761e+01   1.013866e+01
   4.423130e+01   9.347281e+01
  -5.199879e+01   1.360664e+02
  -1.271389e+02   7.380566e+01
  -1.160319e+02  -6.375579e+01
  -2.715595e+01  -1.602619e+02
   6.495098e+01  -1.257105e+02
   9.243173e+01   3.868288e+00
   5.368604e+01   1.000140e+02
  -8.873230e+00   8.915406e+01
  -4.626301e+01   1.507721e+01
  -3.668265e+01  -2.557923e+01
  -9.344257e+00  -5.294676e+00
  -4.724011e+00   1.345950e+01
  -2.971299e+01  -1.650053e+01
  -5.289330e+01  -7.145973e+01
  -2.576431e+01  -8.512860e+01
   4.869376e+01  -3.874700e+01
   1.134897e+02   2.328344e+01
   1.018932e+02   5.609657e+01
   1.722649e+01   5.141169e+01
  -6.742922e+01   2.907475e+01
  -7.504289e+01   5.090093e+00
  -1.797590e+01  -1.577224e+01
   2.797559e+01  -2.101395e+01
   1.820648e+01  -7.388420e+00
  -1.153885e+01   5.641157e+00
   2.024702e-01   1.188031e+00
   5.399888e+01  -6.052749e+00
   7.981838e+01   1.240870e+01
   2.432019e+01   6.630671e+01
  -8.385646e+01   1.021372e+02
  -1.520415e+02   6.708215e+01
  -1.286038e+02  -3.634345e+01
  -3.947960e+01  -1.282904e+02
   5.245817e+01  -1.364218e+02
   9.085711e+01  -6.571174e+01
   6.644688e+01   1.188127e+01
   2.385972e+01   3.365412e+01
   3.510624e+00   1.185587e+01
   1.140147e+01   4.455804e+00
   2.917699e+01   3.888568e+01
   1.985909e+01   7.690306e+01
  -2.186808e+01   6.410730e+01
  -6.809766e+01  -6.721663e+00
  -7.417608e+01  -7.858002e+01
  -2.081242e+01  -9.215769e+01
   6.106760e+01  -3.291984e+01
   9.578541e+01   4.802158e+01
   4.272978e+01   8.600063e+01
  -5.029573e+01   6.374419e+01
  -8.967323e+01   2.730129e+00
  -4.479416e+01  -4.640410e+01
   2.202678e+01  -5.450082e+01
   3.262324e+01  -2.648800e+01
  -1.968857e+01   6.431518e+00
  -5.476024e+01   9.682792e+00
  -1.876226e+01  -2.430464e+01
   6.120683e+01  -6.194096e+01
   9.881729e+01  -5.074957e+01
   6.577112e+01   1.458540e+01
  -4.790729e+00   7.528476e+01
  -4.739226e+01   7.439913e+01
  -4.160123e+01   1.461618e+01
  -1.139875e+01  -4.545544e+01
   1.677167e+01  -4.409638e+01
   3.207406e+01   5.696486e+00
   2.852972e+01   4.374601e+01
   2.941841e+00   3.383611e+01
  -2.713512e+01  -2.621241e+00
  -3.698703e+01  -1.978960e+01
  -1.904097e+01  -1.078253e+00
   3.455907e+00   1.981028e+01
   3.415759e+00   7.935180e+00
  -1.026312e+01  -2.861430e+01
  -7.928193e+00  -4.748459e+01
   1.924119e+01  -2.433031e+01
   3.755647e+01   2.126097e+01
   1.882976e+01   4.595920e+01
  -2.957905e+01   2.296472e+01
  -5.585941e+01  -2.247278e+01
  -1.996137e+01  -4.788265e+01
   4.802483e+01  -3.646060e+01
   8.259308e+01  -8.457553e-02
   4.826481e+01   3.300365e+01
  -1.945284e+01   4.381399e+01
  -5.302665e+01   3.261525e+01
  -2.579209e+01   1.019584e+01
   2.166912e+01  -4.866772e+00
   2.646861e+01   2.080881e+00
  -1.655455e+01   2.200889e+01
  -6.069717e+01   2.275068e+01
