
 $NMID
 id='ANONYMOUS ', fmtdat='(2E16.6)'
 volume=1.0
 tramp=1.0
 $END
   2.042808e+03   1.155526e+02
   1.571013e+03   9.057499e+02
   2.298069e+02   1.223656e+03
  -7.642138e+02   9.469683e+02
  -7.600686e+02   3.503446e+02
  -2.094680e+02  -5.800397e+01
   1.337159e+02  -3.078423e+01
   5.935882e+01   2.507083e+02
  -2.569287e+02   3.219489e+02
  -4.281783e+02   9.294755e+01
  -3.175464e+02  -2.867993e+02
  -5.436534e+01  -4.270025e+02
   1.545677e+02  -1.701666e+02
   1.510550e+02   2.314477e+02
  -5.723249e+01   3.462852e+02
  -2.709777e+02   8.028707e+01
  -2.435991e+02  -3.208731e+02
   3.111785e+01  -4.625483e+02
   2.999379e+02  -2.495423e+02
   3.103878e+02   5.762935e+01
   1.126802e+02   2.195653e+02
  -5.639595e+01   1.715252e+02
  -2.265939e+01   7.840291e+01
   1.365263e+02   1.094610e+02
   1.823337e+02   2.225220e+02
  -3.543661e+01   2.453886e+02
  -3.536561e+02   6.289771e+01
  -4.215558e+02  -1.456660e+02
  -1.337557e+02  -2.438006e+02
   2.311799e+02  -1.153621e+02
   3.412005e+02   1.038434e+02
   1.154332e+02   2.472932e+02
  -1.839583e+02   2.379348e+02
  -3.114198e+02   8.682708e+01
  -2.190321e+02  -1.034317e+02
  -6.863005e+01  -2.034259e+02
  -5.913646e+00  -1.194769e+02
  -6.852331e+01   4.678089e+01
  -1.234352e+02   8.717025e+01
  -1.079274e+02  -1.085059e+02
   3.577925e+01  -3.179341e+02
   1.566719e+02  -2.714588e+02
   1.674628e+02   2.026582e+01
   5.107071e+01   1.920938e+02
  -9.844389e+01   6.862287e+01
  -1.056348e+02  -1.849645e+02
   8.516431e+01  -2.641125e+02
   2.904139e+02  -3.972936e+01
   3.347493e+02   2.676710e+02
   1.390076e+02   3.474826e+02
  -1.763711e+02   1.986338e+02
  -3.512422e+02  -1.227538e+01
  -2.538686e+02  -1.306568e+02
  -1.118496e+01  -1.318888e+02
   1.696837e+02  -6.102324e+01
   1.597043e+02  -9.340052e+00
   2.859227e+01   1.979942e+00
  -7.123801e+00  -2.492476e+01
   7.757532e+01  -2.275675e+01
   1.580238e+02   4.665330e+01
   9.375615e+01   1.450391e+02
  -8.889209e+01   1.927698e+02
  -2.416963e+02   1.351036e+02
  -2.160409e+02  -4.159852e+01
  -1.772809e+01  -2.397561e+02
   1.909855e+02  -2.829632e+02
   2.635794e+02  -1.174536e+02
   1.721803e+02   1.108769e+02
   3.202389e+01   2.364419e+02
  -9.424482e+00   1.990520e+02
   4.048802e+00   1.199652e+02
  -1.033298e+01   9.460253e+01
  -1.025883e+02   9.793911e+01
  -1.809582e+02   3.611827e+01
  -1.671936e+02  -9.166222e+01
  -6.405587e+01  -1.765839e+02
   6.380275e+01  -1.263678e+02
   1.345406e+02   3.210754e+01
   1.047472e+02   1.673530e+02
  -2.555086e+01   1.764992e+02
  -1.763315e+02   5.273433e+01
  -2.249688e+02  -1.115172e+02
  -1.259778e+02  -2.017711e+02
   3.361006e+01  -1.865339e+02
   1.102622e+02  -1.199552e+02
   1.030485e+02  -7.665421e+01
   1.108582e+02  -6.177838e+01
   2.024608e+02  -2.929801e+01
   2.997035e+02   6.235928e+01
   2.419068e+02   1.970871e+02
   8.173113e+00   3.040640e+02
  -2.481989e+02   2.977223e+02
  -3.276869e+02   1.470607e+02
  -2.030221e+02  -5.803778e+01
  -2.117374e+01  -1.743786e+02
   5.935936e+01  -1.409340e+02
  -4.380599e+00  -2.454009e+01
  -8.829265e+01   2.119874e+01
  -8.435142e+01  -3.612292e+01
  -3.492899e-01  -1.021201e+02
   7.590206e+01  -7.503147e+01
   6.852005e+01   3.161706e+01
  -1.491596e+01   8.384962e+01
  -1.086946e+02  -2.881173e+00
  -1.128390e+02  -1.608897e+02
   1.473307e+00  -2.499325e+02
   1.681782e+02  -1.673655e+02
   2.611061e+02   2.945563e+01
   2.026674e+02   1.850254e+02
   3.927748e+01   1.921796e+02
  -9.445111e+01   9.051411e+01
  -1.044270e+02  -9.848981e+00
  -1.953406e+01  -1.508020e+01
   3.897179e+01   4.482261e+01
   1.498778e+00   8.056990e+01
  -8.124696e+01   4.382593e+01
  -9.667349e+01  -2.863624e+01
  -2.255203e+01  -4.418063e+01
   5.611849e+01   6.269264e+00
   2.903560e+01   6.663311e+01
  -1.014876e+02   6.912688e+01
  -2.168568e+02  -1.164376e+01
  -1.948300e+02  -1.225480e+02
  -2.800015e+01  -1.948197e+02
   1.408104e+02  -1.727983e+02
   1.848700e+02  -7.952612e+01
   9.492926e+01   2.400834e+01
  -1.741354e+01   5.049058e+01
  -4.425283e+01  -2.752039e+00
   3.657859e+01  -5.579004e+01
   1.266866e+02  -2.854111e+01
   1.300991e+02   6.241263e+01
   4.396481e+01   1.267045e+02
  -5.823943e+01   9.608210e+01
  -8.689091e+01   1.394263e+01
  -3.027476e+01  -2.957612e+01
   3.742906e+01   1.501270e+01
   2.739964e+01   8.452018e+01
  -6.909520e+01   9.603227e+01
  -1.540202e+02   1.476813e+01
  -1.342942e+02  -9.678796e+01
  -1.721211e+01  -1.464863e+02
   1.008284e+02  -1.080822e+02
   1.210080e+02  -1.371657e+01
   4.170816e+01   6.007224e+01
  -4.335904e+01   6.647823e+01
  -5.206137e+01   1.824457e+01
  -4.858575e-01  -1.822979e+01
   2.939952e+01  -6.295631e+00
  -4.146230e+00   2.350519e+01
  -6.990430e+01   9.553287e+00
  -9.068753e+01  -6.117860e+01
  -2.132087e+01  -1.299127e+02
   9.893832e+01  -1.200833e+02
   1.772873e+02  -1.737466e+01
   1.465102e+02   1.073622e+02
   3.206841e+01   1.628506e+02
  -7.156840e+01   1.147951e+02
  -9.272565e+01   2.452362e+01
  -5.518162e+01  -2.968734e+01
  -2.364897e+01  -1.955668e+01
  -3.670056e+01   1.178516e+01
  -6.112838e+01   9.794037e+00
  -4.585875e+01  -3.811122e+01
   2.031861e+01  -8.158660e+01
   8.802069e+01  -5.949171e+01
   8.680302e+01   2.937667e+01
  -6.058551e+00   1.028205e+02
  -1.227651e+02   7.791503e+01
  -1.618271e+02  -4.359162e+01
  -7.157727e+01  -1.585723e+02
   8.595004e+01  -1.675506e+02
   1.920184e+02  -7.211352e+01
   1.742458e+02   5.623198e+01
   7.205629e+01   1.167845e+02
  -2.368576e+01   9.889726e+01
  -5.576032e+01   5.747439e+01
  -3.868173e+01   4.853110e+01
  -2.907538e+01   6.588831e+01
  -5.572547e+01   6.552971e+01
  -9.635758e+01   1.091617e+00
  -9.627164e+01  -9.876762e+01
  -3.425398e+01  -1.592421e+02
   6.150050e+01  -1.238093e+02
   1.192449e+02  -1.580138e+01
   9.501438e+01   8.375509e+01
   1.458054e+01   1.092728e+02
  -4.936636e+01   6.097457e+01
  -4.849017e+01  -7.356003e+00
  -3.175769e+00  -3.776179e+01
   1.740326e+01  -2.859154e+01
  -1.818073e+01  -8.609313e+00
  -6.334215e+01  -1.330045e+01
  -3.861578e+01  -3.535745e+01
   5.673211e+01  -4.176068e+01
   1.347564e+02  -1.260741e+01
   1.148646e+02   4.330295e+01
   7.080440e+00   7.906098e+01
  -9.382998e+01   6.783048e+01
  -1.055521e+02   1.303197e+01
  -3.498282e+01  -3.707949e+01
   4.139924e+01  -3.646569e+01
   5.711177e+01   7.753881e+00
   1.878055e+01   5.238832e+01
  -2.511100e+01   5.217124e+01
  -4.780071e+01   7.704494e+00
  -4.630510e+01  -3.016120e+01
  -3.712633e+01  -2.514483e+01
  -3.968791e+01   4.347570e+00
  -4.643897e+01  -1.404175e-01
  -3.886384e+01  -5.763122e+01
   8.280563e+00  -1.134809e+02
   8.265556e+01  -1.071656e+02
   1.329038e+02  -3.095596e+01
   1.038164e+02   6.067760e+01
   1.041002e+01   9.472945e+01
  -6.364629e+01   5.648458e+01
  -4.751332e+01  -8.403359e-01
   3.759560e+01  -1.602109e+01
   9.588963e+01   2.063245e+01
   5.360330e+01   7.209620e+01
  -6.328294e+01   8.605774e+01
  -1.412458e+02   4.408866e+01
  -1.160704e+02  -2.559392e+01
  -2.484421e+01  -6.494252e+01
   4.522554e+01  -4.983546e+01
   3.598367e+01   1.603343e-01
  -2.913577e+01   2.734685e+01
  -7.237227e+01  -5.691568e+00
  -4.130866e+01  -8.136782e+01
   4.248259e+01  -1.200560e+02
   1.093488e+02  -6.611573e+01
   9.973849e+01   5.674364e+01
   2.288283e+01   1.381443e+02
  -5.410932e+01   1.027242e+02
  -7.619352e+01  -6.542250e+00
  -4.227769e+01  -8.713354e+01
   9.353321e+00  -7.461539e+01
   3.981039e+01  -9.666484e+00
   3.325450e+01   2.456418e+01
   1.014187e+01   6.584936e+00
   2.126215e+00  -1.074188e+01
   2.182333e+01   1.365005e+01
   4.603387e+01   5.983621e+01
   2.851577e+01   7.092493e+01
  -3.653305e+01   3.473358e+01
  -1.001667e+02  -1.537014e+01
  -9.493321e+01  -4.027780e+01
  -1.755444e+01  -3.951439e+01
   5.564275e+01  -2.438090e+01
   6.080744e+01  -5.764224e+00
   1.178700e+01   9.563898e+00
  -2.578439e+01   1.706115e+01
  -1.443139e+01   8.153752e+00
   1.125577e+01  -4.638094e+00
  -1.125138e+00  -2.278440e+00
  -4.758256e+01   5.557475e+00
  -6.921566e+01  -1.006555e+01
  -2.303118e+01  -5.690353e+01
   6.674050e+01  -9.131138e+01
   1.316921e+02  -6.137128e+01
   1.179327e+02   2.961679e+01
   3.709937e+01   1.131500e+02
  -4.570967e+01   1.207755e+02
  -8.031207e+01   5.833803e+01
  -5.978256e+01  -9.873005e+00
  -2.240502e+01  -2.657528e+01
  -3.143018e+00  -8.963948e+00
  -1.004100e+01  -4.827863e+00
  -2.262436e+01  -3.390867e+01
  -1.713827e+01  -6.403341e+01
   1.515608e+01  -5.360876e+01
   5.625998e+01   4.550859e+00
   6.467380e+01   6.603579e+01
   1.811458e+01   7.715729e+01
  -5.098272e+01   2.883792e+01
  -8.107011e+01  -3.984861e+01
  -3.651685e+01  -7.226760e+01
   4.359238e+01  -5.364128e+01
   7.692446e+01  -9.323350e-01
   3.750843e+01   4.022403e+01
  -2.070297e+01   4.920878e+01
  -2.914486e+01   2.371510e+01
   1.986201e+01  -7.999355e+00
   5.120634e+01  -1.233279e+01
   1.520891e+01   1.874286e+01
  -5.197956e+01   5.239152e+01
  -8.670844e+01   4.855873e+01
  -5.581741e+01  -7.012702e+00
   1.642831e+00  -6.423361e+01
   3.560285e+01  -6.905142e+01
   3.363156e+01  -1.630946e+01
   1.027846e+01   3.588397e+01
  -1.116286e+01   3.771297e+01
  -2.657220e+01  -3.476936e+00
  -2.448546e+01  -3.754499e+01
  -1.973767e+00  -3.108966e+01
   2.398576e+01   1.532885e+00
   3.369828e+01   1.886259e+01
   1.661268e+01   4.564351e+00
  -4.271361e+00  -1.541314e+01
  -5.979678e+00  -7.269114e+00
   6.769289e+00   2.258742e+01
   7.414909e+00   4.025852e+01
  -1.573080e+01   2.182043e+01
  -3.330793e+01  -1.967442e+01
  -1.606105e+01  -4.086644e+01
   2.556515e+01  -2.023283e+01
   4.894673e+01   1.915603e+01
   1.716185e+01   4.260919e+01
  -4.062719e+01   2.925122e+01
  -6.905116e+01  -3.009915e+00
  -4.002974e+01  -2.840076e+01
   1.685292e+01  -3.567675e+01
   4.587965e+01  -2.592501e+01
   2.226445e+01  -7.645575e+00
  -1.731672e+01   5.727904e+00
  -2.241617e+01  -3.204895e-01
   1.349908e+01  -1.807878e+01
   5.105436e+01  -2.050304e+01
