
 $NMID
 id='ANONYMOUS ', fmtdat='(2E16.6)'
 volume=1.0
 tramp=1.0
 $END
  -5.414953e+02  -1.694156e+02
  -3.532700e+02  -2.882521e+02
  -2.062622e+01  -3.803908e+02
   1.488714e+02  -2.598123e+02
   1.237761e+02  -1.618485e+02
  -1.009437e+01  -7.274205e+01
  -6.575234e+01  -5.412127e+01
   1.850374e+01  -1.041558e+02
   7.310821e+01  -1.155201e+02
   1.030243e+02  -3.527958e+01
   6.146387e+01   6.494191e+01
  -4.886064e+00   1.124376e+02
  -2.634561e+01   3.348681e+01
  -3.434100e+01  -6.868619e+01
  -1.989098e+01  -9.246327e+01
   4.065372e+01  -3.209473e+01
   5.670004e+01   8.341665e+01
   8.170758e+00   1.365680e+02
  -7.901136e+01   9.603695e+01
  -1.014520e+02  -3.516991e+00
  -7.801920e+01  -6.114282e+01
  -2.464253e+01  -4.801839e+01
  -1.107631e+01  -2.180993e+01
  -5.060123e+01  -4.261369e+01
  -6.327571e+01  -9.060016e+01
   2.179293e+01  -8.182844e+01
   1.239620e+02  -1.315471e+01
   1.096411e+02   7.047693e+01
   1.892135e+01   6.570879e+01
  -6.821780e+01   1.289287e+01
  -9.602223e+01  -4.573743e+01
  -3.630068e+01  -6.495003e+01
   5.772113e+01  -5.133109e+01
   1.054015e+02  -4.664464e+00
   5.707019e+01   2.714672e+01
   8.083517e+00   4.415974e+01
   4.871462e+00   1.509019e+01
   3.561292e+01   3.632384e+00
   5.230524e+01   1.774902e+01
   1.716257e+01   5.176588e+01
  -1.243467e+01   8.726459e+01
  -4.361168e+01   6.299627e+01
  -5.455964e+01   5.347443e+00
  -2.465327e+01  -2.917254e+01
   1.851717e+01   6.274741e+00
   1.285127e+01   5.754453e+01
  -2.739167e+01   6.563956e+01
  -9.284599e+01   9.760712e+00
  -9.706993e+01  -6.350284e+01
  -3.064960e+01  -8.499314e+01
   5.471414e+01  -3.575404e+01
   8.423269e+01   1.162432e+01
   5.234939e+01   4.676792e+01
   3.439147e+00   3.659248e+01
  -3.055303e+01   2.023378e+01
  -4.193385e+01   1.211396e+01
  -1.134484e+01   1.497634e+00
   6.034525e+00   3.882865e-01
  -8.310055e+00  -1.470770e+00
  -2.863449e+01  -9.013608e+00
  -2.287087e+01  -2.346975e+01
   3.006194e+01  -4.600220e+01
   7.785681e+01  -3.330885e+01
   6.822128e+01   1.556638e+01
  -1.023066e+01   8.280723e+01
  -7.601768e+01   7.775210e+01
  -8.394352e+01   1.808446e+01
  -3.459133e+01  -4.456419e+01
   1.819087e+01  -6.641697e+01
   8.450595e+00  -5.583090e+01
  -9.127877e+00  -2.099702e+01
  -2.875245e+00  -2.087387e+01
   3.774725e+01  -2.657232e+01
   6.659424e+01  -4.099702e+00
   4.279220e+01   3.385102e+01
   6.714181e+00   5.182495e+01
  -2.142354e+01   3.720354e+01
  -3.222376e+01  -1.302232e+01
  -1.276332e+01  -5.498524e+01
   2.282948e+01  -5.790538e+01
   5.932146e+01  -2.018300e+00
   6.118944e+01   5.389110e+01
   2.987040e+01   7.407215e+01
   4.441272e-01   4.952979e+01
  -2.503994e+01   2.461594e+01
  -2.730241e+01   2.262066e+01
  -3.517392e+01   1.713005e+01
  -5.940233e+01   9.471167e-01
  -7.071991e+01  -3.403887e+01
  -4.885737e+01  -6.729219e+01
   1.631532e+01  -8.917959e+01
   7.979387e+01  -7.119453e+01
   1.014794e+02  -2.273778e+01
   5.923450e+01   2.723842e+01
  -4.668591e+00   4.609815e+01
  -1.100880e+01   3.805615e+01
   1.241268e+01   1.588901e+01
   3.635440e+01   1.334075e+01
   1.262506e+01   2.008209e+01
  -1.481684e+01   2.042955e+01
  -2.293422e+01   8.770133e+00
  -1.097672e+01  -1.225294e+01
   1.459066e+01  -1.653369e+01
   2.815271e+01   5.634510e+00
   2.550154e+01   4.720173e+01
  -5.310027e+00   7.249748e+01
  -5.707095e+01   4.140660e+01
  -7.954611e+01  -1.816853e+01
  -5.464486e+01  -6.289379e+01
  -6.728994e+00  -5.673459e+01
   3.056648e+01  -3.074782e+01
   3.021977e+01  -2.829835e+00
   1.011450e+01   1.835899e+00
  -4.694680e+00  -1.823358e+01
   6.904920e+00  -2.319360e+01
   2.687821e+01  -1.007809e+01
   2.845840e+01   7.072245e+00
  -5.118451e-01   7.465368e+00
  -2.351073e+01  -1.213779e+01
  -8.314364e+00  -2.884147e+01
   3.500699e+01  -2.286651e+01
   6.699987e+01   7.570260e+00
   4.939896e+01   4.286890e+01
  -5.726225e+00   5.501613e+01
  -6.073061e+01   3.655069e+01
  -6.404780e+01   3.254250e+00
  -2.395258e+01  -1.832144e+01
   9.042684e+00  -1.467483e+01
   1.208217e+01   2.025488e+00
  -1.387777e+01   1.455526e+01
  -4.141880e+01   5.585940e+00
  -4.055122e+01  -2.536770e+01
  -9.343028e+00  -4.161458e+01
   2.028250e+01  -2.758038e+01
   2.583741e+01   3.240985e+00
   4.222738e+00   1.057167e+01
  -1.356183e+01  -6.459362e+00
  -4.678195e+00  -2.889781e+01
   2.572398e+01  -2.542568e+01
   4.614989e+01   3.395913e-02
   3.310954e+01   3.209796e+01
  -6.923164e+00   4.349687e+01
  -3.711775e+01   2.851587e+01
  -3.592269e+01  -1.483883e+00
  -1.058030e+01  -2.106932e+01
   1.077018e+01  -1.949369e+01
   1.066913e+01  -1.389579e+00
  -4.848294e+00   8.808622e+00
  -1.154442e+01   3.812438e-01
  -8.372157e-01  -9.159576e+00
   1.771416e+01  -1.396593e+00
   2.152217e+01   2.453180e+01
  -3.622294e+00   4.516713e+01
  -4.064532e+01   3.383349e+01
  -5.828977e+01  -6.694924e+00
  -3.933769e+01  -4.610036e+01
  -2.716564e+00  -5.599315e+01
   2.687061e+01  -3.054734e+01
   2.871018e+01  -2.466569e+00
   1.443658e+01   8.362027e+00
   9.186630e+00   5.684989e+00
   1.739623e+01   1.190896e+00
   2.347825e+01   3.523494e+00
   1.385682e+01   1.666006e+01
  -1.312989e+01   2.573755e+01
  -3.425705e+01   1.343773e+01
  -2.599320e+01  -1.283456e+01
   1.037185e+01  -3.061332e+01
   4.444292e+01  -1.387579e+01
   4.310162e+01   2.087905e+01
   7.544498e+00   5.009186e+01
  -3.517742e+01   4.309092e+01
  -5.929507e+01   1.155780e+01
  -5.212663e+01  -2.013730e+01
  -1.835735e+01  -3.549411e+01
   1.372860e+01  -3.175672e+01
   2.062420e+01  -1.684451e+01
   1.620793e+01  -1.186212e+01
   1.010661e+01  -1.867233e+01
   1.868587e+01  -1.706101e+01
   2.911995e+01   4.370775e+00
   2.332358e+01   3.530077e+01
  -3.259890e-01   4.886296e+01
  -2.544917e+01   3.298525e+01
  -3.592627e+01  -2.894169e+00
  -2.288909e+01  -3.470651e+01
   2.859654e+00  -3.613915e+01
   2.177317e+01  -1.665644e+01
   1.442360e+01   4.660378e+00
  -2.243060e+00   1.552605e+01
  -9.102236e+00   9.368910e+00
   5.132945e+00   2.098480e+00
   2.113892e+01   1.411933e+00
   1.009157e+01   6.705191e+00
  -2.065330e+01   6.244162e+00
  -4.683578e+01  -6.544773e+00
  -3.262115e+01  -1.868368e+01
   6.500691e+00  -2.417394e+01
   3.981269e+01  -1.372719e+01
   3.523742e+01   5.387980e+00
   8.273827e+00   1.366493e+01
  -1.671357e+01   8.370968e+00
  -1.645105e+01  -6.048142e+00
  -3.465839e+00  -1.757587e+01
   1.047499e+01  -1.306301e+01
   1.581197e+01   4.117502e-01
   1.528178e+01   1.165685e+01
   1.303340e+01   1.128190e+01
   1.011711e+01   1.019335e+00
   1.534007e+01  -1.032439e+00
   1.557680e+01   1.696733e+01
  -6.674916e+00   3.834637e+01
  -3.479789e+01   3.438086e+01
  -4.676013e+01   2.431282e+00
  -2.878853e+01  -2.795672e+01
   3.736156e+00  -3.407584e+01
   2.280517e+01  -1.421658e+01
   1.517063e+01   3.138505e+00
  -1.004611e+01   1.961439e+00
  -2.371901e+01  -9.761981e+00
  -1.179240e+01  -2.242670e+01
   1.502678e+01  -1.636020e+01
   3.873010e+01   1.860055e+00
   3.327261e+01   1.537641e+01
   1.190006e+00   1.836214e+01
  -2.212031e+01   7.002861e+00
  -1.477878e+01  -5.111799e+00
   8.360565e+00  -7.858625e+00
   2.158703e+01   6.557402e+00
   9.138022e+00   2.606032e+01
  -1.963270e+01   3.323676e+01
  -3.488373e+01   1.413916e+01
  -2.725983e+01  -2.116355e+01
  -3.287166e+00  -4.264308e+01
   1.944220e+01  -2.996499e+01
   2.355940e+01   7.535805e+00
   9.398482e+00   2.873514e+01
  -8.802544e+00   2.145303e+01
  -1.429475e+01  -6.059668e-01
  -8.842074e+00  -7.678843e+00
  -3.093204e+00  -7.065356e-01
  -2.327252e+00   4.057600e+00
  -7.888490e+00  -6.238581e+00
  -1.292001e+01  -2.222796e+01
  -8.664832e+00  -2.426369e+01
   1.257164e+01  -6.952825e+00
   3.032703e+01   1.081360e+01
   2.527953e+01   1.843109e+01
   3.426333e+00   1.154238e+01
  -1.488616e+01   2.352587e+00
  -1.726779e+01  -1.056482e+00
  -5.167591e+00  -1.065507e+00
   6.968231e+00  -2.509420e+00
   5.838794e+00  -3.210733e+00
  -3.132327e+00  -3.417904e-01
   9.984367e-01  -3.916662e-01
   1.556565e+01  -1.521018e-01
   2.341040e+01   5.811464e+00
   5.982580e+00   1.668760e+01
  -2.486159e+01   2.365531e+01
  -4.522403e+01   1.346826e+01
  -3.682555e+01  -1.509427e+01
  -4.062694e+00  -3.806281e+01
   2.314098e+01  -3.474196e+01
   3.006871e+01  -1.300908e+01
   1.697240e+01   5.219557e+00
   4.343363e+00   9.638848e+00
   1.121540e+00   2.752106e+00
   3.021445e+00   2.746055e+00
   2.179711e+00   1.191517e+01
  -1.743648e+00   2.050783e+01
  -9.191458e+00   1.353079e+01
  -1.585708e+01  -5.416580e+00
  -1.400172e+01  -2.344670e+01
  -2.892461e+00  -2.593585e+01
   1.504210e+01  -7.325517e+00
   2.329783e+01   1.309152e+01
   8.360653e+00   2.172526e+01
  -1.499829e+01   1.394044e+01
  -2.229959e+01  -3.392424e+00
  -1.010976e+01  -1.622755e+01
   8.380537e+00  -1.647451e+01
   1.132543e+01  -8.906462e+00
  -2.281676e+00  -8.092333e-01
  -1.552433e+01   1.571228e+00
  -3.748237e+00  -7.520979e+00
   2.186181e+01  -1.179756e+01
   3.047391e+01  -3.445098e+00
   1.703554e+01   8.752164e+00
  -4.752060e+00   1.978689e+01
  -1.795500e+01   1.723350e+01
  -1.089922e+01   2.834582e+00
  -2.057591e+00  -1.175242e+01
   4.523452e+00  -1.208680e+01
   7.233815e+00   1.528379e+00
   6.184863e+00   1.115194e+01
   1.478688e+00   8.466873e+00
  -4.945637e+00  -1.493287e+00
  -6.108665e+00  -5.701264e+00
  -3.755526e+00   3.135523e-01
   1.024744e+00   7.522531e+00
   2.272661e+00   4.544160e+00
  -2.316249e+00  -7.474127e+00
  -2.793108e+00  -1.241545e+01
   3.708815e+00  -6.986145e+00
   9.455462e+00   6.781308e+00
   6.104029e+00   1.469611e+01
  -6.283183e+00   6.148127e+00
  -1.440060e+01  -5.871364e+00
  -5.005558e+00  -1.305769e+01
   1.333396e+01  -6.547230e+00
   2.176673e+01   3.955774e+00
   1.067459e+01   1.231104e+01
  -9.505421e+00   1.114088e+01
  -1.871176e+01   4.613027e+00
  -7.856882e+00   8.313429e-01
   6.669982e+00  -2.390954e+00
   6.492696e+00   3.966848e-01
  -6.609687e+00   5.144029e+00
  -1.720948e+01   4.438625e+00
