
 $NMID
 id='ANONYMOUS ', fmtdat='(2E16.6)'
 volume=1.0
 tramp=1.0
 $END
  -1.043997e+03  -2.285906e+01
  -7.441410e+02  -3.861182e+02
  -1.615646e+02  -6.243398e+02
   1.728892e+02  -3.853494e+02
   2.180832e+02  -1.806056e+02
   5.271175e+01  -2.501793e+01
  -3.802351e+01  -2.940740e+01
  -5.680342e+01  -8.924972e+01
   4.600856e+01  -1.262598e+02
   1.407083e+02  -6.464156e+01
   1.584178e+02   8.311933e+01
   6.766667e+01   1.669869e+02
  -4.166540e+01   8.977264e+01
  -8.611925e+01  -6.276217e+01
  -7.350178e+00  -1.201736e+02
   9.363102e+01  -3.976811e+01
   1.024665e+02   1.031228e+02
  -2.932156e+00   1.662003e+02
  -1.094036e+02   1.115624e+02
  -1.131174e+02  -1.021559e+01
  -5.763567e+01  -7.901852e+01
   3.852939e+00  -8.228651e+01
   1.670694e+00  -6.704025e+01
  -4.480892e+01  -5.054998e+01
  -4.948439e+01  -6.188807e+01
   2.647687e+01  -6.997150e+01
   1.479039e+02  -4.514288e+01
   1.323953e+02   2.581950e+01
   5.730179e+01   8.132956e+01
  -6.223491e+01   5.464696e+01
  -1.066584e+02  -6.884488e+00
  -5.483743e+01  -6.673461e+01
   4.804442e+01  -8.529239e+01
   1.018666e+02  -7.246147e+01
   9.400636e+01   1.047454e+01
   6.452680e+01   7.558902e+01
   4.341714e+01   6.584488e+01
   2.567594e+01   1.210793e+01
   2.840762e+01  -9.337131e+00
   2.524362e+01   2.981517e+01
  -6.033542e+00   1.105630e+02
  -3.563236e+01   1.052113e+02
  -4.912090e+01   1.612203e+01
  -2.527759e+01  -4.520645e+01
   9.675289e+00  -2.761850e+01
   2.115780e+01   4.280540e+01
  -2.547564e+01   7.545184e+01
  -7.158128e+01   2.567312e+00
  -7.137035e+01  -6.941561e+01
  -4.352081e+01  -1.010351e+02
   5.384019e+01  -6.687391e+01
   1.156031e+02  -1.194289e+01
   9.377836e+01   2.585819e+01
   3.305646e+01   3.920548e+01
  -4.715766e+01   3.401257e+01
  -7.224301e+01   2.077996e+01
  -2.750697e+01  -2.898279e-02
   1.595282e+01  -3.904379e+00
  -1.158958e+00   3.145822e+00
  -4.114856e+01  -1.719978e+00
  -3.334250e+01  -3.916975e+01
   2.180022e+01  -6.096701e+01
   8.406733e+01  -4.927919e+01
   6.860141e+01  -2.776654e-02
  -2.568567e-01   7.224175e+01
  -6.635608e+01   1.013637e+02
  -8.724614e+01   6.746754e+01
  -6.469953e+01  -2.559443e+01
  -3.037262e+01  -9.210173e+01
  -1.093507e+01  -9.931506e+01
  -6.057578e+00  -5.880496e+01
   1.038261e+01  -3.531016e+01
   3.816779e+01  -3.685710e+01
   6.375440e+01  -1.473300e+01
   6.073722e+01   2.946453e+01
   2.102088e+01   5.562582e+01
  -1.713011e+01   3.546057e+01
  -3.905356e+01  -2.200207e+01
  -2.780928e+01  -6.352204e+01
   6.202324e+00  -5.828831e+01
   5.435003e+01  -1.595507e+01
   7.622315e+01   2.852375e+01
   4.563954e+01   5.580081e+01
  -6.239908e+00   5.823742e+01
  -3.291483e+01   4.861143e+01
  -3.670689e+01   3.300769e+01
  -3.953226e+01   2.174092e+01
  -7.550096e+01   1.139640e+01
  -1.197836e+02  -2.194250e+01
  -9.588153e+01  -7.181779e+01
   2.137979e+00  -1.066599e+02
   9.218515e+01  -9.887189e+01
   1.103229e+02  -5.797433e+01
   7.170431e+01   1.129041e+01
   9.771846e+00   5.366767e+01
  -9.827962e+00   5.073026e+01
   1.923703e+00   1.352545e+01
   2.681125e+01  -9.845095e+00
   3.037096e+01   7.121143e+00
   6.444615e+00   3.241581e+01
  -1.719143e+01   3.003799e+01
  -2.392553e+01  -1.061032e+01
   1.567192e+00  -2.908674e+01
   2.933003e+01   7.708491e-01
   3.198021e+01   5.672743e+01
  -1.191189e-01   8.804621e+01
  -6.073679e+01   6.053636e+01
  -9.970385e+01  -5.345474e+00
  -8.930849e+01  -6.231133e+01
  -3.234905e+01  -8.006899e+01
   2.700247e+01  -5.032040e+01
   4.216379e+01  -1.151867e+01
   1.168980e+01   3.950197e+00
  -1.092668e+01  -1.150615e+01
  -2.581024e-01  -2.541698e+01
   2.750870e+01  -1.557197e+01
   3.715006e+01   7.710624e+00
   8.945537e+00   1.216541e+01
  -1.551895e+01  -2.317330e+00
  -9.439701e+00  -1.921186e+01
   2.964634e+01  -1.906301e+01
   6.993684e+01   5.395030e+00
   6.917669e+01   4.126621e+01
   1.757010e+01   6.687817e+01
  -4.884306e+01   5.905922e+01
  -7.186376e+01   2.131627e+01
  -3.555338e+01  -9.195971e+00
   6.062428e+00  -1.479045e+01
   1.576169e+01   5.997489e+00
  -1.487976e+01   2.532454e+01
  -4.922732e+01   8.625561e+00
  -4.992601e+01  -2.394719e+01
  -2.252110e+01  -4.634682e+01
   1.786385e+01  -3.770554e+01
   3.194691e+01  -6.479132e+00
   1.670685e+01   9.990843e+00
  -9.288166e+00  -1.648848e+00
  -1.094670e+01  -2.665649e+01
   2.025438e+01  -3.232833e+01
   5.327993e+01  -7.737932e+00
   4.977154e+01   3.044838e+01
   8.481968e+00   5.156456e+01
  -3.690067e+01   4.186513e+01
  -4.477995e+01   9.459853e+00
  -1.517525e+01  -1.950132e+01
   1.851024e+01  -2.071111e+01
   2.119693e+01  -7.821312e+00
   2.065105e+00   6.607632e+00
  -1.056614e+01   5.867401e+00
   2.507707e-01  -5.036782e+00
   2.259028e+01  -1.527026e+00
   3.197262e+01   2.270423e+01
   6.893065e+00   4.568719e+01
  -3.519048e+01   4.203192e+01
  -6.240491e+01   5.145088e+00
  -5.106854e+01  -3.874306e+01
  -1.322272e+01  -5.963274e+01
   2.303232e+01  -4.571152e+01
   3.380375e+01  -1.175466e+01
   2.390280e+01   8.936911e+00
   1.268796e+01   7.201727e+00
   1.541708e+01  -4.711864e+00
   2.139458e+01  -5.603826e+00
   1.814146e+01   1.439892e+01
  -5.916427e+00   3.195403e+01
  -3.153218e+01   2.580334e+01
  -3.411572e+01  -8.609133e+00
  -1.155360e+00  -3.983823e+01
   4.169895e+01  -3.264323e+01
   5.889486e+01   1.097335e+01
   2.851692e+01   5.429490e+01
  -2.466739e+01   5.923094e+01
  -6.558786e+01   2.620271e+01
  -6.553122e+01  -1.407127e+01
  -3.558135e+01  -3.752267e+01
   2.728950e+00  -3.691815e+01
   2.217724e+01  -2.950362e+01
   1.892655e+01  -2.697352e+01
   1.548269e+01  -3.012278e+01
   2.218988e+01  -2.412850e+01
   3.484520e+01   1.770281e+00
   3.405886e+01   3.749513e+01
   1.239779e+01   5.672122e+01
  -1.964518e+01   4.632204e+01
  -4.170681e+01   6.979305e+00
  -3.571976e+01  -2.880603e+01
  -6.798066e+00  -3.829379e+01
   1.722143e+01  -2.005697e+01
   1.636990e+01   2.135753e+00
  -2.307347e-01   1.360251e+01
  -7.722212e+00   1.082676e+01
   6.236216e+00   2.400088e+00
   2.438882e+01   1.304354e+00
   1.807424e+01   8.246812e+00
  -1.390182e+01   1.456391e+01
  -4.634236e+01   5.238768e+00
  -4.350620e+01  -1.430518e+01
  -8.610674e+00  -2.609057e+01
   3.135107e+01  -2.568464e+01
   4.005820e+01  -9.538948e+00
   1.972579e+01   7.474326e+00
  -1.102850e+01   1.425823e+01
  -1.952965e+01  -1.542561e+00
  -8.764770e+00  -1.707950e+01
   9.096631e+00  -1.888938e+01
   1.832106e+01  -4.239226e+00
   2.045490e+01   1.292416e+01
   1.815652e+01   1.360712e+01
   1.513879e+01   5.243672e+00
   1.626890e+01   3.422155e+00
   1.083701e+01   2.155437e+01
  -5.646563e+00   4.107918e+01
  -3.405694e+01   4.241404e+01
  -4.673863e+01   1.457708e+01
  -3.460296e+01  -1.750772e+01
  -8.512581e-01  -3.051619e+01
   2.456564e+01  -1.947734e+01
   1.582619e+01   8.874362e-01
  -1.710546e+01   7.632684e+00
  -3.651823e+01  -4.752288e+00
  -2.062669e+01  -2.020790e+01
   2.094300e+01  -2.636448e+01
   4.883848e+01  -1.706848e+01
   4.051235e+01   3.029543e+00
   1.148305e+01   1.802810e+01
  -1.074164e+01   1.608077e+01
  -8.965316e+00   2.198327e+00
   1.221798e+01  -8.027698e+00
   2.438949e+01   1.958089e+00
   1.303215e+01   2.832078e+01
  -1.567583e+01   4.202477e+01
  -3.815164e+01   2.290816e+01
  -3.596329e+01  -1.787901e+01
  -9.425925e+00  -4.846857e+01
   1.983593e+01  -3.880192e+01
   2.962649e+01   5.252063e-01
   1.816234e+01   3.066069e+01
  -1.454026e+00   2.627625e+01
  -1.308068e+01   3.996452e+00
  -1.202645e+01  -8.692451e+00
  -3.452701e+00   2.285492e-01
  -1.062319e+00   5.771415e+00
  -9.115944e+00  -6.103908e+00
  -1.707477e+01  -2.236293e+01
  -1.381060e+01  -2.914439e+01
   1.316712e+01  -1.653125e+01
   3.797428e+01   2.842903e+00
   3.859918e+01   1.643844e+01
   1.249102e+01   1.785726e+01
  -1.694866e+01   1.333643e+01
  -2.479670e+01   6.918281e+00
  -9.502499e+00  -2.481467e+00
   6.979506e+00  -8.470248e+00
   6.035225e+00  -4.949969e+00
  -3.060232e+00   6.343598e-01
   1.450879e+00   6.935322e-01
   1.783482e+01  -3.372500e+00
   2.581104e+01   1.415960e+00
   9.400912e+00   1.982536e+01
  -2.321408e+01   3.453086e+01
  -4.480595e+01   2.682814e+01
  -4.215177e+01  -6.293393e+00
  -1.804094e+01  -3.615398e+01
   1.061182e+01  -4.132474e+01
   2.322457e+01  -2.277821e+01
   1.729089e+01   1.448340e+00
   7.324454e+00   8.042832e+00
   1.223478e+00   3.472117e+00
   3.824629e+00   1.865119e+00
   9.668253e+00   1.144460e+01
   8.851868e+00   2.274904e+01
  -3.885394e+00   2.133322e+01
  -1.978163e+01   2.043773e+00
  -2.321319e+01  -2.036957e+01
  -7.278246e+00  -2.796213e+01
   1.556624e+01  -1.135733e+01
   2.873247e+01   1.174760e+01
   1.400685e+01   2.536914e+01
  -1.364774e+01   2.027013e+01
  -2.604565e+01   6.403088e-01
  -1.327705e+01  -1.563936e+01
   8.583383e+00  -1.569825e+01
   1.225485e+01  -5.922402e+00
  -6.667249e+00   3.973210e+00
  -2.012445e+01   1.942819e+00
  -8.224729e+00  -7.325563e+00
   1.826018e+01  -1.842573e+01
   3.136408e+01  -1.687921e+01
   2.395999e+01   1.591845e+00
   1.888713e+00   2.378956e+01
  -1.423970e+01   2.614193e+01
  -1.289584e+01   7.971728e+00
  -4.948038e+00  -1.343449e+01
   3.716184e+00  -1.339520e+01
   9.706050e+00   3.441200e-01
   8.305647e+00   1.062177e+01
   2.731485e+00   8.685814e+00
  -6.399948e+00   6.137329e-02
  -1.017450e+01  -3.835541e+00
  -6.851005e+00   1.636819e+00
  -2.316058e-02   6.950479e+00
  -3.656024e-01   2.075305e+00
  -4.624251e+00  -1.010875e+01
  -2.670126e+00  -1.443220e+01
   5.596345e+00  -8.664290e+00
   1.055782e+01   5.927140e+00
   6.460174e+00   1.517356e+01
  -7.546829e+00   7.062212e+00
  -1.696460e+01  -6.850643e+00
  -8.865689e+00  -1.478215e+01
   1.315718e+01  -1.026129e+01
   2.597142e+01   1.108742e+00
   1.615790e+01   1.026836e+01
  -5.913373e+00   1.387988e+01
  -1.622886e+01   1.001706e+01
  -8.015135e+00   2.362785e+00
   6.713697e+00  -2.934015e+00
   7.824094e+00  -1.404895e+00
  -6.497146e+00   7.368473e+00
  -2.103516e+01   8.144116e+00
