
 $NMID
 id='ANONYMOUS ', fmtdat='(2E16.6)'
 volume=1.0
 tramp=1.0
 $END
   1.681591e+03   3.315096e+02
   8.896642e+02   9.497438e+02
  -1.355132e+02   8.851464e+02
  -5.986613e+02   5.097804e+02
  -4.227594e+02   4.847196e+01
   1.569769e+01  -7.781666e+01
   1.455056e+02   5.847685e+01
  -3.918885e+01   2.389980e+02
  -2.905127e+02   2.342399e+02
  -3.063349e+02   2.512355e+01
  -1.607791e+02  -2.487652e+02
   3.326629e+01  -3.062807e+02
   1.489098e+02  -7.322954e+01
   7.696059e+01   2.140638e+02
  -9.194107e+01   2.558014e+02
  -1.909136e+02   3.547029e+01
  -1.327697e+02  -2.133415e+02
   5.528004e+01  -2.650937e+02
   2.003532e+02  -1.067594e+02
   1.777557e+02   1.017317e+02
   3.508745e+01   1.666077e+02
  -8.437879e+01   1.093878e+02
  -6.206878e+01   4.566484e+01
   6.013397e+01   3.006227e+01
   1.192868e+02   1.032953e+02
  -3.235824e+00   1.482134e+02
  -2.158159e+02   1.045210e+02
  -2.826661e+02  -5.076698e+01
  -1.036629e+02  -1.715859e+02
   1.570461e+02  -9.506496e+01
   2.271204e+02   6.967033e+01
   6.997072e+01   1.804527e+02
  -1.348478e+02   1.598590e+02
  -2.053990e+02   5.981145e+01
  -1.295467e+02  -8.079572e+01
  -4.010000e+01  -1.324940e+02
   2.336536e+00  -6.615016e+01
  -2.166834e+01   5.670287e+01
  -7.246478e+01   8.079950e+01
  -9.279798e+01  -4.730272e+01
  -3.290521e+01  -2.214162e+02
   7.953415e+01  -1.977427e+02
   1.415842e+02   4.812362e+00
   6.197903e+01   1.525655e+02
  -7.250765e+01   7.670547e+01
  -8.967070e+01  -1.183889e+02
   5.395963e+01  -1.763411e+02
   1.874452e+02  -4.527604e+00
   2.134863e+02   1.807605e+02
   7.166571e+01   2.126699e+02
  -1.332876e+02   1.140347e+02
  -2.251838e+02  -1.888474e+01
  -1.376916e+02  -1.049235e+02
   3.011536e+01  -9.438378e+01
   1.364415e+02  -2.265828e+01
   1.087591e+02   2.235152e+01
   3.862165e+00   9.744356e+00
  -3.214032e+01  -1.954382e+01
   4.612166e+01  -3.233305e+01
   1.124896e+02   2.698353e+01
   6.837518e+01   9.726494e+01
  -6.600849e+01   1.099780e+02
  -1.494399e+02   4.977964e+01
  -1.123945e+02  -3.195713e+01
   7.423207e+00  -1.208198e+02
   1.101262e+02  -1.395828e+02
   1.546057e+02  -8.291448e+01
   9.348481e+01   5.548589e+01
   1.158101e+01   1.477680e+02
  -2.411341e+01   1.302344e+02
  -5.535735e+00   6.830339e+01
  -1.365466e+01   4.139917e+01
  -5.040533e+01   5.276405e+01
  -1.046655e+02   2.775989e+01
  -9.744705e+01  -4.954832e+01
  -3.337856e+01  -1.087808e+02
   4.921120e+01  -8.130029e+01
   8.875474e+01   1.953034e+01
   6.447167e+01   1.077892e+02
  -1.732737e+01   1.098912e+02
  -1.069654e+02   3.064554e+01
  -1.347779e+02  -7.120517e+01
  -6.332251e+01  -1.302002e+02
   4.108198e+01  -1.163303e+02
   8.266912e+01  -6.636638e+01
   6.918266e+01  -3.146862e+01
   6.192193e+01  -2.841512e+01
   1.109699e+02  -2.243336e+01
   1.701788e+02   4.489728e+01
   1.369005e+02   1.235312e+02
  -3.699132e+00   1.864282e+02
  -1.626326e+02   1.721142e+02
  -1.993035e+02   7.930819e+01
  -1.246785e+02  -4.501665e+01
  -1.164950e+01  -1.150206e+02
   3.886939e+01  -9.574097e+01
   5.921499e+00  -1.874306e+01
  -5.038259e+01   2.382666e+01
  -6.313177e+01  -1.453943e+01
  -7.522226e-01  -6.878528e+01
   5.600987e+01  -4.995169e+01
   5.011841e+01   2.000856e+01
  -1.502656e+01   5.514223e+01
  -6.744740e+01   1.536233e+00
  -5.618323e+01  -9.786504e+01
   1.419506e+01  -1.409571e+02
   9.712377e+01  -8.246368e+01
   1.432633e+02   2.759878e+01
   1.134037e+02   1.058905e+02
   2.358634e+01   1.182319e+02
  -5.805328e+01   6.033845e+01
  -7.211623e+01   3.193048e-01
  -1.980166e+01  -7.535817e+00
   1.894145e+01   2.479259e+01
  -2.788250e+00   4.563249e+01
  -5.542321e+01   2.192322e+01
  -7.101737e+01  -1.792787e+01
  -1.997899e+01  -2.623475e+01
   2.593768e+01   1.559754e-01
   1.228602e+01   3.363166e+01
  -5.802630e+01   3.433140e+01
  -1.173514e+02  -7.679314e+00
  -1.082832e+02  -7.228974e+01
  -1.865723e+01  -1.116861e+02
   8.084122e+01  -9.947688e+01
   1.075099e+02  -4.154067e+01
   5.723409e+01   1.987344e+01
  -1.377302e+01   3.084011e+01
  -2.760644e+01  -4.914237e+00
   2.582759e+01  -3.585130e+01
   7.864624e+01  -1.330151e+01
   7.884776e+01   4.448033e+01
   2.544404e+01   7.968371e+01
  -3.660590e+01   5.876966e+01
  -5.499584e+01   1.069246e+01
  -2.579654e+01  -1.518768e+01
   1.316487e+01   5.514910e+00
   1.112396e+01   4.116246e+01
  -4.020681e+01   4.581344e+01
  -9.121854e+01   2.556278e+00
  -7.951055e+01  -5.955172e+01
  -2.778594e+00  -8.884540e+01
   7.080281e+01  -6.012921e+01
   7.668310e+01  -1.324009e+00
   2.259186e+01   4.088996e+01
  -3.076660e+01   4.455653e+01
  -3.405187e+01   1.555936e+01
  -2.811552e+00  -7.181371e+00
   1.405781e+01  -1.447087e+00
  -5.826268e+00   1.166993e+01
  -4.133376e+01   2.173409e+00
  -4.747699e+01  -3.737339e+01
  -5.950828e+00  -7.207477e+01
   5.961194e+01  -6.396789e+01
   1.023372e+02  -7.300611e+00
   8.470179e+01   6.647219e+01
   1.694296e+01   1.002869e+02
  -4.441075e+01   7.345158e+01
  -5.866417e+01   1.375582e+01
  -3.419160e+01  -2.271950e+01
  -1.518836e+01  -1.608502e+01
  -2.196762e+01   5.828431e+00
  -3.268066e+01   6.138400e+00
  -1.960749e+01  -1.991203e+01
   1.827980e+01  -4.299297e+01
   4.747391e+01  -2.930045e+01
   4.002243e+01   1.776220e+01
  -9.056086e+00   5.360333e+01
  -6.732557e+01   3.799747e+01
  -8.472449e+01  -3.153636e+01
  -3.284074e+01  -9.264622e+01
   5.539059e+01  -9.546014e+01
   1.167567e+02  -3.130596e+01
   1.047939e+02   4.138195e+01
   4.006058e+01   7.681161e+01
  -2.100810e+01   5.978293e+01
  -4.495124e+01   3.435398e+01
  -3.729495e+01   2.945929e+01
  -2.786963e+01   3.830048e+01
  -3.591393e+01   3.038201e+01
  -5.304516e+01  -1.295686e+01
  -4.715894e+01  -6.922181e+01
  -9.033470e+00  -9.649446e+01
   4.573005e+01  -6.829163e+01
   7.179916e+01  -3.309149e+00
   5.346679e+01   5.319288e+01
   4.567557e+00   6.603412e+01
  -3.037025e+01   3.254070e+01
  -2.561162e+01  -6.103591e+00
   1.660354e+00  -2.249409e+01
   9.885408e+00  -1.679669e+01
  -9.226660e+00  -7.194872e+00
  -3.052830e+01  -9.463648e+00
  -2.032804e+01  -1.810254e+01
   2.737337e+01  -1.659725e+01
   7.067093e+01  -3.773117e+00
   6.187436e+01   2.171449e+01
   8.076719e+00   4.052344e+01
  -4.979694e+01   3.348698e+01
  -6.203738e+01   7.786862e+00
  -2.583175e+01  -1.695283e+01
   2.074994e+01  -1.887209e+01
   3.170890e+01   6.462254e+00
   6.744974e+00   2.977839e+01
  -2.088584e+01   2.646668e+01
  -3.078315e+01   1.889361e+00
  -2.726740e+01  -2.288033e+01
  -2.613420e+01  -2.306662e+01
  -2.391853e+01  -8.891708e+00
  -2.700242e+01  -2.848941e+00
  -1.776821e+01  -3.011678e+01
   1.533001e+01  -6.336100e+01
   5.465047e+01  -6.148120e+01
   7.369934e+01  -1.364424e+01
   5.275659e+01   3.856331e+01
  -8.268891e-01   5.283280e+01
  -3.784556e+01   2.876044e+01
  -2.617163e+01  -1.410533e+00
   2.170544e+01  -5.020894e+00
   5.273061e+01   1.833349e+01
   2.813971e+01   4.249224e+01
  -4.008787e+01   4.984300e+01
  -8.541892e+01   2.458208e+01
  -7.285310e+01  -1.571655e+01
  -1.463386e+01  -3.737474e+01
   2.916423e+01  -3.073203e+01
   2.235820e+01   2.076848e-02
  -1.836633e+01   1.441050e+01
  -3.879726e+01  -5.709843e+00
  -1.344465e+01  -4.699972e+01
   3.840790e+01  -6.294717e+01
   6.691918e+01  -2.469703e+01
   4.831852e+01   4.011995e+01
   2.445343e+00   8.044392e+01
  -3.606129e+01   6.133068e+01
  -4.422592e+01  -5.777249e+00
  -2.365986e+01  -5.150607e+01
   6.252192e+00  -4.561585e+01
   2.278764e+01  -6.635741e+00
   2.011642e+01   1.442489e+01
   8.195884e+00   4.339601e+00
   3.718538e+00  -7.094293e+00
   1.198957e+01   1.010726e+01
   2.307824e+01   4.016791e+01
   1.115802e+01   4.722927e+01
  -2.453174e+01   1.609689e+01
  -5.545755e+01  -1.722306e+01
  -4.989650e+01  -2.720337e+01
  -4.629006e+00  -1.992833e+01
   3.423191e+01  -1.030127e+01
   3.437902e+01  -1.934525e+00
   5.275406e+00   3.997527e+00
  -1.573089e+01   9.028335e+00
  -7.183714e+00   4.768079e+00
   6.328138e+00  -3.366475e+00
  -9.565897e-01  -2.417295e+00
  -2.812193e+01  -3.537143e-01
  -3.700707e+01  -9.136624e+00
  -4.299048e+00  -3.615455e+01
   5.044353e+01  -5.088667e+01
   8.409939e+01  -2.494453e+01
   6.623302e+01   3.076005e+01
   1.293940e+01   7.145886e+01
  -3.737935e+01   6.730436e+01
  -5.345608e+01   2.702285e+01
  -3.736803e+01  -1.068374e+01
  -1.133484e+01  -1.626320e+01
  -9.990378e-01  -5.649353e+00
  -6.785390e+00  -5.209375e+00
  -1.292741e+01  -2.487486e+01
  -8.394747e+00  -4.082836e+01
   1.203890e+01  -3.161717e+01
   3.521056e+01   6.118100e+00
   3.666680e+01   4.265000e+01
   8.209665e+00   4.591897e+01
  -3.143822e+01   1.270798e+01
  -4.659322e+01  -2.726483e+01
  -1.703536e+01  -4.409756e+01
   2.928251e+01  -2.699616e+01
   4.404375e+01   5.227784e+00
   1.824679e+01   2.678084e+01
  -1.598019e+01   2.511701e+01
  -1.686585e+01   1.110302e+01
   1.103633e+01  -2.652919e+00
   2.987728e+01  -3.942170e+00
   7.824040e+00   1.093916e+01
  -3.385669e+01   3.063657e+01
  -5.186297e+01   2.374223e+01
  -3.299106e+01  -8.537437e+00
   3.163535e+00  -3.541686e+01
   2.436092e+01  -3.791692e+01
   1.852945e+01  -5.475489e+00
   3.827092e+00   2.268458e+01
  -9.123846e+00   2.032368e+01
  -1.569000e+01  -5.160286e+00
  -1.266385e+01  -2.211502e+01
  -5.434645e-01  -1.624584e+01
   1.449285e+01   2.868876e+00
   1.736453e+01   1.329940e+01
   6.659824e+00   3.002960e+00
  -2.835445e+00  -8.949413e+00
  -3.049633e+00  -4.315338e+00
   3.024923e+00   1.462274e+01
  -7.919284e-01   2.229266e+01
  -1.321015e+01   9.193992e+00
  -1.710974e+01  -1.756397e+01
  -6.029421e+00  -2.731189e+01
   1.707864e+01  -1.159388e+01
   2.803150e+01   1.366605e+01
   1.094317e+01   2.560887e+01
  -2.228003e+01   1.456959e+01
  -3.826414e+01  -5.335379e+00
  -2.289476e+01  -1.784594e+01
   1.009085e+01  -1.898411e+01
   2.759753e+01  -1.322444e+01
   1.387913e+01  -3.962314e+00
  -1.053966e+01   2.227102e+00
  -1.387717e+01  -2.750146e+00
   1.110532e+01  -1.075408e+01
   3.328419e+01  -6.940804e+00
