
 $NMID
 id='ANONYMOUS ', fmtdat='(2E16.6)'
 volume=1.0
 tramp=1.0
 $END
   1.708099e+02  -1.037608e+02
   1.691133e+02  -1.070436e+01
   3.657972e+01   1.719479e+02
  -1.438151e+02   1.944043e+02
  -1.252291e+02   8.821299e+01
  -3.476007e+01   2.323559e+00
  -4.883999e+00   2.519952e-01
   3.157185e+01   6.808436e+01
  -1.841279e+01   9.346118e+01
  -3.260738e+01   9.252270e+00
  -9.660369e+00  -5.122802e+01
   9.261507e+00  -4.473542e+01
   8.097343e+00   6.819318e+00
  -1.199309e+01   4.540003e+01
  -1.707632e+01   3.875335e+01
  -1.718833e+01  -8.438956e+00
   8.459649e+00  -6.781337e+01
   5.586916e+01  -6.130315e+01
   8.130523e+01  -1.590762e+01
   7.083423e+01   5.509686e+01
   3.753917e+01   5.816217e+01
   7.621765e+00   2.964774e+01
   2.426240e+01   1.390010e+01
   3.724605e+01   5.859120e+01
   7.835882e+00   1.050860e+02
  -6.986423e+01   6.601515e+01
  -8.473903e+01  -3.029775e+01
  -4.646549e+01  -1.002175e+02
   2.221497e+01  -6.395687e+01
   7.830773e+01   2.216878e+01
   5.564095e+01   7.348099e+01
  -7.741203e+00   6.882608e+01
  -7.580961e+01   2.493867e+01
  -7.363065e+01  -1.265842e+01
  -1.027976e+01  -4.284385e+01
   2.321064e+01  -2.489741e+01
   6.876421e+00  -3.643681e+00
  -5.388738e+01  -3.416733e+00
  -5.967800e+01  -2.160631e+01
   5.819154e-01  -7.249814e+01
   6.607818e+01  -6.029148e+01
   9.854575e+01  -7.761087e+00
   4.461696e+01   4.236209e+01
  -2.077568e+01   4.756473e+01
  -3.541816e+01  -2.235025e+01
   5.940193e+00  -7.787476e+01
   4.655870e+01  -2.976180e+01
   7.948388e+01   2.989571e+01
   7.554679e+01   6.744273e+01
  -1.300893e+01   6.252693e+01
  -7.374158e+01  -1.179139e+00
  -6.120411e+01  -6.172098e+01
  -9.075860e+00  -6.058194e+01
   3.549520e+01  -2.003900e+01
   3.324844e+01   1.057570e+00
   1.273096e+01  -8.225736e+00
   1.407874e+00  -1.922397e+01
   2.162862e+01  -9.956120e+00
   3.760519e+01   1.638933e+01
   3.537704e+01   2.731276e+01
   2.198042e+00   2.615248e+01
  -3.666887e+01   2.223586e+01
  -6.441129e+01   1.234380e+01
  -3.906178e+01  -3.135882e+01
   2.463204e+01  -6.167567e+01
   8.365330e+01  -4.279503e+01
   6.574415e+01   1.355221e+01
   4.468876e+00   4.707759e+01
  -3.381741e+01   3.315632e+01
  -1.282762e+01   1.080969e+00
   1.306012e+01   9.048372e+00
  -5.169770e+00   2.698803e+01
  -4.201963e+01   2.323937e+01
  -5.145224e+01  -1.320236e+01
  -2.207311e+01  -4.465973e+01
   1.831499e+01  -4.841819e+01
   3.585786e+01  -1.664624e+01
   1.710409e+01   2.866940e+01
  -1.590091e+01   5.302767e+01
  -3.982831e+01   2.849695e+01
  -4.712549e+01  -2.474572e+01
  -2.627275e+01  -5.697190e+01
  -1.289459e+00  -4.711116e+01
   9.282801e+00  -2.054475e+01
   1.626985e+01  -1.022965e+01
   2.062561e+01  -8.286624e+00
   3.252007e+01  -3.931833e+00
   4.013559e+01   2.463657e+01
   4.032864e+01   4.467548e+01
   1.051918e+01   6.965548e+01
  -4.863737e+01   6.232386e+01
  -8.739199e+01   2.613008e+01
  -8.072616e+01  -9.539390e+00
  -2.641371e+01  -3.651172e+01
   1.524614e+01  -3.491912e+01
   1.652883e+01  -1.754477e+01
  -1.174169e+01  -6.085228e+00
  -2.538677e+01  -1.012657e+01
   2.689566e-01  -2.437692e+01
   1.913112e+01  -1.566651e+01
   2.134258e+01   6.512954e+00
   2.742118e+00   2.123832e+01
  -1.502839e+01   1.603094e+01
  -2.270562e+01  -1.418320e+01
  -1.364909e+01  -4.659031e+01
   1.299067e+01  -5.068535e+01
   4.871169e+01  -1.762335e+01
   5.400818e+01   3.287918e+01
   2.371057e+01   5.712463e+01
  -2.074799e+01   4.397416e+01
  -2.813974e+01   5.704423e+00
  -1.179855e+01  -1.122010e+01
   7.658419e-01   2.607577e+00
  -1.038257e+00   1.817687e+01
  -1.453032e+01   1.534876e+01
  -2.344435e+01   3.367097e+00
  -1.542601e+01  -1.484859e+00
   4.704632e+00  -3.519780e+00
   1.506326e+01   1.348922e+01
  -1.474648e+00   2.132988e+01
  -3.608112e+01   7.746085e+00
  -5.749037e+01  -1.885730e+01
  -3.043097e+01  -4.127931e+01
   1.722253e+01  -4.074995e+01
   5.335405e+01  -1.714129e+01
   4.787398e+01   7.387034e+00
   8.795630e+00   1.452857e+01
  -1.289997e+01   6.816914e+00
  -4.687756e+00  -4.396755e+00
   1.632026e+01  -3.807087e+00
   2.809210e+01   1.282119e+01
   1.674145e+01   2.851327e+01
  -1.008835e+01   3.095284e+01
  -2.390105e+01   1.067474e+01
  -1.793645e+01  -7.906352e+00
   5.264257e+00  -8.809314e+00
   9.725937e+00   1.083606e+01
  -6.385171e+00   2.368761e+01
  -2.922265e+01   1.418087e+01
  -3.380655e+01  -1.264098e+01
  -1.084072e+01  -3.533918e+01
   1.832013e+01  -2.841752e+01
   2.963210e+01  -6.957552e+00
   1.991694e+01   1.087307e+01
  -9.546447e-01   1.811167e+01
  -1.091540e+01   1.109749e+01
  -6.950540e+00  -3.654202e+00
   5.081370e+00  -3.131345e+00
   6.955355e+00   5.539227e+00
  -5.609673e+00   6.716437e+00
  -1.763502e+01  -7.236076e+00
  -1.017498e+01  -2.909454e+01
   1.432349e+01  -3.466954e+01
   3.696881e+01  -1.201562e+01
   3.743920e+01   2.058678e+01
   1.669487e+01   3.935895e+01
  -9.054890e+00   3.012986e+01
  -1.909342e+01   1.152613e+01
  -1.274975e+01  -2.180673e+00
  -4.790208e+00  -5.561623e+00
  -5.387211e+00   6.735827e-01
  -1.365387e+01   5.271751e+00
  -1.985084e+01  -6.437188e-01
  -6.985188e+00  -1.535859e+01
   1.679282e+01  -1.918913e+01
   2.788320e+01  -5.511283e+00
   1.471879e+01   1.660447e+01
  -1.261282e+01   2.484191e+01
  -3.303913e+01   4.195305e+00
  -2.732515e+01  -2.472993e+01
   1.915442e+00  -4.179912e+01
   3.719989e+01  -2.145200e+01
   4.316162e+01   1.218283e+01
   2.351959e+01   2.845356e+01
  -1.416723e+00   2.507154e+01
  -1.548589e+01   1.349103e+01
  -1.928157e+01   8.096282e+00
  -1.361494e+01   8.664709e+00
  -1.404826e+01   1.156715e+01
  -1.956238e+01   4.954642e+00
  -2.133634e+01  -1.281468e+01
  -8.614997e+00  -3.521750e+01
   1.278386e+01  -3.998183e+01
   2.840988e+01  -1.950597e+01
   2.408729e+01   1.299226e+01
   6.274052e+00   2.867353e+01
  -1.242342e+01   2.108561e+01
  -1.576161e+01   1.164330e+00
  -5.281916e+00  -1.163146e+01
   7.482512e+00  -1.064611e+01
   9.640460e+00  -3.899036e+00
  -2.777830e+00  -6.760917e-01
  -1.103719e+01  -3.679027e+00
  -3.391019e+00  -6.536471e+00
   1.833157e+01  -1.599333e+00
   3.273299e+01   1.340930e+01
   1.915763e+01   2.422170e+01
  -1.348259e+01   2.138967e+01
  -3.282203e+01   6.498275e+00
  -2.358599e+01  -6.505423e+00
  -9.378810e-01  -1.109216e+01
   1.146895e+01  -4.695196e+00
   8.448680e+00   7.253565e+00
  -1.578553e+00   1.215709e+01
  -8.596101e+00   9.024681e+00
  -1.064101e+01  -1.357614e+00
  -8.125211e+00  -1.056284e+01
  -7.337653e+00  -8.988887e+00
  -9.532970e+00  -2.613376e+00
  -1.080280e+01  -1.667266e+00
  -4.990742e+00  -1.157854e+01
   1.085910e+01  -2.643060e+01
   2.676318e+01  -2.366234e+01
   3.310675e+01   4.551931e-01
   1.687733e+01   2.447399e+01
  -9.174075e+00   2.605068e+01
  -2.046217e+01   8.247598e+00
  -7.889620e+00  -7.001592e+00
   1.254571e+01  -3.116920e+00
   1.799903e+01   1.532583e+01
   3.636978e+00   2.310814e+01
  -1.950073e+01   1.524410e+01
  -3.049394e+01  -3.650931e+00
  -1.487346e+01  -1.877315e+01
   4.001533e+00  -1.493879e+01
   1.530985e+01  -4.608766e+00
   8.395589e+00   4.694378e+00
  -4.432621e+00   3.421210e+00
  -1.199542e+01  -6.470174e+00
  -1.822741e+00  -1.878637e+01
   1.551243e+01  -1.972264e+01
   2.500967e+01  -2.937910e+00
   1.483522e+01   2.166849e+01
  -1.119874e+01   2.846732e+01
  -2.518176e+01   1.033728e+01
  -1.493658e+01  -1.465491e+01
   3.690565e+00  -2.235149e+01
   1.183435e+01  -1.034925e+01
   9.428822e+00   4.525591e+00
   3.856434e+00   7.598472e+00
   3.285770e+00   1.951478e-01
   2.526643e+00  -1.446174e+00
   5.555507e+00   8.939241e+00
   2.076750e+00   2.041763e+01
  -4.163012e+00   1.890004e+01
  -1.384975e+01   2.351442e+00
  -2.268374e+01  -1.517442e+01
  -1.608152e+01  -1.779946e+01
  -4.426863e-01  -7.818874e+00
   1.390487e+01   2.485558e+00
   1.196166e+01   7.329087e-01
   8.830654e-01  -1.245443e+00
  -6.102630e+00   5.214989e-03
  -1.902729e+00   3.306891e+00
   1.898814e+00   3.386828e+00
  -7.055281e-01  -9.829416e-01
  -9.247967e+00  -5.711359e+00
  -1.357029e+01  -9.050127e+00
  -2.393519e+00  -1.234333e+01
   1.745566e+01  -1.160249e+01
   2.994146e+01   1.178359e+00
   1.980176e+01   1.686567e+01
  -3.352117e+00   2.496287e+01
  -2.411949e+01   1.722756e+01
  -2.377029e+01   3.115596e+00
  -1.153063e+01  -4.530890e+00
  -2.108990e+00  -5.868872e+00
  -1.004562e+00  -3.037504e+00
  -3.419276e+00  -5.155918e+00
  -1.766889e+00  -1.143111e+01
   4.565183e+00  -1.526333e+01
   1.025436e+01  -7.850127e+00
   1.183691e+01   7.862816e+00
   6.282146e+00   2.022883e+01
  -7.963774e-01   1.670208e+01
  -1.072201e+01   1.472734e+00
  -1.015438e+01  -1.390390e+01
  -1.178559e+00  -1.692073e+01
   1.057181e+01  -7.137399e+00
   1.626203e+01   6.778236e+00
   5.022305e+00   1.202548e+01
  -1.038240e+01   1.088777e+01
  -1.119023e+01   2.771417e+00
   4.804892e+00  -1.604905e+00
   1.341431e+01   7.085334e-01
   2.755490e+00   5.707422e+00
  -1.906003e+01   6.645135e+00
  -2.580161e+01   2.994068e+00
  -1.016231e+01  -7.463001e+00
   7.390897e+00  -1.275009e+01
   1.420875e+01  -1.074447e+01
   7.944574e+00  -1.386385e+00
  -6.026210e-01   7.842447e+00
  -4.774716e+00   8.253535e+00
  -6.186028e+00  -1.699515e+00
  -2.591234e+00  -1.033018e+01
   1.033856e+00  -7.929071e+00
   5.468165e+00   2.658113e+00
   6.373311e+00   9.554913e+00
   2.503488e+00   3.936492e+00
  -6.000224e-01  -4.099051e+00
  -9.658503e-01  -3.512142e+00
  -6.867045e-01   4.614123e+00
  -2.241821e+00   9.731987e+00
  -4.620990e+00   4.131237e+00
  -5.696859e+00  -6.688908e+00
  -2.654576e+00  -9.323947e+00
   6.731345e+00  -3.829704e+00
   8.423663e+00   6.219437e+00
   1.530791e+00   8.373506e+00
  -9.530197e+00  -2.480009e-01
  -1.219849e+01  -8.836545e+00
  -3.591049e+00  -9.365502e+00
   8.338463e+00  -5.631175e+00
   1.263047e+01  -1.518017e+00
   6.103405e+00  -3.742265e-01
  -9.380046e-01  -8.199859e-01
  -2.075004e+00  -1.140713e+00
   4.319695e+00   2.043512e-01
   1.122163e+01   3.606523e+00
