
 $NMID
 id='ANONYMOUS ', fmtdat='(2E16.6)'
 volume=1.0
 tramp=1.0
 $END
   1.014999e+03  -1.806757e+02
   7.376529e+02   6.270794e+02
   1.116948e+01   6.224094e+02
  -4.472173e+02   2.914063e+02
  -3.070959e+02   3.105003e+01
  -5.938164e+00  -1.660584e+01
   1.322193e+02   9.319077e+01
   1.393517e+01   1.774597e+02
  -1.772440e+02   1.550618e+02
  -2.091788e+02  -2.105170e+01
  -1.176172e+02  -1.917197e+02
   3.215826e+01  -2.116897e+02
   1.224853e+02  -3.951683e+01
   7.906153e+01   1.527802e+02
  -6.591362e+01   1.732967e+02
  -1.643226e+02   1.035529e+01
  -1.074285e+02  -1.790999e+02
   4.295023e+01  -2.176787e+02
   1.631971e+02  -1.052151e+02
   1.660690e+02   3.869534e+01
   5.338759e+01   1.153050e+02
  -4.178609e+01   9.326035e+01
  -1.854492e+01   1.669846e+01
   7.583222e+01   3.050479e+01
   9.752208e+01   1.152272e+02
  -2.776471e+01   1.538304e+02
  -1.863350e+02   5.710296e+01
  -2.004368e+02  -1.295700e+02
  -4.947492e+01  -1.532161e+02
   1.289119e+02  -5.717544e+01
   1.565062e+02   8.085915e+01
   4.672938e+01   1.404412e+02
  -1.072718e+02   1.305950e+02
  -1.558132e+02   4.237656e+01
  -1.221311e+02  -6.782434e+01
  -2.415706e+01  -1.207166e+02
   5.289090e+00  -6.906222e+01
  -3.849837e+01   3.465307e+01
  -9.484797e+01   5.246236e+01
  -6.724946e+01  -7.728846e+01
   2.243302e+01  -2.015794e+02
   1.128306e+02  -1.462167e+02
   1.030552e+02   1.747944e+01
   6.708872e+00   1.195568e+02
  -6.964000e+01   3.917363e+01
  -4.735386e+01  -1.150680e+02
   5.369069e+01  -1.523874e+02
   1.653738e+02  -4.708445e+00
   1.472471e+02   1.657569e+02
   2.040271e+01   2.076377e+02
  -1.307452e+02   1.143444e+02
  -1.976754e+02  -2.044311e+01
  -1.399590e+02  -9.843246e+01
   1.629288e+00  -8.128422e+01
   8.926414e+01  -3.725841e+01
   5.945535e+01   7.110174e-01
  -3.060285e-01  -2.669547e+00
  -6.358686e+00  -1.760720e+01
   4.086201e+01  -7.240968e+00
   6.500329e+01   3.079586e+01
   2.772341e+01   7.949690e+01
  -6.101011e+01   9.011349e+01
  -1.312313e+02   4.903595e+01
  -1.071003e+02  -3.971698e+01
  -1.885932e+01  -1.204602e+02
   9.914860e+01  -1.482405e+02
   1.412227e+02  -6.290265e+01
   9.977560e+01   6.579573e+01
   2.988402e+01   1.458659e+02
  -7.309469e+00   1.351463e+02
  -4.027712e+00   7.907384e+01
  -1.178472e+01   5.615649e+01
  -5.844804e+01   5.750926e+01
  -1.043070e+02   1.935259e+01
  -9.945656e+01  -5.549238e+01
  -3.984226e+01  -1.084887e+02
   3.729839e+01  -7.573696e+01
   8.412586e+01   2.340375e+01
   6.097942e+01   1.049908e+02
  -2.256284e+01   1.042185e+02
  -1.036389e+02   2.301527e+01
  -1.171756e+02  -6.739148e+01
  -5.465399e+01  -1.075028e+02
   3.192381e+01  -8.543374e+01
   6.249527e+01  -4.826232e+01
   4.755804e+01  -2.800299e+01
   5.457976e+01  -2.766848e+01
   1.077005e+02  -1.326331e+01
   1.588629e+02   3.379191e+01
   1.235861e+02   1.154793e+02
  -7.766380e+00   1.742122e+02
  -1.437141e+02   1.674379e+02
  -1.887492e+02   6.907211e+01
  -1.131562e+02  -4.465572e+01
  -1.641803e+00  -1.010189e+02
   5.020259e+01  -6.901455e+01
   1.626505e+01  -3.930647e+00
  -4.073697e+01   6.986863e+00
  -4.752677e+01  -2.032759e+01
  -2.765013e+00  -5.150703e+01
   4.554203e+01  -3.084695e+01
   3.997780e+01   2.458370e+01
  -1.633711e+01   4.662364e+01
  -6.407655e+01  -7.052858e+00
  -5.132672e+01  -1.021866e+02
   2.122215e+01  -1.375298e+02
   1.047853e+02  -8.167237e+01
   1.454283e+02   2.840339e+01
   1.094756e+02   1.098458e+02
   2.624304e+01   1.141147e+02
  -4.612344e+01   5.478722e+01
  -5.404382e+01  -9.863605e-01
  -4.133337e+00  -1.203513e+01
   2.486263e+01   2.535198e+01
  -1.703219e+00   4.988041e+01
  -5.271563e+01   2.999853e+01
  -5.241162e+01  -1.341411e+01
  -6.940497e+00  -2.616872e+01
   3.664681e+01   5.333184e+00
   1.700196e+01   4.029553e+01
  -6.038088e+01   3.683432e+01
  -1.237861e+02  -1.324680e+01
  -1.092037e+02  -7.695388e+01
  -1.171122e+01  -1.137855e+02
   8.449601e+01  -9.895550e+01
   1.094892e+02  -3.679605e+01
   5.520394e+01   1.955771e+01
  -1.485738e+01   2.836477e+01
  -2.311486e+01  -1.081821e+01
   2.890321e+01  -3.989175e+01
   8.043430e+01  -9.791486e+00
   6.650011e+01   5.182579e+01
   1.064362e+01   7.660194e+01
  -3.890890e+01   4.772287e+01
  -4.291761e+01  -5.659335e+00
  -8.124921e+00  -2.322255e+01
   2.428081e+01   6.051211e+00
   1.394446e+01   4.907011e+01
  -3.861570e+01   5.381422e+01
  -8.422513e+01   7.182456e+00
  -7.198449e+01  -5.642840e+01
  -1.691863e+00  -8.525478e+01
   6.397558e+01  -5.641572e+01
   6.871762e+01   4.135104e-01
   1.934344e+01   3.652387e+01
  -2.689630e+01   2.771102e+01
  -2.815743e+01   4.235068e+00
  -7.224359e-02  -9.855941e+00
   1.735451e+01  -2.387367e+00
  -1.053109e+00   1.112688e+01
  -3.567126e+01  -2.054634e-01
  -4.538714e+01  -3.750418e+01
  -6.673582e+00  -7.494296e+01
   5.754437e+01  -6.633875e+01
   9.891283e+01  -6.041983e+00
   8.064718e+01   6.732527e+01
   1.217407e+01   9.337066e+01
  -4.278237e+01   6.330862e+01
  -5.461419e+01   1.155425e+01
  -3.244967e+01  -1.655922e+01
  -1.426296e+01  -1.114868e+01
  -2.133595e+01   5.935139e+00
  -3.407426e+01   1.700213e+00
  -2.733030e+01  -2.324727e+01
   1.038445e+01  -4.225519e+01
   4.891158e+01  -2.871242e+01
   4.771958e+01   1.757928e+01
  -4.034026e+00   5.446243e+01
  -6.551552e+01   3.811137e+01
  -8.598780e+01  -2.544785e+01
  -3.422788e+01  -8.953119e+01
   5.199448e+01  -9.099194e+01
   1.117296e+02  -3.273366e+01
   1.031502e+02   4.311874e+01
   3.570844e+01   7.350938e+01
  -2.158309e+01   5.315632e+01
  -3.566214e+01   2.895710e+01
  -2.333634e+01   2.784158e+01
  -1.948132e+01   4.122480e+01
  -3.879270e+01   3.424503e+01
  -5.889813e+01  -6.966512e+00
  -5.006402e+01  -6.614661e+01
  -9.628314e+00  -9.309048e+01
   4.521025e+01  -6.901303e+01
   7.239742e+01  -1.753061e+00
   5.157971e+01   5.411463e+01
   1.553350e+00   6.523117e+01
  -3.377379e+01   3.331214e+01
  -2.884910e+01  -6.000489e+00
   2.954162e-01  -2.382818e+01
   1.332047e+01  -1.658848e+01
  -8.846291e+00  -3.849094e+00
  -3.449264e+01  -4.780695e+00
  -2.378831e+01  -1.534978e+01
   2.648951e+01  -1.883614e+01
   6.860690e+01   1.252284e+00
   5.797164e+01   2.960957e+01
  -2.647468e+00   4.032018e+01
  -5.364932e+01   2.422609e+01
  -5.734594e+01  -5.194711e+00
  -1.662150e+01  -2.312993e+01
   2.185059e+01  -1.584944e+01
   3.138437e+01   1.062722e+01
   8.251619e+00   3.072979e+01
  -1.895215e+01   2.442793e+01
  -2.768290e+01  -2.799746e+00
  -1.990720e+01  -2.180209e+01
  -1.443178e+01  -1.515065e+01
  -2.201025e+01   2.889864e+00
  -2.779241e+01  -9.935933e-01
  -1.982718e+01  -3.314462e+01
   1.700344e+01  -6.485469e+01
   5.778706e+01  -5.666208e+01
   7.615473e+01  -1.030184e+01
   5.272625e+01   3.951750e+01
   8.938446e-01   5.195016e+01
  -3.708785e+01   2.407238e+01
  -2.258079e+01  -8.137747e+00
   2.157155e+01  -8.841057e+00
   5.158177e+01   1.809740e+01
   2.800899e+01   4.423371e+01
  -3.337599e+01   3.721358e+01
  -7.517562e+01   1.019791e+01
  -5.987966e+01  -2.075250e+01
  -9.489609e+00  -3.318268e+01
   2.754154e+01  -1.889894e+01
   1.877284e+01   5.833479e+00
  -1.989050e+01   1.236361e+01
  -3.952715e+01  -1.232597e+01
  -1.460179e+01  -4.908251e+01
   3.216694e+01  -5.947510e+01
   6.272171e+01  -2.293850e+01
   4.540711e+01   3.757625e+01
   2.615719e+00   6.958676e+01
  -3.040332e+01   4.433759e+01
  -3.587449e+01  -1.027870e+01
  -1.496141e+01  -4.491471e+01
   9.896394e+00  -3.303687e+01
   2.148167e+01  -1.639766e+00
   1.487044e+01   1.706436e+01
   3.520378e+00   4.483967e+00
   3.169846e+00  -7.469955e+00
   1.347080e+01   9.392522e+00
   2.006354e+01   3.792945e+01
   5.895553e+00   4.371645e+01
  -2.535490e+01   1.641285e+01
  -4.975246e+01  -1.892913e+01
  -4.358724e+01  -3.127514e+01
  -5.419012e+00  -2.594290e+01
   3.060030e+01  -1.047688e+01
   3.549137e+01   7.422789e-01
   8.981297e+00   6.795538e+00
  -1.322950e+01   8.320944e+00
  -1.005924e+01   4.274572e+00
   4.485253e+00   3.166357e-02
   6.131910e-01  -7.388181e-01
  -2.436517e+01   1.623280e+00
  -3.477814e+01  -7.889791e+00
  -1.150324e+01  -2.937684e+01
   3.687844e+01  -4.361894e+01
   7.010624e+01  -2.707170e+01
   5.982901e+01   1.908916e+01
   1.425427e+01   5.881164e+01
  -2.807964e+01   5.976764e+01
  -4.093053e+01   2.506079e+01
  -2.795509e+01  -1.061094e+01
  -1.204150e+01  -1.808427e+01
  -1.195591e+00  -5.443195e+00
  -4.190409e+00  -1.531864e+00
  -9.847150e+00  -1.627191e+01
  -4.052850e+00  -3.523914e+01
   1.282122e+01  -2.875003e+01
   3.026759e+01   5.511918e+00
   2.919979e+01   3.928086e+01
   4.537874e+00   4.371038e+01
  -2.996908e+01   1.395539e+01
  -4.196634e+01  -2.399090e+01
  -1.704179e+01  -4.273711e+01
   2.343376e+01  -2.920122e+01
   4.306519e+01   1.406489e+00
   2.156916e+01   2.390852e+01
  -1.160132e+01   2.709994e+01
  -1.735433e+01   1.266435e+01
   7.488583e+00  -3.457800e+00
   2.430909e+01  -2.523884e+00
   7.265021e+00   1.238628e+01
  -3.068717e+01   2.460944e+01
  -5.042702e+01   1.808511e+01
  -3.009516e+01  -6.884691e+00
   5.832451e+00  -3.577024e+01
   2.295371e+01  -3.626117e+01
   1.843339e+01  -6.335512e+00
   3.424080e+00   1.926132e+01
  -1.108270e+01   1.769901e+01
  -1.523760e+01  -5.363907e+00
  -1.047289e+01  -2.334774e+01
   2.038058e+00  -1.638563e+01
   1.450432e+01   3.775538e+00
   1.657151e+01   1.135647e+01
   5.999635e+00   2.096598e+00
  -5.429941e+00  -8.921131e+00
  -4.145257e+00  -6.305613e+00
   1.545934e+00   8.371805e+00
   1.540767e+00   1.989541e+01
  -9.469038e+00   8.820459e+00
  -1.776899e+01  -1.286522e+01
  -6.778103e+00  -2.336294e+01
   1.657611e+01  -1.294845e+01
   2.583897e+01   1.071172e+01
   9.387197e+00   2.193786e+01
  -2.041994e+01   1.508566e+01
  -3.466509e+01  -2.920731e+00
  -1.801698e+01  -1.552628e+01
   1.076358e+01  -1.659814e+01
   2.358251e+01  -1.054063e+01
   1.215731e+01  -2.111387e+00
  -8.150417e+00   2.967457e-01
  -1.136591e+01  -1.613448e+00
   6.745750e+00  -8.421656e+00
   2.731632e+01  -6.061262e+00
