
 $NMID
 id='ANONYMOUS ', fmtdat='(2E16.6)'
 volume=1.0
 tramp=1.0
 $END
  -1.546408e+03  -2.381809e+01
  -1.022600e+03  -6.320001e+02
  -3.948861e+01  -9.905281e+02
   5.552378e+02  -5.865764e+02
   4.576752e+02  -1.509464e+02
   1.857031e+01   5.687067e+01
  -1.552898e+02  -6.653941e+01
  -3.010575e+01  -2.568810e+02
   2.092915e+02  -2.765063e+02
   3.150834e+02  -7.524325e+01
   2.385096e+02   1.988555e+02
   4.463897e+01   3.047454e+02
  -1.119187e+02   1.145833e+02
  -1.121979e+02  -1.646250e+02
   7.143168e+01  -2.568362e+02
   2.121785e+02  -6.170851e+01
   1.573707e+02   2.219495e+02
  -4.815908e+01   2.995962e+02
  -2.168047e+02   1.478279e+02
  -2.132139e+02  -4.888922e+01
  -7.393363e+01  -1.459298e+02
   3.447688e+01  -1.250837e+02
   2.281909e+01  -7.632820e+01
  -8.099479e+01  -6.890125e+01
  -1.070289e+02  -1.288825e+02
   1.992534e+01  -1.612078e+02
   2.064444e+02  -6.922881e+01
   2.589093e+02   7.827679e+01
   1.061834e+02   1.475942e+02
  -1.211223e+02   7.572415e+01
  -1.940711e+02  -4.970807e+01
  -6.913102e+01  -1.485172e+02
   1.061809e+02  -1.618143e+02
   1.747925e+02  -7.704441e+01
   1.466672e+02   5.478885e+01
   7.071543e+01   1.359213e+02
   7.169256e+00   1.059131e+02
   1.903611e+01  -1.933244e+01
   6.493706e+01  -6.163381e+01
   7.331493e+01   5.999970e+01
  -8.036568e+00   2.196807e+02
  -1.080653e+02   1.810031e+02
  -1.275852e+02  -2.102025e+01
  -4.165486e+01  -1.556765e+02
   4.837476e+01  -6.186957e+01
   6.339796e+01   1.110780e+02
  -3.834431e+01   1.792989e+02
  -1.740884e+02   1.222866e+01
  -2.147520e+02  -1.798856e+02
  -8.084744e+01  -2.371125e+02
   1.295746e+02  -1.287620e+02
   2.404342e+02   2.428707e+01
   1.754834e+02   9.797326e+01
  -1.411340e+00   9.539350e+01
  -1.228783e+02   4.935397e+01
  -1.052468e+02   1.061522e+01
  -2.017761e+01  -8.447136e+00
   1.624415e+01   6.901751e+00
  -3.048877e+01   1.181258e+01
  -9.548885e+01  -1.545558e+01
  -7.416281e+01  -8.362758e+01
   5.335614e+01  -1.193113e+02
   1.601554e+02  -7.492049e+01
   1.253454e+02   4.069827e+01
  -1.594644e+01   1.452611e+02
  -1.551001e+02   1.661804e+02
  -1.792837e+02   7.714659e+01
  -1.082252e+02  -6.829375e+01
  -3.935001e+01  -1.777519e+02
  -6.038665e+00  -1.806394e+02
   5.023485e-02  -1.131906e+02
   2.549339e+01  -7.370302e+01
   7.992760e+01  -5.601318e+01
   1.205318e+02  -2.238580e+01
   1.070502e+02   5.540862e+01
   3.599987e+01   1.134786e+02
  -4.401159e+01   8.540280e+01
  -8.219530e+01  -2.272567e+01
  -5.591213e+01  -1.092125e+02
   2.485047e+01  -1.057425e+02
   1.074651e+02  -2.011872e+01
   1.370158e+02   7.516128e+01
   7.661646e+01   1.280872e+02
  -2.160485e+01   1.259702e+02
  -7.285843e+01   9.007448e+01
  -6.930507e+01   4.976718e+01
  -7.499968e+01   3.699573e+01
  -1.399524e+02   1.799100e+01
  -2.070885e+02  -4.267229e+01
  -1.569420e+02  -1.382561e+02
   3.874045e+00  -1.971900e+02
   1.715495e+02  -1.767725e+02
   2.069690e+02  -8.837646e+01
   1.227515e+02   4.215593e+01
   4.855920e+00   1.158784e+02
  -3.953971e+01   9.592892e+01
  -8.068992e+00   1.645547e+01
   4.545470e+01  -1.598092e+01
   5.099842e+01   1.979515e+01
  -2.856011e+00   6.618056e+01
  -5.290974e+01   4.852871e+01
  -4.764592e+01  -2.235639e+01
   1.020966e+01  -5.895589e+01
   6.614638e+01   1.138282e+00
   6.891813e+01   1.073787e+02
  -4.362970e+00   1.643890e+02
  -1.138452e+02   1.050633e+02
  -1.751419e+02  -1.675634e+01
  -1.456489e+02  -1.187740e+02
  -4.089650e+01  -1.349151e+02
   5.282381e+01  -6.682814e+01
   6.861672e+01  -3.310285e+00
   1.314141e+01   7.882980e+00
  -2.259933e+01  -2.983843e+01
   3.054035e+00  -5.226792e+01
   6.049663e+01  -2.961020e+01
   6.405693e+01   1.285796e+01
   1.322061e+01   2.694636e+01
  -3.777160e+01  -5.522206e+00
  -1.843358e+01  -4.448260e+01
   7.409761e+01  -4.482495e+01
   1.497325e+02   6.028748e+00
   1.291807e+02   8.762445e+01
   1.380131e+01   1.319253e+02
  -9.922057e+01   1.156429e+02
  -1.304880e+02   3.916626e+01
  -6.782465e+01  -2.562313e+01
   1.379647e+01  -3.383773e+01
   2.933012e+01   5.921619e+00
  -2.614228e+01   3.831492e+01
  -9.033143e+01   1.401867e+01
  -9.080909e+01  -4.894697e+01
  -2.950657e+01  -8.759907e+01
   3.861731e+01  -6.656332e+01
   5.630059e+01  -5.437779e+00
   2.102369e+01   1.814077e+01
  -2.081746e+01  -1.126819e+01
  -1.229582e+01  -5.651603e+01
   4.932724e+01  -5.929303e+01
   1.062503e+02  -3.225123e+00
   8.984082e+01   6.574473e+01
   7.357778e+00   9.734052e+01
  -7.100970e+01   7.180685e+01
  -8.294665e+01   7.006936e+00
  -2.511073e+01  -3.928922e+01
   3.254530e+01  -3.947082e+01
   3.183182e+01  -1.019446e+01
  -2.656225e+00   1.060760e+01
  -2.261444e+01   2.106642e+00
   2.250494e+00  -1.701482e+01
   4.535107e+01  -4.902590e+00
   5.451211e+01   4.247635e+01
   4.196278e+00   8.322930e+01
  -7.078346e+01   7.176933e+01
  -1.125896e+02   1.564791e+00
  -8.674941e+01  -7.935005e+01
  -1.446556e+01  -1.096173e+02
   4.867600e+01  -7.618249e+01
   6.217529e+01  -1.528575e+01
   3.828355e+01   1.984562e+01
   2.000879e+01   1.649119e+01
   2.865341e+01  -4.450721e+00
   4.300785e+01  -2.738024e+00
   2.833305e+01   2.868685e+01
  -2.104237e+01   5.275237e+01
  -6.379754e+01   3.489070e+01
  -5.709460e+01  -2.221134e+01
   7.131642e+00  -6.795801e+01
   8.238759e+01  -4.680668e+01
   1.025473e+02   3.060152e+01
   3.864002e+01   1.047516e+02
  -6.284351e+01   1.028819e+02
  -1.281795e+02   3.158090e+01
  -1.139593e+02  -4.870372e+01
  -4.690342e+01  -8.150989e+01
   1.757991e+01  -6.194942e+01
   4.176013e+01  -3.608890e+01
   3.495478e+01  -3.374704e+01
   2.690788e+01  -4.667973e+01
   4.024718e+01  -4.057516e+01
   6.168655e+01   5.403431e+00
   5.853536e+01   6.931132e+01
   1.692672e+01   1.042360e+02
  -4.495445e+01   8.019075e+01
  -7.808155e+01   6.150552e+00
  -5.840786e+01  -6.019543e+01
  -7.809714e+00  -7.363091e+01
   3.440348e+01  -3.747315e+01
   3.117449e+01   6.867311e+00
  -1.414088e+00   2.689018e+01
  -1.642632e+01   1.904671e+01
   8.675624e+00   6.897988e+00
   3.932633e+01   6.793467e+00
   2.573112e+01   1.780858e+01
  -3.051763e+01   1.712398e+01
  -8.156748e+01  -4.367562e+00
  -7.011705e+01  -3.318962e+01
  -2.335768e+00  -4.823516e+01
   6.267066e+01  -3.276923e+01
   7.134441e+01   2.069841e+00
   2.464495e+01   2.792490e+01
  -2.496111e+01   2.225020e+01
  -3.693298e+01  -9.070687e+00
  -1.251288e+01  -3.557246e+01
   2.104411e+01  -3.160669e+01
   3.537973e+01  -3.943243e-01
   2.864452e+01   2.864195e+01
   1.530057e+01   2.162433e+01
   2.293967e+01  -1.327434e+00
   2.988344e+01  -2.721733e+00
   2.357018e+01   3.386554e+01
  -1.162026e+01   7.174549e+01
  -5.840292e+01   7.004407e+01
  -8.585263e+01   1.528546e+01
  -6.241583e+01  -4.501385e+01
   9.102534e-01  -5.991822e+01
   4.402061e+01  -3.068920e+01
   2.896229e+01   6.527148e+00
  -2.751954e+01   1.486973e+01
  -6.218459e+01  -1.344777e+01
  -3.123522e+01  -4.704399e+01
   4.215112e+01  -4.929354e+01
   8.895784e+01  -2.047776e+01
   7.539342e+01   1.726372e+01
   1.586226e+01   4.013100e+01
  -2.810380e+01   2.761080e+01
  -2.097839e+01  -2.826255e+00
   2.111658e+01  -1.780485e+01
   4.478368e+01   7.748820e+00
   1.979722e+01   5.726057e+01
  -3.616354e+01   7.854173e+01
  -7.368255e+01   3.411913e+01
  -6.112843e+01  -4.340002e+01
  -1.132620e+01  -9.308053e+01
   3.789715e+01  -6.830874e+01
   5.229794e+01   5.813630e+00
   2.786254e+01   5.881017e+01
  -5.637037e+00   5.019814e+01
  -2.689758e+01   7.958624e+00
  -2.497534e+01  -1.373881e+01
  -8.884772e+00  -4.847386e+00
  -4.051812e+00   8.096262e+00
  -1.743130e+01  -1.132659e+01
  -2.668314e+01  -4.334984e+01
  -1.527389e+01  -5.125928e+01
   2.731061e+01  -2.480326e+01
   6.465082e+01   1.239219e+01
   5.989085e+01   3.322302e+01
   1.203652e+01   2.962778e+01
  -3.550800e+01   1.634591e+01
  -4.047851e+01   2.492955e+00
  -1.191517e+01  -8.527292e+00
   1.467664e+01  -1.205243e+01
   1.186333e+01  -4.076842e+00
  -3.394206e+00   2.099704e+00
   3.985479e+00   1.580004e+00
   3.414826e+01  -1.057015e+00
   4.563328e+01   1.245810e+01
   1.400856e+01   4.354766e+01
  -4.993826e+01   6.384299e+01
  -9.165573e+01   3.634189e+01
  -7.809799e+01  -2.473749e+01
  -2.253960e+01  -7.741933e+01
   3.375960e+01  -7.634084e+01
   5.429206e+01  -3.415925e+01
   3.779800e+01   1.199837e+01
   1.405618e+01   2.101263e+01
   1.343591e+00   6.272684e+00
   5.669491e+00   2.467528e+00
   1.450972e+01   2.032957e+01
   9.244545e+00   4.155974e+01
  -1.115061e+01   3.562855e+01
  -3.480666e+01  -2.608372e+00
  -3.825217e+01  -4.468094e+01
  -1.034570e+01  -5.268532e+01
   3.459414e+01  -1.848679e+01
   5.071143e+01   2.760016e+01
   2.189598e+01   4.931256e+01
  -2.734730e+01   3.392745e+01
  -5.121170e+01  -2.688542e+00
  -2.425518e+01  -2.817260e+01
   1.629635e+01  -2.962111e+01
   2.100762e+01  -1.202863e+01
  -1.102815e+01   5.539252e+00
  -3.052705e+01   2.047660e+00
  -8.561205e+00  -1.451710e+01
   3.519974e+01  -2.830507e+01
   5.656932e+01  -1.885287e+01
   3.456081e+01   9.770306e+00
  -7.239810e+00   4.124409e+01
  -2.908782e+01   3.884674e+01
  -2.483081e+01   4.233440e+00
  -6.177143e+00  -2.590739e+01
   1.160814e+01  -2.405333e+01
   1.892995e+01   3.463825e+00
   1.474620e+01   2.642711e+01
   8.853299e-01   1.878727e+01
  -1.617342e+01  -1.997234e+00
  -2.080615e+01  -1.102080e+01
  -1.019673e+01   1.701668e-01
   7.661167e-01   1.090174e+01
  -2.478351e-01   3.856978e+00
  -5.462411e+00  -1.592266e+01
  -1.435250e+00  -2.742024e+01
   1.316550e+01  -1.325035e+01
   2.315727e+01   1.469096e+01
   9.268968e+00   2.824010e+01
  -1.982143e+01   1.449073e+01
  -3.277760e+01  -1.218865e+01
  -1.199691e+01  -2.692359e+01
   2.760357e+01  -1.977420e+01
   4.537281e+01   3.498265e+00
   2.539858e+01   1.980917e+01
  -1.322498e+01   2.219513e+01
  -2.977653e+01   1.346551e+01
  -1.280025e+01   1.619579e+00
   1.264610e+01  -2.469470e+00
   1.613832e+01   2.503939e+00
  -9.079940e+00   1.200801e+01
  -3.679214e+01   1.295516e+01
