
 $NMID
 id='ANONYMOUS ', fmtdat='(2E16.6)'
 volume=1.0
 tramp=1.0
 $END
  -2.285798e+03   2.299773e+01
  -1.441681e+03  -1.171719e+03
  -1.800234e+02  -1.204550e+03
   6.373039e+02  -9.302079e+02
   6.681760e+02  -3.536887e+02
   2.342386e+02   4.149142e+00
  -9.110160e+01  -8.017266e+00
  -4.929743e+01  -1.845808e+02
   1.791300e+02  -2.864579e+02
   3.597648e+02  -9.681658e+01
   3.067451e+02   2.494793e+02
   7.784378e+01   3.752243e+02
  -1.240292e+02   1.683717e+02
  -1.516300e+02  -1.614376e+02
   3.161577e+01  -2.819411e+02
   2.212426e+02  -7.396826e+01
   2.153776e+02   2.730744e+02
  -2.685676e+01   4.255812e+02
  -2.836213e+02   2.581270e+02
  -3.285079e+02  -5.481529e+01
  -1.377792e+02  -2.205397e+02
   4.052450e+01  -1.805053e+02
   1.448899e+01  -8.460193e+01
  -1.269726e+02  -1.101219e+02
  -1.226444e+02  -2.014699e+02
   6.403214e+01  -1.881451e+02
   2.745610e+02  -4.428486e+01
   2.821572e+02   1.318083e+02
   8.028073e+01   1.637050e+02
  -1.607626e+02   5.467593e+01
  -2.331984e+02  -9.294078e+01
  -9.340813e+01  -1.968537e+02
   1.495569e+02  -1.962827e+02
   2.665220e+02  -1.020653e+02
   2.139262e+02   8.301742e+01
   8.265833e+01   1.763144e+02
   3.990402e+01   1.164291e+02
   6.589352e+01  -1.471727e+01
   9.835918e+01  -4.015748e+01
   7.457553e+01   1.044928e+02
  -1.975841e+01   2.748521e+02
  -1.224458e+02   2.484417e+02
  -1.448796e+02   3.541073e+01
  -5.854977e+01  -1.503947e+02
   5.773185e+01  -7.913106e+01
   7.934338e+01   1.398207e+02
  -6.277513e+01   2.248721e+02
  -2.414116e+02   4.041592e+01
  -2.689006e+02  -2.148727e+02
  -9.444295e+01  -2.988211e+02
   1.688510e+02  -1.690700e+02
   3.154349e+02   2.631296e+01
   2.253475e+02   1.322215e+02
   9.053491e+00   1.271370e+02
  -1.381888e+02   7.985926e+01
  -1.407381e+02   2.791643e+01
  -5.200880e+01  -3.229626e+00
   2.344637e+01  -9.803952e+00
  -2.382636e+01   1.097907e+01
  -1.094830e+02   8.304220e-01
  -7.944753e+01  -8.634539e+01
   7.027790e+01  -1.620996e+02
   2.237189e+02  -1.160953e+02
   2.095098e+02   5.997730e+01
   1.337439e+01   2.368367e+02
  -2.121494e+02   2.496612e+02
  -2.622492e+02   9.597942e+01
  -1.381415e+02  -1.167241e+02
  -2.063628e+01  -2.232567e+02
   2.180599e+01  -1.974542e+02
  -1.647760e+00  -1.357669e+02
   3.197157e+01  -1.001223e+02
   1.107588e+02  -8.163124e+01
   1.685353e+02  -1.555457e+01
   1.449655e+02   9.498976e+01
   5.003231e+01   1.595504e+02
  -6.069914e+01   1.077889e+02
  -1.111484e+02  -3.989318e+01
  -7.467725e+01  -1.617088e+02
   3.238088e+01  -1.546013e+02
   1.466181e+02  -3.262604e+01
   1.870992e+02   1.055496e+02
   1.156919e+02   1.685591e+02
  -1.695118e+01   1.525470e+02
  -9.550387e+01   1.079380e+02
  -9.810933e+01   7.168524e+01
  -1.105988e+02   5.169932e+01
  -1.930452e+02   1.346522e+01
  -2.704286e+02  -7.983974e+01
  -2.129516e+02  -2.099778e+02
   1.463264e+01  -2.951629e+02
   2.528885e+02  -2.565996e+02
   3.150116e+02  -1.027915e+02
   1.810577e+02   6.980044e+01
   3.650341e+00   1.440738e+02
  -5.596422e+01   1.070252e+02
   8.993527e+00   2.636439e+01
   7.361454e+01  -3.260717e+00
   6.981771e+01   3.191369e+01
  -3.315442e+00   6.840732e+01
  -6.076059e+01   3.778910e+01
  -5.021100e+01  -3.570324e+01
   2.589546e+01  -6.350202e+01
   9.463573e+01   9.799372e+00
   9.012638e+01   1.496081e+02
  -1.761952e+01   2.205828e+02
  -1.675131e+02   1.398700e+02
  -2.485018e+02  -4.431134e+01
  -1.874984e+02  -1.910052e+02
  -3.243656e+01  -1.986598e+02
   8.881997e+01  -9.549162e+01
   9.482400e+01   8.913806e-01
   1.415944e+01   2.042105e+00
  -2.670880e+01  -5.035966e+01
   1.596699e+01  -7.182965e+01
   8.085906e+01  -2.999661e+01
   8.064393e+01   2.247355e+01
   1.053494e+01   2.924038e+01
  -5.189991e+01  -1.969247e+01
  -1.780891e+01  -6.723802e+01
   1.053611e+02  -5.722488e+01
   2.021818e+02   2.500317e+01
   1.677488e+02   1.266167e+02
   1.210150e+01   1.778406e+02
  -1.440118e+02   1.496331e+02
  -1.702534e+02   5.465941e+01
  -8.357679e+01  -3.108118e+01
   1.778370e+01  -4.195408e+01
   3.178089e+01   8.972064e+00
  -4.301755e+01   4.858692e+01
  -1.185721e+02   1.344154e+01
  -1.170596e+02  -7.606047e+01
  -3.281118e+01  -1.184065e+02
   5.526567e+01  -8.198786e+01
   7.634593e+01  -7.867383e+00
   2.787452e+01   1.902262e+01
  -3.077323e+01  -2.189276e+01
  -1.526187e+01  -7.909910e+01
   7.264986e+01  -7.497019e+01
   1.463508e+02   3.928225e+00
   1.200879e+02   9.507364e+01
   4.083848e+00   1.348106e+02
  -1.024466e+02   9.147849e+01
  -1.106422e+02   8.038125e+00
  -3.514115e+01  -5.098588e+01
   3.704003e+01  -5.174914e+01
   4.262831e+01  -1.378884e+01
  -3.236429e+00   1.681257e+01
  -2.986847e+01   4.497912e+00
   3.862393e+00  -1.778373e+01
   5.991673e+01  -7.578351e-01
   7.222337e+01   6.328660e+01
   5.909539e+00   1.198363e+02
  -9.987405e+01   1.014524e+02
  -1.595235e+02   2.880461e+00
  -1.238133e+02  -1.069016e+02
  -1.906123e+01  -1.474068e+02
   6.740833e+01  -1.004159e+02
   8.480569e+01  -1.882637e+01
   4.809845e+01   2.750725e+01
   2.081428e+01   1.659605e+01
   3.539264e+01  -1.448993e+01
   6.074520e+01  -5.853960e+00
   4.246055e+01   4.100304e+01
  -2.630345e+01   7.588314e+01
  -8.997973e+01   4.741123e+01
  -7.941568e+01  -3.342328e+01
   1.379845e+01  -9.320215e+01
   1.185643e+02  -6.229844e+01
   1.407759e+02   4.789700e+01
   5.417216e+01   1.433272e+02
  -8.456512e+01   1.455672e+02
  -1.760724e+02   4.950797e+01
  -1.582080e+02  -5.943894e+01
  -6.319110e+01  -1.105008e+02
   2.724914e+01  -8.652397e+01
   5.931304e+01  -5.000221e+01
   4.484823e+01  -4.385366e+01
   3.520144e+01  -6.313752e+01
   5.760794e+01  -5.368012e+01
   8.829549e+01   1.237332e+01
   7.948722e+01   1.025507e+02
   1.511294e+01   1.449535e+02
  -6.945386e+01   1.044368e+02
  -1.094993e+02   3.821812e+00
  -7.561001e+01  -8.416194e+01
   4.275549e-01  -1.011536e+02
   5.343288e+01  -5.114293e+01
   4.298066e+01   1.061629e+01
  -5.112453e+00   3.731064e+01
  -2.163640e+01   2.400543e+01
   1.834092e+01   6.394806e+00
   6.010012e+01   1.370565e+01
   3.515326e+01   3.102728e+01
  -5.297914e+01   2.918545e+01
  -1.138622e+02  -6.392072e+00
  -8.649459e+01  -5.125339e+01
   9.902525e+00  -6.821313e+01
   9.055187e+01  -4.256076e+01
   9.128960e+01   1.702235e+00
   2.783512e+01   3.445227e+01
  -3.596187e+01   3.222771e+01
  -5.204281e+01  -1.252585e+01
  -1.845534e+01  -5.254167e+01
   2.690180e+01  -4.589494e+01
   4.694974e+01  -8.691695e-01
   4.264721e+01   3.410238e+01
   3.270843e+01   2.597632e+01
   3.171184e+01  -8.166846e-01
   4.606669e+01   7.077623e-01
   3.306240e+01   5.177016e+01
  -1.852279e+01   1.040539e+02
  -9.021927e+01   9.647770e+01
  -1.247234e+02   1.890172e+01
  -8.715133e+01  -6.460361e+01
   6.752091e-01  -8.545665e+01
   6.372023e+01  -4.502650e+01
   4.087897e+01   6.272271e+00
  -4.074998e+01   9.733311e+00
  -8.918207e+01  -3.114796e+01
  -4.936658e+01  -6.762587e+01
   4.865528e+01  -6.309815e+01
   1.151306e+02  -2.177091e+01
   9.687504e+01   2.841136e+01
   1.574268e+01   5.007283e+01
  -4.324397e+01   3.215892e+01
  -2.988897e+01  -6.295057e+00
   3.019403e+01  -1.899498e+01
   5.996640e+01   1.331815e+01
   2.492319e+01   7.396861e+01
  -5.076655e+01   9.750545e+01
  -9.912459e+01   4.459940e+01
  -8.127807e+01  -5.714611e+01
  -1.447468e+01  -1.240587e+02
   5.224430e+01  -9.071433e+01
   6.755103e+01   7.368668e+00
   3.208185e+01   7.763285e+01
  -1.653602e+01   6.590534e+01
  -3.661473e+01   8.023618e+00
  -2.628617e+01  -2.338904e+01
  -7.720473e+00  -5.356862e+00
  -5.590576e+00   9.767567e+00
  -2.282750e+01  -1.617409e+01
  -3.916880e+01  -5.910990e+01
  -1.584774e+01  -6.761215e+01
   3.868841e+01  -2.557209e+01
   8.351382e+01   2.331682e+01
   7.555541e+01   4.288738e+01
   1.490681e+01   3.518745e+01
  -4.654439e+01   2.030367e+01
  -5.565173e+01   4.058536e+00
  -1.503892e+01  -1.020281e+01
   1.888011e+01  -1.420968e+01
   1.349544e+01  -6.598897e+00
  -7.118966e+00   2.973755e+00
   1.217711e+00   1.189326e+00
   4.174459e+01  -3.684203e+00
   6.245072e+01   1.340259e+01
   1.994822e+01   5.262589e+01
  -6.441761e+01   7.534086e+01
  -1.243568e+02   4.597603e+01
  -1.048284e+02  -3.242500e+01
  -2.503525e+01  -1.018179e+02
   5.173530e+01  -1.023709e+02
   7.370915e+01  -4.539302e+01
   5.053887e+01   1.035212e+01
   1.870987e+01   2.540678e+01
   4.284282e+00   1.079308e+01
   1.191549e+01   7.946394e+00
   1.844053e+01   3.516663e+01
   8.981139e+00   6.101866e+01
  -2.003518e+01   4.948118e+01
  -5.200283e+01  -6.648574e+00
  -5.724501e+01  -6.194807e+01
  -1.804967e+01  -7.181831e+01
   4.419845e+01  -2.765201e+01
   7.122561e+01   3.523316e+01
   3.342604e+01   6.702801e+01
  -3.813155e+01   4.481089e+01
  -7.115410e+01  -2.321740e+00
  -3.291275e+01  -3.895334e+01
   2.316146e+01  -4.064943e+01
   2.875509e+01  -1.684191e+01
  -1.448518e+01   6.709640e+00
  -4.652176e+01   5.863207e+00
  -1.492861e+01  -2.053448e+01
   5.064986e+01  -4.462214e+01
   8.127432e+01  -3.382697e+01
   4.835381e+01   1.211059e+01
  -9.983236e+00   5.330341e+01
  -3.904698e+01   5.169807e+01
  -2.932713e+01   1.110270e+01
  -5.220307e+00  -3.116233e+01
   1.641640e+01  -3.299188e+01
   2.497604e+01   3.240053e+00
   2.071734e+01   3.495135e+01
   2.464963e+00   2.868221e+01
  -2.138493e+01  -3.136405e-01
  -2.905947e+01  -1.468517e+01
  -1.509875e+01  -2.836802e+00
   3.168368e+00   1.479127e+01
   3.854037e+00   9.031468e+00
  -6.290432e+00  -1.828744e+01
  -3.976837e+00  -3.555322e+01
   1.450692e+01  -1.697628e+01
   2.943368e+01   2.012899e+01
   1.117067e+01   3.699449e+01
  -2.503245e+01   1.792979e+01
  -4.191392e+01  -2.057617e+01
  -1.630594e+01  -3.852187e+01
   3.763974e+01  -2.414537e+01
   6.372805e+01   5.546783e+00
   3.429334e+01   2.748193e+01
  -1.780028e+01   3.043388e+01
  -4.158453e+01   2.195029e+01
  -2.163520e+01   6.983627e+00
   1.235637e+01  -3.266999e+00
   2.047305e+01   1.354589e-01
  -1.002023e+01   1.402210e+01
  -4.350122e+01   1.322060e+01
