
 $NMID
 id='ANONYMOUS ', fmtdat='(2E16.6)'
 volume=1.0
 tramp=1.0
 $END
  -2.678898e+03   3.991899e+01
  -1.716905e+03  -1.256942e+03
  -7.777345e+01  -1.539848e+03
   9.909412e+02  -1.101726e+03
   8.420239e+02  -2.515630e+02
   1.386529e+02   1.827148e+02
  -2.187452e+02   3.693325e+01
  -9.491792e+01  -3.304248e+02
   2.455623e+02  -4.160900e+02
   4.415128e+02  -9.299042e+01
   3.397832e+02   3.709816e+02
   5.677337e+01   5.038652e+02
  -2.319945e+02   1.759953e+02
  -2.451836e+02  -2.968087e+02
   2.006784e+01  -4.005484e+02
   2.900566e+02  -7.165067e+01
   2.496791e+02   3.563426e+02
  -7.715776e+01   4.902108e+02
  -3.530226e+02   2.480749e+02
  -3.506823e+02  -1.029209e+02
  -1.303953e+02  -2.584346e+02
   6.828199e+01  -2.039343e+02
   3.729927e+01  -8.823420e+01
  -1.428178e+02  -1.015392e+02
  -2.007082e+02  -2.052994e+02
   1.736882e+01  -2.570444e+02
   3.621264e+02  -1.087678e+02
   4.605819e+02   1.328996e+02
   1.902272e+02   2.703212e+02
  -2.430857e+02   1.787128e+02
  -4.230010e+02  -6.819814e+01
  -1.730465e+02  -2.707456e+02
   1.938282e+02  -2.775574e+02
   3.631761e+02  -9.921852e+01
   2.557050e+02   1.208350e+02
   6.631209e+01   2.381518e+02
  -3.028950e+01   1.560752e+02
   2.455585e+01  -5.255278e+01
   1.225964e+02  -1.239025e+02
   1.602511e+02   9.913767e+01
   2.143993e+01   3.957235e+02
  -1.807385e+02   3.865664e+02
  -2.709590e+02   4.334931e+01
  -1.155429e+02  -2.408093e+02
   1.024872e+02  -1.285180e+02
   1.326299e+02   1.906659e+02
  -9.939964e+01   2.959404e+02
  -3.461216e+02   7.622060e+01
  -3.792208e+02  -2.415159e+02
  -1.256270e+02  -3.641375e+02
   2.170643e+02  -2.201165e+02
   4.166643e+02   1.482271e+01
   2.965244e+02   1.871877e+02
  -2.373275e+01   2.133434e+02
  -2.297825e+02   9.998150e+01
  -1.789119e+02  -2.879942e+01
  -7.708834e+00  -3.512404e+01
   5.049733e+01   5.548713e+01
  -7.125047e+01   7.269599e+01
  -1.900212e+02  -3.448999e+01
  -9.413640e+01  -1.674557e+02
   1.194609e+02  -2.022531e+02
   2.737149e+02  -1.062967e+02
   2.188377e+02   8.408811e+01
  -9.811111e+00   2.681583e+02
  -2.315774e+02   2.970808e+02
  -2.902721e+02   1.300464e+02
  -1.810684e+02  -1.307021e+02
  -3.991241e+01  -2.821395e+02
   2.416732e+01  -2.451874e+02
   1.254785e+01  -1.223983e+02
   1.823000e+01  -7.920936e+01
   1.090560e+02  -9.817215e+01
   1.987267e+02  -4.874367e+01
   1.843320e+02   9.331934e+01
   7.271536e+01   2.045306e+02
  -6.663457e+01   1.506991e+02
  -1.420271e+02  -3.704928e+01
  -1.071788e+02  -1.950841e+02
   3.934581e+01  -1.954711e+02
   1.975678e+02  -4.797439e+01
   2.465995e+02   1.359975e+02
   1.390675e+02   2.304784e+02
  -3.132829e+01   1.951362e+02
  -1.244615e+02   1.138388e+02
  -1.107478e+02   6.732931e+01
  -1.109929e+02   6.252484e+01
  -2.148663e+02   4.339560e+01
  -3.316130e+02  -7.413725e+01
  -2.516588e+02  -2.354021e+02
   1.076627e+01  -3.445292e+02
   2.852929e+02  -3.242067e+02
   3.652605e+02  -1.585604e+02
   2.288300e+02   5.813482e+01
   2.934807e+01   1.836527e+02
  -5.832544e+01   1.540319e+02
  -1.853029e+00   3.570072e+01
   9.037418e+01  -3.135373e+01
   1.048314e+02   2.657773e+01
   1.037196e+01   1.120235e+02
  -9.736417e+01   8.499693e+01
  -9.434520e+01  -4.102644e+01
   2.019138e+01  -1.098675e+02
   1.356591e+02  -9.186770e+00
   1.328550e+02   1.790662e+02
  -7.734337e+00   2.702136e+02
  -1.913872e+02   1.706844e+02
  -2.892941e+02  -4.147061e+01
  -2.267038e+02  -2.104991e+02
  -5.159723e+01  -2.175105e+02
   9.801485e+01  -1.085801e+02
   1.156573e+02  -4.135803e+00
   2.547551e+01   2.702577e+00
  -3.911253e+01  -5.236836e+01
   3.113189e+00  -8.801294e+01
   9.102938e+01  -4.816836e+01
   1.046243e+02   2.269751e+01
   1.871902e+01   3.832438e+01
  -6.854200e+01  -1.561306e+01
  -2.899020e+01  -7.919678e+01
   1.215616e+02  -7.073009e+01
   2.401116e+02   1.757927e+01
   2.003124e+02   1.345618e+02
   1.858561e+01   2.129319e+02
  -1.657689e+02   1.906009e+02
  -2.097604e+02   8.780904e+01
  -1.089697e+02  -3.218527e+01
   1.854212e+01  -5.883006e+01
   4.511641e+01   3.472469e+00
  -4.283158e+01   5.894462e+01
  -1.385599e+02   2.455330e+01
  -1.385838e+02  -7.676727e+01
  -4.149523e+01  -1.420616e+02
   6.229270e+01  -1.019346e+02
   9.302692e+01  -1.467047e+01
   3.243574e+01   2.882367e+01
  -3.504786e+01  -2.001829e+01
  -2.199146e+01  -8.979405e+01
   7.641668e+01  -9.836182e+01
   1.679959e+02  -1.038978e+01
   1.444734e+02   1.090255e+02
   1.069883e+01   1.648901e+02
  -1.189558e+02   1.229256e+02
  -1.374762e+02   1.241806e+01
  -4.746033e+01  -7.122462e+01
   3.972526e+01  -7.294966e+01
   4.924546e+01  -2.033134e+01
  -3.076733e+00   1.653608e+01
  -2.887957e+01   1.831863e+00
   1.093145e+01  -2.306862e+01
   7.550328e+01  -1.880558e+00
   8.702186e+01   7.492888e+01
   1.147442e+01   1.433113e+02
  -1.126949e+02   1.256926e+02
  -1.910736e+02   1.145838e+01
  -1.545220e+02  -1.205934e+02
  -3.475427e+01  -1.778744e+02
   7.659529e+01  -1.254815e+02
   1.004797e+02  -2.489875e+01
   5.751762e+01   3.446966e+01
   2.500113e+01   2.182630e+01
   4.305164e+01  -1.389432e+01
   7.062356e+01  -7.153500e+00
   4.731274e+01   4.679256e+01
  -2.941601e+01   8.841151e+01
  -9.782867e+01   5.549938e+01
  -8.661618e+01  -3.627886e+01
   1.112429e+01  -1.036133e+02
   1.281116e+02  -7.351924e+01
   1.653062e+02   4.943963e+01
   7.330068e+01   1.631764e+02
  -9.341351e+01   1.732311e+02
  -2.052046e+02   6.605792e+01
  -1.884508e+02  -6.507164e+01
  -7.621124e+01  -1.280471e+02
   2.939582e+01  -1.039053e+02
   6.494799e+01  -5.781433e+01
   5.032326e+01  -4.938347e+01
   4.124260e+01  -7.014829e+01
   6.829250e+01  -6.345496e+01
   1.027220e+02   9.312765e+00
   9.668741e+01   1.166993e+02
   2.612561e+01   1.781310e+02
  -7.491886e+01   1.325850e+02
  -1.324351e+02   1.163235e+01
  -1.016828e+02  -9.570217e+01
  -1.121696e+01  -1.204469e+02
   5.294001e+01  -6.687818e+01
   4.488406e+01   8.363056e+00
  -5.477577e+00   3.821256e+01
  -2.030984e+01   2.479365e+01
   2.609859e+01   5.609861e+00
   7.211050e+01   1.065763e+01
   3.997294e+01   3.115151e+01
  -6.009505e+01   3.202664e+01
  -1.342199e+02   1.551698e+00
  -1.099992e+02  -4.408161e+01
   8.562178e-01  -7.355974e+01
   1.055043e+02  -6.220487e+01
   1.145557e+02  -8.424639e+00
   3.361714e+01   4.031409e+01
  -4.943096e+01   3.638659e+01
  -6.437401e+01  -1.212682e+01
  -1.665745e+01  -5.867921e+01
   3.353554e+01  -5.315672e+01
   5.242919e+01  -3.497106e+00
   4.513261e+01   3.704063e+01
   3.780179e+01   3.191023e+01
   4.538240e+01  -2.002838e+00
   5.079057e+01  -1.184164e+00
   3.693533e+01   5.601346e+01
  -1.545819e+01   1.195794e+02
  -9.088373e+01   1.141634e+02
  -1.397438e+02   3.108469e+01
  -1.064473e+02  -6.889142e+01
  -7.378863e+00  -1.034274e+02
   7.181351e+01  -5.602711e+01
   5.103582e+01   6.817679e+00
  -4.938443e+01   1.355700e+01
  -1.123520e+02  -3.401795e+01
  -6.166791e+01  -8.413297e+01
   5.922909e+01  -8.558513e+01
   1.446915e+02  -3.919367e+01
   1.227238e+02   2.785303e+01
   2.504664e+01   6.456336e+01
  -4.772784e+01   5.002431e+01
  -3.739508e+01   1.341192e+00
   3.171080e+01  -2.307661e+01
   7.470771e+01   1.369917e+01
   3.809522e+01   8.943587e+01
  -5.605108e+01   1.249537e+02
  -1.240655e+02   6.372677e+01
  -1.046078e+02  -6.547143e+01
  -1.764702e+01  -1.474451e+02
   6.353537e+01  -1.107941e+02
   8.130852e+01   4.788821e+00
   4.351583e+01   8.977518e+01
  -8.891705e+00   7.922853e+01
  -3.989968e+01   1.390974e+01
  -3.538584e+01  -2.380997e+01
  -1.399656e+01  -6.167533e+00
  -6.262916e+00   1.250819e+01
  -2.500413e+01  -1.800218e+01
  -4.577941e+01  -6.599558e+01
  -2.719931e+01  -7.854162e+01
   4.384591e+01  -3.320401e+01
   1.091925e+02   2.410826e+01
   9.728264e+01   5.127394e+01
   1.200012e+01   4.312596e+01
  -6.368762e+01   2.208001e+01
  -6.640319e+01   6.505659e+00
  -1.138473e+01  -7.958978e+00
   2.628492e+01  -1.675301e+01
   1.312913e+01  -1.083235e+01
  -1.170051e+01   3.578294e+00
   2.647536e+00   5.919979e+00
   5.126078e+01   8.762378e-02
   7.333516e+01   1.712824e+01
   1.804199e+01   6.564382e+01
  -8.262514e+01   9.597064e+01
  -1.532726e+02   5.967764e+01
  -1.277375e+02  -4.298347e+01
  -3.146234e+01  -1.259107e+02
   5.863131e+01  -1.290470e+02
   8.947242e+01  -5.754240e+01
   6.253360e+01   8.937191e+00
   2.038310e+01   2.579924e+01
   2.711998e+00   9.809063e+00
   1.324196e+01   6.892207e+00
   2.713578e+01   3.836946e+01
   1.496403e+01   6.947837e+01
  -2.317790e+01   5.617311e+01
  -6.272600e+01  -8.899062e+00
  -6.609798e+01  -7.667678e+01
  -1.295335e+01  -8.756815e+01
   5.811465e+01  -3.044522e+01
   8.596441e+01   4.782749e+01
   3.633980e+01   8.107195e+01
  -4.680269e+01   5.372552e+01
  -8.427688e+01  -1.800523e+00
  -4.062046e+01  -4.406614e+01
   2.369203e+01  -5.159100e+01
   3.032185e+01  -2.481121e+01
  -1.887371e+01   5.475613e+00
  -5.246240e+01   6.983986e+00
  -1.381154e+01  -2.229166e+01
   5.898068e+01  -5.143358e+01
   8.943771e+01  -4.362104e+01
   5.362920e+01   1.110394e+01
  -6.750720e+00   6.639448e+01
  -4.162944e+01   6.351108e+01
  -3.537291e+01   1.019696e+01
  -7.366390e+00  -4.071502e+01
   1.604277e+01  -3.910287e+01
   2.886272e+01   3.825208e+00
   2.519355e+01   3.931200e+01
   1.653924e+00   3.306423e+01
  -2.734610e+01  -1.338849e+00
  -3.536570e+01  -1.850067e+01
  -1.637802e+01  -4.710757e+00
   3.812092e+00   1.361770e+01
   4.382640e+00   6.411674e+00
  -4.291326e+00  -2.557325e+01
  -6.947741e-01  -4.311068e+01
   2.025912e+01  -1.885737e+01
   3.407418e+01   2.628863e+01
   1.298411e+01   4.675199e+01
  -2.954852e+01   2.306384e+01
  -4.996915e+01  -2.342930e+01
  -1.662756e+01  -4.899555e+01
   4.406652e+01  -3.068439e+01
   7.394482e+01   7.135121e+00
   4.119608e+01   3.339438e+01
  -2.025363e+01   3.593972e+01
  -5.045296e+01   2.406614e+01
  -2.344374e+01   7.498983e+00
   2.155805e+01  -3.679378e+00
   2.752869e+01   2.726257e+00
  -1.609898e+01   1.934396e+01
  -5.933508e+01   2.045311e+01
