
 $NMID
 id='ANONYMOUS ', fmtdat='(2E16.6)'
 volume=1.0
 tramp=1.0
 $END
   2.506681e+03  -6.995315e+01
   1.672372e+03   1.432370e+03
   3.523920e+01   1.789460e+03
  -1.087697e+03   1.129476e+03
  -8.448125e+02   2.421972e+02
  -3.090398e+01  -1.803885e+02
   3.299595e+02   7.670041e+01
   6.023070e+01   4.668923e+02
  -3.896415e+02   5.179329e+02
  -5.636012e+02   1.015872e+02
  -3.727412e+02  -4.186258e+02
  -3.158522e+01  -5.314003e+02
   2.414505e+02  -1.388987e+02
   1.992441e+02   3.530629e+02
  -9.504883e+01   4.586882e+02
  -3.267516e+02   7.484893e+01
  -2.437779e+02  -3.964391e+02
   1.026012e+02  -5.133099e+02
   3.770098e+02  -2.317987e+02
   3.498835e+02   1.615260e+02
   1.153656e+02   3.185727e+02
  -8.473833e+01   2.149746e+02
  -3.096618e+01   5.403233e+01
   1.640160e+02   8.861340e+01
   2.119333e+02   2.502451e+02
  -4.215073e+01   3.078629e+02
  -4.146404e+02   1.459190e+02
  -4.830320e+02  -1.656009e+02
  -1.576936e+02  -2.894283e+02
   2.977176e+02  -1.410352e+02
   4.220166e+02   1.410506e+02
   1.299892e+02   3.176636e+02
  -2.393113e+02   2.688314e+02
  -3.952047e+02   8.764320e+01
  -2.623864e+02  -1.150696e+02
  -6.296072e+01  -2.437163e+02
   2.769187e+01  -1.341262e+02
  -3.211942e+01   7.532640e+01
  -1.506686e+02   1.324702e+02
  -1.557312e+02  -1.345392e+02
  -9.348000e+00  -4.011319e+02
   2.066050e+02  -3.319055e+02
   2.492502e+02   2.972234e+01
   8.187908e+01   2.654212e+02
  -1.189692e+02   9.989504e+01
  -1.255667e+02  -2.386042e+02
   9.370174e+01  -3.141064e+02
   3.659939e+02  -3.556720e+01
   3.955329e+02   3.367233e+02
   1.344921e+02   4.122970e+02
  -2.406942e+02   2.118901e+02
  -4.121172e+02  -5.705926e+01
  -2.744613e+02  -1.925902e+02
   3.589431e+01  -1.541337e+02
   2.202794e+02  -5.595460e+01
   1.619222e+02   5.715315e+00
   1.358198e+01  -8.230205e+00
  -3.595246e+01  -5.082071e+01
   8.251143e+01  -3.431650e+01
   1.911375e+02   4.867608e+01
   1.121814e+02   1.462013e+02
  -1.169457e+02   1.968634e+02
  -2.784583e+02   1.154130e+02
  -2.201717e+02  -7.853156e+01
   1.783756e+01  -2.761301e+02
   2.502145e+02  -3.046615e+02
   2.979202e+02  -1.336091e+02
   1.924250e+02   1.370793e+02
   6.184412e+01   2.856919e+02
   3.237174e+00   2.620300e+02
   1.252174e+00   1.524671e+02
  -2.621070e+01   9.043148e+01
  -1.223356e+02   9.680872e+01
  -2.117442e+02   3.702842e+01
  -1.957681e+02  -1.126655e+02
  -6.541196e+01  -2.187715e+02
   8.977929e+01  -1.563070e+02
   1.636593e+02   3.691018e+01
   1.092599e+02   1.990603e+02
  -4.671961e+01   1.960899e+02
  -2.035385e+02   3.383816e+01
  -2.466545e+02  -1.608872e+02
  -1.248992e+02  -2.542249e+02
   4.899327e+01  -2.251444e+02
   1.379624e+02  -1.311210e+02
   1.230716e+02  -7.106069e+01
   1.290428e+02  -5.843044e+01
   2.393974e+02  -2.947092e+01
   3.498759e+02   7.749161e+01
   2.573552e+02   2.443471e+02
  -2.719129e+01   3.677149e+02
  -3.198666e+02   3.295219e+02
  -3.976697e+02   1.317371e+02
  -2.382245e+02  -9.405917e+01
  -1.284347e+01  -2.099671e+02
   7.442044e+01  -1.580696e+02
  -1.040577e+00  -3.295182e+01
  -1.046372e+02   2.317631e+01
  -9.832779e+01  -3.929505e+01
   3.891084e-01  -1.145002e+02
   9.292084e+01  -8.281354e+01
   7.897462e+01   4.003938e+01
  -3.127445e+01   1.009088e+02
  -1.270949e+02  -6.769675e+00
  -1.154124e+02  -1.947610e+02
   1.731006e+01  -2.824178e+02
   1.954279e+02  -1.730122e+02
   2.904118e+02   4.346077e+01
   2.356100e+02   2.124629e+02
   5.499378e+01   2.194283e+02
  -1.016612e+02   1.102183e+02
  -1.208997e+02   3.836402e+00
  -2.998400e+01  -8.169721e+00
   3.831113e+01   5.527291e+01
  -8.876341e+00   9.105887e+01
  -1.051798e+02   4.666390e+01
  -1.296241e+02  -2.498256e+01
  -2.620847e+01  -4.055982e+01
   6.689162e+01   1.434430e+01
   3.100684e+01   7.633935e+01
  -1.220744e+02   7.189468e+01
  -2.529170e+02  -1.975955e+01
  -2.090017e+02  -1.418839e+02
  -1.908102e+01  -2.165485e+02
   1.736809e+02  -1.926464e+02
   2.174562e+02  -7.704819e+01
   1.069869e+02   4.112165e+01
  -2.770848e+01   6.459147e+01
  -5.069737e+01  -5.058935e+00
   4.406614e+01  -6.829927e+01
   1.449057e+02  -2.750950e+01
   1.472490e+02   8.637362e+01
   3.961151e+01   1.525942e+02
  -7.345545e+01   1.072158e+02
  -1.023987e+02   5.104943e+00
  -3.481994e+01  -3.252396e+01
   3.780318e+01   2.026386e+01
   2.096878e+01   9.544170e+01
  -8.703794e+01   9.744009e+01
  -1.779403e+02   6.682599e+00
  -1.473088e+02  -1.130323e+02
  -6.321168e+00  -1.718321e+02
   1.265666e+02  -1.215155e+02
   1.388516e+02  -8.149053e+00
   4.129804e+01   7.794757e+01
  -5.438402e+01   7.739927e+01
  -5.375599e+01   1.924537e+01
   4.032876e+00  -2.085959e+01
   3.234636e+01  -6.376014e+00
  -9.003197e+00   2.305711e+01
  -7.586364e+01   4.423328e+00
  -8.706964e+01  -7.467771e+01
  -3.924767e+00  -1.455983e+02
   1.223621e+02  -1.262605e+02
   1.954800e+02  -6.200416e+00
   1.551641e+02   1.346977e+02
   3.042797e+01   1.946041e+02
  -8.258270e+01   1.374121e+02
  -1.082726e+02   3.003439e+01
  -6.470785e+01  -3.335442e+01
  -3.241151e+01  -2.432277e+01
  -4.999356e+01   1.074298e+01
  -7.493648e+01   3.586556e+00
  -4.665627e+01  -5.029191e+01
   3.736699e+01  -8.993367e+01
   1.070719e+02  -5.451341e+01
   9.152850e+01   3.974411e+01
  -1.623015e+01   1.107891e+02
  -1.392172e+02   7.348604e+01
  -1.698994e+02  -5.864998e+01
  -6.749675e+01  -1.787411e+02
   1.057698e+02  -1.782326e+02
   2.230706e+02  -6.414683e+01
   2.048301e+02   7.184979e+01
   8.248642e+01   1.354758e+02
  -3.377299e+01   1.139416e+02
  -6.798993e+01   6.844331e+01
  -4.985933e+01   6.197253e+01
  -4.389101e+01   8.320136e+01
  -7.686993e+01   6.707263e+01
  -1.126903e+02  -1.485617e+01
  -9.999101e+01  -1.290547e+02
  -1.962929e+01  -1.885472e+02
   8.468017e+01  -1.359239e+02
   1.404425e+02  -4.520510e+00
   1.008044e+02   1.094248e+02
   1.337589e+00   1.271128e+02
  -6.548998e+01   6.188289e+01
  -5.317862e+01  -1.933221e+01
   3.739397e+00  -5.091325e+01
   2.578333e+01  -3.210263e+01
  -1.862081e+01  -5.175116e+00
  -6.846768e+01  -1.045174e+01
  -3.878789e+01  -3.136831e+01
   6.603727e+01  -3.323961e+01
   1.501205e+02   2.873869e+00
   1.197090e+02   5.580437e+01
  -5.945119e+00   8.249388e+01
  -1.209549e+02   6.191152e+01
  -1.246877e+02   4.916991e+00
  -3.746116e+01  -3.924078e+01
   5.032912e+01  -3.624407e+01
   6.507286e+01   1.446016e+01
   1.703652e+01   5.983940e+01
  -3.821862e+01   5.458463e+01
  -6.003880e+01   1.438303e+00
  -5.184434e+01  -4.531446e+01
  -4.292758e+01  -4.061881e+01
  -4.528404e+01  -3.432047e+00
  -5.149778e+01  -2.599546e+00
  -3.622620e+01  -5.931814e+01
   2.408029e+01  -1.278775e+02
   1.056227e+02  -1.213188e+02
   1.519806e+02  -2.887363e+01
   1.093255e+02   8.092806e+01
   2.570674e-01   1.152110e+02
  -7.938506e+01   6.224386e+01
  -5.155338e+01  -8.209975e+00
   4.997910e+01  -1.914337e+01
   1.085517e+02   3.039085e+01
   5.427465e+01   8.729159e+01
  -7.224334e+01   9.443123e+01
  -1.540581e+02   4.101836e+01
  -1.266903e+02  -2.908666e+01
  -2.561619e+01  -6.912219e+01
   5.023491e+01  -4.976508e+01
   3.652649e+01   1.787403e+00
  -3.394490e+01   2.739530e+01
  -7.573167e+01  -1.499850e+01
  -3.435401e+01  -9.619857e+01
   6.275985e+01  -1.354414e+02
   1.334383e+02  -6.319925e+01
   1.108472e+02   7.651559e+01
   2.081367e+01   1.660312e+02
  -6.608759e+01   1.185220e+02
  -8.813535e+01  -9.005754e+00
  -4.695736e+01  -9.892067e+01
   1.161470e+01  -8.388452e+01
   4.285222e+01  -1.063395e+01
   3.708538e+01   2.625486e+01
   1.332952e+01   6.884306e+00
   4.721485e+00  -1.432614e+01
   2.489719e+01   2.088230e+01
   4.744286e+01   7.570361e+01
   2.509545e+01   8.641354e+01
  -4.876873e+01   3.131894e+01
  -1.144132e+02  -3.610997e+01
  -1.014924e+02  -6.053395e+01
  -1.263309e+01  -4.509991e+01
   6.642458e+01  -1.835342e+01
   7.061041e+01  -3.593747e+00
   1.422898e+01   8.809955e+00
  -2.878273e+01   1.574740e+01
  -1.736780e+01   8.910473e+00
   1.158482e+01  -4.456067e+00
  -5.346874e-01  -4.634823e+00
  -5.258565e+01   2.088200e+00
  -7.498143e+01  -1.752929e+01
  -1.840107e+01  -6.815638e+01
   8.929649e+01  -9.900219e+01
   1.579434e+02  -5.665977e+01
   1.262069e+02   4.755284e+01
   2.725910e+01   1.328230e+02
  -6.667478e+01   1.293982e+02
  -9.580530e+01   5.555961e+01
  -6.887252e+01  -1.711455e+01
  -2.402825e+01  -3.150880e+01
  -3.447686e+00  -1.219567e+01
  -1.312762e+01  -8.853417e+00
  -2.442405e+01  -4.258311e+01
  -1.378643e+01  -7.739464e+01
   2.512609e+01  -5.858516e+01
   6.602666e+01   1.148250e+01
   7.104540e+01   8.457794e+01
   1.604971e+01   9.243898e+01
  -6.022336e+01   2.860380e+01
  -8.805604e+01  -4.889976e+01
  -3.572191e+01  -8.421055e+01
   5.116502e+01  -5.345920e+01
   8.524585e+01   4.484961e+00
   3.872515e+01   4.789486e+01
  -2.714805e+01   5.162236e+01
  -3.220746e+01   2.478425e+01
   2.003243e+01  -4.299502e+00
   5.403204e+01  -6.649910e+00
   1.422852e+01   2.390042e+01
  -6.381191e+01   5.398859e+01
  -9.625821e+01   4.208029e+01
  -5.786365e+01  -1.629246e+01
   9.719495e+00  -7.252183e+01
   4.753331e+01  -6.885351e+01
   3.899179e+01  -1.119477e+01
   6.415394e+00   4.228149e+01
  -1.997032e+01   4.152603e+01
  -3.021208e+01  -6.029827e+00
  -2.402217e+01  -4.185355e+01
  -1.086881e+00  -3.280072e+01
   2.701481e+01   3.113234e+00
   3.469181e+01   1.976797e+01
   1.708735e+01   4.876763e+00
  -3.817490e+00  -1.438440e+01
  -7.722807e+00  -6.412269e+00
   3.283803e+00   2.722853e+01
   1.619596e+00   4.494702e+01
  -2.237942e+01   1.947456e+01
  -3.731333e+01  -2.766381e+01
  -1.331451e+01  -4.893257e+01
   3.242457e+01  -2.325824e+01
   5.349054e+01   2.600040e+01
   1.763022e+01   5.178901e+01
  -4.877474e+01   3.194800e+01
  -8.191065e+01  -6.666519e+00
  -4.465365e+01  -3.608182e+01
   2.363892e+01  -4.101518e+01
   5.522599e+01  -2.700755e+01
   2.564579e+01  -7.228309e+00
  -2.272731e+01   4.715669e+00
  -2.630911e+01  -2.776268e+00
   1.962505e+01  -1.981141e+01
   6.336372e+01  -1.823895e+01
