
 $NMID
 id='ANONYMOUS ', fmtdat='(2E16.6)'
 volume=1.0
 tramp=1.0
 $END
   4.643973e+02  -4.927173e+01
   3.387425e+02   5.903331e+01
   3.919434e+01   2.698383e+02
  -1.174331e+02   3.378860e+02
  -1.398101e+02   1.762359e+02
  -7.982204e+01   4.809761e+01
   9.740665e+00   5.424600e+00
  -2.984012e+01   5.944298e+01
  -6.689055e+01   1.266386e+02
  -8.831095e+01   3.738363e+01
  -6.733138e+01  -5.470004e+01
  -1.594785e+01  -9.200952e+01
   3.853703e-01  -2.295576e+01
  -8.939038e+00   6.187506e+01
  -2.338365e+01   9.486574e+01
  -3.220001e+01   1.098564e+01
  -2.221734e+01  -6.253410e+01
   1.215406e+01  -8.894243e+01
   4.999871e+01  -5.005050e+01
   7.087286e+01   2.860835e+01
   2.598677e+01   6.279372e+01
  -1.137679e+01   3.352718e+01
   8.018044e+00   6.798968e-01
   4.978859e+01   4.409442e+01
   3.464491e+01   9.456582e+01
  -4.291229e+01   7.835426e+01
  -8.783776e+01  -9.717799e+00
  -8.879113e+01  -8.368795e+01
   1.982248e+01  -6.496044e+01
   7.922703e+01   2.330525e+01
   6.113529e+01   7.700592e+01
  -1.328811e+01   6.685030e+01
  -5.434974e+01   2.230031e+01
  -5.098747e+01  -4.410291e+00
  -1.645022e+01  -2.487917e+01
   1.248879e+00  -1.629961e+01
  -2.066644e+01  -1.889809e+00
  -4.072195e+01   1.071583e+01
  -4.688507e+01  -1.785286e+01
  -8.575209e+00  -6.848165e+01
   6.269451e+01  -7.040499e+01
   8.405273e+01  -3.221935e+01
   2.626074e+01   3.224724e+01
  -3.066248e+01   2.888218e+01
  -2.438624e+01  -3.215030e+01
   6.215514e+00  -6.804827e+01
   5.274321e+01  -2.441973e+01
   9.818912e+01   3.804821e+01
   9.353585e+01   8.144575e+01
   1.076901e+01   6.268118e+01
  -6.276046e+01   6.236031e+00
  -7.300698e+01  -5.139851e+01
  -2.884687e+01  -5.023166e+01
   3.688459e+01  -3.543407e+00
   3.624167e+01   3.685554e+00
   4.567090e+00  -2.180897e+01
   1.967436e+01  -3.152223e+01
   3.339995e+01  -7.245308e+00
   3.921943e+01   1.934391e+01
   2.417370e+01   1.359216e+01
   3.565213e+00   1.024960e+01
  -3.281300e+01   2.806981e+01
  -5.950558e+01   1.285524e+01
  -4.409999e+01  -4.435760e+01
   2.685970e+01  -7.300502e+01
   8.472718e+01  -6.493348e+01
   7.653129e+01   6.754680e+00
   1.449704e+01   4.663551e+01
  -1.095405e+01   4.923630e+01
  -2.067407e+00   3.087542e+01
   9.896782e+00   3.646223e+01
  -1.011529e+01   4.237530e+01
  -4.879092e+01   1.782343e+01
  -6.138358e+01  -1.930940e+01
  -3.141597e+01  -4.736719e+01
   1.213441e+01  -4.950650e+01
   3.379984e+01  -1.341112e+01
   2.454237e+01   2.410476e+01
  -2.369687e+00   4.930127e+01
  -2.946498e+01   2.556849e+01
  -4.054391e+01  -1.957691e+01
  -2.763945e+01  -4.761998e+01
  -7.852955e+00  -5.100904e+01
   1.047576e+01  -3.983666e+01
   1.445382e+01  -2.584763e+01
   2.024063e+01  -1.938551e+01
   3.455788e+01  -1.161810e+01
   6.216397e+01   3.984260e+00
   6.671308e+01   3.673181e+01
   3.575910e+01   6.731439e+01
  -4.036331e+01   7.227069e+01
  -9.052815e+01   4.392456e+01
  -9.076169e+01  -6.717605e-01
  -2.836863e+01  -3.352310e+01
   2.118920e+01  -2.628565e+01
   1.252899e+01  -5.476366e+00
  -1.831119e+01  -6.554135e-01
  -3.590898e+01  -1.015765e+01
  -1.602904e+01  -2.713886e+01
   1.496146e+01  -1.667059e+01
   1.650729e+01   7.453758e+00
  -2.806659e+00   1.356784e+01
  -1.903788e+01   4.001455e+00
  -1.893530e+01  -2.182454e+01
  -6.921568e+00  -4.950819e+01
   1.164691e+01  -4.827829e+01
   4.232876e+01  -2.243393e+01
   5.350458e+01   2.449865e+01
   3.467405e+01   5.602252e+01
  -6.604822e+00   4.506525e+01
  -3.104809e+01   5.772271e+00
  -2.190058e+01  -1.220871e+01
  -9.383013e-01   1.695082e+00
   1.232820e+00   1.884360e+01
  -1.343921e+01   1.460748e+01
  -2.514693e+01  -2.156556e+00
  -1.956406e+01  -1.050696e+01
   2.924024e+00  -4.522382e+00
   1.686947e+01   1.617975e+01
   6.700636e-01   2.351814e+01
  -3.686481e+01   7.451761e+00
  -6.241028e+01  -2.445149e+01
  -3.644837e+01  -4.416968e+01
   1.688120e+01  -3.886057e+01
   5.754213e+01  -2.075824e+01
   5.166742e+01   7.741890e+00
   1.063800e+01   1.408127e+01
  -1.275544e+01   6.923701e+00
  -6.834074e+00  -2.926911e+00
   1.352942e+01  -3.847582e-01
   2.486934e+01   1.324021e+01
   1.598027e+01   2.346612e+01
  -3.615094e+00   2.499834e+01
  -2.069137e+01   1.162467e+01
  -1.801602e+01  -3.528931e+00
  -6.061656e-01  -5.102584e+00
   9.111848e+00   1.253779e+01
  -1.774175e+00   2.458965e+01
  -2.693204e+01   1.511445e+01
  -3.566912e+01  -1.047250e+01
  -1.802896e+01  -2.793652e+01
   1.217273e+01  -2.845317e+01
   2.902931e+01  -1.083321e+01
   1.935685e+01   4.868712e+00
  -8.814893e-01   1.521501e+01
  -1.180349e+01   1.587621e+01
  -8.722864e+00   5.677736e+00
   1.391744e+00  -1.258485e+00
   5.461179e+00  -4.179544e-01
  -4.386137e+00   4.043852e+00
  -1.753985e+01  -1.463827e+00
  -1.430116e+01  -1.989286e+01
   6.888158e+00  -3.234808e+01
   3.129465e+01  -1.829481e+01
   3.706747e+01   1.214200e+01
   2.219740e+01   3.201162e+01
  -1.995423e+00   2.928122e+01
  -1.478205e+01   1.599634e+01
  -1.499071e+01   7.608786e-01
  -7.626442e+00  -5.888754e+00
  -6.623882e+00  -1.538718e-01
  -1.330937e+01   4.383621e+00
  -1.743825e+01   1.720372e-01
  -9.848995e+00  -1.259627e+01
   9.096355e+00  -1.829003e+01
   2.359598e+01  -7.460297e+00
   1.755817e+01   1.383008e+01
  -9.772054e+00   2.363995e+01
  -3.335209e+01   6.906033e+00
  -2.951497e+01  -2.808253e+01
  -1.973179e+00  -4.156686e+01
   3.286610e+01  -3.270230e+01
   4.810439e+01  -1.699039e+00
   3.475326e+01   2.333683e+01
   8.391803e+00   3.115827e+01
  -1.278780e+01   1.956561e+01
  -1.586673e+01   3.972492e+00
  -9.885318e+00   5.496919e+00
  -9.543215e+00   1.371847e+01
  -1.448460e+01   1.070459e+01
  -1.997393e+01  -5.842165e+00
  -1.039441e+01  -2.954378e+01
   9.885619e+00  -3.557214e+01
   2.397661e+01  -2.011983e+01
   2.625532e+01   8.257647e+00
   1.650442e+01   2.605476e+01
  -7.101485e+00   2.542458e+01
  -2.111450e+01   1.035571e+01
  -1.294716e+01  -7.657052e+00
   3.745014e+00  -1.302222e+01
   9.348526e+00  -8.427590e+00
  -4.427964e+00  -4.000642e+00
  -1.721674e+01  -2.913613e+00
  -1.030924e+01  -6.290761e+00
   1.446686e+01  -4.513399e+00
   3.633436e+01   8.330392e-02
   2.438016e+01   8.398967e+00
  -7.042516e+00   1.555784e+01
  -2.778608e+01   1.067649e+01
  -2.480884e+01  -2.900051e-01
  -1.967236e+00  -6.341070e+00
   1.177801e+01  -5.324427e+00
   1.166734e+01   5.824229e+00
   2.304661e+00   1.212151e+01
  -7.934485e+00   1.076479e+01
  -1.287123e+01   1.998481e-01
  -1.282031e+01  -7.359965e+00
  -9.351442e+00  -7.767458e+00
  -8.473189e+00  -4.822554e+00
  -8.246306e+00  -2.109358e+00
  -4.675705e+00  -1.172367e+01
   1.050985e+01  -2.727601e+01
   2.874766e+01  -2.568589e+01
   3.480208e+01  -4.675762e+00
   1.910908e+01   2.176086e+01
  -5.565572e+00   2.810561e+01
  -1.789879e+01   1.620746e+01
  -9.154222e+00  -1.550120e+00
   9.017985e+00  -1.531970e+00
   1.705479e+01   1.115486e+01
   3.365562e+00   2.351333e+01
  -1.962035e+01   2.402394e+01
  -3.098163e+01   5.156204e+00
  -2.177478e+01  -1.123130e+01
  -2.842884e+00  -1.610292e+01
   1.121004e+01  -6.848923e+00
   6.676746e+00   5.647693e+00
  -6.443678e+00   6.503765e+00
  -1.372502e+01  -3.904263e+00
  -2.770889e+00  -1.816622e+01
   1.544346e+01  -2.285249e+01
   2.567439e+01  -8.668345e+00
   1.758194e+01   1.705623e+01
  -3.472487e+00   2.951074e+01
  -1.754011e+01   1.626104e+01
  -1.594257e+01  -6.839441e+00
  -5.780680e+00  -2.218947e+01
   5.926427e+00  -1.741456e+01
   1.021714e+01  -1.144311e+00
   6.880757e+00   5.755708e+00
   1.668327e+00   1.085499e+00
   1.337360e+00  -1.036816e+00
   4.102501e+00   8.353664e+00
   6.316933e+00   2.136075e+01
  -2.310237e+00   1.841649e+01
  -1.477669e+01   1.587771e+00
  -2.142311e+01  -1.674165e+01
  -1.558329e+01  -1.734661e+01
   1.518870e+00  -5.977655e+00
   1.365818e+01  -6.719602e-01
   1.448215e+01   1.216925e+00
   3.402650e+00   2.581492e+00
  -6.506444e+00   3.657957e+00
  -7.300075e+00   1.965044e+00
   1.668446e-01  -2.643690e+00
   1.695678e+00  -2.884595e+00
  -6.627492e+00  -1.920305e+00
  -1.323623e+01  -5.242087e+00
  -2.885746e+00  -1.241660e+01
   1.790494e+01  -1.334662e+01
   3.284057e+01  -2.486827e+00
   2.087108e+01   1.270649e+01
  -2.238449e+00   2.214255e+01
  -2.051972e+01   1.984174e+01
  -2.150753e+01   7.542497e+00
  -1.478711e+01  -2.666848e+00
  -4.341345e+00  -4.770910e+00
  -1.900233e+00  -2.891803e+00
  -3.661365e+00  -3.851509e+00
  -2.395994e+00  -1.029936e+01
   1.985822e-01  -1.556776e+01
   5.246958e+00  -8.571740e+00
   9.764278e+00   5.518914e+00
   1.132854e+01   1.680567e+01
   3.491980e+00   1.517234e+01
  -9.575442e+00   2.880468e+00
  -1.382121e+01  -1.061427e+01
  -5.630444e+00  -1.533052e+01
   1.162925e+01  -6.836982e+00
   1.658128e+01   4.100457e+00
   5.040131e+00   1.106105e+01
  -9.175676e+00   1.075037e+01
  -7.966656e+00   4.668423e+00
   3.386602e+00  -6.028319e-01
   1.034748e+01  -4.038164e+00
   4.348828e+00   2.322363e+00
  -1.446268e+01   1.064072e+01
  -2.329597e+01   1.013030e+01
  -1.141177e+01  -2.963717e+00
   4.866336e+00  -1.552484e+01
   9.775706e+00  -1.365501e+01
   6.719693e+00  -4.816349e+00
  -5.653550e-01   5.270444e+00
  -4.271873e+00   7.086099e+00
  -3.922656e+00  -1.664656e-01
  -2.672981e+00  -8.474059e+00
   2.017691e+00  -8.642772e+00
   6.655594e+00   1.334799e+00
   7.649131e+00   7.552344e+00
   3.823093e+00   3.107373e+00
  -5.058111e-01  -2.598394e+00
  -9.926982e-02  -3.147820e+00
   1.747894e+00   2.359379e+00
   1.497722e+00   8.192774e+00
  -2.852924e+00   4.432568e+00
  -5.135434e+00  -4.137653e+00
   1.018414e-01  -7.782874e+00
   6.393450e+00  -2.155045e+00
   7.976635e+00   7.800191e+00
   9.814376e-01   9.563894e+00
  -1.296548e+01   4.129956e+00
  -1.765284e+01  -5.461802e+00
  -6.972897e+00  -8.943542e+00
   6.726762e+00  -8.601838e+00
   1.122080e+01  -4.508682e+00
   6.613703e+00   1.314706e-01
  -1.408395e+00   3.020888e-01
  -3.377759e+00   3.938759e-01
   2.558100e+00  -5.047571e-01
   9.362630e+00   1.011163e+00
