
 $NMID
 id='ANONYMOUS ', fmtdat='(2E16.6)'
 volume=1.0
 tramp=1.0
 $END
  -6.001971e+01  -3.346301e+00
  -2.304284e+02   1.083191e+02
  -9.219298e+01  -4.439472e+01
   9.414159e+01  -1.584551e+02
   9.385191e+01  -5.944069e+01
   4.764622e+01   1.439636e+01
  -2.029557e+00   3.268785e+01
  -3.200582e+01  -4.337104e+01
  -3.938082e+01  -5.813129e+01
  -2.429444e+00  -2.852173e+01
   2.608436e+01   3.578917e+00
   1.749383e+01   3.067552e+01
  -9.652441e+00   1.571666e+01
  -2.193796e+01  -8.825486e+00
  -1.181189e+01  -1.657194e+01
   1.771402e+00   5.301398e-01
   8.226037e+00   4.004218e+01
  -2.269013e+01   4.147340e+01
  -4.560630e+01   1.180173e+01
  -4.968290e+01  -3.250377e+01
  -1.726193e+01  -3.560759e+01
   4.830831e+00  -8.292450e+00
  -4.016171e+00   1.222210e+01
  -2.377049e+01  -1.542966e+01
  -1.329965e+01  -5.159493e+01
   3.045757e+01  -3.493343e+01
   1.747604e+01   1.780111e+01
   2.855090e+01   4.884820e+01
  -1.035851e+01   3.294506e+01
  -4.250643e+01   3.003409e+00
  -4.811420e+01  -2.735898e+01
  -1.059568e+01  -4.334391e+01
   3.558023e+01  -2.627894e+01
   4.500201e+01   1.013430e+01
   8.926137e+00   2.392340e+01
  -1.546160e+01   1.607227e+01
  -2.356288e+00   1.083180e+00
   2.819506e+01   1.073003e+01
   3.518828e+01   2.710214e+01
   3.749002e+00   4.978420e+01
  -3.363512e+01   3.182087e+01
  -5.586445e+01   1.686960e+01
  -4.206760e+01  -8.018068e+00
   3.040672e-01  -2.845801e+01
   1.771716e+01   1.180327e+01
   1.037035e+01   4.062816e+01
  -2.293595e+01   1.827564e+01
  -5.122554e+01  -3.474315e-01
  -4.835531e+01  -1.663078e+01
   5.223858e+00  -2.801633e+01
   3.523757e+01   3.015427e+00
   2.965432e+01   2.743973e+01
   3.228781e+00   2.294448e+01
  -2.191527e+01   7.943826e+00
  -1.095582e+01   7.839346e+00
  -2.758169e+00   2.604496e-01
   5.351056e-01  -1.846896e+00
  -5.547222e+00   6.575942e-01
  -1.363268e+01  -9.109893e-01
  -2.329102e+01   3.483739e+00
  -1.275502e+00  -1.849039e+00
   1.719858e+01  -1.352053e+01
   3.454256e+01  -1.090349e+01
   1.575588e+01   2.238462e+01
  -3.048327e+01   3.028147e+01
  -5.767805e+01   1.664840e+01
  -3.053449e+01  -1.804385e+01
   1.180323e+01  -2.737228e+01
   2.282632e+01  -9.048738e+00
  -2.549438e+00   9.724832e+00
  -1.270150e+01  -7.162256e+00
   3.074971e+00  -2.656195e+01
   2.883873e+01  -1.537755e+01
   3.520167e+01   1.004525e+01
   1.482301e+01   2.631763e+01
  -9.670011e+00   2.577052e+01
  -2.078504e+01   5.913976e+00
  -3.426177e+00  -1.993493e+01
   1.913334e+01  -2.830616e+01
   2.461927e+01  -1.247445e+01
   2.666623e+01   1.471165e+01
   1.782071e+01   2.609750e+01
   7.034747e+00   2.288807e+01
   4.074246e+00   9.842465e+00
  -5.197720e+00   7.101425e+00
  -1.270222e+01   6.647557e+00
  -2.176267e+01   7.053836e+00
  -2.285213e+01  -8.469179e+00
  -2.381375e+01  -2.380988e+01
  -6.404721e+00  -4.200275e+01
   3.092378e+01  -3.707721e+01
   5.451650e+01  -1.436418e+01
   4.092327e+01   1.417103e+01
   5.156975e+00   1.606991e+01
  -1.294068e+01   1.301206e+01
   2.278511e-01   6.162759e+00
   9.879156e+00   1.308677e+00
   1.523935e+01   7.713290e-01
   5.089621e-01   4.796926e+00
  -1.734668e+00   6.779321e+00
  -6.482104e+00  -1.469135e+00
  -3.299743e+00  -8.942307e-01
   4.652687e-01  -2.616351e+00
   7.596112e+00   6.562603e+00
   7.176262e+00   1.889403e+01
  -6.584359e+00   2.199312e+01
  -2.762639e+01   4.876370e+00
  -2.544054e+01  -2.323453e+01
  -9.361744e+00  -3.154748e+01
   1.472854e+01  -2.405036e+01
   1.440599e+01  -2.563906e+00
   3.273287e-01   1.530587e+00
   6.219335e-01  -9.087764e+00
   5.139498e+00  -1.110749e+01
   1.329452e+01  -6.702816e+00
   1.281590e+01  -1.077079e+00
  -2.756508e+00  -2.323250e+00
  -7.499921e+00  -6.318042e-01
  -7.449960e+00  -9.004125e+00
   3.474337e+00  -1.261196e+01
   1.879820e+01  -3.623099e+00
   2.692187e+01   1.333062e+01
   1.075039e+01   2.347041e+01
  -1.554942e+01   2.070514e+01
  -3.333360e+01   3.606171e+00
  -2.790670e+01  -1.055928e+01
  -3.337054e+00  -1.107355e+01
   8.287614e+00  -6.209220e+00
   3.936116e+00  -1.505219e+00
  -6.072567e+00  -1.920767e+00
  -1.002197e+01  -3.089842e+00
  -7.032973e+00  -1.010264e+01
   2.311053e+00  -1.443768e+01
   1.037719e+01  -6.832129e+00
   9.636860e+00  -9.301627e-01
  -9.799811e-01   1.633032e+00
  -2.630881e+00  -6.375477e+00
   4.068568e+00  -1.335901e+01
   1.813142e+01  -7.712617e+00
   2.170039e+01   6.725455e+00
   6.744222e+00   1.850567e+01
  -1.093827e+01   1.652851e+01
  -1.514496e+01   7.134945e+00
  -9.530564e+00  -3.281088e+00
  -7.351834e-01  -7.986516e+00
   2.185094e+00  -6.767672e+00
   1.005309e+00   2.982560e+00
  -5.716301e+00   1.212261e+00
  -4.421966e+00  -2.769230e+00
   3.435809e+00  -5.682984e+00
   1.024079e+01   2.902322e+00
   4.426292e+00   1.741754e+01
  -9.895553e+00   2.014199e+01
  -2.111953e+01   4.697458e+00
  -1.803410e+01  -1.626054e+01
  -7.186231e+00  -2.414493e+01
   4.186496e+00  -1.553182e+01
   8.575341e+00  -5.097509e+00
   6.032289e+00  -5.329578e-01
   2.885154e+00  -7.455957e-01
   4.329989e+00  -9.105138e-01
   9.815371e+00  -1.996403e+00
   1.349823e+01   1.323320e+00
   4.254900e+00   9.209206e+00
  -9.184889e+00   1.204210e+01
  -1.457559e+01   2.145386e+00
  -5.098294e+00  -1.022409e+01
   1.144191e+01  -1.146188e+01
   2.214308e+01   5.767470e-01
   1.318943e+01   1.710435e+01
  -6.481722e+00   2.316989e+01
  -2.188453e+01   1.457281e+01
  -2.246780e+01  -3.260175e+00
  -8.819684e+00  -1.254911e+01
   1.229835e+00  -1.011010e+01
   3.957663e+00  -8.420373e+00
   4.020158e+00  -5.394553e+00
   4.490950e+00  -5.514770e+00
   4.422690e+00  -5.971437e+00
   1.025109e+01  -4.199790e+00
   1.204224e+01   5.953937e+00
   5.212299e+00   1.739711e+01
  -3.103128e+00   2.052079e+01
  -1.241738e+01   9.984353e+00
  -1.194701e+01  -7.334688e+00
  -2.270006e+00  -1.535746e+01
   6.497519e+00  -1.031966e+01
   6.879215e+00   1.895518e-01
   1.082386e+00   6.969542e+00
  -5.403840e+00   5.455878e+00
  -6.282593e+00   4.692163e-01
  -1.522507e-01  -8.586377e-01
   5.993903e+00  -1.309829e-01
   2.595629e+00   2.969598e+00
  -1.069725e+01  -1.242909e+00
  -1.892347e+01  -9.384730e+00
  -9.653733e+00  -1.424847e+01
   1.008139e+01  -1.114860e+01
   2.056665e+01  -3.662859e+00
   1.455750e+01   2.214591e+00
  -2.563098e+00   5.103544e+00
  -8.533920e+00   2.735962e-01
  -5.464373e+00  -4.552938e+00
   8.707093e-01  -6.935288e+00
   5.394275e+00  -7.122210e+00
   7.283635e+00  -7.672485e-01
   7.037948e+00   5.689440e+00
   4.127609e+00   6.855677e+00
   5.400733e+00   6.133333e-02
   5.631301e+00  -9.906652e-01
   2.750412e+00   5.582894e+00
  -4.619791e+00   1.688791e+01
  -1.656559e+01   1.820776e+01
  -2.086219e+01   7.387964e-01
  -9.981534e+00  -1.519892e+01
   5.447830e+00  -1.683655e+01
   1.217427e+01  -6.630084e+00
   6.099953e+00   3.951862e+00
  -8.658742e+00   3.990610e+00
  -9.943173e+00  -6.319225e+00
  -3.699648e+00  -1.380649e+01
   1.053631e+01  -1.065035e+01
   2.009714e+01   3.325794e+00
   9.329068e+00   1.067125e+01
  -1.344912e+00   9.307558e+00
  -7.946769e+00   4.470797e+00
  -4.412714e+00  -6.507682e-01
   1.135918e+00   4.417479e-01
   4.671957e+00   4.914586e+00
  -9.811332e-01   9.028431e+00
  -8.901864e+00   8.771285e+00
  -1.340685e+01   1.960083e+00
  -7.363883e+00  -1.028458e+01
   6.093219e+00  -1.491180e+01
   1.750819e+01  -6.621307e+00
   9.302265e+00   8.907272e+00
  -4.934699e+00   1.267715e+01
  -8.026727e+00   6.773542e+00
  -4.455888e+00  -2.314156e+00
  -2.824485e-01  -3.049569e+00
  -2.340032e+00   1.052592e+00
  -1.996882e+00  -4.141522e-01
  -4.051247e+00  -7.663184e+00
  -6.829055e-01  -1.250523e+01
   3.069465e+00  -9.494832e+00
   7.460194e+00  -4.610331e-02
   1.337719e+01   7.962371e+00
   1.224864e+01   1.096419e+01
   9.010603e-01   6.126702e+00
  -9.063891e+00  -7.215191e-01
  -8.896304e+00  -2.946605e+00
  -8.927433e-01  -6.637687e-01
   3.246064e+00   1.352400e+00
   1.108184e+00  -1.611174e-01
  -2.942959e+00  -1.312413e+00
   8.748962e-02  -1.748599e-01
   5.653677e+00   1.688482e+00
   8.365172e+00   3.681964e+00
   6.167733e-01   7.175747e+00
  -1.148650e+01   1.080169e+01
  -2.024321e+01  -2.683543e-01
  -1.439022e+01  -1.380043e+01
   1.367050e+00  -1.892121e+01
   1.466347e+01  -1.226154e+01
   1.282009e+01  -4.027129e+00
   4.764613e+00  -5.984088e-01
   4.437630e-03   9.412797e-01
   8.053032e-01   3.282868e+00
   2.946518e+00   6.241564e+00
   2.678801e-01   8.391909e+00
  -3.600576e+00   7.801702e+00
  -6.343949e+00   3.619639e+00
  -8.481345e+00  -4.196031e+00
  -6.911911e+00  -1.077098e+01
   6.348941e-01  -9.894494e+00
   6.765047e+00  -4.494317e-01
   5.197332e+00   1.021767e+01
  -6.532841e-01   1.215222e+01
  -7.567691e+00   2.964937e+00
  -9.755183e+00  -5.229998e+00
  -2.762138e-01  -8.454816e+00
   6.932533e+00  -6.727047e+00
   4.719073e+00   1.751898e-01
  -4.695359e+00   3.093382e+00
  -9.520706e+00  -3.426878e-01
  -1.429274e+00  -5.798533e+00
   1.191413e+01  -8.037827e+00
   1.688481e+01  -8.398632e-01
   5.587095e+00   6.876184e+00
  -3.761020e+00   9.472575e+00
  -8.707319e+00   6.001212e+00
  -6.756359e+00   1.004980e+00
  -8.475097e-01  -4.519013e+00
   1.167802e+00  -4.432952e+00
   2.238395e+00  -2.969567e-01
   2.953733e+00   2.976473e+00
   6.126934e-01   2.283144e+00
  -2.784516e+00  -1.840609e+00
  -2.732929e+00  -3.280104e+00
  -7.325061e-01  -1.719715e+00
   4.891193e-01   2.053279e+00
   6.355734e-01   2.267552e+00
  -3.862392e-01  -1.689914e+00
   5.138590e-01  -6.223850e+00
   3.421171e+00  -2.474287e+00
   4.417374e+00   3.790525e+00
  -5.287297e-01   5.756664e+00
  -4.475328e+00   1.924878e+00
  -3.829722e+00  -4.740986e+00
   1.615139e+00  -3.847814e+00
   6.594956e+00   1.464036e+00
   6.364891e+00   5.875358e+00
   1.918215e+00   5.355797e+00
  -5.016010e+00   3.096636e+00
  -6.779033e+00   6.639646e-02
  -3.410083e+00   2.105280e-01
   1.822232e+00   1.386221e+00
   2.462766e+00   1.016964e+00
  -2.260898e+00  -1.041547e+00
  -6.000631e+00  -1.248155e+00
