
 $NMID
 id='ANONYMOUS ', fmtdat='(2E16.6)'
 volume=1.0
 tramp=1.0
 $END
   2.900161e+02  -2.335714e+02
   2.592321e+02   1.296006e+02
   6.091460e+01   1.638792e+02
  -8.658527e+01   4.925321e+01
  -4.710038e+01   1.891588e+01
   6.679745e+01   6.599836e+01
   5.476026e+01   7.457890e+01
  -1.423670e+01   6.851056e+01
  -1.908875e+01   5.728960e+00
  -3.120243e+01  -2.466890e+01
  -2.596152e+01  -3.553150e+01
  -5.695767e+00  -2.521422e+01
   3.087940e+01   3.142958e+00
   3.363596e+01   1.543405e+01
   2.159977e+00   1.854305e+01
  -2.852064e+01  -1.644315e+01
  -3.167218e+01  -3.772694e+01
  -7.138785e+00  -5.668616e+01
   3.364464e+01  -3.662383e+01
   4.474832e+01  -1.413468e+01
   9.831127e+00   5.501419e+00
  -2.096356e+01   6.369552e+00
  -7.434732e-01  -1.871102e+01
   3.572697e+01  -2.694998e+01
   5.266807e+01   2.095692e+01
   9.957530e+00   4.999557e+01
  -3.719959e+01   2.599372e+01
  -7.274400e+01  -5.094199e+01
  -2.490094e+01  -6.545557e+01
   6.247072e+01  -3.293264e+01
   7.457632e+01   2.722549e+01
   2.112233e+01   5.763101e+01
  -4.008231e+01   4.127703e+01
  -4.923868e+01  -1.096968e+00
  -3.040140e+01  -2.824933e+01
   6.169353e+00  -4.293666e+01
   1.892295e+01  -1.461697e+01
  -1.607054e+01   2.646449e+01
  -5.337786e+01   2.291427e+01
  -4.449864e+01  -2.462919e+01
  -6.778729e+00  -8.782083e+01
   4.812130e+01  -8.707785e+01
   4.407944e+01  -1.248153e+01
   6.518196e+00   4.503395e+01
  -2.292316e+01   1.378411e+01
  -2.118301e+01  -4.543833e+01
   1.795334e+01  -5.901592e+01
   3.236911e+01  -2.885450e+01
   2.034718e+01   1.616401e+01
   1.090498e+01   4.262954e+01
  -2.317945e+01   2.878271e+01
  -4.404651e+01  -1.396844e-01
  -2.989635e+01  -2.370389e+01
   1.584448e+01  -1.850893e+01
   2.030044e+01  -6.809459e+00
  -3.506522e+00   8.507909e+00
  -1.279832e+01   7.275241e-01
   2.342671e-01  -3.828191e+00
   1.073864e+01   2.247364e-02
   1.045425e+01   9.440898e+00
  -4.918062e+00   1.780483e+01
  -1.102714e+01   2.159322e+01
  -2.385238e+01   2.682746e+01
  -3.714754e+01   6.935309e+00
  -2.253256e+01  -2.444236e+01
   9.021109e+00  -5.031694e+01
   2.932196e+01  -2.388873e+01
   2.322061e+01   2.508000e+01
   3.726316e+00   2.880346e+01
  -5.990606e+00   8.886349e+00
   9.648807e+00  -1.307357e+01
   1.430136e+01   9.388883e+00
  -3.478356e+00   2.415446e+01
  -2.784543e+01   2.148398e+01
  -3.967517e+01  -8.653107e+00
  -1.972420e+01  -2.903885e+01
   2.966231e+00  -2.455491e+01
   2.135281e+01   2.983582e+00
   2.261447e+01   2.795210e+01
  -3.399111e+00   2.974143e+01
  -2.889223e+01   8.853334e+00
  -3.730040e+01  -1.541578e+01
  -2.018014e+01  -1.803430e+01
  -4.816135e+00  -3.523320e+00
   1.000809e+01   1.723644e+00
   5.224636e+00  -3.382972e+00
   5.993397e+00  -1.568942e+01
   1.715887e+01  -2.402762e+01
   3.675023e+01  -1.367130e+01
   4.537513e+01   2.545255e+01
   1.222138e+01   6.075569e+01
  -2.700220e+01   5.987637e+01
  -5.198482e+01   2.407160e+01
  -3.660235e+01  -1.438403e+01
  -7.053749e-02  -3.156684e+01
   1.777122e+01  -1.412504e+01
  -2.669023e-01   5.416187e+00
  -2.322535e+01   8.304014e+00
  -2.144314e+01  -3.705568e+00
   5.516498e+00  -1.535336e+01
   2.258100e+01  -1.367112e+00
   1.715358e+01   1.461588e+01
  -8.966960e+00   1.803778e+01
  -2.315080e+01   8.540030e-01
  -1.886208e+01  -2.243608e+01
  -3.748855e+00  -3.461018e+01
   1.496001e+01  -2.801033e+01
   3.269265e+01  -9.568569e+00
   4.707291e+01   1.653905e+01
   3.153358e+01   3.134889e+01
  -4.648443e-02   2.374881e+01
  -1.486743e+01   2.398304e+00
  -5.009369e+00  -6.301500e+00
   1.095671e+01   4.482745e+00
   5.492349e+00   1.771344e+01
  -6.624065e+00   1.436463e+01
  -3.029170e+00  -1.099694e-01
   2.165825e+00  -7.435328e+00
   1.501407e+01  -7.532806e-01
   7.650925e+00   9.693712e+00
  -9.082918e+00   1.392922e+01
  -2.518019e+01   8.295226e+00
  -2.246849e+01  -3.093703e+00
  -7.952115e+00  -2.264261e+01
   1.572538e+01  -3.173125e+01
   3.229523e+01  -2.206838e+01
   1.916932e+01   3.095218e+00
   9.205519e-01   1.203779e+01
  -9.372209e+00  -3.113492e-01
  -3.364856e-01  -1.231431e+01
   1.346173e+01  -1.126388e+01
   2.001094e+01   3.104194e+00
   1.065119e+01   1.356347e+01
  -1.942101e+00   1.129739e+01
  -1.048942e+01   1.235533e-01
  -1.310166e+00  -3.253511e+00
   7.942328e+00   1.503272e+00
   9.368675e+00   1.043782e+01
  -2.755599e+00   1.513725e+01
  -1.747078e+01   8.790624e+00
  -2.255696e+01  -6.432898e+00
  -6.503864e+00  -1.935219e+01
   6.455096e+00  -1.379480e+01
   1.062547e+01  -2.668799e+00
   3.284839e+00   6.478213e+00
  -4.338307e+00   3.497998e+00
  -5.198355e+00  -3.873666e+00
  -1.028966e+00  -9.201553e+00
   2.255225e+00  -7.152274e+00
   2.556949e+00  -8.157030e-01
  -2.583573e+00   2.698621e+00
  -7.718252e+00  -3.474965e+00
  -5.022372e+00  -1.528299e+01
   6.495539e+00  -2.013737e+01
   1.879433e+01  -8.822527e+00
   2.144440e+01   9.739037e+00
   9.287857e+00   2.276338e+01
  -7.062040e+00   1.681803e+01
  -1.183322e+01   5.200808e+00
  -7.602913e+00  -8.907695e-02
  -2.499757e+00  -2.154974e+00
  -1.829119e+00  -1.335513e-01
  -6.674280e+00   3.933596e-02
  -7.813157e+00  -6.276882e-01
  -3.589932e+00  -6.071051e+00
   2.976321e+00  -8.479335e+00
   8.928382e+00  -3.186945e+00
   4.822351e+00   9.313945e+00
  -9.167882e+00   1.375180e+01
  -1.918361e+01   2.093279e+00
  -1.469795e+01  -1.624043e+01
   3.394177e+00  -2.158901e+01
   1.525095e+01  -1.254074e+01
   1.584756e+01   3.252282e+00
   9.151335e+00   7.961807e+00
  -2.971059e+00   7.794036e+00
  -4.015660e+00   4.135582e+00
   2.228678e+00   3.981793e+00
   1.818600e+00   6.230240e+00
  -9.335180e-01   7.764314e+00
  -1.010686e+01   3.596973e+00
  -1.149281e+01  -5.061932e+00
  -6.177190e+00  -1.475385e+01
   4.858635e+00  -1.323681e+01
   1.202121e+01  -3.369827e+00
   7.918935e+00   6.474655e+00
  -7.488701e-01   1.245996e+01
  -6.457486e+00   8.431034e+00
  -5.340926e+00   1.083624e+00
  -1.105474e+00  -6.139232e+00
   2.034820e+00  -7.007238e+00
  -1.905579e+00  -1.968524e+00
  -6.313890e+00   2.014147e+00
  -4.704502e+00  -8.381003e-01
   7.003191e+00  -3.845066e+00
   1.844321e+01  -3.004934e+00
   1.853160e+01  -1.359345e+00
   2.878057e+00   8.468956e+00
  -1.237639e+01   7.720818e+00
  -1.305180e+01   9.197532e-01
  -3.812336e+00  -2.124572e+00
   3.844455e+00  -1.920907e+00
   8.020703e+00   7.186956e-01
   5.362858e+00   5.196453e+00
  -1.579466e-01   6.096576e+00
  -5.416739e+00   1.863970e+00
  -7.366906e+00  -2.718413e+00
  -3.679144e+00  -3.911986e+00
  -2.289666e+00   1.425056e+00
  -4.364921e+00   4.543500e+00
  -8.497102e+00  -2.003871e+00
  -6.188205e+00  -1.361059e+01
   7.610390e+00  -1.789865e+01
   1.753142e+01  -8.788402e+00
   1.619404e+01   7.482031e+00
   3.599076e+00   1.341432e+01
  -8.625486e+00   8.132670e+00
  -4.442896e+00  -3.088201e-01
   6.693921e+00  -2.050716e+00
   1.257003e+01  -2.461430e-01
   8.292776e+00   5.737699e+00
  -4.898615e+00   5.975961e+00
  -1.974561e+01   6.355847e+00
  -1.591848e+01   1.374281e+00
  -4.469568e+00  -9.848006e+00
   7.882371e+00  -1.109015e+01
   6.824131e+00  -2.223815e+00
  -2.207672e+00   2.171749e+00
  -8.875613e+00  -1.193465e+00
  -7.215662e+00  -1.023049e+01
   1.159425e+00  -1.791390e+01
   1.212247e+01  -1.201857e+01
   1.514753e+01   5.608193e+00
   9.187546e+00   1.880764e+01
  -3.204198e-01   1.924488e+01
  -9.519788e+00   3.677345e+00
  -1.103242e+01  -8.806971e+00
  -4.713012e+00  -1.287296e+01
   2.712249e+00  -4.687301e+00
   4.249238e+00   4.175936e+00
   1.676830e+00   1.943858e+00
  -7.420638e-01  -2.323419e+00
   3.984852e+00  -1.387618e+00
   8.313676e+00   5.969216e+00
   2.840498e+00   7.671021e+00
  -6.126662e+00   2.446126e+00
  -1.169639e+01  -5.868453e+00
  -8.271864e+00  -4.334058e+00
  -2.852209e+00  -3.761337e-01
   5.935737e+00  -1.079719e+00
   9.035793e+00  -2.071660e+00
   3.189700e+00  -1.134683e+00
  -1.998022e-01   3.119043e+00
  -2.869019e+00   4.627779e+00
   1.207402e+00  -1.444242e-01
  -8.946129e-02  -7.900494e-01
  -7.256157e+00   4.084544e+00
  -1.148298e+01   1.700510e+00
  -9.368050e-01  -3.870094e+00
   1.417058e+01  -1.133179e+01
   1.751614e+01  -8.917631e+00
   1.169067e+01   1.077987e+00
   4.808780e+00   1.410628e+01
  -2.474570e+00   1.717591e+01
  -5.704965e+00   1.067390e+01
  -6.014618e+00   9.240334e-01
  -3.569589e+00  -2.117856e+00
  -1.057910e+00  -1.182327e+00
  -2.161919e+00  -1.611114e+00
  -3.383253e+00  -7.093338e+00
  -1.401982e+00  -1.038434e+01
   2.492208e+00  -6.411613e+00
   6.945123e+00   3.403660e-01
   9.374789e+00   5.712975e+00
   3.769778e+00   7.142775e+00
  -5.308924e+00   4.502901e+00
  -1.078414e+01  -2.445056e+00
  -7.289695e+00  -7.882709e+00
   1.247073e+00  -7.242834e+00
   7.827070e+00  -4.651424e+00
   5.590314e+00   1.503525e+00
  -7.878854e-01   9.061631e+00
  -2.410124e+00   7.040002e+00
  -1.138696e+00  -1.958257e-01
   2.947264e+00  -5.270660e+00
   1.176871e+00   7.664683e-01
  -5.865756e+00   6.131693e+00
  -6.599551e+00   4.985491e+00
  -2.595812e+00  -5.577066e-03
  -4.430269e-01  -7.570963e+00
   5.629379e-01  -6.918078e+00
   2.605484e+00  -2.434963e+00
   1.734250e+00   2.153047e+00
  -7.445669e-01   4.817574e+00
  -2.295414e+00   4.240989e-01
  -3.386218e+00  -4.179821e+00
  -1.341433e+00  -3.435976e+00
   1.921123e+00  -4.149641e-01
   3.200139e+00  -2.106141e-01
   1.306961e+00  -1.030309e+00
  -1.763948e+00  -1.319061e+00
  -3.343506e+00  -8.857548e-01
  -2.206278e+00   6.824878e-01
   1.083861e+00   2.693648e+00
   5.037199e-01   9.801767e-02
  -2.076848e+00  -2.191328e+00
  -1.091167e+00  -2.277828e+00
   1.300689e+00  -2.230177e+00
   3.711630e+00   3.938698e-01
   2.591979e+00   3.049154e+00
  -1.710499e+00   4.274636e+00
  -7.086777e+00   3.278803e+00
  -6.110352e+00  -3.543752e-01
  -1.386028e+00  -2.389711e+00
   1.991911e+00  -3.517297e+00
   6.495725e-01  -2.835595e+00
  -1.593833e+00  -3.071803e+00
   2.150602e-01  -2.402757e+00
   3.529202e+00  -5.812469e-01
   5.930068e+00  -4.568989e-01
