
 $NMID
 id='ANONYMOUS ', fmtdat='(2E16.6)'
 volume=1.0
 tramp=1.0
 $END
  -4.883421e+02   2.867717e+02
  -4.368878e+02   3.291132e+01
  -1.285978e+02  -1.188917e+02
   1.025834e+02  -1.237823e+02
   8.597159e+01  -5.557294e+01
  -5.112864e+00  -2.048268e+01
  -4.883538e+01  -3.380842e+01
  -7.809469e+00  -6.909539e+01
   4.283720e+01  -5.474217e+01
   4.860526e+01  -1.965548e+01
   7.285070e+01   2.228703e+01
   5.576206e+01   5.990459e+01
  -8.887543e+00   5.528851e+01
  -5.938111e+01   6.598006e+00
  -2.775147e+01  -4.553454e+01
   2.794432e+01  -4.193354e+01
   5.230690e+01   6.374807e+00
   3.415822e+01   4.461441e+01
  -1.676693e+01   5.582395e+01
  -4.985184e+01   4.462666e+01
  -3.469266e+01  -1.600315e+01
   2.881019e+00  -5.105132e+01
   1.406312e+01  -2.390241e+01
   8.729672e+00  -5.128908e-01
  -6.688395e+00   1.094364e+01
  -1.576203e+01  -3.273158e+00
   9.608304e+00  -1.519120e+01
   3.581498e+01  -1.997377e+00
   4.189831e+01  -3.849833e+00
   1.646537e+01   1.701557e+01
  -1.083014e+01   3.498095e+01
  -3.475781e+01   2.399636e+00
  -2.658069e+01  -4.727678e+01
   7.115903e+00  -4.393779e+01
   5.310712e+01  -1.905591e+01
   5.047331e+01   3.655907e+01
   3.235090e+01   4.740390e+01
  -9.633915e+00   8.329316e+00
  -1.132408e+01  -2.817239e+01
  -2.726084e+00  -1.956964e+01
   3.274413e+01   1.838814e+01
   3.551442e+01   4.436474e+01
  -1.379875e+00   3.547557e+01
  -3.560245e+01  -1.814835e+01
  -2.433160e+01  -2.801563e+01
   3.725770e+01  -5.387322e+00
   4.513534e+01   3.168010e+01
  -1.080088e+01   2.595895e+01
  -3.570176e+01  -8.226468e-01
  -4.052373e+01  -3.673624e+01
   1.167826e+01  -5.832030e+01
   6.082263e+01  -3.848641e+01
   6.914912e+01  -3.531067e+00
   2.871035e+01   3.252908e+01
  -2.229681e+01   4.999744e+01
  -2.997942e+01   1.074215e+01
  -1.612145e+01  -1.550741e+01
   5.252030e+00  -2.137721e+01
   1.252754e+01  -4.320430e-01
  -1.192961e+01   1.322933e+01
  -2.588063e+01  -1.223356e+01
  -5.825694e+00  -3.551798e+01
   2.028916e+01  -4.378039e+01
   2.462355e+01  -2.246945e+01
   2.127638e+01   1.025295e+01
   1.416042e+01   4.617914e+01
  -7.634200e+00   4.326492e+01
  -2.612425e+01   3.713037e+00
  -3.578459e+01  -3.459213e+01
  -1.844330e+01  -5.800129e+01
   2.113739e+00  -3.689219e+01
   4.840727e-01  -1.599578e+01
   6.156354e-01  -5.094087e+00
   3.473079e+00  -1.324854e+01
   2.332590e+01  -9.806159e+00
   3.230368e+01   1.505189e+00
   1.571057e+01   7.447378e+00
  -1.588627e+01   6.918716e+00
  -3.165287e+01  -5.915605e+00
  -1.907939e+01  -1.642937e+01
   6.617817e+00  -1.896438e+01
   2.228247e+01  -1.794465e+01
   1.868829e+01  -6.261445e+00
   6.903592e+00   1.469541e+01
  -6.078584e-01   2.263160e+01
  -5.596796e+00   9.732734e+00
  -9.328715e+00  -9.080149e-01
  -1.347038e+01   4.947445e+00
  -2.832079e+01   2.684558e+01
  -4.410312e+01   1.419713e+01
  -3.148202e+01  -1.801669e+01
  -1.218713e+01  -5.872952e+01
   6.694516e+00  -4.994381e+01
   1.590347e+01  -2.558469e+01
   1.308930e+01   7.545296e+00
   7.286434e+00   1.656864e+01
  -1.373203e+00   4.961038e+00
   9.401867e-01  -1.691119e+00
   1.142997e+01  -8.120566e+00
   1.394150e+01   7.525295e+00
   3.961433e+00   1.574090e+01
  -1.360217e+01   9.937979e+00
  -1.313742e+01  -1.046682e+01
   7.781787e+00  -7.841241e+00
   2.204600e+01   1.315434e+01
   1.086020e+01   2.391255e+01
  -7.533072e+00   2.533456e+01
  -2.586554e+01   1.675353e+01
  -3.720605e+01   1.406192e+00
  -2.960368e+01  -1.169293e+01
  -9.974497e+00  -1.728341e+01
   3.232043e+00  -1.335240e+01
   3.880253e+00   2.508192e-01
  -4.845875e+00   2.333542e+00
  -1.009317e+01  -6.419428e+00
   3.808435e-01  -1.450151e+01
   4.111676e+00  -6.135149e+00
   8.022351e+00   4.943430e+00
  -1.857912e+00   6.934893e+00
  -8.175034e+00   1.669256e+00
   3.916861e+00  -7.897141e+00
   2.051663e+01  -1.047935e+01
   2.883665e+01  -3.623939e+00
   1.701558e+01   1.591520e+01
  -1.809058e+00   2.992219e+01
  -1.670402e+01   2.684841e+01
  -1.499489e+01   1.014145e+01
   4.704454e-01  -5.182726e+00
   1.053282e+01  -1.784593e+00
   1.912816e+00   1.293648e+01
  -1.943268e+01   1.889741e+01
  -2.561938e+01   6.628468e+00
  -1.747043e+01  -4.493884e+00
  -2.595848e+00  -1.498719e+01
   3.632334e+00  -9.575101e+00
   9.229648e-01  -1.888647e+00
  -5.962192e+00   1.275396e+00
  -7.110187e+00  -4.200623e+00
  -2.670084e-01  -1.016479e+01
   1.401327e+01  -1.145835e+01
   1.869548e+01  -2.025313e+00
   1.065043e+01   1.208382e+01
  -2.853692e+00   2.144552e+01
  -9.781079e+00   1.280095e+01
  -6.801629e+00   1.656983e-01
   7.442621e-01  -3.550937e+00
   1.850979e+00  -5.736776e+00
   1.559028e+00  -1.364460e+00
  -9.851156e-01   2.720299e+00
   4.971253e-01   7.456552e-01
   7.371674e+00  -2.202342e+00
   1.288093e+01   8.029847e-01
   1.211488e+01   9.758167e+00
   2.332045e+00   1.863764e+01
  -1.303280e+01   1.672808e+01
  -1.986640e+01   1.289515e+00
  -1.323614e+01  -1.197495e+01
  -2.830231e+00  -1.825195e+01
   9.401038e+00  -1.288430e+01
   1.326005e+01  -2.723094e+00
   1.065523e+01   3.855516e+00
   4.627264e+00   2.680953e+00
   2.479707e+00   1.508133e+00
   2.432551e+00   1.304455e+00
   1.422808e-01   5.643533e+00
  -4.320966e+00   9.436618e+00
  -7.210042e+00   3.667642e+00
  -4.042250e+00  -9.089904e+00
   5.026990e+00  -1.621482e+01
   1.601728e+01  -1.132666e+01
   1.617462e+01   6.823692e+00
   6.181122e+00   2.129427e+01
  -1.112187e+01   2.376352e+01
  -2.109584e+01   7.951223e+00
  -1.736951e+01  -9.868046e+00
  -3.555793e+00  -1.350901e+01
   7.264489e+00  -1.180272e+01
   5.552300e+00  -1.057696e+01
   5.910942e-01  -1.346601e+01
   6.832024e-01  -1.233502e+01
   8.017331e+00  -5.702981e+00
   1.479035e+01   7.439793e+00
   1.659704e+01   1.623987e+01
   5.154018e+00   1.972763e+01
  -1.003017e+01   1.095361e+01
  -1.610025e+01  -1.826515e+00
  -1.291136e+01  -9.423658e+00
  -3.743627e+00  -1.325188e+01
   4.163150e+00  -6.217121e+00
   3.231380e+00   1.470018e+00
   1.093695e+00   3.171102e+00
   4.370857e+00   2.564500e+00
   9.069113e+00  -2.664384e+00
   9.509739e+00  -2.690827e+00
   7.317581e-01   2.370082e+00
  -9.356643e+00   8.268203e+00
  -1.428757e+01   8.527403e+00
  -7.176971e+00  -4.817554e-02
   3.104858e+00  -8.468989e+00
   9.365302e+00  -1.076839e+01
   6.093534e+00  -2.590209e+00
   1.738211e+00   2.093135e+00
  -4.781132e+00   3.413444e+00
  -4.861843e+00  -2.435342e+00
  -1.178161e-02  -6.608413e+00
   3.820296e+00  -2.859764e+00
   4.644785e+00   1.295639e+00
   2.720546e+00   2.174859e+00
   3.805017e+00  -4.366566e+00
   4.191489e+00  -3.424892e+00
   7.567985e+00   4.552423e+00
   1.393850e+00   1.160523e+01
  -7.977024e+00   1.466737e+01
  -1.359110e+01   5.337205e+00
  -1.203336e+01  -5.971544e-02
  -2.891796e+00  -3.926049e+00
   5.814071e+00  -2.680732e+00
   1.747930e+00  -1.539474e-03
  -7.992144e+00   1.796362e+00
  -1.703013e+01   3.770696e+00
  -1.176370e+01  -1.882536e+00
   4.691586e+00  -2.542607e+00
   1.241653e+01  -3.002931e+00
   7.043882e+00  -4.577098e+00
   1.055324e+00   9.138601e-01
  -3.563694e+00   2.376464e+00
  -1.501224e+00  -2.920100e+00
   4.987988e+00  -5.910954e+00
   9.208449e+00  -3.178900e+00
   8.804044e+00   6.980294e+00
   4.003459e+00   1.589500e+01
  -6.206461e+00   1.130605e+01
  -1.150667e+01  -2.615454e-01
  -9.899837e+00  -1.092688e+01
  -5.284837e+00  -1.183093e+01
   3.543520e+00  -5.350536e+00
   9.376112e+00   9.207300e-01
   7.045764e+00   3.864221e+00
  -1.471958e+00   3.402254e+00
  -4.526956e+00   3.608187e-01
  -6.207964e-01   2.372869e-01
   2.030781e+00   3.854161e-01
   1.716449e+00  -2.002642e+00
  -4.142372e+00  -5.047066e+00
  -6.338947e+00  -3.901825e-01
  -9.535982e-01  -8.949549e-01
   5.788059e+00   8.905162e-01
   9.840172e+00  -9.833499e-01
   4.247146e+00   2.742651e+00
  -4.851979e+00   5.213867e+00
  -7.100840e+00   5.269253e+00
  -3.212684e+00   1.301766e+00
  -8.856491e-01  -4.050958e+00
   1.116289e+00  -4.840315e+00
  -9.696268e-01  -1.083399e+00
   5.933745e-01   7.513695e-01
   5.575440e+00  -6.147551e+00
   7.749335e+00  -7.020762e+00
   6.663242e+00  -4.041547e-02
   5.136167e-01   1.233229e+01
  -3.837213e+00   1.472572e+01
  -8.665942e+00   4.981631e+00
  -7.143105e+00  -6.498414e+00
  -3.857397e+00  -1.165668e+01
   8.617281e-01  -7.450711e+00
   4.257247e+00  -1.819801e+00
   4.734949e+00  -7.463724e-02
   5.873831e-01  -1.705381e-01
   8.630618e-01   1.237010e+00
   3.110259e+00   3.772983e+00
   5.262796e+00   6.341664e+00
   2.632963e+00   6.157796e+00
  -6.210394e+00   1.038468e+00
  -8.345020e+00  -4.352055e+00
  -4.864070e+00  -6.057421e+00
   2.679650e+00  -5.712315e+00
   8.236350e+00  -2.183254e+00
   6.823439e+00   3.612581e+00
   7.677318e-01   6.246494e+00
  -5.694942e+00   5.337430e+00
  -3.731967e+00   4.099287e-01
   5.115839e-02  -7.525898e+00
   1.709621e-01  -6.291382e+00
  -3.110113e+00   1.669615e+00
  -4.862212e+00   4.683327e+00
  -2.752435e+00   1.873784e-01
   6.045312e+00  -1.103333e+01
   1.029304e+01  -1.419177e+01
   5.546391e+00  -5.089388e+00
   2.927582e+00   7.805137e+00
   4.092705e+00   1.187426e+01
   8.077935e-02   5.119027e+00
  -3.972519e+00  -1.301527e+00
  -1.648468e+00  -2.865777e+00
   2.792623e+00   1.089777e+00
   6.977735e+00   4.588683e+00
   3.899778e+00   1.973644e+00
  -3.132242e+00   7.973551e-01
  -7.070251e+00   1.140708e+00
  -2.484793e+00   2.257064e+00
   2.976720e+00   2.530555e+00
   2.955623e+00   3.200124e-01
   3.582763e-01  -2.147779e+00
  -1.431182e+00  -3.684630e+00
   1.576216e+00  -2.699051e-01
   4.857521e+00   2.607805e+00
   2.603574e+00   4.180370e+00
  -2.507146e+00   3.381241e+00
  -5.904073e+00  -5.504038e-01
  -3.253939e+00  -7.172327e-01
   1.986233e+00  -2.479443e+00
   6.295432e+00  -2.206945e+00
   4.051002e+00  -4.265143e-01
  -1.239186e+00   2.176017e+00
  -5.123427e+00   3.442300e+00
  -2.821486e+00   1.150411e+00
   3.691080e+00  -1.758472e-01
   5.200872e+00  -1.870589e+00
   1.342279e+00   1.150704e+00
  -4.999485e+00   5.805608e+00
