
 $NMID
 id='ANONYMOUS ', fmtdat='(2E16.6)'
 volume=1.0
 tramp=1.0
 $END
   3.895377e+03  -3.372185e+01
   2.225156e+03   2.248730e+03
  -5.232286e+02   2.461175e+03
  -1.843830e+03   9.543065e+02
  -9.337657e+02  -4.299402e+02
   4.253727e+02  -4.872122e+02
   6.838323e+02   2.970295e+02
   5.699498e+01   8.349431e+02
  -6.353291e+02   6.664899e+02
  -8.061653e+02  -4.571771e+01
  -4.206525e+02  -7.414804e+02
   1.695510e+02  -7.861227e+02
   5.499169e+02  -1.241713e+02
   3.507402e+02   6.134635e+02
  -2.064990e+02   6.378585e+02
  -5.425260e+02  -1.022529e+00
  -2.840452e+02  -6.171973e+02
   2.540720e+02  -6.372769e+02
   5.391823e+02  -1.712522e+02
   4.063572e+02   2.837405e+02
   6.016602e+01   3.972004e+02
  -2.176332e+02   2.455162e+02
  -1.712871e+02   1.126169e+01
   1.509387e+02  -4.774033e+01
   3.833565e+02   1.471977e+02
   1.476341e+02   4.054479e+02
  -4.592721e+02   3.504594e+02
  -7.656989e+02  -7.586044e+01
  -3.840846e+02  -4.914197e+02
   3.476153e+02  -4.354198e+02
   6.769073e+02   2.508271e+01
   3.230046e+02   4.372514e+02
  -2.659649e+02   4.765590e+02
  -5.458863e+02   1.886843e+02
  -3.851856e+02  -2.121171e+02
  -6.363435e+01  -4.165761e+02
   1.585598e+02  -2.511703e+02
   1.095707e+02   1.731620e+02
  -1.701888e+02   3.437064e+02
  -3.863019e+02  -5.107308e+01
  -1.803335e+02  -6.045212e+02
   2.904302e+02  -6.385073e+02
   5.190292e+02  -3.091820e+01
   2.170437e+02   4.744835e+02
  -2.636894e+02   2.926536e+02
  -3.344279e+02  -2.780864e+02
   8.185486e+01  -4.970612e+02
   4.995686e+02  -1.414073e+02
   5.272550e+02   3.600449e+02
   1.444047e+02   5.459788e+02
  -3.504233e+02   3.280602e+02
  -5.972001e+02  -5.585994e+01
  -3.767772e+02  -3.379418e+02
   1.082679e+02  -3.409588e+02
   3.806862e+02  -7.268889e+01
   2.357982e+02   1.605306e+02
  -9.137949e+01   9.480840e+01
  -1.478741e+02  -1.290263e+02
   1.271970e+02  -1.810063e+02
   3.171106e+02   3.918524e+01
   1.519014e+02   2.714975e+02
  -1.732847e+02   2.711452e+02
  -3.370324e+02   1.018383e+02
  -2.376298e+02  -9.961450e+01
  -4.328743e+00  -2.729927e+02
   2.254452e+02  -3.527680e+02
   3.441617e+02  -2.061913e+02
   2.724121e+02   1.478485e+02
   5.917437e+01   3.950585e+02
  -1.037047e+02   3.371773e+02
  -8.087602e+01   1.033212e+02
  -1.207935e+01   1.394289e+01
  -5.967618e+01   1.043433e+02
  -2.013709e+02   1.204935e+02
  -2.667967e+02  -6.145814e+01
  -1.488390e+02  -2.603953e+02
   6.720080e+01  -2.382226e+02
   2.146018e+02  -2.865795e+00
   1.846061e+02   2.399032e+02
  -1.553105e+01   2.821860e+02
  -2.559026e+02   1.095891e+02
  -3.442698e+02  -1.602538e+02
  -1.837852e+02  -3.254736e+02
   8.120605e+01  -2.736969e+02
   2.046616e+02  -1.159098e+02
   1.424211e+02  -2.019843e+01
   1.016837e+02  -4.476829e+01
   2.314255e+02  -6.328735e+01
   3.930641e+02   6.045983e+01
   3.214823e+02   2.806848e+02
   2.240553e+00   4.353969e+02
  -3.470085e+02   4.082442e+02
  -4.784389e+02   1.992099e+02
  -3.270372e+02  -9.078866e+01
  -5.327235e+01  -2.702341e+02
   1.178140e+02  -2.269586e+02
   6.402117e+01  -3.019723e+01
  -1.024122e+02   8.681018e+01
  -1.806108e+02  -1.293315e+01
  -4.113024e+01  -1.763289e+02
   1.533986e+02  -1.476884e+02
   1.618965e+02   6.337139e+01
  -2.013594e+01   1.807135e+02
  -1.880307e+02   3.300752e+01
  -1.658870e+02  -2.344645e+02
   2.387808e+01  -3.404614e+02
   2.296392e+02  -1.993488e+02
   3.306951e+02   5.393033e+01
   2.698934e+02   2.434272e+02
   7.854370e+01   2.639190e+02
  -1.121640e+02   1.491924e+02
  -1.579224e+02   1.027710e+01
  -4.346238e+01  -2.720350e+01
   6.619085e+01   4.486908e+01
   2.090487e+01   1.209421e+02
  -1.164670e+02   8.758641e+01
  -1.602668e+02  -1.612370e+01
  -4.581696e+01  -6.686458e+01
   7.951913e+01  -1.082321e+01
   5.160395e+01   7.614018e+01
  -1.186612e+02   8.613977e+01
  -2.659721e+02   2.209044e+00
  -2.479204e+02  -1.354854e+02
  -5.940083e+01  -2.542066e+02
   1.743577e+02  -2.536238e+02
   2.670648e+02  -1.244942e+02
   1.603808e+02   4.873766e+01
  -2.085025e+01   1.002424e+02
  -7.993607e+01   1.089665e+00
   3.475812e+01  -9.573696e+01
   1.802358e+02  -5.385766e+01
   1.959556e+02   9.884893e+01
   6.528335e+01   1.972453e+02
  -8.600448e+01   1.482082e+02
  -1.316323e+02   2.506173e+01
  -6.058491e+01  -4.553507e+01
   3.460144e+01  -1.104477e+00
   3.707384e+01   8.642312e+01
  -7.040351e+01   1.145513e+02
  -1.905605e+02   2.706658e+01
  -1.820912e+02  -1.230337e+02
  -2.215900e+01  -2.086087e+02
   1.548788e+02  -1.570031e+02
   1.854207e+02  -9.069944e+00
   6.583376e+01   1.047117e+02
  -6.001752e+01   1.016224e+02
  -7.946575e+01   2.757522e+01
  -1.511350e+01  -2.493260e+01
   2.618433e+01  -1.517062e+01
  -7.617147e+00   1.306399e+01
  -7.324805e+01  -4.178004e+00
  -9.196178e+01  -7.832196e+01
  -1.808306e+01  -1.550722e+02
   1.183809e+02  -1.496219e+02
   2.210210e+02  -2.893734e+01
   1.913952e+02   1.346503e+02
   4.636791e+01   2.186042e+02
  -9.404497e+01   1.591017e+02
  -1.249486e+02   2.980354e+01
  -6.981997e+01  -4.740233e+01
  -2.766086e+01  -2.929554e+01
  -4.867567e+01   1.422106e+01
  -7.580445e+01   7.962021e+00
  -4.707270e+01  -4.807634e+01
   3.285019e+01  -8.982212e+01
   1.008135e+02  -5.701273e+01
   8.960347e+01   3.426283e+01
  -1.020354e+01   1.104446e+02
  -1.411222e+02   8.516681e+01
  -1.946700e+02  -5.122727e+01
  -9.660989e+01  -1.927993e+02
   1.033608e+02  -2.181202e+02
   2.515836e+02  -9.383201e+01
   2.388253e+02   7.798123e+01
   1.002326e+02   1.664998e+02
  -3.685970e+01   1.395157e+02
  -8.472761e+01   8.008023e+01
  -6.906995e+01   6.260249e+01
  -5.576625e+01   8.150998e+01
  -8.481903e+01   7.146289e+01
  -1.235708e+02  -1.503456e+01
  -1.176863e+02  -1.420736e+02
  -3.384095e+01  -2.153315e+02
   9.072367e+01  -1.636480e+02
   1.668181e+02  -1.801825e+01
   1.299697e+02   1.132918e+02
   1.837319e+01   1.503387e+02
  -6.408174e+01   8.734962e+01
  -5.885217e+01  -1.859137e+00
  -4.006628e+00  -4.062296e+01
   1.041880e+01  -3.098882e+01
  -3.779925e+01  -1.686086e+01
  -7.713068e+01  -2.409467e+01
  -4.191022e+01  -3.843062e+01
   6.415761e+01  -3.820945e+01
   1.474330e+02  -1.154868e+01
   1.338363e+02   3.909546e+01
   1.358554e+01   8.029035e+01
  -1.118208e+02   7.243624e+01
  -1.303778e+02   1.885633e+01
  -4.365157e+01  -3.653422e+01
   5.704495e+01  -4.002367e+01
   7.306187e+01   1.523908e+01
   1.343343e+01   6.681322e+01
  -4.682838e+01   5.840875e+01
  -6.140864e+01   1.970438e+00
  -4.827776e+01  -4.356953e+01
  -4.686504e+01  -3.467012e+01
  -5.672723e+01   1.870271e+00
  -6.192828e+01   1.212388e+00
  -3.852665e+01  -6.347556e+01
   2.214261e+01  -1.387840e+02
   1.028480e+02  -1.381572e+02
   1.557520e+02  -4.177724e+01
   1.227474e+02   7.807212e+01
   1.265316e+01   1.187650e+02
  -8.116202e+01   6.108728e+01
  -5.868088e+01  -1.286832e+01
   5.500234e+01  -1.876840e+01
   1.315367e+02   4.335044e+01
   7.513481e+01   1.028585e+02
  -7.279979e+01   1.068534e+02
  -1.817980e+02   5.513806e+01
  -1.565735e+02  -3.073945e+01
  -3.603571e+01  -7.997634e+01
   5.708440e+01  -6.636388e+01
   4.620494e+01  -6.460992e+00
  -3.713100e+01   2.587324e+01
  -8.816835e+01  -1.807693e+01
  -3.913708e+01  -1.105287e+02
   7.646330e+01  -1.491135e+02
   1.512945e+02  -6.882543e+01
   1.209072e+02   8.787463e+01
   1.403023e+01   1.824916e+02
  -7.706115e+01   1.304650e+02
  -9.854459e+01  -9.588580e+00
  -5.595736e+01  -1.122319e+02
   6.930239e+00  -1.005497e+02
   4.844108e+01  -1.855221e+01
   4.975664e+01   2.997414e+01
   2.264915e+01   9.026441e+00
   5.960521e+00  -1.862271e+01
   2.559108e+01   1.368105e+01
   5.707327e+01   8.229102e+01
   3.825511e+01   1.027926e+02
  -4.849150e+01   4.581373e+01
  -1.353296e+02  -3.083552e+01
  -1.247141e+02  -6.395141e+01
  -1.922604e+01  -5.182264e+01
   8.180913e+01  -2.601763e+01
   8.256588e+01  -1.031085e+01
   1.104343e+01   7.709673e+00
  -3.486689e+01   2.084274e+01
  -1.187723e+01   1.633788e+01
   1.806798e+01  -7.896036e-01
  -5.121201e+00  -6.923925e+00
  -6.888202e+01  -4.458719e+00
  -8.695348e+01  -2.479013e+01
  -1.183627e+01  -7.804716e+01
   1.065909e+02  -1.084238e+02
   1.782318e+02  -5.967409e+01
   1.414957e+02   6.014385e+01
   2.829266e+01   1.521410e+02
  -7.423170e+01   1.462257e+02
  -1.061131e+02   5.951424e+01
  -7.356630e+01  -1.707751e+01
  -2.223364e+01  -3.214058e+01
  -3.597572e-01  -7.416616e+00
  -1.415651e+01  -1.415052e+00
  -3.264660e+01  -4.263889e+01
  -2.080455e+01  -8.532855e+01
   2.725882e+01  -6.887792e+01
   7.671704e+01   1.397491e+01
   7.505591e+01   9.702378e+01
   9.067014e+00   1.045245e+02
  -7.475547e+01   2.782585e+01
  -9.922596e+01  -6.696031e+01
  -3.477718e+01  -9.801475e+01
   6.284724e+01  -5.762174e+01
   9.506312e+01   6.510308e+00
   3.994357e+01   4.990291e+01
  -2.814825e+01   5.253050e+01
  -2.975818e+01   2.477769e+01
   2.882566e+01  -5.117550e+00
   6.297527e+01  -7.476567e+00
   1.548245e+01   2.498477e+01
  -6.835516e+01   6.187844e+01
  -1.032248e+02   5.714530e+01
  -5.943531e+01  -1.091520e+01
   1.130444e+01  -7.705340e+01
   4.772213e+01  -7.536560e+01
   3.607796e+01  -7.668670e+00
   1.672954e+00   5.077421e+01
  -2.339528e+01   4.089045e+01
  -3.284346e+01  -1.406488e+01
  -2.360443e+01  -5.009964e+01
   3.121537e+00  -3.249791e+01
   3.236748e+01   6.836337e+00
   3.873513e+01   2.065857e+01
   1.811917e+01   3.494233e+00
  -3.503907e+00  -1.356273e+01
  -7.256411e+00  -1.050088e+00
  -2.243539e+00   3.360669e+01
  -9.430408e+00   4.353084e+01
  -2.909728e+01   1.070413e+01
  -3.263447e+01  -3.989231e+01
  -2.522923e+00  -5.845351e+01
   4.056941e+01  -2.245389e+01
   5.676813e+01   3.533477e+01
   1.763938e+01   6.123215e+01
  -5.134900e+01   3.621505e+01
  -8.489236e+01  -1.146636e+01
  -4.725919e+01  -4.093342e+01
   2.584654e+01  -3.939510e+01
   6.049416e+01  -2.166117e+01
   2.403424e+01  -3.232731e+00
  -3.306779e+01   1.176519e+00
  -3.505492e+01  -1.364758e+01
   2.683287e+01  -3.027510e+01
   8.053089e+01  -2.147980e+01
