
 $NMID
 id='ANONYMOUS ', fmtdat='(2E16.6)'
 volume=1.0
 tramp=1.0
 $END
  -2.507772e+03   1.292434e+00
  -1.659796e+03  -1.133579e+03
  -8.180883e+01  -1.446321e+03
   8.331669e+02  -9.967745e+02
   6.725463e+02  -2.915557e+02
   6.758483e+01   7.813458e+01
  -2.275021e+02  -5.668384e+01
  -2.900423e+01  -3.640988e+02
   3.359353e+02  -4.277043e+02
   5.051903e+02  -8.721107e+01
   3.673106e+02   3.866767e+02
   5.747293e+01   5.306944e+02
  -2.078495e+02   1.836236e+02
  -1.846030e+02  -2.901934e+02
   8.458442e+01  -4.116591e+02
   3.147707e+02  -6.173090e+01
   2.458864e+02   3.752980e+02
  -6.985562e+01   4.988053e+02
  -3.580263e+02   2.669885e+02
  -3.582262e+02  -1.023838e+02
  -1.278342e+02  -2.792234e+02
   7.427509e+01  -2.062566e+02
   4.148403e+01  -7.918663e+01
  -1.769194e+02  -9.821831e+01
  -2.313174e+02  -2.471403e+02
   4.676438e+01  -3.162262e+02
   4.444153e+02  -1.411508e+02
   5.110732e+02   1.444348e+02
   1.636296e+02   2.971450e+02
  -2.695218e+02   1.613507e+02
  -3.939597e+02  -1.044970e+02
  -1.425924e+02  -2.874096e+02
   2.164094e+02  -2.888215e+02
   3.717935e+02  -1.303376e+02
   2.583017e+02   1.100137e+02
   8.236723e+01   2.368388e+02
   1.894525e+01   1.398499e+02
   7.038073e+01  -8.227964e+01
   1.583319e+02  -1.161926e+02
   1.703412e+02   1.472059e+02
   5.364510e+00   4.016482e+02
  -2.004276e+02   3.549154e+02
  -2.337868e+02  -1.095340e+01
  -8.462397e+01  -2.486016e+02
   1.234045e+02  -1.036234e+02
   1.460930e+02   2.189823e+02
  -8.142701e+01   3.139730e+02
  -3.570589e+02   4.845506e+01
  -3.881826e+02  -3.081268e+02
  -1.299923e+02  -4.127401e+02
   2.549428e+02  -2.284815e+02
   4.422280e+02   5.229465e+01
   2.914076e+02   1.962701e+02
  -3.973403e+01   1.823268e+02
  -2.292972e+02   5.899758e+01
  -1.637456e+02  -1.484002e+01
  -7.990557e+00   2.241131e+00
   2.875436e+01   3.916935e+01
  -9.413008e+01   2.718046e+01
  -1.829173e+02  -4.470150e+01
  -9.881663e+01  -1.562913e+02
   1.232102e+02  -2.132924e+02
   2.781842e+02  -1.330229e+02
   2.348992e+02   7.711351e+01
  -2.021823e+00   2.812990e+02
  -2.418500e+02   3.244969e+02
  -3.074198e+02   1.295377e+02
  -2.043565e+02  -1.444337e+02
  -4.353824e+01  -2.891596e+02
   1.917366e+01  -2.341814e+02
  -6.287892e+00  -1.346134e+02
   9.313009e+00  -1.103302e+02
   1.156248e+02  -1.283089e+02
   2.194855e+02  -5.896570e+01
   2.142041e+02   1.085989e+02
   8.091996e+01   2.229061e+02
  -8.505791e+01   1.578495e+02
  -1.716635e+02  -4.311155e+01
  -1.215427e+02  -2.161205e+02
   3.967509e+01  -2.171669e+02
   2.160189e+02  -5.660373e+01
   2.590155e+02   1.371257e+02
   1.411538e+02   2.318093e+02
  -4.379288e+01   2.078610e+02
  -1.269288e+02   1.322687e+02
  -1.112548e+02   8.551418e+01
  -1.279040e+02   8.205111e+01
  -2.546244e+02   4.671507e+01
  -3.581394e+02  -8.370976e+01
  -2.811561e+02  -2.598680e+02
   9.946509e+00  -3.764850e+02
   3.146704e+02  -3.371127e+02
   4.087250e+02  -1.450542e+02
   2.389973e+02   8.984483e+01
   9.971893e+00   2.141450e+02
  -8.452767e+01   1.546777e+02
  -1.001983e+01   1.507856e+01
   1.083187e+02  -3.871009e+01
   1.067780e+02   4.288804e+01
  -1.017642e+01   1.181173e+02
  -1.076967e+02   7.564983e+01
  -8.310062e+01  -5.829481e+01
   3.841227e+01  -1.111472e+02
   1.439567e+02   8.219787e+00
   1.323791e+02   2.026500e+02
  -9.524529e+00   2.919829e+02
  -2.015661e+02   1.885456e+02
  -3.105408e+02  -4.126676e+01
  -2.458922e+02  -2.195325e+02
  -5.637467e+01  -2.347976e+02
   1.052353e+02  -1.099803e+02
   1.181617e+02   3.458133e+00
   1.777597e+01   1.266822e+01
  -4.866771e+01  -5.803491e+01
   3.040225e+00  -1.001016e+02
   1.027664e+02  -5.303512e+01
   1.214284e+02   2.994458e+01
   1.923470e+01   4.850326e+01
  -7.771713e+01  -1.793929e+01
  -2.961610e+01  -9.232409e+01
   1.430429e+02  -8.197668e+01
   2.746355e+02   2.615664e+01
   2.257207e+02   1.614066e+02
   2.258802e+01   2.362224e+02
  -1.804339e+02   1.995276e+02
  -2.273347e+02   8.123744e+01
  -1.104671e+02  -3.643670e+01
   2.504103e+01  -5.869403e+01
   4.978007e+01   1.071251e+01
  -5.056618e+01   6.923658e+01
  -1.574739e+02   2.337782e+01
  -1.548307e+02  -9.085528e+01
  -4.394029e+01  -1.587728e+02
   7.626426e+01  -1.107971e+02
   1.084438e+02  -9.351219e+00
   3.552421e+01   3.740097e+01
  -4.352374e+01  -1.842035e+01
  -2.861917e+01  -9.960703e+01
   8.542593e+01  -1.096625e+02
   1.850159e+02  -1.296445e+01
   1.584266e+02   1.199055e+02
   9.942373e+00   1.807516e+02
  -1.304167e+02   1.263922e+02
  -1.429050e+02   9.935475e+00
  -4.532056e+01  -7.369389e+01
   5.268777e+01  -7.336375e+01
   5.944239e+01  -1.727471e+01
  -5.891598e-01   2.515788e+01
  -3.793547e+01   8.176488e+00
   2.697617e+00  -2.762084e+01
   8.142837e+01  -8.579076e+00
   1.040366e+02   7.697207e+01
   2.239387e+01   1.575755e+02
  -1.210470e+02   1.395401e+02
  -2.116729e+02   1.452657e+01
  -1.719430e+02  -1.321229e+02
  -3.706791e+01  -1.928982e+02
   7.968387e+01  -1.343022e+02
   1.044190e+02  -3.062083e+01
   6.183046e+01   2.967258e+01
   3.114159e+01   1.477423e+01
   4.957241e+01  -2.102212e+01
   7.916411e+01  -1.261005e+01
   5.663176e+01   5.070096e+01
  -2.839820e+01   9.893587e+01
  -1.060582e+02   6.527799e+01
  -9.897128e+01  -3.669804e+01
   8.779021e+00  -1.192590e+02
   1.415282e+02  -8.825667e+01
   1.818246e+02   4.936688e+01
   7.783486e+01   1.802060e+02
  -1.028916e+02   1.937055e+02
  -2.239599e+02   7.859491e+01
  -2.035543e+02  -6.700039e+01
  -8.198025e+01  -1.384077e+02
   3.366079e+01  -1.180587e+02
   7.333635e+01  -6.615863e+01
   5.151149e+01  -5.377131e+01
   3.850195e+01  -7.951611e+01
   7.031218e+01  -7.279967e+01
   1.125377e+02   5.418044e+00
   1.094823e+02   1.236962e+02
   3.331097e+01   1.915480e+02
  -7.822009e+01   1.456282e+02
  -1.456876e+02   1.343808e+01
  -1.129874e+02  -1.067060e+02
  -1.173133e+01  -1.354383e+02
   6.356715e+01  -7.039429e+01
   5.549556e+01   1.151110e+01
  -6.742069e-01   4.410363e+01
  -2.015838e+01   3.010710e+01
   2.630551e+01   1.109368e+01
   7.523785e+01   1.651841e+01
   4.592630e+01   3.352273e+01
  -6.200262e+01   4.172174e+01
  -1.517559e+02   1.089514e+01
  -1.290020e+02  -4.815713e+01
  -3.564280e+00  -8.732614e+01
   1.128597e+02  -6.818384e+01
   1.224179e+02  -6.031096e+00
   3.732655e+01   4.707189e+01
  -5.290550e+01   4.223335e+01
  -6.961226e+01  -1.539801e+01
  -2.247310e+01  -6.468494e+01
   3.520141e+01  -5.847558e+01
   5.971623e+01  -6.210993e+00
   5.445695e+01   3.884077e+01
   4.630526e+01   3.217180e+01
   4.486177e+01  -4.712971e-01
   5.413246e+01   1.149693e+00
   4.034057e+01   6.216764e+01
  -1.655884e+01   1.326277e+02
  -1.042880e+02   1.299114e+02
  -1.583457e+02   3.706666e+01
  -1.183189e+02  -7.511853e+01
  -7.639124e+00  -1.153437e+02
   7.880310e+01  -6.567264e+01
   5.508796e+01   9.348415e+00
  -5.009255e+01   2.423857e+01
  -1.147401e+02  -3.065322e+01
  -6.216935e+01  -8.926530e+01
   7.052364e+01  -9.614146e+01
   1.643711e+02  -4.587906e+01
   1.376377e+02   3.245454e+01
   2.891705e+01   7.561033e+01
  -5.492979e+01   5.683924e+01
  -4.188935e+01   3.230363e-01
   3.623031e+01  -2.839102e+01
   8.132943e+01   1.307683e+01
   4.044721e+01   9.600538e+01
  -5.542304e+01   1.338193e+02
  -1.270892e+02   6.568750e+01
  -1.142245e+02  -6.958204e+01
  -2.876508e+01  -1.592148e+02
   6.119296e+01  -1.234305e+02
   9.199843e+01   3.050672e+00
   5.400619e+01   9.990064e+01
  -9.882401e+00   8.935194e+01
  -4.737776e+01   1.476722e+01
  -4.066342e+01  -2.788210e+01
  -1.180860e+01  -6.420702e+00
  -7.238478e+00   1.594045e+01
  -3.231630e+01  -1.810876e+01
  -5.595010e+01  -7.777270e+01
  -2.705343e+01  -8.898155e+01
   5.033109e+01  -3.708695e+01
   1.157047e+02   2.471597e+01
   1.012755e+02   4.872545e+01
   1.436706e+01   4.383209e+01
  -6.630953e+01   2.506575e+01
  -6.942078e+01   6.317015e+00
  -1.552419e+01  -1.181426e+01
   2.660508e+01  -2.114620e+01
   1.541046e+01  -1.287925e+01
  -1.174981e+01   2.672162e+00
   2.896090e+00   4.035123e+00
   5.436037e+01  -6.801595e+00
   7.936057e+01   1.190327e+01
   2.423631e+01   6.765486e+01
  -7.984948e+01   1.043629e+02
  -1.516159e+02   6.710812e+01
  -1.314090e+02  -4.048615e+01
  -3.611612e+01  -1.341465e+02
   6.131455e+01  -1.378184e+02
   9.607239e+01  -6.083044e+01
   7.024966e+01   1.629057e+01
   2.549950e+01   3.352153e+01
   4.465335e+00   1.214376e+01
   1.418188e+01   7.169662e+00
   2.827586e+01   4.414165e+01
   1.832332e+01   8.071855e+01
  -2.269755e+01   6.309394e+01
  -6.680057e+01  -1.061619e+01
  -7.184760e+01  -7.895346e+01
  -1.735971e+01  -8.942569e+01
   6.025209e+01  -2.942923e+01
   9.123348e+01   5.099607e+01
   3.959894e+01   8.475262e+01
  -5.264647e+01   5.845280e+01
  -9.114337e+01   2.754206e-01
  -4.229922e+01  -4.965757e+01
   2.661022e+01  -5.886051e+01
   3.476545e+01  -2.908082e+01
  -2.158105e+01   7.293502e+00
  -5.782428e+01   1.300396e+01
  -1.904331e+01  -2.247390e+01
   6.317482e+01  -6.186962e+01
   1.044653e+02  -5.087093e+01
   6.343721e+01   1.347185e+01
  -6.981741e+00   7.501809e+01
  -4.691390e+01   7.219042e+01
  -3.888033e+01   1.241799e+01
  -9.047960e+00  -4.484495e+01
   1.861966e+01  -4.347715e+01
   3.318490e+01   7.191917e+00
   2.886561e+01   4.602968e+01
   3.378052e-01   3.544457e+01
  -2.916427e+01  -3.115710e+00
  -3.650924e+01  -2.049698e+01
  -1.747736e+01  -2.324381e+00
   5.403565e+00   1.739697e+01
   6.621054e+00   7.459814e+00
  -7.466738e+00  -2.720935e+01
  -5.539196e+00  -4.447834e+01
   1.998429e+01  -2.132090e+01
   3.802021e+01   2.348379e+01
   1.635333e+01   4.866596e+01
  -3.016370e+01   2.403914e+01
  -5.376766e+01  -2.498299e+01
  -2.088765e+01  -5.117193e+01
   4.686406e+01  -3.453027e+01
   8.049509e+01   3.037992e+00
   4.643497e+01   3.292087e+01
  -2.053176e+01   4.283038e+01
  -5.317206e+01   3.131965e+01
  -2.502787e+01   9.669047e+00
   2.128157e+01  -5.318505e+00
   2.586468e+01   1.107746e+00
  -2.004091e+01   2.192299e+01
  -6.585383e+01   2.242441e+01
