
 $NMID
 id='ANONYMOUS ', fmtdat='(2E16.6)'
 volume=1.0
 tramp=1.0
 $END
  -2.751953e+03   2.149681e+02
  -1.916339e+03  -1.587615e+03
  -5.041405e+01  -1.900348e+03
   1.165844e+03  -1.150227e+03
   9.011424e+02  -1.590029e+02
  -1.150553e+01   2.441173e+02
  -4.133216e+02  -8.770159e+01
  -9.695310e+01  -5.353851e+02
   3.983901e+02  -5.944884e+02
   5.971842e+02  -9.735177e+01
   3.974726e+02   4.587018e+02
   1.596166e+01   5.846642e+02
  -2.965067e+02   1.338159e+02
  -2.370838e+02  -4.158750e+02
   1.117146e+02  -5.169734e+02
   3.808366e+02  -6.333321e+01
   2.562244e+02   4.566414e+02
  -1.289482e+02   5.611859e+02
  -4.279894e+02   2.319628e+02
  -3.882055e+02  -1.989978e+02
  -1.087011e+02  -3.463497e+02
   9.206864e+01  -2.280400e+02
   3.088239e+01  -6.779897e+01
  -1.751884e+02  -8.621639e+01
  -2.318996e+02  -2.547672e+02
   3.558335e+01  -3.387343e+02
   4.238664e+02  -1.800281e+02
   5.394047e+02   1.735878e+02
   1.768438e+02   3.357134e+02
  -3.161135e+02   1.844021e+02
  -4.652478e+02  -1.418716e+02
  -1.519470e+02  -3.551897e+02
   2.554022e+02  -3.152840e+02
   4.123969e+02  -1.158225e+02
   2.776298e+02   1.369927e+02
   6.982567e+01   2.732825e+02
  -2.957008e+01   1.517914e+02
   2.426111e+01  -9.599022e+01
   1.631709e+02  -1.564165e+02
   1.949275e+02   1.341763e+02
   2.185134e+01   4.473788e+02
  -2.348553e+02   3.870794e+02
  -3.014331e+02  -1.073828e+01
  -1.190954e+02  -2.893041e+02
   1.330973e+02  -1.222129e+02
   1.540390e+02   2.590553e+02
  -1.064940e+02   3.550005e+02
  -4.220350e+02   5.284562e+01
  -4.503138e+02  -3.645322e+02
  -1.480388e+02  -4.628169e+02
   2.729931e+02  -2.402785e+02
   4.549265e+02   6.961514e+01
   2.913051e+02   2.363050e+02
  -5.917086e+01   2.058833e+02
  -2.627627e+02   7.441459e+01
  -1.930223e+02  -2.569342e+01
   5.471523e-02  -1.096676e+01
   4.928708e+01   5.267780e+01
  -1.094722e+02   4.912349e+01
  -2.227047e+02  -5.418790e+01
  -1.148975e+02  -1.793878e+02
   1.446813e+02  -2.159880e+02
   3.147707e+02  -1.024434e+02
   2.303996e+02   1.064287e+02
  -2.666141e+01   2.881309e+02
  -2.784254e+02   3.161381e+02
  -3.260108e+02   1.306915e+02
  -2.110891e+02  -1.500293e+02
  -6.341083e+01  -3.194530e+02
   1.230117e+01  -2.812776e+02
   1.590654e+01  -1.463000e+02
   3.986861e+01  -8.232497e+01
   1.259308e+02  -1.027153e+02
   2.213667e+02  -4.945253e+01
   2.045846e+02   1.168796e+02
   7.087158e+01   2.394052e+02
  -9.333407e+01   1.788680e+02
  -1.744400e+02  -3.125301e+01
  -1.146201e+02  -2.118100e+02
   4.518753e+01  -2.132947e+02
   2.171859e+02  -3.962019e+01
   2.632409e+02   1.691060e+02
   1.398909e+02   2.777113e+02
  -5.114213e+01   2.424622e+02
  -1.534078e+02   1.335581e+02
  -1.337656e+02   6.406716e+01
  -1.316134e+02   5.662672e+01
  -2.426014e+02   2.995232e+01
  -3.561163e+02  -8.559170e+01
  -2.695681e+02  -2.656825e+02
   3.770864e+01  -3.845212e+02
   3.455334e+02  -3.413138e+02
   4.271462e+02  -1.336559e+02
   2.536883e+02   1.055048e+02
   1.164135e+01   2.274505e+02
  -9.241761e+01   1.770976e+02
  -1.688879e+01   3.426186e+01
   1.025526e+02  -2.925957e+01
   1.120159e+02   3.493480e+01
   5.188426e+00   1.256675e+02
  -1.032157e+02   9.909310e+01
  -9.615756e+01  -4.250718e+01
   2.668264e+01  -1.161620e+02
   1.392399e+02  -4.213562e-01
   1.325615e+02   2.124930e+02
  -2.456973e+01   3.167337e+02
  -2.213878e+02   1.868393e+02
  -3.175921e+02  -5.618278e+01
  -2.436297e+02  -2.454503e+02
  -4.425715e+01  -2.467417e+02
   1.166904e+02  -1.178544e+02
   1.273491e+02   3.073451e-01
   2.931646e+01   1.270017e+01
  -4.272284e+01  -6.026782e+01
   8.352328e+00  -1.011156e+02
   1.165806e+02  -5.535983e+01
   1.382497e+02   2.511525e+01
   2.809986e+01   5.030774e+01
  -7.383495e+01  -1.251795e+01
  -3.585348e+01  -8.324191e+01
   1.306378e+02  -7.984520e+01
   2.687325e+02   2.115264e+01
   2.252697e+02   1.568003e+02
   1.606557e+01   2.324323e+02
  -1.941523e+02   2.033272e+02
  -2.364556e+02   7.376143e+01
  -1.138456e+02  -4.941903e+01
   2.952867e+01  -7.252361e+01
   5.455966e+01   4.603046e+00
  -4.618230e+01   7.161923e+01
  -1.548201e+02   2.796980e+01
  -1.538812e+02  -9.608555e+01
  -4.058771e+01  -1.712602e+02
   8.232155e+01  -1.174656e+02
   1.128051e+02  -4.335843e+00
   3.847175e+01   3.864062e+01
  -4.007144e+01  -1.972345e+01
  -2.244672e+01  -1.024676e+02
   9.126394e+01  -1.055238e+02
   1.908561e+02  -7.459771e+00
   1.590926e+02   1.237480e+02
   3.710483e+00   1.866435e+02
  -1.390167e+02   1.299900e+02
  -1.510515e+02   5.921684e+00
  -4.610939e+01  -8.775441e+01
   5.951301e+01  -8.681915e+01
   6.158610e+01  -2.162317e+01
  -4.051537e-01   2.217361e+01
  -3.393688e+01   6.208201e+00
   8.666417e+00  -2.458410e+01
   7.990922e+01  -2.300054e+00
   9.086904e+01   8.267728e+01
   2.133172e+00   1.582120e+02
  -1.329653e+02   1.360609e+02
  -2.132831e+02   1.660513e+00
  -1.679678e+02  -1.520402e+02
  -2.931438e+01  -2.133908e+02
   9.335603e+01  -1.453684e+02
   1.187592e+02  -2.798509e+01
   6.822381e+01   3.869579e+01
   3.450863e+01   2.506495e+01
   5.606515e+01  -1.135620e+01
   8.221495e+01   1.733526e-01
   5.005945e+01   5.632800e+01
  -4.007716e+01   9.562453e+01
  -1.139019e+02   5.765044e+01
  -9.618300e+01  -4.337405e+01
   1.828588e+01  -1.170116e+02
   1.486407e+02  -7.798623e+01
   1.804024e+02   6.264505e+01
   7.087328e+01   1.927281e+02
  -1.153873e+02   1.928347e+02
  -2.386654e+02   7.063064e+01
  -2.190262e+02  -7.949418e+01
  -8.938770e+01  -1.474389e+02
   3.691313e+01  -1.215475e+02
   7.463043e+01  -7.069284e+01
   5.523855e+01  -6.265784e+01
   4.850977e+01  -8.503602e+01
   8.299641e+01  -7.079069e+01
   1.212735e+02   1.634561e+01
   1.081343e+02   1.378468e+02
   1.798761e+01   2.025410e+02
  -9.331479e+01   1.476125e+02
  -1.534034e+02   4.208795e+00
  -1.092636e+02  -1.197625e+02
  -1.779040e+00  -1.399019e+02
   7.147641e+01  -6.650939e+01
   5.606991e+01   1.808376e+01
  -4.014477e+00   5.046150e+01
  -2.495479e+01   3.232225e+01
   2.180045e+01   8.740659e+00
   7.346534e+01   1.591785e+01
   3.948349e+01   3.577868e+01
  -6.672810e+01   3.634986e+01
  -1.555741e+02  -5.810282e+00
  -1.256310e+02  -6.128988e+01
   5.537981e+00  -9.246695e+01
   1.279221e+02  -6.383506e+01
   1.341899e+02   3.322068e-01
   3.834476e+01   4.817056e+01
  -5.299894e+01   4.091774e+01
  -6.751097e+01  -1.784788e+01
  -1.540856e+01  -6.727488e+01
   4.239616e+01  -5.839367e+01
   6.399959e+01   1.842285e-01
   5.389291e+01   4.966029e+01
   4.503873e+01   4.334577e+01
   4.922144e+01   6.247955e+00
   5.665752e+01   3.422571e+00
   3.924951e+01   6.517774e+01
  -2.821603e+01   1.363149e+02
  -1.180419e+02   1.281738e+02
  -1.646183e+02   2.451632e+01
  -1.169106e+02  -9.149655e+01
  -3.779909e-01  -1.238830e+02
   8.513229e+01  -6.166562e+01
   5.586819e+01   1.342864e+01
  -4.998170e+01   2.060630e+01
  -1.152946e+02  -3.507560e+01
  -5.789014e+01  -9.678886e+01
   7.729685e+01  -1.023070e+02
   1.692095e+02  -4.055086e+01
   1.347289e+02   3.901514e+01
   2.540742e+01   7.838170e+01
  -5.688673e+01   5.231039e+01
  -4.117655e+01  -6.446730e+00
   3.651157e+01  -3.172818e+01
   8.239546e+01   1.646879e+01
   3.586149e+01   1.049337e+02
  -7.059394e+01   1.447497e+02
  -1.426718e+02   6.418818e+01
  -1.137580e+02  -8.640889e+01
  -1.324610e+01  -1.759161e+02
   7.255384e+01  -1.216625e+02
   9.010507e+01   1.449897e+01
   4.875131e+01   1.079122e+02
  -1.232830e+01   9.196544e+01
  -4.549420e+01   1.022582e+01
  -4.031127e+01  -2.787412e+01
  -1.535420e+01  -4.665659e+00
  -6.121650e+00   1.618401e+01
  -2.691331e+01  -2.276426e+01
  -4.880400e+01  -8.522274e+01
  -2.411366e+01  -9.574104e+01
   5.503641e+01  -3.562812e+01
   1.239031e+02   4.088450e+01
   1.077826e+02   6.912449e+01
   1.379591e+01   4.941420e+01
  -7.238877e+01   1.892889e+01
  -7.457992e+01   2.038044e+00
  -1.303216e+01  -9.280668e+00
   3.151867e+01  -1.672163e+01
   1.571228e+01  -8.034643e+00
  -1.609303e+01   4.182567e+00
   1.591507e+00   3.719840e+00
   6.050155e+01  -1.660110e+00
   8.279474e+01   2.155622e+01
   1.607839e+01   7.362551e+01
  -1.001785e+02   1.015221e+02
  -1.703640e+02   5.455430e+01
  -1.334426e+02  -5.391724e+01
  -2.314520e+01  -1.423189e+02
   7.670535e+01  -1.344099e+02
   1.066932e+02  -5.276939e+01
   7.430166e+01   2.279552e+01
   2.355042e+01   3.514175e+01
   1.354038e+00   1.300919e+01
   1.218736e+01   8.476531e+00
   2.347621e+01   4.506105e+01
   1.137255e+01   8.374384e+01
  -2.987508e+01   6.287674e+01
  -7.001372e+01  -1.627318e+01
  -6.931737e+01  -9.394441e+01
  -1.029947e+01  -9.954910e+01
   6.798579e+01  -2.771834e+01
   9.220960e+01   5.847171e+01
   3.427605e+01   9.202792e+01
  -6.041051e+01   5.737292e+01
  -9.344439e+01  -6.325381e+00
  -3.931408e+01  -5.384963e+01
   3.064259e+01  -5.539242e+01
   3.673933e+01  -2.468943e+01
  -2.167070e+01   5.849309e+00
  -6.031915e+01   6.430248e+00
  -1.492812e+01  -2.655615e+01
   7.170160e+01  -5.695147e+01
   1.049022e+02  -4.147550e+01
   5.989623e+01   2.179380e+01
  -1.350171e+01   7.999879e+01
  -5.388825e+01   7.315934e+01
  -4.255477e+01   9.065983e+00
  -5.805552e+00  -4.721774e+01
   2.205856e+01  -4.417237e+01
   3.210579e+01   9.947030e+00
   2.360339e+01   4.770977e+01
  -1.874882e+00   3.407907e+01
  -2.920077e+01  -5.287686e+00
  -3.397360e+01  -2.257033e+01
  -1.634423e+01  -4.532683e+00
   3.401403e+00   1.620974e+01
   5.659646e+00   6.545267e+00
  -3.789235e+00  -2.916850e+01
   2.008150e+00  -4.727240e+01
   2.707468e+01  -1.940458e+01
   3.789279e+01   3.118478e+01
   1.005425e+01   5.454602e+01
  -3.601937e+01   2.487483e+01
  -5.661757e+01  -2.986003e+01
  -1.824352e+01  -5.465735e+01
   5.243829e+01  -3.326611e+01
   8.531230e+01   1.035150e+01
   4.526068e+01   4.067948e+01
  -2.743299e+01   4.376015e+01
  -6.025703e+01   2.600431e+01
  -2.774487e+01   4.427520e+00
   2.463399e+01  -5.274910e+00
   2.987601e+01   4.179346e+00
  -2.123827e+01   2.339271e+01
  -6.852623e+01   1.763781e+01
