
 $NMID
 id='ANONYMOUS ', fmtdat='(2E16.6)'
 volume=1.0
 tramp=1.0
 $END
  -1.786341e+03  -3.861524e+02
  -1.100365e+03  -9.847360e+02
  -1.453255e+02  -1.190826e+03
   5.731472e+02  -8.959610e+02
   5.534380e+02  -4.190360e+02
   2.335550e+02  -6.147714e+01
  -2.085472e+01  -1.068841e+01
   1.206806e+01  -2.054819e+02
   2.609721e+02  -2.667152e+02
   3.521905e+02  -7.004061e+01
   2.724181e+02   2.579001e+02
   6.825027e+01   3.558027e+02
  -8.781562e+01   1.524882e+02
  -8.562573e+01  -1.600698e+02
   6.349541e+01  -2.634944e+02
   2.035712e+02  -6.714215e+01
   1.755907e+02   2.416364e+02
  -1.867068e+01   3.613521e+02
  -2.304037e+02   2.131290e+02
  -2.798077e+02  -3.490148e+01
  -1.144548e+02  -1.797448e+02
   3.002300e+01  -1.450261e+02
   1.440783e+01  -8.287726e+01
  -1.365691e+02  -1.206563e+02
  -1.528269e+02  -2.331423e+02
   6.593112e+01  -2.350476e+02
   2.995076e+02  -5.022991e+01
   3.411416e+02   1.469679e+02
   1.013977e+02   1.875356e+02
  -1.770971e+02   6.902951e+01
  -2.408748e+02  -9.659213e+01
  -6.788742e+01  -1.965083e+02
   1.652871e+02  -1.705770e+02
   2.430508e+02  -6.545527e+01
   1.705165e+02   9.409645e+01
   4.721061e+01   1.611823e+02
   2.457191e+01   9.119803e+01
   9.148520e+01  -4.568488e+01
   1.434147e+02  -3.721126e+01
   7.347604e+01   1.324222e+02
  -8.540717e+01   2.795031e+02
  -1.531502e+02   1.998521e+02
  -1.146645e+02  -3.851740e+01
  -1.235418e+01  -1.652823e+02
   6.323938e+01  -3.021362e+01
   4.269479e+01   1.719199e+02
  -8.885022e+01   2.013600e+02
  -2.411361e+02  -1.418038e+01
  -2.573484e+02  -2.653337e+02
  -9.137687e+01  -3.044925e+02
   1.630361e+02  -1.451509e+02
   2.924163e+02   3.000398e+01
   2.022093e+02   1.010964e+02
  -7.509606e+00   8.996611e+01
  -1.401489e+02   3.961586e+01
  -1.238871e+02   1.062517e+01
  -2.862712e+01   1.445885e+01
   6.528304e+00   5.683279e+00
  -5.030021e+01  -3.009100e+00
  -1.102927e+02  -3.298397e+01
  -8.531260e+01  -9.886718e+01
   7.532480e+01  -1.513291e+02
   2.102483e+02  -1.122134e+02
   1.963256e+02   3.903402e+01
   1.113201e+01   1.957626e+02
  -2.057344e+02   2.379108e+02
  -2.529478e+02   9.510283e+01
  -1.458084e+02  -1.101135e+02
  -1.881434e+01  -2.123263e+02
   1.598951e+01  -1.850303e+02
  -1.385570e+01  -1.327748e+02
   1.060046e+01  -1.108447e+02
   1.090840e+02  -9.490376e+01
   1.849630e+02  -2.353375e+01
   1.527358e+02   9.616303e+01
   3.799421e+01   1.653027e+02
  -7.640076e+01   1.058730e+02
  -1.196437e+02  -4.657796e+01
  -6.769088e+01  -1.618509e+02
   5.009179e+01  -1.506253e+02
   1.576634e+02  -2.159682e+01
   1.771683e+02   1.195975e+02
   8.663732e+01   1.786642e+02
  -4.080128e+01   1.576520e+02
  -9.192651e+01   1.034706e+02
  -8.562143e+01   7.194389e+01
  -1.029929e+02   5.916026e+01
  -1.894912e+02   1.666453e+01
  -2.675118e+02  -7.314134e+01
  -2.037278e+02  -1.903221e+02
   1.411397e+01  -2.723217e+02
   2.331054e+02  -2.460975e+02
   2.958488e+02  -1.078365e+02
   1.664693e+02   6.512996e+01
  -8.154702e-01   1.467967e+02
  -5.340951e+01   1.047704e+02
   1.250090e+01   2.230483e+01
   8.177705e+01  -1.361308e+00
   6.711411e+01   4.340748e+01
  -1.405348e+01   8.168300e+01
  -7.292835e+01   4.885441e+01
  -5.415416e+01  -3.759636e+01
   2.267222e+01  -6.579769e+01
   9.319562e+01   1.527318e+01
   8.890326e+01   1.470255e+02
  -1.659316e+01   2.110444e+02
  -1.575795e+02   1.382173e+02
  -2.398863e+02  -3.096344e+01
  -1.858160e+02  -1.683870e+02
  -3.194219e+01  -1.839735e+02
   9.409184e+01  -8.515582e+01
   9.450522e+01   4.345262e+00
   1.207615e+01   1.000389e+01
  -2.779841e+01  -4.550378e+01
   1.416484e+01  -7.061249e+01
   8.428196e+01  -2.824010e+01
   8.460768e+01   3.179576e+01
   1.248751e+01   3.769101e+01
  -5.432988e+01  -1.393461e+01
  -2.060709e+01  -6.763162e+01
   1.048901e+02  -5.799665e+01
   2.012108e+02   2.435576e+01
   1.660789e+02   1.245965e+02
   9.528574e+00   1.717416e+02
  -1.356224e+02   1.403166e+02
  -1.629763e+02   5.263056e+01
  -7.448868e+01  -2.467531e+01
   2.449819e+01  -3.394742e+01
   3.531646e+01   1.401239e+01
  -4.583612e+01   4.536001e+01
  -1.227670e+02   4.529585e+00
  -1.124814e+02  -7.215203e+01
  -2.940222e+01  -1.115201e+02
   5.802950e+01  -7.734738e+01
   7.455233e+01  -5.737661e+00
   2.367276e+01   2.200622e+01
  -3.158013e+01  -1.908088e+01
  -1.754296e+01  -7.940502e+01
   6.792799e+01  -7.836874e+01
   1.398864e+02   1.396326e+00
   1.155684e+02   9.440719e+01
   3.671694e+00   1.329095e+02
  -9.881572e+01   9.030939e+01
  -1.066536e+02   2.367850e+00
  -2.752322e+01  -5.561531e+01
   4.565893e+01  -5.156445e+01
   4.458200e+01  -1.147928e+01
  -4.860633e+00   1.774651e+01
  -3.364279e+01   3.135403e+00
   8.774870e-01  -2.457983e+01
   6.211329e+01  -8.493527e+00
   7.975689e+01   5.867615e+01
   1.272248e+01   1.173934e+02
  -9.756317e+01   9.804004e+01
  -1.581226e+02   1.064466e+00
  -1.193357e+02  -1.057135e+02
  -1.569875e+01  -1.411850e+02
   6.654279e+01  -9.648236e+01
   7.754393e+01  -1.993432e+01
   4.340085e+01   2.303770e+01
   2.160184e+01   1.506272e+01
   3.926815e+01  -9.167721e+00
   6.196375e+01  -6.103341e+00
   4.286713e+01   3.695797e+01
  -2.386184e+01   7.453627e+01
  -8.740051e+01   5.194870e+01
  -8.071742e+01  -2.983825e+01
   1.093225e+01  -9.224634e+01
   1.172162e+02  -6.259884e+01
   1.410442e+02   4.681627e+01
   4.769493e+01   1.437970e+02
  -9.443783e+01   1.392683e+02
  -1.757851e+02   3.847092e+01
  -1.488317e+02  -7.149920e+01
  -5.867961e+01  -1.107367e+02
   2.489305e+01  -8.639660e+01
   5.692014e+01  -5.054659e+01
   4.859095e+01  -4.700100e+01
   4.214855e+01  -6.455608e+01
   5.917523e+01  -5.606533e+01
   8.502376e+01   8.362399e+00
   8.167682e+01   9.873650e+01
   2.358497e+01   1.486702e+02
  -6.361711e+01   1.074065e+02
  -1.116683e+02   4.812473e+00
  -8.246742e+01  -8.188349e+01
  -6.141015e+00  -1.000763e+02
   5.221361e+01  -4.959101e+01
   4.416351e+01   1.029882e+01
  -2.784401e+00   3.632185e+01
  -2.204140e+01   2.582290e+01
   1.326406e+01   1.014394e+01
   5.496922e+01   1.476782e+01
   3.604067e+01   2.660941e+01
  -4.932737e+01   2.512555e+01
  -1.138585e+02  -3.302725e+00
  -9.378948e+01  -4.184486e+01
   2.249387e+00  -6.403800e+01
   8.505846e+01  -4.789220e+01
   9.179851e+01  -1.971472e+00
   2.964471e+01   3.377314e+01
  -3.371472e+01   2.976783e+01
  -4.982683e+01  -8.992285e+00
  -1.745665e+01  -4.658416e+01
   2.391629e+01  -4.377257e+01
   4.514593e+01  -6.416415e+00
   4.269302e+01   3.087311e+01
   2.891733e+01   2.600996e+01
   3.272602e+01   1.184010e+00
   4.034617e+01   2.425031e+00
   3.152048e+01   4.742724e+01
  -1.453869e+01   9.864515e+01
  -8.361245e+01   9.275671e+01
  -1.203888e+02   2.193571e+01
  -8.563731e+01  -6.067882e+01
   2.263381e+00  -8.292716e+01
   6.366150e+01  -4.394810e+01
   4.081808e+01   4.242592e+00
  -4.041766e+01   1.346628e+01
  -8.893266e+01  -2.568846e+01
  -4.391181e+01  -6.778812e+01
   5.898677e+01  -6.953283e+01
   1.229680e+02  -2.875708e+01
   1.035337e+02   2.714466e+01
   2.060459e+01   5.611517e+01
  -4.284525e+01   3.989158e+01
  -3.251199e+01  -1.187458e+00
   2.788542e+01  -2.177652e+01
   6.040787e+01   8.299754e+00
   2.877915e+01   6.875790e+01
  -4.276019e+01   9.833168e+01
  -9.225113e+01   5.018524e+01
  -7.843519e+01  -5.102440e+01
  -1.187982e+01  -1.214576e+02
   4.924908e+01  -9.604489e+01
   6.878247e+01   5.237203e+00
   3.686236e+01   8.059460e+01
  -9.677752e+00   6.876947e+01
  -3.449141e+01   9.139570e+00
  -2.761214e+01  -2.228405e+01
  -8.508678e+00  -5.287557e+00
  -4.188194e+00   1.228131e+01
  -2.362055e+01  -1.169273e+01
  -3.717511e+01  -5.755449e+01
  -1.860127e+01  -6.772140e+01
   3.566117e+01  -3.025984e+01
   8.472950e+01   1.714025e+01
   7.997690e+01   4.153548e+01
   1.490423e+01   3.639058e+01
  -4.652452e+01   2.118492e+01
  -5.500559e+01   4.653334e+00
  -1.407628e+01  -8.361329e+00
   1.961153e+01  -1.459570e+01
   1.320238e+01  -8.948213e+00
  -6.576812e+00  -1.649187e-01
   1.653474e+00   6.935405e-01
   4.114080e+01  -1.547001e+00
   6.119034e+01   1.132352e+01
   2.235828e+01   5.182871e+01
  -5.725818e+01   8.161423e+01
  -1.155993e+02   5.414023e+01
  -1.036135e+02  -2.608151e+01
  -3.251209e+01  -1.003354e+02
   4.092535e+01  -1.064154e+02
   7.273567e+01  -4.720836e+01
   5.376992e+01   1.121689e+01
   2.008652e+01   2.495319e+01
   4.514220e+00   9.192907e+00
   8.165301e+00   6.989676e+00
   1.616777e+01   3.274830e+01
   9.531924e+00   6.086910e+01
  -1.738249e+01   4.634505e+01
  -4.720815e+01  -1.029845e+01
  -5.183959e+01  -6.428350e+01
  -1.314538e+01  -7.126789e+01
   4.259735e+01  -2.398323e+01
   6.666401e+01   3.647640e+01
   3.114109e+01   6.453616e+01
  -3.620984e+01   4.450197e+01
  -6.829405e+01  -1.799719e+00
  -3.432891e+01  -3.781082e+01
   1.770097e+01  -4.403446e+01
   2.657708e+01  -2.166604e+01
  -1.336834e+01   3.172342e+00
  -4.348841e+01   4.978244e+00
  -1.511180e+01  -1.624345e+01
   4.947943e+01  -4.188764e+01
   8.231582e+01  -3.597579e+01
   5.236447e+01   9.397974e+00
  -5.857587e+00   5.336130e+01
  -3.920179e+01   5.434649e+01
  -3.190461e+01   1.433031e+01
  -7.519741e+00  -3.144960e+01
   1.312465e+01  -3.324639e+01
   2.181199e+01   2.188691e+00
   2.147179e+01   3.398024e+01
   4.127895e+00   2.858648e+01
  -2.178196e+01   8.354002e-01
  -3.189002e+01  -1.643630e+01
  -1.640903e+01  -5.749232e+00
   4.123110e+00   1.348464e+01
   6.562760e+00   1.018415e+01
  -4.701152e+00  -1.698688e+01
  -7.036293e+00  -3.485804e+01
   1.322620e+01  -1.872575e+01
   3.047856e+01   1.769069e+01
   1.448858e+01   3.711558e+01
  -2.380697e+01   1.760870e+01
  -4.267595e+01  -1.876688e+01
  -1.619593e+01  -3.562663e+01
   3.519435e+01  -2.288862e+01
   5.927568e+01   3.992499e+00
   3.377672e+01   2.551355e+01
  -1.694878e+01   2.946000e+01
  -4.160839e+01   2.099866e+01
  -2.126335e+01   5.909687e+00
   1.411816e+01  -1.975823e+00
   2.029732e+01   2.472832e-01
  -1.154305e+01   1.354731e+01
  -4.462260e+01   1.577813e+01
