
 $NMID
 id='ANONYMOUS ', fmtdat='(2E16.6)'
 volume=1.0
 tramp=1.0
 $END
   2.083466e+03   2.275387e+02
   1.269234e+03   1.107142e+03
   8.076517e+01   1.432921e+03
  -6.312967e+02   9.768368e+02
  -6.529336e+02   3.299367e+02
  -2.187171e+02  -4.267228e+01
   8.765448e+01  -3.423251e+01
   3.017608e+01   2.033167e+02
  -2.378641e+02   3.399545e+02
  -3.925491e+02   1.093147e+02
  -2.929590e+02  -2.842721e+02
  -4.724478e+01  -3.933230e+02
   1.605955e+02  -1.549824e+02
   1.414391e+02   2.458750e+02
  -7.070305e+01   3.646938e+02
  -2.535366e+02   8.576451e+01
  -2.164237e+02  -2.900474e+02
   4.486900e+01  -4.355261e+02
   2.959149e+02  -2.306519e+02
   3.321631e+02   8.689027e+01
   1.123966e+02   2.496456e+02
  -6.533009e+01   1.730928e+02
  -3.581716e+01   7.829252e+01
   1.208650e+02   1.061765e+02
   1.640899e+02   2.210935e+02
  -4.353068e+01   2.618181e+02
  -3.184958e+02   7.050864e+01
  -3.756895e+02  -1.595143e+02
  -1.046233e+02  -2.133717e+02
   2.093411e+02  -8.154112e+01
   2.955498e+02   1.312205e+02
   8.376174e+01   2.468418e+02
  -1.707419e+02   2.155382e+02
  -2.706359e+02   7.026792e+01
  -1.894803e+02  -9.923290e+01
  -6.092825e+01  -1.699269e+02
  -2.037329e+01  -8.760895e+01
  -6.958037e+01   6.094321e+01
  -1.359503e+02   5.964441e+01
  -1.084779e+02  -1.228119e+02
   5.398271e+01  -2.883847e+02
   1.703125e+02  -2.407367e+02
   1.770459e+02   1.894998e+01
   4.875528e+01   1.749876e+02
  -8.313943e+01   5.288845e+01
  -7.129511e+01  -1.712673e+02
   9.926289e+01  -2.263851e+02
   2.901680e+02  -9.839760e+00
   3.261101e+02   2.800209e+02
   1.135948e+02   3.390954e+02
  -1.814023e+02   1.758983e+02
  -3.483351e+02  -5.105034e+01
  -2.250600e+02  -1.608940e+02
   2.976955e+01  -1.283964e+02
   1.853185e+02  -4.943583e+01
   1.571679e+02   7.438517e+00
   3.284336e+01   5.822638e-01
  -1.709361e+01  -8.865981e+00
   6.345849e+01  -1.521733e+01
   1.456123e+02   3.315556e+01
   8.719834e+01   1.071861e+02
  -9.400195e+01   1.516991e+02
  -2.334998e+02   8.756500e+01
  -1.997674e+02  -7.312942e+01
   1.648236e+01  -2.252820e+02
   2.296959e+02  -2.635997e+02
   2.618257e+02  -1.072497e+02
   1.568321e+02   1.068690e+02
   2.678072e+01   2.344642e+02
  -2.281859e+01   2.124243e+02
  -1.822841e+00   1.240789e+02
  -2.055015e+01   8.825093e+01
  -1.057049e+02   7.599294e+01
  -1.776287e+02   2.138505e+01
  -1.539277e+02  -8.532681e+01
  -4.807203e+01  -1.743710e+02
   7.449528e+01  -1.267563e+02
   1.309289e+02   3.144248e+01
   8.678546e+01   1.680979e+02
  -3.601836e+01   1.637338e+02
  -1.626765e+02   3.737968e+01
  -1.995428e+02  -1.211008e+02
  -1.080807e+02  -2.037767e+02
   3.163528e+01  -1.810575e+02
   1.040535e+02  -1.094768e+02
   1.014157e+02  -7.135677e+01
   1.085462e+02  -6.196678e+01
   2.009687e+02  -2.420830e+01
   2.847822e+02   8.169821e+01
   2.098149e+02   2.022409e+02
  -2.407643e+01   2.952631e+02
  -2.687705e+02   2.650043e+02
  -3.381739e+02   1.146464e+02
  -1.938517e+02  -6.824926e+01
  -1.326816e+01  -1.640217e+02
   5.622166e+01  -1.271928e+02
  -3.819127e+00  -3.446092e+01
  -7.581353e+01   1.181214e+01
  -7.921609e+01  -2.990094e+01
   1.134437e+00  -9.427683e+01
   7.789283e+01  -6.952727e+01
   6.386168e+01   3.117960e+01
  -2.236888e+01   8.213727e+01
  -1.044535e+02   1.237552e+00
  -9.725542e+01  -1.538802e+02
   1.353925e+01  -2.280982e+02
   1.610206e+02  -1.411024e+02
   2.442584e+02   4.278833e+01
   1.860496e+02   1.878436e+02
   3.576876e+01   1.910152e+02
  -9.697310e+01   8.629786e+01
  -1.047637e+02  -5.416058e+00
  -2.318308e+01  -7.591179e+00
   2.961579e+01   5.037026e+01
  -1.092058e+01   7.630977e+01
  -8.776963e+01   3.335663e+01
  -9.861073e+01  -2.729547e+01
  -2.311726e+01  -3.767653e+01
   5.426831e+01   1.235091e+01
   2.727436e+01   6.544823e+01
  -9.683276e+01   5.688077e+01
  -2.082616e+02  -1.426792e+01
  -1.857521e+02  -1.194742e+02
  -1.716969e+01  -1.817265e+02
   1.499255e+02  -1.598671e+02
   1.859797e+02  -6.687075e+01
   8.591162e+01   3.311427e+01
  -2.424536e+01   4.756634e+01
  -3.808440e+01  -6.982961e+00
   4.109485e+01  -4.775952e+01
   1.195871e+02  -1.113029e+01
   1.132748e+02   7.850342e+01
   3.058875e+01   1.253432e+02
  -6.356519e+01   8.614618e+01
  -8.293444e+01   1.131781e+01
  -2.799934e+01  -2.234368e+01
   3.021390e+01   2.046925e+01
   1.452435e+01   7.973533e+01
  -7.266053e+01   8.066868e+01
  -1.463589e+02   3.430399e+00
  -1.215462e+02  -9.213260e+01
  -4.613634e+00  -1.360375e+02
   1.054756e+02  -9.513854e+01
   1.147483e+02  -6.547057e+00
   3.461504e+01   6.263911e+01
  -4.535886e+01   6.737077e+01
  -4.955260e+01   1.915104e+01
   1.220732e+00  -1.514924e+01
   2.904216e+01  -3.984899e+00
  -4.323419e+00   2.245060e+01
  -6.270007e+01   6.831310e+00
  -7.669178e+01  -5.950577e+01
  -8.907500e+00  -1.206411e+02
   9.972380e+01  -1.046302e+02
   1.645044e+02  -3.309157e+00
   1.288713e+02   1.094221e+02
   2.550786e+01   1.552655e+02
  -6.495229e+01   1.077847e+02
  -8.239092e+01   2.250892e+01
  -4.748503e+01  -2.496466e+01
  -2.212935e+01  -1.411845e+01
  -4.087039e+01   1.481737e+01
  -6.617245e+01   9.309646e+00
  -4.553491e+01  -3.937386e+01
   2.531606e+01  -7.744432e+01
   8.974737e+01  -5.114298e+01
   8.041808e+01   3.309090e+01
  -1.264350e+01   9.537574e+01
  -1.182793e+02   6.373843e+01
  -1.415966e+02  -4.970493e+01
  -5.280334e+01  -1.452303e+02
   9.196720e+01  -1.428306e+02
   1.801355e+02  -4.413509e+01
   1.553241e+02   6.601511e+01
   6.132761e+01   1.141375e+02
  -2.611348e+01   9.181661e+01
  -5.830449e+01   5.163498e+01
  -4.838021e+01   4.436758e+01
  -4.196640e+01   6.196234e+01
  -6.187469e+01   5.447378e+01
  -8.849333e+01  -1.145333e+01
  -7.990802e+01  -1.013169e+02
  -1.899688e+01  -1.526699e+02
   6.717339e+01  -1.120401e+02
   1.157016e+02  -4.743604e+00
   8.532887e+01   8.537227e+01
   4.820563e+00   1.059384e+02
  -5.459418e+01   5.286755e+01
  -4.632301e+01  -1.438740e+01
   3.092122e+00  -4.033501e+01
   2.346390e+01  -2.585048e+01
  -1.480934e+01  -8.985413e+00
  -5.585351e+01  -1.380240e+01
  -3.025506e+01  -2.921255e+01
   5.295540e+01  -2.426759e+01
   1.218917e+02   4.534930e+00
   9.886847e+01   4.587608e+01
  -3.353150e+00   6.888897e+01
  -9.596816e+01   5.153562e+01
  -1.012455e+02   6.837064e+00
  -3.312577e+01  -3.681001e+01
   3.944120e+01  -3.372174e+01
   5.502705e+01   8.700492e+00
   1.658061e+01   5.053675e+01
  -2.826185e+01   4.789594e+01
  -4.735670e+01   6.509623e+00
  -4.362827e+01  -3.183557e+01
  -3.520247e+01  -2.780071e+01
  -4.144409e+01   4.581306e-02
  -4.701315e+01  -7.181068e-01
  -3.361200e+01  -5.029078e+01
   1.486705e+01  -1.047941e+02
   8.603301e+01  -1.009598e+02
   1.237660e+02  -2.729377e+01
   9.418860e+01   6.215210e+01
   4.425366e+00   9.135969e+01
  -6.412337e+01   5.059191e+01
  -4.702209e+01  -3.382927e+00
   3.521984e+01  -1.427141e+01
   8.439145e+01   2.729453e+01
   4.479044e+01   7.355259e+01
  -6.413714e+01   8.012915e+01
  -1.317116e+02   2.843183e+01
  -1.066588e+02  -3.870679e+01
  -1.474860e+01  -6.161953e+01
   4.721960e+01  -3.713281e+01
   3.299314e+01   8.531763e+00
  -2.763071e+01   2.648283e+01
  -6.302211e+01  -9.231227e+00
  -3.088292e+01  -7.773859e+01
   4.878633e+01  -1.080351e+02
   1.020266e+02  -5.211545e+01
   8.403021e+01   5.961750e+01
   1.319902e+01   1.295872e+02
  -5.319834e+01   9.391017e+01
  -6.982385e+01  -9.088863e+00
  -3.665706e+01  -8.357362e+01
   1.081454e+01  -7.061420e+01
   3.725015e+01  -8.274533e+00
   3.014649e+01   2.175266e+01
   8.353771e+00   6.248618e+00
   3.954950e+00  -1.097344e+01
   2.566396e+01   1.539787e+01
   4.281883e+01   6.262464e+01
   2.194599e+01   7.327726e+01
  -4.426262e+01   3.162618e+01
  -9.635247e+01  -2.357404e+01
  -8.518226e+01  -4.612111e+01
  -1.400299e+01  -3.801771e+01
   5.371271e+01  -2.101649e+01
   5.957764e+01  -3.830283e+00
   1.305694e+01   8.726977e+00
  -2.324677e+01   1.341964e+01
  -1.308527e+01   7.166913e+00
   1.009419e+01  -4.580432e+00
  -8.400455e-01  -3.167636e+00
  -4.605298e+01   1.184861e+00
  -6.503606e+01  -1.450652e+01
  -1.799234e+01  -5.609922e+01
   7.405263e+01  -8.155090e+01
   1.358137e+02  -4.901123e+01
   1.093021e+02   3.804739e+01
   2.213052e+01   1.071337e+02
  -5.601829e+01   1.079582e+02
  -8.061375e+01   4.520102e+01
  -5.768053e+01  -1.443146e+01
  -1.961059e+01  -2.595162e+01
  -5.025755e+00  -9.828000e+00
  -1.036806e+01  -6.299874e+00
  -1.935321e+01  -3.290321e+01
  -1.177399e+01  -6.369430e+01
   1.773736e+01  -4.997752e+01
   5.084795e+01   8.628404e+00
   5.618889e+01   6.658164e+01
   1.364489e+01   7.509607e+01
  -4.805179e+01   2.496805e+01
  -7.248762e+01  -4.130403e+01
  -2.949388e+01  -6.936713e+01
   4.241950e+01  -4.585194e+01
   7.082691e+01   1.327293e+00
   3.395704e+01   4.099538e+01
  -1.952366e+01   4.650412e+01
  -2.490592e+01   2.109808e+01
   1.429205e+01  -4.390441e+00
   4.251809e+01  -6.204705e+00
   1.181897e+01   1.630845e+01
  -4.880285e+01   4.325354e+01
  -7.879675e+01   3.820152e+01
  -5.025526e+01  -1.100498e+01
   5.044634e+00  -5.582196e+01
   3.722418e+01  -5.635016e+01
   3.268464e+01  -1.146863e+01
   6.052084e+00   3.286814e+01
  -1.448401e+01   3.364851e+01
  -2.393229e+01  -4.456021e+00
  -1.955055e+01  -3.666004e+01
   5.469098e-01  -2.953721e+01
   2.420408e+01   9.264263e-01
   3.061921e+01   1.842293e+01
   1.469873e+01   7.215640e+00
  -2.572728e+00  -1.279874e+01
  -3.839424e+00  -7.270642e+00
   3.981460e+00   2.066139e+01
   2.271034e+00   3.838860e+01
  -1.680640e+01   1.883116e+01
  -2.839517e+01  -1.998815e+01
  -1.059479e+01  -3.816093e+01
   2.566915e+01  -1.815846e+01
   4.393585e+01   2.061386e+01
   1.459753e+01   3.886970e+01
  -3.904066e+01   2.582588e+01
  -6.459180e+01  -4.347846e+00
  -3.586762e+01  -2.719876e+01
   1.668696e+01  -3.344739e+01
   4.183883e+01  -2.557825e+01
   2.090491e+01  -7.832432e+00
  -1.573777e+01   4.049775e+00
  -2.047379e+01  -3.246163e-02
   1.545261e+01  -1.405220e+01
   5.107709e+01  -1.330043e+01
