
 $NMID
 id='ANONYMOUS ', fmtdat='(2E16.6)'
 volume=1.0
 tramp=1.0
 $END
  -1.359676e+03   1.716985e+01
  -1.069015e+03  -5.817610e+02
  -1.046873e+02  -8.618211e+02
   4.647715e+02  -6.831153e+02
   5.022459e+02  -2.188378e+02
   1.757246e+02   3.834070e+01
  -1.173282e+02  -3.925836e+00
  -3.751860e+01  -2.221000e+02
   1.667862e+02  -2.983865e+02
   2.752831e+02  -6.817704e+01
   1.970573e+02   2.227089e+02
   1.670745e+01   3.128133e+02
  -1.146906e+02   9.365348e+01
  -8.285158e+01  -2.080259e+02
   5.606365e+01  -2.806594e+02
   1.824220e+02  -5.583490e+01
   1.602738e+02   2.368144e+02
  -4.315479e+01   3.365318e+02
  -2.488962e+02   1.752919e+02
  -2.687813e+02  -7.546623e+01
  -8.099525e+01  -2.064290e+02
   6.860390e+01  -1.395674e+02
   4.427308e+01  -3.506334e+01
  -1.231462e+02  -7.153262e+01
  -1.534004e+02  -1.896297e+02
   3.491540e+01  -2.224567e+02
   2.624887e+02  -6.058265e+01
   3.194548e+02   1.308026e+02
   8.230955e+01   1.940160e+02
  -1.907960e+02   8.171704e+01
  -2.590877e+02  -1.113468e+02
  -7.822104e+01  -2.058962e+02
   1.480233e+02  -1.611524e+02
   2.222441e+02  -3.803035e+01
   1.382461e+02   9.532835e+01
   1.644731e+01   1.445273e+02
  -1.274629e+01   6.013362e+01
   5.741392e+01  -6.393911e+01
   1.339136e+02  -4.023088e+01
   8.834324e+01   1.372513e+02
  -7.929966e+01   2.706551e+02
  -1.813678e+02   1.782259e+02
  -1.414326e+02  -4.714834e+01
  -1.322441e+01  -1.460917e+02
   8.575870e+01  -1.668856e+01
   5.187047e+01   1.516456e+02
  -1.114627e+02   1.581909e+02
  -2.505070e+02  -2.019879e+01
  -2.553489e+02  -2.093718e+02
  -6.166848e+01  -2.461098e+02
   1.673935e+02  -1.092158e+02
   2.639179e+02   7.204188e+01
   1.573802e+02   1.442241e+02
  -4.625135e+01   1.032729e+02
  -1.352791e+02   3.331517e+01
  -9.125178e+01   2.463928e+00
  -1.638139e+01   2.244068e+01
  -1.034506e+01   2.542444e+01
  -7.619118e+01  -1.538038e+00
  -1.014317e+02  -3.578292e+01
  -3.735437e+01  -8.819847e+01
   9.095366e+01  -1.242592e+02
   1.881777e+02  -6.909122e+01
   1.555452e+02   8.194516e+01
  -2.550133e+01   2.050901e+02
  -1.978771e+02   2.129416e+02
  -2.270762e+02   5.104193e+01
  -1.201861e+02  -1.184754e+02
   2.939628e+00  -1.897242e+02
   3.348561e+01  -1.391643e+02
   4.838890e+00  -9.613781e+01
   1.749339e+01  -7.887997e+01
   9.243899e+01  -6.637669e+01
   1.556020e+02  -6.431704e+00
   1.265696e+02   9.455998e+01
   2.436731e+01   1.531627e+02
  -7.135399e+01   9.552623e+01
  -1.025547e+02  -3.665762e+01
  -5.403945e+01  -1.424944e+02
   4.662069e+01  -1.329877e+02
   1.436352e+02  -1.648333e+01
   1.590544e+02   1.124077e+02
   7.709073e+01   1.728709e+02
  -2.776831e+01   1.452306e+02
  -7.828619e+01   7.919282e+01
  -7.516052e+01   5.123531e+01
  -8.682037e+01   4.333195e+01
  -1.616533e+02   9.624927e+00
  -2.177622e+02  -7.526642e+01
  -1.572501e+02  -1.788263e+02
   3.602561e+01  -2.435315e+02
   2.356081e+02  -2.010336e+02
   2.799391e+02  -5.975261e+01
   1.454922e+02   7.550928e+01
  -7.103519e+00   1.320508e+02
  -5.434034e+01   7.986354e+01
   8.290912e+00   6.965694e+00
   7.561722e+01  -1.175653e+01
   6.208535e+01   3.600328e+01
  -1.606011e+01   6.645929e+01
  -6.502347e+01   2.663477e+01
  -3.849285e+01  -4.371013e+01
   3.185454e+01  -5.997842e+01
   8.700986e+01   1.504763e+01
   7.190448e+01   1.311090e+02
  -1.303678e+01   1.802475e+02
  -1.334684e+02   1.105356e+02
  -1.984624e+02  -4.095765e+01
  -1.433923e+02  -1.594939e+02
  -1.558111e+01  -1.518025e+02
   8.410428e+01  -6.189990e+01
   7.351781e+01   1.209414e+01
   5.306463e+00   7.585365e+00
  -2.335020e+01  -4.223603e+01
   1.507539e+01  -6.364285e+01
   7.397671e+01  -2.888589e+01
   7.282063e+01   1.970644e+01
   6.682800e+00   2.714872e+01
  -4.899376e+01  -1.611408e+01
  -1.555350e+01  -6.000003e+01
   9.540929e+01  -5.077327e+01
   1.776937e+02   2.463680e+01
   1.361292e+02   1.082920e+02
  -3.764186e+00   1.476219e+02
  -1.306027e+02   1.179008e+02
  -1.455341e+02   3.786986e+01
  -6.312083e+01  -2.760879e+01
   2.101862e+01  -3.634145e+01
   2.590992e+01   8.482778e+00
  -3.805376e+01   3.783949e+01
  -9.723436e+01   6.200820e+00
  -9.097171e+01  -6.187943e+01
  -2.251504e+01  -1.012727e+02
   4.975198e+01  -6.586865e+01
   6.463084e+01  -3.704617e+00
   2.182253e+01   2.230587e+01
  -2.637505e+01  -1.868371e+01
  -1.293788e+01  -6.972016e+01
   6.031830e+01  -6.823827e+01
   1.168080e+02   2.450217e+00
   9.064136e+01   8.322071e+01
  -3.988567e+00   1.148341e+02
  -8.780419e+01   7.180518e+01
  -9.048136e+01  -3.145405e+00
  -2.233821e+01  -5.383574e+01
   3.533283e+01  -4.934221e+01
   3.749681e+01  -9.171381e+00
  -1.759386e+00   1.504632e+01
  -2.606600e+01   4.659844e+00
   1.382278e-01  -1.812997e+01
   4.962498e+01  -5.343805e+00
   6.152154e+01   5.333187e+01
   4.033074e+00   1.038396e+02
  -8.581962e+01   8.415538e+01
  -1.361782e+02  -3.288808e+00
  -1.048418e+02  -9.581818e+01
  -1.541328e+01  -1.250617e+02
   5.757563e+01  -8.253663e+01
   6.859114e+01  -1.569863e+01
   3.913398e+01   2.092850e+01
   1.888226e+01   1.177116e+01
   3.376041e+01  -8.295011e+00
   5.042425e+01  -1.251503e+00
   3.468547e+01   3.586302e+01
  -2.035307e+01   6.209874e+01
  -7.144498e+01   3.816562e+01
  -6.563605e+01  -2.800599e+01
   8.776814e+00  -7.722611e+01
   9.736358e+01  -5.020981e+01
   1.176295e+02   4.667558e+01
   4.128942e+01   1.249474e+02
  -8.124686e+01   1.246910e+02
  -1.532507e+02   4.046992e+01
  -1.308262e+02  -5.355041e+01
  -4.858776e+01  -9.598944e+01
   2.446168e+01  -7.836967e+01
   4.718334e+01  -3.999930e+01
   3.620108e+01  -3.203429e+01
   3.189133e+01  -4.757154e+01
   4.969790e+01  -4.414429e+01
   7.417975e+01   8.234246e+00
   6.222090e+01   8.802452e+01
   5.003296e+00   1.299843e+02
  -6.470860e+01   9.063381e+01
  -9.886950e+01  -2.013124e+00
  -6.905461e+01  -8.007097e+01
   4.685185e+00  -9.297752e+01
   5.307575e+01  -4.078605e+01
   4.031754e+01   1.460101e+01
  -3.695372e+00   3.481711e+01
  -1.959279e+01   2.063234e+01
   1.225602e+01   7.942118e+00
   4.766356e+01   1.125817e+01
   2.868416e+01   2.264414e+01
  -4.108152e+01   2.289161e+01
  -1.011736e+02   3.947123e-01
  -8.242073e+01  -3.707343e+01
   4.097932e+00  -5.880276e+01
   7.935706e+01  -4.235104e+01
   8.410522e+01  -5.616886e-01
   2.257822e+01   3.355168e+01
  -3.588289e+01   2.515172e+01
  -4.601214e+01  -1.057276e+01
  -1.350738e+01  -4.219185e+01
   2.424898e+01  -3.900088e+01
   4.039461e+01  -3.365461e+00
   3.589371e+01   2.755494e+01
   2.493833e+01   2.691156e+01
   2.845017e+01   3.843334e+00
   3.277285e+01   2.278921e+00
   2.300281e+01   3.837990e+01
  -1.947717e+01   8.513861e+01
  -7.328237e+01   8.178217e+01
  -1.042597e+02   2.033975e+01
  -7.396973e+01  -5.563035e+01
  -1.516246e+00  -7.997672e+01
   4.843325e+01  -4.337689e+01
   3.429674e+01   5.118975e+00
  -2.816043e+01   1.073205e+01
  -6.697495e+01  -2.836303e+01
  -3.294366e+01  -6.482160e+01
   4.462009e+01  -6.429556e+01
   1.028310e+02  -1.871463e+01
   8.472596e+01   2.801017e+01
   1.665583e+01   4.866599e+01
  -3.488617e+01   3.132318e+01
  -2.632210e+01  -2.715586e+00
   2.084864e+01  -1.808962e+01
   5.074085e+01   9.723091e+00
   2.328010e+01   6.154722e+01
  -4.094455e+01   8.503623e+01
  -8.665151e+01   4.079240e+01
  -6.877096e+01  -4.846526e+01
  -6.395180e+00  -1.003975e+02
   4.756128e+01  -7.152437e+01
   5.632845e+01   1.004918e+01
   2.419090e+01   6.759425e+01
  -1.555041e+01   5.738349e+01
  -3.345994e+01   6.600271e+00
  -2.364765e+01  -1.985124e+01
  -7.368161e+00  -6.971991e+00
  -5.214341e+00   6.078825e+00
  -1.916758e+01  -1.472094e+01
  -2.982565e+01  -5.321612e+01
  -8.222752e+00  -5.988586e+01
   3.833813e+01  -2.280183e+01
   7.399478e+01   2.371674e+01
   6.350224e+01   4.261309e+01
   6.919805e+00   3.232262e+01
  -4.212127e+01   1.526769e+01
  -4.725449e+01   8.657134e-01
  -9.793933e+00  -7.651319e+00
   1.919753e+01  -1.098837e+01
   1.477130e+01  -3.464826e+00
  -5.126677e+00   5.161345e+00
  -2.104338e+00   3.553473e+00
   3.012807e+01   2.933316e-01
   4.755135e+01   1.236534e+01
   1.436551e+01   4.484508e+01
  -5.441742e+01   6.422341e+01
  -1.022105e+02   3.360790e+01
  -8.176473e+01  -3.229449e+01
  -1.569196e+01  -8.420769e+01
   4.653586e+01  -8.275108e+01
   6.615951e+01  -3.378985e+01
   4.593740e+01   1.109363e+01
   1.436233e+01   2.152209e+01
   3.053942e+00   8.036351e+00
   9.642572e+00   4.632264e+00
   1.694225e+01   2.675156e+01
   1.057524e+01   5.191372e+01
  -1.597215e+01   4.003299e+01
  -4.244336e+01  -7.425010e+00
  -4.497785e+01  -5.467089e+01
  -9.055158e+00  -5.983111e+01
   3.877174e+01  -1.726835e+01
   5.577881e+01   3.541237e+01
   1.995183e+01   5.659720e+01
  -3.837269e+01   3.446695e+01
  -5.965454e+01  -5.957276e+00
  -2.523191e+01  -3.680610e+01
   1.956705e+01  -3.723371e+01
   2.296676e+01  -1.384072e+01
  -1.078278e+01   4.672276e+00
  -3.629777e+01   5.263894e+00
  -1.265412e+01  -1.569522e+01
   4.156497e+01  -3.752661e+01
   7.071965e+01  -2.746891e+01
   4.460742e+01   1.150202e+01
  -6.970770e+00   4.841962e+01
  -3.507103e+01   4.604142e+01
  -2.766926e+01   9.467607e+00
  -3.948032e+00  -2.645549e+01
   1.355936e+01  -2.686395e+01
   2.022500e+01   4.461014e+00
   1.546070e+01   3.121536e+01
  -2.716279e+00   2.562365e+01
  -2.024077e+01  -2.882041e+00
  -2.341357e+01  -1.856842e+01
  -1.044572e+01  -5.662169e+00
   2.058554e+00   1.153327e+01
   1.639829e+00   8.563284e+00
  -5.762018e+00  -1.483069e+01
  -4.745023e+00  -3.011571e+01
   1.285003e+01  -1.644747e+01
   2.302652e+01   1.366229e+01
   8.119147e+00   3.091700e+01
  -2.057095e+01   1.470333e+01
  -3.369308e+01  -1.798615e+01
  -1.005697e+01  -3.249774e+01
   3.237713e+01  -2.095974e+01
   5.144119e+01   3.699877e+00
   2.768126e+01   2.335938e+01
  -1.459397e+01   2.738074e+01
  -3.399941e+01   1.765224e+01
  -1.614271e+01   4.142678e+00
   1.292332e+01  -1.706534e+00
   1.598982e+01   2.477557e+00
  -1.209078e+01   1.135209e+01
  -3.912764e+01   8.493878e+00
