
 $NMID
 id='ANONYMOUS ', fmtdat='(2E16.6)'
 volume=1.0
 tramp=1.0
 $END
  -8.629598e+02   2.987069e+02
  -6.791376e+02  -3.124390e+02
  -1.159863e+02  -4.052820e+02
   2.272541e+02  -2.487271e+02
   1.327427e+02  -9.887905e+01
  -7.830586e+01  -2.735578e+01
  -1.330085e+02  -8.561398e+01
  -1.501001e+01  -1.301329e+02
   9.090719e+01  -8.475742e+01
   1.430291e+02   1.921111e+01
   1.011012e+02   1.255699e+02
   1.271103e+01   1.469460e+02
  -8.531352e+01   4.303926e+01
  -8.498190e+01  -7.253502e+01
   7.295593e+00  -9.744157e+01
   1.047907e+02  -4.106124e+00
   8.606116e+01   1.189744e+02
  -5.140490e+00   1.577884e+02
  -1.073671e+02   1.077513e+02
  -1.126695e+02   1.790792e+01
  -3.973936e+01  -6.605456e+01
   2.375794e+01  -6.800441e+01
   2.720295e+00  -1.376732e+01
  -8.748241e+01   5.260085e+00
  -1.139142e+02  -5.893414e+01
  -1.633135e+01  -1.096113e+02
   1.489697e+02  -7.928802e+01
   2.160763e+02   2.803143e+01
   8.550540e+01   1.126944e+02
  -1.047935e+02   8.961464e+01
  -1.603869e+02  -2.494306e+01
  -5.842769e+01  -1.130035e+02
   7.791960e+01  -1.101631e+02
   1.336162e+02  -2.882155e+01
   1.037561e+02   4.655897e+01
   2.166193e+01   1.059839e+02
  -2.099239e+01   5.699226e+01
  -1.188982e+00  -3.663602e+01
   6.048065e+01  -6.200197e+01
   8.573763e+01   3.690375e+01
   3.905260e+01   1.554566e+02
  -4.824130e+01   1.565058e+02
  -8.276027e+01   2.184598e+01
  -3.515016e+01  -8.716367e+01
   4.462053e+01  -4.581879e+01
   6.891484e+01   7.395420e+01
  -1.382326e+01   1.262234e+02
  -1.077609e+02   5.627634e+01
  -1.143994e+02  -6.600460e+01
  -5.664070e+01  -1.233530e+02
   6.228505e+01  -8.798122e+01
   1.440229e+02  -8.794737e+00
   9.430184e+01   6.098183e+01
  -1.206526e+01   7.104329e+01
  -6.519898e+01   2.552062e+01
  -4.573619e+01  -2.709916e+01
   1.010807e+01  -9.161296e+00
   9.273031e+00   1.723854e+01
  -4.034649e+01   2.679886e+01
  -6.455205e+01  -1.121080e+01
  -2.865923e+01  -5.984672e+01
   3.277181e+01  -7.715890e+01
   7.937295e+01  -5.722130e+01
   8.294365e+01   4.245549e+00
   1.959076e+01   8.574176e+01
  -4.841641e+01   1.245109e+02
  -9.029598e+01   5.761270e+01
  -8.024778e+01  -5.199724e+01
  -2.501509e+01  -1.009015e+02
   1.845925e+00  -6.398104e+01
  -5.743448e+00  -1.889629e+01
  -1.573270e+01  -2.448764e+01
   1.911454e+01  -5.218166e+01
   6.275829e+01  -4.137064e+01
   8.212997e+01   1.574900e+01
   4.400374e+01   6.847148e+01
  -1.775620e+01   5.801508e+01
  -6.510648e+01  -5.760662e+00
  -5.784234e+01  -7.016803e+01
   4.324377e+00  -7.879432e+01
   7.120502e+01  -2.856354e+01
   9.506501e+01   3.589935e+01
   5.186226e+01   6.638330e+01
  -6.383560e+00   4.901060e+01
  -3.334729e+01   2.817251e+01
  -2.584435e+01   1.930341e+01
  -2.483139e+01   2.402245e+01
  -6.626947e+01   2.612015e+01
  -1.140194e+02  -4.616590e+00
  -1.018584e+02  -6.050792e+01
  -1.334201e+01  -1.190199e+02
   8.406707e+01  -1.266448e+02
   1.276738e+02  -6.598710e+01
   8.553052e+01   1.814187e+01
   1.336518e+01   6.602561e+01
  -2.381647e+01   5.381338e+01
  -5.958364e+00   6.116659e+00
   3.462946e+01  -1.647156e+01
   3.860728e+01   4.366147e+00
   1.662641e+00   3.711095e+01
  -3.153739e+01   2.695871e+01
  -2.770798e+01  -1.577635e+01
   1.247957e+01  -4.066373e+01
   4.831935e+01  -5.670076e+00
   4.625432e+01   5.712757e+01
   8.543605e+00   9.219609e+01
  -5.133921e+01   6.943512e+01
  -9.265251e+01   1.048505e+01
  -9.116900e+01  -4.631271e+01
  -4.209802e+01  -6.434668e+01
   1.912854e+01  -4.707514e+01
   3.210533e+01  -7.928797e+00
   6.312144e+00   1.030111e+01
  -2.077323e+01  -1.327300e+01
  -6.543030e+00  -3.389886e+01
   2.761116e+01  -2.571452e+01
   3.031720e+01   1.054318e+01
   1.897236e+00   2.206558e+01
  -3.092809e+01   1.928725e+00
  -1.672202e+01  -2.714764e+01
   3.592388e+01  -3.537818e+01
   8.066225e+01  -7.494961e+00
   7.040798e+01   3.279822e+01
   1.898665e+01   7.229231e+01
  -4.381017e+01   7.630455e+01
  -7.056155e+01   3.830302e+01
  -4.371612e+01  -1.046472e+01
   5.684892e+00  -2.598051e+01
   2.248747e+01   2.625113e+00
  -7.644565e+00   2.985188e+01
  -4.536327e+01   2.222596e+01
  -5.627391e+01  -1.726469e+01
  -2.441824e+01  -4.705838e+01
   1.622778e+01  -3.723290e+01
   3.364240e+01  -5.559309e+00
   1.265308e+01   9.964705e+00
  -1.433093e+01  -2.607953e+00
  -1.485505e+01  -2.726195e+01
   1.707689e+01  -3.606647e+01
   5.405086e+01  -1.449496e+01
   5.522256e+01   2.519947e+01
   1.303298e+01   5.622741e+01
  -3.322523e+01   4.644106e+01
  -4.351317e+01   1.257056e+01
  -1.674133e+01  -1.991302e+01
   1.355648e+01  -2.137848e+01
   1.637889e+01  -4.002998e+00
  -9.235737e-02   9.530409e+00
  -8.120437e+00   5.196329e+00
   1.338806e+00  -5.880881e+00
   2.035005e+01  -3.846883e+00
   3.125400e+01   1.996690e+01
   1.307224e+01   4.620894e+01
  -2.561992e+01   4.741156e+01
  -5.886429e+01   1.681256e+01
  -5.732468e+01  -2.866455e+01
  -2.036519e+01  -5.694714e+01
   1.893290e+01  -4.357405e+01
   3.296268e+01  -1.662523e+01
   2.395331e+01   2.864395e+00
   1.327211e+01   6.360907e+00
   1.432673e+01   3.548147e+00
   1.930969e+01   4.214496e+00
   1.499483e+01   1.272642e+01
  -4.795989e+00   2.459026e+01
  -2.487410e+01   2.128741e+01
  -2.819915e+01  -3.821395e+00
  -4.822836e+00  -3.269777e+01
   3.488947e+01  -3.301151e+01
   5.690102e+01   2.812026e+00
   3.509507e+01   5.084516e+01
  -1.614175e+01   6.474374e+01
  -6.213294e+01   3.697865e+01
  -6.392882e+01  -8.109369e+00
  -3.211271e+01  -3.553528e+01
   6.814853e+00  -3.461770e+01
   1.705412e+01  -2.077520e+01
   6.408248e+00  -1.923903e+01
   6.271589e+00  -2.624183e+01
   1.980313e+01  -2.415513e+01
   3.823388e+01  -2.087782e+00
   3.787247e+01   3.204339e+01
   1.638034e+01   5.552077e+01
  -1.924466e+01   4.628559e+01
  -4.228178e+01   8.289217e+00
  -3.440734e+01  -2.814019e+01
  -6.184369e+00  -4.025088e+01
   1.895876e+01  -2.237282e+01
   2.006353e+01   2.326141e+00
   3.090029e+00   1.656393e+01
  -4.939152e+00   1.280959e+01
   6.900042e+00   1.193141e+00
   1.933568e+01  -2.785219e-01
   1.357919e+01   6.913648e+00
  -1.929091e+01   1.462592e+01
  -5.004629e+01   9.751062e+00
  -4.540811e+01  -8.899379e+00
  -7.051609e+00  -2.704258e+01
   3.413275e+01  -2.632693e+01
   4.043026e+01  -8.076285e+00
   1.447673e+01   1.068406e+01
  -1.343744e+01   1.177714e+01
  -2.191996e+01  -5.271103e-01
  -1.029678e+01  -1.802548e+01
   6.571018e+00  -1.884050e+01
   1.821025e+01  -3.917016e+00
   1.896762e+01   9.959202e+00
   1.295816e+01   8.996750e+00
   1.407676e+01  -2.976557e+00
   1.540108e+01  -2.267252e+00
   1.490247e+01   1.517853e+01
   1.738823e+00   3.902395e+01
  -2.219609e+01   4.353560e+01
  -4.623324e+01   2.055251e+01
  -4.273554e+01  -1.579095e+01
  -1.081515e+01  -3.541340e+01
   1.962515e+01  -2.279183e+01
   1.691513e+01   2.303186e-01
  -1.184526e+01   7.995814e+00
  -3.586484e+01  -2.228175e+00
  -2.349828e+01  -2.229382e+01
   1.527394e+01  -2.924203e+01
   4.949867e+01  -2.001990e+01
   4.274719e+01   4.068893e+00
   1.280807e+01   2.386204e+01
  -1.623098e+01   2.234790e+01
  -1.535732e+01   2.803033e+00
   8.482891e+00  -8.672814e+00
   2.640806e+01   3.248341e+00
   1.843110e+01   3.014267e+01
  -1.183382e+01   4.505739e+01
  -4.013941e+01   2.450042e+01
  -3.986357e+01  -1.957771e+01
  -1.867725e+01  -4.707810e+01
   1.086471e+01  -3.911606e+01
   2.727329e+01  -4.098569e+00
   2.172948e+01   2.612729e+01
   2.192316e-01   2.713149e+01
  -1.253631e+01   6.315008e+00
  -1.332425e+01  -8.886454e+00
  -2.232611e+00  -4.340921e+00
   7.217634e-01   4.703258e+00
  -8.440142e+00  -9.817199e-01
  -2.032055e+01  -1.795101e+01
  -1.056324e+01  -2.661127e+01
   1.583816e+01  -1.510890e+01
   3.613776e+01   6.777558e+00
   3.146530e+01   1.574037e+01
   6.880827e+00   1.220033e+01
  -1.687202e+01   9.069070e+00
  -2.087008e+01   4.980573e+00
  -5.929421e+00   5.400711e-01
   5.855765e+00  -6.456630e+00
   5.153419e+00  -6.058505e+00
  -4.255845e+00   5.404373e-01
  -3.149321e-01   2.241754e+00
   1.586336e+01  -2.950275e+00
   2.557163e+01   1.131471e+00
   9.128099e+00   1.636294e+01
  -2.539310e+01   3.203894e+01
  -4.589078e+01   2.169445e+01
  -3.870049e+01  -7.739068e+00
  -1.255623e+01  -3.969807e+01
   1.320492e+01  -4.254661e+01
   2.266762e+01  -2.282015e+01
   1.771684e+01   7.797778e-01
   9.360161e+00   7.930902e+00
   4.097475e+00   3.673818e+00
   5.802982e+00   2.632149e+00
   8.494380e+00   1.408295e+01
   5.488222e+00   2.552266e+01
  -6.246033e+00   2.070946e+01
  -2.123298e+01   4.416863e-01
  -2.513863e+01  -2.195921e+01
  -7.655348e+00  -2.738127e+01
   1.698477e+01  -1.187392e+01
   2.863313e+01   1.106257e+01
   1.551067e+01   2.267037e+01
  -1.292553e+01   1.913976e+01
  -2.584067e+01   6.568807e+00
  -1.466244e+01  -1.061474e+01
   4.624575e+00  -1.838092e+01
   9.028683e+00  -1.093658e+01
  -3.278006e+00   3.157172e+00
  -1.545977e+01   1.006269e+01
  -5.658564e+00  -3.902452e+00
   1.455017e+01  -2.083309e+01
   2.387588e+01  -2.155984e+01
   1.415934e+01   3.954033e-01
   9.313682e-01   2.125278e+01
  -7.369088e+00   2.196574e+01
  -9.561850e+00   5.142451e+00
  -2.138120e+00  -1.267639e+01
   5.025958e+00  -1.410666e+01
   1.064507e+01   3.177684e+00
   1.038284e+01   1.404149e+01
   6.997143e-01   1.042273e+01
  -8.170611e+00  -2.143356e-01
  -1.077664e+01  -3.750700e+00
  -4.917132e+00   7.143116e-01
   3.574237e+00   5.407565e+00
   4.353581e+00   2.971851e+00
  -1.523490e+00  -7.573546e+00
  -3.857140e+00  -1.357918e+01
   5.652770e+00  -6.380295e+00
   1.189861e+01   5.551842e+00
   4.859166e+00   1.377726e+01
  -8.146301e+00   8.863094e+00
  -1.684050e+01  -4.160458e+00
  -7.010583e+00  -1.369476e+01
   1.196496e+01  -1.433757e+01
   2.341981e+01  -4.468253e+00
   1.518358e+01   7.052793e+00
  -2.879748e+00   1.290593e+01
  -1.294252e+01   1.009288e+01
  -6.795606e+00   3.523810e+00
   5.714551e+00  -1.144066e+00
   6.845151e+00   1.810448e-01
  -5.177877e+00   4.893659e+00
  -1.776214e+01   6.948699e+00
