
 $NMID
 id='ANONYMOUS ', fmtdat='(2E16.6)'
 volume=1.0
 tramp=1.0
 $END
  -2.953867e+03   6.858964e+00
  -1.895801e+03  -1.449149e+03
  -6.313529e+01  -1.617844e+03
   9.265483e+02  -1.165313e+03
   7.122270e+02  -3.467703e+02
   9.860901e+01   2.842741e+01
  -2.160474e+02  -1.131562e+02
   1.726629e+01  -4.098375e+02
   3.725887e+02  -4.500127e+02
   5.244316e+02  -8.645849e+01
   3.810987e+02   3.795191e+02
   4.044882e+01   5.161073e+02
  -2.120142e+02   1.674672e+02
  -1.799768e+02  -3.131068e+02
   1.032329e+02  -4.331222e+02
   3.353193e+02  -8.130536e+01
   2.910155e+02   3.805521e+02
  -3.262377e+01   5.353379e+02
  -3.531172e+02   3.013556e+02
  -4.004594e+02  -5.412170e+01
  -1.533364e+02  -2.702020e+02
   8.599537e+01  -2.343155e+02
   5.392258e+01  -1.020972e+02
  -1.778025e+02  -1.055133e+02
  -2.629831e+02  -2.626454e+02
   2.389172e+01  -3.289986e+02
   4.416326e+02  -1.258591e+02
   5.453813e+02   1.722937e+02
   1.889991e+02   2.944525e+02
  -2.725258e+02   1.519349e+02
  -3.994059e+02  -1.095415e+02
  -1.517318e+02  -2.866306e+02
   2.156282e+02  -3.085536e+02
   3.727845e+02  -1.288854e+02
   2.912811e+02   1.136003e+02
   1.113143e+02   2.673637e+02
   1.298183e+00   1.656574e+02
   5.258785e+01  -8.184781e+01
   1.703407e+02  -1.282729e+02
   1.806736e+02   1.334982e+02
   8.429628e+00   4.657927e+02
  -2.223837e+02   3.828168e+02
  -2.566749e+02  -1.706298e+01
  -8.697051e+01  -2.841338e+02
   1.343127e+02  -1.172422e+02
   1.566461e+02   2.404818e+02
  -8.026683e+01   3.585090e+02
  -3.651269e+02   6.725572e+01
  -4.207608e+02  -3.034349e+02
  -1.684668e+02  -4.364453e+02
   2.300114e+02  -2.596600e+02
   4.521878e+02   1.428508e+01
   3.115166e+02   1.919402e+02
  -9.988544e+00   1.917902e+02
  -2.268064e+02   7.118031e+01
  -1.882231e+02  -1.225488e+01
  -2.025092e+01  -1.152633e+01
   3.258614e+01   2.576669e+01
  -8.139548e+01   3.325174e+01
  -1.843058e+02  -3.684430e+01
  -1.183997e+02  -1.602035e+02
   1.073077e+02  -2.291073e+02
   2.972171e+02  -1.499763e+02
   2.701797e+02   5.666681e+01
   2.559108e+01   2.943203e+02
  -2.406767e+02   3.625112e+02
  -3.397149e+02   1.551381e+02
  -2.309899e+02  -1.413921e+02
  -5.663233e+01  -3.171329e+02
   2.634544e+01  -2.722954e+02
  -8.653167e-01  -1.584510e+02
   1.335915e+01  -1.221239e+02
   1.234736e+02  -1.337373e+02
   2.361515e+02  -6.912150e+01
   2.364371e+02   1.111808e+02
   8.957100e+01   2.401296e+02
  -8.832463e+01   1.697641e+02
  -1.862893e+02  -3.955637e+01
  -1.360425e+02  -2.179347e+02
   4.054064e+01  -2.272862e+02
   2.236614e+02  -6.526362e+01
   2.773194e+02   1.411301e+02
   1.491032e+02   2.456029e+02
  -4.432421e+01   2.273185e+02
  -1.364655e+02   1.452093e+02
  -1.205098e+02   9.358406e+01
  -1.269965e+02   7.928198e+01
  -2.567128e+02   5.222232e+01
  -3.879202e+02  -6.302368e+01
  -3.134017e+02  -2.540153e+02
  -1.315481e+01  -3.949762e+02
   3.182139e+02  -3.793731e+02
   4.147047e+02  -1.808251e+02
   2.595809e+02   8.258234e+01
   1.752864e+01   2.213751e+02
  -8.083863e+01   1.711147e+02
  -7.836585e+00   2.366855e+01
   1.066992e+02  -3.221304e+01
   1.171417e+02   4.456530e+01
   6.230667e+00   1.195196e+02
  -9.302368e+01   8.244738e+01
  -8.883250e+01  -5.093855e+01
   2.622254e+01  -1.101133e+02
   1.429894e+02   5.812983e+00
   1.418993e+02   2.096404e+02
  -6.577883e+00   3.079317e+02
  -2.121769e+02   2.031689e+02
  -3.384350e+02  -3.929920e+01
  -2.712448e+02  -2.361104e+02
  -6.804724e+01  -2.593339e+02
   1.161493e+02  -1.378718e+02
   1.349026e+02  -6.331846e+00
   2.827569e+01   1.663317e+01
  -4.800526e+01  -5.532548e+01
   2.541489e+00  -1.059282e+02
   1.125919e+02  -6.077823e+01
   1.245556e+02   2.980566e+01
   2.415204e+01   5.613159e+01
  -7.675146e+01  -8.108334e+00
  -3.954933e+01  -8.679637e+01
   1.334847e+02  -8.554075e+01
   2.794112e+02   9.003444e+00
   2.473951e+02   1.518085e+02
   3.148065e+01   2.470093e+02
  -1.843955e+02   2.195343e+02
  -2.390421e+02   8.659126e+01
  -1.243846e+02  -4.029243e+01
   2.866921e+01  -6.281886e+01
   6.184496e+01   1.164115e+01
  -4.743280e+01   7.760458e+01
  -1.751533e+02   3.284472e+01
  -1.754618e+02  -9.638397e+01
  -5.354651e+01  -1.682682e+02
   8.027030e+01  -1.234536e+02
   1.133595e+02  -1.105776e+01
   4.064368e+01   3.801424e+01
  -4.752410e+01  -1.722427e+01
  -3.545776e+01  -1.071521e+02
   8.442358e+01  -1.192719e+02
   1.985745e+02  -1.863833e+01
   1.781949e+02   1.190899e+02
   2.037135e+01   1.894290e+02
  -1.342959e+02   1.424104e+02
  -1.554180e+02   2.038178e+01
  -5.172781e+01  -7.547020e+01
   5.342734e+01  -7.928105e+01
   6.240212e+01  -2.369418e+01
  -1.167574e+00   2.383034e+01
  -3.971919e+01   1.019520e+01
   2.961278e+00  -2.628264e+01
   8.696453e+01  -1.271464e+01
   1.122167e+02   7.685699e+01
   2.517219e+01   1.650760e+02
  -1.239500e+02   1.551773e+02
  -2.212953e+02   2.379348e+01
  -1.824969e+02  -1.330682e+02
  -4.383404e+01  -1.991766e+02
   8.148501e+01  -1.452667e+02
   1.126934e+02  -3.576015e+01
   6.868925e+01   3.075237e+01
   3.393107e+01   2.155782e+01
   5.158015e+01  -2.043376e+01
   8.392490e+01  -1.471473e+01
   6.134127e+01   4.877791e+01
  -2.448354e+01   1.059494e+02
  -1.087659e+02   7.749370e+01
  -1.081327e+02  -3.222914e+01
   2.773225e+00  -1.265926e+02
   1.466428e+02  -9.933815e+01
   1.994205e+02   5.221671e+01
   8.955916e+01   1.975875e+02
  -1.066454e+02   2.100481e+02
  -2.424831e+02   8.243553e+01
  -2.275064e+02  -7.443018e+01
  -9.566771e+01  -1.495344e+02
   2.888803e+01  -1.235550e+02
   7.543679e+01  -7.467051e+01
   5.883453e+01  -6.843950e+01
   4.859618e+01  -9.174655e+01
   8.037144e+01  -7.975471e+01
   1.215177e+02   9.540755e+00
   1.141296e+02   1.363343e+02
   3.150449e+01   2.017399e+02
  -8.523240e+01   1.536511e+02
  -1.529122e+02   1.791414e+01
  -1.195915e+02  -1.082837e+02
  -1.416555e+01  -1.403001e+02
   6.981487e+01  -7.877128e+01
   6.269400e+01   1.052570e+01
  -1.268964e+00   5.102580e+01
  -2.566403e+01   3.916720e+01
   2.368993e+01   1.373695e+01
   8.227103e+01   1.447218e+01
   4.849075e+01   3.713489e+01
  -6.726188e+01   4.053742e+01
  -1.585606e+02   5.155561e+00
  -1.343312e+02  -5.403981e+01
  -3.890586e+00  -9.377977e+01
   1.161759e+02  -7.501788e+01
   1.320919e+02  -8.119167e+00
   4.484568e+01   4.813916e+01
  -4.736271e+01   4.272294e+01
  -7.354517e+01  -1.295364e+01
  -2.765056e+01  -6.847614e+01
   3.357660e+01  -6.289156e+01
   6.172424e+01  -6.931884e+00
   5.677387e+01   3.857362e+01
   4.493393e+01   3.118795e+01
   4.928949e+01  -3.731035e+00
   6.091396e+01  -1.074470e+00
   5.020979e+01   6.538905e+01
  -1.010082e+01   1.414263e+02
  -1.095668e+02   1.371582e+02
  -1.673913e+02   3.838544e+01
  -1.286247e+02  -7.880056e+01
  -8.291655e+00  -1.198889e+02
   8.321944e+01  -6.819635e+01
   5.762121e+01   3.324332e+00
  -5.068193e+01   1.568184e+01
  -1.228781e+02  -3.138191e+01
  -6.825257e+01  -8.959346e+01
   7.050906e+01  -9.579584e+01
   1.698592e+02  -4.416507e+01
   1.460036e+02   2.780447e+01
   3.005997e+01   7.393272e+01
  -5.638970e+01   5.530752e+01
  -4.413484e+01   2.748328e-02
   3.645602e+01  -3.151476e+01
   8.618145e+01   1.395246e+01
   4.231170e+01   1.010386e+02
  -5.942767e+01   1.391503e+02
  -1.330923e+02   6.828277e+01
  -1.178129e+02  -7.435985e+01
  -2.484246e+01  -1.718003e+02
   6.684935e+01  -1.337167e+02
   9.936171e+01   4.388122e+00
   5.875380e+01   1.059774e+02
  -7.310816e+00   9.408218e+01
  -4.899285e+01   1.662796e+01
  -4.169916e+01  -2.633373e+01
  -1.374180e+01  -4.433673e+00
  -6.746822e+00   1.710983e+01
  -2.905145e+01  -1.803343e+01
  -5.488902e+01  -7.733819e+01
  -2.975523e+01  -9.309439e+01
   4.697025e+01  -4.235220e+01
   1.189731e+02   2.462761e+01
   1.117190e+02   5.818064e+01
   2.265131e+01   5.097863e+01
  -6.533348e+01   2.747513e+01
  -7.921747e+01   9.170801e+00
  -2.015429e+01  -9.394959e+00
   2.728899e+01  -2.117043e+01
   1.946401e+01  -1.329966e+01
  -1.032874e+01   3.818113e+00
  -1.264458e+00   2.453151e+00
   5.311118e+01  -9.246053e+00
   8.429882e+01   1.114054e+01
   3.185938e+01   7.005676e+01
  -8.050781e+01   1.134271e+02
  -1.582235e+02   7.725580e+01
  -1.423542e+02  -3.905818e+01
  -4.112343e+01  -1.407144e+02
   5.840721e+01  -1.459079e+02
   9.809734e+01  -6.747044e+01
   7.267503e+01   1.402420e+01
   2.686316e+01   3.467377e+01
   6.477367e+00   1.144499e+01
   1.734670e+01   5.035459e+00
   3.299639e+01   4.233401e+01
   2.288227e+01   8.392246e+01
  -2.249742e+01   7.037840e+01
  -7.316413e+01  -6.184267e+00
  -8.103126e+01  -8.299832e+01
  -2.348229e+01  -9.923573e+01
   6.273885e+01  -3.735547e+01
   1.023147e+02   4.674517e+01
   4.766558e+01   8.886506e+01
  -5.140068e+01   6.569382e+01
  -9.652760e+01   3.203271e+00
  -4.870615e+01  -4.902897e+01
   2.596100e+01  -5.771177e+01
   3.814665e+01  -2.807019e+01
  -2.218119e+01   8.263395e+00
  -6.542838e+01   1.226228e+01
  -2.118333e+01  -2.591034e+01
   6.959435e+01  -6.647811e+01
   1.091165e+02  -5.560516e+01
   6.683172e+01   1.069331e+01
  -6.945095e+00   7.552011e+01
  -4.822087e+01   7.858209e+01
  -3.874065e+01   1.807403e+01
  -1.013234e+01  -4.434126e+01
   1.638458e+01  -4.499771e+01
   3.382017e+01   5.519896e+00
   3.293648e+01   4.510028e+01
   5.651290e+00   3.777949e+01
  -3.040494e+01  -3.812712e-01
  -4.328404e+01  -1.978798e+01
  -2.221865e+01  -3.976043e+00
   6.649376e+00   1.954374e+01
   9.473655e+00   1.114538e+01
  -8.029892e+00  -2.529981e+01
  -8.823662e+00  -4.794334e+01
   2.015186e+01  -2.456272e+01
   3.974249e+01   2.498240e+01
   1.803324e+01   5.125180e+01
  -3.309404e+01   2.475619e+01
  -5.921487e+01  -2.358052e+01
  -2.148641e+01  -4.923762e+01
   4.920596e+01  -3.669687e+01
   8.589621e+01   7.996338e-01
   4.902159e+01   3.301907e+01
  -2.268157e+01   4.333484e+01
  -5.728006e+01   3.082012e+01
  -2.663312e+01   9.215362e+00
   2.470561e+01  -4.828691e+00
   3.018121e+01   1.166752e+00
  -1.560620e+01   2.280904e+01
  -6.520103e+01   2.336218e+01
