
 $NMID
 id='ANONYMOUS ', fmtdat='(2E16.6)'
 volume=1.0
 tramp=1.0
 $END
  -4.266215e+03   1.215249e+01
  -2.385182e+03  -2.534361e+03
   6.259920e+02  -2.735605e+03
   1.967466e+03  -9.539118e+02
   9.866663e+02   5.868728e+02
  -5.756989e+02   5.817037e+02
  -8.401563e+02  -4.146531e+02
   3.544251e-01  -1.046697e+03
   8.101265e+02  -7.286035e+02
   9.502597e+02   1.288446e+02
   4.562686e+02   8.898039e+02
  -2.487114e+02   8.976102e+02
  -6.631145e+02   1.137724e+02
  -3.955062e+02  -7.279932e+02
   2.818527e+02  -7.465739e+02
   6.389778e+02   1.376069e+01
   3.080747e+02   7.120544e+02
  -3.027808e+02   6.861938e+02
  -6.096443e+02   1.337130e+02
  -4.326165e+02  -3.598716e+02
  -2.693431e+01  -4.422550e+02
   2.750151e+02  -2.503015e+02
   2.196443e+02   8.498929e+00
  -1.376891e+02   8.645849e+01
  -4.368571e+02  -1.346920e+02
  -1.860047e+02  -4.564960e+02
   4.975299e+02  -4.204123e+02
   8.618090e+02   1.059611e+02
   4.196941e+02   5.864577e+02
  -4.147282e+02   5.144510e+02
  -7.733117e+02  -3.809104e+01
  -3.610785e+02  -5.095459e+02
   3.030625e+02  -5.520904e+02
   5.976647e+02  -2.256788e+02
   4.218557e+02   2.481592e+02
   7.079609e+01   4.851198e+02
  -2.004345e+02   2.762554e+02
  -1.552490e+02  -2.323503e+02
   2.029636e+02  -4.385466e+02
   4.760268e+02   3.842521e+01
   2.453275e+02   6.958991e+02
  -3.286205e+02   7.385346e+02
  -6.044707e+02   2.174672e+01
  -2.497577e+02  -5.601451e+02
   3.252879e+02  -3.418112e+02
   4.121531e+02   3.248349e+02
  -7.435832e+01   5.909989e+02
  -5.613677e+02   1.651422e+02
  -5.796615e+02  -4.077933e+02
  -1.504838e+02  -6.215374e+02
   4.125494e+02  -3.767370e+02
   6.809609e+02   7.769397e+01
   4.068124e+02   4.198591e+02
  -1.468143e+02   3.930137e+02
  -4.488663e+02   5.362107e+01
  -2.529266e+02  -1.958012e+02
   1.248112e+02  -1.075141e+02
   1.657143e+02   1.494704e+02
  -1.568944e+02   2.081115e+02
  -3.552342e+02  -5.562014e+01
  -1.553554e+02  -3.116425e+02
   2.039375e+02  -2.816548e+02
   3.508958e+02  -7.966776e+01
   2.353932e+02   1.060697e+02
   2.184361e+00   2.700877e+02
  -2.284264e+02   3.709797e+02
  -3.798869e+02   2.277475e+02
  -3.157486e+02  -1.543601e+02
  -7.849731e+01  -4.428803e+02
   1.317484e+02  -3.838286e+02
   1.125803e+02  -1.011278e+02
   1.338401e+01   1.615605e+00
   4.658466e+01  -1.109260e+02
   2.160406e+02  -1.478432e+02
   3.065186e+02   5.419704e+01
   1.766865e+02   2.862312e+02
  -7.529101e+01   2.715122e+02
  -2.423327e+02   1.078206e+01
  -2.127855e+02  -2.621458e+02
   1.133810e+01  -3.202565e+02
   2.849780e+02  -1.291778e+02
   3.835693e+02   1.761316e+02
   1.957749e+02   3.666694e+02
  -1.067720e+02   3.099664e+02
  -2.387133e+02   1.195255e+02
  -1.581767e+02   4.638733e+00
  -9.995795e+01   3.894798e+01
  -2.375163e+02   6.877080e+01
  -4.172429e+02  -5.556124e+01
  -3.589107e+02  -2.936835e+02
  -1.490461e+01  -4.635046e+02
   3.717394e+02  -4.378532e+02
   5.202506e+02  -2.208586e+02
   3.638259e+02   1.035650e+02
   6.041503e+01   3.124270e+02
  -1.454395e+02   2.635310e+02
  -9.625470e+01   2.297193e+01
   1.056235e+02  -1.187590e+02
   2.107745e+02   7.234063e+00
   5.848708e+01   2.114515e+02
  -1.642305e+02   1.840257e+02
  -1.899177e+02  -6.562683e+01
   1.640273e+01  -2.062227e+02
   2.048576e+02  -3.704256e+01
   1.736115e+02   2.636454e+02
  -3.463090e+01   3.707008e+02
  -2.483674e+02   2.086775e+02
  -3.460605e+02  -6.477424e+01
  -2.922625e+02  -2.555914e+02
  -9.585463e+01  -2.854115e+02
   1.191224e+02  -1.703814e+02
   1.798466e+02  -1.372944e+01
   5.452762e+01   3.806997e+01
  -7.719552e+01  -3.999719e+01
  -3.393782e+01  -1.335484e+02
   1.248125e+02  -1.062562e+02
   1.821657e+02   1.210106e+01
   5.759317e+01   8.250503e+01
  -8.644485e+01   2.280850e+01
  -6.429909e+01  -7.467417e+01
   1.186276e+02  -9.697702e+01
   2.852554e+02  -1.181109e+01
   2.762409e+02   1.411195e+02
   7.335100e+01   2.744659e+02
  -1.857035e+02   2.847208e+02
  -3.036222e+02   1.353700e+02
  -1.854447e+02  -6.078596e+01
   2.301156e+01  -1.140172e+02
   9.351787e+01  -5.117706e-01
  -3.533455e+01   1.116170e+02
  -2.027465e+02   6.126437e+01
  -2.202804e+02  -1.111787e+02
  -7.049803e+01  -2.182478e+02
   9.816223e+01  -1.627637e+02
   1.450504e+02  -2.801378e+01
   6.825891e+01   5.004248e+01
  -3.645046e+01   9.352683e+00
  -4.426290e+01  -8.639715e+01
   7.254392e+01  -1.223126e+02
   2.046763e+02  -3.474674e+01
   2.000298e+02   1.282058e+02
   2.553876e+01   2.296578e+02
  -1.718840e+02   1.708280e+02
  -2.047119e+02   5.567666e+00
  -7.230453e+01  -1.203337e+02
   6.889348e+01  -1.127241e+02
   9.285838e+01  -2.534382e+01
   2.211601e+01   3.295334e+01
  -2.768608e+01   2.189786e+01
   3.514309e+00  -1.124707e+01
   7.106173e+01   3.497264e-01
   9.810136e+01   7.888060e+01
   2.351241e+01   1.647607e+02
  -1.266199e+02   1.640379e+02
  -2.414239e+02   3.142840e+01
  -2.111886e+02  -1.519090e+02
  -4.663960e+01  -2.446390e+02
   1.088373e+02  -1.762229e+02
   1.401700e+02  -2.801950e+01
   7.570189e+01   5.594858e+01
   2.947253e+01   3.367442e+01
   5.509999e+01  -1.568889e+01
   8.351189e+01  -8.532236e+00
   4.829180e+01   5.223963e+01
  -3.958288e+01   9.438034e+01
  -1.079835e+02   6.056778e+01
  -9.579380e+01  -3.611713e+01
   7.731640e+00  -1.197126e+02
   1.479693e+02  -9.754337e+01
   2.127294e+02   4.722413e+01
   1.138034e+02   2.088853e+02
  -1.048606e+02   2.458068e+02
  -2.729891e+02   1.048345e+02
  -2.646001e+02  -8.655205e+01
  -1.150355e+02  -1.835714e+02
   3.618981e+01  -1.531913e+02
   9.241233e+01  -8.707131e+01
   7.477459e+01  -7.387319e+01
   6.548784e+01  -9.608604e+01
   9.513125e+01  -7.951821e+01
   1.342716e+02   1.799521e+01
   1.252101e+02   1.559212e+02
   3.492298e+01   2.333807e+02
  -1.018374e+02   1.812413e+02
  -1.829444e+02   2.481031e+01
  -1.455819e+02  -1.235065e+02
  -2.425353e+01  -1.709840e+02
   6.998408e+01  -9.915591e+01
   6.608776e+01  -9.354137e-01
   8.014963e+00   4.457664e+01
  -9.820783e+00   3.577652e+01
   3.905506e+01   1.983955e+01
   8.098439e+01   2.471361e+01
   4.479688e+01   3.998850e+01
  -6.569182e+01   4.079360e+01
  -1.588083e+02   1.080217e+01
  -1.466274e+02  -4.449700e+01
  -1.750448e+01  -8.913034e+01
   1.206231e+02  -8.026802e+01
   1.440065e+02  -2.115329e+01
   5.032278e+01   3.913752e+01
  -5.876932e+01   4.357108e+01
  -7.859271e+01  -1.710477e+01
  -1.276618e+01  -7.100526e+01
   5.228214e+01  -6.027998e+01
   6.495025e+01   1.320810e+00
   4.857021e+01   4.866354e+01
   4.690062e+01   3.725919e+01
   5.982628e+01  -3.246661e+00
   6.948691e+01  -4.717932e+00
   4.164668e+01   6.810073e+01
  -2.526463e+01   1.538776e+02
  -1.176335e+02   1.513296e+02
  -1.724342e+02   3.997744e+01
  -1.314835e+02  -8.998055e+01
  -1.076537e+01  -1.296916e+02
   8.768270e+01  -6.477480e+01
   6.416216e+01   1.538860e+01
  -5.555391e+01   2.196668e+01
  -1.383530e+02  -4.532568e+01
  -8.256397e+01  -1.109308e+02
   7.570660e+01  -1.160915e+02
   1.920435e+02  -6.019046e+01
   1.693272e+02   3.049672e+01
   4.367444e+01   8.946369e+01
  -6.075422e+01   7.380188e+01
  -5.334678e+01   6.410809e+00
   3.883353e+01  -2.902388e+01
   9.433018e+01   2.187997e+01
   3.888349e+01   1.238178e+02
  -8.845706e+01   1.600202e+02
  -1.680288e+02   6.764688e+01
  -1.304214e+02  -1.023150e+02
  -1.032819e+01  -2.025700e+02
   9.056412e+01  -1.462002e+02
   1.110068e+02   1.032966e+01
   6.424767e+01   1.235806e+02
  -3.305375e+00   1.114466e+02
  -4.871089e+01   2.390292e+01
  -5.354846e+01  -2.991373e+01
  -2.463950e+01  -9.387821e+00
  -5.070812e+00   2.075263e+01
  -2.746175e+01  -1.175807e+01
  -6.400225e+01  -8.684984e+01
  -4.366480e+01  -1.130530e+02
   5.137412e+01  -4.973435e+01
   1.440565e+02   3.523292e+01
   1.332813e+02   7.124681e+01
   2.032423e+01   5.737321e+01
  -8.916621e+01   2.771878e+01
  -8.930412e+01   7.163358e+00
  -1.215041e+01  -1.105488e+01
   3.940936e+01  -2.332659e+01
   1.630440e+01  -1.687499e+01
  -1.883130e+01   3.358369e+00
   5.144973e+00   8.246300e+00
   7.412101e+01   3.754494e+00
   9.269036e+01   2.408701e+01
   1.085298e+01   8.272810e+01
  -1.192297e+02   1.182031e+02
  -1.921676e+02   6.667898e+01
  -1.494207e+02  -6.609785e+01
  -2.899850e+01  -1.676628e+02
   8.100104e+01  -1.589393e+02
   1.157285e+02  -6.489360e+01
   8.244125e+01   2.264597e+01
   2.531130e+01   3.985522e+01
  -2.254181e+00   9.483386e+00
   1.114311e+01   4.678580e-01
   3.566663e+01   4.567297e+01
   2.522736e+01   9.229095e+01
  -2.899220e+01   7.612348e+01
  -8.428239e+01  -1.500714e+01
  -8.148439e+01  -1.076250e+02
  -7.421600e+00  -1.145400e+02
   8.345603e+01  -2.764883e+01
   1.080346e+02   7.470232e+01
   3.488904e+01   1.074014e+02
  -7.042121e+01   6.217099e+01
  -1.011873e+02  -8.838818e+00
  -4.100418e+01  -5.503698e+01
   3.130847e+01  -5.544556e+01
   3.136207e+01  -2.780394e+01
  -3.307382e+01   1.541809e+00
  -6.674918e+01   4.258981e+00
  -1.459076e+01  -2.864127e+01
   7.556390e+01  -6.860906e+01
   1.144212e+02  -5.951447e+01
   6.751425e+01   1.562775e+01
  -1.237341e+01   8.468832e+01
  -5.382946e+01   8.038803e+01
  -3.991803e+01   5.298463e+00
  -2.513762e+00  -5.716966e+01
   2.648068e+01  -4.166762e+01
   3.807306e+01   1.975610e+01
   2.652217e+01   5.555213e+01
  -3.923134e+00   3.382313e+01
  -3.584746e+01  -8.676696e+00
  -4.287020e+01  -2.260325e+01
  -2.053863e+01  -2.513379e+00
   2.616149e+00   1.528307e+01
   8.348911e+00  -1.659676e+00
   3.329379e+00  -3.681203e+01
   1.222094e+01  -4.541264e+01
   3.197944e+01  -9.968895e+00
   3.225363e+01   4.384513e+01
   1.221145e+00   6.127938e+01
  -4.460312e+01   2.132662e+01
  -5.943767e+01  -4.022263e+01
  -1.662603e+01  -6.376015e+01
   5.744350e+01  -3.622529e+01
   9.275230e+01   1.291769e+01
   5.099645e+01   4.383650e+01
  -2.673461e+01   4.323550e+01
  -6.420669e+01   2.340361e+01
  -2.521216e+01   4.323710e+00
   3.571387e+01   6.721242e-01
   3.657479e+01   1.701474e+01
  -3.176994e+01   3.472096e+01
  -9.164079e+01   1.889083e+01
