
 $NMID
 id='ANONYMOUS ', fmtdat='(2E16.6)'
 volume=1.0
 tramp=1.0
 $END
   2.862079e+03   5.711794e+02
   1.851614e+03   1.541361e+03
   1.554888e+02   1.976635e+03
  -1.093712e+03   1.413017e+03
  -9.597800e+02   5.137012e+02
  -2.657995e+02  -6.528414e+01
   1.606231e+02  -2.902863e+01
   4.073141e+01   3.751671e+02
  -4.139846e+02   5.365011e+02
  -6.326225e+02   1.524871e+02
  -4.650515e+02  -4.423578e+02
  -7.439233e+01  -6.066976e+02
   2.104506e+02  -2.198100e+02
   1.901385e+02   3.414063e+02
  -8.823648e+01   5.036093e+02
  -3.643719e+02   1.191670e+02
  -3.307654e+02  -4.249251e+02
   4.464207e+01  -6.220207e+02
   4.288264e+02  -3.411230e+02
   4.667087e+02   1.138807e+02
   1.711586e+02   3.481371e+02
  -9.850795e+01   2.551474e+02
  -5.252766e+01   9.047473e+01
   2.171987e+02   1.294285e+02
   2.662713e+02   3.373725e+02
  -7.049830e+01   3.812731e+02
  -4.870013e+02   9.587825e+01
  -5.656294e+02  -2.279750e+02
  -1.732518e+02  -3.289613e+02
   3.101310e+02  -1.281657e+02
   4.438838e+02   1.633088e+02
   1.552623e+02   3.420064e+02
  -2.537437e+02   3.207547e+02
  -4.381633e+02   1.194587e+02
  -3.178279e+02  -1.437925e+02
  -9.657037e+01  -2.728777e+02
  -1.678996e+01  -1.465831e+02
  -1.153392e+02   7.971946e+01
  -2.118719e+02   9.050819e+01
  -1.468997e+02  -1.873633e+02
   7.348255e+01  -4.849024e+02
   2.504232e+02  -3.754886e+02
   2.522471e+02   3.383618e+01
   7.568557e+01   2.793001e+02
  -1.065002e+02   9.618528e+01
  -9.998557e+01  -2.631959e+02
   1.285346e+02  -3.460587e+02
   4.258810e+02  -1.306328e+01
   4.687939e+02   4.120385e+02
   1.668431e+02   5.007924e+02
  -2.797122e+02   2.613789e+02
  -5.106637e+02  -4.770953e+01
  -3.507183e+02  -1.902458e+02
   8.138245e-01  -1.781719e+02
   2.498746e+02  -7.995468e+01
   2.255330e+02  -1.718656e+01
   4.236548e+01  -7.001451e+00
  -2.676927e+01  -1.859351e+01
   7.824274e+01  -2.736537e+01
   2.042330e+02   3.166459e+01
   1.458150e+02   1.673838e+02
  -1.182421e+02   2.643300e+02
  -3.474483e+02   1.845606e+02
  -3.174712e+02  -7.996986e+01
  -9.323840e+00  -3.608569e+02
   3.110403e+02  -4.110488e+02
   3.974127e+02  -1.672169e+02
   2.481492e+02   1.780050e+02
   4.827525e+01   3.526801e+02
  -1.968440e+01   3.125137e+02
   1.514921e+00   1.972196e+02
  -2.417227e+01   1.479407e+02
  -1.619924e+02   1.389260e+02
  -2.771948e+02   4.326512e+01
  -2.444777e+02  -1.475657e+02
  -7.875927e+01  -2.738325e+02
   1.118831e+02  -1.902723e+02
   2.015397e+02   5.721959e+01
   1.399900e+02   2.628696e+02
  -5.628249e+01   2.565819e+02
  -2.565287e+02   5.235323e+01
  -3.076635e+02  -1.803062e+02
  -1.631197e+02  -2.955921e+02
   5.253857e+01  -2.625864e+02
   1.565878e+02  -1.705178e+02
   1.463975e+02  -1.149252e+02
   1.665611e+02  -9.933124e+01
   3.061986e+02  -4.405595e+01
   4.454633e+02   1.054754e+02
   3.433896e+02   3.105768e+02
  -1.237243e+01   4.620305e+02
  -3.863428e+02   4.194534e+02
  -4.877554e+02   1.884766e+02
  -2.920308e+02  -1.044602e+02
  -1.641076e+01  -2.509401e+02
   9.064323e+01  -1.807792e+02
  -7.123689e+00  -3.245206e+01
  -1.252772e+02   2.490806e+01
  -1.166898e+02  -5.627317e+01
   4.079582e+00  -1.394572e+02
   1.068162e+02  -9.732324e+01
   9.305986e+01   5.317472e+01
  -3.484138e+01   1.177491e+02
  -1.590148e+02  -1.141510e+01
  -1.571016e+02  -2.411412e+02
   9.738781e+00  -3.576158e+02
   2.528677e+02  -2.358683e+02
   3.990368e+02   5.639650e+01
   3.092486e+02   2.895148e+02
   5.224187e+01   3.010364e+02
  -1.563776e+02   1.403997e+02
  -1.624160e+02  -6.568746e+00
  -2.643817e+01  -1.652049e+01
   5.438073e+01   7.266411e+01
  -1.383589e+01   1.183787e+02
  -1.367400e+02   5.567493e+01
  -1.454144e+02  -4.391484e+01
  -2.181574e+01  -6.359002e+01
   9.496246e+01   1.719574e+01
   4.037596e+01   1.132678e+02
  -1.645020e+02   1.100674e+02
  -3.314659e+02  -2.029112e+01
  -2.742249e+02  -1.943587e+02
  -2.066742e+01  -2.891633e+02
   2.217581e+02  -2.375328e+02
   2.711463e+02  -8.379269e+01
   1.302950e+02   5.127825e+01
  -3.587613e+01   6.670256e+01
  -6.134559e+01  -1.901492e+01
   6.417763e+01  -8.211416e+01
   1.944159e+02  -2.224546e+01
   1.865292e+02   1.165328e+02
   5.280424e+01   1.929773e+02
  -9.531261e+01   1.339415e+02
  -1.278358e+02   6.211369e+00
  -4.014822e+01  -4.514348e+01
   5.631454e+01   2.768028e+01
   3.258864e+01   1.320778e+02
  -1.112269e+02   1.387979e+02
  -2.328837e+02   9.922744e+00
  -1.938996e+02  -1.516130e+02
  -9.479225e+00  -2.218858e+02
   1.608128e+02  -1.541597e+02
   1.769094e+02  -9.105009e+00
   5.166663e+01   9.599672e+01
  -7.086263e+01   9.545989e+01
  -7.492631e+01   2.259477e+01
   5.114964e+00  -3.001063e+01
   5.089306e+01  -7.921094e+00
  -5.178800e+00   3.842802e+01
  -1.010988e+02   1.249983e+01
  -1.271279e+02  -9.713744e+01
  -1.922517e+01  -1.974161e+02
   1.602638e+02  -1.678473e+02
   2.632970e+02  -4.174755e+00
   2.041955e+02   1.751950e+02
   3.576660e+01   2.399904e+02
  -1.067029e+02   1.646768e+02
  -1.318322e+02   3.384359e+01
  -7.764103e+01  -3.908849e+01
  -3.408415e+01  -2.577490e+01
  -5.684410e+01   1.922529e+01
  -9.806870e+01   1.103875e+01
  -7.051162e+01  -6.173352e+01
   3.697782e+01  -1.228639e+02
   1.409824e+02  -8.329793e+01
   1.306794e+02   4.886470e+01
  -1.428941e+01   1.513985e+02
  -1.832166e+02   1.074416e+02
  -2.283774e+02  -6.937332e+01
  -8.747714e+01  -2.348123e+02
   1.400195e+02  -2.377007e+02
   2.813253e+02  -7.800803e+01
   2.503728e+02   1.042100e+02
   1.028668e+02   1.811886e+02
  -3.480680e+01   1.436073e+02
  -8.656951e+01   8.374048e+01
  -6.953206e+01   7.247269e+01
  -5.794685e+01   1.032206e+02
  -9.482483e+01   9.313275e+01
  -1.430792e+02  -8.883456e+00
  -1.370411e+02  -1.590594e+02
  -3.782325e+01  -2.431575e+02
   1.044492e+02  -1.811915e+02
   1.838352e+02  -1.274324e+01
   1.359984e+02   1.347190e+02
   1.003772e+01   1.648065e+02
  -8.688200e+01   8.247563e+01
  -7.344429e+01  -2.149788e+01
   4.789495e+00  -6.436972e+01
   3.766485e+01  -4.133600e+01
  -1.865538e+01  -9.793283e+00
  -8.730770e+01  -1.400013e+01
  -5.503756e+01  -4.437630e+01
   7.943544e+01  -4.739125e+01
   1.885442e+02   1.065463e+00
   1.513619e+02   7.601437e+01
  -5.937264e+00   1.141693e+02
  -1.453850e+02   8.127607e+01
  -1.540190e+02  -1.505506e+00
  -4.739184e+01  -6.241581e+01
   6.205850e+01  -5.098145e+01
   8.583293e+01   1.677703e+01
   2.746282e+01   8.048580e+01
  -4.306873e+01   7.455579e+01
  -7.566648e+01   8.623911e+00
  -6.890374e+01  -5.012619e+01
  -5.253640e+01  -4.596370e+01
  -5.571863e+01  -3.157057e+00
  -6.753734e+01  -3.327824e+00
  -5.244333e+01  -7.859971e+01
   2.085283e+01  -1.643412e+02
   1.312356e+02  -1.584306e+02
   1.963803e+02  -4.108650e+01
   1.456510e+02   9.923697e+01
   3.469586e+00   1.429677e+02
  -1.004347e+02   7.751080e+01
  -6.926322e+01  -8.479417e+00
   6.183231e+01  -2.422661e+01
   1.437312e+02   4.086780e+01
   7.308801e+01   1.125452e+02
  -9.505795e+01   1.179052e+02
  -2.000158e+02   4.702506e+01
  -1.640554e+02  -4.364710e+01
  -2.844737e+01  -9.029995e+01
   7.012690e+01  -6.123525e+01
   4.948290e+01   4.930008e+00
  -4.637500e+01   3.832024e+01
  -1.015532e+02  -1.648779e+01
  -4.888342e+01  -1.182533e+02
   7.247791e+01  -1.659854e+02
   1.564147e+02  -8.157252e+01
   1.345460e+02   8.769997e+01
   2.280840e+01   1.994435e+02
  -8.465280e+01   1.492163e+02
  -1.131608e+02  -1.232943e+01
  -5.800313e+01  -1.273640e+02
   1.532704e+01  -1.052803e+02
   5.428450e+01  -1.297609e+01
   4.191224e+01   3.186690e+01
   1.379784e+01   6.021763e+00
   1.000670e+01  -2.111105e+01
   4.130361e+01   1.988217e+01
   6.456972e+01   9.257348e+01
   3.266669e+01   1.138965e+02
  -6.145303e+01   5.613025e+01
  -1.460554e+02  -2.750838e+01
  -1.334943e+02  -7.231081e+01
  -2.483300e+01  -6.253852e+01
   7.894701e+01  -3.259259e+01
   9.016096e+01  -4.573450e+00
   2.400776e+01   1.330767e+01
  -3.418172e+01   2.269474e+01
  -2.427067e+01   1.276305e+01
   1.091294e+01  -2.683511e+00
  -1.940163e+00  -1.425161e+00
  -6.645208e+01   5.700363e+00
  -9.999267e+01  -1.900954e+01
  -3.598165e+01  -8.630777e+01
   9.643167e+01  -1.340439e+02
   1.930779e+02  -8.692949e+01
   1.698826e+02   4.953834e+01
   4.832862e+01   1.681283e+02
  -7.396292e+01   1.730275e+02
  -1.201148e+02   7.579933e+01
  -8.737560e+01  -2.037117e+01
  -3.114817e+01  -4.120679e+01
  -5.657252e+00  -1.345322e+01
  -1.617587e+01  -7.769651e+00
  -3.376192e+01  -5.221367e+01
  -1.958508e+01  -9.776385e+01
   2.835792e+01  -7.776273e+01
   8.186440e+01   1.221451e+01
   8.882344e+01   1.038999e+02
   2.073063e+01   1.167625e+02
  -7.498736e+01   4.013946e+01
  -1.141052e+02  -6.235691e+01
  -5.046551e+01  -1.087409e+02
   6.239074e+01  -7.554059e+01
   1.120485e+02   2.662149e+00
   5.772124e+01   6.371502e+01
  -2.935493e+01   6.951424e+01
  -4.551859e+01   3.170793e+01
   2.217440e+01  -8.270932e+00
   7.367529e+01  -9.180633e+00
   2.489794e+01   3.164071e+01
  -8.092672e+01   7.073871e+01
  -1.313412e+02   5.687347e+01
  -8.253051e+01  -1.934694e+01
   1.014910e+01  -9.085865e+01
   6.595086e+01  -8.906090e+01
   5.338748e+01  -1.750960e+01
   1.265650e+01   5.573596e+01
  -2.339556e+01   5.477713e+01
  -3.953502e+01  -5.769480e+00
  -3.253525e+01  -5.564092e+01
  -9.626829e-01  -4.481445e+01
   3.610146e+01   3.248622e+00
   4.559108e+01   2.879083e+01
   2.093159e+01   6.909062e+00
  -7.667224e+00  -2.491481e+01
  -7.463561e+00  -1.597814e+01
   1.124524e+01   2.940744e+01
   1.047764e+01   5.719628e+01
  -2.355646e+01   3.194349e+01
  -4.868033e+01  -2.692839e+01
  -2.300205e+01  -6.058772e+01
   3.911524e+01  -3.039715e+01
   7.148034e+01   2.885399e+01
   2.483337e+01   6.127833e+01
  -5.919847e+01   4.319841e+01
  -1.002885e+02  -4.365453e+00
  -5.687355e+01  -4.336665e+01
   2.607001e+01  -5.203324e+01
   6.789490e+01  -3.479152e+01
   3.309366e+01  -9.606684e+00
  -2.581780e+01   5.278453e+00
  -3.304228e+01  -2.310727e+00
   2.129431e+01  -2.503918e+01
   7.671358e+01  -2.561969e+01
