
 $NMID
 id='ANONYMOUS ', fmtdat='(2E16.6)'
 volume=1.0
 tramp=1.0
 $END
  -2.917085e+03   2.654671e+02
  -1.929028e+03  -1.446071e+03
   4.964232e+01  -1.913922e+03
   1.347740e+03  -1.142253e+03
   9.294104e+02  -6.677351e+01
  -7.065391e+01   2.893092e+02
  -4.654601e+02  -1.414046e+02
  -6.447808e+01  -6.475551e+02
   4.864216e+02  -6.497023e+02
   6.395914e+02  -8.517112e+01
   4.112811e+02   5.250179e+02
  -3.238588e+01   6.298536e+02
  -3.352068e+02   1.445149e+02
  -2.528470e+02  -4.466428e+02
   1.135779e+02  -5.627349e+02
   3.964159e+02  -7.197028e+01
   2.738521e+02   4.816621e+02
  -1.395381e+02   5.999630e+02
  -4.824805e+02   2.207595e+02
  -4.329669e+02  -2.189555e+02
  -8.704398e+01  -3.706601e+02
   1.620035e+02  -2.291250e+02
   8.488898e+01  -4.980953e+01
  -1.687287e+02  -8.343012e+01
  -2.676758e+02  -2.725014e+02
   7.740976e+00  -3.573087e+02
   4.397458e+02  -1.415826e+02
   5.797198e+02   2.157332e+02
   2.077707e+02   3.741839e+02
  -3.283186e+02   2.094533e+02
  -4.909566e+02  -1.319481e+02
  -1.850987e+02  -3.662604e+02
   2.564028e+02  -3.448327e+02
   4.315556e+02  -1.122067e+02
   3.039841e+02   1.729223e+02
   6.769582e+01   3.204928e+02
  -6.663795e+01   1.782457e+02
   1.126967e+01  -9.783084e+01
   1.715838e+02  -1.657528e+02
   1.853117e+02   1.415166e+02
   3.577668e+00   4.811386e+02
  -2.494178e+02   4.218059e+02
  -3.357505e+02  -6.972612e+00
  -1.296316e+02  -3.046894e+02
   1.554543e+02  -1.405904e+02
   1.708017e+02   2.638306e+02
  -1.361176e+02   3.674312e+02
  -4.336335e+02   4.676535e+01
  -4.580948e+02  -3.615488e+02
  -1.261740e+02  -4.659866e+02
   2.994604e+02  -2.449524e+02
   4.820275e+02   7.624749e+01
   3.071334e+02   2.550106e+02
  -5.855059e+01   2.289444e+02
  -2.935303e+02   1.000551e+02
  -2.166870e+02  -2.040601e+01
  -2.930419e+00  -2.934558e+01
   5.053651e+01   3.647156e+01
  -9.789615e+01   6.204151e+01
  -2.212740e+02  -4.569232e+01
  -1.104774e+02  -1.920021e+02
   1.657608e+02  -2.276668e+02
   3.434904e+02  -1.039044e+02
   2.345085e+02   1.183229e+02
  -5.214126e+01   3.116422e+02
  -2.909512e+02   3.387527e+02
  -3.459508e+02   1.402405e+02
  -2.179725e+02  -1.572974e+02
  -4.284820e+01  -3.361633e+02
   2.773596e+01  -2.850894e+02
   2.138067e+01  -1.617326e+02
   4.054672e+01  -9.751503e+01
   1.408038e+02  -9.911428e+01
   2.381964e+02  -3.524558e+01
   2.232944e+02   1.285932e+02
   7.241845e+01   2.514908e+02
  -1.002322e+02   1.808698e+02
  -1.783253e+02  -4.456733e+01
  -1.173299e+02  -2.336361e+02
   5.637286e+01  -2.330199e+02
   2.322129e+02  -4.552355e+01
   2.794030e+02   1.850074e+02
   1.446816e+02   2.975625e+02
  -4.958860e+01   2.578348e+02
  -1.600312e+02   1.446544e+02
  -1.450227e+02   6.562548e+01
  -1.432565e+02   5.692175e+01
  -2.590692e+02   3.035605e+01
  -3.790462e+02  -1.014391e+02
  -2.829874e+02  -2.974175e+02
   5.654477e+01  -4.176576e+02
   3.874071e+02  -3.556379e+02
   4.649792e+02  -1.348863e+02
   2.680590e+02   1.099548e+02
   1.779827e+01   2.455159e+02
  -9.169989e+01   1.839881e+02
  -2.195089e+01   4.010332e+01
   1.045588e+02  -3.443463e+01
   1.220980e+02   3.538801e+01
   8.413521e+00   1.321035e+02
  -1.040097e+02   8.855028e+01
  -1.027678e+02  -5.528669e+01
   2.781431e+01  -1.256344e+02
   1.572508e+02  -4.900209e-01
   1.417196e+02   2.261851e+02
  -3.098595e+01   3.227706e+02
  -2.415828e+02   1.866609e+02
  -3.383970e+02  -7.458320e+01
  -2.460059e+02  -2.577282e+02
  -3.863784e+01  -2.589694e+02
   1.316437e+02  -1.243459e+02
   1.393031e+02  -3.975777e-01
   3.273434e+01   1.546854e+01
  -4.613466e+01  -5.879047e+01
   6.934784e+00  -1.065315e+02
   1.206170e+02  -6.311385e+01
   1.377809e+02   2.381977e+01
   2.748973e+01   5.157405e+01
  -7.569373e+01  -1.345054e+01
  -3.013839e+01  -9.125988e+01
   1.469902e+02  -8.096706e+01
   2.853621e+02   3.242547e+01
   2.294869e+02   1.674305e+02
   9.514868e+00   2.468332e+02
  -2.058906e+02   2.134582e+02
  -2.511849e+02   8.231780e+01
  -1.241458e+02  -5.222415e+01
   3.308629e+01  -7.814929e+01
   5.790342e+01   7.181864e+00
  -5.584451e+01   7.640622e+01
  -1.797905e+02   2.759402e+01
  -1.733239e+02  -1.085137e+02
  -4.387435e+01  -1.869949e+02
   9.018596e+01  -1.292406e+02
   1.195879e+02  -9.782427e+00
   4.110582e+01   4.090956e+01
  -4.065798e+01  -2.255723e+01
  -2.006929e+01  -1.121916e+02
   1.017189e+02  -1.117208e+02
   2.059759e+02  -2.588606e+00
   1.677901e+02   1.392934e+02
  -3.284473e+00   2.027998e+02
  -1.586813e+02   1.373786e+02
  -1.688464e+02   1.280906e+00
  -4.862186e+01  -9.636361e+01
   6.140765e+01  -9.091723e+01
   6.596436e+01  -2.086333e+01
  -1.490207e+00   2.334353e+01
  -3.713900e+01   5.750583e+00
   9.325939e+00  -2.634958e+01
   8.492628e+01   3.248645e-01
   9.377859e+01   9.353368e+01
  -4.378301e-01   1.702628e+02
  -1.446288e+02   1.396391e+02
  -2.288677e+02  -5.715848e+00
  -1.766498e+02  -1.665300e+02
  -2.228334e+01  -2.243489e+02
   1.089463e+02  -1.493537e+02
   1.313997e+02  -2.126606e+01
   7.308964e+01   5.143256e+01
   3.077284e+01   3.373247e+01
   4.700225e+01  -5.639384e+00
   7.663720e+01   3.097563e+00
   4.597224e+01   5.818248e+01
  -4.647442e+01   9.770708e+01
  -1.219656e+02   5.588673e+01
  -9.999995e+01  -5.262127e+01
   2.467794e+01  -1.294128e+02
   1.661065e+02  -8.041301e+01
   1.974511e+02   7.491683e+01
   7.066757e+01   2.135293e+02
  -1.359600e+02   2.064809e+02
  -2.617025e+02   6.305567e+01
  -2.260756e+02  -9.973807e+01
  -8.168582e+01  -1.634292e+02
   5.081479e+01  -1.261683e+02
   8.958189e+01  -6.948531e+01
   6.617031e+01  -6.341991e+01
   5.559608e+01  -8.847307e+01
   8.636648e+01  -6.971731e+01
   1.266113e+02   2.659548e+01
   1.067503e+02   1.543687e+02
   1.263861e+01   2.135637e+02
  -1.060233e+02   1.499790e+02
  -1.623766e+02  -1.510484e+00
  -1.109725e+02  -1.286001e+02
   3.895232e+00  -1.494102e+02
   7.693151e+01  -7.026217e+01
   5.825345e+01   2.034973e+01
  -6.825282e+00   5.490621e+01
  -2.787536e+01   3.182787e+01
   2.373605e+01   8.417611e+00
   7.778482e+01   1.759515e+01
   4.793341e+01   3.984038e+01
  -7.045765e+01   3.814019e+01
  -1.673356e+02  -6.809939e+00
  -1.369269e+02  -6.598658e+01
   7.233755e+00  -9.671921e+01
   1.341590e+02  -6.411152e+01
   1.412658e+02   3.878729e+00
   3.730819e+01   5.373878e+01
  -5.984036e+01   3.949284e+01
  -7.492415e+01  -2.311299e+01
  -1.362433e+01  -7.551096e+01
   5.035087e+01  -6.328053e+01
   6.934489e+01   5.800302e+00
   5.186730e+01   5.879304e+01
   3.778690e+01   4.791266e+01
   4.979067e+01   9.211928e-01
   6.138818e+01   2.849812e+00
   3.995546e+01   7.443266e+01
  -3.728636e+01   1.484935e+02
  -1.316028e+02   1.299726e+02
  -1.777690e+02   1.392198e+01
  -1.203779e+02  -1.027859e+02
   5.940132e+00  -1.314087e+02
   9.359316e+01  -6.233182e+01
   6.042510e+01   1.582786e+01
  -5.397938e+01   1.791918e+01
  -1.261154e+02  -4.437752e+01
  -6.262266e+01  -1.068430e+02
   8.270378e+01  -1.067255e+02
   1.822564e+02  -3.754733e+01
   1.467601e+02   4.610569e+01
   2.581297e+01   8.410330e+01
  -6.334447e+01   5.561653e+01
  -4.522394e+01  -5.439204e+00
   3.940824e+01  -2.944327e+01
   8.846552e+01   2.226978e+01
   3.398610e+01   1.139306e+02
  -8.333061e+01   1.480403e+02
  -1.561940e+02   6.210058e+01
  -1.193786e+02  -9.360424e+01
  -1.057460e+01  -1.857432e+02
   8.171175e+01  -1.291739e+02
   9.692840e+01   1.465786e+01
   4.736378e+01   1.138866e+02
  -1.847569e+01   9.419264e+01
  -4.907704e+01   8.147665e+00
  -3.789187e+01  -3.524286e+01
  -1.261393e+01  -7.162757e+00
  -5.105980e+00   1.583605e+01
  -2.615331e+01  -2.154988e+01
  -4.998054e+01  -8.834404e+01
  -2.146885e+01  -9.960429e+01
   5.856686e+01  -3.608940e+01
   1.265952e+02   4.303253e+01
   1.071537e+02   7.354246e+01
   9.458394e+00   5.327796e+01
  -7.997816e+01   2.243924e+01
  -8.355211e+01  -5.019704e-01
  -1.352621e+01  -1.367748e+01
   3.517532e+01  -1.912409e+01
   1.955712e+01  -9.974328e+00
  -1.386749e+01   4.550353e+00
   3.115604e+00   6.051613e+00
   6.132664e+01   1.115053e+00
   8.621687e+01   2.382834e+01
   1.645534e+01   7.646244e+01
  -1.050812e+02   1.058099e+02
  -1.798758e+02   5.166182e+01
  -1.419755e+02  -6.271310e+01
  -2.336601e+01  -1.547540e+02
   8.522014e+01  -1.448192e+02
   1.174426e+02  -5.928482e+01
   7.873168e+01   2.224599e+01
   2.401714e+01   3.973279e+01
   5.509012e-01   1.423019e+01
   9.752913e+00   8.135630e+00
   2.576489e+01   4.779614e+01
   1.191647e+01   8.578539e+01
  -3.195850e+01   6.537660e+01
  -7.385381e+01  -1.887013e+01
  -7.081431e+01  -1.014573e+02
  -7.451677e+00  -1.062516e+02
   7.369353e+01  -2.803581e+01
   9.982802e+01   6.468036e+01
   3.352075e+01   1.012031e+02
  -6.556209e+01   6.259829e+01
  -1.011713e+02  -1.043039e+01
  -4.245368e+01  -6.004834e+01
   3.500521e+01  -6.067294e+01
   3.881093e+01  -2.731834e+01
  -2.477076e+01   5.269595e+00
  -6.475295e+01   5.088208e+00
  -1.514668e+01  -2.909170e+01
   8.030779e+01  -6.474994e+01
   1.221873e+02  -4.565767e+01
   7.041269e+01   2.274834e+01
  -1.457002e+01   8.562419e+01
  -5.901506e+01   7.971227e+01
  -4.556062e+01   9.558350e+00
  -4.960372e+00  -5.160818e+01
   2.563856e+01  -4.528499e+01
   3.631350e+01   1.311064e+01
   2.492929e+01   5.461872e+01
  -3.624784e+00   3.949327e+01
  -3.271930e+01  -6.122337e+00
  -3.997197e+01  -2.686161e+01
  -1.869835e+01  -5.570042e+00
   3.818072e+00   1.998480e+01
   4.698502e+00   9.181360e+00
  -5.034144e+00  -3.068680e+01
   1.888306e+00  -5.298535e+01
   2.849917e+01  -2.291719e+01
   4.106820e+01   3.574559e+01
   1.185282e+01   6.070470e+01
  -4.046657e+01   2.463921e+01
  -6.109405e+01  -3.251260e+01
  -1.624595e+01  -5.765716e+01
   5.679510e+01  -3.407543e+01
   9.006616e+01   1.212208e+01
   4.710083e+01   4.433347e+01
  -3.178354e+01   4.469357e+01
  -6.621488e+01   2.438792e+01
  -2.885681e+01   3.446664e+00
   2.923310e+01  -4.361025e+00
   3.274443e+01   7.663183e+00
  -2.232165e+01   2.515184e+01
  -7.595732e+01   1.775876e+01
