
 $NMID
 id='ANONYMOUS ', fmtdat='(2E16.6)'
 volume=1.0
 tramp=1.0
 $END
  -2.304565e+03   7.026778e+00
  -1.441475e+03  -1.016566e+03
  -5.265804e+01  -1.244975e+03
   6.142017e+02  -8.066869e+02
   4.570279e+02  -2.745846e+02
   1.733861e+01  -4.521204e+01
  -1.765945e+02  -1.459571e+02
   9.909975e+00  -3.370965e+02
   2.785225e+02  -3.235285e+02
   3.840303e+02  -4.317523e+01
   2.556293e+02   3.013940e+02
   2.112281e+01   3.841730e+02
  -1.427839e+02   1.163792e+02
  -1.261154e+02  -2.274221e+02
   5.439147e+01  -2.866258e+02
   2.263686e+02  -3.584422e+01
   1.758804e+02   2.981325e+02
  -6.185457e+01   3.967163e+02
  -2.875085e+02   1.944411e+02
  -2.770606e+02  -5.719111e+01
  -8.245028e+01  -1.964701e+02
   6.995481e+01  -1.454819e+02
   3.250743e+01  -6.075640e+01
  -1.227977e+02  -8.133383e+01
  -1.737773e+02  -1.825962e+02
   2.264329e+01  -2.048291e+02
   3.241059e+02  -4.880253e+01
   3.907110e+02   1.583830e+02
   1.121800e+02   2.283718e+02
  -2.301524e+02   9.023483e+01
  -3.144499e+02  -1.211168e+02
  -9.892974e+01  -2.242055e+02
   1.862372e+02  -2.094978e+02
   2.887049e+02  -6.888474e+01
   2.068022e+02   8.970204e+01
   6.530685e+01   1.877278e+02
   8.659606e+00   1.181538e+02
   6.376829e+01  -4.027717e+01
   1.221729e+02  -6.998633e+01
   9.953277e+01   1.061943e+02
  -1.800728e+01   3.142157e+02
  -1.632847e+02   2.720756e+02
  -1.833892e+02  -6.566419e+00
  -4.854663e+01  -1.867351e+02
   1.083589e+02  -7.112387e+01
   9.659547e+01   1.869254e+02
  -7.130641e+01   2.598365e+02
  -2.637241e+02   1.835146e+01
  -2.680309e+02  -2.409382e+02
  -7.069857e+01  -3.018597e+02
   1.907960e+02  -1.363760e+02
   3.044050e+02   6.379631e+01
   2.008978e+02   1.549739e+02
  -1.652912e+01   1.207329e+02
  -1.639152e+02   3.803731e+01
  -1.384962e+02  -6.131258e+00
  -1.426959e+01  -1.355324e+01
   1.417837e+01   8.691284e+00
  -5.686507e+01   1.656126e+01
  -1.238001e+02  -3.591144e+01
  -6.901108e+01  -1.094239e+02
   8.730981e+01  -1.429559e+02
   2.044784e+02  -9.852681e+01
   1.698759e+02   2.766133e+01
  -6.817661e+00   1.815349e+02
  -1.764650e+02   2.312422e+02
  -2.380749e+02   1.020339e+02
  -1.423607e+02  -9.610876e+01
  -2.052707e+01  -2.260119e+02
   2.483782e+01  -2.069597e+02
   6.362224e+00  -1.179726e+02
   1.839985e+01  -8.308565e+01
   9.748529e+01  -7.748694e+01
   1.712061e+02  -3.407543e+01
   1.573617e+02   8.228728e+01
   4.595731e+01   1.607474e+02
  -6.585709e+01   1.130247e+02
  -1.099108e+02  -4.140681e+01
  -6.580885e+01  -1.614454e+02
   4.351678e+01  -1.530112e+02
   1.508283e+02  -2.830502e+01
   1.910562e+02   1.093922e+02
   1.048725e+02   1.738989e+02
  -2.325160e+01   1.509503e+02
  -9.647189e+01   9.395588e+01
  -8.370242e+01   5.671462e+01
  -9.021422e+01   4.355445e+01
  -1.847704e+02   1.189102e+01
  -2.710310e+02  -8.261087e+01
  -1.977179e+02  -1.967808e+02
   3.043796e+01  -2.646659e+02
   2.613171e+02  -2.287955e+02
   3.016462e+02  -9.134449e+01
   1.658620e+02   6.283103e+01
  -4.444496e+00   1.478708e+02
  -6.303395e+01   1.149124e+02
   5.870165e+00   2.142699e+01
   9.308770e+01  -1.901715e+01
   8.299876e+01   3.013004e+01
  -8.980290e+00   8.642691e+01
  -7.578908e+01   5.037893e+01
  -5.440956e+01  -4.113529e+01
   3.025206e+01  -7.539911e+01
   9.624810e+01   1.524647e+01
   8.069202e+01   1.486402e+02
  -1.706066e+01   2.059261e+02
  -1.495262e+02   1.190291e+02
  -2.208752e+02  -4.294924e+01
  -1.753016e+02  -1.605488e+02
  -3.683826e+01  -1.667374e+02
   8.096922e+01  -8.714154e+01
   9.295812e+01  -5.755393e+00
   2.017944e+01   2.561854e+00
  -2.921392e+01  -4.356252e+01
   6.847353e+00  -6.966819e+01
   7.485860e+01  -3.429343e+01
   7.820698e+01   2.682832e+01
   1.000327e+01   3.536503e+01
  -5.532350e+01  -1.219357e+01
  -2.207729e+01  -5.826195e+01
   9.715613e+01  -4.695615e+01
   1.924434e+02   1.852999e+01
   1.585045e+02   1.115971e+02
   4.260464e+00   1.677014e+02
  -1.430788e+02   1.447334e+02
  -1.722441e+02   5.613768e+01
  -7.996918e+01  -2.597838e+01
   2.796527e+01  -3.992093e+01
   3.773004e+01   7.253352e+00
  -4.102864e+01   4.556561e+01
  -1.218646e+02   1.630698e+01
  -1.218561e+02  -6.648279e+01
  -2.881460e+01  -1.140524e+02
   6.037911e+01  -7.748428e+01
   7.620947e+01  -6.959009e-01
   2.092516e+01   2.405943e+01
  -3.033342e+01  -1.787115e+01
  -1.502571e+01  -7.138446e+01
   6.413168e+01  -6.927618e+01
   1.335440e+02   1.743780e+00
   1.081018e+02   8.892528e+01
  -4.575250e+00   1.264996e+02
  -1.080805e+02   8.676465e+01
  -1.120470e+02   6.577058e+00
  -3.064019e+01  -5.340484e+01
   4.005017e+01  -5.217348e+01
   4.246486e+01  -1.466178e+01
  -1.761061e+00   1.236544e+01
  -2.254279e+01   5.287286e+00
   8.838405e+00  -1.489104e+01
   5.999376e+01   6.034793e+00
   6.513636e+01   6.581360e+01
   7.390607e-01   1.115913e+02
  -9.349340e+01   9.402538e+01
  -1.457146e+02   1.094648e+00
  -1.088352e+02  -9.925351e+01
  -1.651013e+01  -1.358056e+02
   6.341634e+01  -8.885838e+01
   7.650955e+01  -1.153868e+01
   4.219936e+01   3.025345e+01
   1.791432e+01   1.843115e+01
   3.334278e+01  -1.036046e+01
   5.453857e+01  -6.356668e+00
   3.646819e+01   3.558145e+01
  -2.639387e+01   6.756892e+01
  -8.115518e+01   4.468546e+01
  -7.003306e+01  -2.541897e+01
   1.358876e+01  -8.098484e+01
   1.072340e+02  -5.388447e+01
   1.264911e+02   4.492355e+01
   4.765754e+01   1.353268e+02
  -8.610214e+01   1.348649e+02
  -1.742704e+02   3.850553e+01
  -1.560947e+02  -6.423720e+01
  -6.310548e+01  -1.083693e+02
   2.954724e+01  -8.633239e+01
   6.483181e+01  -4.733901e+01
   4.984558e+01  -4.313108e+01
   3.635906e+01  -6.131729e+01
   5.405369e+01  -5.199606e+01
   8.210600e+01   1.262037e+01
   7.371037e+01   9.857344e+01
   1.251490e+01   1.415569e+02
  -6.439394e+01   1.000983e+02
  -1.006783e+02   5.167800e+00
  -7.146347e+01  -7.387805e+01
  -3.893598e+00  -9.084994e+01
   4.202601e+01  -4.777984e+01
   3.201380e+01   7.249054e+00
  -8.277518e+00   3.179497e+01
  -1.935634e+01   2.299154e+01
   2.012811e+01   7.981837e+00
   5.834140e+01   8.388810e+00
   3.549383e+01   2.230365e+01
  -4.870130e+01   2.021643e+01
  -1.139070e+02  -6.424058e+00
  -9.047734e+01  -4.535459e+01
   7.445162e+00  -6.275910e+01
   9.292941e+01  -3.795510e+01
   9.313145e+01   6.462999e+00
   2.458487e+01   3.402999e+01
  -3.934104e+01   2.337479e+01
  -5.027737e+01  -1.435468e+01
  -1.289908e+01  -4.567134e+01
   2.619845e+01  -3.894569e+01
   4.244191e+01  -1.903982e+00
   3.740394e+01   3.122629e+01
   3.001131e+01   2.898198e+01
   3.506334e+01   3.930833e+00
   4.000151e+01   3.773331e+00
   2.680282e+01   4.678355e+01
  -2.261188e+01   9.361299e+01
  -8.494286e+01   8.852581e+01
  -1.159281e+02   1.680943e+01
  -7.859313e+01  -6.094215e+01
   4.777659e+00  -8.248186e+01
   6.074591e+01  -4.304559e+01
   3.748734e+01   5.977903e+00
  -3.883994e+01   1.231395e+01
  -8.582504e+01  -2.793354e+01
  -4.405977e+01  -6.572103e+01
   5.313831e+01  -5.897264e+01
   1.221907e+02  -1.965357e+01
   9.755371e+01   3.096665e+01
   1.484255e+01   5.270539e+01
  -4.223151e+01   3.684112e+01
  -3.077823e+01  -2.635790e-01
   2.496234e+01  -1.586893e+01
   5.712141e+01   1.402653e+01
   2.290688e+01   7.377392e+01
  -4.921235e+01   9.993591e+01
  -9.948138e+01   4.497794e+01
  -7.833757e+01  -5.863689e+01
  -1.080216e+01  -1.212887e+02
   5.036693e+01  -8.614034e+01
   6.430463e+01   8.812478e+00
   3.422897e+01   7.654885e+01
  -9.389907e+00   6.284537e+01
  -3.315390e+01   9.343609e+00
  -3.096042e+01  -1.970493e+01
  -1.202883e+01  -7.057468e+00
  -1.357465e+00   7.905564e+00
  -1.588148e+01  -1.404041e+01
  -3.310131e+01  -5.387083e+01
  -1.927689e+01  -6.113907e+01
   3.305849e+01  -2.062568e+01
   8.188549e+01   2.832094e+01
   7.250903e+01   4.422507e+01
   9.179332e+00   2.961479e+01
  -4.991794e+01   1.224500e+01
  -5.464933e+01   2.979707e+00
  -1.263047e+01  -5.603283e+00
   2.074174e+01  -1.330706e+01
   1.288809e+01  -1.055298e+01
  -8.499078e+00   2.650843e+00
   1.898069e+00   6.407915e+00
   4.223168e+01   2.736083e-01
   5.978653e+01   1.290333e+01
   1.431389e+01   4.760881e+01
  -7.035355e+01   7.221878e+01
  -1.196400e+02   3.970145e+01
  -9.519739e+01  -3.637892e+01
  -1.774836e+01  -9.844870e+01
   5.434806e+01  -9.476177e+01
   7.378090e+01  -4.176544e+01
   4.455182e+01   1.165809e+01
   1.484833e+01   2.433502e+01
   2.063044e+00   8.853676e+00
   8.410978e+00   5.398988e+00
   1.750705e+01   2.861064e+01
   1.028500e+01   5.592883e+01
  -1.825933e+01   4.417852e+01
  -4.634596e+01  -8.804470e+00
  -4.787020e+01  -6.064253e+01
  -1.202813e+01  -6.764038e+01
   4.276343e+01  -2.131472e+01
   6.457498e+01   3.902166e+01
   2.695531e+01   6.179579e+01
  -3.724777e+01   4.019350e+01
  -6.450195e+01  -6.093095e+00
  -2.852509e+01  -3.691219e+01
   2.380076e+01  -3.894107e+01
   2.813936e+01  -1.983396e+01
  -1.496267e+01   4.608206e+00
  -4.136586e+01   7.879861e+00
  -8.658634e+00  -1.576139e+01
   5.301276e+01  -3.733573e+01
   7.872036e+01  -2.821172e+01
   4.457727e+01   1.105739e+01
  -1.206841e+01   5.321532e+01
  -3.903887e+01   5.463221e+01
  -2.806213e+01   1.152570e+01
  -5.423078e+00  -3.110994e+01
   1.336258e+01  -3.067485e+01
   2.273442e+01   5.941809e+00
   1.828974e+01   3.349424e+01
  -5.634986e-01   2.635367e+01
  -2.213815e+01  -2.164846e+00
  -2.971520e+01  -1.589136e+01
  -1.579095e+01  -2.905723e+00
   3.277194e+00   1.479213e+01
   6.721655e+00   6.927337e+00
  -9.265355e-01  -1.914726e+01
   3.955377e-02  -3.306000e+01
   1.533316e+01  -1.604547e+01
   2.545068e+01   2.019320e+01
   9.170035e+00   3.638182e+01
  -2.440963e+01   1.700469e+01
  -3.875473e+01  -1.737516e+01
  -9.948034e+00  -3.667747e+01
   3.793614e+01  -2.454599e+01
   6.087194e+01   6.055783e+00
   3.314989e+01   2.781347e+01
  -2.006254e+01   2.997101e+01
  -4.274347e+01   1.946528e+01
  -1.822517e+01   4.971113e+00
   1.854243e+01  -3.166110e+00
   2.113640e+01   1.948331e+00
  -1.285482e+01   1.282517e+01
  -4.617383e+01   1.082338e+01
