
 $NMID
 id='ANONYMOUS ', fmtdat='(2E16.6)'
 volume=1.0
 tramp=1.0
 $END
  -2.843987e+03   1.231911e+02
  -2.084601e+03  -1.444387e+03
  -1.730799e+02  -2.019924e+03
   1.123943e+03  -1.394250e+03
   1.064543e+03  -3.623662e+02
   2.624955e+02   2.719338e+02
  -2.595038e+02   7.193109e+01
  -1.241878e+02  -4.092180e+02
   2.962559e+02  -5.490570e+02
   5.422150e+02  -1.215828e+02
   3.930860e+02   4.302071e+02
   4.234278e+01   5.682671e+02
  -2.417307e+02   1.782825e+02
  -2.284567e+02  -3.464112e+02
   4.365585e+01  -4.768866e+02
   3.378099e+02  -8.315644e+01
   2.876882e+02   4.366465e+02
  -9.176434e+01   5.950298e+02
  -4.405302e+02   3.020189e+02
  -4.392640e+02  -1.442012e+02
  -1.545212e+02  -3.300029e+02
   7.699384e+01  -2.086119e+02
   3.228599e+01  -7.790015e+01
  -1.698701e+02  -1.414375e+02
  -2.004081e+02  -2.922221e+02
   8.192911e+01  -2.985504e+02
   4.358771e+02  -6.462332e+01
   4.739880e+02   1.782902e+02
   1.490744e+02   2.785958e+02
  -2.703139e+02   1.203733e+02
  -4.063219e+02  -1.380119e+02
  -1.479853e+02  -3.032124e+02
   2.414448e+02  -2.787260e+02
   4.085074e+02  -9.020928e+01
   2.824449e+02   1.422076e+02
   8.804205e+01   2.605069e+02
   1.219043e+01   1.692562e+02
   7.028872e+01  -3.279487e+01
   1.446309e+02  -6.582339e+01
   1.048669e+02   1.672418e+02
  -4.871328e+01   3.958860e+02
  -2.014035e+02   3.226095e+02
  -2.310193e+02   7.043233e+00
  -8.117444e+01  -1.951246e+02
   1.005999e+02  -6.883050e+01
   1.081880e+02   2.196668e+02
  -1.306504e+02   3.171160e+02
  -3.993353e+02   4.964141e+01
  -4.411263e+02  -3.004017e+02
  -1.295393e+02  -4.163077e+02
   2.833625e+02  -2.217277e+02
   4.597131e+02   6.630811e+01
   2.944380e+02   2.130201e+02
  -2.570904e+01   1.883030e+02
  -2.284100e+02   8.760716e+01
  -1.791477e+02   1.716987e+01
  -2.683296e+01   3.645020e+00
   2.991181e+01   3.410755e+01
  -7.391055e+01   3.651057e+01
  -1.805086e+02  -4.300730e+01
  -9.767161e+01  -1.634788e+02
   1.433429e+02  -2.160813e+02
   3.314642e+02  -1.077252e+02
   2.425063e+02   1.411659e+02
  -6.157142e+01   3.524538e+02
  -3.183919e+02   3.370341e+02
  -3.420387e+02   1.127633e+02
  -1.915750e+02  -1.664730e+02
  -3.110401e+01  -3.089395e+02
   1.120453e+01  -2.756515e+02
   7.442360e+00  -1.775477e+02
   5.562349e+01  -1.186360e+02
   1.669737e+02  -1.031071e+02
   2.479963e+02  -1.921420e+01
   2.078096e+02   1.472320e+02
   5.431035e+01   2.417117e+02
  -1.000695e+02   1.553229e+02
  -1.574540e+02  -6.290150e+01
  -8.842633e+01  -2.333941e+02
   6.881202e+01  -2.114538e+02
   2.290154e+02  -2.944380e+01
   2.639915e+02   1.746080e+02
   1.536300e+02   2.719092e+02
  -3.187812e+01   2.373805e+02
  -1.379857e+02   1.479295e+02
  -1.393602e+02   9.124603e+01
  -1.655388e+02   7.565271e+01
  -2.836162e+02   2.623325e+01
  -3.703186e+02  -1.249594e+02
  -2.664754e+02  -3.070654e+02
   5.353942e+01  -4.147021e+02
   3.603396e+02  -3.464525e+02
   4.348265e+02  -1.358135e+02
   2.533354e+02   1.057852e+02
   8.705138e+00   2.156076e+02
  -7.920001e+01   1.561840e+02
   4.283684e+00   3.292763e+01
   1.088337e+02  -2.111131e+01
   1.028031e+02   4.705233e+01
  -8.559144e+00   1.142328e+02
  -1.037869e+02   7.199227e+01
  -8.334484e+01  -5.311763e+01
   3.673694e+01  -1.026233e+02
   1.490051e+02   1.248310e+01
   1.355889e+02   2.182002e+02
  -2.685497e+01   3.212835e+02
  -2.418861e+02   1.921335e+02
  -3.435597e+02  -7.895735e+01
  -2.418206e+02  -2.738996e+02
  -2.225315e+01  -2.645522e+02
   1.341005e+02  -1.134015e+02
   1.325353e+02   6.418532e+00
   2.363073e+01   7.642790e+00
  -3.937630e+01  -6.879500e+01
   1.803336e+01  -1.028883e+02
   1.173246e+02  -4.831416e+01
   1.244855e+02   3.040460e+01
   1.439807e+01   4.206963e+01
  -8.486788e+01  -2.958911e+01
  -2.652791e+01  -1.032650e+02
   1.570632e+02  -8.438059e+01
   2.978167e+02   3.455005e+01
   2.297595e+02   1.825331e+02
  -2.962781e+00   2.524148e+02
  -2.127579e+02   1.935847e+02
  -2.410670e+02   6.221771e+01
  -1.092760e+02  -4.853973e+01
   3.032983e+01  -6.017275e+01
   4.367825e+01   1.280703e+01
  -5.995277e+01   6.432766e+01
  -1.644052e+02   1.552195e+01
  -1.545042e+02  -1.006183e+02
  -3.732337e+01  -1.689087e+02
   8.359945e+01  -1.125799e+02
   1.068540e+02  -4.958885e+00
   2.869675e+01   3.700021e+01
  -4.603464e+01  -3.042710e+01
  -1.446587e+01  -1.167457e+02
   1.073223e+02  -1.111422e+02
   1.966204e+02   2.150577e+00
   1.528131e+02   1.399298e+02
  -6.454371e+00   1.945203e+02
  -1.472682e+02   1.268914e+02
  -1.543729e+02  -5.768363e-02
  -4.431753e+01  -8.707490e+01
   5.269689e+01  -8.212618e+01
   5.986511e+01  -1.566464e+01
  -5.713012e+00   2.313778e+01
  -4.079066e+01  -2.409295e-01
   1.185867e+01  -3.204492e+01
   9.252055e+01   1.507146e+00
   1.008162e+02   9.937613e+01
  -2.590777e+00   1.743580e+02
  -1.516898e+02   1.349864e+02
  -2.269505e+02  -1.243097e+01
  -1.681009e+02  -1.636488e+02
  -2.173826e+01  -2.124429e+02
   1.006022e+02  -1.415851e+02
   1.201814e+02  -2.438238e+01
   6.884602e+01   4.181709e+01
   3.396915e+01   2.442069e+01
   5.609642e+01  -1.238852e+01
   8.679000e+01   8.895213e-01
   5.178768e+01   6.748672e+01
  -4.639387e+01   1.073307e+02
  -1.265328e+02   5.777038e+01
  -1.041129e+02  -5.818931e+01
   2.822012e+01  -1.307911e+02
   1.688093e+02  -7.488470e+01
   1.932886e+02   8.376035e+01
   5.991785e+01   2.124274e+02
  -1.415198e+02   1.970926e+02
  -2.517139e+02   5.181902e+01
  -2.114455e+02  -9.974506e+01
  -7.177254e+01  -1.601780e+02
   4.790147e+01  -1.234395e+02
   8.252009e+01  -6.440287e+01
   6.048684e+01  -5.702872e+01
   5.647450e+01  -8.553648e+01
   9.178810e+01  -7.157624e+01
   1.254797e+02   2.340227e+01
   1.091556e+02   1.527291e+02
   1.240435e+01   2.167136e+02
  -1.052453e+02   1.489511e+02
  -1.618671e+02  -3.937729e+00
  -1.090810e+02  -1.332083e+02
   5.895096e+00  -1.472815e+02
   8.079375e+01  -6.582206e+01
   5.883171e+01   2.554812e+01
  -1.100876e+01   5.233868e+01
  -3.048564e+01   2.817897e+01
   2.555771e+01   7.644392e+00
   8.531704e+01   1.958325e+01
   4.846308e+01   4.366172e+01
  -7.124239e+01   3.932928e+01
  -1.648558e+02  -5.791232e+00
  -1.302514e+02  -6.609201e+01
   1.246363e+01  -9.393887e+01
   1.348476e+02  -5.984559e+01
   1.339441e+02   8.580756e+00
   3.382561e+01   5.591544e+01
  -6.241375e+01   4.083939e+01
  -7.393586e+01  -2.406777e+01
  -1.761162e+01  -7.725210e+01
   4.524952e+01  -6.596955e+01
   6.923661e+01  -1.328229e+00
   5.870141e+01   5.051747e+01
   4.883469e+01   4.419877e+01
   5.094107e+01   3.548700e+00
   6.297880e+01   5.260090e+00
   4.292042e+01   7.468552e+01
  -3.162535e+01   1.474385e+02
  -1.317229e+02   1.342149e+02
  -1.816828e+02   2.224325e+01
  -1.223932e+02  -9.760120e+01
   2.606780e+00  -1.291831e+02
   9.201431e+01  -6.388525e+01
   6.044643e+01   1.329910e+01
  -5.247369e+01   1.793910e+01
  -1.212087e+02  -4.255000e+01
  -6.040731e+01  -1.023221e+02
   7.924991e+01  -9.555734e+01
   1.754084e+02  -2.679478e+01
   1.368894e+02   4.836872e+01
   2.064468e+01   7.677968e+01
  -6.162303e+01   4.727816e+01
  -4.207817e+01  -6.689949e+00
   4.059778e+01  -2.780476e+01
   8.713473e+01   2.157091e+01
   3.503739e+01   1.098484e+02
  -7.571631e+01   1.447873e+02
  -1.486949e+02   6.374470e+01
  -1.187422e+02  -8.582849e+01
  -1.198727e+01  -1.777278e+02
   7.883008e+01  -1.246430e+02
   9.595638e+01   1.705624e+01
   4.606864e+01   1.165776e+02
  -2.115521e+01   9.357683e+01
  -5.301746e+01   7.738415e+00
  -4.138048e+01  -3.158818e+01
  -1.259226e+01  -5.797825e+00
  -5.982952e+00   1.469566e+01
  -3.150039e+01  -2.723371e+01
  -5.161429e+01  -9.036518e+01
  -2.125314e+01  -9.765086e+01
   6.000929e+01  -3.479714e+01
   1.286812e+02   3.901110e+01
   1.077390e+02   6.799358e+01
   9.316912e+00   5.279656e+01
  -7.864410e+01   2.585833e+01
  -8.155614e+01   3.027556e+00
  -1.859758e+01  -1.711646e+01
   3.141336e+01  -2.246475e+01
   1.930376e+01  -9.807967e+00
  -1.374763e+01   4.230305e+00
   2.712249e+00   2.576086e+00
   6.056928e+01  -3.001865e+00
   8.877970e+01   2.298881e+01
   2.272189e+01   8.174302e+01
  -1.010978e+02   1.115068e+02
  -1.794762e+02   5.760016e+01
  -1.414127e+02  -5.866075e+01
  -2.698637e+01  -1.481118e+02
   7.847812e+01  -1.419907e+02
   1.081126e+02  -5.867015e+01
   7.236319e+01   1.811346e+01
   2.448628e+01   3.695782e+01
   4.233776e+00   1.317452e+01
   1.414008e+01   9.049737e+00
   2.575360e+01   4.939281e+01
   1.105096e+01   8.745001e+01
  -3.324890e+01   6.507613e+01
  -7.276925e+01  -1.757260e+01
  -7.024893e+01  -9.752577e+01
  -1.028632e+01  -1.036168e+02
   7.176454e+01  -3.137155e+01
   9.964667e+01   6.104558e+01
   3.612984e+01   9.938384e+01
  -6.292650e+01   6.392479e+01
  -9.910790e+01  -8.553035e+00
  -4.309069e+01  -6.056385e+01
   3.492519e+01  -6.046004e+01
   4.026776e+01  -2.638458e+01
  -2.264531e+01   6.895124e+00
  -6.077349e+01   6.083092e+00
  -1.712985e+01  -2.967066e+01
   7.271020e+01  -5.976463e+01
   1.167846e+02  -4.210557e+01
   7.097193e+01   2.354027e+01
  -1.394133e+01   8.042411e+01
  -6.135636e+01   7.550436e+01
  -4.659786e+01   1.152367e+01
  -7.638262e+00  -4.969402e+01
   2.321929e+01  -4.574547e+01
   3.533495e+01   8.577096e+00
   2.423505e+01   5.107296e+01
  -3.959376e+00   3.920039e+01
  -3.143237e+01  -7.350014e+00
  -3.598582e+01  -2.957513e+01
  -1.663168e+01  -5.998557e+00
   3.598940e+00   2.333572e+01
   3.434356e+00   1.384010e+01
  -9.235962e+00  -2.984346e+01
  -3.564578e+00  -5.501458e+01
   2.452974e+01  -2.828912e+01
   4.401342e+01   3.039772e+01
   1.873482e+01   5.914696e+01
  -3.839325e+01   2.696186e+01
  -6.480136e+01  -3.043007e+01
  -2.048318e+01  -5.930772e+01
   5.642834e+01  -3.506088e+01
   9.148670e+01   1.221973e+01
   4.721739e+01   4.343005e+01
  -2.920835e+01   4.495192e+01
  -6.327259e+01   2.540886e+01
  -2.829338e+01   4.360617e+00
   2.459512e+01  -6.753724e+00
   3.009343e+01   3.509966e+00
  -1.962794e+01   2.504968e+01
  -6.963884e+01   2.146747e+01
