
 $NMID
 id='ANONYMOUS ', fmtdat='(2E16.6)'
 volume=1.0
 tramp=1.0
 $END
  -2.637125e+03   4.039864e+01
  -1.663428e+03  -1.131496e+03
  -7.470329e+01  -1.627506e+03
   8.760849e+02  -1.074111e+03
   7.520202e+02  -3.513274e+02
   1.476922e+02   6.856664e+01
  -1.732093e+02  -2.322269e+01
  -6.307553e+01  -3.661008e+02
   2.669577e+02  -4.475666e+02
   4.413366e+02  -1.346711e+02
   3.402423e+02   3.396216e+02
   6.524107e+01   4.936620e+02
  -1.566111e+02   1.703843e+02
  -1.755694e+02  -2.684102e+02
   2.941797e+01  -3.819303e+02
   2.663524e+02  -7.253032e+01
   2.432222e+02   3.688157e+02
  -6.581338e+01   5.228951e+02
  -3.748598e+02   2.768748e+02
  -3.777504e+02  -9.231977e+01
  -1.312664e+02  -2.670487e+02
   7.465325e+01  -1.753034e+02
   3.077351e+01  -8.011858e+01
  -1.618682e+02  -1.408955e+02
  -1.980300e+02  -2.612105e+02
   6.028189e+01  -2.509258e+02
   3.921864e+02  -4.882673e+01
   4.507561e+02   1.979735e+02
   1.334322e+02   2.643480e+02
  -2.670732e+02   1.045233e+02
  -3.670741e+02  -1.307761e+02
  -1.152172e+02  -2.724856e+02
   2.136471e+02  -2.401035e+02
   3.513899e+02  -7.080642e+01
   2.275592e+02   1.269416e+02
   5.328504e+01   2.257398e+02
   3.233503e+00   1.214629e+02
   8.237674e+01  -4.419859e+01
   1.606269e+02  -6.405039e+01
   9.255644e+01   1.511134e+02
  -5.556884e+01   3.592442e+02
  -1.986482e+02   3.078862e+02
  -2.211735e+02   1.141460e+01
  -6.574569e+01  -1.933474e+02
   9.302910e+01  -6.031196e+01
   1.034678e+02   2.316658e+02
  -1.128309e+02   2.938184e+02
  -3.494732e+02   1.701013e+01
  -3.576992e+02  -2.875924e+02
  -1.010159e+02  -3.748684e+02
   2.441602e+02  -1.867270e+02
   4.005610e+02   7.321895e+01
   2.619551e+02   1.857650e+02
  -1.308098e+01   1.526192e+02
  -1.872454e+02   6.975764e+01
  -1.516242e+02   1.456051e+01
  -3.270169e+01   4.481520e+00
   5.740970e+00   2.608694e+01
  -5.919588e+01   2.551935e+01
  -1.439450e+02  -3.300488e+01
  -8.422153e+01  -1.396210e+02
   1.246894e+02  -1.917521e+02
   2.882083e+02  -1.222211e+02
   2.185337e+02   8.761408e+01
  -3.971735e+01   2.901582e+02
  -2.760213e+02   3.009558e+02
  -3.116229e+02   1.168250e+02
  -1.624710e+02  -1.536363e+02
  -1.504394e+01  -2.853670e+02
   2.283665e+01  -2.588390e+02
   9.224026e+00  -1.541498e+02
   3.438427e+01  -1.071338e+02
   1.417656e+02  -9.555890e+01
   2.148777e+02  -1.902837e+01
   1.839038e+02   1.195620e+02
   4.948477e+01   2.096990e+02
  -8.398814e+01   1.349208e+02
  -1.371884e+02  -6.219232e+01
  -7.728802e+01  -2.147783e+02
   6.376603e+01  -1.938921e+02
   2.001383e+02  -2.614215e+01
   2.313835e+02   1.528603e+02
   1.273870e+02   2.307409e+02
  -2.486200e+01   1.973720e+02
  -1.155497e+02   1.318122e+02
  -1.200123e+02   7.756477e+01
  -1.433688e+02   5.811595e+01
  -2.397624e+02   9.183637e+00
  -3.237565e+02  -1.071155e+02
  -2.416986e+02  -2.502439e+02
   3.815499e+01  -3.441226e+02
   3.168773e+02  -3.021557e+02
   3.793539e+02  -1.150858e+02
   2.089212e+02   8.587782e+01
  -5.480205e+00   1.933389e+02
  -6.938379e+01   1.417321e+02
   6.172060e+00   3.010572e+01
   1.022086e+02  -1.402437e+01
   8.513265e+01   3.875828e+01
  -9.929778e+00   1.029206e+02
  -8.546591e+01   6.095319e+01
  -6.500815e+01  -4.473621e+01
   3.062844e+01  -8.685909e+01
   1.262073e+02   1.487180e+01
   1.154634e+02   1.936696e+02
  -2.026111e+01   2.759453e+02
  -2.074337e+02   1.675759e+02
  -3.056034e+02  -5.776820e+01
  -2.287872e+02  -2.240290e+02
  -3.662735e+01  -2.278296e+02
   1.105049e+02  -1.104575e+02
   1.119269e+02  -6.453398e+00
   1.979755e+01  -2.795039e+00
  -3.343349e+01  -6.147601e+01
   1.777729e+01  -9.025413e+01
   1.047810e+02  -4.531344e+01
   1.055759e+02   2.999862e+01
   1.282012e+01   3.943443e+01
  -7.190403e+01  -2.280007e+01
  -2.505678e+01  -8.282007e+01
   1.337394e+02  -6.893033e+01
   2.497059e+02   3.245410e+01
   2.004995e+02   1.499613e+02
   2.959840e+00   2.170540e+02
  -1.848640e+02   1.706582e+02
  -2.206387e+02   6.396128e+01
  -1.028377e+02  -3.665140e+01
   2.768810e+01  -5.092182e+01
   4.219722e+01   1.008701e+01
  -5.624375e+01   5.917372e+01
  -1.564580e+02   1.555162e+01
  -1.476995e+02  -8.640931e+01
  -3.788597e+01  -1.465266e+02
   7.004432e+01  -1.016969e+02
   8.887593e+01  -1.084720e+01
   2.312888e+01   2.585207e+01
  -3.943804e+01  -2.513706e+01
  -1.345095e+01  -9.930525e+01
   9.348054e+01  -9.751392e+01
   1.775092e+02  -3.237433e+00
   1.403090e+02   1.185639e+02
  -2.934727e+00   1.697351e+02
  -1.318250e+02   1.177918e+02
  -1.374938e+02   7.744168e+00
  -4.106996e+01  -7.105279e+01
   4.593207e+01  -6.779310e+01
   5.107497e+01  -1.414731e+01
  -5.464586e+00   2.033791e+01
  -3.598378e+01   3.755886e+00
   6.047797e+00  -2.491006e+01
   7.602518e+01  -9.064106e-01
   8.587680e+01   8.421883e+01
   1.498148e+00   1.539084e+02
  -1.276119e+02   1.248156e+02
  -1.970849e+02  -4.046411e+00
  -1.501741e+02  -1.389249e+02
  -2.297258e+01  -1.826897e+02
   8.598665e+01  -1.231059e+02
   1.081194e+02  -2.353751e+01
   6.431478e+01   3.507745e+01
   3.213705e+01   2.658412e+01
   4.379465e+01  -2.409954e+00
   6.986484e+01  -7.339299e-02
   4.985262e+01   5.037855e+01
  -3.398597e+01   9.207443e+01
  -1.125345e+02   6.097495e+01
  -9.665277e+01  -3.920623e+01
   1.708246e+01  -1.099164e+02
   1.440630e+02  -6.811666e+01
   1.700293e+02   6.454046e+01
   5.405894e+01   1.769751e+02
  -1.149543e+02   1.701894e+02
  -2.218073e+02   5.702781e+01
  -1.956816e+02  -8.051468e+01
  -7.312049e+01  -1.386023e+02
   3.865860e+01  -1.098340e+02
   7.802264e+01  -6.542729e+01
   6.333361e+01  -5.721077e+01
   5.190455e+01  -7.449848e+01
   7.624239e+01  -6.342722e+01
   1.082099e+02   1.801814e+01
   9.203170e+01   1.317972e+02
   1.282837e+01   1.891604e+02
  -8.913338e+01   1.366789e+02
  -1.385572e+02   2.605427e+00
  -9.500478e+01  -1.120835e+02
   2.190490e+00  -1.310458e+02
   6.629954e+01  -6.270623e+01
   5.164020e+01   1.926902e+01
  -9.077972e+00   5.155419e+01
  -2.949177e+01   3.291443e+01
   1.854182e+01   8.234908e+00
   7.036925e+01   1.175267e+01
   4.147582e+01   3.401105e+01
  -6.489192e+01   3.328275e+01
  -1.491690e+02  -8.026218e+00
  -1.193488e+02  -6.287934e+01
   7.711321e+00  -8.722500e+01
   1.189752e+02  -5.808061e+01
   1.233708e+02   5.254437e+00
   3.682701e+01   4.771491e+01
  -5.147899e+01   3.789929e+01
  -6.458521e+01  -1.529062e+01
  -1.947350e+01  -6.281166e+01
   3.519960e+01  -5.795641e+01
   5.878280e+01  -1.917502e+00
   4.941524e+01   4.482320e+01
   3.801788e+01   4.009010e+01
   4.002042e+01   2.485025e+00
   5.064474e+01   7.447863e-01
   3.857935e+01   6.069833e+01
  -2.305395e+01   1.262170e+02
  -1.089557e+02   1.225701e+02
  -1.579605e+02   2.399248e+01
  -1.123567e+02  -8.233688e+01
  -8.994315e-01  -1.158440e+02
   7.929923e+01  -5.911218e+01
   5.249397e+01   9.416444e+00
  -4.298643e+01   1.481913e+01
  -1.052043e+02  -3.898342e+01
  -5.347855e+01  -8.785243e+01
   7.079816e+01  -7.715569e+01
   1.552779e+02  -1.731087e+01
   1.218509e+02   4.512146e+01
   1.806840e+01   6.964945e+01
  -5.901321e+01   4.323982e+01
  -4.397681e+01  -5.318832e+00
   3.240245e+01  -2.570366e+01
   7.811428e+01   1.599686e+01
   3.653744e+01   9.453940e+01
  -6.270906e+01   1.272619e+02
  -1.281207e+02   5.909642e+01
  -1.042117e+02  -7.234242e+01
  -1.151923e+01  -1.548688e+02
   6.901858e+01  -1.113951e+02
   8.362547e+01   1.321317e+01
   4.235634e+01   9.967763e+01
  -1.550766e+01   7.999226e+01
  -4.359401e+01   1.253766e+01
  -3.643070e+01  -2.566248e+01
  -1.377495e+01  -5.404859e+00
  -5.663968e+00   1.214139e+01
  -2.594364e+01  -2.024872e+01
  -4.370357e+01  -7.303764e+01
  -2.178434e+01  -8.470369e+01
   4.804338e+01  -3.316530e+01
   1.098194e+02   3.259849e+01
   9.710873e+01   5.768775e+01
   1.298143e+01   4.431273e+01
  -6.553530e+01   2.160204e+01
  -6.835782e+01   2.592048e+00
  -1.447970e+01  -1.148301e+01
   2.746359e+01  -1.746885e+01
   1.808622e+01  -1.053614e+01
  -1.015756e+01   1.550054e+00
   2.973526e+00   4.292582e+00
   5.470303e+01  -1.719582e-01
   7.884585e+01   1.769934e+01
   2.430437e+01   6.332367e+01
  -8.345122e+01   9.577889e+01
  -1.566603e+02   5.528963e+01
  -1.303247e+02  -4.654984e+01
  -2.829459e+01  -1.312666e+02
   6.920627e+01  -1.321623e+02
   9.954733e+01  -5.840746e+01
   6.512507e+01   1.459199e+01
   2.203032e+01   3.358208e+01
   2.594442e+00   1.336354e+01
   1.074325e+01   9.024880e+00
   2.091968e+01   4.144766e+01
   9.679556e+00   7.290231e+01
  -2.577189e+01   5.769641e+01
  -6.362759e+01  -1.128625e+01
  -6.453314e+01  -8.289663e+01
  -1.361975e+01  -9.122166e+01
   5.914120e+01  -3.089538e+01
   8.735815e+01   4.674937e+01
   3.522905e+01   8.604265e+01
  -5.092190e+01   5.852200e+01
  -8.995223e+01  -2.837819e+00
  -4.053972e+01  -4.933259e+01
   2.734953e+01  -5.646177e+01
   3.558876e+01  -2.908305e+01
  -1.767964e+01   4.256604e+00
  -5.324813e+01   1.121313e+01
  -1.584204e+01  -2.065365e+01
   6.386703e+01  -5.168511e+01
   1.003025e+02  -4.076201e+01
   6.102005e+01   1.577330e+01
  -9.114592e+00   7.290446e+01
  -4.573130e+01   7.325924e+01
  -3.908821e+01   1.479742e+01
  -1.056375e+01  -4.065049e+01
   1.670673e+01  -4.177115e+01
   3.092672e+01   5.572629e+00
   2.469312e+01   4.690304e+01
  -1.698352e+00   3.561539e+01
  -2.853067e+01  -4.402197e+00
  -3.544471e+01  -2.517791e+01
  -1.666480e+01  -5.470656e+00
   5.197680e+00   1.876224e+01
   4.938001e+00   1.086424e+01
  -6.272279e+00  -2.477317e+01
  -3.889554e+00  -4.571681e+01
   1.907899e+01  -2.301499e+01
   3.662707e+01   2.507885e+01
   1.784169e+01   4.739340e+01
  -2.983804e+01   2.420346e+01
  -5.267193e+01  -2.137342e+01
  -1.772632e+01  -4.820350e+01
   4.521661e+01  -2.949122e+01
   7.780136e+01   9.680246e+00
   4.363292e+01   3.731590e+01
  -2.281969e+01   4.064989e+01
  -5.547487e+01   2.796745e+01
  -2.849991e+01   8.251212e+00
   1.811013e+01  -5.067466e+00
   2.576519e+01   1.081656e+00
  -1.667627e+01   1.535060e+01
  -5.817416e+01   1.500522e+01
