
 $NMID
 id='ANONYMOUS ', fmtdat='(2E16.6)'
 volume=1.0
 tramp=1.0
 $END
   2.284407e+03   8.420307e+01
   1.586080e+03   1.014463e+03
   2.225770e+02   1.298870e+03
  -6.965377e+02   9.938960e+02
  -6.911233e+02   3.138180e+02
  -1.103041e+02  -8.580126e+01
   2.366344e+02  -4.308118e-01
   7.570943e+01   3.056756e+02
  -2.876435e+02   3.879902e+02
  -4.504889e+02   9.176831e+01
  -3.333792e+02  -3.125936e+02
  -5.743434e+01  -4.587305e+02
   1.587895e+02  -1.666582e+02
   1.612510e+02   2.332902e+02
  -5.446376e+01   3.529164e+02
  -2.674098e+02   8.555827e+01
  -2.591571e+02  -3.182642e+02
   1.546073e+01  -4.812509e+02
   3.196358e+02  -2.827724e+02
   3.536679e+02   7.900276e+01
   1.278947e+02   2.429002e+02
  -5.689295e+01   1.725034e+02
  -8.399770e+00   7.365938e+01
   1.518955e+02   1.152749e+02
   1.611483e+02   2.526618e+02
  -7.204566e+01   2.539497e+02
  -3.541166e+02   8.707200e+01
  -3.986003e+02  -1.472912e+02
  -1.370253e+02  -2.185119e+02
   2.154089e+02  -1.033496e+02
   3.104291e+02   1.000595e+02
   1.024845e+02   2.422104e+02
  -2.007006e+02   2.418924e+02
  -3.300828e+02   1.012745e+02
  -2.340433e+02  -1.070992e+02
  -7.387867e+01  -2.125371e+02
  -1.926390e+01  -1.293478e+02
  -7.388385e+01   2.910655e+01
  -1.326389e+02   6.474524e+01
  -8.682429e+01  -1.227110e+02
   3.902929e+01  -3.141061e+02
   1.709055e+02  -2.598581e+02
   1.681169e+02  -4.124627e-01
   4.725887e+01   1.831635e+02
  -8.047145e+01   7.490394e+01
  -9.023446e+01  -2.045352e+02
   8.495845e+01  -2.670817e+02
   3.193244e+02  -2.634213e+01
   3.362307e+02   2.953961e+02
   1.139134e+02   3.726927e+02
  -2.049942e+02   1.998565e+02
  -3.598215e+02  -3.582265e+01
  -2.623904e+02  -1.495872e+02
  -4.820776e+00  -1.268695e+02
   1.940213e+02  -5.659433e+01
   1.589407e+02  -1.196657e+01
   2.671264e+01  -1.838546e+00
  -2.579039e+01  -1.685357e+01
   6.496770e+01  -2.581035e+01
   1.529517e+02   3.967570e+01
   1.065717e+02   1.333465e+02
  -1.000016e+02   1.997143e+02
  -2.713060e+02   1.246679e+02
  -2.187210e+02  -7.217974e+01
   7.227627e+00  -2.640579e+02
   2.360737e+02  -2.969644e+02
   2.910043e+02  -1.180634e+02
   1.798771e+02   1.333473e+02
   4.889784e+01   2.678929e+02
   4.057888e+00   2.348945e+02
   7.470440e+00   1.543167e+02
  -3.412160e+01   1.193198e+02
  -1.339787e+02   1.042359e+02
  -2.178373e+02   2.599230e+01
  -1.806877e+02  -1.151466e+02
  -4.683180e+01  -1.976597e+02
   8.665898e+01  -1.276749e+02
   1.463935e+02   4.958428e+01
   9.517946e+01   1.929654e+02
  -5.023967e+01   1.829429e+02
  -1.935927e+02   3.327582e+01
  -2.200791e+02  -1.348818e+02
  -1.155727e+02  -2.118096e+02
   3.907949e+01  -1.845224e+02
   1.117628e+02  -1.235245e+02
   1.123105e+02  -8.357394e+01
   1.291014e+02  -6.707752e+01
   2.307261e+02  -2.262984e+01
   3.195396e+02   9.347665e+01
   2.380864e+02   2.398889e+02
  -2.882431e+01   3.372433e+02
  -2.910146e+02   2.944189e+02
  -3.601057e+02   1.208020e+02
  -2.088153e+02  -7.963242e+01
  -8.821179e+00  -1.863682e+02
   6.379777e+01  -1.370138e+02
  -1.282189e+00  -2.997417e+01
  -9.150759e+01   1.828394e+01
  -8.029786e+01  -4.245184e+01
   1.204343e+01  -9.745480e+01
   8.019487e+01  -5.664079e+01
   6.057881e+01   3.944036e+01
  -3.367924e+01   8.359509e+01
  -1.191155e+02  -1.359382e+01
  -1.077942e+02  -1.850764e+02
   2.592993e+01  -2.601211e+02
   1.979106e+02  -1.586308e+02
   2.806316e+02   4.673279e+01
   2.097173e+02   2.054775e+02
   3.351425e+01   2.085552e+02
  -1.013662e+02   9.642435e+01
  -1.001303e+02  -2.094701e+00
  -1.541441e+01  -7.519832e+00
   3.570734e+01   5.444368e+01
  -1.349754e+01   8.349660e+01
  -9.596420e+01   4.041032e+01
  -1.028428e+02  -2.968564e+01
  -1.341480e+01  -4.301842e+01
   6.244256e+01   1.249285e+01
   2.210373e+01   7.295597e+01
  -1.204466e+02   6.356349e+01
  -2.305468e+02  -2.842824e+01
  -1.866923e+02  -1.411539e+02
  -5.415485e+00  -2.028767e+02
   1.682378e+02  -1.709182e+02
   1.947897e+02  -6.159757e+01
   9.212979e+01   3.567058e+01
  -2.608162e+01   4.988445e+01
  -3.840311e+01  -1.270523e+01
   4.862179e+01  -6.035901e+01
   1.395615e+02  -1.604232e+01
   1.345759e+02   8.236232e+01
   3.966846e+01   1.394871e+02
  -6.623401e+01   9.643078e+01
  -9.337661e+01   4.802094e+00
  -2.841784e+01  -2.967785e+01
   3.684032e+01   2.263402e+01
   1.909448e+01   9.383393e+01
  -8.401222e+01   9.229301e+01
  -1.680244e+02   2.590702e+00
  -1.370905e+02  -1.105622e+02
  -2.455409e+00  -1.592064e+02
   1.165551e+02  -1.109044e+02
   1.246905e+02  -1.233178e+01
   3.480753e+01   6.237049e+01
  -4.947897e+01   5.991214e+01
  -4.845154e+01   1.430682e+01
   5.610941e+00  -1.674397e+01
   3.254706e+01  -9.528398e-02
  -8.616954e+00   2.651042e+01
  -7.878549e+01   1.450573e+00
  -9.204766e+01  -7.969635e+01
  -1.003425e+01  -1.444158e+02
   1.129492e+02  -1.195234e+02
   1.827580e+02  -8.450234e-01
   1.419412e+02   1.263934e+02
   2.500479e+01   1.731999e+02
  -7.869476e+01   1.191377e+02
  -1.008104e+02   2.319326e+01
  -6.053131e+01  -3.390751e+01
  -3.192233e+01  -2.264168e+01
  -4.720177e+01   7.789085e+00
  -7.154506e+01   1.845045e+00
  -4.741386e+01  -4.857097e+01
   3.264978e+01  -8.969716e+01
   1.050771e+02  -5.838759e+01
   9.145492e+01   3.857788e+01
  -1.732415e+01   1.087567e+02
  -1.409292e+02   6.827190e+01
  -1.638011e+02  -6.377854e+01
  -5.491612e+01  -1.745931e+02
   1.137837e+02  -1.662771e+02
   2.118826e+02  -5.448052e+01
   1.822809e+02   6.863411e+01
   6.782683e+01   1.239159e+02
  -3.486660e+01   9.941886e+01
  -6.132572e+01   6.020640e+01
  -4.250207e+01   5.632793e+01
  -3.877561e+01   7.763739e+01
  -7.121207e+01   6.539946e+01
  -1.086389e+02  -1.317357e+01
  -9.423138e+01  -1.238451e+02
  -1.298920e+01  -1.744695e+02
   8.195582e+01  -1.227431e+02
   1.297632e+02   6.593278e-01
   9.247781e+01   1.038155e+02
   4.295235e-01   1.186923e+02
  -6.424184e+01   5.498448e+01
  -5.248165e+01  -1.863977e+01
   2.226400e+00  -4.539948e+01
   2.204128e+01  -3.048913e+01
  -1.644888e+01  -9.565856e+00
  -6.502105e+01  -1.233680e+01
  -3.733043e+01  -3.456989e+01
   5.932885e+01  -3.670168e+01
   1.409291e+02   1.380216e+00
   1.127907e+02   5.351214e+01
  -4.257677e+00   8.020204e+01
  -1.085435e+02   5.586530e+01
  -1.147527e+02  -2.756380e+00
  -3.530085e+01  -4.587527e+01
   4.561226e+01  -3.816488e+01
   6.183250e+01   1.569324e+01
   1.681732e+01   6.027879e+01
  -3.550831e+01   5.022639e+01
  -5.604582e+01  -1.315071e+00
  -4.762916e+01  -4.191893e+01
  -3.494434e+01  -3.336242e+01
  -3.849160e+01  -1.337500e+00
  -4.941450e+01  -4.355686e+00
  -3.753701e+01  -6.236294e+01
   2.120942e+01  -1.238111e+02
   1.033213e+02  -1.111947e+02
   1.462193e+02  -2.306352e+01
   1.031560e+02   7.567222e+01
   4.222770e-01   1.055164e+02
  -7.490888e+01   5.580153e+01
  -4.783696e+01  -8.781721e+00
   4.174856e+01  -1.884284e+01
   9.789762e+01   2.681212e+01
   4.885880e+01   7.956771e+01
  -6.982419e+01   8.294241e+01
  -1.457423e+02   3.224961e+01
  -1.138786e+02  -3.473948e+01
  -2.048619e+01  -6.568561e+01
   5.077268e+01  -4.119861e+01
   3.542992e+01   6.129466e+00
  -3.565328e+01   2.510667e+01
  -7.538867e+01  -1.594684e+01
  -3.446551e+01  -8.901880e+01
   5.481901e+01  -1.181349e+02
   1.171172e+02  -5.545097e+01
   9.876652e+01   6.546266e+01
   1.897645e+01   1.409009e+02
  -5.712289e+01   1.034862e+02
  -7.856327e+01  -8.856209e+00
  -4.259204e+01  -8.951040e+01
   1.220675e+01  -7.553784e+01
   4.052339e+01  -8.243295e+00
   3.151867e+01   2.218090e+01
   7.637889e+00   3.815269e+00
   6.145719e+00  -1.349459e+01
   2.903542e+01   1.961913e+01
   4.708030e+01   6.998692e+01
   2.101167e+01   7.813487e+01
  -4.723494e+01   3.427001e+01
  -1.026747e+02  -2.664857e+01
  -8.857571e+01  -5.283178e+01
  -9.874972e+00  -4.420178e+01
   6.017252e+01  -2.033842e+01
   6.544643e+01   9.052077e-01
   1.293642e+01   1.463281e+01
  -2.596124e+01   1.798191e+01
  -1.749915e+01   7.125480e+00
   9.601027e+00  -5.185377e+00
  -1.832870e+00  -2.817320e+00
  -4.845703e+01   4.790294e+00
  -7.190347e+01  -1.552003e+01
  -2.024788e+01  -6.211013e+01
   7.851788e+01  -9.268608e+01
   1.449315e+02  -5.607375e+01
   1.235071e+02   3.872381e+01
   2.981118e+01   1.200984e+02
  -5.861582e+01   1.228698e+02
  -8.763889e+01   5.567150e+01
  -6.063147e+01  -1.711423e+01
  -2.148365e+01  -3.159597e+01
  -4.191176e+00  -1.185207e+01
  -1.164282e+01  -7.632069e+00
  -2.182831e+01  -3.882180e+01
  -1.174021e+01  -7.114683e+01
   2.247059e+01  -5.724925e+01
   5.834751e+01   9.687106e+00
   6.372228e+01   7.548911e+01
   1.478266e+01   8.303969e+01
  -5.584155e+01   2.622459e+01
  -8.112592e+01  -4.568270e+01
  -3.222007e+01  -7.926793e+01
   4.842115e+01  -5.382956e+01
   8.234438e+01   4.652327e+00
   3.826764e+01   4.768344e+01
  -2.680200e+01   5.088241e+01
  -3.315988e+01   2.555761e+01
   1.668545e+01  -5.758251e+00
   5.055543e+01  -7.502990e+00
   1.539699e+01   2.222728e+01
  -5.737621e+01   5.571613e+01
  -9.660842e+01   4.438215e+01
  -6.130229e+01  -1.297110e+01
   5.606688e+00  -6.986300e+01
   4.391604e+01  -7.127646e+01
   3.757023e+01  -1.309253e+01
   7.525766e+00   3.847954e+01
  -1.753788e+01   3.858116e+01
  -2.806059e+01  -4.209313e+00
  -2.200248e+01  -3.983703e+01
   1.708156e-01  -3.250183e+01
   2.422587e+01   3.110712e+00
   3.088894e+01   2.044006e+01
   1.370973e+01   3.151955e+00
  -4.941122e+00  -1.863059e+01
  -3.961866e+00  -1.092735e+01
   8.749197e+00   2.215160e+01
   5.127683e+00   4.417814e+01
  -1.973972e+01   2.344815e+01
  -3.876376e+01  -2.373817e+01
  -1.865613e+01  -4.734503e+01
   2.926424e+01  -2.327971e+01
   5.160669e+01   2.186197e+01
   1.904643e+01   4.489298e+01
  -4.476371e+01   2.886870e+01
  -7.451391e+01  -6.360404e+00
  -4.141010e+01  -3.247375e+01
   2.101907e+01  -3.851091e+01
   5.037409e+01  -2.685145e+01
   2.567103e+01  -6.231692e+00
  -1.707306e+01   7.513367e+00
  -2.498594e+01   2.389989e-01
   1.384980e+01  -1.932474e+01
   5.590827e+01  -1.946217e+01
