
 $NMID
 id='ANONYMOUS ', fmtdat='(2E16.6)'
 volume=1.0
 tramp=1.0
 $END
  -2.132192e+03  -1.791437e+02
  -1.502028e+03  -9.411965e+02
  -1.716034e+02  -1.393942e+03
   6.635734e+02  -9.575160e+02
   6.280513e+02  -3.305953e+02
   1.942948e+02   2.001980e+01
  -9.840251e+01   1.150910e+01
  -2.198208e+01  -2.357472e+02
   2.500611e+02  -3.534926e+02
   3.941114e+02  -1.192928e+02
   3.023834e+02   2.844661e+02
   5.290799e+01   4.180530e+02
  -1.240637e+02   1.413020e+02
  -1.326847e+02  -2.323180e+02
   6.070675e+01  -3.462824e+02
   2.361567e+02  -8.867934e+01
   2.353435e+02   2.842008e+02
  -1.371938e+01   4.257516e+02
  -2.809389e+02   2.413493e+02
  -3.219196e+02  -8.475284e+01
  -1.291136e+02  -2.304749e+02
   4.776394e+01  -1.689040e+02
   8.671798e+00  -6.902376e+01
  -1.477074e+02  -1.198759e+02
  -1.612115e+02  -2.489382e+02
   7.810502e+01  -2.553380e+02
   3.202225e+02  -7.127361e+01
   3.532035e+02   1.612654e+02
   8.824945e+01   2.116558e+02
  -2.326627e+02   6.823750e+01
  -3.081768e+02  -1.314602e+02
  -9.500580e+01  -2.461488e+02
   1.780573e+02  -2.258225e+02
   2.907314e+02  -1.021951e+02
   2.001962e+02   8.052536e+01
   6.697807e+01   1.571966e+02
   2.170962e+01   8.116106e+01
   8.817006e+01  -3.611265e+01
   1.375163e+02  -3.749158e+01
   7.317403e+01   1.313439e+02
  -5.143363e+01   2.854608e+02
  -1.690585e+02   2.207767e+02
  -1.685905e+02  -2.293163e+01
  -4.073888e+01  -1.759784e+02
   6.868621e+01  -5.666753e+01
   6.520333e+01   1.759457e+02
  -8.884730e+01   2.191992e+02
  -3.028939e+02   1.379081e+01
  -3.426727e+02  -2.755457e+02
  -1.248219e+02  -3.555051e+02
   1.887538e+02  -1.946086e+02
   3.278684e+02   2.976025e+01
   2.262668e+02   1.298156e+02
   7.968358e+00   1.003776e+02
  -1.499983e+02   6.064761e+01
  -1.432927e+02   3.729868e+01
  -4.823992e+01   1.602759e+01
  -1.143067e+00   6.740439e+00
  -5.900944e+01   3.579315e+00
  -1.428319e+02  -3.159608e+01
  -9.011266e+01  -1.124950e+02
   9.107401e+01  -1.796244e+02
   2.558638e+02  -1.255619e+02
   2.192627e+02   7.415616e+01
  -2.612982e+00   2.655692e+02
  -2.409530e+02   2.889681e+02
  -2.923734e+02   1.137760e+02
  -1.628652e+02  -1.262411e+02
  -3.086508e+01  -2.585819e+02
   6.070470e+00  -2.181673e+02
  -1.157719e+01  -1.441546e+02
   2.823515e+01  -1.166714e+02
   1.272517e+02  -1.013587e+02
   1.998990e+02  -2.310763e+01
   1.633012e+02   1.118449e+02
   4.119109e+01   1.924625e+02
  -8.637859e+01   1.325005e+02
  -1.386560e+02  -3.956790e+01
  -8.379252e+01  -1.749639e+02
   4.326099e+01  -1.724261e+02
   1.742637e+02  -3.236967e+01
   2.020199e+02   1.244107e+02
   1.029862e+02   2.072633e+02
  -3.569220e+01   1.931724e+02
  -1.016250e+02   1.283454e+02
  -1.036226e+02   8.292377e+01
  -1.322802e+02   6.562226e+01
  -2.281689e+02   1.724758e+01
  -3.110765e+02  -8.660758e+01
  -2.290722e+02  -2.258524e+02
   2.641382e+01  -3.202443e+02
   2.936841e+02  -2.917951e+02
   3.488525e+02  -1.056484e+02
   1.938229e+02   8.254944e+01
   1.514532e+00   1.775484e+02
  -5.920548e+01   1.213494e+02
   1.020889e+01   2.739031e+01
   9.219782e+01  -5.639603e+00
   7.362914e+01   4.556333e+01
  -1.217906e+01   9.277501e+01
  -7.863592e+01   5.071480e+01
  -5.505934e+01  -4.049445e+01
   3.007876e+01  -7.447439e+01
   1.099127e+02   1.706007e+01
   1.017348e+02   1.756996e+02
  -1.671648e+01   2.525885e+02
  -1.835515e+02   1.596675e+02
  -2.786567e+02  -4.538990e+01
  -2.129875e+02  -2.081750e+02
  -2.942171e+01  -2.101768e+02
   1.047358e+02  -9.504561e+01
   1.049457e+02   4.018077e+00
   1.490728e+01   1.134596e+01
  -3.606583e+01  -5.544273e+01
   1.607035e+01  -8.555656e+01
   1.016017e+02  -3.941825e+01
   1.061606e+02   2.587895e+01
   1.730033e+01   4.014287e+01
  -6.044189e+01  -1.368590e+01
  -2.300305e+01  -7.401313e+01
   1.167664e+02  -7.045446e+01
   2.268695e+02   1.977064e+01
   1.921341e+02   1.376201e+02
   1.055178e+01   1.997898e+02
  -1.646815e+02   1.641371e+02
  -1.936353e+02   5.265954e+01
  -8.436894e+01  -3.643850e+01
   2.853161e+01  -4.753436e+01
   3.989658e+01   1.211752e+01
  -4.450340e+01   5.759630e+01
  -1.316675e+02   1.567082e+01
  -1.296688e+02  -7.801667e+01
  -3.397472e+01  -1.357416e+02
   6.665518e+01  -9.315145e+01
   8.891833e+01  -4.927775e+00
   2.504259e+01   2.732407e+01
  -3.807295e+01  -2.338477e+01
  -1.847677e+01  -9.541721e+01
   8.328795e+01  -9.527000e+01
   1.662314e+02  -4.747573e+00
   1.320348e+02   1.081924e+02
   5.349026e-01   1.526102e+02
  -1.160640e+02   1.038750e+02
  -1.208126e+02   5.720625e+00
  -3.341257e+01  -6.612536e+01
   5.001640e+01  -6.671758e+01
   5.131678e+01  -1.837091e+01
  -5.696918e+00   1.615179e+01
  -3.336032e+01   4.817391e-01
   9.071866e+00  -2.654339e+01
   7.833474e+01  -6.623977e+00
   9.177737e+01   7.196561e+01
   8.297079e+00   1.421091e+02
  -1.167336e+02   1.200043e+02
  -1.841067e+02   6.826228e-01
  -1.403015e+02  -1.270947e+02
  -2.097234e+01  -1.700234e+02
   7.965334e+01  -1.142659e+02
   9.880363e+01  -1.913375e+01
   5.731689e+01   3.304744e+01
   2.360194e+01   2.164947e+01
   3.345818e+01  -1.171820e+01
   6.293712e+01  -8.246935e+00
   5.024802e+01   4.336388e+01
  -2.341417e+01   8.633333e+01
  -9.765203e+01   5.758593e+01
  -9.086301e+01  -3.542890e+01
   1.167373e+01  -1.051392e+02
   1.308031e+02  -6.992741e+01
   1.594151e+02   5.373341e+01
   5.501951e+01   1.600476e+02
  -1.028054e+02   1.560760e+02
  -2.004659e+02   5.421745e+01
  -1.777732e+02  -6.647787e+01
  -6.845275e+01  -1.201865e+02
   2.879417e+01  -9.755459e+01
   6.178518e+01  -6.172303e+01
   4.994383e+01  -5.395652e+01
   4.032966e+01  -7.278644e+01
   6.636656e+01  -6.408748e+01
   1.004397e+02   9.539555e+00
   9.362680e+01   1.151089e+02
   2.327359e+01   1.735385e+02
  -7.724504e+01   1.266353e+02
  -1.276767e+02   5.373276e+00
  -9.135154e+01  -9.740182e+01
  -1.274147e+00  -1.133027e+02
   6.144641e+01  -5.344421e+01
   4.914543e+01   1.974595e+01
  -6.425557e+00   4.840452e+01
  -2.908672e+01   3.140355e+01
   9.104535e+00   7.362853e+00
   6.003307e+01   1.021826e+01
   3.778037e+01   3.441502e+01
  -5.729504e+01   3.664542e+01
  -1.403846e+02  -1.091994e+00
  -1.120576e+02  -5.854868e+01
   2.206871e+00  -8.700135e+01
   1.047367e+02  -6.090689e+01
   1.152582e+02   1.260176e+00
   3.755362e+01   4.688374e+01
  -4.182055e+01   4.137826e+01
  -6.057272e+01  -1.183348e+01
  -2.024533e+01  -5.662406e+01
   2.999614e+01  -5.236036e+01
   5.183324e+01  -2.214738e+00
   4.522066e+01   3.875355e+01
   3.287208e+01   2.948003e+01
   4.055666e+01  -2.391165e+00
   4.870203e+01  -1.297149e+00
   4.056373e+01   5.316666e+01
  -1.502717e+01   1.144671e+02
  -9.694596e+01   1.074480e+02
  -1.398780e+02   2.068247e+01
  -9.877405e+01  -7.479230e+01
   3.778846e+00  -1.028056e+02
   7.374109e+01  -5.276767e+01
   4.643968e+01   9.157567e+00
  -4.448919e+01   1.431514e+01
  -9.771942e+01  -3.386100e+01
  -4.612634e+01  -8.201204e+01
   7.058119e+01  -8.240783e+01
   1.412940e+02  -2.816337e+01
   1.128384e+02   3.574469e+01
   1.834855e+01   6.237589e+01
  -4.709777e+01   3.787239e+01
  -3.200786e+01  -9.341797e+00
   3.245638e+01  -2.785038e+01
   7.108819e+01   1.271495e+01
   3.341496e+01   8.824383e+01
  -5.556413e+01   1.191672e+02
  -1.156688e+02   5.453233e+01
  -9.366517e+01  -6.631128e+01
  -1.198607e+01  -1.416307e+02
   6.366720e+01  -1.002314e+02
   7.817204e+01   1.463473e+01
   3.574716e+01   9.148765e+01
  -1.807022e+01   7.534325e+01
  -4.273938e+01   9.356347e+00
  -2.932506e+01  -2.304668e+01
  -8.525556e+00  -4.907014e+00
  -6.734391e+00   1.147488e+01
  -3.023360e+01  -1.733284e+01
  -4.619172e+01  -6.636424e+01
  -2.206273e+01  -7.879848e+01
   4.577738e+01  -3.660928e+01
   1.028225e+02   2.229051e+01
   9.287045e+01   5.100847e+01
   1.687730e+01   4.546175e+01
  -5.671989e+01   2.080404e+01
  -6.379707e+01   3.705243e+00
  -1.562391e+01  -7.533136e+00
   2.261500e+01  -1.266771e+01
   1.535333e+01  -4.781297e+00
  -9.068166e+00   4.299686e+00
  -7.192081e-01   1.317148e+00
   4.382147e+01  -6.027104e+00
   6.868475e+01   1.114425e+01
   2.586795e+01   5.899915e+01
  -6.722511e+01   9.409583e+01
  -1.376247e+02   5.857238e+01
  -1.221170e+02  -3.420589e+01
  -3.282607e+01  -1.164442e+02
   5.741076e+01  -1.180441e+02
   8.781700e+01  -5.359844e+01
   6.261440e+01   1.566064e+01
   2.231515e+01   2.943242e+01
   3.975880e+00   1.022747e+01
   1.036886e+01   6.723776e+00
   1.992537e+01   3.660262e+01
   1.048626e+01   6.788763e+01
  -2.125037e+01   5.517595e+01
  -5.700787e+01  -7.696072e+00
  -6.122535e+01  -7.235217e+01
  -1.478949e+01  -8.192079e+01
   5.300406e+01  -2.942106e+01
   8.065945e+01   4.083360e+01
   3.435433e+01   7.629006e+01
  -4.373487e+01   5.404836e+01
  -8.001797e+01  -5.840172e-01
  -3.913098e+01  -4.453934e+01
   2.450221e+01  -5.186944e+01
   3.537047e+01  -2.369189e+01
  -1.380605e+01   9.103148e+00
  -5.082134e+01   9.567881e+00
  -1.706944e+01  -2.158405e+01
   5.687208e+01  -5.205077e+01
   9.361188e+01  -3.681238e+01
   6.008648e+01   1.495793e+01
  -6.554410e+00   6.702684e+01
  -4.433311e+01   6.685495e+01
  -3.887487e+01   1.276154e+01
  -1.013752e+01  -3.620663e+01
   1.587900e+01  -3.840574e+01
   2.767212e+01   3.240097e+00
   2.109315e+01   4.037678e+01
  -1.045246e+00   3.351254e+01
  -2.629705e+01  -2.868456e+00
  -3.177791e+01  -2.334812e+01
  -1.344868e+01  -7.106538e+00
   6.938570e+00   1.761853e+01
   4.041208e+00   1.264426e+01
  -1.069495e+01  -1.958224e+01
  -8.216124e+00  -4.160976e+01
   1.648484e+01  -2.371483e+01
   3.647515e+01   1.835605e+01
   1.981707e+01   4.021467e+01
  -2.624374e+01   2.118510e+01
  -4.936731e+01  -1.803626e+01
  -1.846460e+01  -3.964463e+01
   4.144545e+01  -2.796356e+01
   7.119896e+01   5.091319e+00
   3.946691e+01   2.969700e+01
  -1.975384e+01   3.682594e+01
  -4.738562e+01   2.524629e+01
  -2.336492e+01   6.005168e+00
   1.583886e+01  -5.290186e+00
   2.252331e+01   1.402934e+00
  -1.227669e+01   1.754982e+01
  -4.991593e+01   1.751759e+01
