
 $NMID
 id='ANONYMOUS ', fmtdat='(2E16.6)'
 volume=1.0
 tramp=1.0
 $END
  -1.136329e+03  -2.594856e+02
  -5.505229e+02  -6.204799e+02
   1.518268e+02  -5.413690e+02
   3.821304e+02  -2.149936e+02
   1.906643e+02  -3.768632e+00
  -5.333880e+01  -1.321924e+01
  -9.620259e+01  -1.116727e+02
   6.920378e+01  -1.818319e+02
   1.734913e+02  -1.400905e+02
   1.602360e+02   1.697762e+01
   7.885718e+01   1.793626e+02
  -4.429476e+01   1.793723e+02
  -9.665279e+01   3.900533e+01
  -5.643471e+01  -1.337503e+02
   3.350361e+01  -1.442684e+02
   9.342638e+01   6.979743e-01
   4.289720e+01   1.396165e+02
  -7.239710e+01   1.374623e+02
  -1.345990e+02   2.100784e+01
  -1.163084e+02  -6.825650e+01
  -1.839028e+01  -8.197522e+01
   3.138577e+01  -5.921466e+01
   2.163815e+01  -3.745726e+01
  -4.254535e+01  -4.735278e+01
  -6.670652e+01  -8.735352e+01
   4.200904e+00  -8.941711e+01
   1.142196e+02  -1.069212e+01
   1.581736e+02   8.332691e+01
   5.528836e+01   1.005504e+02
  -8.535530e+01   2.786077e+01
  -1.238553e+02  -6.668012e+01
  -3.146735e+01  -9.623416e+01
   7.958428e+01  -6.478966e+01
   9.926297e+01  -1.931589e+00
   6.980433e+01   5.628218e+01
  -1.351909e+01   7.031424e+01
  -2.572451e+01   3.755375e+01
   6.182600e+00  -2.966575e+01
   5.665762e+01  -4.771914e+01
   4.254003e+01   3.491666e+01
  -2.612777e+01   1.404126e+02
  -1.017352e+02   1.027746e+02
  -9.230510e+01  -1.470614e+01
  -1.603214e+00  -8.786800e+01
   5.321930e+01  -1.525867e+01
   1.696532e+01   9.250837e+01
  -7.657268e+01   9.191510e+01
  -1.461264e+02  -2.021537e+01
  -1.179036e+02  -9.063680e+01
  -9.006702e+00  -1.041238e+02
   7.932322e+01  -4.408595e+01
   1.066340e+02   2.855949e+01
   6.063849e+01   6.968823e+01
  -2.248616e+01   5.086698e+01
  -8.602950e+01   1.726657e+01
  -5.134132e+01  -1.766627e+00
   6.937748e+00  -1.364730e+00
   4.914495e+00   7.215912e+00
  -3.026131e+01   3.904961e+00
  -5.128504e+01  -3.127127e+01
  -1.500847e+01  -5.218080e+01
   6.138444e+01  -3.979851e+01
   9.232880e+01  -1.767697e+01
   4.890404e+01   1.694997e+01
  -2.623813e+01   4.242059e+01
  -7.822033e+01   6.487575e+01
  -7.337009e+01   3.822642e+01
  -3.638447e+01  -3.548906e+01
   8.014937e+00  -9.467392e+01
   2.877930e+01  -9.011762e+01
   2.533347e+01  -4.552098e+01
   2.441977e+01  -1.355281e+01
   4.153822e+01  -7.072876e+00
   6.100719e+01   3.184679e+00
   5.029687e+01   4.017161e+01
   1.557371e+01   6.922410e+01
  -2.674760e+01   4.668533e+01
  -4.243529e+01  -1.421787e+01
  -2.359913e+01  -6.381837e+01
   2.138459e+01  -5.625939e+01
   6.167051e+01  -5.088588e+00
   6.778999e+01   5.470453e+01
   3.419501e+01   7.698270e+01
  -1.806150e+01   6.080074e+01
  -4.602195e+01   2.639623e+01
  -3.810084e+01   9.378581e+00
  -3.225068e+01   6.251020e+00
  -6.287788e+01  -9.717455e+00
  -9.320702e+01  -5.124222e+01
  -6.211503e+01  -9.155264e+01
   2.527064e+01  -1.112487e+02
   1.130871e+02  -8.209235e+01
   1.189649e+02  -2.843018e+01
   6.640629e+01   2.749683e+01
  -2.402366e+00   5.883114e+01
  -3.104927e+01   4.629538e+01
  -9.596181e+00   1.452884e+01
   2.857428e+01  -7.049966e+00
   3.049254e+01   8.983494e+00
   3.782221e+00   2.882336e+01
  -3.118372e+01   1.753773e+01
  -3.169766e+01  -1.671038e+01
   5.790471e+00  -3.580018e+01
   4.508162e+01   3.816856e+00
   3.983659e+01   6.805670e+01
  -1.886801e+01   8.528139e+01
  -7.165799e+01   3.666848e+01
  -8.818992e+01  -4.020265e+01
  -5.102864e+01  -7.990987e+01
  -5.816742e+00  -7.324905e+01
   3.834061e+01  -3.812167e+01
   4.499721e+01  -6.676755e+00
   1.199495e+01   1.625494e+00
  -1.021761e+01  -1.499551e+01
   6.073518e+00  -2.734393e+01
   3.651223e+01  -1.336819e+01
   3.269091e+01   2.726337e+00
   4.140139e+00   7.784854e+00
  -2.054357e+01  -1.112692e+01
  -1.923755e+00  -2.584219e+01
   5.043134e+01  -1.244442e+01
   8.136641e+01   2.370517e+01
   5.240231e+01   5.477010e+01
  -9.331059e+00   6.058033e+01
  -6.521114e+01   4.492314e+01
  -7.057202e+01   2.050948e+01
  -3.317913e+01  -9.723125e+00
   9.824411e+00  -1.757989e+01
   1.557547e+01  -2.490688e+00
  -1.920108e+01   1.424174e+01
  -5.380873e+01  -3.296289e-01
  -4.658086e+01  -3.798334e+01
  -5.856141e+00  -4.855030e+01
   2.641245e+01  -2.954471e+01
   3.192171e+01  -3.522310e+00
   1.570577e+01   3.262852e+00
  -3.832645e+00  -8.382741e+00
  -4.013264e-01  -2.414442e+01
   2.674719e+01  -1.889218e+01
   4.829601e+01   1.100117e+01
   3.634401e+01   4.142171e+01
  -7.319762e+00   4.972195e+01
  -4.576218e+01   2.678592e+01
  -4.418932e+01  -8.221983e+00
  -1.171633e+01  -2.696031e+01
   1.375538e+01  -2.140473e+01
   1.642926e+01  -2.555031e+00
  -6.852597e-01   5.773695e+00
  -8.401182e+00   1.733802e-01
   2.117893e+00  -3.477555e+00
   1.815439e+01   7.164974e+00
   1.690915e+01   2.973362e+01
  -6.478588e+00   4.442460e+01
  -4.285639e+01   3.004948e+01
  -6.073125e+01  -1.157219e+01
  -4.056343e+01  -4.791935e+01
   1.944171e+00  -5.518292e+01
   3.136123e+01  -2.919276e+01
   2.898214e+01   2.251639e+00
   1.178788e+01   1.201627e+01
   5.998187e+00   4.208419e+00
   1.556056e+01  -5.279004e+00
   2.117400e+01   2.553918e+00
   9.666832e+00   1.714182e+01
  -1.578577e+01   2.560262e+01
  -3.430304e+01   1.245112e+01
  -2.438043e+01  -1.540069e+01
   9.107629e+00  -3.166969e+01
   4.249022e+01  -1.386310e+01
   4.816915e+01   2.674005e+01
   1.013001e+01   5.889466e+01
  -4.330988e+01   4.433704e+01
  -7.415683e+01  -2.553440e+00
  -5.996065e+01  -4.026887e+01
  -1.804471e+01  -4.934549e+01
   1.894802e+01  -3.230089e+01
   2.999237e+01  -1.758601e+01
   2.515738e+01  -1.661958e+01
   2.209128e+01  -2.259080e+01
   2.696997e+01  -1.503446e+01
   3.095500e+01   1.542751e+01
   2.002999e+01   4.830978e+01
  -3.981690e+00   5.452495e+01
  -3.255178e+01   3.182434e+01
  -4.165116e+01  -7.391814e+00
  -2.319326e+01  -3.792272e+01
   4.848003e+00  -3.528772e+01
   2.074928e+01  -1.507697e+01
   1.100029e+01   2.378594e+00
  -7.384272e+00   1.044969e+01
  -9.754601e+00   8.007760e+00
   7.274546e+00   6.106888e+00
   2.201253e+01   1.096117e+01
   9.392454e+00   7.674627e+00
  -2.241883e+01  -1.524719e+00
  -4.462778e+01  -1.737540e+01
  -2.808937e+01  -2.387546e+01
   1.052334e+01  -1.809134e+01
   4.097830e+01  -7.989554e+00
   3.675233e+01   4.318943e+00
   5.766142e+00   1.097416e+01
  -1.692192e+01   5.268445e+00
  -1.649709e+01  -7.601437e+00
   1.080415e+00  -1.750072e+01
   1.562093e+01  -1.302917e+01
   1.302861e+01   4.288945e+00
   6.623557e+00   1.407593e+01
   5.508023e+00   6.515250e+00
   1.649626e+01  -2.316955e+00
   1.930469e+01  -1.436640e+00
   9.157656e+00   2.028267e+01
  -1.351475e+01   4.028881e+01
  -3.729952e+01   2.822355e+01
  -4.312573e+01  -5.803306e+00
  -2.534796e+01  -3.201944e+01
   8.352370e+00  -3.143325e+01
   2.673719e+01  -9.690569e+00
   1.325553e+01   6.283117e+00
  -1.646744e+01  -2.316645e+00
  -3.153961e+01  -2.308022e+01
  -1.401476e+01  -3.226753e+01
   2.127460e+01  -2.065135e+01
   4.802109e+01   8.447178e-01
   3.973995e+01   1.997890e+01
   3.456157e+00   2.569818e+01
  -2.446685e+01   1.572557e+01
  -1.765415e+01  -2.445970e-01
   8.878953e+00  -4.691162e+00
   2.395116e+01   9.826768e+00
   4.137383e+00   3.002948e+01
  -2.968600e+01   3.505710e+01
  -4.416916e+01   8.638792e+00
  -2.785514e+01  -2.978363e+01
   6.681009e+00  -4.716477e+01
   2.473918e+01  -3.187596e+01
   2.205097e+01   6.310772e+00
   7.429922e+00   3.056271e+01
  -6.858496e+00   2.566035e+01
  -1.359086e+01   2.324426e+00
  -1.119932e+01  -1.127445e+01
  -4.572229e+00  -2.528984e+00
  -2.479731e+00   4.652429e+00
  -5.931119e+00  -7.444996e+00
  -1.367466e+01  -2.561323e+01
  -6.727918e+00  -2.887204e+01
   1.292735e+01  -8.380790e+00
   3.167043e+01   1.355648e+01
   3.091300e+01   1.835569e+01
   6.089671e+00   1.134916e+01
  -1.910113e+01   4.347418e-01
  -1.989311e+01  -1.017739e+00
  -2.309430e+00  -6.807369e-01
   9.365489e+00  -3.112086e+00
   4.144300e+00  -4.168617e+00
  -5.445589e+00  -1.677458e+00
  -2.007561e-01   2.149648e+00
   1.661536e+01   3.158430e+00
   2.364429e+01   7.840891e+00
   3.388764e+00   1.883526e+01
  -3.090155e+01   2.403486e+01
  -4.843501e+01   9.562583e+00
  -3.639995e+01  -1.826433e+01
  -1.229263e+00  -3.977824e+01
   2.517986e+01  -3.478486e+01
   3.299333e+01  -1.277633e+01
   1.842179e+01   3.535421e+00
   4.645157e+00   8.155334e+00
  -8.696878e-01   1.551031e+00
   2.638144e+00   3.149727e+00
   7.455998e+00   1.431623e+01
   2.949637e+00   2.291614e+01
  -1.042594e+01   1.583191e+01
  -1.942314e+01  -8.224944e+00
  -1.715669e+01  -2.897318e+01
  -6.787437e-01  -2.598126e+01
   1.838493e+01  -3.074407e+00
   2.103890e+01   1.804985e+01
   4.999393e+00   2.401915e+01
  -1.621397e+01   1.184167e+01
  -2.568208e+01  -6.288408e+00
  -1.082020e+01  -1.463664e+01
   1.124517e+01  -1.408171e+01
   1.086178e+01  -7.165710e+00
  -9.431209e+00  -1.237324e+00
  -2.074121e+01  -1.661303e+00
  -1.654992e+00  -8.036728e+00
   2.924917e+01  -1.265590e+01
   3.880594e+01  -1.008724e+01
   1.667664e+01   6.437492e+00
  -1.180041e+01   2.053479e+01
  -2.084975e+01   2.126057e+01
  -1.079047e+01   2.197645e+00
   3.376280e-02  -1.316160e+01
   7.134527e+00  -1.143656e+01
   7.692705e+00   3.412872e+00
   6.277635e+00   1.489817e+01
  -2.303694e-01   9.365872e+00
  -7.471666e+00  -3.691274e+00
  -1.181874e+01  -8.209491e+00
  -8.163319e+00  -1.889754e+00
  -1.074988e-01   5.652373e+00
   2.705904e+00   1.971475e+00
   2.414477e+00  -8.170391e+00
   3.643962e+00  -1.302375e+01
   6.242557e+00  -2.139090e+00
   7.411102e+00   1.227395e+01
  -7.222792e-01   1.400884e+01
  -1.171617e+01   2.615171e+00
  -1.308088e+01  -1.092706e+01
  -5.010258e-01  -1.314917e+01
   1.658189e+01  -3.515479e+00
   2.230358e+01   9.212807e+00
   1.032931e+01   1.463528e+01
  -1.148923e+01   9.520006e+00
  -1.877568e+01   4.302283e+00
  -8.585680e+00   1.977674e+00
   6.465422e+00   2.229094e+00
   7.743445e+00   3.775998e+00
  -4.845740e+00   5.555407e+00
  -2.095804e+01   3.392247e+00
