
 $NMID
 id='ANONYMOUS ', fmtdat='(2E16.6)'
 volume=1.0
 tramp=1.0
 $END
   3.275040e+03  -3.725237e+02
   2.129290e+03   1.501757e+03
  -1.980871e+02   2.048958e+03
  -1.418542e+03   1.037584e+03
  -8.805922e+02  -1.171987e+02
   2.031387e+02  -3.565009e+02
   5.529015e+02   1.997910e+02
   6.427721e+01   6.795070e+02
  -5.393763e+02   6.153254e+02
  -6.821807e+02   1.238825e+01
  -3.906218e+02  -5.601236e+02
   6.936790e+01  -6.370391e+02
   3.855559e+02  -1.290754e+02
   2.705640e+02   4.843038e+02
  -1.604402e+02   5.677660e+02
  -4.320846e+02   4.361586e+01
  -2.498107e+02  -5.059930e+02
   1.803271e+02  -5.672745e+02
   4.482407e+02  -1.756720e+02
   3.567995e+02   2.257658e+02
   7.989062e+01   3.518698e+02
  -1.204450e+02   2.135684e+02
  -7.606147e+01   4.118214e+01
   1.634578e+02   3.050559e+01
   2.947879e+02   2.011920e+02
   5.183267e+01   3.424681e+02
  -4.066629e+02   2.218084e+02
  -5.993063e+02  -1.246547e+02
  -2.362877e+02  -3.636458e+02
   3.146483e+02  -2.602571e+02
   5.206740e+02   9.240531e+01
   2.056199e+02   3.669443e+02
  -2.510695e+02   3.540664e+02
  -4.530393e+02   1.118728e+02
  -3.197768e+02  -1.773746e+02
  -6.289134e+01  -3.340810e+02
   1.104158e+02  -2.008453e+02
   5.152094e+01   1.127465e+02
  -1.367262e+02   2.132841e+02
  -2.506450e+02  -8.973810e+01
  -8.475856e+01  -4.883031e+02
   2.482393e+02  -4.501530e+02
   3.949439e+02   3.258321e+00
   1.682468e+02   3.475329e+02
  -1.731614e+02   1.802936e+02
  -2.385908e+02  -2.494416e+02
   7.937481e+01  -3.913583e+02
   4.384535e+02  -9.202879e+01
   4.976542e+02   3.238673e+02
   1.603556e+02   4.660752e+02
  -2.823763e+02   2.654877e+02
  -4.874553e+02  -5.748807e+01
  -3.096656e+02  -2.600362e+02
   7.643318e+01  -2.494620e+02
   2.944199e+02  -8.336928e+01
   1.920617e+02   6.607104e+01
  -2.243404e+01   4.038027e+01
  -6.791149e+01  -9.427609e+01
   1.065770e+02  -1.079516e+02
   2.503769e+02   4.800886e+01
   1.219709e+02   2.050525e+02
  -1.468411e+02   2.240947e+02
  -2.920618e+02   1.012701e+02
  -1.990509e+02  -9.416798e+01
   3.504553e+01  -2.652986e+02
   2.428605e+02  -3.109500e+02
   3.077370e+02  -1.590286e+02
   2.328129e+02   1.306606e+02
   8.269907e+01   3.309109e+02
  -2.272374e+01   2.938192e+02
  -3.892637e+01   1.275535e+02
  -2.796485e+01   5.277915e+01
  -9.332376e+01   9.247595e+01
  -2.102868e+02   7.815845e+01
  -2.208393e+02  -8.395510e+01
  -9.523779e+01  -2.388236e+02
   8.262736e+01  -1.993879e+02
   1.888926e+02   1.231522e+01
   1.442217e+02   2.093361e+02
  -2.714038e+01   2.408990e+02
  -2.221802e+02   8.385677e+01
  -2.935074e+02  -1.445448e+02
  -1.672061e+02  -2.863597e+02
   4.375423e+01  -2.594558e+02
   1.570632e+02  -1.307109e+02
   1.290569e+02  -5.618907e+01
   1.184678e+02  -6.575659e+01
   2.390048e+02  -5.884840e+01
   3.563882e+02   5.670901e+01
   2.789834e+02   2.465582e+02
  -8.244450e+00   3.839634e+02
  -3.072088e+02   3.556552e+02
  -4.193871e+02   1.635660e+02
  -2.672395e+02  -8.971016e+01
  -3.500579e+01  -2.329607e+02
   8.683092e+01  -1.888504e+02
   2.638083e+01  -2.791473e+01
  -9.592372e+01   5.400973e+01
  -1.285936e+02  -2.060489e+01
  -2.137904e+01  -1.372394e+02
   1.118190e+02  -1.122226e+02
   1.085468e+02   4.364140e+01
  -2.970559e+01   1.302662e+02
  -1.571696e+02   1.312961e+01
  -1.441339e+02  -2.085012e+02
   1.571352e+01  -3.066833e+02
   2.106114e+02  -1.812270e+02
   2.993841e+02   4.856804e+01
   2.380228e+02   2.153748e+02
   5.411189e+01   2.300978e+02
  -1.108550e+02   1.264174e+02
  -1.440347e+02   7.574207e+00
  -3.980576e+01  -2.007320e+01
   5.087454e+01   4.931192e+01
   6.915775e+00   1.057055e+02
  -1.106058e+02   6.994497e+01
  -1.466761e+02  -2.023783e+01
  -3.990933e+01  -5.317467e+01
   7.167473e+01   5.592460e+00
   3.927832e+01   8.135000e+01
  -1.248811e+02   7.963433e+01
  -2.659499e+02  -1.411756e+01
  -2.335237e+02  -1.455090e+02
  -3.744734e+01  -2.328132e+02
   1.646316e+02  -2.139690e+02
   2.305396e+02  -8.854034e+01
   1.256633e+02   4.756646e+01
  -2.563180e+01   8.472970e+01
  -6.178160e+01   1.985205e+00
   3.953587e+01  -7.988035e+01
   1.631816e+02  -4.175554e+01
   1.697711e+02   8.544429e+01
   4.832430e+01   1.689030e+02
  -8.371676e+01   1.240360e+02
  -1.134341e+02   1.612722e+01
  -4.250590e+01  -3.321438e+01
   3.489411e+01   1.291270e+01
   2.443216e+01   8.991654e+01
  -8.341684e+01   1.067782e+02
  -1.841103e+02   2.288042e+01
  -1.636672e+02  -1.124084e+02
  -1.415319e+01  -1.898255e+02
   1.369006e+02  -1.421697e+02
   1.578153e+02  -8.614498e+00
   5.237669e+01   9.433640e+01
  -5.555549e+01   9.514702e+01
  -6.382652e+01   2.207178e+01
  -3.446294e+00  -2.461248e+01
   2.941065e+01  -8.161468e+00
  -7.944926e+00   2.265257e+01
  -7.402929e+01   2.796595e+00
  -8.948577e+01  -7.642394e+01
  -9.414008e+00  -1.524049e+02
   1.241569e+02  -1.364450e+02
   2.122630e+02  -1.175706e+01
   1.729422e+02   1.430350e+02
   3.268006e+01   2.099550e+02
  -9.543930e+01   1.453282e+02
  -1.189523e+02   2.371392e+01
  -6.668165e+01  -4.602704e+01
  -2.930361e+01  -2.872292e+01
  -4.827666e+01   1.252777e+01
  -7.157184e+01   4.378177e+00
  -4.160665e+01  -5.067443e+01
   3.845202e+01  -9.084958e+01
   1.020269e+02  -5.576597e+01
   8.825124e+01   3.975502e+01
  -1.511227e+01   1.127411e+02
  -1.393073e+02   8.005378e+01
  -1.811953e+02  -5.477197e+01
  -7.726320e+01  -1.845709e+02
   1.063033e+02  -1.966884e+02
   2.358515e+02  -7.832509e+01
   2.165826e+02   7.774799e+01
   8.583912e+01   1.518607e+02
  -3.674165e+01   1.252732e+02
  -7.900495e+01   6.960227e+01
  -6.124663e+01   6.090365e+01
  -5.134946e+01   8.253350e+01
  -8.166241e+01   6.839658e+01
  -1.209695e+02  -1.764757e+01
  -1.126753e+02  -1.371009e+02
  -2.819799e+01  -2.033305e+02
   8.964845e+01  -1.526396e+02
   1.543355e+02  -1.405939e+01
   1.163230e+02   1.073100e+02
   1.323610e+01   1.386535e+02
  -6.296688e+01   7.219916e+01
  -5.422555e+01  -1.143146e+01
   1.397219e+00  -4.793994e+01
   1.997345e+01  -3.176057e+01
  -2.300937e+01  -9.116818e+00
  -6.989865e+01  -1.290278e+01
  -4.221511e+01  -3.286054e+01
   6.175685e+01  -3.706778e+01
   1.461648e+02  -1.382121e+00
   1.243506e+02   5.043100e+01
   2.740864e+00   8.254650e+01
  -1.128246e+02   6.707952e+01
  -1.272492e+02   9.639682e+00
  -3.937469e+01  -4.251123e+01
   5.477669e+01  -4.079132e+01
   6.877915e+01   1.349844e+01
   1.290625e+01   6.498822e+01
  -4.510353e+01   5.815353e+01
  -6.088177e+01  -3.343511e-01
  -4.643592e+01  -4.842530e+01
  -3.827020e+01  -4.123928e+01
  -4.776010e+01   9.300885e-01
  -5.847537e+01   3.097011e+00
  -3.831640e+01  -5.908337e+01
   2.554563e+01  -1.315289e+02
   1.053522e+02  -1.251236e+02
   1.484802e+02  -3.016531e+01
   1.102218e+02   8.420345e+01
   5.301159e+00   1.199125e+02
  -7.757061e+01   6.208044e+01
  -5.570656e+01  -1.116551e+01
   4.978347e+01  -2.327131e+01
   1.176522e+02   3.390511e+01
   6.248213e+01   9.575577e+01
  -6.987068e+01   1.033931e+02
  -1.637866e+02   4.456445e+01
  -1.369284e+02  -3.734343e+01
  -3.020176e+01  -7.689872e+01
   5.162536e+01  -5.606727e+01
   4.113669e+01  -4.413649e-01
  -3.287011e+01   2.656670e+01
  -7.885117e+01  -1.702561e+01
  -3.477382e+01  -1.033788e+02
   7.085124e+01  -1.376421e+02
   1.416221e+02  -6.143970e+01
   1.133202e+02   8.213310e+01
   1.564934e+01   1.690280e+02
  -7.154543e+01   1.234552e+02
  -9.174716e+01  -8.943424e+00
  -4.848376e+01  -1.038721e+02
   9.691141e+00  -8.970673e+01
   4.245102e+01  -1.217439e+01
   3.994827e+01   2.995921e+01
   1.573215e+01   6.939744e+00
   5.279392e+00  -1.673980e+01
   2.371327e+01   1.486542e+01
   4.752034e+01   7.716723e+01
   2.920217e+01   9.222969e+01
  -4.763589e+01   3.759784e+01
  -1.197528e+02  -3.384877e+01
  -1.095002e+02  -6.579134e+01
  -1.386231e+01  -4.889410e+01
   7.357154e+01  -2.471109e+01
   7.978598e+01  -6.782501e+00
   1.557083e+01   9.711280e+00
  -3.128254e+01   1.847869e+01
  -1.574745e+01   9.897529e+00
   1.529717e+01  -5.239505e+00
  -9.741862e-01  -4.662650e+00
  -5.711993e+01   4.070738e-01
  -7.773286e+01  -2.090120e+01
  -1.355372e+01  -7.199164e+01
   9.590603e+01  -1.013580e+02
   1.627372e+02  -5.371023e+01
   1.315651e+02   5.377765e+01
   3.058829e+01   1.402625e+02
  -6.606501e+01   1.378874e+02
  -1.002898e+02   6.042930e+01
  -7.328249e+01  -1.314505e+01
  -2.495504e+01  -3.106030e+01
  -3.756624e+00  -1.121518e+01
  -1.533855e+01  -6.481840e+00
  -3.031850e+01  -4.187622e+01
  -1.796983e+01  -8.081947e+01
   2.641166e+01  -6.507176e+01
   7.188541e+01   1.222346e+01
   7.318592e+01   8.997054e+01
   1.036268e+01   9.843828e+01
  -7.079554e+01   2.663522e+01
  -9.371674e+01  -5.906480e+01
  -3.394518e+01  -9.072152e+01
   5.607710e+01  -5.499981e+01
   9.095209e+01   5.748049e+00
   4.018364e+01   4.686836e+01
  -2.833877e+01   4.926984e+01
  -2.911157e+01   2.323956e+01
   2.455386e+01  -5.766542e+00
   5.722882e+01  -8.112877e+00
   1.431362e+01   2.374192e+01
  -6.529750e+01   5.647840e+01
  -9.839049e+01   4.803359e+01
  -5.613415e+01  -1.369199e+01
   9.811380e+00  -7.283259e+01
   4.411930e+01  -6.790818e+01
   3.579335e+01  -6.713086e+00
   3.230167e+00   4.709198e+01
  -2.139118e+01   4.035053e+01
  -3.136770e+01  -1.004412e+01
  -2.326729e+01  -4.588373e+01
   1.484541e+00  -3.271136e+01
   2.874137e+01   5.215426e+00
   3.464724e+01   2.039537e+01
   1.688749e+01   2.826587e+00
  -1.709010e+00  -1.562111e+01
  -4.605215e+00  -5.254913e+00
   1.171570e+00   2.831828e+01
  -4.223086e+00   4.564229e+01
  -2.546932e+01   1.730650e+01
  -3.370005e+01  -3.241682e+01
  -7.044929e+00  -5.054742e+01
   3.588446e+01  -2.138914e+01
   5.188371e+01   2.983877e+01
   1.557565e+01   5.537657e+01
  -4.871276e+01   3.231936e+01
  -7.966031e+01  -1.022234e+01
  -4.387052e+01  -3.749263e+01
   2.431008e+01  -3.829942e+01
   5.535473e+01  -2.379999e+01
   2.185489e+01  -4.586774e+00
  -2.705318e+01   2.380718e+00
  -3.054679e+01  -7.423088e+00
   2.234815e+01  -2.302008e+01
   7.132916e+01  -1.817244e+01
