
 $NMID
 id='ANONYMOUS ', fmtdat='(2E16.6)'
 volume=1.0
 tramp=1.0
 $END
  -3.409788e+03   5.159376e+01
  -2.442755e+03  -1.745117e+03
  -1.198485e+02  -2.146084e+03
   1.212582e+03  -1.324267e+03
   9.646345e+02  -1.607793e+02
  -7.058632e+01   2.656706e+02
  -4.823670e+02  -9.533624e+01
  -8.674701e+01  -6.196056e+02
   4.941998e+02  -6.256810e+02
   7.441715e+02  -1.087441e+02
   5.078002e+02   5.572997e+02
   5.566560e+00   7.490017e+02
  -3.720115e+02   2.367820e+02
  -3.290904e+02  -4.390031e+02
   1.181432e+02  -5.974748e+02
   4.651563e+02  -1.001182e+02
   3.468903e+02   5.228707e+02
  -1.333273e+02   6.710197e+02
  -5.101612e+02   2.837374e+02
  -4.687372e+02  -2.145079e+02
  -1.342828e+02  -4.033216e+02
   1.467724e+02  -2.660613e+02
   1.199550e+02  -6.671134e+01
  -1.438762e+02  -4.879320e+01
  -3.031956e+02  -2.148912e+02
  -4.972784e+01  -3.546932e+02
   4.546431e+02  -2.488908e+02
   6.466328e+02   1.118405e+02
   2.921531e+02   3.735047e+02
  -3.146550e+02   2.821023e+02
  -5.497364e+02  -5.506898e+01
  -2.366243e+02  -3.724810e+02
   2.561612e+02  -4.050453e+02
   5.020102e+02  -1.672701e+02
   3.533451e+02   1.598890e+02
   8.324914e+01   3.497762e+02
  -5.903064e+01   2.152718e+02
  -1.440311e+01  -1.037051e+02
   1.491403e+02  -2.210053e+02
   2.452615e+02   8.404010e+01
   1.136205e+02   4.920097e+02
  -1.969147e+02   4.902455e+02
  -3.479326e+02   3.528815e+01
  -1.606133e+02  -3.456480e+02
   1.572648e+02  -1.937951e+02
   2.289955e+02   2.714125e+02
  -5.965089e+01   4.158268e+02
  -4.424560e+02   8.712935e+01
  -4.858315e+02  -3.716061e+02
  -1.584335e+02  -5.197606e+02
   3.079071e+02  -3.011029e+02
   5.337608e+02   4.800274e+01
   3.588785e+02   2.682217e+02
  -4.864099e+01   2.556513e+02
  -3.156476e+02   8.825784e+01
  -2.193379e+02  -6.772662e+01
   1.501461e+01  -6.338394e+01
   8.653981e+01   6.076859e+01
  -9.293522e+01   9.137097e+01
  -2.503548e+02  -4.006562e+01
  -1.434122e+02  -2.099677e+02
   1.558229e+02  -2.609893e+02
   3.401444e+02  -1.268041e+02
   2.592937e+02   1.057001e+02
  -2.051494e+01   3.119687e+02
  -2.897458e+02   3.419882e+02
  -3.752297e+02   1.504410e+02
  -2.426922e+02  -1.629657e+02
  -6.011682e+01  -3.654296e+02
   5.001745e+01  -3.317975e+02
   4.640966e+01  -1.610509e+02
   4.335777e+01  -8.144269e+01
   1.217712e+02  -1.094547e+02
   2.273835e+02  -7.021988e+01
   2.386653e+02   9.894323e+01
   1.036073e+02   2.510352e+02
  -8.919037e+01   2.002728e+02
  -1.989398e+02  -3.544528e+01
  -1.491923e+02  -2.388217e+02
   3.936415e+01  -2.569069e+02
   2.462614e+02  -7.393187e+01
   3.124288e+02   1.612465e+02
   1.659188e+02   2.939598e+02
  -6.440722e+01   2.684205e+02
  -1.852853e+02   1.492338e+02
  -1.567898e+02   6.549630e+01
  -1.394769e+02   5.480743e+01
  -2.591477e+02   3.546811e+01
  -4.005125e+02  -8.628753e+01
  -3.259302e+02  -2.877061e+02
   1.666795e+01  -4.374385e+02
   3.652111e+02  -3.945240e+02
   4.662467e+02  -1.666539e+02
   2.910909e+02   1.033260e+02
   2.866949e+01   2.559370e+02
  -8.773164e+01   2.113471e+02
  -2.202140e+01   4.135863e+01
   1.041675e+02  -4.752021e+01
   1.320054e+02   2.495315e+01
   1.592900e+01   1.384328e+02
  -1.132918e+02   1.127581e+02
  -1.152974e+02  -4.759126e+01
   2.881155e+01  -1.352882e+02
   1.635693e+02  -9.759045e-01
   1.494828e+02   2.378193e+02
  -2.735035e+01   3.432448e+02
  -2.455323e+02   2.057995e+02
  -3.568056e+02  -5.720321e+01
  -2.807857e+02  -2.461240e+02
  -6.840454e+01  -2.687733e+02
   1.167836e+02  -1.462958e+02
   1.474797e+02  -1.097749e+01
   3.512391e+01   1.527835e+01
  -5.195355e+01  -5.606091e+01
   6.527657e-01  -1.125917e+02
   1.230679e+02  -6.907123e+01
   1.494133e+02   3.034167e+01
   3.290006e+01   6.350587e+01
  -8.243956e+01  -2.356055e+00
  -4.334561e+01  -8.757581e+01
   1.366298e+02  -9.059999e+01
   2.886895e+02   1.555599e+01
   2.550724e+02   1.653034e+02
   4.038950e+01   2.595710e+02
  -1.948453e+02   2.401596e+02
  -2.659677e+02   9.691576e+01
  -1.450487e+02  -4.915035e+01
   2.488031e+01  -8.305326e+01
   6.797648e+01   2.411063e+00
  -4.708418e+01   8.626658e+01
  -1.842395e+02   3.780525e+01
  -1.910800e+02  -1.017825e+02
  -6.137075e+01  -1.902459e+02
   8.873717e+01  -1.372254e+02
   1.253295e+02  -1.672966e+01
   4.537266e+01   3.384573e+01
  -4.195678e+01  -2.009862e+01
  -2.714359e+01  -1.056390e+02
   9.743332e+01  -1.142738e+02
   2.102171e+02  -1.107801e+01
   1.833681e+02   1.323443e+02
   1.321739e+01   2.097488e+02
  -1.574624e+02   1.504080e+02
  -1.770207e+02   1.049013e+01
  -5.693041e+01  -9.411622e+01
   6.487014e+01  -9.062611e+01
   7.340782e+01  -2.080821e+01
   5.564393e+00   2.775245e+01
  -3.554918e+01   1.084801e+01
   7.294479e+00  -2.346874e+01
   8.495143e+01   8.583653e-01
   1.025729e+02   9.209782e+01
   1.027485e+01   1.728451e+02
  -1.430263e+02   1.527268e+02
  -2.403420e+02   9.574126e+00
  -1.913968e+02  -1.610452e+02
  -3.326536e+01  -2.299925e+02
   1.061274e+02  -1.576931e+02
   1.307072e+02  -2.442878e+01
   6.939774e+01   4.908176e+01
   2.617132e+01   2.888635e+01
   5.027044e+01  -2.059658e+01
   8.741501e+01  -1.252485e+01
   5.735568e+01   5.533394e+01
  -3.702243e+01   1.044939e+02
  -1.174728e+02   6.433884e+01
  -1.031294e+02  -4.502225e+01
   1.794665e+01  -1.262198e+02
   1.619260e+02  -8.403269e+01
   2.047324e+02   6.632982e+01
   8.854274e+01   2.082938e+02
  -1.167910e+02   2.174379e+02
  -2.657849e+02   8.166692e+01
  -2.485181e+02  -8.626759e+01
  -1.048879e+02  -1.624942e+02
   3.413834e+01  -1.360949e+02
   8.612020e+01  -7.982248e+01
   6.798478e+01  -7.051467e+01
   5.684224e+01  -9.658939e+01
   8.879595e+01  -8.036363e+01
   1.316977e+02   1.831561e+01
   1.168350e+02   1.505604e+02
   2.269249e+01   2.171511e+02
  -1.034121e+02   1.607971e+02
  -1.702000e+02   9.378182e+00
  -1.234224e+02  -1.260958e+02
  -6.629040e+00  -1.542835e+02
   7.456542e+01  -8.348793e+01
   6.188489e+01   1.124277e+01
  -3.163250e+00   5.260948e+01
  -2.534685e+01   3.585931e+01
   2.954163e+01   1.017191e+01
   8.575936e+01   1.813905e+01
   4.802329e+01   4.334399e+01
  -7.502505e+01   4.637455e+01
  -1.743388e+02  -3.054289e-01
  -1.412365e+02  -6.410727e+01
   1.855009e+00  -1.011148e+02
   1.311907e+02  -7.434558e+01
   1.414108e+02  -5.316430e+00
   4.165571e+01   5.376091e+01
  -6.166292e+01   4.868925e+01
  -7.694781e+01  -1.810999e+01
  -1.763561e+01  -7.704822e+01
   4.808981e+01  -6.676575e+01
   6.858440e+01   4.202582e-01
   5.420890e+01   5.404196e+01
   4.404694e+01   4.403529e+01
   5.014732e+01   8.356129e-01
   6.182953e+01   1.572131e+00
   4.154950e+01   7.428458e+01
  -2.472337e+01   1.499933e+02
  -1.226711e+02   1.400592e+02
  -1.766539e+02   2.833733e+01
  -1.294375e+02  -9.472197e+01
  -1.571299e+00  -1.286971e+02
   9.284441e+01  -6.420537e+01
   6.246610e+01   1.250990e+01
  -5.549416e+01   2.284071e+01
  -1.322454e+02  -3.845035e+01
  -7.266302e+01  -1.009203e+02
   8.401964e+01  -1.032461e+02
   1.902760e+02  -4.051734e+01
   1.550006e+02   3.824698e+01
   2.986782e+01   8.355621e+01
  -6.324789e+01   6.069107e+01
  -4.600522e+01   4.002747e-01
   4.339265e+01  -2.800772e+01
   9.395091e+01   1.989998e+01
   4.023421e+01   1.157215e+02
  -7.764645e+01   1.570795e+02
  -1.569026e+02   7.417734e+01
  -1.293481e+02  -8.956093e+01
  -2.031116e+01  -1.918700e+02
   7.748767e+01  -1.389910e+02
   1.022954e+02   1.054490e+01
   5.670248e+01   1.154412e+02
  -1.025031e+01   9.874660e+01
  -4.819640e+01   1.314243e+01
  -4.383836e+01  -2.994197e+01
  -1.549122e+01  -4.850421e+00
  -5.255530e+00   1.768868e+01
  -3.084954e+01  -1.959272e+01
  -6.082447e+01  -8.496380e+01
  -3.454782e+01  -1.017777e+02
   5.727334e+01  -4.280610e+01
   1.354264e+02   3.292396e+01
   1.197770e+02   6.708171e+01
   1.424650e+01   5.417587e+01
  -7.975939e+01   2.630540e+01
  -8.446216e+01   3.904840e+00
  -1.562824e+01  -1.530850e+01
   3.351906e+01  -2.438033e+01
   1.828846e+01  -1.150946e+01
  -1.610788e+01   5.706532e+00
   1.128058e+00   4.606675e+00
   6.596556e+01  -4.066144e+00
   9.136596e+01   1.809852e+01
   2.130013e+01   8.016277e+01
  -1.031641e+02   1.195265e+02
  -1.852359e+02   6.567883e+01
  -1.500226e+02  -6.251060e+01
  -3.019168e+01  -1.604838e+02
   8.131594e+01  -1.520226e+02
   1.147608e+02  -6.015099e+01
   7.744138e+01   2.392085e+01
   2.692590e+01   3.874265e+01
   1.371945e+00   1.251654e+01
   1.184004e+01   7.093552e+00
   2.886720e+01   4.563712e+01
   1.940760e+01   8.885311e+01
  -2.654214e+01   7.386270e+01
  -7.800717e+01  -1.148633e+01
  -8.353112e+01  -9.609066e+01
  -1.478655e+01  -1.071756e+02
   7.750270e+01  -3.280114e+01
   1.084499e+02   6.336060e+01
   4.057717e+01   1.041870e+02
  -6.473633e+01   6.629566e+01
  -1.052818e+02  -6.060621e+00
  -4.507588e+01  -5.507085e+01
   3.247727e+01  -6.168691e+01
   3.784774e+01  -3.084786e+01
  -2.770285e+01   6.343467e+00
  -6.869966e+01   1.054917e+01
  -1.881275e+01  -2.912653e+01
   7.827162e+01  -6.962928e+01
   1.195897e+02  -5.595630e+01
   7.039813e+01   1.811799e+01
  -1.375568e+01   8.778225e+01
  -5.529299e+01   8.556891e+01
  -4.588146e+01   1.167198e+01
  -8.179580e+00  -5.218174e+01
   2.378317e+01  -4.845526e+01
   3.680533e+01   1.076366e+01
   2.725646e+01   5.412176e+01
  -1.367090e+00   3.892154e+01
  -3.315172e+01  -4.779812e+00
  -4.119725e+01  -2.458973e+01
  -1.990563e+01  -3.909317e+00
   3.331214e+00   1.940871e+01
   6.480727e+00   6.987377e+00
  -4.498159e+00  -3.258671e+01
   1.011758e+00  -5.242289e+01
   2.730732e+01  -1.964124e+01
   4.135168e+01   3.674842e+01
   1.138331e+01   5.946394e+01
  -4.188939e+01   2.582713e+01
  -6.325328e+01  -3.382578e+01
  -2.235761e+01  -6.288576e+01
   5.667607e+01  -3.833389e+01
   9.503495e+01   9.897193e+00
   5.368686e+01   4.287404e+01
  -2.726582e+01   4.793474e+01
  -6.492893e+01   3.077164e+01
  -2.851861e+01   6.085708e+00
   2.779094e+01  -5.599915e+00
   3.352930e+01   5.820057e+00
  -2.345943e+01   2.696905e+01
  -7.730850e+01   2.278944e+01
