
 $NMID
 id='ANONYMOUS ', fmtdat='(2E16.6)'
 volume=1.0
 tramp=1.0
 $END
  -2.950448e+03  -2.472289e+02
  -1.897541e+03  -1.606377e+03
   4.481373e+01  -2.052211e+03
   1.289121e+03  -1.217696e+03
   9.779140e+02  -1.675955e+02
   8.340515e+01   2.149052e+02
  -3.145808e+02  -5.402420e+01
  -2.497073e+01  -4.984653e+02
   4.644815e+02  -5.633995e+02
   6.267258e+02  -1.020566e+02
   4.152235e+02   4.925021e+02
  -6.269689e-01   6.254612e+02
  -3.032573e+02   1.905704e+02
  -2.525170e+02  -4.061086e+02
   9.784461e+01  -5.382348e+02
   3.876296e+02  -8.374924e+01
   2.610150e+02   4.544102e+02
  -1.421870e+02   5.575201e+02
  -4.415393e+02   1.979939e+02
  -4.001641e+02  -2.256703e+02
  -1.185173e+02  -3.612765e+02
   1.357509e+02  -2.405973e+02
   1.033019e+02  -7.804145e+01
  -1.230934e+02  -7.869926e+01
  -2.367159e+02  -2.278264e+02
  -6.933949e+00  -3.186176e+02
   3.889312e+02  -1.668630e+02
   5.308549e+02   1.671929e+02
   2.153616e+02   3.361388e+02
  -2.908179e+02   1.901533e+02
  -4.764746e+02  -1.128998e+02
  -1.851513e+02  -3.318276e+02
   2.351537e+02  -3.212081e+02
   4.230697e+02  -1.355160e+02
   3.103974e+02   1.391949e+02
   8.647857e+01   2.926245e+02
  -4.919078e+01   1.945826e+02
  -9.259424e+00  -6.768357e+01
   1.231622e+02  -1.785433e+02
   1.918695e+02   8.283819e+01
   3.044394e+01   4.149539e+02
  -2.210418e+02   3.982715e+02
  -3.122030e+02   1.147786e+01
  -1.144853e+02  -3.002357e+02
   1.362276e+02  -1.478274e+02
   1.606374e+02   2.442908e+02
  -1.099340e+02   3.419890e+02
  -4.087065e+02   3.265894e+01
  -4.544474e+02  -3.612862e+02
  -1.511465e+02  -4.665209e+02
   2.673377e+02  -2.484295e+02
   4.779676e+02   5.799710e+01
   3.221632e+02   2.353946e+02
  -4.188778e+01   2.268825e+02
  -2.823835e+02   9.869891e+01
  -2.227611e+02  -3.159932e+01
  -1.832308e+01  -3.563369e+01
   5.897464e+01   4.338826e+01
  -8.035507e+01   5.878582e+01
  -2.179892e+02  -4.080773e+01
  -1.197257e+02  -1.768660e+02
   1.322099e+02  -2.125560e+02
   3.138449e+02  -1.047933e+02
   2.469621e+02   1.015970e+02
  -1.944498e+01   2.788659e+02
  -2.761160e+02   3.070475e+02
  -3.443069e+02   1.408150e+02
  -2.063144e+02  -1.482192e+02
  -2.091199e+01  -3.286740e+02
   5.157436e+01  -2.958372e+02
   3.823504e+01  -1.539456e+02
   3.926529e+01  -7.680891e+01
   1.224885e+02  -8.257241e+01
   2.218618e+02  -4.033695e+01
   2.099631e+02   1.067421e+02
   7.840834e+01   2.298677e+02
  -9.075937e+01   1.800500e+02
  -1.743442e+02  -2.883086e+01
  -1.184869e+02  -2.096676e+02
   4.474190e+01  -2.203350e+02
   2.162519e+02  -5.146377e+01
   2.663859e+02   1.705896e+02
   1.374823e+02   2.870114e+02
  -6.099524e+01   2.571087e+02
  -1.625290e+02   1.384401e+02
  -1.447315e+02   5.946854e+01
  -1.393541e+02   4.687956e+01
  -2.465613e+02   2.222344e+01
  -3.646675e+02  -9.361278e+01
  -2.714547e+02  -2.760103e+02
   4.562858e+01  -3.958134e+02
   3.690320e+02  -3.429741e+02
   4.395861e+02  -1.351223e+02
   2.600819e+02   1.049072e+02
   1.812594e+01   2.344789e+02
  -8.842544e+01   1.978454e+02
  -2.341912e+01   4.535660e+01
   9.423007e+01  -2.950602e+01
   1.136841e+02   3.219528e+01
   6.357899e+00   1.321861e+02
  -1.140953e+02   1.017597e+02
  -1.000394e+02  -4.503968e+01
   2.865728e+01  -1.260787e+02
   1.404564e+02  -2.904766e+00
   1.255395e+02   2.181818e+02
  -3.136686e+01   3.117880e+02
  -2.218474e+02   1.794647e+02
  -3.136559e+02  -7.632209e+01
  -2.424354e+02  -2.596492e+02
  -4.274201e+01  -2.536326e+02
   1.248502e+02  -1.200322e+02
   1.431620e+02   3.325760e+00
   3.607645e+01   1.163495e+01
  -4.228298e+01  -5.636782e+01
   9.320236e+00  -9.988969e+01
   1.170330e+02  -5.174609e+01
   1.427194e+02   2.376238e+01
   3.226798e+01   4.494721e+01
  -6.975166e+01  -1.620629e+01
  -2.915324e+01  -8.539111e+01
   1.387996e+02  -7.587223e+01
   2.755363e+02   3.212410e+01
   2.259696e+02   1.693585e+02
   2.105951e+01   2.375950e+02
  -1.914877e+02   1.996560e+02
  -2.422643e+02   7.209871e+01
  -1.240556e+02  -4.535478e+01
   2.505715e+01  -7.017412e+01
   5.959716e+01   4.188600e+00
  -4.789220e+01   6.669202e+01
  -1.604541e+02   1.540976e+01
  -1.589476e+02  -1.061838e+02
  -4.040159e+01  -1.702947e+02
   8.707441e+01  -1.166100e+02
   1.086244e+02  -7.188351e+00
   3.685365e+01   3.548116e+01
  -3.712749e+01  -2.312352e+01
  -1.759166e+01  -1.011626e+02
   9.404089e+01  -1.023121e+02
   1.881900e+02  -2.600234e-01
   1.557711e+02   1.309939e+02
   1.644703e-01   1.855000e+02
  -1.493928e+02   1.252638e+02
  -1.579964e+02  -7.054015e-01
  -4.585407e+01  -9.110315e+01
   6.016687e+01  -8.827985e+01
   6.554994e+01  -2.394774e+01
   1.986826e+00   1.854664e+01
  -3.095158e+01   6.105289e+00
   1.190777e+01  -2.196051e+01
   7.894533e+01   2.396406e+00
   8.707626e+01   8.491591e+01
  -9.907085e-01   1.581987e+02
  -1.385496e+02   1.307642e+02
  -2.135756e+02  -2.551033e+00
  -1.615637e+02  -1.527929e+02
  -2.062885e+01  -2.081785e+02
   9.808251e+01  -1.410123e+02
   1.155308e+02  -2.424350e+01
   6.396606e+01   4.085822e+01
   3.072478e+01   2.656285e+01
   5.438094e+01  -1.024552e+01
   8.259726e+01  -3.226492e-01
   4.892447e+01   5.812554e+01
  -4.442904e+01   9.726462e+01
  -1.204384e+02   5.368769e+01
  -9.718965e+01  -4.856910e+01
   2.149697e+01  -1.189218e+02
   1.489287e+02  -7.161360e+01
   1.787391e+02   7.041326e+01
   6.313753e+01   1.935643e+02
  -1.223762e+02   1.884890e+02
  -2.394560e+02   4.768892e+01
  -2.069727e+02  -1.036707e+02
  -7.583090e+01  -1.567133e+02
   4.110374e+01  -1.183781e+02
   8.298709e+01  -6.572451e+01
   6.953670e+01  -5.965646e+01
   6.102149e+01  -8.153905e+01
   8.531522e+01  -6.733869e+01
   1.137788e+02   2.322856e+01
   9.989832e+01   1.436008e+02
   1.481853e+01   2.055209e+02
  -9.726834e+01   1.451177e+02
  -1.540873e+02   2.749190e+00
  -1.104497e+02  -1.186709e+02
  -5.970619e+00  -1.382958e+02
   6.891159e+01  -6.814021e+01
   5.414568e+01   1.759877e+01
  -8.304407e+00   4.747446e+01
  -2.848689e+01   2.923728e+01
   2.301615e+01   9.234218e+00
   7.449401e+01   1.771495e+01
   4.477013e+01   3.609012e+01
  -6.734693e+01   3.332195e+01
  -1.559809e+02  -9.393482e+00
  -1.250128e+02  -6.200291e+01
   6.024969e+00  -8.566418e+01
   1.243190e+02  -5.960965e+01
   1.284113e+02  -1.410911e-01
   3.650551e+01   4.634494e+01
  -5.658739e+01   3.873944e+01
  -6.977561e+01  -1.966561e+01
  -1.280842e+01  -6.784667e+01
   4.502212e+01  -5.906485e+01
   6.322783e+01  -1.684622e+00
   5.211214e+01   4.741550e+01
   4.665045e+01   3.956434e+01
   5.022016e+01   5.077478e+00
   5.644270e+01   4.768376e+00
   3.538196e+01   6.748658e+01
  -2.730298e+01   1.365999e+02
  -1.139986e+02   1.248382e+02
  -1.584606e+02   2.042302e+01
  -1.099358e+02  -9.384722e+01
   6.631917e+00  -1.211968e+02
   8.649953e+01  -5.819797e+01
   5.536531e+01   1.225851e+01
  -5.247294e+01   1.928250e+01
  -1.168971e+02  -3.752915e+01
  -6.148374e+01  -9.735088e+01
   7.652553e+01  -1.053388e+02
   1.706525e+02  -4.562010e+01
   1.404422e+02   3.311707e+01
   2.861883e+01   7.489989e+01
  -5.384634e+01   5.603604e+01
  -4.046603e+01  -1.028078e+00
   3.572647e+01  -2.685612e+01
   8.144264e+01   2.233166e+01
   3.000791e+01   1.093094e+02
  -8.109545e+01   1.420295e+02
  -1.471663e+02   5.823803e+01
  -1.134085e+02  -8.866833e+01
  -7.891415e+00  -1.763089e+02
   7.858683e+01  -1.244255e+02
   9.411603e+01   1.399217e+01
   4.549829e+01   1.081932e+02
  -1.603817e+01   8.974975e+01
  -4.626347e+01   8.634949e+00
  -3.799542e+01  -3.312043e+01
  -1.474621e+01  -7.115743e+00
  -5.592994e+00   1.527493e+01
  -2.755013e+01  -1.856807e+01
  -5.052506e+01  -8.229494e+01
  -2.664458e+01  -9.648806e+01
   5.199120e+01  -3.835876e+01
   1.227391e+02   3.678425e+01
   1.122898e+02   6.764848e+01
   1.900570e+01   5.144789e+01
  -7.334307e+01   2.310026e+01
  -7.781150e+01   2.333513e+00
  -1.532875e+01  -8.133769e+00
   3.289597e+01  -1.551899e+01
   1.861990e+01  -9.750300e+00
  -1.251409e+01   1.849523e+00
   2.952068e+00   5.644146e+00
   6.222158e+01   2.439388e+00
   8.342763e+01   2.485086e+01
   1.752423e+01   7.751564e+01
  -1.014083e+02   1.093809e+02
  -1.730822e+02   5.800178e+01
  -1.385518e+02  -5.873026e+01
  -2.423320e+01  -1.469669e+02
   7.817899e+01  -1.384946e+02
   1.079637e+02  -5.547736e+01
   7.625225e+01   1.826298e+01
   2.468940e+01   3.399915e+01
   2.968368e+00   1.175614e+01
   1.256158e+01   9.126411e+00
   2.654922e+01   4.471349e+01
   1.268832e+01   8.127597e+01
  -2.869212e+01   6.237513e+01
  -6.976312e+01  -1.621945e+01
  -6.790693e+01  -9.451686e+01
  -9.025676e+00  -1.006111e+02
   6.988126e+01  -2.766047e+01
   9.510008e+01   6.222237e+01
   3.403777e+01   9.655924e+01
  -5.943134e+01   5.653902e+01
  -9.333989e+01  -1.147403e+01
  -3.917678e+01  -5.316543e+01
   3.337833e+01  -5.399131e+01
   3.869868e+01  -2.399336e+01
  -2.216824e+01   5.249106e+00
  -6.073306e+01   3.239349e+00
  -1.555264e+01  -2.420884e+01
   7.060358e+01  -5.260335e+01
   1.063170e+02  -4.010201e+01
   6.055666e+01   1.747555e+01
  -1.589137e+01   7.463048e+01
  -5.493567e+01   7.154682e+01
  -4.203973e+01   8.685553e+00
  -6.239626e+00  -4.890786e+01
   2.287180e+01  -4.571488e+01
   3.265084e+01   9.095522e+00
   2.283030e+01   5.099380e+01
  -1.107740e+00   3.640811e+01
  -3.102477e+01  -5.745679e+00
  -3.772903e+01  -2.435632e+01
  -1.855087e+01  -5.641783e+00
   2.313423e+00   1.710383e+01
   4.022851e+00   6.710673e+00
  -4.185341e+00  -2.872897e+01
   2.558656e+00  -4.640592e+01
   2.410560e+01  -1.767515e+01
   3.561034e+01   3.078932e+01
   1.152246e+01   4.904524e+01
  -3.407848e+01   2.089470e+01
  -5.337082e+01  -2.973964e+01
  -1.824774e+01  -5.357129e+01
   5.056560e+01  -3.121335e+01
   8.446921e+01   1.251483e+01
   4.588696e+01   4.159399e+01
  -2.626150e+01   4.021900e+01
  -6.038954e+01   2.136690e+01
  -2.615290e+01   2.586040e+00
   2.659531e+01  -2.536200e+00
   3.251230e+01   8.844407e+00
  -2.082357e+01   2.397197e+01
  -7.137947e+01   1.985479e+01
