
 $NMID
 id='ANONYMOUS ', fmtdat='(2E16.6)'
 volume=1.0
 tramp=1.0
 $END
   3.679568e+03   2.560059e+02
   1.998763e+03   2.253243e+03
  -6.390488e+02   2.380484e+03
  -1.795044e+03   9.150709e+02
  -9.829920e+02  -3.901195e+02
   3.821443e+02  -4.194135e+02
   6.956475e+02   3.582215e+02
  -9.589517e+00   9.332499e+02
  -7.232496e+02   7.241579e+02
  -8.630310e+02  -5.456247e+01
  -4.243953e+02  -7.743458e+02
   2.051636e+02  -8.237999e+02
   5.516387e+02  -1.347447e+02
   3.213976e+02   6.325050e+02
  -2.323278e+02   6.903905e+02
  -5.394447e+02   1.801081e+00
  -2.453098e+02  -6.377658e+02
   3.065339e+02  -6.410369e+02
   5.841403e+02  -1.230099e+02
   4.279882e+02   3.527207e+02
   4.800932e+01   4.396395e+02
  -2.234363e+02   2.542424e+02
  -1.754919e+02   1.707900e+01
   1.476666e+02  -1.857452e+01
   3.524063e+02   2.007522e+02
   1.021501e+02   4.175538e+02
  -4.631281e+02   2.911277e+02
  -7.142330e+02  -1.674401e+02
  -3.106165e+02  -4.913199e+02
   3.782521e+02  -3.391964e+02
   6.219427e+02   1.236089e+02
   2.511299e+02   4.540159e+02
  -2.992331e+02   4.331276e+02
  -5.295010e+02   1.324093e+02
  -3.657689e+02  -2.346405e+02
  -4.794375e+01  -4.007023e+02
   1.556665e+02  -2.401638e+02
   9.123229e+01   1.616591e+02
  -1.831989e+02   3.001068e+02
  -3.525562e+02  -9.214660e+01
  -1.161939e+02  -5.975595e+02
   3.445725e+02  -5.780135e+02
   5.042759e+02   1.573044e+01
   1.642560e+02   4.521903e+02
  -2.601960e+02   2.378825e+02
  -2.779921e+02  -3.060008e+02
   1.328753e+02  -4.692775e+02
   5.149899e+02  -8.277239e+01
   5.190012e+02   3.868170e+02
   1.096199e+02   5.541334e+02
  -3.741416e+02   3.050356e+02
  -5.867992e+02  -1.024453e+02
  -3.557468e+02  -3.648464e+02
   1.339811e+02  -3.172309e+02
   3.957275e+02  -5.679301e+01
   2.226064e+02   1.329668e+02
  -6.988088e+01   6.687505e+01
  -1.111638e+02  -1.117528e+02
   1.346403e+02  -1.233393e+02
   2.836508e+02   7.748330e+01
   1.146103e+02   2.640304e+02
  -2.048153e+02   2.425249e+02
  -3.508649e+02   6.914539e+01
  -2.269355e+02  -1.307028e+02
   3.486445e+01  -2.816750e+02
   2.738421e+02  -3.274979e+02
   3.665400e+02  -1.583970e+02
   2.493102e+02   1.746499e+02
   2.251280e+01   4.085399e+02
  -1.190599e+02   3.402687e+02
  -1.024440e+02   1.074847e+02
  -3.607928e+01   1.796423e+01
  -8.575917e+01   8.071132e+01
  -2.205759e+02   7.930081e+01
  -2.573330e+02  -9.382286e+01
  -1.186615e+02  -2.759322e+02
   9.516420e+01  -2.371758e+02
   2.126177e+02   7.041509e+00
   1.625262e+02   2.485863e+02
  -3.745714e+01   2.813635e+02
  -2.611548e+02   9.138305e+01
  -3.360995e+02  -1.914359e+02
  -1.735125e+02  -3.512747e+02
   8.619488e+01  -2.928866e+02
   2.111432e+02  -1.147023e+02
   1.580735e+02  -2.086096e+01
   1.189145e+02  -4.081730e+01
   2.414322e+02  -4.569933e+01
   3.879665e+02   9.274369e+01
   3.136096e+02   3.162500e+02
  -3.350103e+01   4.552379e+02
  -3.993950e+02   3.807534e+02
  -5.067860e+02   1.454747e+02
  -3.162790e+02  -1.290593e+02
  -2.545252e+01  -2.819864e+02
   1.340160e+02  -2.178649e+02
   6.083673e+01  -2.554308e+01
  -1.087931e+02   7.395881e+01
  -1.681382e+02  -2.569165e+01
  -2.575111e+01  -1.682677e+02
   1.500751e+02  -1.265420e+02
   1.474856e+02   6.699526e+01
  -3.068046e+01   1.696488e+02
  -1.845278e+02   1.370613e+01
  -1.503297e+02  -2.471417e+02
   4.610432e+01  -3.443854e+02
   2.446172e+02  -1.869026e+02
   3.276510e+02   9.227302e+01
   2.478044e+02   2.711569e+02
   5.438669e+01   2.727173e+02
  -1.312450e+02   1.391852e+02
  -1.683258e+02  -2.070863e+00
  -4.745051e+01  -2.770965e+01
   5.946436e+01   5.124893e+01
   8.568938e+00   1.225809e+02
  -1.257973e+02   8.310013e+01
  -1.656866e+02  -1.842925e+01
  -4.411771e+01  -6.575941e+01
   8.159857e+01  -8.342106e-01
   4.397291e+01   8.718844e+01
  -1.396354e+02   8.423363e+01
  -2.891100e+02  -2.166500e+01
  -2.496663e+02  -1.662322e+02
  -2.987836e+01  -2.563443e+02
   2.082877e+02  -2.306023e+02
   2.803883e+02  -9.534865e+01
   1.533147e+02   6.362367e+01
  -2.916959e+01   1.013144e+02
  -8.120261e+01   2.730603e+00
   4.321106e+01  -8.788425e+01
   1.895017e+02  -4.057336e+01
   1.957060e+02   1.137341e+02
   5.491938e+01   2.065447e+02
  -9.972928e+01   1.491971e+02
  -1.358957e+02   2.126988e+01
  -5.933708e+01  -4.198335e+01
   3.349112e+01   7.240251e+00
   2.385745e+01   9.675680e+01
  -9.108282e+01   1.142265e+02
  -2.010781e+02   1.355447e+01
  -1.807190e+02  -1.398531e+02
  -6.116643e+00  -2.196359e+02
   1.720154e+02  -1.507593e+02
   1.903746e+02   7.409253e+00
   5.982561e+01   1.156192e+02
  -6.659248e+01   1.072308e+02
  -8.220708e+01   2.506248e+01
  -1.423902e+01  -2.770505e+01
   2.946869e+01  -1.688195e+01
  -5.261334e+00   1.125596e+01
  -7.077840e+01  -8.994852e+00
  -8.331181e+01  -9.025600e+01
  -3.978237e-01  -1.643237e+02
   1.426305e+02  -1.424513e+02
   2.368775e+02  -3.479730e+00
   1.923553e+02   1.696730e+02
   2.949353e+01   2.407835e+02
  -1.144705e+02   1.630164e+02
  -1.387847e+02   2.170819e+01
  -7.437555e+01  -5.707817e+01
  -3.114486e+01  -3.560120e+01
  -5.474365e+01   8.981339e+00
  -8.161763e+01   1.188800e-01
  -4.471706e+01  -5.721293e+01
   4.619615e+01  -9.104667e+01
   1.145061e+02  -4.979081e+01
   9.496391e+01   4.532554e+01
  -1.880462e+01   1.146659e+02
  -1.526415e+02   7.527638e+01
  -1.943545e+02  -6.760485e+01
  -8.224033e+01  -2.071136e+02
   1.212806e+02  -2.162365e+02
   2.645598e+02  -7.085681e+01
   2.433470e+02   1.034605e+02
   9.533403e+01   1.813937e+02
  -4.786403e+01   1.444411e+02
  -9.894326e+01   7.439357e+01
  -7.969233e+01   5.941152e+01
  -6.785792e+01   8.152791e+01
  -9.460311e+01   6.709362e+01
  -1.290230e+02  -2.748257e+01
  -1.083334e+02  -1.568629e+02
  -1.396813e+01  -2.240070e+02
   1.113086e+02  -1.625268e+02
   1.719634e+02  -6.384024e+00
   1.216122e+02   1.341366e+02
   1.198280e+00   1.590117e+02
  -7.610928e+01   7.776453e+01
  -5.773326e+01  -1.392142e+01
   4.466466e+00  -4.769374e+01
   2.176861e+01  -2.781138e+01
  -3.148820e+01  -1.374000e+01
  -7.893369e+01  -2.490995e+01
  -4.481653e+01  -4.338817e+01
   6.728221e+01  -3.443605e+01
   1.592456e+02   1.384542e+01
   1.336939e+02   6.875947e+01
  -1.799110e+00   8.934031e+01
  -1.303175e+02   5.781320e+01
  -1.422252e+02  -4.979417e+00
  -4.218272e+01  -4.846576e+01
   6.214820e+01  -3.777739e+01
   7.458880e+01   2.480403e+01
   7.763137e+00   7.318278e+01
  -5.595012e+01   5.858202e+01
  -6.533456e+01  -6.000751e+00
  -4.588720e+01  -5.372990e+01
  -4.338495e+01  -4.224502e+01
  -5.791187e+01  -4.500065e+00
  -6.688355e+01  -1.417351e+00
  -3.587935e+01  -7.150289e+01
   3.649317e+01  -1.485276e+02
   1.291094e+02  -1.353232e+02
   1.727868e+02  -2.337952e+01
   1.189571e+02   1.032088e+02
  -1.906863e+00   1.323130e+02
  -8.966606e+01   6.104654e+01
  -5.938031e+01  -1.635152e+01
   5.736289e+01  -1.670002e+01
   1.274385e+02   5.196019e+01
   6.622276e+01   1.131789e+02
  -8.129499e+01   1.085509e+02
  -1.858381e+02   3.928868e+01
  -1.562729e+02  -4.538253e+01
  -2.976952e+01  -8.758984e+01
   6.515983e+01  -6.300606e+01
   4.939231e+01   6.581392e-02
  -3.872894e+01   2.679291e+01
  -8.709053e+01  -2.517031e+01
  -2.662497e+01  -1.181305e+02
   9.553320e+01  -1.456085e+02
   1.612921e+02  -5.363061e+01
   1.158184e+02   1.038262e+02
  -1.225468e+00   1.914381e+02
  -9.227540e+01   1.317538e+02
  -1.032836e+02  -1.997200e+01
  -4.949575e+01  -1.209760e+02
   1.491967e+01  -1.021003e+02
   5.007362e+01  -1.469057e+01
   4.548958e+01   3.368080e+01
   1.939803e+01   6.855437e+00
   7.253170e+00  -1.772717e+01
   2.629446e+01   1.830585e+01
   5.495187e+01   9.305120e+01
   2.933721e+01   1.069339e+02
  -5.761440e+01   4.179307e+01
  -1.346059e+02  -4.406778e+01
  -1.191215e+02  -7.583662e+01
  -1.485630e+01  -5.374131e+01
   8.216770e+01  -2.135480e+01
   8.449638e+01  -3.810887e+00
   1.491796e+01   1.019596e+01
  -3.515022e+01   1.887609e+01
  -1.769306e+01   1.244500e+01
   1.666496e+01  -3.123344e+00
  -3.071682e+00  -7.825886e+00
  -6.762465e+01  -5.875300e+00
  -8.795097e+01  -2.707435e+01
  -9.353677e+00  -8.182520e+01
   1.171096e+02  -1.074511e+02
   1.870973e+02  -5.101773e+01
   1.415454e+02   7.083863e+01
   1.806676e+01   1.570833e+02
  -8.978495e+01   1.452652e+02
  -1.196332e+02   5.576835e+01
  -7.981533e+01  -2.069850e+01
  -2.309310e+01  -3.673059e+01
   9.814693e-01  -1.045647e+01
  -1.183062e+01  -7.232088e+00
  -2.919319e+01  -4.883634e+01
  -1.509603e+01  -8.868780e+01
   3.185622e+01  -6.742746e+01
   7.769753e+01   2.041242e+01
   7.265279e+01   1.060098e+02
   2.086688e+00   1.070195e+02
  -7.967368e+01   2.262347e+01
  -9.853770e+01  -7.358614e+01
  -2.953415e+01  -1.017719e+02
   6.789770e+01  -5.461993e+01
   9.820740e+01   1.576748e+01
   3.714271e+01   5.550892e+01
  -3.757593e+01   5.394695e+01
  -3.521744e+01   2.603204e+01
   3.190089e+01  -2.689287e+00
   6.848538e+01  -1.772538e+00
   1.499397e+01   2.872497e+01
  -8.066788e+01   6.028995e+01
  -1.220177e+02   4.662214e+01
  -6.560289e+01  -2.056893e+01
   2.145498e+01  -8.276107e+01
   6.186761e+01  -7.439952e+01
   4.158503e+01  -4.542901e+00
   2.181117e-01   5.328484e+01
  -2.933670e+01   4.255177e+01
  -3.427412e+01  -1.617795e+01
  -2.186936e+01  -5.526774e+01
   5.260193e+00  -3.620503e+01
   3.170872e+01   8.667883e+00
   3.883751e+01   2.559806e+01
   2.189544e+01   4.339187e+00
   1.311349e+00  -1.706383e+01
  -4.997472e+00  -3.676938e+00
  -4.313623e+00   3.331371e+01
  -1.364358e+01   4.724912e+01
  -2.891075e+01   1.070064e+01
  -3.030910e+01  -4.230364e+01
   1.811756e+00  -5.738419e+01
   4.294697e+01  -1.777385e+01
   5.385305e+01   4.143208e+01
   1.386962e+01   6.217738e+01
  -5.599987e+01   3.104995e+01
  -8.994253e+01  -1.820655e+01
  -4.662540e+01  -4.591161e+01
   3.076663e+01  -4.092920e+01
   6.462391e+01  -1.991154e+01
   2.625371e+01  -3.100988e+00
  -3.023029e+01  -1.948439e-01
  -3.408437e+01  -1.443543e+01
   2.826462e+01  -2.815233e+01
   8.638282e+01  -1.632500e+01
