
 $NMID
 id='ANONYMOUS ', fmtdat='(2E16.6)'
 volume=1.0
 tramp=1.0
 $END
  -5.515590e+07  -4.480725e+04
  -3.346161e+07  -3.401332e+07
   7.029432e+06  -3.742752e+07
   2.714062e+07  -1.469391e+07
   1.649159e+07   6.671284e+06
  -3.102181e+06   9.276717e+06
  -9.816277e+06  -1.024970e+06
  -2.927419e+06  -9.673920e+06
   6.095259e+06  -9.425479e+06
   9.594936e+06  -2.095650e+06
   6.901756e+06   6.158883e+06
   7.440446e+05   8.544306e+06
  -3.950094e+06   2.657529e+06
  -2.536789e+06  -5.500056e+06
   3.788899e+06  -6.579934e+06
   7.818986e+06   1.274965e+06
   4.407217e+06   1.009344e+07
  -3.733706e+06   1.166202e+07
  -9.954573e+06   5.791511e+06
  -1.057424e+07  -2.061770e+06
  -6.416855e+06  -7.311271e+06
  -6.867213e+05  -8.366852e+06
   2.708954e+06  -5.914349e+06
   1.670162e+06  -2.836219e+06
  -1.065956e+06  -2.397790e+06
  -6.458142e+04  -4.219567e+06
   5.504785e+06  -4.195494e+06
   9.579167e+06  -2.763112e+05
   6.878507e+06   4.165974e+06
   1.251213e+05   4.915920e+06
  -3.740318e+06   2.363421e+06
  -2.349288e+06  -1.280853e+05
   8.356794e+05  -9.174655e+05
   2.423267e+06  -3.063228e+05
   2.101721e+06   1.617351e+06
   4.918257e+05   3.939842e+06
  -1.832720e+06   3.726513e+06
  -3.050490e+06  -1.491266e+05
  -1.575163e+06  -3.505761e+06
   6.880571e+05  -1.765231e+06
   1.697455e+05   2.503198e+06
  -2.526426e+06   2.291903e+06
  -2.458961e+06  -3.154792e+06
   2.304043e+06  -6.089660e+06
   6.742731e+06  -1.095814e+06
   5.027758e+06   6.734757e+06
  -1.821899e+06   8.370579e+06
  -7.296262e+06   2.364940e+06
  -6.902519e+06  -4.465565e+06
  -1.843243e+06  -6.066789e+06
   3.508088e+06  -2.733325e+06
   5.318794e+06   1.549124e+06
   2.480286e+06   3.526326e+06
  -2.369679e+06   2.225601e+06
  -4.501945e+06  -8.934057e+05
  -1.969144e+06  -2.692062e+06
   1.687856e+06  -1.361564e+06
   1.762906e+06   1.045347e+06
  -1.278631e+06   1.002189e+06
  -2.530849e+06  -1.631121e+06
   4.418740e+05  -3.388262e+06
   4.469648e+06  -1.965134e+06
   5.267780e+06   1.257964e+06
   2.333835e+06   3.912917e+06
  -1.854144e+06   5.191444e+06
  -5.087776e+06   4.708037e+06
  -6.171693e+06   1.613142e+06
  -4.453489e+06  -3.195429e+06
  -8.376662e+05  -6.145228e+06
   1.885834e+06  -4.793625e+06
   1.793144e+06  -1.317245e+06
   2.871469e+05   1.906680e+05
   1.399542e+05  -9.181306e+05
   1.703058e+06  -1.631784e+06
   2.790288e+06  -6.835134e+04
   1.913572e+06   2.050532e+06
  -1.096115e+05   2.166192e+06
  -1.630273e+06   1.158171e+05
  -1.648564e+06  -2.201292e+06
   8.932391e+04  -2.972281e+06
   2.810592e+06  -1.571201e+06
   4.411441e+06   1.291348e+06
   3.124957e+06   3.768880e+06
  -7.286967e+04   4.160747e+06
  -2.245287e+06   2.667239e+06
  -2.204298e+06   1.145496e+06
  -1.855541e+06   7.062824e+05
  -3.003970e+06   4.590840e+05
  -4.408019e+06  -8.435101e+05
  -3.491580e+06  -2.879535e+06
  -4.174971e+04  -4.206300e+06
   3.365687e+06  -3.885691e+06
   4.300238e+06  -2.022622e+06
   2.659637e+06   5.199360e+05
   1.799808e+05   2.263830e+06
  -1.182125e+06   1.906215e+06
  -5.595019e+05  -5.635489e+04
   1.144375e+06  -1.293657e+06
   1.939307e+06  -3.668817e+05
   9.003815e+05   1.228102e+06
  -5.638167e+05   1.117589e+06
  -4.518403e+05  -4.183903e+05
   1.095762e+06  -7.472814e+05
   1.924125e+06   1.276538e+06
   6.879682e+05   3.572368e+06
  -1.639770e+06   3.551863e+06
  -3.270470e+06   1.174707e+06
  -3.427943e+06  -1.538469e+06
  -2.298764e+06  -2.932179e+06
  -3.896841e+05  -2.717397e+06
   1.319088e+06  -1.459333e+06
   1.619950e+06  -1.802790e+05
   5.038983e+05   5.955965e+04
  -3.486027e+05  -7.774996e+05
   4.412111e+05  -1.359673e+06
   1.949381e+06  -5.575438e+05
   2.064694e+06   9.378534e+05
   3.772546e+05   1.454228e+06
  -1.211598e+06   5.619202e+05
  -9.073128e+05  -4.966551e+05
   8.944353e+05  -5.310407e+05
   2.259049e+06   3.834406e+05
   1.773569e+06   1.463496e+06
  -3.140839e+05   2.041536e+06
  -2.425216e+06   1.642499e+06
  -2.855903e+06   2.086039e+05
  -1.220766e+06  -1.320234e+06
   9.637642e+05  -1.511368e+06
   1.589420e+06  -1.664520e+05
   1.807635e+05   1.098206e+06
  -1.567070e+06   7.164871e+05
  -1.747455e+06  -8.415479e+05
  -3.134923e+05  -1.712382e+06
   1.148114e+06  -9.910611e+05
   1.296532e+06   3.446192e+05
   2.443667e+05   8.125087e+05
  -8.125960e+05   4.205553e+04
  -7.244871e+05  -1.094184e+06
   6.289198e+05  -1.438237e+06
   2.068811e+06  -4.980963e+05
   2.055531e+06   1.129618e+06
   3.411106e+05   2.136215e+06
  -1.516842e+06   1.651978e+06
  -1.780312e+06   1.762705e+05
  -4.994939e+05  -9.061831e+05
   6.962587e+05  -8.110386e+05
   6.537339e+05  -5.658492e+04
  -1.397118e+05   3.765857e+05
  -5.262646e+05   1.965702e+05
  -1.303795e+05  -9.164500e+04
   4.693502e+05   7.291855e+04
   5.289629e+05   7.030063e+05
  -2.379825e+05   1.220495e+06
  -1.443848e+06   8.850320e+05
  -2.125707e+06  -4.806808e+05
  -1.450598e+06  -2.032219e+06
   2.897491e+05  -2.479367e+06
   1.704194e+06  -1.409642e+06
   1.742344e+06   1.795681e+05
   8.566204e+05   9.613004e+05
   2.916944e+05   6.944654e+05
   4.652608e+05   2.361884e+05
   6.311136e+05   3.245610e+05
   7.805947e+04   7.811524e+05
  -9.256808e+05   9.054858e+05
  -1.504212e+06   2.924821e+05
  -1.059213e+06  -7.828272e+05
   3.057173e+05  -1.502760e+06
   1.805256e+06  -1.054437e+06
   2.296951e+06   5.617122e+05
   1.110128e+06   2.189866e+06
  -1.094548e+06   2.407261e+06
  -2.638660e+06   9.991868e+05
  -2.406193e+06  -7.391954e+05
  -9.525051e+05  -1.412757e+06
   2.448900e+05  -9.784826e+05
   4.289772e+05  -5.103647e+05
   1.076837e+05  -7.544500e+05
   1.355169e+05  -1.325322e+06
   7.134422e+05  -1.302723e+06
   1.330453e+06  -2.960020e+05
   1.341091e+06   1.141808e+06
   5.194669e+05   1.956876e+06
  -6.764504e+05   1.456077e+06
  -1.320471e+06  -3.667984e+04
  -8.040024e+05  -1.338518e+06
   4.338801e+05  -1.428156e+06
   1.207712e+06  -3.969379e+05
   8.254450e+05   7.299301e+05
  -1.438860e+05   1.105275e+06
  -5.674880e+05   7.994616e+05
  -1.005320e+05   4.311823e+05
   4.324763e+05   3.556419e+05
   4.931079e+04   3.945402e+05
  -1.184456e+06   1.888283e+05
  -2.107749e+06  -3.905490e+05
  -1.634762e+06  -1.105250e+06
   6.950492e+04  -1.475051e+06
   1.655072e+06  -1.134554e+06
   1.890012e+06  -2.410909e+05
   8.519630e+05   5.280857e+05
  -2.775683e+05   5.790248e+05
  -5.289685e+05   2.448788e+04
  -2.491092e+04  -4.293513e+05
   4.609129e+05  -2.512240e+05
   4.856600e+05   3.624280e+05
   2.388897e+05   7.426142e+05
   8.524302e+04   4.881351e+05
   1.486463e+05  -9.334724e+04
   3.007058e+05  -2.873048e+05
   2.765241e+05   2.481251e+05
  -1.743703e+05   1.005618e+06
  -9.496139e+05   1.070041e+06
  -1.397495e+06   1.517642e+05
  -8.508450e+05  -9.525910e+05
   4.489487e+05  -1.158991e+06
   1.293686e+06  -3.197494e+05
   7.370231e+05   6.052956e+05
  -7.393116e+05   6.490668e+05
  -1.631231e+06  -1.439601e+05
  -1.009138e+06  -9.223426e+05
   5.308746e+05  -1.007615e+06
   1.560126e+06  -4.465567e+05
   1.263195e+06   2.368038e+05
   1.210962e+05   5.340938e+05
  -6.771477e+05   2.584777e+05
  -3.899267e+05  -3.106065e+05
   6.083817e+05  -5.208229e+05
   1.208646e+06   1.071761e+05
   6.641209e+05   1.221140e+06
  -6.366297e+05   1.731318e+06
  -1.537700e+06   8.771585e+05
  -1.271236e+06  -8.046206e+05
  -1.654976e+05  -1.843522e+06
   7.954088e+05  -1.308073e+06
   9.488086e+05   2.104166e+05
   4.084039e+05   1.240106e+06
  -2.602427e+05   9.906563e+05
  -5.839167e+05   7.023873e+04
  -4.625047e+05  -4.017365e+05
  -1.563663e+05  -1.469376e+05
  -5.604712e+04   9.630649e+04
  -2.930276e+05  -3.091360e+05
  -5.054725e+05  -1.004919e+06
  -1.604369e+05  -1.115818e+06
   7.548981e+05  -3.924212e+05
   1.502820e+06   5.134651e+05
   1.286402e+06   8.950903e+05
   1.731485e+05   7.249976e+05
  -8.777368e+05   4.083227e+05
  -1.013918e+06   1.593706e+05
  -3.796046e+05  -6.519671e+04
   1.504139e+05  -2.283071e+05
   5.492387e+04  -2.091318e+05
  -2.547716e+05  -1.010800e+05
  -5.357403e+04  -1.351853e+05
   6.692599e+05  -2.286376e+05
   1.076007e+06   2.825590e+04
   4.520716e+05   7.157265e+05
  -8.722325e+05   1.198553e+06
  -1.768669e+06   7.585676e+05
  -1.458420e+06  -4.565164e+05
  -2.612704e+05  -1.446914e+06
   8.176517e+05  -1.406236e+06
   1.086713e+06  -5.440895e+05
   6.646509e+05   2.432039e+05
   1.375581e+05   3.692124e+05
  -5.728181e+04   7.228501e+04
   9.206317e+04  -6.360981e+03
   2.958465e+05   3.908767e+05
   2.325159e+05   8.375527e+05
  -1.919404e+05   6.977608e+05
  -6.918557e+05  -1.253301e+05
  -7.514177e+05  -9.764317e+05
  -1.222170e+05  -1.059712e+06
   7.634158e+05  -2.575281e+05
   1.055018e+06   7.397182e+05
   3.533253e+05   1.124274e+06
  -7.380244e+05   6.983835e+05
  -1.156948e+06  -8.707964e+04
  -5.500271e+05  -6.481751e+05
   3.033914e+05  -7.095095e+05
   4.098192e+05  -3.794998e+05
  -2.365194e+05  -1.055468e+04
  -6.637533e+05   3.189136e+04
  -1.525568e+05  -3.211535e+05
   8.603846e+05  -6.827721e+05
   1.321241e+06  -5.260140e+05
   8.013143e+05   2.040912e+05
  -1.094107e+05   8.991957e+05
  -5.947599e+05   8.825230e+05
  -4.549544e+05   1.764398e+05
  -5.592979e+04  -4.844444e+05
   2.470849e+05  -4.532649e+05
   3.556999e+05   1.407622e+05
   2.555136e+05   5.963561e+05
  -5.278572e+04   4.526274e+05
  -4.007405e+05  -4.402342e+04
  -4.933675e+05  -3.055370e+05
  -2.504362e+05  -1.128451e+05
   4.416056e+04   1.659652e+05
   9.036332e+04   7.234754e+04
  -2.825882e+04  -3.482663e+05
   2.208673e+04  -5.767272e+05
   3.141069e+05  -2.490381e+05
   4.847280e+05   3.713970e+05
   1.824470e+05   6.595225e+05
  -4.135890e+05   3.250973e+05
  -6.891699e+05  -2.821162e+05
  -2.613806e+05  -5.843805e+05
   5.314712e+05  -3.731857e+05
   9.158698e+05   7.875629e+04
   4.933032e+05   3.929620e+05
  -3.044549e+05   4.214529e+05
  -6.617932e+05   2.442380e+05
  -2.714807e+05   2.151614e+04
   3.342333e+05  -7.695201e+04
   4.068526e+05   5.150036e+04
  -1.622863e+05   2.822983e+05
  -7.407585e+05   2.662153e+05
