
 $NMID
 id='ANONYMOUS ', fmtdat='(2E16.6)'
 volume=1.0
 tramp=1.0
 $END
  -3.799619e+03  -2.725412e+02
  -2.265931e+03  -2.305743e+03
   1.997421e+02  -2.272581e+03
   1.771501e+03  -9.115436e+02
   8.219184e+02   2.640557e+02
  -2.273051e+02   4.842545e+02
  -6.786830e+02  -4.151611e+02
   5.319127e+01  -7.933982e+02
   7.161315e+02  -6.162090e+02
   7.846248e+02   3.311526e+01
   4.002394e+02   6.588425e+02
  -8.835279e+01   7.471350e+02
  -5.730200e+02   7.887094e+01
  -2.957712e+02  -5.651570e+02
   2.287712e+02  -6.855118e+02
   5.173846e+02  -2.654884e+01
   2.548973e+02   5.589563e+02
  -2.632544e+02   6.372933e+02
  -5.288126e+02   1.598278e+02
  -4.030615e+02  -2.522539e+02
  -4.673976e+01  -3.887221e+02
   1.898302e+02  -2.543250e+02
   1.620782e+02  -6.153346e+01
  -1.567262e+02   3.264072e+01
  -3.164238e+02  -1.967917e+02
  -4.404930e+01  -3.897362e+02
   4.783416e+02  -2.826463e+02
   7.258222e+02   1.496890e+02
   2.972075e+02   4.966176e+02
  -3.499476e+02   3.038780e+02
  -6.360195e+02  -1.229898e+02
  -2.395671e+02  -4.376704e+02
   2.606730e+02  -3.937011e+02
   5.031930e+02  -1.608415e+02
   3.265302e+02   2.290741e+02
   8.395877e+01   3.842073e+02
  -1.608168e+02   2.381873e+02
  -1.018234e+02  -1.915577e+02
   1.438352e+02  -3.148035e+02
   3.483306e+02   1.823842e+02
   1.226987e+02   5.630178e+02
  -3.274081e+02   5.488752e+02
  -4.452604e+02  -1.539780e+01
  -1.765097e+02  -4.125830e+02
   2.120362e+02  -2.435975e+02
   2.835700e+02   2.856281e+02
  -1.170563e+02   4.713144e+02
  -5.099191e+02   8.232796e+01
  -5.056486e+02  -4.479396e+02
  -1.812083e+02  -5.302702e+02
   3.549950e+02  -2.670580e+02
   5.527456e+02   5.228797e+01
   3.280611e+02   3.406792e+02
  -1.331882e+02   2.871334e+02
  -3.799677e+02   2.271626e+01
  -2.061532e+02  -1.180198e+02
   6.481094e+01  -8.056456e+01
   1.296620e+02   8.199123e+01
  -1.437628e+02   1.367649e+02
  -2.913976e+02  -9.584869e+01
  -1.098923e+02  -2.593125e+02
   1.781801e+02  -2.703849e+02
   3.170190e+02  -7.422848e+01
   2.135048e+02   8.847051e+01
  -1.241702e+01   2.348886e+02
  -2.584164e+02   3.304876e+02
  -3.441493e+02   1.765761e+02
  -2.710215e+02  -1.572689e+02
  -7.891674e+01  -4.062236e+02
   1.131431e+02  -3.414109e+02
   7.659236e+01  -1.418012e+02
   3.567901e+01  -5.970973e+01
   6.894320e+01  -8.551630e+01
   2.057299e+02  -9.138806e+01
   2.627012e+02   7.438952e+01
   1.067288e+02   2.752788e+02
  -7.783790e+01   2.089994e+02
  -1.931163e+02  -8.426765e+00
  -1.701468e+02  -2.339902e+02
   8.819346e+00  -2.711597e+02
   2.678984e+02  -8.737510e+01
   3.365922e+02   1.574455e+02
   1.705059e+02   3.148319e+02
  -6.439710e+01   2.698186e+02
  -1.825639e+02   1.155336e+02
  -1.428280e+02   2.793193e+01
  -1.271193e+02   5.005308e+01
  -2.337979e+02   5.454896e+01
  -3.871970e+02  -7.496576e+01
  -2.993620e+02  -2.760050e+02
   2.353534e+01  -4.226259e+02
   3.616430e+02  -3.712045e+02
   4.544228e+02  -1.530993e+02
   2.948841e+02   9.600181e+01
   1.520563e+01   2.654680e+02
  -1.032284e+02   2.164150e+02
  -6.034500e+01   1.517829e+01
   1.189409e+02  -7.354379e+01
   1.764132e+02   2.345627e+01
   3.407419e+01   1.625463e+02
  -1.402033e+02   1.352145e+02
  -1.457613e+02  -6.683471e+01
   2.821059e+01  -1.537499e+02
   1.934301e+02  -1.005237e+01
   1.445502e+02   2.401605e+02
  -4.592641e+01   3.154375e+02
  -2.374159e+02   1.971689e+02
  -3.056664e+02  -6.309871e+01
  -2.669385e+02  -2.388648e+02
  -7.236516e+01  -2.678459e+02
   1.086210e+02  -1.501206e+02
   1.536203e+02  -1.417866e+01
   4.637535e+01   2.759625e+01
  -5.691159e+01  -4.409847e+01
  -9.927921e+00  -1.222494e+02
   1.211614e+02  -7.674195e+01
   1.681725e+02   3.126829e+01
   4.954302e+01   5.901481e+01
  -7.365421e+01  -5.864537e-01
  -3.619168e+01  -7.861246e+01
   1.334232e+02  -7.985293e+01
   2.782551e+02   1.810734e+01
   2.452073e+02   1.581226e+02
   3.606761e+01   2.509185e+02
  -1.989636e+02   2.278886e+02
  -2.677881e+02   9.891836e+01
  -1.500848e+02  -5.167716e+01
   2.294634e+01  -9.762370e+01
   7.875076e+01  -3.937516e+00
  -3.986090e+01   9.105359e+01
  -1.878832e+02   4.273368e+01
  -1.874857e+02  -9.460967e+01
  -5.538269e+01  -1.950128e+02
   8.766099e+01  -1.364617e+02
   1.388453e+02  -1.623232e+01
   5.812328e+01   3.337409e+01
  -3.002915e+01  -1.053846e+01
  -3.830530e+01  -8.699993e+01
   8.727270e+01  -1.109772e+02
   1.943663e+02  -1.014558e+01
   1.755247e+02   1.213006e+02
   1.654851e+01   1.946432e+02
  -1.696818e+02   1.551065e+02
  -1.733193e+02   1.387456e+01
  -5.387675e+01  -1.100745e+02
   6.530983e+01  -9.504135e+01
   8.126737e+01  -2.629200e+01
   8.310676e+00   2.321328e+01
  -2.910400e+01   1.235600e+01
   7.626797e+00  -1.561702e+01
   7.494192e+01   4.597007e+00
   9.149813e+01   8.973103e+01
   1.642952e+01   1.541223e+02
  -1.272875e+02   1.504338e+02
  -2.273146e+02   9.527683e+00
  -1.821832e+02  -1.379967e+02
  -3.944292e+01  -2.297586e+02
   9.523480e+01  -1.566891e+02
   1.323671e+02  -2.833739e+01
   6.757728e+01   4.852058e+01
   2.831215e+01   3.064814e+01
   5.078755e+01  -1.483404e+01
   8.327090e+01  -8.774956e+00
   4.414276e+01   5.594240e+01
  -3.949881e+01   8.359947e+01
  -1.122348e+02   5.450629e+01
  -8.826969e+01  -3.536696e+01
   1.901313e+01  -1.120872e+02
   1.472055e+02  -7.988541e+01
   1.857068e+02   6.002664e+01
   7.478782e+01   1.971576e+02
  -1.107979e+02   2.155792e+02
  -2.579327e+02   7.502777e+01
  -2.290857e+02  -9.676726e+01
  -1.002530e+02  -1.732587e+02
   3.974153e+01  -1.333189e+02
   8.504949e+01  -7.188682e+01
   7.199101e+01  -6.642290e+01
   6.254105e+01  -8.257686e+01
   8.391206e+01  -6.384871e+01
   1.275275e+02   2.856019e+01
   1.232900e+02   1.322268e+02
   2.540563e+01   2.151084e+02
  -1.019325e+02   1.573807e+02
  -1.749701e+02   9.274316e+00
  -1.205132e+02  -1.227159e+02
  -6.314302e-01  -1.543507e+02
   7.578755e+01  -8.852213e+01
   5.746688e+01   3.723687e+00
  -7.237994e-01   4.657035e+01
  -1.802228e+01   3.334988e+01
   2.944089e+01   1.725927e+01
   8.020567e+01   1.491902e+01
   4.639306e+01   4.012100e+01
  -6.829654e+01   3.783778e+01
  -1.535974e+02  -2.288962e+00
  -1.290586e+02  -6.234966e+01
  -7.209316e+00  -8.962275e+01
   1.170055e+02  -7.075601e+01
   1.444339e+02  -1.025223e-01
   4.092125e+01   4.071325e+01
  -5.933963e+01   3.515460e+01
  -7.376116e+01  -1.827330e+01
  -1.351203e+01  -6.766379e+01
   4.951988e+01  -5.817783e+01
   6.359298e+01   1.485853e+00
   4.782057e+01   5.091073e+01
   4.450104e+01   4.554483e+01
   5.524079e+01   5.130681e+00
   6.463865e+01   9.961339e-01
   3.512128e+01   6.675202e+01
  -2.151410e+01   1.454893e+02
  -1.252186e+02   1.379042e+02
  -1.624493e+02   2.392330e+01
  -1.194305e+02  -8.948133e+01
  -6.457097e+00  -1.236178e+02
   9.192662e+01  -6.143104e+01
   5.896185e+01   1.188233e+01
  -5.379681e+01   2.002457e+01
  -1.369378e+02  -4.109392e+01
  -6.888594e+01  -1.074525e+02
   7.990602e+01  -9.629152e+01
   1.803353e+02  -4.108000e+01
   1.485894e+02   3.515020e+01
   3.576436e+01   8.259148e+01
  -5.954414e+01   5.751190e+01
  -4.868724e+01   5.176371e+00
   3.861047e+01  -2.692362e+01
   8.941942e+01   2.453334e+01
   3.321702e+01   1.096289e+02
  -7.930941e+01   1.395633e+02
  -1.620786e+02   5.711287e+01
  -1.234728e+02  -8.866167e+01
  -1.621634e+01  -1.928236e+02
   7.723250e+01  -1.442421e+02
   9.962362e+01   9.658428e+00
   5.182500e+01   1.095722e+02
  -6.151807e+00   9.869228e+01
  -4.812124e+01   1.749763e+01
  -4.840744e+01  -2.840897e+01
  -2.009043e+01  -5.719256e+00
  -4.540438e+00   1.758300e+01
  -2.493865e+01  -1.840300e+01
  -5.067185e+01  -9.153460e+01
  -2.997997e+01  -1.077060e+02
   4.820459e+01  -4.209676e+01
   1.332109e+02   4.172275e+01
   1.197808e+02   6.002551e+01
   1.638686e+01   4.626265e+01
  -8.300073e+01   1.961588e+01
  -8.297769e+01   7.754044e+00
  -1.306512e+01  -6.876253e+00
   3.590315e+01  -2.413268e+01
   1.536246e+01  -1.417527e+01
  -1.746856e+01   3.437314e+00
   3.780240e+00   7.855386e+00
   6.580108e+01   3.905961e+00
   8.570183e+01   2.063856e+01
   2.060601e+01   7.980365e+01
  -1.091033e+02   1.061005e+02
  -1.733584e+02   5.009912e+01
  -1.335241e+02  -6.110896e+01
  -2.679818e+01  -1.467749e+02
   7.538109e+01  -1.423326e+02
   1.111241e+02  -5.523515e+01
   7.549347e+01   1.587801e+01
   2.677059e+01   3.588846e+01
   2.478000e-01   1.108945e+01
   1.113740e+01   6.709886e+00
   3.052953e+01   4.543046e+01
   2.006392e+01   8.589511e+01
  -2.536202e+01   7.123350e+01
  -7.414405e+01  -1.866592e+01
  -7.000641e+01  -1.028349e+02
   5.369991e-01  -1.037750e+02
   7.655675e+01  -2.615734e+01
   1.012896e+02   7.096826e+01
   2.949868e+01   9.530586e+01
  -6.384155e+01   5.651273e+01
  -9.608994e+01  -1.126074e+01
  -4.264815e+01  -5.202994e+01
   3.595864e+01  -5.197106e+01
   3.685076e+01  -2.708679e+01
  -2.903847e+01   1.659429e+00
  -6.349410e+01   6.218020e+00
  -1.452235e+01  -2.491556e+01
   7.587373e+01  -5.768989e+01
   1.165329e+02  -5.819775e+01
   6.686953e+01   1.182761e+01
  -1.753081e+01   7.900326e+01
  -5.308193e+01   7.725231e+01
  -3.830849e+01   7.797526e+00
  -6.977994e+00  -5.001680e+01
   2.414212e+01  -4.241434e+01
   3.352785e+01   1.428939e+01
   2.305901e+01   5.430902e+01
  -2.546720e+00   3.153494e+01
  -3.097420e+01  -4.819179e+00
  -3.783413e+01  -2.254209e+01
  -1.994076e+01  -3.245348e+00
   2.035803e+00   1.613843e+01
   7.935254e+00   2.570343e+00
   3.549797e+00  -3.139800e+01
   6.897183e+00  -5.175945e+01
   2.723043e+01  -1.139594e+01
   3.128426e+01   4.061265e+01
   3.920291e+00   5.918140e+01
  -4.019069e+01   2.167916e+01
  -5.598655e+01  -3.376448e+01
  -1.819824e+01  -5.824128e+01
   5.458699e+01  -3.247011e+01
   9.017193e+01   1.509040e+01
   4.612055e+01   3.970921e+01
  -2.555954e+01   4.342658e+01
  -6.210782e+01   2.267344e+01
  -2.637590e+01   5.394500e+00
   3.172316e+01  -1.662738e+00
   3.289804e+01   1.201812e+01
  -2.457823e+01   2.707875e+01
  -8.107211e+01   1.716830e+01
