
 $NMID
 id='ANONYMOUS ', fmtdat='(2E16.6)'
 volume=1.0
 tramp=1.0
 $END
   3.246315e+03   9.370448e+01
   2.152846e+03   1.979527e+03
  -6.987862e+01   1.993217e+03
  -1.310486e+03   1.149251e+03
  -8.175129e+02  -2.418149e+01
  -3.590556e+01  -2.397998e+02
   3.778498e+02   1.208362e+02
  -4.831689e+01   6.877621e+02
  -6.518258e+02   5.702758e+02
  -6.995316e+02   1.377753e+02
  -3.565336e+02  -5.762259e+02
  -4.553469e+01  -6.690997e+02
   3.163467e+02  -1.640230e+02
   2.107529e+02   3.900440e+02
  -9.830684e+01   5.362562e+02
  -4.401955e+02   1.056204e+02
  -2.638626e+02  -4.844769e+02
   1.932899e+02  -5.634406e+02
   4.457670e+02  -2.402646e+02
   3.506588e+02   1.584060e+02
   5.765738e+01   3.695474e+02
  -1.514828e+02   2.271926e+02
  -8.041258e+01   6.674391e+01
   1.627875e+02   4.690050e+01
   2.917309e+02   2.249143e+02
  -2.931919e+01   3.754216e+02
  -4.751933e+02   1.909961e+02
  -6.269053e+02  -1.632679e+02
  -3.162491e+02  -3.633905e+02
   3.489608e+02  -2.876064e+02
   5.652390e+02   7.296146e+01
   1.598445e+02   4.145141e+02
  -2.587630e+02   3.729289e+02
  -4.321421e+02   1.626957e+02
  -3.325494e+02  -1.982776e+02
  -7.647899e+01  -3.357719e+02
   4.371839e+01  -1.876693e+02
   9.016890e+00   1.326503e+02
  -1.671014e+02   2.124466e+02
  -3.038045e+02  -1.326942e+02
  -3.546624e+01  -5.683420e+02
   3.505660e+02  -4.710177e+02
   3.148188e+02  -1.166505e+01
   1.476622e+02   3.278952e+02
  -1.540344e+02   1.615219e+02
  -2.423667e+02  -2.943130e+02
   6.402229e+01  -3.765645e+02
   4.349643e+02  -8.161234e+01
   5.024640e+02   3.627793e+02
   1.333580e+02   4.991793e+02
  -3.296942e+02   2.425943e+02
  -5.144960e+02  -3.013047e+01
  -3.017698e+02  -2.854234e+02
   8.571044e+01  -2.492537e+02
   3.186129e+02  -4.799956e+01
   2.038346e+02   5.905659e+01
  -3.082308e+01   3.047650e+01
  -7.453728e+01  -3.513390e+01
   1.297531e+02  -6.691898e+01
   2.550112e+02   6.202247e+01
   1.034944e+02   2.102089e+02
  -1.505844e+02   2.533207e+02
  -3.159422e+02   1.237268e+02
  -2.256985e+02  -8.137764e+01
   7.813500e+00  -2.862996e+02
   2.728568e+02  -3.473284e+02
   3.236276e+02  -1.692729e+02
   2.396266e+02   1.606251e+02
   6.941966e+01   3.807231e+02
  -6.300011e+01   3.091419e+02
  -5.094893e+01   1.555288e+02
  -3.631190e+01   7.425956e+01
  -1.100981e+02   1.143158e+02
  -2.361482e+02   6.649981e+01
  -2.071968e+02  -1.065309e+02
  -6.461540e+01  -2.584828e+02
   9.891096e+01  -1.871160e+02
   1.922154e+02   3.810642e+01
   1.610585e+02   2.215592e+02
  -3.332371e+01   2.400249e+02
  -2.687478e+02   3.907122e+01
  -3.080602e+02  -1.609049e+02
  -1.864825e+02  -2.960244e+02
   5.803795e+01  -2.781329e+02
   1.534811e+02  -1.330206e+02
   1.286369e+02  -4.701939e+01
   1.324508e+02  -6.674536e+01
   2.530588e+02  -4.370943e+01
   3.776038e+02   1.082926e+02
   2.884307e+02   2.687662e+02
  -2.876795e+01   4.113432e+02
  -3.875638e+02   3.284818e+02
  -4.709454e+02   1.434113e+02
  -2.657561e+02  -1.007653e+02
  -1.334522e+01  -2.520502e+02
   8.943541e+01  -2.008236e+02
   3.218270e+01  -2.014281e+01
  -1.148939e+02   4.661509e+01
  -1.400405e+02  -3.796505e+01
  -1.224873e+01  -1.342132e+02
   1.116528e+02  -1.114707e+02
   1.274729e+02   7.327265e+01
  -3.412979e+01   1.299943e+02
  -1.699229e+02   3.640954e+00
  -1.539340e+02  -2.258910e+02
   2.683167e+01  -3.036069e+02
   2.224345e+02  -1.987078e+02
   3.178809e+02   6.178485e+01
   2.818233e+02   2.093334e+02
   5.851927e+01   2.766287e+02
  -1.190861e+02   1.444983e+02
  -1.443164e+02   8.504851e+00
  -3.644281e+01  -1.458652e+01
   5.225763e+01   5.318152e+01
   5.364355e+00   1.117114e+02
  -1.208808e+02   6.139495e+01
  -1.496023e+02  -2.706800e+01
  -3.386466e+01  -5.665700e+01
   7.467609e+01   8.623862e+00
   3.929376e+01   9.001835e+01
  -1.364784e+02   8.396303e+01
  -2.881086e+02  -1.905196e+01
  -2.546100e+02  -1.635673e+02
  -2.923888e+01  -2.476191e+02
   1.958057e+02  -2.191219e+02
   2.694324e+02  -1.092992e+02
   1.359422e+02   4.161153e+01
  -2.669455e+01   8.255950e+01
  -6.808960e+01  -9.761916e-01
   4.798239e+01  -7.726270e+01
   1.711869e+02  -3.635986e+01
   1.800829e+02   9.404384e+01
   5.486615e+01   1.842039e+02
  -8.248397e+01   1.346705e+02
  -1.186909e+02   7.339309e+00
  -5.452796e+01  -3.951728e+01
   3.700899e+01   2.134875e+01
   2.657431e+01   9.971115e+01
  -9.260129e+01   1.116483e+02
  -1.987499e+02   6.805094e+00
  -1.886753e+02  -1.216692e+02
  -1.334167e+01  -1.927906e+02
   1.423481e+02  -1.529332e+02
   1.639258e+02  -2.306503e+01
   5.425921e+01   8.885233e+01
  -5.757015e+01   8.880259e+01
  -6.583086e+01   2.511381e+01
  -5.681503e+00  -2.280010e+01
   3.399205e+01  -1.414406e+01
  -7.934665e+00   2.267931e+01
  -7.876938e+01  -1.025608e+00
  -9.988725e+01  -8.882910e+01
  -1.530438e+01  -1.643623e+02
   1.316664e+02  -1.489321e+02
   2.206962e+02  -1.792224e+01
   2.002885e+02   1.465297e+02
   3.235422e+01   2.098266e+02
  -9.154904e+01   1.487744e+02
  -1.264504e+02   3.245140e+01
  -6.900040e+01  -3.993986e+01
  -2.863583e+01  -2.889363e+01
  -5.193607e+01   1.664648e+01
  -7.763110e+01   1.193647e+01
  -5.258750e+01  -5.158705e+01
   3.101602e+01  -9.993688e+01
   1.157875e+02  -6.521149e+01
   9.723359e+01   3.997225e+01
  -1.310948e+01   1.231703e+02
  -1.577727e+02   7.704635e+01
  -1.862962e+02  -5.362390e+01
  -6.697229e+01  -2.008845e+02
   1.233547e+02  -2.113053e+02
   2.620521e+02  -7.528171e+01
   2.388462e+02   1.086622e+02
   1.005923e+02   1.596387e+02
  -2.137926e+01   1.334463e+02
  -9.285169e+01   6.784865e+01
  -7.277866e+01   6.699802e+01
  -5.470900e+01   8.801532e+01
  -8.678234e+01   7.247020e+01
  -1.267138e+02  -2.059256e+01
  -1.242712e+02  -1.514407e+02
  -1.499757e+01  -2.130499e+02
   1.070139e+02  -1.662873e+02
   1.684831e+02   4.178162e+00
   1.193226e+02   1.285201e+02
   2.983583e-01   1.547328e+02
  -6.964825e+01   7.976240e+01
  -6.161462e+01  -1.092500e+01
   2.358093e+00  -5.071747e+01
   2.312661e+01  -3.367679e+01
  -3.009458e+01  -1.425614e+01
  -8.015859e+01  -1.349426e+01
  -4.991771e+01  -3.582257e+01
   6.949177e+01  -3.807861e+01
   1.629688e+02  -9.751102e+00
   1.304440e+02   6.426502e+01
   7.756250e+00   8.993851e+01
  -1.288302e+02   6.609054e+01
  -1.407063e+02  -2.270099e-01
  -4.441960e+01  -4.573972e+01
   5.423483e+01  -4.118718e+01
   7.569977e+01   1.912022e+01
   2.155700e+01   6.851102e+01
  -4.581876e+01   5.944464e+01
  -6.754409e+01   3.316019e+00
  -5.593871e+01  -4.220867e+01
  -4.299904e+01  -3.945659e+01
  -5.263591e+01  -6.158513e-01
  -6.102257e+01   2.082669e+00
  -3.603680e+01  -7.001377e+01
   1.817775e+01  -1.361402e+02
   1.257464e+02  -1.358127e+02
   1.701835e+02  -3.543920e+01
   1.220393e+02   8.570086e+01
   6.838345e+00   1.255377e+02
  -9.017654e+01   6.270063e+01
  -5.989265e+01  -8.575911e+00
   5.239488e+01  -1.917404e+01
   1.332362e+02   4.448225e+01
   6.819196e+01   1.047669e+02
  -8.466283e+01   1.042173e+02
  -1.749400e+02   3.592293e+01
  -1.490616e+02  -3.784031e+01
  -2.578947e+01  -7.985570e+01
   6.390049e+01  -5.507879e+01
   4.873613e+01  -9.233406e-01
  -3.647617e+01   3.136520e+01
  -8.862010e+01  -2.048828e+01
  -4.710848e+01  -1.052978e+02
   6.634726e+01  -1.448479e+02
   1.415644e+02  -7.200935e+01
   1.193815e+02   8.652376e+01
   1.428043e+01   1.863570e+02
  -7.711557e+01   1.376733e+02
  -9.797738e+01  -3.789291e+00
  -5.124680e+01  -1.188012e+02
   9.506078e+00  -9.771745e+01
   4.982252e+01  -1.213955e+01
   4.270399e+01   2.537776e+01
   1.634439e+01   6.816355e+00
   5.445213e+00  -1.623526e+01
   2.713404e+01   1.959061e+01
   5.457554e+01   8.549660e+01
   2.809056e+01   1.067030e+02
  -4.960872e+01   4.209277e+01
  -1.275963e+02  -3.690172e+01
  -1.200850e+02  -6.631559e+01
  -2.122626e+01  -4.815131e+01
   7.899211e+01  -2.007723e+01
   8.520360e+01  -7.386422e+00
   1.592515e+01   9.250803e+00
  -3.460804e+01   2.122766e+01
  -1.787355e+01   1.245765e+01
   1.477675e+01  -3.417386e+00
  -2.167276e+00  -6.990954e+00
  -6.346153e+01   3.399284e+00
  -9.186469e+01  -1.590269e+01
  -2.391515e+01  -7.887158e+01
   1.042908e+02  -1.156549e+02
   1.762666e+02  -6.613446e+01
   1.425968e+02   6.507828e+01
   4.001998e+01   1.416465e+02
  -7.575529e+01   1.475349e+02
  -1.053887e+02   6.336473e+01
  -7.831445e+01  -2.001560e+01
  -2.504616e+01  -3.742639e+01
  -2.150917e+00  -1.267758e+01
  -1.203831e+01  -7.903314e+00
  -3.210159e+01  -4.532252e+01
  -2.338683e+01  -8.054453e+01
   3.043226e+01  -6.717317e+01
   7.588748e+01   1.564794e+01
   7.983938e+01   9.293908e+01
   1.393411e+01   1.000802e+02
  -7.062129e+01   2.535028e+01
  -9.985915e+01  -5.444114e+01
  -3.960850e+01  -9.186499e+01
   6.139700e+01  -5.462121e+01
   9.397474e+01   3.994110e+00
   4.569267e+01   5.352799e+01
  -3.282383e+01   5.782817e+01
  -3.792198e+01   2.850264e+01
   2.748250e+01  -4.439572e+00
   6.172152e+01  -8.333359e+00
   1.781935e+01   2.455770e+01
  -7.514722e+01   6.268351e+01
  -1.097346e+02   5.830197e+01
  -6.550921e+01  -9.805142e+00
   1.340573e+01  -7.948835e+01
   5.340428e+01  -8.010016e+01
   3.941770e+01  -1.048221e+01
   7.400649e+00   4.953327e+01
  -1.967251e+01   4.399882e+01
  -3.423363e+01  -1.198230e+01
  -2.529560e+01  -5.351240e+01
   1.895920e+00  -3.383486e+01
   3.276354e+01   5.509191e+00
   4.018947e+01   2.249732e+01
   1.958462e+01   2.898245e+00
  -4.029460e+00  -1.708368e+01
  -8.478725e+00  -4.692636e+00
   3.119384e+00   3.162274e+01
  -7.756978e-01   5.025937e+01
  -2.315077e+01   1.856371e+01
  -3.287108e+01  -3.076025e+01
  -1.054266e+01  -5.668369e+01
   3.936774e+01  -2.498643e+01
   5.700028e+01   2.519873e+01
   1.895754e+01   5.471098e+01
  -5.245115e+01   3.437162e+01
  -8.945388e+01  -6.050898e+00
  -5.141950e+01  -3.949997e+01
   2.590292e+01  -4.376172e+01
   5.902485e+01  -2.995101e+01
   2.649127e+01  -9.230407e+00
  -2.677444e+01   2.338744e+00
  -3.044355e+01  -9.712111e+00
   2.356849e+01  -2.407791e+01
   7.687599e+01  -1.512445e+01
