
 $NMID
 id='ANONYMOUS ', fmtdat='(2E16.6)'
 volume=1.0
 tramp=1.0
 $END
  -3.407773e+03  -1.752701e+02
  -2.111178e+03  -1.891426e+03
   9.566277e+01  -2.098430e+03
   1.520595e+03  -9.294513e+02
   9.371704e+02  -4.322539e+01
  -5.091205e+01   4.071461e+02
  -4.296874e+02  -3.084468e+02
   6.823387e+01  -7.044808e+02
   6.465005e+02  -5.463250e+02
   6.617388e+02  -3.883232e+01
   4.377284e+02   6.346498e+02
   4.213984e+01   6.763845e+02
  -4.369440e+02   1.089130e+02
  -2.496940e+02  -4.272725e+02
   1.606243e+02  -6.049190e+02
   4.189488e+02  -7.431752e+01
   3.472243e+02   5.635781e+02
  -1.714799e+02   5.876875e+02
  -4.547362e+02   2.475278e+02
  -3.711564e+02  -1.656814e+02
  -7.636979e+01  -3.866232e+02
   1.520576e+02  -2.593366e+02
   9.415059e+01  -8.315680e+01
  -1.857236e+02  -6.227425e+01
  -2.947065e+02  -2.208338e+02
   7.174613e+00  -3.729190e+02
   4.837580e+02  -1.949163e+02
   6.237567e+02   2.206367e+02
   3.046359e+02   3.681446e+02
  -3.355689e+02   2.324379e+02
  -5.872892e+02  -1.153943e+02
  -1.847241e+02  -4.051907e+02
   2.524086e+02  -3.594453e+02
   4.701346e+02  -1.638773e+02
   2.930902e+02   1.580132e+02
   5.382517e+01   3.435622e+02
  -8.741466e+01   2.146994e+02
  -2.143820e+01  -1.643078e+02
   2.230233e+02  -1.891257e+02
   2.788373e+02   1.228719e+02
   3.044459e+01   5.520163e+02
  -3.624181e+02   4.838290e+02
  -4.125835e+02  -1.079674e+01
  -1.969129e+02  -3.751074e+02
   1.689290e+02  -2.069444e+02
   1.809658e+02   2.820710e+02
  -1.190366e+02   4.172957e+02
  -4.662980e+02   9.123109e+01
  -4.871917e+02  -3.791212e+02
  -1.632097e+02  -5.161763e+02
   3.289250e+02  -2.943353e+02
   5.444676e+02   3.458146e+01
   3.206068e+02   2.696026e+02
  -8.867407e+01   2.730423e+02
  -3.197799e+02   7.320875e+01
  -2.204465e+02  -7.762279e+01
   3.125177e+01  -1.235580e+01
   5.102990e+01   6.871042e+01
  -1.366537e+02   8.765489e+01
  -2.619709e+02  -7.348505e+01
  -1.207681e+02  -2.183761e+02
   1.715307e+02  -2.191072e+02
   3.187335e+02  -9.477607e+01
   2.392376e+02   8.680915e+01
  -1.663879e+01   2.847975e+02
  -2.847456e+02   3.678804e+02
  -3.643098e+02   1.784738e+02
  -2.441067e+02  -1.677448e+02
  -2.987292e+01  -3.764913e+02
   9.274561e+01  -3.352740e+02
   3.674866e+01  -1.554458e+02
   5.038999e+01  -9.844775e+01
   1.061806e+02  -1.233213e+02
   2.525358e+02  -6.498591e+01
   2.193006e+02   1.101420e+02
   7.840214e+01   2.607846e+02
  -9.700685e+01   1.998194e+02
  -2.047571e+02  -4.071843e+01
  -1.611439e+02  -2.363364e+02
   5.450335e+01  -2.464726e+02
   2.731745e+02  -4.914008e+01
   3.031791e+02   1.616377e+02
   1.713305e+02   3.245653e+02
  -3.969627e+01   2.653758e+02
  -1.725671e+02   1.307035e+02
  -1.376724e+02   6.056573e+01
  -1.410377e+02   6.589139e+01
  -2.697752e+02   4.389901e+01
  -3.901212e+02  -9.593721e+01
  -2.894929e+02  -2.891141e+02
   2.682075e+01  -4.218836e+02
   4.056269e+02  -3.746370e+02
   4.921853e+02  -1.540617e+02
   2.831423e+02   7.947076e+01
   7.589302e+00   2.465003e+02
  -1.021294e+02   1.922354e+02
  -3.027502e+01   1.860720e+01
   1.219304e+02  -5.976139e+01
   1.436130e+02   4.182074e+01
   6.623061e+00   1.443224e+02
  -1.187271e+02   1.294365e+02
  -1.193246e+02  -6.655094e+01
   4.905872e+01  -1.254762e+02
   1.762306e+02   2.510994e+00
   1.442052e+02   2.428655e+02
  -2.596184e+01   3.236265e+02
  -2.386414e+02   2.059559e+02
  -3.308831e+02  -6.363608e+01
  -2.902224e+02  -2.398572e+02
  -7.924959e+01  -2.995344e+02
   1.327750e+02  -1.474301e+02
   1.587604e+02  -5.323527e+00
   3.383728e+01   1.120249e+01
  -5.016204e+01  -5.984792e+01
  -5.884716e-01  -1.271108e+02
   1.292949e+02  -5.599322e+01
   1.547347e+02   2.869204e+01
   4.136915e+01   6.106302e+01
  -7.734231e+01  -5.326567e+00
  -4.206342e+01  -9.658695e+01
   1.445000e+02  -8.637669e+01
   2.946342e+02   1.867347e+01
   2.493696e+02   1.562100e+02
   3.360906e+01   2.517669e+02
  -2.068179e+02   2.327599e+02
  -2.833736e+02   1.060577e+02
  -1.402314e+02  -4.532983e+01
   3.328540e+01  -7.555824e+01
   7.403014e+01  -1.871874e+00
  -5.435348e+01   9.331415e+01
  -1.840314e+02   4.346899e+01
  -1.692139e+02  -1.061559e+02
  -5.275418e+01  -1.913702e+02
   8.186283e+01  -1.330832e+02
   1.325534e+02  -1.674773e+01
   4.608419e+01   3.610944e+01
  -4.218152e+01  -2.033885e+01
  -2.687216e+01  -1.058505e+02
   9.476541e+01  -1.128899e+02
   2.069169e+02  -7.228900e+00
   1.822915e+02   1.343219e+02
   1.153260e+01   2.079592e+02
  -1.564524e+02   1.574721e+02
  -1.765259e+02   1.215659e+01
  -5.215023e+01  -1.029603e+02
   6.151893e+01  -9.869260e+01
   7.186449e+01  -2.214183e+01
   2.420483e+00   2.494242e+01
  -3.796638e+01   1.241196e+01
   9.923531e+00  -2.200914e+01
   8.738449e+01  -4.951455e+00
   1.037945e+02   9.527741e+01
   9.744647e+00   1.706197e+02
  -1.417102e+02   1.561538e+02
  -2.422245e+02   8.610980e+00
  -2.022992e+02  -1.549522e+02
  -3.382427e+01  -2.243408e+02
   9.873287e+01  -1.612985e+02
   1.326285e+02  -2.206729e+01
   7.581214e+01   4.452418e+01
   3.252864e+01   2.854094e+01
   5.381470e+01  -1.294837e+01
   8.316011e+01  -1.197734e+01
   5.521098e+01   5.771224e+01
  -3.541717e+01   9.650814e+01
  -1.253016e+02   7.106773e+01
  -9.960930e+01  -4.069113e+01
   1.096210e+01  -1.271122e+02
   1.596627e+02  -8.029995e+01
   2.020058e+02   6.123510e+01
   7.715578e+01   2.170075e+02
  -1.235927e+02   2.223695e+02
  -2.692676e+02   7.605632e+01
  -2.377465e+02  -1.081808e+02
  -1.033571e+02  -1.664811e+02
   3.569498e+01  -1.424073e+02
   9.233391e+01  -7.273381e+01
   7.314178e+01  -6.820094e+01
   5.645419e+01  -9.184257e+01
   8.896951e+01  -7.717264e+01
   1.296037e+02   2.029170e+01
   1.214618e+02   1.571046e+02
   1.966862e+01   2.271823e+02
  -1.087863e+02   1.639796e+02
  -1.662228e+02  -5.655126e+00
  -1.305773e+02  -1.300582e+02
  -2.418180e+00  -1.608824e+02
   7.286401e+01  -7.874503e+01
   6.075727e+01   1.277833e+01
  -5.138824e-01   5.186107e+01
  -2.419119e+01   3.573944e+01
   2.694735e+01   1.427837e+01
   8.443473e+01   1.712860e+01
   5.038105e+01   3.862522e+01
  -7.402097e+01   3.952685e+01
  -1.748401e+02   4.881361e-01
  -1.363521e+02  -6.388335e+01
  -2.692864e+00  -9.427641e+01
   1.322071e+02  -6.493511e+01
   1.506707e+02  -2.483560e+00
   4.634831e+01   4.665763e+01
  -5.981203e+01   4.321076e+01
  -7.595857e+01  -1.710358e+01
  -2.168688e+01  -7.034125e+01
   4.961164e+01  -6.649254e+01
   7.007606e+01  -1.651629e+00
   5.767207e+01   4.645184e+01
   4.552193e+01   4.316589e+01
   5.579818e+01   2.294828e+00
   6.136512e+01  -3.486801e-01
   3.474317e+01   7.066873e+01
  -1.972446e+01   1.448024e+02
  -1.288111e+02   1.375012e+02
  -1.759328e+02   2.711745e+01
  -1.186116e+02  -9.072018e+01
  -6.342906e+00  -1.290626e+02
   9.393307e+01  -6.524309e+01
   6.044943e+01   1.085748e+01
  -5.497646e+01   1.968614e+01
  -1.313803e+02  -4.889341e+01
  -7.160573e+01  -1.066670e+02
   8.799720e+01  -1.024662e+02
   1.798737e+02  -4.498932e+01
   1.570055e+02   4.070760e+01
   3.076206e+01   8.932714e+01
  -6.640811e+01   5.811135e+01
  -4.975165e+01  -1.390812e+00
   3.922642e+01  -3.042980e+01
   9.050944e+01   2.179042e+01
   4.884087e+01   1.131944e+02
  -7.861553e+01   1.499820e+02
  -1.572692e+02   7.104245e+01
  -1.176297e+02  -8.947728e+01
  -5.428520e+00  -1.839346e+02
   7.533405e+01  -1.394319e+02
   1.036491e+02   6.498826e+00
   5.215953e+01   1.225995e+02
  -6.961194e+00   9.861057e+01
  -5.190136e+01   1.673746e+01
  -4.499776e+01  -2.862835e+01
  -1.830011e+01  -6.413407e+00
  -5.576674e+00   1.772066e+01
  -2.884475e+01  -2.213267e+01
  -5.371277e+01  -9.172922e+01
  -2.580274e+01  -1.041229e+02
   5.376204e+01  -4.339859e+01
   1.279621e+02   3.956293e+01
   1.271778e+02   6.739682e+01
   1.912423e+01   5.175671e+01
  -7.806559e+01   1.514597e+01
  -9.129422e+01   7.614544e+00
  -1.598632e+01  -9.706965e+00
   3.335357e+01  -2.169410e+01
   1.843336e+01  -1.174593e+01
  -1.430390e+01   4.676038e+00
   3.268413e+00   7.160712e+00
   6.397334e+01   1.940382e-01
   9.318263e+01   1.983804e+01
   2.268349e+01   8.175931e+01
  -1.088122e+02   1.067380e+02
  -1.879097e+02   5.930708e+01
  -1.447788e+02  -6.583423e+01
  -3.658357e+01  -1.596064e+02
   7.745042e+01  -1.432366e+02
   1.139303e+02  -5.799233e+01
   8.067373e+01   1.979652e+01
   2.629041e+01   3.778996e+01
   1.807488e+00   1.328458e+01
   1.355636e+01   8.076642e+00
   2.973693e+01   4.480500e+01
   2.138943e+01   8.908638e+01
  -3.208590e+01   6.821144e+01
  -7.440760e+01  -1.511835e+01
  -8.243323e+01  -1.017778e+02
  -8.773002e+00  -1.096827e+02
   7.518243e+01  -2.866001e+01
   9.748629e+01   6.278161e+01
   4.077570e+01   9.422124e+01
  -6.298703e+01   5.944557e+01
  -9.955593e+01  -6.360893e+00
  -4.663935e+01  -5.794398e+01
   3.584573e+01  -5.936112e+01
   4.284086e+01  -2.896684e+01
  -2.610600e+01   3.096542e+00
  -6.795813e+01   9.926597e+00
  -1.612899e+01  -2.536443e+01
   7.763349e+01  -6.030761e+01
   1.198115e+02  -5.850601e+01
   7.123186e+01   1.414166e+01
  -1.666696e+01   8.085993e+01
  -5.705318e+01   8.217844e+01
  -4.407153e+01   1.299008e+01
  -8.240231e+00  -5.157310e+01
   2.138232e+01  -4.960984e+01
   3.681563e+01   1.158774e+01
   2.472442e+01   5.123245e+01
   4.118277e-01   3.639379e+01
  -3.231819e+01  -6.334364e+00
  -4.093279e+01  -2.443636e+01
  -2.005172e+01  -3.950959e+00
   4.663091e+00   1.790307e+01
   7.966828e+00   7.235722e+00
   6.112273e-02  -3.416836e+01
  -1.284876e+00  -5.235053e+01
   2.391214e+01  -1.720844e+01
   3.542961e+01   3.588503e+01
   1.367457e+01   5.535816e+01
  -3.945901e+01   2.546071e+01
  -5.879149e+01  -3.283430e+01
  -2.003805e+01  -5.716390e+01
   5.619086e+01  -3.400334e+01
   9.146982e+01   9.562453e+00
   5.208492e+01   4.172479e+01
  -2.745691e+01   4.433174e+01
  -6.185856e+01   2.860957e+01
  -2.800390e+01   8.408182e+00
   2.786943e+01  -2.409411e+00
   3.173739e+01   8.360431e+00
  -2.363105e+01   2.393833e+01
  -8.052930e+01   1.448405e+01
