
 $NMID
 id='ANONYMOUS ', fmtdat='(2E16.6)'
 volume=1.0
 tramp=1.0
 $END
   3.436042e+03   8.667308e+01
   2.209582e+03   2.118579e+03
  -1.850895e+02   2.074027e+03
  -1.458621e+03   8.337689e+02
  -8.640681e+02  -6.842986e+01
   1.617636e+02  -3.574156e+02
   5.281730e+02   3.322779e+02
  -2.683669e+01   6.827266e+02
  -5.929382e+02   5.145834e+02
  -6.261410e+02   4.748048e+01
  -4.571564e+02  -6.569840e+02
  -4.815468e+01  -7.378831e+02
   4.092444e+02  -7.057210e+01
   2.506717e+02   4.749886e+02
  -1.762045e+02   5.862880e+02
  -4.583490e+02   6.123630e+01
  -3.017112e+02  -5.391320e+02
   2.234331e+02  -5.948703e+02
   4.677361e+02  -1.850734e+02
   3.725106e+02   2.209117e+02
   6.444749e+01   3.764157e+02
  -1.518607e+02   2.397314e+02
  -1.055507e+02   4.710673e+01
   1.546425e+02  -1.652056e+01
   3.156547e+02   1.919059e+02
   7.082278e+01   3.558518e+02
  -4.334693e+02   2.377159e+02
  -6.616932e+02  -1.618479e+02
  -3.716773e+02  -4.113467e+02
   3.125108e+02  -2.872912e+02
   5.902532e+02   1.277219e+02
   2.138312e+02   3.646032e+02
  -2.213952e+02   3.970380e+02
  -4.698509e+02   1.342821e+02
  -3.317316e+02  -1.669300e+02
  -8.087591e+01  -3.197771e+02
   1.070043e+02  -1.900718e+02
   7.497189e+00   1.789433e+02
  -1.589630e+02   2.326010e+02
  -3.277474e+02  -8.722559e+01
  -8.384832e+01  -5.479822e+02
   2.933735e+02  -4.943828e+02
   3.961597e+02  -6.685448e+01
   1.952672e+02   3.757352e+02
  -1.914554e+02   1.703831e+02
  -2.399953e+02  -2.578042e+02
   9.148552e+01  -4.235353e+02
   4.795369e+02  -7.760920e+01
   4.886992e+02   3.578268e+02
   1.702193e+02   5.109796e+02
  -3.468582e+02   2.930596e+02
  -5.469156e+02  -1.744582e+01
  -3.266095e+02  -3.213599e+02
   9.788442e+01  -2.836236e+02
   3.579802e+02  -4.171556e+01
   2.321283e+02   9.765561e+01
  -2.913377e+01   4.959593e+01
  -1.219323e+02  -6.047556e+01
   1.230136e+02  -1.059680e+02
   2.776238e+02   9.139061e+01
   1.232366e+02   2.403441e+02
  -1.502561e+02   2.394704e+02
  -3.007016e+02   1.088750e+02
  -2.223356e+02  -7.547293e+01
   6.908742e+00  -2.576940e+02
   2.602941e+02  -3.476376e+02
   3.417529e+02  -1.916037e+02
   2.470223e+02   1.656789e+02
   7.168111e+01   3.504494e+02
  -9.540123e+01   2.994008e+02
  -4.096788e+01   1.445801e+02
  -4.290371e+01   7.222905e+01
  -9.100990e+01   1.087346e+02
  -2.117174e+02   8.380875e+01
  -2.323491e+02  -1.006387e+02
  -1.018202e+02  -2.514639e+02
   6.977314e+01  -1.682585e+02
   1.868400e+02   2.317789e+01
   1.516592e+02   2.325348e+02
  -3.073840e+01   2.425587e+02
  -2.530905e+02   7.272377e+01
  -3.196138e+02  -1.443609e+02
  -1.700769e+02  -2.989783e+02
   4.289249e+01  -2.694998e+02
   1.869626e+02  -1.212802e+02
   1.410235e+02  -4.734003e+01
   1.255319e+02  -5.064064e+01
   2.462873e+02  -4.603890e+01
   3.657448e+02   7.935567e+01
   2.873304e+02   2.785469e+02
  -3.160522e+01   4.050267e+02
  -3.695094e+02   3.768328e+02
  -4.511752e+02   1.579168e+02
  -2.816243e+02  -8.285611e+01
  -2.030331e+01  -2.515406e+02
   1.014099e+02  -1.919096e+02
   4.433254e+01  -2.697772e+01
  -1.198983e+02   6.466496e+01
  -1.652242e+02  -1.453130e+01
  -2.474642e+01  -1.529605e+02
   1.369243e+02  -1.277403e+02
   1.264410e+02   6.633784e+01
  -2.806063e+01   1.373078e+02
  -1.790633e+02  -7.051130e+00
  -1.350596e+02  -2.238268e+02
   1.770624e+01  -3.248897e+02
   2.238977e+02  -2.035541e+02
   3.118854e+02   4.540687e+01
   2.708446e+02   2.331555e+02
   7.407773e+01   2.756531e+02
  -1.075072e+02   1.441309e+02
  -1.487209e+02   2.208598e+01
  -4.571399e+01  -2.035943e+01
   5.308235e+01   5.482319e+01
   7.770666e+00   1.185078e+02
  -1.124075e+02   6.694857e+01
  -1.433709e+02  -2.107089e+01
  -4.167258e+01  -5.568116e+01
   7.364229e+01   4.476703e+00
   4.103995e+01   8.151875e+01
  -1.353478e+02   8.547034e+01
  -2.782882e+02  -3.229497e+01
  -2.474606e+02  -1.414454e+02
  -3.464637e+01  -2.302872e+02
   1.955523e+02  -2.284189e+02
   2.576391e+02  -1.004058e+02
   1.437692e+02   3.935045e+01
  -2.091852e+01   7.927826e+01
  -7.403032e+01   3.022798e+00
   4.088058e+01  -8.824625e+01
   1.798774e+02  -3.960786e+01
   1.765945e+02   9.552032e+01
   5.542699e+01   1.844817e+02
  -8.363584e+01   1.338558e+02
  -1.296398e+02   1.302897e+01
  -4.855764e+01  -3.378276e+01
   3.433637e+01   1.265020e+01
   3.410446e+01   9.378266e+01
  -8.751996e+01   1.120986e+02
  -1.972811e+02   7.224578e+00
  -1.841949e+02  -1.147565e+02
  -1.352862e+01  -1.963436e+02
   1.487866e+02  -1.531584e+02
   1.790136e+02  -1.497663e+01
   5.326007e+01   1.034785e+02
  -6.826745e+01   9.791168e+01
  -7.485658e+01   2.206303e+01
  -3.690095e+00  -2.083337e+01
   2.985924e+01  -1.214618e+01
  -8.016972e+00   2.069625e+01
  -8.007115e+01  -4.814994e-01
  -9.102687e+01  -8.621260e+01
  -1.070534e+01  -1.577003e+02
   1.270221e+02  -1.496352e+02
   2.352394e+02  -9.335039e+00
   1.974326e+02   1.375095e+02
   3.587011e+01   2.172915e+02
  -1.006866e+02   1.584182e+02
  -1.221540e+02   3.488895e+01
  -6.942114e+01  -4.618811e+01
  -3.177378e+01  -2.982854e+01
  -5.056941e+01   1.617879e+01
  -8.066924e+01   1.064940e+01
  -4.876297e+01  -5.668925e+01
   3.445145e+01  -9.093446e+01
   1.115765e+02  -5.799056e+01
   9.189153e+01   3.404239e+01
  -1.359789e+01   1.195182e+02
  -1.409872e+02   8.208228e+01
  -1.866202e+02  -6.105193e+01
  -7.685278e+01  -2.098562e+02
   1.165296e+02  -2.207283e+02
   2.473271e+02  -8.003874e+01
   2.210281e+02   8.277480e+01
   9.804162e+01   1.631524e+02
  -3.640610e+01   1.382979e+02
  -8.634718e+01   6.872263e+01
  -6.938471e+01   6.495778e+01
  -5.785029e+01   8.937751e+01
  -8.391579e+01   7.018477e+01
  -1.232842e+02  -1.805466e+01
  -1.237666e+02  -1.351516e+02
  -2.079123e+01  -2.185236e+02
   9.866663e+01  -1.629089e+02
   1.589778e+02  -7.907606e+00
   1.300913e+02   1.184869e+02
   1.094819e+01   1.568666e+02
  -7.154416e+01   8.131606e+01
  -5.537279e+01  -6.103249e+00
  -5.712945e-01  -4.612584e+01
   1.971055e+01  -3.431065e+01
  -2.844891e+01  -1.309266e+01
  -7.917239e+01  -1.819121e+01
  -4.807234e+01  -3.667405e+01
   6.564473e+01  -3.746992e+01
   1.537802e+02  -7.753811e+00
   1.278681e+02   5.482229e+01
   3.604560e+00   8.571933e+01
  -1.152844e+02   6.780478e+01
  -1.477503e+02   3.464422e+00
  -4.441803e+01  -4.261723e+01
   5.666539e+01  -4.046978e+01
   7.186317e+01   1.753623e+01
   1.635286e+01   7.047173e+01
  -4.814210e+01   6.431563e+01
  -6.705770e+01   4.084009e-01
  -5.040427e+01  -4.500491e+01
  -4.325900e+01  -4.206440e+01
  -5.280536e+01  -1.669605e+00
  -6.123171e+01   1.734978e+00
  -3.676648e+01  -6.105439e+01
   2.195964e+01  -1.459721e+02
   1.180705e+02  -1.355039e+02
   1.608432e+02  -2.645801e+01
   1.191684e+02   8.581091e+01
   6.646947e+00   1.237342e+02
  -8.640724e+01   6.099117e+01
  -5.876930e+01  -7.954216e+00
   5.355811e+01  -1.900761e+01
   1.269475e+02   4.269363e+01
   7.552734e+01   1.018448e+02
  -7.869290e+01   9.985400e+01
  -1.752819e+02   4.262299e+01
  -1.472563e+02  -3.010938e+01
  -3.222816e+01  -8.434448e+01
   5.680567e+01  -5.904505e+01
   4.480017e+01  -2.519394e+00
  -3.700479e+01   2.719161e+01
  -8.650943e+01  -2.064218e+01
  -4.558403e+01  -1.108388e+02
   7.717257e+01  -1.422049e+02
   1.558471e+02  -5.976904e+01
   1.137574e+02   8.165369e+01
   1.681729e+01   1.816270e+02
  -7.355194e+01   1.363559e+02
  -9.890277e+01  -7.038774e+00
  -5.196130e+01  -1.123028e+02
   5.285323e+00  -9.688589e+01
   4.831011e+01  -1.724153e+01
   4.585240e+01   2.977716e+01
   1.695737e+01   6.409690e+00
   5.839953e+00  -1.693673e+01
   2.580965e+01   2.009731e+01
   5.470712e+01   8.721760e+01
   2.826949e+01   9.921899e+01
  -5.137366e+01   4.252021e+01
  -1.273721e+02  -3.996223e+01
  -1.181935e+02  -6.550324e+01
  -1.778255e+01  -4.946784e+01
   7.664559e+01  -2.129896e+01
   8.757066e+01  -8.090559e+00
   1.461392e+01   7.832161e+00
  -3.227720e+01   2.159462e+01
  -1.592477e+01   1.235617e+01
   1.536098e+01  -4.346117e+00
  -2.866721e+00  -7.062209e+00
  -6.351021e+01   3.444737e-01
  -8.475170e+01  -1.833691e+01
  -2.363834e+01  -8.023724e+01
   1.013093e+02  -1.030600e+02
   1.783934e+02  -5.591998e+01
   1.358233e+02   5.947274e+01
   3.318427e+01   1.529579e+02
  -6.485729e+01   1.433130e+02
  -1.102444e+02   5.508567e+01
  -7.315940e+01  -1.492325e+01
  -2.488538e+01  -3.422328e+01
  -7.672849e-01  -1.124518e+01
  -1.072972e+01  -6.685803e+00
  -2.868970e+01  -4.069861e+01
  -1.987800e+01  -8.822130e+01
   2.566551e+01  -6.912992e+01
   7.244451e+01   1.116185e+01
   7.626443e+01   9.592877e+01
   8.251896e+00   1.023313e+02
  -7.358864e+01   2.822421e+01
  -9.738050e+01  -6.535950e+01
  -3.726866e+01  -9.311137e+01
   5.893077e+01  -5.326978e+01
   9.633585e+01   3.365364e+00
   4.329824e+01   5.032419e+01
  -3.474926e+01   5.471637e+01
  -3.822395e+01   2.634221e+01
   2.427537e+01  -4.433752e+00
   6.287129e+01  -9.726807e+00
   1.640782e+01   2.432095e+01
  -7.654940e+01   6.191035e+01
  -1.111880e+02   6.032189e+01
  -6.574761e+01  -1.307287e+01
   1.238248e+01  -7.932846e+01
   5.163412e+01  -8.096217e+01
   4.209684e+01  -9.703229e+00
   8.643311e+00   4.877784e+01
  -2.197510e+01   4.594346e+01
  -3.646795e+01  -1.246467e+01
  -2.545214e+01  -5.049327e+01
   4.572316e-01  -3.314750e+01
   3.281752e+01   4.179135e+00
   3.991943e+01   2.224182e+01
   1.955279e+01   2.739852e+00
  -3.205209e+00  -1.686875e+01
  -7.218580e+00  -4.602397e+00
   2.081128e+00   3.084960e+01
  -4.000612e+00   4.937151e+01
  -2.350524e+01   1.404867e+01
  -3.637979e+01  -3.599864e+01
  -1.005547e+01  -5.603068e+01
   3.914733e+01  -2.271121e+01
   5.317833e+01   3.028528e+01
   1.950443e+01   5.475849e+01
  -5.292902e+01   3.216914e+01
  -8.782553e+01  -1.158213e+01
  -4.778989e+01  -3.887288e+01
   2.486644e+01  -4.363357e+01
   5.983733e+01  -2.631158e+01
   2.571938e+01  -7.153616e+00
  -2.888633e+01   3.932158e+00
  -3.220953e+01  -9.080524e+00
   2.014974e+01  -2.504572e+01
   7.751909e+01  -2.353570e+01
