
 $NMID
 id='ANONYMOUS ', fmtdat='(2E16.6)'
 volume=1.0
 tramp=1.0
 $END
  -3.560369e+03  -2.339825e+02
  -2.260200e+03  -2.140032e+03
   2.951400e+02  -2.159307e+03
   1.611208e+03  -9.331391e+02
   1.011143e+03   1.717891e+02
  -2.700524e+02   3.795606e+02
  -5.510374e+02  -4.125161e+02
  -2.557249e+01  -8.288777e+02
   6.892764e+02  -6.786189e+02
   7.728640e+02   7.128354e+00
   3.863969e+02   6.133507e+02
  -8.104158e+01   7.669544e+02
  -5.180477e+02   1.044064e+02
  -2.970329e+02  -5.230621e+02
   2.239168e+02  -6.850424e+02
   5.477123e+02  -5.663175e+01
   2.816093e+02   5.178151e+02
  -2.617198e+02   5.892059e+02
  -5.030139e+02   1.854191e+02
  -3.504789e+02  -2.435360e+02
  -3.579637e+01  -3.614105e+02
   1.689806e+02  -2.247721e+02
   1.182004e+02  -5.569287e+01
  -1.587283e+02   1.751503e+01
  -3.237290e+02  -1.779381e+02
  -6.354816e+01  -3.798114e+02
   4.183732e+02  -2.366900e+02
   6.899976e+02   1.998950e+02
   3.023173e+02   4.730328e+02
  -2.915057e+02   3.058725e+02
  -5.915156e+02  -1.050278e+02
  -2.073486e+02  -3.686476e+02
   2.415360e+02  -3.807789e+02
   4.356648e+02  -1.800328e+02
   3.329356e+02   1.848431e+02
   9.245103e+01   3.369502e+02
  -1.225190e+02   2.068879e+02
  -1.010547e+02  -1.707637e+02
   1.052637e+02  -3.126781e+02
   3.609059e+02   1.089711e+02
   1.186994e+02   5.208696e+02
  -2.940000e+02   5.343843e+02
  -4.036940e+02   2.737216e+00
  -1.802717e+02  -3.945596e+02
   2.030312e+02  -2.141839e+02
   2.732613e+02   2.962156e+02
  -1.007726e+02   4.669002e+02
  -4.597967e+02   6.964781e+01
  -5.061366e+02  -4.155703e+02
  -1.767194e+02  -4.901502e+02
   3.376038e+02  -2.647768e+02
   5.605609e+02   6.848565e+01
   3.047177e+02   3.623691e+02
  -1.112402e+02   2.837032e+02
  -3.446399e+02   1.687720e+01
  -1.827055e+02  -1.168816e+02
   3.733440e+01  -6.735704e+01
   8.989206e+01   9.040048e+01
  -1.498649e+02   1.322752e+02
  -2.756679e+02  -9.200344e+01
  -1.215689e+02  -2.336163e+02
   1.615072e+02  -2.482742e+02
   3.123878e+02  -9.343335e+01
   2.028569e+02   7.895255e+01
  -8.383672e+00   2.331791e+02
  -2.425766e+02   3.154887e+02
  -3.401616e+02   1.830080e+02
  -2.547384e+02  -1.533267e+02
  -7.010119e+01  -3.838876e+02
   9.558269e+01  -3.179267e+02
   6.482889e+01  -1.454744e+02
   2.828090e+01  -4.282307e+01
   7.449421e+01  -9.831293e+01
   1.974343e+02  -8.242195e+01
   2.263569e+02   9.001640e+01
   1.166908e+02   2.628924e+02
  -6.818693e+01   1.982405e+02
  -1.621263e+02  -3.726175e+00
  -1.546753e+02  -2.265322e+02
   1.860546e+00  -2.531176e+02
   2.458198e+02  -8.105764e+01
   3.210526e+02   1.505256e+02
   1.742431e+02   2.906454e+02
  -5.232242e+01   2.589254e+02
  -1.777418e+02   1.058114e+02
  -1.344556e+02   3.090990e+01
  -1.202378e+02   4.158155e+01
  -2.242626e+02   5.325957e+01
  -3.465759e+02  -6.958108e+01
  -2.869434e+02  -2.687788e+02
   3.192141e+01  -3.978661e+02
   3.538653e+02  -3.633775e+02
   4.220004e+02  -1.657415e+02
   2.708227e+02   8.933125e+01
   1.996224e+01   2.474638e+02
  -1.045508e+02   2.039641e+02
  -4.684824e+01   1.746418e+01
   1.073030e+02  -7.893543e+01
   1.684401e+02   2.216722e+01
   2.322368e+01   1.545476e+02
  -1.514203e+02   1.368507e+02
  -1.377454e+02  -6.791266e+01
   2.092214e+01  -1.431322e+02
   1.826407e+02  -2.082447e+00
   1.417170e+02   2.243825e+02
  -2.604974e+01   3.028582e+02
  -2.204688e+02   1.914719e+02
  -3.086043e+02  -4.724407e+01
  -2.592732e+02  -2.223807e+02
  -6.427129e+01  -2.635020e+02
   1.086096e+02  -1.491980e+02
   1.470634e+02  -1.537865e+01
   4.567495e+01   2.137191e+01
  -5.117423e+01  -4.896710e+01
  -5.943668e+00  -1.187130e+02
   1.089052e+02  -7.849392e+01
   1.552732e+02   2.512467e+01
   4.117942e+01   5.138065e+01
  -7.137772e+01  -2.562667e+00
  -3.837678e+01  -7.397271e+01
   1.321067e+02  -7.813501e+01
   2.627305e+02   1.775993e+01
   2.300309e+02   1.549891e+02
   4.366409e+01   2.290220e+02
  -1.873594e+02   2.115925e+02
  -2.645406e+02   1.060581e+02
  -1.433388e+02  -5.234197e+01
   2.216692e+01  -9.146891e+01
   7.133096e+01   2.256680e+00
  -4.086814e+01   8.863316e+01
  -1.731341e+02   4.091299e+01
  -1.795073e+02  -8.570695e+01
  -6.403066e+01  -1.789910e+02
   8.662854e+01  -1.364735e+02
   1.343684e+02  -1.070375e+01
   5.317113e+01   3.244436e+01
  -3.146798e+01  -9.877222e+00
  -2.893013e+01  -8.460102e+01
   8.693000e+01  -1.063294e+02
   1.849176e+02  -9.498001e+00
   1.706470e+02   1.145517e+02
   1.245204e+01   1.876273e+02
  -1.488496e+02   1.515927e+02
  -1.723518e+02   1.575728e+01
  -5.290218e+01  -1.087272e+02
   6.912478e+01  -9.711989e+01
   7.588818e+01  -1.814511e+01
   9.182109e+00   2.177814e+01
  -2.579430e+01   1.750195e+01
   8.006457e+00  -1.531791e+01
   7.394697e+01   3.744907e+00
   9.337190e+01   8.380907e+01
   1.366359e+01   1.391662e+02
  -1.172423e+02   1.449103e+02
  -2.176917e+02   7.345734e+00
  -1.810491e+02  -1.350003e+02
  -4.136759e+01  -2.186145e+02
   9.633648e+01  -1.567288e+02
   1.234730e+02  -3.428092e+01
   6.857762e+01   4.845646e+01
   2.788517e+01   3.060695e+01
   4.921979e+01  -1.470711e+01
   7.791484e+01  -7.662849e+00
   4.141987e+01   5.285905e+01
  -3.411249e+01   8.391286e+01
  -1.074653e+02   5.595490e+01
  -8.283436e+01  -3.443458e+01
   1.746354e+01  -1.098489e+02
   1.384401e+02  -7.716727e+01
   1.782697e+02   5.991359e+01
   6.827060e+01   1.985690e+02
  -1.097596e+02   2.032418e+02
  -2.455336e+02   7.731949e+01
  -2.211078e+02  -9.359854e+01
  -9.492669e+01  -1.627593e+02
   3.413081e+01  -1.283079e+02
   8.376100e+01  -6.772440e+01
   7.002050e+01  -6.347896e+01
   5.995794e+01  -8.621131e+01
   8.198495e+01  -6.577677e+01
   1.239321e+02   2.012083e+01
   1.162795e+02   1.265235e+02
   1.893549e+01   2.164709e+02
  -9.409941e+01   1.537750e+02
  -1.631257e+02   9.633743e+00
  -1.215069e+02  -1.209592e+02
  -6.425229e+00  -1.476782e+02
   6.925273e+01  -8.201921e+01
   5.770939e+01   6.128982e+00
   6.325749e-01   4.499524e+01
  -1.786677e+01   3.020138e+01
   2.888287e+01   1.425883e+01
   7.723973e+01   1.569760e+01
   4.753592e+01   3.845178e+01
  -6.301015e+01   3.904736e+01
  -1.483438e+02   5.392997e-01
  -1.258727e+02  -5.994961e+01
  -1.020098e+01  -8.758829e+01
   1.135595e+02  -6.785406e+01
   1.410383e+02  -2.471097e+00
   4.050011e+01   4.151355e+01
  -5.813574e+01   3.603596e+01
  -6.981674e+01  -1.624379e+01
  -1.657717e+01  -6.506804e+01
   4.511991e+01  -5.817386e+01
   6.239158e+01   1.403058e+00
   4.737767e+01   4.682877e+01
   4.055791e+01   4.101531e+01
   5.283137e+01   2.741633e+00
   6.359674e+01  -6.257069e-01
   3.410076e+01   6.236862e+01
  -1.957266e+01   1.365771e+02
  -1.135924e+02   1.303096e+02
  -1.587393e+02   2.835580e+01
  -1.148090e+02  -8.863246e+01
  -6.534550e+00  -1.130251e+02
   8.486743e+01  -5.822425e+01
   5.849375e+01   9.316112e+00
  -5.198272e+01   2.027631e+01
  -1.270063e+02  -4.036975e+01
  -7.041699e+01  -1.004678e+02
   7.959709e+01  -9.774523e+01
   1.744361e+02  -4.029503e+01
   1.452043e+02   3.226339e+01
   3.490588e+01   8.157376e+01
  -5.737966e+01   5.516508e+01
  -4.480243e+01   5.586677e+00
   3.682306e+01  -2.727671e+01
   8.477687e+01   2.263775e+01
   3.498398e+01   1.109443e+02
  -7.661601e+01   1.349552e+02
  -1.568968e+02   5.616702e+01
  -1.143840e+02  -8.176566e+01
  -1.687903e+01  -1.804160e+02
   7.606514e+01  -1.367430e+02
   1.003417e+02   1.065673e+01
   4.515725e+01   1.051744e+02
  -3.158684e+00   9.106085e+01
  -4.723207e+01   1.735501e+01
  -4.552578e+01  -2.682461e+01
  -1.816028e+01  -5.852961e+00
  -5.215028e+00   1.649355e+01
  -2.377039e+01  -1.670878e+01
  -5.187190e+01  -8.556042e+01
  -2.582574e+01  -1.047262e+02
   4.765883e+01  -4.169610e+01
   1.277203e+02   4.219269e+01
   1.126936e+02   5.365673e+01
   1.502968e+01   4.670760e+01
  -7.865973e+01   1.895831e+01
  -7.895879e+01   8.986281e+00
  -1.206702e+01  -7.908129e+00
   3.328772e+01  -2.324074e+01
   1.475442e+01  -1.346655e+01
  -1.506497e+01   3.896406e+00
   3.831870e+00   7.183281e+00
   6.191651e+01   2.720174e+00
   8.202337e+01   2.083726e+01
   2.135893e+01   7.278790e+01
  -9.839311e+01   1.026009e+02
  -1.677242e+02   5.183754e+01
  -1.319129e+02  -6.260600e+01
  -2.899697e+01  -1.399713e+02
   6.893111e+01  -1.347652e+02
   1.067595e+02  -5.380736e+01
   7.260899e+01   1.362380e+01
   2.542853e+01   3.393756e+01
  -5.073278e-01   1.018963e+01
   1.047389e+01   5.946130e+00
   3.040634e+01   4.435946e+01
   1.741162e+01   8.470871e+01
  -2.488108e+01   6.700658e+01
  -7.357015e+01  -1.699348e+01
  -6.917158e+01  -9.611055e+01
  -4.891665e+00  -9.960506e+01
   7.159707e+01  -2.103456e+01
   9.665391e+01   6.479033e+01
   3.445771e+01   9.458627e+01
  -5.631750e+01   5.247347e+01
  -9.501862e+01  -1.016351e+01
  -3.955892e+01  -4.953195e+01
   3.148955e+01  -5.047821e+01
   3.402321e+01  -2.430306e+01
  -2.606118e+01   3.693127e+00
  -6.195132e+01   6.965686e+00
  -1.527650e+01  -2.396826e+01
   7.222005e+01  -5.852923e+01
   1.093374e+02  -5.655300e+01
   6.231139e+01   1.133818e+01
  -1.342953e+01   7.524970e+01
  -5.020590e+01   7.663646e+01
  -3.708197e+01   5.833039e+00
  -7.069120e+00  -4.908744e+01
   2.273896e+01  -4.302528e+01
   3.325273e+01   1.403488e+01
   2.228770e+01   5.096907e+01
  -1.389786e+00   3.072538e+01
  -3.019801e+01  -4.621805e+00
  -3.557404e+01  -2.093551e+01
  -1.901291e+01  -3.394716e+00
   2.177412e+00   1.501777e+01
   7.554716e+00   1.766037e+00
   1.870373e+00  -3.023532e+01
   8.805693e+00  -4.600092e+01
   2.709616e+01  -1.246060e+01
   3.313165e+01   3.420848e+01
   4.098478e+00   5.638221e+01
  -4.123629e+01   1.871586e+01
  -5.458906e+01  -3.246814e+01
  -1.640713e+01  -5.612025e+01
   5.275182e+01  -3.169768e+01
   8.733388e+01   1.537707e+01
   4.557904e+01   3.780058e+01
  -2.350837e+01   4.199922e+01
  -5.985267e+01   2.016384e+01
  -2.489523e+01   6.235027e+00
   2.786912e+01  -2.358709e+00
   3.025629e+01   8.177741e+00
  -2.206433e+01   2.466875e+01
  -7.917552e+01   2.113948e+01
