
 $NMID
 id='ANONYMOUS ', fmtdat='(2E16.6)'
 volume=1.0
 tramp=1.0
 $END
  -4.258599e+03  -1.484165e+02
  -2.388971e+03  -2.619845e+03
   7.787006e+02  -2.875447e+03
   1.866302e+03  -6.256573e+02
   9.185504e+02   6.415530e+02
  -6.190717e+02   4.716400e+02
  -7.683861e+02  -5.559706e+02
   9.061601e+01  -1.042547e+03
   8.740959e+02  -7.037402e+02
   8.364441e+02   6.731212e+01
   3.712253e+02   8.321360e+02
  -2.383948e+02   8.629108e+02
  -6.252173e+02   6.039768e+01
  -3.243109e+02  -7.365353e+02
   3.173820e+02  -6.869235e+02
   5.451160e+02  -2.786283e+01
   2.699701e+02   6.475208e+02
  -3.516074e+02   6.255738e+02
  -5.984480e+02   9.350990e+01
  -3.804152e+02  -3.611387e+02
  -9.703440e+00  -4.273602e+02
   2.528600e+02  -2.521772e+02
   2.187706e+02   1.051174e+01
  -1.440167e+02   7.494231e+01
  -4.185511e+02  -8.084760e+01
  -2.160742e+02  -4.130556e+02
   5.098829e+02  -4.114882e+02
   9.239537e+02   8.357176e+01
   3.235552e+02   5.613232e+02
  -3.665509e+02   4.606832e+02
  -7.469090e+02  -1.861135e+02
  -3.464585e+02  -4.991620e+02
   3.267936e+02  -5.066588e+02
   5.458995e+02  -1.574500e+02
   3.634168e+02   2.286487e+02
   3.081021e+01   4.837955e+02
  -2.071508e+02   2.504142e+02
  -1.355607e+02  -2.321636e+02
   1.732755e+02  -4.460417e+02
   4.941143e+02   5.964942e+01
   1.648134e+02   7.131956e+02
  -3.207965e+02   6.921247e+02
  -5.646536e+02  -3.957606e+01
  -2.088190e+02  -5.533619e+02
   2.819456e+02  -3.129740e+02
   3.901508e+02   3.609251e+02
  -7.464372e+01   5.651554e+02
  -5.453375e+02   9.116365e+01
  -5.740329e+02  -4.315074e+02
  -1.336119e+02  -6.318578e+02
   3.960034e+02  -3.186930e+02
   6.356550e+02   5.620886e+01
   3.451301e+02   3.348495e+02
  -1.922292e+02   3.199153e+02
  -4.458935e+02   2.419552e+01
  -2.337268e+02  -2.098853e+02
   9.951366e+01  -1.062392e+02
   1.321824e+02   1.321010e+02
  -1.797945e+02   1.880013e+02
  -3.376207e+02  -1.011014e+02
  -1.221105e+02  -3.183308e+02
   2.201584e+02  -2.441241e+02
   3.058735e+02  -7.210719e+01
   1.956164e+02   7.148157e+01
  -1.892904e+01   2.194291e+02
  -1.962532e+02   3.244906e+02
  -3.378676e+02   2.208559e+02
  -2.831978e+02  -1.338579e+02
  -6.219714e+01  -4.643853e+02
   1.289699e+02  -3.759753e+02
   1.181631e+02  -1.092083e+02
   2.126316e+01   3.467023e+00
   3.895545e+01  -9.517074e+01
   2.110054e+02  -1.454934e+02
   2.675409e+02   4.901303e+01
   1.734770e+02   2.691821e+02
  -6.364901e+01   2.538871e+02
  -2.357860e+02   1.997578e+01
  -1.658326e+02  -2.408776e+02
   1.947591e+01  -2.905666e+02
   2.775515e+02  -1.257858e+02
   3.788675e+02   1.809462e+02
   1.724716e+02   3.750256e+02
  -1.224492e+02   3.046400e+02
  -2.284803e+02   9.973341e+01
  -1.356258e+02   1.953714e+01
  -9.072485e+01   2.952859e+01
  -2.281961e+02   7.807318e+01
  -4.169716e+02  -7.754969e+01
  -3.411662e+02  -2.814921e+02
   6.402680e-02  -4.243472e+02
   3.474882e+02  -4.336731e+02
   4.765667e+02  -2.409175e+02
   3.227899e+02   9.374548e+01
   5.382181e+01   2.799964e+02
  -1.390133e+02   2.509967e+02
  -6.635204e+01   1.532583e+01
   1.210868e+02  -1.087747e+02
   2.000135e+02   8.764769e+00
   4.711137e+01   1.919496e+02
  -1.925421e+02   1.655538e+02
  -1.823125e+02  -7.517025e+01
   1.736874e+01  -1.793112e+02
   2.039950e+02  -3.167163e+01
   1.772866e+02   2.504675e+02
  -1.795136e+01   3.270666e+02
  -2.338679e+02   1.822688e+02
  -3.266206e+02  -3.921345e+01
  -2.697767e+02  -2.397830e+02
  -1.071528e+02  -2.692875e+02
   1.227894e+02  -1.603316e+02
   1.731993e+02  -1.499379e+01
   6.514237e+01   3.070108e+01
  -6.903802e+01  -3.405892e+01
  -2.681275e+01  -1.386422e+02
   1.271386e+02  -1.027255e+02
   1.838226e+02   2.048260e+01
   5.751447e+01   7.957910e+01
  -8.218555e+01   1.318120e+01
  -5.670511e+01  -7.213716e+01
   1.241276e+02  -8.558729e+01
   2.859181e+02  -5.815924e+00
   2.514766e+02   1.230418e+02
   5.090972e+01   2.593907e+02
  -1.760814e+02   2.650174e+02
  -3.037958e+02   1.268060e+02
  -1.767951e+02  -4.331731e+01
   2.925843e+01  -1.222174e+02
   9.838350e+01   2.581253e+00
  -3.503639e+01   1.072448e+02
  -1.854842e+02   6.047208e+01
  -2.074641e+02  -1.071904e+02
  -5.898580e+01  -2.065854e+02
   9.000870e+01  -1.580533e+02
   1.480062e+02  -3.047084e+01
   7.189351e+01   4.914849e+01
  -3.076178e+01   3.324070e-01
  -4.776259e+01  -8.375366e+01
   6.727683e+01  -1.121440e+02
   1.940367e+02  -3.712807e+01
   1.711701e+02   1.160571e+02
   1.655796e+01   2.178384e+02
  -1.722151e+02   1.598101e+02
  -1.858263e+02   1.262035e+00
  -6.835176e+01  -1.180543e+02
   6.535116e+01  -1.138928e+02
   8.667075e+01  -2.213219e+01
   1.584305e+01   2.700595e+01
  -1.936072e+01   2.022381e+01
   8.689417e+00  -6.393184e+00
   6.414475e+01   7.332547e+00
   8.726929e+01   8.259424e+01
   4.432024e+00   1.558356e+02
  -1.279335e+02   1.531446e+02
  -2.379481e+02   3.497997e+01
  -1.815104e+02  -1.460410e+02
  -4.376366e+01  -2.278246e+02
   1.119137e+02  -1.786008e+02
   1.428990e+02  -3.235232e+01
   6.540933e+01   5.154342e+01
   2.701011e+01   3.625819e+01
   5.379834e+01  -1.036364e+01
   7.473804e+01  -8.360214e+00
   4.353030e+01   4.731217e+01
  -3.618590e+01   8.591002e+01
  -1.094505e+02   5.367338e+01
  -8.628235e+01  -3.132104e+01
   1.096836e+01  -1.045273e+02
   1.409233e+02  -9.351943e+01
   1.949772e+02   4.654402e+01
   1.071961e+02   1.934508e+02
  -1.060452e+02   2.329392e+02
  -2.692862e+02   9.406806e+01
  -2.672852e+02  -9.314578e+01
  -9.028047e+01  -1.805326e+02
   4.882413e+01  -1.453911e+02
   9.166488e+01  -7.828435e+01
   8.750924e+01  -6.376107e+01
   5.907893e+01  -7.904361e+01
   8.720857e+01  -7.322493e+01
   1.246334e+02   2.286936e+01
   1.019575e+02   1.541562e+02
   3.064546e+01   2.131255e+02
  -9.887656e+01   1.673688e+02
  -1.740770e+02   2.773895e+01
  -1.353796e+02  -1.225370e+02
  -2.122472e+01  -1.542528e+02
   6.823678e+01  -9.657995e+01
   6.290819e+01  -1.109344e-01
   1.982974e+00   4.413659e+01
  -9.643895e+00   3.585579e+01
   3.544567e+01   1.615980e+01
   7.119397e+01   2.247013e+01
   4.059032e+01   3.669198e+01
  -6.449668e+01   3.690310e+01
  -1.562512e+02  -9.677021e-01
  -1.403498e+02  -3.965242e+01
  -1.953321e+01  -8.951503e+01
   1.200673e+02  -7.243480e+01
   1.331308e+02  -2.020756e+01
   4.805005e+01   4.020085e+01
  -5.515134e+01   3.351757e+01
  -7.478200e+01  -1.912666e+01
  -3.084221e+00  -6.847662e+01
   5.487516e+01  -5.449188e+01
   6.366660e+01   1.648422e+00
   4.120836e+01   5.014496e+01
   4.609719e+01   3.960223e+01
   5.949832e+01   5.819637e+00
   6.490374e+01  -1.546658e+00
   3.697162e+01   6.532754e+01
  -3.352232e+01   1.457930e+02
  -1.138298e+02   1.295830e+02
  -1.534505e+02   3.302907e+01
  -1.142161e+02  -8.663085e+01
  -5.867902e+00  -1.292402e+02
   8.593291e+01  -6.338440e+01
   5.910057e+01   1.300662e+01
  -5.509358e+01   2.023606e+01
  -1.371139e+02  -4.760701e+01
  -6.754114e+01  -1.018862e+02
   7.392298e+01  -1.131098e+02
   1.667409e+02  -4.603051e+01
   1.592501e+02   2.955385e+01
   3.076680e+01   8.838726e+01
  -5.643931e+01   7.157617e+01
  -4.907414e+01   8.035211e+00
   3.720701e+01  -2.594307e+01
   9.783192e+01   1.988073e+01
   3.103359e+01   1.207426e+02
  -9.618844e+01   1.491673e+02
  -1.640302e+02   6.551233e+01
  -1.226467e+02  -9.409330e+01
  -4.184243e+00  -2.023239e+02
   9.758486e+01  -1.396486e+02
   1.045465e+02   1.026472e+01
   6.284724e+01   1.179015e+02
  -6.970765e+00   1.051820e+02
  -4.562181e+01   2.315358e+01
  -5.056974e+01  -3.266669e+01
  -2.486030e+01  -8.904515e+00
  -3.818799e+00   1.962649e+01
  -1.989657e+01  -1.192033e+01
  -6.005145e+01  -8.596299e+01
  -4.729882e+01  -1.065756e+02
   4.747360e+01  -5.015219e+01
   1.287423e+02   3.511991e+01
   1.244330e+02   7.352944e+01
   1.566891e+01   4.983394e+01
  -8.484792e+01   2.244063e+01
  -8.791111e+01   5.521150e+00
  -1.176455e+01  -5.755478e+00
   3.808722e+01  -2.014020e+01
   1.589432e+01  -1.853892e+01
  -2.307738e+01   5.307586e-01
   4.835411e+00   1.018789e+01
   7.179760e+01   7.296669e+00
   8.885669e+01   2.609955e+01
   3.607602e+00   7.727792e+01
  -1.171939e+02   1.077984e+02
  -1.717648e+02   6.838860e+01
  -1.383714e+02  -6.697355e+01
  -1.544368e+01  -1.586825e+02
   7.240919e+01  -1.363468e+02
   1.109157e+02  -6.197385e+01
   7.737678e+01   2.387430e+01
   2.522868e+01   3.453374e+01
  -3.590891e+00   8.468397e+00
   1.116527e+01   3.530932e+00
   3.186355e+01   4.349581e+01
   1.964786e+01   8.491657e+01
  -2.990520e+01   6.849304e+01
  -7.782596e+01  -2.006648e+01
  -7.512668e+01  -1.026162e+02
  -4.562825e+00  -1.036686e+02
   7.879166e+01  -2.048368e+01
   1.012492e+02   7.776999e+01
   3.209121e+01   9.673128e+01
  -6.351683e+01   5.346528e+01
  -9.946134e+01  -1.122803e+01
  -3.756909e+01  -5.103693e+01
   3.027611e+01  -5.237524e+01
   3.014821e+01  -2.797018e+01
  -3.247459e+01   6.778534e-02
  -6.649486e+01   5.568087e+00
  -1.507640e+01  -2.337239e+01
   7.372235e+01  -5.911017e+01
   1.145397e+02  -5.796133e+01
   5.977732e+01   1.559862e+01
  -1.506143e+01   7.810390e+01
  -4.868781e+01   7.793878e+01
  -3.720388e+01   6.423044e+00
  -1.423285e+00  -5.003300e+01
   2.525261e+01  -4.051033e+01
   3.516244e+01   1.650978e+01
   2.595735e+01   5.297546e+01
  -2.075795e+00   3.000078e+01
  -3.042252e+01  -8.478717e+00
  -3.696052e+01  -2.100456e+01
  -1.941618e+01  -1.846404e+00
   2.232574e+00   1.290145e+01
   9.422161e+00  -2.922150e+00
   5.986186e+00  -3.669251e+01
   2.336737e+01  -4.108418e+01
   3.009634e+01  -6.514432e+00
   2.895273e+01   4.261233e+01
  -3.094170e+00   5.928605e+01
  -4.231938e+01   2.122984e+01
  -5.188452e+01  -3.780093e+01
  -1.332970e+01  -6.354950e+01
   5.366218e+01  -3.520556e+01
   8.633664e+01   1.446612e+01
   4.164967e+01   4.415644e+01
  -2.629621e+01   3.894707e+01
  -6.538033e+01   2.044913e+01
  -2.458538e+01   6.176091e+00
   3.669246e+01   5.085267e+00
   3.626986e+01   1.605039e+01
  -2.880816e+01   2.799169e+01
  -8.382387e+01   1.366396e+01
