
 $NMID
 id='ANONYMOUS ', fmtdat='(2E16.6)'
 volume=1.0
 tramp=1.0
 $END
   4.143671e+03   1.628458e+02
   2.263097e+03   2.677041e+03
  -7.039121e+02   2.798342e+03
  -1.895269e+03   6.715116e+02
  -9.097071e+02  -5.948952e+02
   6.314666e+02  -5.308381e+02
   7.710159e+02   6.386973e+02
  -1.464891e+02   9.594155e+02
  -8.945313e+02   7.019971e+02
  -8.587125e+02  -1.232225e+02
  -3.717116e+02  -8.575572e+02
   2.300253e+02  -7.913005e+02
   6.161417e+02  -4.712129e+01
   3.478607e+02   7.318084e+02
  -3.005612e+02   6.747067e+02
  -5.396351e+02  -4.294842e+00
  -2.601450e+02  -6.382879e+02
   3.430261e+02  -5.982742e+02
   5.680311e+02  -8.005020e+01
   3.773345e+02   3.547841e+02
   2.016750e+01   4.073620e+02
  -2.431732e+02   2.579255e+02
  -2.146792e+02  -4.583215e+00
   1.423372e+02  -8.276891e+01
   3.892369e+02   1.065389e+02
   2.055517e+02   3.956944e+02
  -4.746407e+02   4.240842e+02
  -8.944144e+02  -5.073564e+01
  -3.174935e+02  -5.390730e+02
   3.584356e+02  -4.038886e+02
   7.521045e+02   1.757308e+02
   3.430100e+02   4.913469e+02
  -3.194500e+02   4.774477e+02
  -5.412760e+02   1.245884e+02
  -3.725800e+02  -2.023100e+02
  -3.783324e+01  -4.595848e+02
   2.072272e+02  -2.391855e+02
   1.086784e+02   2.344930e+02
  -2.075755e+02   4.595451e+02
  -4.342180e+02  -8.357868e+01
  -1.724752e+02  -7.119555e+02
   3.442560e+02  -6.617850e+02
   5.608550e+02   3.121953e+01
   1.861903e+02   5.261187e+02
  -3.059247e+02   2.835793e+02
  -3.774436e+02  -3.580116e+02
   7.442860e+01  -5.318255e+02
   5.274639e+02  -8.250623e+01
   5.622281e+02   4.128952e+02
   1.435067e+02   6.217603e+02
  -4.050246e+02   3.054627e+02
  -6.283850e+02  -6.956440e+01
  -3.389922e+02  -3.324902e+02
   1.886062e+02  -3.209755e+02
   4.256819e+02  -4.286825e+01
   2.264003e+02   1.872293e+02
  -1.087783e+02   1.030266e+02
  -1.235602e+02  -1.451120e+02
   1.940011e+02  -1.886344e+02
   3.281457e+02   9.325027e+01
   1.210622e+02   3.196850e+02
  -2.234118e+02   2.435199e+02
  -2.953953e+02   6.486082e+01
  -1.848271e+02  -6.585825e+01
   7.792066e+00  -2.199686e+02
   2.052747e+02  -3.212149e+02
   3.221685e+02  -2.046946e+02
   2.852754e+02   1.384604e+02
   7.072457e+01   4.657611e+02
  -1.282694e+02   3.707036e+02
  -1.198224e+02   1.107769e+02
  -2.243914e+01   9.567774e-01
  -2.411692e+01   9.500451e+01
  -2.013292e+02   1.348321e+02
  -2.586891e+02  -5.941103e+01
  -1.630986e+02  -2.591090e+02
   7.149216e+01  -2.373410e+02
   2.260247e+02  -1.388491e+01
   1.736019e+02   2.366474e+02
  -1.682183e+01   2.936083e+02
  -2.621648e+02   1.177682e+02
  -3.625880e+02  -1.718730e+02
  -1.594207e+02  -3.711296e+02
   1.295879e+02  -3.103381e+02
   2.183053e+02  -9.454243e+01
   1.334967e+02  -1.645804e+01
   9.636249e+01  -1.826809e+01
   2.315470e+02  -7.328654e+01
   4.014522e+02   8.090613e+01
   3.341165e+02   2.786432e+02
  -4.571858e-01   4.108446e+02
  -3.337067e+02   4.156111e+02
  -4.785105e+02   2.420960e+02
  -3.135568e+02  -8.630649e+01
  -4.164417e+01  -2.672308e+02
   1.269863e+02  -2.470086e+02
   6.688961e+01  -7.485965e+00
  -1.158537e+02   1.057874e+02
  -1.886721e+02  -1.066816e+01
  -4.206216e+01  -1.872325e+02
   1.775156e+02  -1.618330e+02
   1.837163e+02   7.187109e+01
  -1.312216e+01   1.868550e+02
  -1.929267e+02   2.420783e+01
  -1.693977e+02  -2.529497e+02
   3.292918e+01  -3.233796e+02
   2.204530e+02  -1.746250e+02
   3.288200e+02   3.772301e+01
   2.673253e+02   2.321053e+02
   9.856228e+01   2.658963e+02
  -1.157300e+02   1.581156e+02
  -1.752905e+02   1.926219e+01
  -6.064440e+01  -3.186494e+01
   6.882220e+01   3.458044e+01
   2.667241e+01   1.326166e+02
  -1.254365e+02   1.006433e+02
  -1.819676e+02  -2.207874e+01
  -5.465476e+01  -7.509122e+01
   8.239225e+01  -1.348326e+01
   5.589531e+01   7.056637e+01
  -1.202904e+02   8.259435e+01
  -2.870249e+02  -7.915210e-01
  -2.487831e+02  -1.288400e+02
  -5.142242e+01  -2.495057e+02
   1.790785e+02  -2.517011e+02
   2.940480e+02  -1.134632e+02
   1.666598e+02   5.289735e+01
  -2.298561e+01   1.161239e+02
  -1.014618e+02  -5.559509e-01
   3.393231e+01  -1.034907e+02
   1.793525e+02  -5.818683e+01
   2.109221e+02   1.043118e+02
   5.507873e+01   2.052391e+02
  -9.223690e+01   1.502218e+02
  -1.431536e+02   2.577453e+01
  -7.004573e+01  -4.465484e+01
   2.515663e+01  -5.639971e+00
   4.169633e+01   8.366221e+01
  -6.825975e+01   1.049325e+02
  -1.842325e+02   3.282769e+01
  -1.642477e+02  -1.088826e+02
  -1.599996e+01  -2.209356e+02
   1.687192e+02  -1.538991e+02
   1.880891e+02   5.874001e+00
   6.384717e+01   1.203430e+02
  -6.782808e+01   1.120670e+02
  -8.505119e+01   2.572676e+01
  -1.504144e+01  -2.546076e+01
   1.711540e+01  -1.851448e+01
  -1.013270e+01   6.518653e+00
  -6.792000e+01  -8.102791e+00
  -8.382595e+01  -7.847615e+01
  -5.870168e+00  -1.583174e+02
   1.256702e+02  -1.499343e+02
   2.328115e+02  -3.175358e+01
   1.768879e+02   1.429517e+02
   4.055139e+01   2.220750e+02
  -1.085519e+02   1.744829e+02
  -1.393801e+02   3.119673e+01
  -6.775454e+01  -5.313727e+01
  -2.639206e+01  -3.592866e+01
  -5.288561e+01   1.061959e+01
  -7.205591e+01   8.139208e+00
  -4.088676e+01  -4.701469e+01
   3.822492e+01  -8.361057e+01
   1.051619e+02  -5.126686e+01
   8.795660e+01   2.931354e+01
  -6.598429e+00   1.040740e+02
  -1.385093e+02   9.004053e+01
  -1.942305e+02  -4.428898e+01
  -1.011498e+02  -1.931843e+02
   1.019502e+02  -2.302013e+02
   2.591482e+02  -9.525281e+01
   2.645299e+02   9.532633e+01
   8.852678e+01   1.771675e+02
  -5.217797e+01   1.421247e+02
  -9.224207e+01   7.818517e+01
  -8.375949e+01   6.458263e+01
  -6.086121e+01   7.797752e+01
  -8.820381e+01   7.398288e+01
  -1.216034e+02  -2.241023e+01
  -1.030805e+02  -1.530002e+02
  -3.161881e+01  -2.114191e+02
   9.697725e+01  -1.606087e+02
   1.688315e+02  -2.959071e+01
   1.366810e+02   1.169854e+02
   2.098330e+01   1.513267e+02
  -6.973855e+01   9.578626e+01
  -6.086102e+01   3.874646e-02
  -2.465321e+00  -4.417529e+01
   9.590897e+00  -3.469755e+01
  -3.348600e+01  -1.517772e+01
  -6.991262e+01  -2.142132e+01
  -4.135928e+01  -3.760840e+01
   6.478447e+01  -3.465494e+01
   1.562809e+02  -1.322283e+00
   1.357140e+02   4.555331e+01
   1.456331e+01   8.801653e+01
  -1.221384e+02   7.455281e+01
  -1.323591e+02   1.960815e+01
  -4.756932e+01  -4.137397e+01
   5.397099e+01  -3.285638e+01
   7.292400e+01   1.881695e+01
   5.010242e+00   6.726738e+01
  -5.445733e+01   5.391605e+01
  -6.257822e+01  -1.383226e+00
  -4.044679e+01  -5.215093e+01
  -4.232119e+01  -3.824754e+01
  -5.769831e+01  -6.462386e+00
  -6.201326e+01   2.309832e+00
  -3.543092e+01  -6.555878e+01
   3.328113e+01  -1.396489e+02
   1.100623e+02  -1.253270e+02
   1.524558e+02  -3.389487e+01
   1.096054e+02   8.847078e+01
   3.544667e+00   1.245136e+02
  -8.685907e+01   6.098521e+01
  -5.793315e+01  -1.344522e+01
   5.449783e+01  -2.141520e+01
   1.387796e+02   4.731629e+01
   6.621007e+01   9.885769e+01
  -7.400600e+01   1.103314e+02
  -1.655331e+02   4.198764e+01
  -1.559706e+02  -3.235545e+01
  -3.106039e+01  -8.803720e+01
   5.674268e+01  -6.755867e+01
   4.870726e+01  -7.588310e+00
  -3.751877e+01   2.579967e+01
  -9.468652e+01  -1.913493e+01
  -2.986681e+01  -1.197192e+02
   9.316350e+01  -1.460669e+02
   1.613200e+02  -5.927693e+01
   1.227903e+02   9.869087e+01
   4.440593e+00   1.970767e+02
  -9.831099e+01   1.374491e+02
  -1.022530e+02  -1.117406e+01
  -5.942092e+01  -1.179245e+02
   5.892378e+00  -9.975085e+01
   4.557191e+01  -2.098839e+01
   4.764372e+01   3.073041e+01
   2.462511e+01   9.626720e+00
   3.478691e+00  -1.916336e+01
   1.849596e+01   1.234112e+01
   5.812495e+01   8.494183e+01
   4.473072e+01   1.059600e+02
  -4.773374e+01   5.009489e+01
  -1.267964e+02  -3.691034e+01
  -1.212602e+02  -7.363773e+01
  -1.615947e+01  -4.979945e+01
   8.421387e+01  -2.484477e+01
   8.485950e+01  -4.363300e+00
   1.147931e+01   5.501837e+00
  -3.852278e+01   1.976439e+01
  -1.571365e+01   1.765820e+01
   2.181393e+01  -4.793300e-01
  -4.470097e+00  -9.895764e+00
  -6.835845e+01  -6.543748e+00
  -8.759260e+01  -2.671903e+01
  -4.498962e+00  -7.743567e+01
   1.197311e+02  -1.084910e+02
   1.719142e+02  -6.644532e+01
   1.386225e+02   6.564368e+01
   1.568367e+01   1.610178e+02
  -6.914637e+01   1.342814e+02
  -1.089474e+02   5.775479e+01
  -7.975323e+01  -2.340764e+01
  -2.535873e+01  -3.377112e+01
   3.348040e+00  -9.144254e+00
  -1.106096e+01  -3.562672e+00
  -3.131407e+01  -4.462107e+01
  -1.785453e+01  -8.384535e+01
   2.790059e+01  -6.599340e+01
   7.687801e+01   1.872312e+01
   7.191160e+01   1.046425e+02
   2.047936e+00   1.015033e+02
  -7.917970e+01   2.164425e+01
  -9.545294e+01  -7.637391e+01
  -2.900841e+01  -9.630939e+01
   6.170494e+01  -5.560309e+01
   9.589284e+01   9.922644e+00
   3.502464e+01   5.100865e+01
  -3.010803e+01   5.177167e+01
  -3.022108e+01   2.767170e+01
   3.171759e+01  -5.270254e-01
   6.753773e+01  -5.224819e+00
   1.398881e+01   2.246192e+01
  -7.182808e+01   5.876808e+01
  -1.128405e+02   5.234322e+01
  -5.779044e+01  -1.607531e+01
   1.448732e+01  -7.665896e+01
   4.893729e+01  -7.738401e+01
   3.649548e+01  -7.693169e+00
   1.674291e+00   4.960208e+01
  -2.535253e+01   3.902275e+01
  -3.416218e+01  -1.669244e+01
  -2.570273e+01  -5.174569e+01
   2.196191e+00  -3.151119e+01
   3.035488e+01   8.199471e+00
   3.697655e+01   2.053581e+01
   1.907876e+01   1.991347e+00
  -2.883970e+00  -1.327761e+01
  -9.822382e+00   3.095860e+00
  -4.574411e+00   3.478609e+01
  -2.233590e+01   4.203673e+01
  -2.816295e+01   6.933292e+00
  -2.794923e+01  -3.956459e+01
   2.407859e+00  -5.778112e+01
   4.140915e+01  -2.129596e+01
   4.982105e+01   3.945897e+01
   1.386003e+01   6.190224e+01
  -5.270647e+01   3.387644e+01
  -8.326147e+01  -1.490600e+01
  -4.170598e+01  -4.489041e+01
   2.569527e+01  -3.853742e+01
   6.257264e+01  -1.935228e+01
   2.337737e+01  -5.188523e+00
  -3.826037e+01  -4.460112e+00
  -3.568009e+01  -1.565255e+01
   2.808518e+01  -2.847273e+01
   8.261397e+01  -1.223388e+01
