
 $NMID
 id='ANONYMOUS ', fmtdat='(2E16.6)'
 volume=1.0
 tramp=1.0
 $END
  -4.009031e+03  -2.382134e+02
  -2.220464e+03  -2.712158e+03
   7.558818e+02  -2.703118e+03
   1.986363e+03  -5.628089e+02
   9.110036e+02   5.956618e+02
  -5.390709e+02   5.418107e+02
  -7.047021e+02  -5.365689e+02
   1.320018e+02  -9.663838e+02
   8.456912e+02  -6.625881e+02
   8.710872e+02   1.307737e+02
   3.663130e+02   8.110892e+02
  -2.634611e+02   7.532851e+02
  -5.664228e+02   1.777813e+01
  -3.170348e+02  -7.044902e+02
   3.115482e+02  -6.982752e+02
   5.345562e+02   3.154585e+01
   2.437549e+02   6.065651e+02
  -3.258294e+02   5.936952e+02
  -5.686839e+02   7.624442e+01
  -3.498221e+02  -3.226226e+02
  -2.243337e+01  -3.915102e+02
   2.459001e+02  -2.613441e+02
   2.238608e+02  -7.632252e+00
  -1.454288e+02   6.948758e+01
  -3.629016e+02  -1.136783e+02
  -1.887609e+02  -3.674431e+02
   4.302152e+02  -3.939945e+02
   8.174559e+02   3.277080e+01
   2.970184e+02   5.202902e+02
  -3.442069e+02   4.098628e+02
  -7.085262e+02  -1.324106e+02
  -3.350354e+02  -4.476205e+02
   2.925538e+02  -4.719538e+02
   5.303774e+02  -1.183232e+02
   3.634275e+02   1.872971e+02
   3.322253e+01   4.253752e+02
  -1.966545e+02   2.099368e+02
  -1.352831e+02  -2.522192e+02
   1.942300e+02  -4.527416e+02
   4.224066e+02   8.006928e+01
   2.231452e+02   6.753648e+02
  -3.381901e+02   6.597540e+02
  -5.333245e+02  -7.779826e+00
  -2.121507e+02  -5.435307e+02
   3.222954e+02  -2.690061e+02
   3.620582e+02   3.332387e+02
  -8.631492e+01   5.102898e+02
  -5.241746e+02   8.326836e+01
  -5.694939e+02  -4.173070e+02
  -1.650747e+02  -5.870141e+02
   3.793991e+02  -3.030572e+02
   5.899030e+02   6.572840e+01
   3.270033e+02   3.172174e+02
  -1.902408e+02   3.208274e+02
  -4.028934e+02   4.227658e+01
  -2.351088e+02  -1.608290e+02
   1.178571e+02  -9.670762e+01
   1.236692e+02   1.363993e+02
  -1.874471e+02   1.828838e+02
  -3.169868e+02  -1.035115e+02
  -1.188772e+02  -3.230297e+02
   2.211421e+02  -2.465718e+02
   2.806834e+02  -6.362402e+01
   1.809243e+02   6.765272e+01
  -6.119689e+00   2.069576e+02
  -1.959450e+02   3.121956e+02
  -3.177107e+02   2.025914e+02
  -2.840996e+02  -1.424016e+02
  -6.951475e+01  -4.600882e+02
   1.292414e+02  -3.558465e+02
   1.279075e+02  -9.733183e+01
   2.575197e+01  -4.098005e+00
   1.478154e+01  -9.041434e+01
   1.917721e+02  -1.160770e+02
   2.611663e+02   5.767446e+01
   1.521733e+02   2.336764e+02
  -6.928518e+01   2.287413e+02
  -2.258239e+02   1.463117e+01
  -1.661078e+02  -2.272759e+02
   1.569915e+01  -2.934070e+02
   2.468197e+02  -1.256999e+02
   3.407590e+02   1.737002e+02
   1.567029e+02   3.426071e+02
  -1.109550e+02   3.021887e+02
  -2.035222e+02   9.273324e+01
  -1.247455e+02   9.825085e+00
  -9.146936e+01   2.148034e+01
  -2.276323e+02   7.014673e+01
  -3.904380e+02  -7.005523e+01
  -3.240164e+02  -2.768801e+02
   6.089510e-01  -3.984132e+02
   3.135126e+02  -3.967140e+02
   4.649013e+02  -2.380791e+02
   3.068525e+02   7.598202e+01
   3.769134e+01   2.535297e+02
  -1.334425e+02   2.524148e+02
  -6.699201e+01   1.151812e+01
   1.092088e+02  -1.044769e+02
   1.798151e+02   9.573767e+00
   3.978579e+01   1.928487e+02
  -1.730842e+02   1.765329e+02
  -1.763368e+02  -6.855745e+01
   8.757469e+00  -1.769533e+02
   1.913259e+02  -1.709844e+01
   1.596004e+02   2.465132e+02
  -3.573549e+01   3.138474e+02
  -2.048724e+02   1.712128e+02
  -3.310017e+02  -4.292213e+01
  -2.529646e+02  -2.227736e+02
  -9.931282e+01  -2.574068e+02
   1.060294e+02  -1.495445e+02
   1.689639e+02  -1.653237e+01
   5.471766e+01   3.290106e+01
  -6.728968e+01  -3.316422e+01
  -2.297942e+01  -1.269739e+02
   1.239708e+02  -1.014928e+02
   1.718244e+02   1.410067e+01
   5.333223e+01   7.106385e+01
  -7.884781e+01   1.249513e+01
  -5.224784e+01  -7.093980e+01
   1.148056e+02  -7.578154e+01
   2.759878e+02   1.765187e+00
   2.341407e+02   1.263766e+02
   4.907514e+01   2.352395e+02
  -1.790292e+02   2.379479e+02
  -2.815508e+02   1.088116e+02
  -1.622172e+02  -6.165718e+01
   2.306615e+01  -1.077183e+02
   9.152760e+01  -1.375774e+00
  -3.138833e+01   9.838784e+01
  -1.749873e+02   5.647935e+01
  -2.061778e+02  -1.027473e+02
  -5.817334e+01  -1.943268e+02
   8.711215e+01  -1.471131e+02
   1.362773e+02  -2.515907e+01
   7.317346e+01   4.141916e+01
  -2.521526e+01   5.499870e+00
  -4.099409e+01  -7.521962e+01
   6.275927e+01  -1.026868e+02
   1.778601e+02  -3.270486e+01
   1.610861e+02   1.086665e+02
   1.902698e+01   2.127380e+02
  -1.599950e+02   1.471670e+02
  -1.850409e+02  -7.111243e+00
  -5.771665e+01  -1.155515e+02
   6.279500e+01  -1.065784e+02
   8.089406e+01  -2.588110e+01
   1.576442e+01   2.436941e+01
  -1.880595e+01   1.805200e+01
   9.640327e+00  -7.620763e+00
   6.645208e+01   7.302913e+00
   7.756359e+01   7.550591e+01
   1.054421e+01   1.539427e+02
  -1.259974e+02   1.442734e+02
  -2.186830e+02   3.126138e+01
  -1.746246e+02  -1.394435e+02
  -3.747877e+01  -2.183465e+02
   1.072769e+02  -1.661657e+02
   1.363846e+02  -2.823968e+01
   6.707212e+01   5.310619e+01
   2.799568e+01   3.518144e+01
   5.204239e+01  -1.112675e+01
   7.083817e+01  -7.077285e+00
   3.826036e+01   4.518309e+01
  -3.461880e+01   8.067211e+01
  -9.912736e+01   5.268297e+01
  -8.082626e+01  -2.673158e+01
   3.853969e+00  -9.984972e+01
   1.282457e+02  -9.016276e+01
   1.861624e+02   4.619072e+01
   9.753220e+01   1.829035e+02
  -9.459436e+01   2.228229e+02
  -2.487490e+02   9.116600e+01
  -2.524863e+02  -8.612181e+01
  -8.665868e+01  -1.660567e+02
   4.899281e+01  -1.422702e+02
   8.747369e+01  -7.890700e+01
   7.896720e+01  -6.452542e+01
   5.940667e+01  -7.688848e+01
   8.769222e+01  -7.022118e+01
   1.158599e+02   1.780951e+01
   1.050971e+02   1.501030e+02
   2.931448e+01   2.077053e+02
  -9.398676e+01   1.561624e+02
  -1.643997e+02   2.939365e+01
  -1.336080e+02  -1.110150e+02
  -2.074704e+01  -1.437791e+02
   6.938689e+01  -9.466271e+01
   5.762241e+01   1.577630e+00
   1.936648e+00   4.088605e+01
  -9.630780e+00   3.070480e+01
   3.291446e+01   1.520123e+01
   6.789802e+01   2.313907e+01
   3.949557e+01   3.709035e+01
  -6.252327e+01   3.011194e+01
  -1.501384e+02  -3.776781e+00
  -1.305449e+02  -4.472166e+01
  -1.564915e+01  -8.745661e+01
   1.163291e+02  -7.343234e+01
   1.283167e+02  -2.123150e+01
   4.635918e+01   4.100907e+01
  -5.312526e+01   3.058629e+01
  -7.185193e+01  -1.847632e+01
  -6.803624e+00  -6.423755e+01
   5.284256e+01  -5.319887e+01
   5.997238e+01  -1.858822e-01
   3.782356e+01   5.242711e+01
   4.100972e+01   3.764803e+01
   5.514617e+01   6.428570e+00
   5.928693e+01  -7.138938e-01
   3.607002e+01   6.519975e+01
  -2.948710e+01   1.306537e+02
  -1.043186e+02   1.196763e+02
  -1.533874e+02   3.277606e+01
  -1.049336e+02  -8.420853e+01
  -4.556922e+00  -1.185518e+02
   8.392762e+01  -5.878358e+01
   5.701830e+01   1.337716e+01
  -5.378772e+01   2.163438e+01
  -1.336191e+02  -4.173560e+01
  -6.592975e+01  -9.648403e+01
   7.208089e+01  -1.098952e+02
   1.642656e+02  -4.066391e+01
   1.490911e+02   3.159831e+01
   3.287447e+01   8.515141e+01
  -5.678867e+01   6.417888e+01
  -4.798480e+01   7.270622e+00
   3.528283e+01  -2.457403e+01
   8.956300e+01   1.688687e+01
   2.717079e+01   1.140107e+02
  -8.817425e+01   1.411443e+02
  -1.597388e+02   5.432670e+01
  -1.192337e+02  -9.260756e+01
   2.152988e+00  -1.946300e+02
   9.235093e+01  -1.343454e+02
   9.768062e+01   1.046627e+01
   5.822255e+01   1.135197e+02
  -3.509750e+00   9.362057e+01
  -4.102253e+01   2.135979e+01
  -4.573018e+01  -2.964888e+01
  -2.697267e+01  -9.769393e+00
  -3.909765e+00   1.917060e+01
  -1.815001e+01  -1.245689e+01
  -5.615482e+01  -8.277037e+01
  -4.233674e+01  -1.052787e+02
   4.786404e+01  -4.854210e+01
   1.232346e+02   3.882136e+01
   1.194349e+02   7.077558e+01
   1.560307e+01   4.740628e+01
  -8.220641e+01   2.554245e+01
  -8.138543e+01   6.215386e+00
  -1.097307e+01  -5.435308e+00
   3.913470e+01  -2.009388e+01
   1.389760e+01  -1.739304e+01
  -2.074408e+01   1.205436e+00
   4.491082e+00   9.086470e+00
   6.622357e+01   5.423792e+00
   8.444100e+01   2.652678e+01
   4.089290e+00   7.599062e+01
  -1.152384e+02   1.058448e+02
  -1.687637e+02   6.384630e+01
  -1.318797e+02  -6.146125e+01
  -1.965730e+01  -1.555464e+02
   6.939727e+01  -1.293031e+02
   1.082048e+02  -5.728548e+01
   7.926716e+01   2.111145e+01
   2.371481e+01   3.210416e+01
  -3.883237e+00   7.914050e+00
   1.023366e+01   3.868598e+00
   3.022760e+01   4.317669e+01
   1.692105e+01   8.150714e+01
  -2.766103e+01   6.418061e+01
  -7.625701e+01  -1.743060e+01
  -7.046050e+01  -1.032736e+02
  -1.453145e+00  -9.945792e+01
   7.807190e+01  -2.027381e+01
   9.068257e+01   7.426062e+01
   2.518369e+01   9.620927e+01
  -5.892114e+01   5.459821e+01
  -9.147001e+01  -1.270695e+01
  -3.298049e+01  -4.940006e+01
   3.016016e+01  -5.100621e+01
   3.013246e+01  -2.588091e+01
  -3.228232e+01  -8.826138e-01
  -6.465659e+01   4.818091e+00
  -1.306559e+01  -2.214120e+01
   7.082405e+01  -6.002662e+01
   1.092372e+02  -4.928024e+01
   5.495601e+01   1.607214e+01
  -1.486771e+01   7.345309e+01
  -4.869297e+01   7.320474e+01
  -3.540160e+01   7.209377e+00
  -1.958757e+00  -4.974437e+01
   2.388054e+01  -3.688324e+01
   3.258842e+01   1.497317e+01
   2.415368e+01   5.103818e+01
  -2.644180e+00   3.165561e+01
  -2.959504e+01  -8.036105e+00
  -3.578289e+01  -1.963690e+01
  -1.821945e+01  -2.029607e+00
   2.873720e+00   1.286669e+01
   8.920961e+00  -3.072443e+00
   5.980794e+00  -3.299313e+01
   1.950161e+01  -4.312904e+01
   2.803889e+01  -4.397353e+00
   2.634258e+01   3.740648e+01
  -2.054130e+00   5.545895e+01
  -3.924613e+01   2.056057e+01
  -4.810630e+01  -3.972073e+01
  -1.347787e+01  -5.842894e+01
   5.190319e+01  -3.096265e+01
   7.839565e+01   1.470090e+01
   4.293583e+01   4.320039e+01
  -2.522095e+01   3.599214e+01
  -6.100329e+01   1.691599e+01
  -2.238352e+01   4.279854e+00
   3.608693e+01   1.078029e+00
   3.496758e+01   1.512520e+01
  -2.585908e+01   2.825368e+01
  -7.849626e+01   1.149925e+01
