
 $NMID
 id='ANONYMOUS ', fmtdat='(2E16.6)'
 volume=1.0
 tramp=1.0
 $END
   3.779195e+03   9.937032e+01
   2.325364e+03   2.428762e+03
  -5.540247e+02   2.557889e+03
  -1.715819e+03   6.296932e+02
  -9.183757e+02  -3.715401e+02
   5.387172e+02  -4.388856e+02
   6.715968e+02   4.016811e+02
  -2.173746e+01   9.189556e+02
  -7.719976e+02   6.615970e+02
  -8.455645e+02  -8.276974e-01
  -3.834137e+02  -8.303186e+02
   2.284673e+02  -8.242742e+02
   5.302956e+02  -7.038426e+01
   3.179985e+02   5.730293e+02
  -3.092550e+02   6.730293e+02
  -5.125864e+02   1.849223e+01
  -2.411459e+02  -6.216151e+02
   2.908443e+02  -5.665578e+02
   5.287269e+02  -1.012024e+02
   3.810789e+02   2.789629e+02
   3.636110e+01   3.737973e+02
  -2.275036e+02   2.254833e+02
  -1.958254e+02   2.197390e+01
   1.377476e+02  -3.308986e+01
   3.722150e+02   1.307958e+02
   2.088581e+02   3.647996e+02
  -3.683309e+02   3.283740e+02
  -7.393522e+02  -5.141647e+01
  -3.301588e+02  -5.493316e+02
   3.219019e+02  -4.554971e+02
   6.557892e+02   7.470011e+01
   3.322717e+02   4.096158e+02
  -2.651572e+02   4.631665e+02
  -5.214575e+02   1.661073e+02
  -3.685735e+02  -1.857087e+02
  -9.583526e+01  -4.263006e+02
   1.967097e+02  -2.130484e+02
   1.169526e+02   2.384109e+02
  -1.527272e+02   3.851081e+02
  -4.134253e+02  -6.804546e+01
  -1.700583e+02  -5.898864e+02
   2.743615e+02  -6.687362e+02
   5.166748e+02  -1.276628e+01
   2.460651e+02   4.731327e+02
  -2.528224e+02   2.646694e+02
  -3.619745e+02  -2.975219e+02
   5.822872e+01  -5.138440e+02
   5.474588e+02  -1.004950e+02
   5.356749e+02   3.939997e+02
   1.773734e+02   5.387661e+02
  -3.594195e+02   3.106683e+02
  -6.017342e+02  -4.929572e+01
  -3.387117e+02  -3.388911e+02
   1.520375e+02  -3.191567e+02
   3.723224e+02  -5.847503e+01
   2.463105e+02   1.704221e+02
  -7.798537e+01   1.118087e+02
  -1.117720e+02  -1.447783e+02
   1.702037e+02  -1.487100e+02
   3.128162e+02   9.032494e+01
   1.071355e+02   2.951932e+02
  -1.843212e+02   2.396165e+02
  -2.893327e+02   9.652600e+01
  -1.918074e+02  -9.155806e+01
   1.375875e+01  -2.244159e+02
   1.890030e+02  -3.130387e+02
   3.260243e+02  -1.901619e+02
   2.545261e+02   1.279346e+02
   6.089989e+01   4.057490e+02
  -9.603072e+01   3.539837e+02
  -9.391353e+01   1.158578e+02
  -2.805593e+01  -6.756417e+00
  -3.688784e+01   9.346907e+01
  -1.853660e+02   1.149947e+02
  -2.391142e+02  -5.654101e+01
  -1.515013e+02  -2.247154e+02
   3.961519e+01  -2.282039e+02
   2.099271e+02  -1.978434e+01
   1.876182e+02   2.258205e+02
  -1.484845e+01   2.754040e+02
  -2.332776e+02   1.142456e+02
  -3.468418e+02  -1.713652e+02
  -1.805598e+02  -3.205223e+02
   7.854181e+01  -2.914953e+02
   1.954762e+02  -1.082271e+02
   1.445406e+02  -2.499203e+01
   9.636232e+01  -2.828203e+01
   2.296315e+02  -6.962663e+01
   3.947298e+02   4.881174e+01
   3.131621e+02   2.540986e+02
   4.040097e+00   3.907169e+02
  -3.256576e+02   4.154377e+02
  -4.511349e+02   2.265479e+02
  -3.120318e+02  -6.966292e+01
  -6.865901e+01  -2.486924e+02
   1.020183e+02  -2.251670e+02
   5.867568e+01  -2.946993e+01
  -1.056033e+02   8.174928e+01
  -1.706416e+02  -1.856341e+01
  -4.257286e+01  -1.846511e+02
   1.636228e+02  -1.497592e+02
   1.536713e+02   5.935321e+01
  -1.313346e+01   1.630482e+02
  -1.886606e+02   3.645354e+01
  -1.660681e+02  -2.325360e+02
   4.045600e+01  -3.103002e+02
   2.032966e+02  -1.701590e+02
   2.989344e+02   4.506823e+01
   2.632787e+02   2.270785e+02
   9.270740e+01   2.464529e+02
  -1.092830e+02   1.584441e+02
  -1.682008e+02   2.344866e+01
  -5.453426e+01  -3.220223e+01
   6.435998e+01   3.250002e+01
   2.092612e+01   1.287782e+02
  -1.131299e+02   9.855101e+01
  -1.647811e+02  -8.405741e+00
  -5.324128e+01  -6.290570e+01
   7.781000e+01  -1.279407e+01
   4.801057e+01   6.975845e+01
  -1.106328e+02   8.241714e+01
  -2.564125e+02   1.863417e+00
  -2.438982e+02  -1.258717e+02
  -4.998213e+01  -2.358688e+02
   1.731184e+02  -2.439336e+02
   2.653972e+02  -1.338543e+02
   1.663482e+02   4.496075e+01
  -2.000979e+01   9.516290e+01
  -9.136148e+01   4.996260e+00
   3.556573e+01  -9.329655e+01
   1.882337e+02  -5.504918e+01
   1.983641e+02   8.517748e+01
   6.597868e+01   1.887832e+02
  -8.374859e+01   1.545697e+02
  -1.344352e+02   2.105872e+01
  -6.817351e+01  -3.456404e+01
   2.768167e+01  -1.140563e+00
   4.184073e+01   7.944216e+01
  -6.547427e+01   1.043894e+02
  -1.799225e+02   3.556710e+01
  -1.718964e+02  -1.125715e+02
  -2.551695e+01  -1.943980e+02
   1.597812e+02  -1.552343e+02
   1.789207e+02   6.324113e-01
   5.840844e+01   1.109157e+02
  -6.019536e+01   1.016038e+02
  -7.387294e+01   2.556622e+01
  -1.466451e+01  -2.116413e+01
   2.021081e+01  -1.728644e+01
  -1.192392e+01   7.558034e+00
  -6.990888e+01  -9.796150e+00
  -8.804146e+01  -7.575973e+01
  -1.556903e+01  -1.484151e+02
   1.156786e+02  -1.374225e+02
   2.200796e+02  -3.085748e+01
   1.801072e+02   1.487776e+02
   3.880140e+01   2.128257e+02
  -1.060846e+02   1.536469e+02
  -1.284534e+02   2.808417e+01
  -6.413673e+01  -5.279278e+01
  -2.927663e+01  -3.259010e+01
  -5.035567e+01   1.211260e+01
  -7.268830e+01   4.277763e+00
  -3.838855e+01  -4.732025e+01
   3.392140e+01  -8.083216e+01
   9.136378e+01  -5.587902e+01
   8.269758e+01   2.865089e+01
  -6.490028e+00   9.862043e+01
  -1.242041e+02   8.636395e+01
  -1.829499e+02  -5.217955e+01
  -9.739444e+01  -1.869824e+02
   1.034629e+02  -2.154134e+02
   2.286273e+02  -9.883730e+01
   2.456148e+02   6.298611e+01
   8.982496e+01   1.674804e+02
  -3.858440e+01   1.422884e+02
  -8.116918e+01   8.203483e+01
  -6.981623e+01   6.888334e+01
  -6.019271e+01   8.225794e+01
  -8.715695e+01   6.608568e+01
  -1.212907e+02  -1.962649e+01
  -1.094991e+02  -1.416930e+02
  -2.885234e+01  -1.959122e+02
   8.366356e+01  -1.681506e+02
   1.555319e+02  -2.920007e+01
   1.294729e+02   1.139597e+02
   2.752801e+01   1.505198e+02
  -6.544766e+01   8.510614e+01
  -5.541023e+01   1.387769e+00
  -9.037094e-01  -4.095130e+01
   1.092365e+01  -3.325488e+01
  -3.561752e+01  -1.382666e+01
  -7.097336e+01  -2.220987e+01
  -4.081498e+01  -3.509764e+01
   5.909548e+01  -3.363576e+01
   1.420298e+02  -4.589704e+00
   1.271285e+02   4.289893e+01
   1.938867e+01   8.241525e+01
  -1.068794e+02   7.881746e+01
  -1.370133e+02   1.690943e+01
  -4.411397e+01  -3.884844e+01
   5.263880e+01  -3.579187e+01
   7.746572e+01   1.711131e+01
   4.667194e+00   6.355683e+01
  -5.531272e+01   5.668409e+01
  -6.503030e+01   1.403929e+00
  -4.079701e+01  -4.773654e+01
  -4.077886e+01  -3.712979e+01
  -5.643378e+01  -1.229510e+00
  -6.117216e+01  -1.393691e+00
  -3.904779e+01  -6.181784e+01
   2.700350e+01  -1.282466e+02
   9.605894e+01  -1.297899e+02
   1.566660e+02  -3.736840e+01
   1.083644e+02   7.879884e+01
   9.254958e+00   1.221336e+02
  -7.455479e+01   5.847982e+01
  -5.839139e+01  -1.574968e+01
   5.390227e+01  -1.997032e+01
   1.290350e+02   4.152591e+01
   6.706056e+01   9.299136e+01
  -7.045664e+01   1.087081e+02
  -1.695869e+02   4.597224e+01
  -1.596724e+02  -3.086103e+01
  -3.799758e+01  -7.827103e+01
   5.400589e+01  -7.360604e+01
   4.523338e+01  -7.402359e+00
  -3.472401e+01   2.354010e+01
  -8.444499e+01  -1.729998e+01
  -2.535262e+01  -1.096390e+02
   7.725095e+01  -1.469806e+02
   1.538634e+02  -5.640866e+01
   1.239162e+02   8.435118e+01
   1.691979e+01   1.885702e+02
  -7.562993e+01   1.328242e+02
  -9.503298e+01  -8.901554e+00
  -6.491713e+01  -1.084642e+02
   1.035462e+00  -9.023024e+01
   4.391955e+01  -1.972318e+01
   4.582154e+01   2.752877e+01
   2.352348e+01   6.537565e+00
   4.734833e+00  -1.988413e+01
   1.804395e+01   1.516279e+01
   5.266415e+01   8.053643e+01
   4.159243e+01   1.021096e+02
  -4.531614e+01   4.280752e+01
  -1.207554e+02  -3.387842e+01
  -1.219424e+02  -6.219331e+01
  -1.532625e+01  -4.794962e+01
   7.844954e+01  -2.316522e+01
   8.380880e+01  -1.228433e+01
   1.135010e+01   6.501202e+00
  -3.643751e+01   2.070969e+01
  -1.251741e+01   1.646360e+01
   1.836930e+01  -1.558763e+00
  -5.085609e+00  -8.205817e+00
  -6.699265e+01   8.016254e-01
  -8.957388e+01  -1.897100e+01
  -8.723507e+00  -7.659356e+01
   1.023015e+02  -1.086187e+02
   1.725733e+02  -5.597380e+01
   1.345859e+02   4.880850e+01
   2.477685e+01   1.521699e+02
  -6.402878e+01   1.352167e+02
  -1.004831e+02   5.486872e+01
  -7.332280e+01  -1.729978e+01
  -2.397409e+01  -2.973908e+01
   2.074208e+00  -7.791454e+00
  -1.060464e+01  -3.383587e+00
  -2.986104e+01  -4.065782e+01
  -2.185337e+01  -7.917672e+01
   2.346340e+01  -6.724342e+01
   7.323726e+01   1.561876e+01
   6.920655e+01   1.051227e+02
   6.784499e+00   1.003331e+02
  -7.654738e+01   2.301020e+01
  -9.306760e+01  -6.342167e+01
  -2.398737e+01  -9.597149e+01
   5.769702e+01  -5.390704e+01
   9.397949e+01   1.144544e+01
   3.828050e+01   4.929692e+01
  -3.155771e+01   5.066966e+01
  -2.740310e+01   2.649821e+01
   3.091207e+01  -4.348579e+00
   6.313374e+01  -5.131874e+00
   1.517608e+01   2.227894e+01
  -7.210803e+01   6.075440e+01
  -1.044838e+02   5.102278e+01
  -5.739268e+01  -1.274071e+01
   1.424937e+01  -7.391470e+01
   4.803639e+01  -7.207755e+01
   3.314622e+01  -5.296265e+00
   3.855828e+00   5.082676e+01
  -2.298564e+01   3.792795e+01
  -3.631356e+01  -1.510767e+01
  -2.634305e+01  -4.737699e+01
   6.720814e-01  -3.009067e+01
   3.140074e+01   6.435980e+00
   3.750439e+01   1.954826e+01
   1.789670e+01   1.351437e+00
  -2.407491e+00  -1.188905e+01
  -6.670601e+00   1.594756e+00
  -5.168588e+00   3.649616e+01
  -1.624240e+01   4.269457e+01
  -2.747969e+01   5.711860e+00
  -2.533286e+01  -3.969500e+01
  -5.965565e-01  -5.890369e+01
   3.983926e+01  -2.298298e+01
   5.067119e+01   3.473442e+01
   1.175008e+01   5.798276e+01
  -4.945863e+01   3.180589e+01
  -7.632965e+01  -1.438228e+01
  -4.346187e+01  -3.967789e+01
   2.594815e+01  -3.632198e+01
   5.864839e+01  -1.619137e+01
   2.187146e+01  -4.602767e+00
  -3.116966e+01  -8.535061e-01
  -3.418039e+01  -1.242686e+01
   2.511759e+01  -3.044015e+01
   7.728659e+01  -2.013255e+01
