
 $NMID
 id='ANONYMOUS ', fmtdat='(2E16.6)'
 volume=1.0
 tramp=1.0
 $END
  -4.693309e+03   6.428831e+01
  -2.555634e+03  -2.722749e+03
   8.915639e+02  -2.885995e+03
   2.002470e+03  -8.163407e+02
   8.902366e+02   6.979359e+02
  -7.074378e+02   4.660234e+02
  -8.024592e+02  -5.248903e+02
   8.924696e+01  -1.084171e+03
   8.066465e+02  -7.981724e+02
   9.823299e+02   1.381366e+02
   3.801735e+02   8.764252e+02
  -3.686491e+02   9.128770e+02
  -6.135510e+02   5.660532e+01
  -4.477054e+02  -7.939043e+02
   2.734317e+02  -7.612184e+02
   6.425863e+02  -2.320096e+00
   2.995102e+02   7.055475e+02
  -2.838340e+02   6.142941e+02
  -5.714775e+02   1.134694e+02
  -3.868242e+02  -3.856377e+02
  -1.941649e+01  -3.981625e+02
   2.502109e+02  -2.269135e+02
   2.208528e+02  -3.022740e+00
  -1.459664e+02   9.027292e+01
  -4.572983e+02  -8.049766e+01
  -2.296607e+02  -4.604900e+02
   4.702108e+02  -4.326861e+02
   8.541547e+02   7.606779e+01
   3.670942e+02   6.463769e+02
  -4.186619e+02   5.014433e+02
  -7.590132e+02  -9.706501e+01
  -3.716083e+02  -4.566616e+02
   2.979284e+02  -5.306811e+02
   6.169124e+02  -1.709265e+02
   4.258578e+02   2.513843e+02
   3.315317e+01   4.898041e+02
  -2.367496e+02   2.658358e+02
  -1.695721e+02  -2.322012e+02
   1.930502e+02  -4.189596e+02
   4.320148e+02   6.859419e+01
   1.877460e+02   7.546945e+02
  -3.272668e+02   7.139396e+02
  -6.005086e+02  -4.785726e+01
  -2.545056e+02  -6.092367e+02
   3.058267e+02  -3.402732e+02
   3.953401e+02   3.332853e+02
  -8.248156e+01   5.626718e+02
  -5.867701e+02   1.173774e+02
  -6.123315e+02  -3.890232e+02
  -1.466103e+02  -5.708810e+02
   3.796362e+02  -3.304975e+02
   6.311485e+02   9.454163e+01
   3.816136e+02   3.951866e+02
  -1.851801e+02   3.490848e+02
  -4.127232e+02   5.688062e+01
  -2.380867e+02  -2.077801e+02
   1.294335e+02  -1.197209e+02
   1.482052e+02   1.787987e+02
  -1.752410e+02   1.845973e+02
  -3.452203e+02  -6.733349e+01
  -1.203561e+02  -2.933716e+02
   2.193884e+02  -2.434466e+02
   3.360775e+02  -7.382459e+01
   2.072152e+02   9.134000e+01
  -1.107658e+01   2.116202e+02
  -1.936334e+02   3.552615e+02
  -3.352065e+02   2.402406e+02
  -2.964021e+02  -1.239746e+02
  -3.613408e+01  -4.518882e+02
   1.122877e+02  -3.690709e+02
   1.346462e+02  -1.110268e+02
   1.896494e+01   2.978983e+01
   3.260613e+01  -1.165577e+02
   1.761424e+02  -1.369054e+02
   3.004510e+02   4.118376e+01
   1.872685e+02   2.603040e+02
  -6.845096e+01   2.751980e+02
  -2.319124e+02   8.991914e+00
  -2.019869e+02  -2.744466e+02
   3.754222e+00  -3.049610e+02
   2.644233e+02  -1.073055e+02
   3.809766e+02   1.611693e+02
   1.420503e+02   3.686108e+02
  -1.172830e+02   3.118020e+02
  -2.217471e+02   1.195225e+02
  -1.447219e+02  -5.465088e+00
  -8.742953e+01   3.563850e+01
  -2.477203e+02   6.677061e+01
  -3.704467e+02  -4.216089e+01
  -3.393082e+02  -3.106816e+02
  -4.107228e+00  -4.524875e+02
   3.486921e+02  -3.955665e+02
   4.799438e+02  -1.929805e+02
   3.693151e+02   1.060938e+02
   7.272436e+01   3.122461e+02
  -1.378407e+02   2.636540e+02
  -7.374771e+01   2.414721e+01
   1.238974e+02  -1.184708e+02
   2.037341e+02   9.952576e+00
   6.698258e+01   2.127265e+02
  -1.790278e+02   1.602779e+02
  -1.749535e+02  -7.836805e+01
   9.985289e+00  -2.163236e+02
   1.981026e+02  -3.663156e+01
   1.708948e+02   2.671456e+02
  -2.389680e+01   3.688200e+02
  -2.240922e+02   2.019678e+02
  -3.424354e+02  -6.259367e+01
  -2.817784e+02  -2.429795e+02
  -9.517591e+01  -2.616875e+02
   1.268437e+02  -1.574440e+02
   1.891949e+02  -2.982150e+01
   6.449463e+01   3.486171e+01
  -7.821974e+01  -3.935505e+01
  -3.258857e+01  -1.310927e+02
   1.232971e+02  -1.179781e+02
   1.806899e+02   1.139909e+01
   5.773907e+01   7.423403e+01
  -8.784498e+01   1.718618e+01
  -6.283021e+01  -6.896631e+01
   1.214197e+02  -8.386521e+01
   2.850964e+02  -1.543232e+01
   2.769361e+02   1.315658e+02
   6.045763e+01   2.515480e+02
  -2.023254e+02   2.707233e+02
  -2.816358e+02   1.168977e+02
  -1.842645e+02  -5.353938e+01
   3.052060e+01  -1.109213e+02
   9.341085e+01   2.550463e+00
  -3.112860e+01   1.088445e+02
  -2.014522e+02   6.614513e+01
  -2.257062e+02  -1.078853e+02
  -5.591130e+01  -2.150724e+02
   9.744924e+01  -1.716062e+02
   1.498933e+02  -3.723955e+01
   6.574339e+01   4.464244e+01
  -2.903141e+01   7.426039e+00
  -4.390071e+01  -8.781138e+01
   6.085150e+01  -1.104501e+02
   2.041421e+02  -3.744152e+01
   1.847696e+02   1.194276e+02
   1.696991e+01   2.335758e+02
  -1.550686e+02   1.630086e+02
  -2.051650e+02   1.174096e+01
  -7.318136e+01  -1.252055e+02
   5.963993e+01  -1.181075e+02
   8.711835e+01  -2.797774e+01
   2.007625e+01   2.917901e+01
  -2.446536e+01   2.434010e+01
   7.200518e+00  -3.957545e+00
   7.330796e+01   8.601813e+00
   7.986023e+01   7.151060e+01
   1.866367e+01   1.568294e+02
  -1.286825e+02   1.523072e+02
  -2.388014e+02   3.352754e+01
  -1.987142e+02  -1.504063e+02
  -4.597926e+01  -2.303014e+02
   1.078341e+02  -1.773407e+02
   1.404005e+02  -2.653920e+01
   7.484727e+01   5.900036e+01
   3.066502e+01   3.498805e+01
   5.110142e+01  -1.022750e+01
   8.498593e+01  -6.378389e+00
   4.314102e+01   4.816727e+01
  -4.608540e+01   9.447116e+01
  -8.990748e+01   5.131816e+01
  -8.735931e+01  -2.717047e+01
   5.458540e+00  -1.161865e+02
   1.347382e+02  -9.454826e+01
   2.059966e+02   4.730767e+01
   1.224307e+02   1.957198e+02
  -9.303645e+01   2.321664e+02
  -2.574077e+02   8.142339e+01
  -2.427725e+02  -7.898385e+01
  -1.183396e+02  -1.750347e+02
   4.641392e+01  -1.481297e+02
   9.243770e+01  -8.645295e+01
   7.292353e+01  -6.913117e+01
   6.532973e+01  -9.904688e+01
   8.953511e+01  -7.765865e+01
   1.214384e+02   1.613740e+01
   1.038707e+02   1.502433e+02
   3.990942e+01   2.228759e+02
  -9.533194e+01   1.719965e+02
  -1.807902e+02   2.006750e+01
  -1.425109e+02  -1.102235e+02
  -3.235606e+01  -1.546965e+02
   6.688955e+01  -9.635639e+01
   5.964911e+01  -6.325432e-01
   7.652972e+00   3.872438e+01
  -8.700977e+00   3.413710e+01
   3.634180e+01   1.954459e+01
   7.744799e+01   2.045949e+01
   4.357608e+01   4.063353e+01
  -6.131411e+01   3.451750e+01
  -1.613345e+02   9.732210e+00
  -1.555707e+02  -4.657646e+01
  -1.552701e+01  -9.450665e+01
   1.173154e+02  -8.682820e+01
   1.473046e+02  -1.940852e+01
   5.045714e+01   3.659773e+01
  -5.994390e+01   4.054874e+01
  -7.273477e+01  -1.875987e+01
  -7.179717e+00  -6.978365e+01
   5.209890e+01  -5.792014e+01
   6.020371e+01   3.679599e+00
   4.382450e+01   4.627797e+01
   4.571257e+01   3.776518e+01
   6.072012e+01   1.606999e+00
   6.783157e+01  -2.209451e+00
   3.924533e+01   6.509385e+01
  -3.808143e+01   1.470389e+02
  -1.137354e+02   1.413293e+02
  -1.637752e+02   3.791070e+01
  -1.330627e+02  -8.744598e+01
  -5.017027e+00  -1.222656e+02
   8.580874e+01  -6.354407e+01
   5.952204e+01   1.728226e+01
  -6.268696e+01   1.961798e+01
  -1.327952e+02  -3.744928e+01
  -7.189000e+01  -1.010330e+02
   7.960392e+01  -1.098553e+02
   1.959806e+02  -5.658304e+01
   1.675922e+02   3.265618e+01
   4.219004e+01   9.165945e+01
  -5.827365e+01   7.266974e+01
  -5.094476e+01   8.737673e+00
   3.882057e+01  -2.608244e+01
   9.118515e+01   2.237575e+01
   3.628142e+01   1.193639e+02
  -1.005269e+02   1.593510e+02
  -1.645099e+02   6.388885e+01
  -1.185238e+02  -1.066536e+02
  -1.575670e+01  -1.871404e+02
   8.498714e+01  -1.406286e+02
   1.054677e+02   4.007520e+00
   6.060000e+01   1.185130e+02
  -4.607524e-01   1.069301e+02
  -4.432872e+01   2.255315e+01
  -5.291447e+01  -3.271433e+01
  -2.711119e+01  -8.967222e+00
  -3.628543e+00   2.231073e+01
  -2.101946e+01  -1.454898e+01
  -5.438552e+01  -8.517593e+01
  -4.976125e+01  -1.151139e+02
   4.575646e+01  -4.602337e+01
   1.488942e+02   3.813052e+01
   1.235993e+02   7.092433e+01
   1.932357e+01   4.934128e+01
  -8.781756e+01   2.423483e+01
  -8.180778e+01   3.539662e+00
  -1.154690e+01  -7.004577e+00
   3.922627e+01  -2.263012e+01
   1.527085e+01  -1.871264e+01
  -2.179087e+01  -1.055907e+00
   4.928272e+00   9.521060e+00
   7.715496e+01   1.796801e+00
   8.942321e+01   2.274376e+01
   2.058518e-01   7.336608e+01
  -1.152059e+02   1.098106e+02
  -1.928965e+02   6.640459e+01
  -1.405755e+02  -6.274041e+01
  -3.012583e+01  -1.625077e+02
   7.913480e+01  -1.539978e+02
   1.098353e+02  -5.696124e+01
   8.138312e+01   2.157097e+01
   2.378600e+01   3.396010e+01
  -2.995767e+00   7.171972e+00
   9.526467e+00   2.624045e+00
   3.419020e+01   4.693584e+01
   2.349030e+01   9.368843e+01
  -2.995465e+01   7.045450e+01
  -8.318361e+01  -1.465339e+01
  -7.620893e+01  -1.107495e+02
  -6.051273e+00  -1.131188e+02
   7.828346e+01  -2.203803e+01
   1.056375e+02   7.799715e+01
   3.422736e+01   1.073833e+02
  -6.783288e+01   5.062184e+01
  -9.703619e+01  -7.707840e+00
  -3.698752e+01  -4.717143e+01
   3.006043e+01  -4.903371e+01
   2.807140e+01  -2.672738e+01
  -3.263535e+01  -3.388633e+00
  -6.957057e+01   5.981045e+00
  -1.407950e+01  -2.446188e+01
   7.788068e+01  -7.163875e+01
   1.139788e+02  -5.609049e+01
   6.354364e+01   1.197267e+01
  -1.346511e+01   8.164690e+01
  -4.896375e+01   8.450694e+01
  -3.473227e+01   7.058848e+00
   4.082392e-01  -5.504735e+01
   2.395518e+01  -4.233527e+01
   3.624278e+01   1.946356e+01
   2.807471e+01   5.285499e+01
  -1.289635e+00   3.384605e+01
  -3.272852e+01  -1.008200e+01
  -3.897499e+01  -1.987147e+01
  -2.133571e+01   6.713177e-01
   1.572112e+00   1.416154e+01
   9.073615e+00  -2.037000e+00
   6.135049e+00  -3.403636e+01
   1.606565e+01  -4.092247e+01
   3.149601e+01  -7.706795e+00
   2.863080e+01   4.103217e+01
  -3.803417e+00   6.140137e+01
  -4.511864e+01   1.828177e+01
  -5.825585e+01  -3.464746e+01
  -1.882342e+01  -6.567458e+01
   5.209145e+01  -3.391580e+01
   8.827334e+01   1.941073e+01
   5.028148e+01   3.931154e+01
  -2.919853e+01   3.943749e+01
  -6.412191e+01   1.808441e+01
  -2.348757e+01   5.633616e+00
   3.645941e+01   2.025599e+00
   3.594159e+01   1.671766e+01
  -3.519744e+01   3.007287e+01
  -9.018509e+01   1.698790e+01
