
 $NMID
 id='ANONYMOUS ', fmtdat='(2E16.6)'
 volume=1.0
 tramp=1.0
 $END
   3.494587e+03  -3.876377e+01
   1.657317e+03   2.084238e+03
  -7.177338e+02   2.137058e+03
  -1.565016e+03   7.402699e+02
  -8.726234e+02  -6.472233e+02
   5.527265e+02  -3.835750e+02
   5.926557e+02   2.767226e+02
  -1.109349e+02   8.499960e+02
  -5.762536e+02   5.592000e+02
  -7.011459e+02  -1.154726e+02
  -3.224679e+02  -7.124219e+02
   1.812914e+02  -6.304319e+02
   4.485896e+02  -7.072679e+01
   3.887396e+02   5.839909e+02
  -2.578313e+02   5.695975e+02
  -4.576559e+02  -2.147502e+01
  -2.367623e+02  -5.614445e+02
   2.026890e+02  -4.353392e+02
   4.482929e+02  -1.170643e+02
   3.498398e+02   2.744851e+02
   4.677447e+01   3.025630e+02
  -1.706509e+02   1.764478e+02
  -1.766936e+02   2.868120e+01
   1.114661e+02  -5.763226e+01
   3.209451e+02   8.767813e+01
   1.846827e+02   3.065930e+02
  -3.407827e+02   3.333060e+02
  -6.044040e+02  -4.944052e+01
  -3.026378e+02  -4.178717e+02
   2.984149e+02  -4.047129e+02
   5.652212e+02  -2.005828e+01
   3.292413e+02   3.170189e+02
  -1.839732e+02   4.359596e+02
  -4.669988e+02   1.430204e+02
  -3.578472e+02  -1.739160e+02
  -9.262487e+01  -4.021466e+02
   1.552170e+02  -2.044474e+02
   1.188630e+02   1.761189e+02
  -9.476900e+01   3.628985e+02
  -3.086705e+02   3.586060e+01
  -1.717756e+02  -5.129708e+02
   2.465919e+02  -5.484319e+02
   4.571010e+02  -4.974672e+01
   2.194084e+02   4.222025e+02
  -2.082220e+02   2.575423e+02
  -3.153894e+02  -2.285393e+02
   2.442060e+01  -4.168459e+02
   4.116133e+02  -9.962784e+01
   4.399379e+02   2.421429e+02
   1.622945e+02   4.657528e+02
  -2.499424e+02   2.695645e+02
  -4.863080e+02  -9.932602e+01
  -2.356089e+02  -3.205943e+02
   1.344482e+02  -2.746546e+02
   3.151400e+02  -2.362921e+01
   1.978881e+02   1.353877e+02
  -9.872018e+01   9.979572e+01
  -1.104093e+02  -1.288282e+02
   1.432819e+02  -1.354131e+02
   2.511339e+02   6.776134e+01
   1.031297e+02   2.150577e+02
  -1.652712e+02   1.721272e+02
  -2.664339e+02   7.114801e+01
  -1.489804e+02  -7.073360e+01
   2.082348e+01  -1.812061e+02
   1.469899e+02  -2.956307e+02
   2.598593e+02  -1.619358e+02
   2.215055e+02   8.940349e+01
   5.761109e+01   3.395109e+02
  -6.300643e+01   2.953660e+02
  -1.095182e+02   8.732989e+01
  -2.626182e+01  -1.859368e+01
  -4.121842e+01   8.334872e+01
  -1.314720e+02   1.080936e+02
  -2.172242e+02  -2.932294e+01
  -1.368455e+02  -1.959754e+02
   5.051694e+01  -2.142716e+02
   1.761479e+02  -2.795973e+01
   1.405377e+02   1.864217e+02
  -1.859388e+01   2.404509e+02
  -2.057799e+02   9.792130e+01
  -2.814038e+02  -1.339627e+02
  -1.394714e+02  -2.679723e+02
   7.747706e+01  -2.338154e+02
   1.645433e+02  -1.058734e+02
   1.011082e+02   3.359375e+00
   7.531442e+01  -2.973856e+01
   1.939126e+02  -4.972853e+01
   2.935367e+02   2.471016e+01
   2.503461e+02   2.248884e+02
   3.299403e+01   3.447895e+02
  -2.879438e+02   3.343289e+02
  -3.476279e+02   1.397420e+02
  -2.823128e+02  -6.851143e+01
  -4.930979e+01  -2.263681e+02
   1.075982e+02  -2.041621e+02
   5.363011e+01  -2.041130e+01
  -8.478743e+01   8.543422e+01
  -1.460873e+02  -1.528628e+01
  -5.247000e+01  -1.539487e+02
   1.327742e+02  -1.153833e+02
   1.387865e+02   4.708803e+01
  -4.922840e+00   1.622958e+02
  -1.464531e+02   2.437403e+01
  -1.307385e+02  -1.817051e+02
   4.344325e-02  -2.905746e+02
   1.669226e+02  -1.424242e+02
   2.474455e+02   5.267720e+01
   2.173681e+02   1.862202e+02
   8.717837e+01   1.903662e+02
  -9.360025e+01   1.174071e+02
  -1.461491e+02   2.305623e+01
  -4.300365e+01  -2.670534e+01
   5.641108e+01   3.379718e+01
   2.314358e+01   8.952108e+01
  -9.852095e+01   7.846411e+01
  -1.281979e+02  -4.366108e+00
  -5.119876e+01  -5.411219e+01
   5.604966e+01  -1.770636e+01
   4.759731e+01   4.670298e+01
  -9.081576e+01   6.788734e+01
  -2.079373e+02   1.710427e+01
  -2.097716e+02  -9.831330e+01
  -5.654214e+01  -1.943920e+02
   1.316680e+02  -2.058520e+02
   2.132130e+02  -8.925627e+01
   1.232627e+02   3.763081e+01
  -2.001439e+01   8.526100e+01
  -6.674951e+01   5.614311e+00
   2.861430e+01  -8.416463e+01
   1.519193e+02  -5.494579e+01
   1.811567e+02   7.546417e+01
   4.619017e+01   1.597541e+02
  -7.398159e+01   1.271998e+02
  -1.097733e+02   3.030288e+01
  -5.674161e+01  -2.819266e+01
   2.256808e+01  -5.499550e+00
   3.104919e+01   6.983103e+01
  -4.997150e+01   8.603916e+01
  -1.587776e+02   3.281894e+01
  -1.501679e+02  -8.795791e+01
  -3.465113e+01  -1.803040e+02
   1.113075e+02  -1.225345e+02
   1.483272e+02  -1.319270e+01
   5.303436e+01   8.077602e+01
  -4.512734e+01   8.851668e+01
  -6.290068e+01   2.503120e+01
  -1.806484e+01  -1.925600e+01
   2.094825e+01  -1.993057e+01
  -7.982704e+00   4.742724e+00
  -5.092799e+01  -4.643272e+00
  -6.520348e+01  -5.492364e+01
  -1.735468e+01  -1.235950e+02
   9.030714e+01  -1.121654e+02
   1.864361e+02  -2.715621e+01
   1.542863e+02   1.101765e+02
   3.242923e+01   1.786575e+02
  -9.092288e+01   1.193672e+02
  -1.027369e+02   1.804379e+01
  -5.396925e+01  -4.390009e+01
  -2.387099e+01  -2.584300e+01
  -4.275970e+01   9.601371e+00
  -6.293818e+01   6.954417e+00
  -2.830189e+01  -3.318217e+01
   3.196022e+01  -7.219967e+01
   7.169245e+01  -4.156449e+01
   6.548819e+01   1.741197e+01
  -1.844751e+00   8.347326e+01
  -1.102205e+02   7.819998e+01
  -1.462412e+02  -3.969661e+01
  -7.996104e+01  -1.437616e+02
   7.960496e+01  -1.865821e+02
   2.130807e+02  -7.324856e+01
   1.834828e+02   5.309544e+01
   9.294771e+01   1.219375e+02
  -2.592187e+01   1.099941e+02
  -6.641404e+01   7.432940e+01
  -5.682149e+01   5.431764e+01
  -4.716061e+01   7.837206e+01
  -7.022608e+01   6.035987e+01
  -9.373966e+01  -9.099125e+00
  -9.295542e+01  -1.260961e+02
  -1.765666e+01  -1.719036e+02
   7.302095e+01  -1.344482e+02
   1.345552e+02  -2.211156e+01
   1.101302e+02   9.391709e+01
   2.055192e+01   1.195462e+02
  -4.788056e+01   6.506886e+01
  -4.533276e+01  -6.207791e-01
  -3.897915e+00  -2.908970e+01
   7.210948e+00  -2.305264e+01
  -2.720882e+01  -1.363497e+01
  -6.074615e+01  -1.850079e+01
  -3.220197e+01  -2.870049e+01
   4.775587e+01  -2.751689e+01
   1.265032e+02  -1.291313e+01
   1.098405e+02   3.500253e+01
   1.496279e+01   7.286542e+01
  -9.036968e+01   6.073203e+01
  -1.079579e+02   1.622796e+01
  -3.263837e+01  -3.091527e+01
   4.331114e+01  -3.001230e+01
   5.310378e+01   1.352267e+01
   5.293224e+00   4.958803e+01
  -4.127870e+01   4.558243e+01
  -4.407687e+01  -3.516279e+00
  -3.577467e+01  -3.453007e+01
  -3.131908e+01  -2.605997e+01
  -4.574317e+01   7.797238e-01
  -4.681355e+01  -3.396985e+00
  -3.014639e+01  -4.677350e+01
   3.003988e+01  -9.711112e+01
   8.513503e+01  -1.222404e+02
   1.325552e+02  -2.272661e+01
   1.027020e+02   6.722926e+01
   7.898167e+00   9.441733e+01
  -6.138899e+01   4.662226e+01
  -4.522575e+01  -1.512948e+01
   4.860642e+01  -1.165010e+01
   1.013685e+02   3.251241e+01
   5.867782e+01   7.714089e+01
  -5.994626e+01   8.692679e+01
  -1.525092e+02   4.546553e+01
  -1.242919e+02  -3.045395e+01
  -2.576043e+01  -6.727927e+01
   4.366631e+01  -5.773134e+01
   4.119481e+01  -4.846172e+00
  -2.915375e+01   2.160146e+01
  -6.371592e+01  -1.537678e+01
  -2.476448e+01  -8.811917e+01
   7.147024e+01  -1.231915e+02
   1.198164e+02  -5.547368e+01
   1.018556e+02   7.920584e+01
   6.842615e+00   1.530015e+02
  -6.247688e+01   1.115789e+02
  -7.634031e+01  -4.113044e+00
  -5.042266e+01  -8.953322e+01
  -1.716962e+00  -7.827999e+01
   3.551372e+01  -1.620013e+01
   3.615930e+01   2.805754e+01
   2.111092e+01   6.221830e+00
   2.897489e+00  -1.562377e+01
   1.601954e+01   1.123781e+01
   4.413910e+01   6.481671e+01
   3.073725e+01   7.295197e+01
  -3.320758e+01   3.482349e+01
  -1.028900e+02  -3.175228e+01
  -1.044519e+02  -5.830030e+01
  -1.390747e+01  -3.597480e+01
   6.737176e+01  -1.885193e+01
   6.738719e+01  -3.803696e+00
   9.095437e+00   4.412634e+00
  -2.892008e+01   1.663661e+01
  -1.077806e+01   1.382497e+01
   1.769015e+01  -2.277568e+00
  -4.586664e+00  -6.911551e+00
  -5.752362e+01  -2.239221e+00
  -6.947184e+01  -1.853202e+01
  -3.445898e+00  -6.306994e+01
   9.104362e+01  -8.759392e+01
   1.406206e+02  -4.445504e+01
   1.098157e+02   5.101333e+01
   1.639564e+01   1.192241e+02
  -5.467319e+01   1.131779e+02
  -7.842693e+01   4.451105e+01
  -6.276501e+01  -1.417940e+01
  -1.883950e+01  -2.666490e+01
   2.673218e+00  -6.233819e+00
  -7.124671e+00  -2.628472e+00
  -2.174938e+01  -3.452455e+01
  -1.205304e+01  -6.567164e+01
   2.496685e+01  -5.788404e+01
   5.804398e+01   1.156448e+01
   5.750251e+01   8.105391e+01
   5.757317e+00   8.541335e+01
  -5.887577e+01   2.181830e+01
  -8.064080e+01  -6.287363e+01
  -2.742488e+01  -7.484133e+01
   5.381493e+01  -4.145773e+01
   7.084475e+01   7.099092e+00
   2.659879e+01   3.395402e+01
  -2.088739e+01   3.840275e+01
  -1.895608e+01   1.964280e+01
   2.906745e+01  -1.993243e+00
   5.346626e+01  -8.985512e+00
   1.242118e+01   1.783624e+01
  -6.305620e+01   5.347539e+01
  -8.161291e+01   4.445458e+01
  -4.851704e+01  -8.818303e+00
   8.107253e+00  -6.793840e+01
   4.269369e+01  -6.325790e+01
   2.558651e+01  -2.562886e+00
   3.619395e-01   4.053393e+01
  -1.826941e+01   3.144497e+01
  -2.553002e+01  -1.215492e+01
  -2.150530e+01  -3.935284e+01
   1.487928e+00  -2.536168e+01
   2.778402e+01   7.951159e+00
   3.059331e+01   1.486486e+01
   1.594809e+01  -2.943398e-01
  -2.179129e+00  -9.866395e+00
  -7.106152e+00   2.400429e+00
  -3.823621e+00   2.767639e+01
  -1.429867e+01   3.137361e+01
  -2.334135e+01   6.826594e+00
  -2.388583e+01  -2.962480e+01
   4.314730e+00  -4.561386e+01
   3.332641e+01  -1.408373e+01
   4.185782e+01   2.594676e+01
   9.260686e+00   4.841785e+01
  -3.941478e+01   2.796405e+01
  -6.864735e+01  -1.182261e+01
  -3.880788e+01  -3.222873e+01
   2.373038e+01  -3.045341e+01
   5.039274e+01  -1.735679e+01
   1.666882e+01  -4.956242e+00
  -2.942674e+01  -1.214928e+00
  -3.104581e+01  -1.023728e+01
   2.550463e+01  -2.465990e+01
   7.533471e+01  -1.969178e+01
