
 $NMID
 id='ANONYMOUS ', fmtdat='(2E16.6)'
 volume=1.0
 tramp=1.0
 $END
   3.966242e+03   1.585780e+02
   2.007028e+03   2.501599e+03
  -7.873704e+02   2.534156e+03
  -1.946010e+03   7.028483e+02
  -7.672859e+02  -6.586767e+02
   6.179337e+02  -5.512722e+02
   7.968595e+02   4.388039e+02
  -2.598287e+01   9.160149e+02
  -7.401579e+02   6.306471e+02
  -8.651080e+02  -1.595345e+02
  -3.553486e+02  -8.196167e+02
   2.423779e+02  -7.484584e+02
   5.214722e+02  -5.130813e+01
   3.324214e+02   6.502255e+02
  -3.049885e+02   6.654765e+02
  -5.304941e+02  -1.210036e+01
  -2.516317e+02  -6.260803e+02
   2.677360e+02  -5.264371e+02
   5.146490e+02  -5.230406e+01
   3.637584e+02   3.344251e+02
   1.530536e+01   3.547921e+02
  -2.333683e+02   2.215862e+02
  -2.253146e+02  -9.105412e+00
   1.382212e+02  -8.307317e+01
   3.548026e+02   7.968178e+01
   2.144312e+02   3.852273e+02
  -4.104894e+02   4.031751e+02
  -7.645855e+02  -4.851262e+01
  -3.335285e+02  -5.280057e+02
   3.801733e+02  -4.923517e+02
   6.905482e+02   5.801717e+01
   3.233212e+02   4.258916e+02
  -2.315244e+02   4.956448e+02
  -5.299678e+02   1.500670e+02
  -4.090406e+02  -2.015940e+02
  -4.439029e+01  -4.400557e+02
   2.057579e+02  -2.066409e+02
   1.558952e+02   2.339284e+02
  -1.829277e+02   4.386338e+02
  -3.997109e+02  -3.186672e+01
  -2.067268e+02  -6.767502e+02
   2.854627e+02  -6.074918e+02
   5.197742e+02  -1.398947e+01
   2.523221e+02   5.061598e+02
  -2.757408e+02   3.013332e+02
  -3.652500e+02  -2.835645e+02
   5.461179e+01  -4.986637e+02
   5.114931e+02  -1.240539e+02
   5.392809e+02   3.268053e+02
   1.432522e+02   5.211827e+02
  -3.323562e+02   3.147602e+02
  -5.542742e+02  -1.200678e+02
  -2.956287e+02  -3.532061e+02
   1.545295e+02  -3.210004e+02
   3.473919e+02  -5.367120e+01
   2.270251e+02   1.673670e+02
  -1.421744e+02   1.066206e+02
  -1.231695e+02  -1.659949e+02
   1.821739e+02  -1.556357e+02
   2.986267e+02   6.434222e+01
   9.779042e+01   2.694717e+02
  -1.938679e+02   2.126644e+02
  -2.845238e+02   6.650371e+01
  -1.806262e+02  -6.963605e+01
  -1.221542e+00  -1.932960e+02
   1.788408e+02  -3.247972e+02
   2.984209e+02  -2.087343e+02
   2.599325e+02   1.169558e+02
   4.415509e+01   4.007606e+02
  -1.099301e+02   3.242306e+02
  -1.383999e+02   7.488948e+01
  -1.671064e+01  -2.127684e+01
  -1.433939e+01   1.008271e+02
  -1.498482e+02   1.232492e+02
  -2.582902e+02  -4.482617e+01
  -1.552725e+02  -2.286180e+02
   6.708548e+01  -2.266680e+02
   2.208555e+02  -2.401760e+01
   1.617504e+02   2.293616e+02
  -1.460180e+01   2.775599e+02
  -2.434102e+02   1.104977e+02
  -3.153671e+02  -1.666506e+02
  -1.441713e+02  -3.018795e+02
   9.998850e+01  -2.679553e+02
   1.887238e+02  -1.151087e+02
   1.155360e+02   5.019723e+00
   7.947007e+01  -2.106404e+01
   2.167218e+02  -6.689901e+01
   3.396334e+02   3.748006e+01
   2.879971e+02   2.701588e+02
   9.005596e+00   4.065047e+02
  -3.205713e+02   3.626797e+02
  -4.024249e+02   1.679913e+02
  -3.169627e+02  -8.593071e+01
  -6.420894e+01  -2.569727e+02
   1.480405e+02  -2.417652e+02
   6.182585e+01  -2.515096e+01
  -1.008287e+02   1.008450e+02
  -1.742070e+02  -1.773118e+01
  -4.786944e+01  -1.957150e+02
   1.661118e+02  -1.561010e+02
   1.639730e+02   6.415068e+01
  -1.384416e+01   1.971506e+02
  -1.644603e+02   1.974840e+01
  -1.457082e+02  -2.199437e+02
   1.384241e+01  -3.217839e+02
   1.961667e+02  -1.663503e+02
   2.871923e+02   5.341725e+01
   2.468060e+02   2.080534e+02
   9.716476e+01   2.346986e+02
  -1.078967e+02   1.434982e+02
  -1.668879e+02   2.964460e+01
  -4.768530e+01  -2.950991e+01
   6.258942e+01   3.666663e+01
   3.382536e+01   1.135726e+02
  -1.127110e+02   9.278165e+01
  -1.475830e+02  -6.028832e+00
  -4.934966e+01  -6.795399e+01
   7.049334e+01  -1.845601e+01
   5.330332e+01   5.791399e+01
  -1.058242e+02   6.977632e+01
  -2.454369e+02   1.163942e+01
  -2.336282e+02  -1.168906e+02
  -5.592631e+01  -2.303277e+02
   1.564861e+02  -2.455830e+02
   2.336168e+02  -9.615770e+01
   1.430247e+02   4.178648e+01
  -2.578650e+01   1.040477e+02
  -8.444217e+01   9.268252e-01
   3.184598e+01  -9.933720e+01
   1.774147e+02  -6.005355e+01
   2.150621e+02   1.013608e+02
   5.391349e+01   1.858190e+02
  -8.824737e+01   1.477450e+02
  -1.326528e+02   2.882100e+01
  -6.791746e+01  -3.962590e+01
   2.388929e+01  -6.833542e+00
   4.107625e+01   7.633441e+01
  -5.313564e+01   1.059793e+02
  -1.791750e+02   3.986333e+01
  -1.743828e+02  -1.043133e+02
  -2.432890e+01  -2.053843e+02
   1.304321e+02  -1.389183e+02
   1.793405e+02  -1.642778e+01
   5.345383e+01   9.951279e+01
  -5.354714e+01   1.072263e+02
  -7.804482e+01   2.862916e+01
  -1.892851e+01  -2.479348e+01
   2.229614e+01  -2.291302e+01
  -6.992442e+00   4.559970e+00
  -5.869323e+01  -5.121312e+00
  -7.412062e+01  -6.452442e+01
  -1.647898e+01  -1.432848e+02
   1.025894e+02  -1.304106e+02
   2.159608e+02  -3.236222e+01
   1.818879e+02   1.246987e+02
   4.040401e+01   2.093084e+02
  -1.010926e+02   1.366466e+02
  -1.161552e+02   2.178110e+01
  -6.127481e+01  -5.377928e+01
  -2.438372e+01  -3.035036e+01
  -4.786501e+01   1.112312e+01
  -7.117407e+01   5.193635e+00
  -3.609634e+01  -3.897804e+01
   3.647422e+01  -7.753534e+01
   8.173306e+01  -4.822958e+01
   7.522909e+01   2.074370e+01
  -1.520792e+00   9.811172e+01
  -1.218402e+02   8.582946e+01
  -1.710155e+02  -4.290073e+01
  -9.552783e+01  -1.641502e+02
   8.184946e+01  -2.149247e+02
   2.327625e+02  -7.511481e+01
   2.163907e+02   6.607151e+01
   1.055911e+02   1.490344e+02
  -3.166767e+01   1.283595e+02
  -8.684046e+01   8.181936e+01
  -6.693132e+01   5.948703e+01
  -5.457315e+01   8.878018e+01
  -7.991115e+01   6.634725e+01
  -1.058864e+02  -1.539002e+01
  -9.715341e+01  -1.455133e+02
  -3.062551e+01  -2.035544e+02
   8.171008e+01  -1.552479e+02
   1.531659e+02  -1.828882e+01
   1.243713e+02   1.044449e+02
   2.809335e+01   1.368411e+02
  -5.722281e+01   7.693429e+01
  -5.011914e+01  -2.630861e+00
  -6.607522e+00  -3.436118e+01
   6.741199e+00  -2.929372e+01
  -3.249432e+01  -1.679747e+01
  -7.073078e+01  -2.263551e+01
  -3.864378e+01  -3.446270e+01
   5.523925e+01  -2.932675e+01
   1.392654e+02  -1.330462e+01
   1.241969e+02   3.868855e+01
   1.226462e+01   8.420771e+01
  -1.041552e+02   7.151087e+01
  -1.263334e+02   1.983684e+01
  -4.023222e+01  -3.317489e+01
   4.989533e+01  -3.399790e+01
   6.217344e+01   1.675117e+01
   6.479164e+00   5.637217e+01
  -4.678853e+01   5.064839e+01
  -5.193058e+01  -2.140792e+00
  -3.719546e+01  -4.355809e+01
  -3.905097e+01  -3.282525e+01
  -5.370343e+01   7.387569e-01
  -5.544384e+01  -6.196213e-01
  -3.263221e+01  -5.532606e+01
   3.166539e+01  -1.172366e+02
   1.029057e+02  -1.327887e+02
   1.453967e+02  -2.417344e+01
   1.140549e+02   7.528617e+01
   4.000814e+00   1.081500e+02
  -7.347552e+01   5.297064e+01
  -5.170728e+01  -1.534135e+01
   5.355889e+01  -1.318528e+01
   1.223655e+02   3.871566e+01
   6.266852e+01   9.302289e+01
  -7.307765e+01   1.006249e+02
  -1.767231e+02   4.824944e+01
  -1.419348e+02  -2.828447e+01
  -3.157522e+01  -7.853715e+01
   5.077735e+01  -6.281106e+01
   4.705204e+01  -6.151039e+00
  -3.394534e+01   2.374773e+01
  -7.558604e+01  -1.887859e+01
  -3.292334e+01  -9.870337e+01
   7.955743e+01  -1.374374e+02
   1.387976e+02  -5.891805e+01
   1.112602e+02   9.804037e+01
   6.506469e+00   1.659456e+02
  -7.830495e+01   1.253758e+02
  -9.307689e+01  -4.386724e+00
  -5.176544e+01  -1.029649e+02
  -2.180159e-01  -9.294306e+01
   4.077305e+01  -2.095793e+01
   4.262885e+01   3.092202e+01
   2.549858e+01   9.541187e+00
   2.797745e+00  -1.926119e+01
   1.796865e+01   1.159504e+01
   5.050735e+01   7.148865e+01
   3.318183e+01   8.933857e+01
  -3.910059e+01   4.028700e+01
  -1.216033e+02  -3.548653e+01
  -1.196563e+02  -6.552557e+01
  -1.647581e+01  -4.232029e+01
   7.557372e+01  -2.162640e+01
   7.505943e+01  -4.094980e+00
   1.039361e+01   6.023920e+00
  -3.578262e+01   1.881225e+01
  -1.257066e+01   1.738722e+01
   1.955311e+01  -4.947869e-01
  -5.088554e+00  -8.050069e+00
  -6.567607e+01  -2.008100e+00
  -7.568836e+01  -2.239871e+01
  -1.610557e-01  -7.037644e+01
   1.057371e+02  -9.519927e+01
   1.612375e+02  -4.982612e+01
   1.288523e+02   5.524633e+01
   2.335092e+01   1.367282e+02
  -6.419924e+01   1.296268e+02
  -9.821866e+01   4.880589e+01
  -7.272761e+01  -1.853778e+01
  -2.037582e+01  -3.005519e+01
   3.912089e+00  -5.236775e+00
  -7.548800e+00  -2.852445e+00
  -2.636973e+01  -3.981921e+01
  -1.442667e+01  -7.827497e+01
   2.766427e+01  -6.365950e+01
   6.796066e+01   1.508262e+01
   6.856901e+01   9.570761e+01
   7.461072e+00   9.886155e+01
  -6.761481e+01   1.743981e+01
  -9.229104e+01  -7.194700e+01
  -3.226087e+01  -8.960805e+01
   6.349590e+01  -4.499727e+01
   8.357845e+01   7.067828e+00
   3.196121e+01   4.232923e+01
  -2.415112e+01   4.157266e+01
  -2.484634e+01   2.411500e+01
   3.178186e+01   1.947213e+00
   6.522209e+01  -7.518208e+00
   1.340195e+01   2.061037e+01
  -6.798641e+01   5.934191e+01
  -9.559637e+01   4.819739e+01
  -5.410552e+01  -1.077822e+01
   1.063883e+01  -7.766807e+01
   4.507812e+01  -7.105974e+01
   3.239690e+01  -4.325573e+00
  -7.611512e-01   4.956010e+01
  -2.021264e+01   3.766385e+01
  -3.131182e+01  -1.414679e+01
  -2.319502e+01  -4.552668e+01
   9.763591e-01  -2.851576e+01
   2.965608e+01   9.106722e+00
   3.502845e+01   1.711891e+01
   1.942861e+01  -5.638134e-01
  -1.817475e+00  -1.151979e+01
  -7.507397e+00   1.978376e+00
  -7.229639e+00   3.050898e+01
  -1.853621e+01   3.663197e+01
  -2.548251e+01   5.805301e+00
  -2.550012e+01  -3.607402e+01
   7.552605e+00  -5.328173e+01
   3.834092e+01  -1.521791e+01
   4.663166e+01   3.097799e+01
   1.188285e+01   5.424793e+01
  -4.653592e+01   2.996094e+01
  -7.998082e+01  -1.659879e+01
  -4.090299e+01  -3.719621e+01
   2.686881e+01  -3.451832e+01
   5.624756e+01  -1.815534e+01
   1.978358e+01  -5.411404e+00
  -3.231064e+01  -1.571868e+00
  -3.508009e+01  -1.591473e+01
   3.021758e+01  -2.796983e+01
   7.768138e+01  -1.821075e+01
