
 $NMID
 id='ANONYMOUS ', fmtdat='(2E16.6)'
 volume=1.0
 tramp=1.0
 $END
  -4.539263e+03  -2.033520e+02
  -1.904131e+03  -2.603269e+03
   7.517062e+02  -2.640414e+03
   1.987085e+03  -8.465747e+02
   8.759161e+02   6.075522e+02
  -6.334052e+02   4.623965e+02
  -7.993770e+02  -4.102463e+02
   7.962512e+01  -9.606820e+02
   7.469090e+02  -7.144726e+02
   9.469649e+02   1.368071e+02
   3.642156e+02   8.367644e+02
  -3.182835e+02   8.476691e+02
  -5.804534e+02   1.258233e+02
  -3.939854e+02  -6.906772e+02
   3.016335e+02  -7.011939e+02
   6.069932e+02   1.171010e+01
   2.793973e+02   6.862736e+02
  -2.714683e+02   6.089139e+02
  -5.636398e+02   1.340975e+02
  -4.141752e+02  -3.402165e+02
  -2.095113e+01  -4.092843e+02
   2.284784e+02  -2.683255e+02
   1.998890e+02  -2.252673e+01
  -1.531458e+02   6.436324e+01
  -3.846273e+02  -1.360442e+02
  -1.914307e+02  -4.405296e+02
   4.810951e+02  -3.763872e+02
   7.826882e+02   8.842564e+01
   3.291617e+02   5.948172e+02
  -4.312750e+02   4.311142e+02
  -6.811010e+02  -1.003688e+02
  -3.628216e+02  -4.441663e+02
   2.939266e+02  -5.135713e+02
   6.229939e+02  -1.450683e+02
   4.120946e+02   2.353335e+02
   4.722167e+01   4.518722e+02
  -1.979011e+02   2.643534e+02
  -1.332414e+02  -2.038659e+02
   1.640404e+02  -3.883026e+02
   4.075133e+02   8.102630e+01
   1.430374e+02   6.959635e+02
  -3.601853e+02   6.464737e+02
  -5.851229e+02  -1.126149e+01
  -2.126279e+02  -5.279766e+02
   3.190264e+02  -3.125158e+02
   3.657161e+02   3.346174e+02
  -8.642442e+01   5.338457e+02
  -5.921862e+02   8.503243e+01
  -6.132630e+02  -3.671653e+02
  -1.283263e+02  -5.398056e+02
   3.769210e+02  -3.131778e+02
   5.887270e+02   9.824616e+01
   3.554550e+02   4.047284e+02
  -1.810758e+02   3.324280e+02
  -3.899472e+02   4.652525e+01
  -2.346710e+02  -2.010201e+02
   1.031236e+02  -1.160298e+02
   1.365324e+02   1.477243e+02
  -1.681406e+02   1.648304e+02
  -3.291528e+02  -8.212812e+01
  -1.220546e+02  -2.689739e+02
   2.097151e+02  -2.409616e+02
   3.426865e+02  -6.023402e+01
   2.274235e+02   9.482145e+01
  -1.525025e+01   2.157959e+02
  -2.192830e+02   3.597588e+02
  -3.504317e+02   1.975690e+02
  -2.832265e+02  -1.163698e+02
  -4.746632e+01  -4.177702e+02
   1.080377e+02  -3.707295e+02
   1.311331e+02  -1.069845e+02
   9.723736e+00   7.511117e+00
   5.434492e+01  -1.014076e+02
   1.838435e+02  -1.102634e+02
   3.002282e+02   4.528603e+01
   1.604407e+02   2.687989e+02
  -8.363244e+01   2.609088e+02
  -2.216687e+02  -1.334634e+00
  -1.891160e+02  -2.727380e+02
   2.187612e+01  -2.935862e+02
   2.596866e+02  -1.091263e+02
   3.705292e+02   1.763849e+02
   1.343333e+02   3.483691e+02
  -1.167125e+02   3.010640e+02
  -2.153702e+02   1.224184e+02
  -1.365639e+02   1.057117e+01
  -1.022464e+02   3.158445e+01
  -2.466729e+02   5.313043e+01
  -3.860557e+02  -6.297512e+01
  -3.363198e+02  -3.021928e+02
  -3.084816e+00  -4.498348e+02
   3.764970e+02  -3.891386e+02
   4.778624e+02  -2.079184e+02
   3.529383e+02   1.188102e+02
   5.513421e+01   3.057930e+02
  -1.266042e+02   2.430782e+02
  -7.503611e+01   3.010412e+01
   1.232598e+02  -1.059257e+02
   1.914296e+02   1.916871e+01
   5.759891e+01   1.996510e+02
  -1.641851e+02   1.534648e+02
  -1.534326e+02  -6.675407e+01
   7.801035e+00  -1.959715e+02
   1.949859e+02  -1.941269e+01
   1.616507e+02   2.544391e+02
  -3.009142e+01   3.735171e+02
  -2.364177e+02   1.909565e+02
  -3.449339e+02  -6.414531e+01
  -2.721382e+02  -2.618635e+02
  -8.287732e+01  -2.579208e+02
   1.294501e+02  -1.442380e+02
   1.822750e+02  -2.339683e+01
   5.833778e+01   3.476205e+01
  -6.930042e+01  -4.416362e+01
  -2.448933e+01  -1.284554e+02
   1.240805e+02  -9.943888e+01
   1.821083e+02   2.450159e+01
   4.590625e+01   7.007916e+01
  -8.901516e+01   1.550968e+01
  -5.111159e+01  -7.325257e+01
   1.213645e+02  -8.052302e+01
   2.794501e+02  -7.844608e+00
   2.705964e+02   1.363669e+02
   5.646082e+01   2.542157e+02
  -2.049912e+02   2.733988e+02
  -2.765808e+02   1.032298e+02
  -1.689385e+02  -5.746043e+01
   2.977795e+01  -1.051767e+02
   8.883025e+01   3.184061e+00
  -3.823871e+01   1.012474e+02
  -2.021908e+02   5.610749e+01
  -2.101465e+02  -1.037854e+02
  -6.100831e+01  -2.140063e+02
   9.485290e+01  -1.626923e+02
   1.432743e+02  -3.158882e+01
   6.470383e+01   4.224045e+01
  -2.798498e+01   6.489478e+00
  -3.811802e+01  -8.922585e+01
   6.820528e+01  -1.108732e+02
   2.126470e+02  -2.873259e+01
   1.787463e+02   1.258201e+02
   1.827977e+01   2.308592e+02
  -1.579964e+02   1.611543e+02
  -1.968818e+02   1.368540e+01
  -6.067354e+01  -1.222121e+02
   6.018322e+01  -1.064112e+02
   8.320336e+01  -2.754626e+01
   1.689201e+01   2.670046e+01
  -2.792284e+01   1.934056e+01
   8.736753e+00  -8.355455e+00
   7.180870e+01   1.108276e+01
   8.191438e+01   7.701898e+01
   1.332862e+01   1.567285e+02
  -1.342888e+02   1.494732e+02
  -2.355198e+02   2.161830e+01
  -1.857390e+02  -1.520463e+02
  -4.340511e+01  -2.213825e+02
   1.136720e+02  -1.613974e+02
   1.347140e+02  -2.665964e+01
   7.269662e+01   5.759791e+01
   2.973917e+01   3.626899e+01
   5.026769e+01  -9.805824e+00
   8.574557e+01  -6.140530e+00
   4.334041e+01   4.960821e+01
  -4.517989e+01   9.590712e+01
  -9.757966e+01   4.881060e+01
  -8.717773e+01  -2.864518e+01
   1.570605e+01  -1.187367e+02
   1.436730e+02  -9.320434e+01
   2.032673e+02   5.745831e+01
   1.130913e+02   2.013239e+02
  -1.003895e+02   2.275089e+02
  -2.573747e+02   7.412423e+01
  -2.343177e+02  -8.571344e+01
  -1.156251e+02  -1.746424e+02
   5.111754e+01  -1.495449e+02
   9.525761e+01  -8.306601e+01
   7.194937e+01  -6.351750e+01
   6.827753e+01  -9.298515e+01
   8.699079e+01  -7.847301e+01
   1.220303e+02   2.214106e+01
   1.033518e+02   1.454328e+02
   2.678896e+01   2.140343e+02
  -1.035048e+02   1.645372e+02
  -1.755793e+02   2.331506e+01
  -1.320056e+02  -1.226257e+02
  -2.003499e+01  -1.529634e+02
   6.671880e+01  -9.603984e+01
   6.185092e+01   2.539289e+00
   4.687589e+00   3.809061e+01
  -1.160106e+01   3.625229e+01
   3.337383e+01   2.035484e+01
   7.630617e+01   1.956905e+01
   4.424019e+01   4.066512e+01
  -6.365309e+01   3.484844e+01
  -1.634999e+02   7.543725e+00
  -1.547947e+02  -5.130856e+01
  -8.601494e+00  -9.863217e+01
   1.219860e+02  -8.232749e+01
   1.451622e+02  -1.184028e+01
   4.490290e+01   4.269109e+01
  -6.370562e+01   3.881380e+01
  -7.132262e+01  -2.051458e+01
  -4.567564e+00  -7.051456e+01
   5.413566e+01  -5.744485e+01
   6.106915e+01   6.733273e+00
   4.345064e+01   5.202927e+01
   4.567485e+01   4.050048e+01
   6.130493e+01   3.842106e+00
   6.640719e+01   2.180473e+00
   3.811611e+01   6.222868e+01
  -3.705013e+01   1.513354e+02
  -1.148531e+02   1.331643e+02
  -1.686763e+02   2.687098e+01
  -1.358301e+02  -9.045247e+01
  -1.689545e+00  -1.259088e+02
   8.123544e+01  -6.512243e+01
   5.786751e+01   1.642669e+01
  -6.136663e+01   1.812183e+01
  -1.280366e+02  -3.766867e+01
  -7.036554e+01  -1.003292e+02
   8.569246e+01  -1.070989e+02
   1.959358e+02  -4.821000e+01
   1.603410e+02   3.802514e+01
   3.890944e+01   8.864916e+01
  -5.997306e+01   6.829675e+01
  -4.999519e+01   6.340099e+00
   3.909969e+01  -2.580398e+01
   9.021542e+01   2.158093e+01
   2.998275e+01   1.174888e+02
  -1.057055e+02   1.561808e+02
  -1.569847e+02   6.763549e+01
  -1.207291e+02  -1.006500e+02
  -1.278114e+01  -1.897307e+02
   8.210765e+01  -1.364003e+02
   1.034433e+02   1.206062e+01
   6.030159e+01   1.203417e+02
  -6.225937e+00   1.044912e+02
  -4.544569e+01   2.013910e+01
  -5.041889e+01  -3.351697e+01
  -2.556574e+01  -1.018889e+01
  -4.287958e+00   2.141056e+01
  -2.166447e+01  -1.528935e+01
  -5.279678e+01  -8.361706e+01
  -4.533465e+01  -1.141100e+02
   4.803428e+01  -4.344133e+01
   1.419984e+02   3.766231e+01
   1.117289e+02   7.436404e+01
   1.526289e+01   5.033162e+01
  -8.264374e+01   2.550345e+01
  -8.259988e+01   9.807155e-01
  -1.254096e+01  -7.190349e+00
   3.745912e+01  -2.092833e+01
   1.592796e+01  -1.722091e+01
  -1.961459e+01   3.667195e-02
   3.858498e+00   8.640638e+00
   7.530012e+01   7.387394e+00
   9.018605e+01   2.703140e+01
   5.350217e+00   7.298892e+01
  -1.104593e+02   1.022696e+02
  -1.853946e+02   5.745415e+01
  -1.356408e+02  -6.375857e+01
  -1.790633e+01  -1.588483e+02
   7.723949e+01  -1.539974e+02
   1.114402e+02  -6.579172e+01
   8.006677e+01   1.991059e+01
   2.352750e+01   3.453401e+01
  -2.641074e+00   8.379005e+00
   9.495143e+00   4.470284e+00
   3.276726e+01   4.725739e+01
   2.151755e+01   9.438672e+01
  -3.101380e+01   6.763608e+01
  -8.234277e+01  -2.294361e+01
  -7.681973e+01  -1.084059e+02
  -8.340683e+00  -1.131662e+02
   7.830371e+01  -2.402681e+01
   9.920427e+01   8.300538e+01
   3.557497e+01   1.068047e+02
  -6.714531e+01   5.489290e+01
  -9.626299e+01  -1.258568e+01
  -3.734318e+01  -4.907545e+01
   3.216052e+01  -4.993890e+01
   2.990867e+01  -2.648897e+01
  -3.096989e+01  -1.123831e+00
  -6.817144e+01   7.815524e+00
  -1.449734e+01  -2.421809e+01
   7.831562e+01  -6.702853e+01
   1.147221e+02  -5.390327e+01
   6.238869e+01   1.306581e+01
  -1.646746e+01   7.904515e+01
  -5.346899e+01   8.098179e+01
  -3.700954e+01   5.800922e+00
  -4.923280e-02  -5.499887e+01
   2.599244e+01  -4.086219e+01
   3.631962e+01   1.843656e+01
   2.774383e+01   5.185306e+01
  -1.356198e+00   3.480626e+01
  -3.231015e+01  -9.689225e+00
  -3.727880e+01  -2.194659e+01
  -2.131564e+01  -7.977018e-01
   2.432358e+00   1.531593e+01
   9.464139e+00  -2.739109e+00
   7.000560e+00  -3.468861e+01
   1.663007e+01  -4.139997e+01
   3.006682e+01  -9.970270e+00
   3.251327e+01   4.035851e+01
  -4.805225e+00   6.222620e+01
  -4.314431e+01   1.775531e+01
  -5.902438e+01  -3.656760e+01
  -1.684391e+01  -6.766685e+01
   5.123766e+01  -3.395477e+01
   8.625116e+01   1.786478e+01
   5.009238e+01   4.149593e+01
  -2.699262e+01   3.794700e+01
  -6.413720e+01   1.900085e+01
  -2.414930e+01   6.001536e+00
   3.571115e+01   2.145719e+00
   3.593259e+01   1.290759e+01
  -3.316562e+01   3.082018e+01
  -8.652954e+01   1.501437e+01
