
 $NMID
 id='ANONYMOUS ', fmtdat='(2E16.6)'
 volume=1.0
 tramp=1.0
 $END
   4.298199e+03   1.498297e+02
   1.971660e+03   2.361973e+03
  -7.033682e+02   2.542731e+03
  -1.868017e+03   8.277455e+02
  -9.220210e+02  -5.726794e+02
   6.590150e+02  -4.380552e+02
   7.279693e+02   3.665485e+02
  -7.177650e+01   8.800864e+02
  -7.128502e+02   6.449592e+02
  -8.981933e+02  -1.060301e+02
  -3.628313e+02  -7.570536e+02
   2.860585e+02  -8.591109e+02
   5.368111e+02  -1.290148e+02
   3.940188e+02   6.628962e+02
  -2.882295e+02   6.864303e+02
  -5.620721e+02  -7.652290e+00
  -2.494441e+02  -6.735992e+02
   2.672071e+02  -6.074126e+02
   5.753380e+02  -1.678522e+02
   4.362801e+02   3.301552e+02
   1.951398e+01   4.154996e+02
  -2.264401e+02   2.697223e+02
  -1.962869e+02   3.126769e+01
   1.689236e+02  -4.480240e+01
   3.704182e+02   1.523858e+02
   1.744457e+02   4.526035e+02
  -4.876985e+02   3.663387e+02
  -8.258587e+02  -7.951220e+01
  -3.059276e+02  -5.803173e+02
   4.145153e+02  -3.904970e+02
   6.917345e+02   1.014592e+02
   3.713182e+02   4.445918e+02
  -2.935322e+02   5.146640e+02
  -6.105680e+02   1.315595e+02
  -4.088738e+02  -2.196045e+02
  -7.382673e+01  -4.589077e+02
   1.840046e+02  -2.548188e+02
   1.255421e+02   2.255179e+02
  -1.479471e+02   3.799374e+02
  -3.953000e+02  -7.742732e+01
  -1.267203e+02  -6.878209e+02
   3.620938e+02  -6.170242e+02
   5.888656e+02   4.783058e+00
   1.996244e+02   5.249625e+02
  -2.898389e+02   3.107254e+02
  -3.348314e+02  -2.987024e+02
   8.282281e+01  -5.116819e+02
   5.786629e+02  -6.905991e+01
   6.229314e+02   3.692496e+02
   1.302992e+02   5.421021e+02
  -3.962677e+02   3.163855e+02
  -5.844331e+02  -1.034880e+02
  -3.300873e+02  -3.900971e+02
   1.673149e+02  -3.291675e+02
   4.152187e+02  -3.183459e+01
   2.251491e+02   1.968611e+02
  -9.601531e+01   9.270666e+01
  -1.276829e+02  -1.466598e+02
   1.711033e+02  -1.292164e+02
   3.136222e+02   8.113804e+01
   1.261992e+02   2.647252e+02
  -2.055937e+02   2.393510e+02
  -3.397150e+02   6.325116e+01
  -2.262399e+02  -1.019671e+02
   1.544868e+01  -2.296202e+02
   2.228912e+02  -3.591670e+02
   3.521922e+02  -1.855192e+02
   2.768188e+02   1.162485e+02
   5.485934e+01   4.116658e+02
  -8.596749e+01   3.517221e+02
  -1.177470e+02   1.147456e+02
  -1.217457e+01  -3.845356e+00
  -6.270988e+01   1.063085e+02
  -1.909773e+02   1.097919e+02
  -2.933139e+02  -5.496505e+01
  -1.593490e+02  -2.720556e+02
   9.163702e+01  -2.469148e+02
   2.262408e+02   4.561396e+00
   1.867536e+02   2.784248e+02
  -2.878098e+01   2.831787e+02
  -2.599305e+02   1.069967e+02
  -3.460604e+02  -1.780168e+02
  -1.379269e+02  -3.339676e+02
   1.031159e+02  -2.930638e+02
   2.152042e+02  -1.261124e+02
   1.368294e+02  -2.001396e+01
   1.082163e+02  -3.233097e+01
   2.502701e+02  -5.198654e+01
   3.897244e+02   6.907291e+01
   3.337215e+02   2.982125e+02
   1.216161e+01   4.548265e+02
  -3.652216e+02   3.846649e+02
  -4.875057e+02   2.064885e+02
  -3.418354e+02  -1.264772e+02
  -4.784553e+01  -3.032351e+02
   1.231701e+02  -2.441710e+02
   6.651623e+01  -2.998457e+01
  -1.238310e+02   9.891474e+01
  -1.839283e+02  -2.007694e+01
  -4.713579e+01  -1.969661e+02
   1.645973e+02  -1.538637e+02
   1.569001e+02   6.422565e+01
  -9.383999e+00   1.871796e+02
  -1.888616e+02   1.771070e+01
  -1.585198e+02  -2.450056e+02
   3.436772e+01  -3.765241e+02
   2.363299e+02  -1.922094e+02
   3.394262e+02   6.481081e+01
   2.783815e+02   2.685548e+02
   7.497856e+01   2.548418e+02
  -1.298084e+02   1.432586e+02
  -1.851555e+02   2.228149e+01
  -5.670772e+01  -3.489214e+01
   6.789127e+01   4.665758e+01
   1.838996e+01   1.244712e+02
  -1.204951e+02   9.267071e+01
  -1.800322e+02  -2.900634e+01
  -4.488476e+01  -6.816119e+01
   8.932250e+01  -1.378895e+01
   5.024650e+01   7.264759e+01
  -1.273800e+02   8.241897e+01
  -2.834866e+02  -4.745447e+00
  -2.719860e+02  -1.456268e+02
  -5.219300e+01  -2.579047e+02
   2.057450e+02  -2.667638e+02
   2.794175e+02  -1.024814e+02
   1.621442e+02   5.943267e+01
  -2.371451e+01   1.007465e+02
  -8.866993e+01  -3.056798e+00
   4.279001e+01  -9.532476e+01
   2.036917e+02  -5.453466e+01
   2.113675e+02   1.033068e+02
   6.471575e+01   2.171629e+02
  -9.389964e+01   1.566118e+02
  -1.440775e+02   3.005639e+01
  -6.443433e+01  -3.986268e+01
   3.023372e+01  -4.451882e+00
   3.724277e+01   9.170126e+01
  -7.107729e+01   1.182649e+02
  -2.130032e+02   2.337080e+01
  -1.848652e+02  -1.249954e+02
  -1.371018e+01  -2.291118e+02
   1.608080e+02  -1.618149e+02
   1.934406e+02  -8.265090e+00
   6.035577e+01   1.146255e+02
  -6.418053e+01   1.038792e+02
  -8.081016e+01   2.709220e+01
  -1.593853e+01  -2.650267e+01
   2.874688e+01  -1.906606e+01
  -9.448216e+00   1.082024e+01
  -7.316863e+01  -1.219300e+01
  -8.721216e+01  -7.946504e+01
  -1.404595e+01  -1.589043e+02
   1.357987e+02  -1.519821e+02
   2.351774e+02  -2.351975e+01
   1.801435e+02   1.570971e+02
   3.929151e+01   2.286905e+02
  -1.102012e+02   1.628201e+02
  -1.322272e+02   2.557264e+01
  -7.335615e+01  -5.640576e+01
  -2.970490e+01  -3.578899e+01
  -5.065372e+01   1.033584e+01
  -8.598323e+01   7.821633e+00
  -4.401507e+01  -5.090194e+01
   4.100928e+01  -9.658833e+01
   9.712513e+01  -4.880013e+01
   9.339856e+01   3.034785e+01
  -1.531843e+01   1.212862e+02
  -1.443107e+02   9.436474e+01
  -2.024571e+02  -5.879208e+01
  -1.087472e+02  -2.007394e+02
   1.038944e+02  -2.223536e+02
   2.574606e+02  -7.827120e+01
   2.354119e+02   8.651589e+01
   1.140179e+02   1.792958e+02
  -5.301855e+01   1.500558e+02
  -9.637021e+01   8.285799e+01
  -7.306428e+01   6.491522e+01
  -6.854277e+01   9.278276e+01
  -8.846214e+01   8.088834e+01
  -1.225846e+02  -2.114333e+01
  -1.058274e+02  -1.469483e+02
  -2.335867e+01  -2.177712e+02
   1.033501e+02  -1.564819e+02
   1.749615e+02  -2.564922e+01
   1.330573e+02   1.250151e+02
   1.569327e+01   1.586783e+02
  -6.729149e+01   9.355784e+01
  -6.197435e+01  -4.656862e+00
  -4.086548e+00  -4.133770e+01
   1.257806e+01  -3.587870e+01
  -3.255728e+01  -1.865100e+01
  -7.992473e+01  -1.890939e+01
  -4.471580e+01  -4.135139e+01
   6.469137e+01  -3.353862e+01
   1.663047e+02  -9.268686e+00
   1.569892e+02   5.514747e+01
   8.025040e+00   9.978865e+01
  -1.249313e+02   7.699892e+01
  -1.454202e+02   1.048177e+01
  -4.490507e+01  -4.614318e+01
   6.336013e+01  -3.865345e+01
   7.475830e+01   1.959775e+01
   6.290786e+00   7.282057e+01
  -5.412083e+01   5.663594e+01
  -6.007477e+01  -6.136646e+00
  -4.680413e+01  -5.096032e+01
  -4.592990e+01  -4.091124e+01
  -6.104576e+01  -3.544801e+00
  -6.514958e+01  -3.300193e+00
  -3.901159e+01  -6.268510e+01
   3.481438e+01  -1.533692e+02
   1.185036e+02  -1.382131e+02
   1.728365e+02  -2.739797e+01
   1.375708e+02   9.144982e+01
   1.181817e+00   1.256756e+02
  -8.042927e+01   6.872064e+01
  -5.825462e+01  -1.492689e+01
   6.051802e+01  -1.674267e+01
   1.286987e+02   3.578831e+01
   7.111118e+01   1.010606e+02
  -8.335497e+01   1.071968e+02
  -1.915370e+02   5.029895e+01
  -1.583740e+02  -3.642697e+01
  -3.821795e+01  -8.942315e+01
   6.233450e+01  -6.749556e+01
   4.961882e+01  -4.244970e+00
  -3.839103e+01   2.705868e+01
  -8.975802e+01  -1.996402e+01
  -3.067268e+01  -1.158981e+02
   1.002201e+02  -1.572188e+02
   1.594421e+02  -7.007908e+01
   1.224326e+02   9.924881e+01
   1.276858e+01   1.861452e+02
  -7.897547e+01   1.373949e+02
  -1.038564e+02  -1.387923e+01
  -5.918407e+01  -1.210166e+02
   8.383227e+00  -1.079772e+02
   4.584606e+01  -1.967564e+01
   4.999157e+01   3.376003e+01
   2.504013e+01   1.060774e+01
   5.063057e+00  -2.106479e+01
   2.142661e+01   1.551041e+01
   5.274867e+01   8.156865e+01
   4.112349e+01   1.110178e+02
  -4.872060e+01   4.348773e+01
  -1.404707e+02  -3.687281e+01
  -1.147662e+02  -7.227764e+01
  -1.608887e+01  -4.946261e+01
   8.165954e+01  -2.770860e+01
   8.454806e+01  -8.611029e-01
   1.343866e+01   7.009638e+00
  -3.579043e+01   2.143936e+01
  -1.594856e+01   1.738071e+01
   2.006853e+01  -1.091667e+00
  -3.322281e+00  -8.377702e+00
  -7.167192e+01  -5.816932e+00
  -8.933200e+01  -2.722875e+01
  -6.244702e+00  -7.464647e+01
   1.096344e+02  -1.049442e+02
   1.814048e+02  -6.044601e+01
   1.394344e+02   6.388637e+01
   1.710763e+01   1.596916e+02
  -7.870951e+01   1.577496e+02
  -1.120169e+02   6.647932e+01
  -8.155829e+01  -1.945995e+01
  -2.402331e+01  -3.593888e+01
   1.900732e+00  -8.853383e+00
  -1.063191e+01  -5.001295e+00
  -3.267230e+01  -4.770411e+01
  -2.046397e+01  -9.350385e+01
   3.159142e+01  -6.894190e+01
   7.970035e+01   2.279770e+01
   7.687093e+01   1.102257e+02
   1.052801e+01   1.132602e+02
  -7.959229e+01   2.514942e+01
  -1.019539e+02  -8.221705e+01
  -3.634984e+01  -1.055785e+02
   6.751779e+01  -5.768119e+01
   9.634753e+01   1.063948e+01
   3.695292e+01   5.167768e+01
  -3.036639e+01   5.166412e+01
  -3.136057e+01   2.664695e+01
   3.061770e+01   2.366396e-02
   6.835995e+01  -8.009852e+00
   1.525392e+01   2.422348e+01
  -7.676748e+01   6.829890e+01
  -1.157850e+02   5.659473e+01
  -6.352686e+01  -1.363543e+01
   1.562514e+01  -8.128272e+01
   5.504550e+01  -8.074557e+01
   3.794002e+01  -5.643832e+00
  -1.796435e+00   5.601142e+01
  -2.647560e+01   4.225018e+01
  -3.548125e+01  -1.729364e+01
  -2.796005e+01  -5.117865e+01
   9.361908e-01  -3.547852e+01
   3.271951e+01   9.401283e+00
   3.745191e+01   2.182642e+01
   2.139178e+01   1.622654e+00
  -2.411774e+00  -1.534300e+01
  -9.258524e+00   1.409889e+00
  -6.091687e+00   3.377375e+01
  -1.724337e+01   4.214650e+01
  -3.047510e+01   1.221873e+01
  -3.285298e+01  -4.240094e+01
   2.897985e+00  -6.308283e+01
   4.190501e+01  -1.787360e+01
   5.832740e+01   3.649436e+01
   1.780354e+01   6.622584e+01
  -5.172354e+01   3.519769e+01
  -8.759425e+01  -1.709591e+01
  -4.923148e+01  -4.090669e+01
   2.563078e+01  -3.792497e+01
   6.421366e+01  -2.066979e+01
   2.416124e+01  -6.135480e+00
  -3.571080e+01  -3.840408e+00
  -3.581042e+01  -1.227402e+01
   3.280613e+01  -3.110591e+01
   8.345184e+01  -1.549451e+01
