
 $NMID
 id='ANONYMOUS ', fmtdat='(2E16.6)'
 volume=1.0
 tramp=1.0
 $END
   3.993414e+03  -3.623855e+01
   2.099714e+03   2.241025e+03
  -6.257691e+02   2.523856e+03
  -1.909628e+03   8.424115e+02
  -9.135832e+02  -6.313080e+02
   7.109312e+02  -5.169620e+02
   7.384876e+02   4.581082e+02
  -2.850258e+01   8.884402e+02
  -6.780019e+02   6.983910e+02
  -8.931795e+02  -1.517738e+02
  -3.437264e+02  -8.211632e+02
   2.878794e+02  -8.893246e+02
   5.171630e+02  -8.167792e+01
   4.219813e+02   6.752455e+02
  -3.115644e+02   7.129238e+02
  -5.779802e+02  -1.158837e+01
  -2.409845e+02  -6.796067e+02
   2.780758e+02  -5.949510e+02
   5.687953e+02  -1.280450e+02
   4.332015e+02   3.326872e+02
  -9.296003e+00   4.143266e+02
  -2.375138e+02   2.359690e+02
  -2.103403e+02   3.117237e+01
   1.351624e+02  -8.272593e+01
   3.894382e+02   1.185611e+02
   2.293312e+02   4.611351e+02
  -4.674209e+02   4.014419e+02
  -8.229576e+02  -5.176533e+01
  -3.584672e+02  -5.621006e+02
   3.764250e+02  -4.807104e+02
   7.603456e+02   5.043323e+01
   3.873508e+02   4.646896e+02
  -2.660553e+02   5.239484e+02
  -6.053733e+02   1.527695e+02
  -4.302026e+02  -2.070824e+02
  -6.611246e+01  -4.760343e+02
   1.984459e+02  -2.440265e+02
   1.357188e+02   2.269431e+02
  -1.642494e+02   4.250175e+02
  -4.319899e+02  -3.854511e+01
  -2.100044e+02  -7.261984e+02
   3.021328e+02  -6.816054e+02
   5.789373e+02   5.977700e+00
   2.401734e+02   5.696424e+02
  -2.931188e+02   3.372887e+02
  -3.676926e+02  -2.845256e+02
   7.032242e+01  -5.165209e+02
   5.690519e+02  -1.306575e+02
   6.322065e+02   3.498411e+02
   1.613019e+02   5.447770e+02
  -4.090492e+02   3.232216e+02
  -5.879221e+02  -1.001005e+02
  -3.383515e+02  -3.715244e+02
   1.735076e+02  -3.571420e+02
   4.334545e+02  -3.938390e+01
   2.514335e+02   2.023694e+02
  -1.125144e+02   1.049595e+02
  -1.308295e+02  -1.615691e+02
   1.433792e+02  -1.473545e+02
   3.210690e+02   7.855420e+01
   1.256472e+02   2.987331e+02
  -1.847305e+02   2.399573e+02
  -3.304371e+02   6.955998e+01
  -2.022255e+02  -9.162470e+01
   7.645906e+00  -2.231677e+02
   2.086384e+02  -3.513901e+02
   3.348063e+02  -1.935861e+02
   2.888949e+02   1.112787e+02
   6.679465e+01   4.151306e+02
  -7.127076e+01   3.364273e+02
  -1.204499e+02   1.080441e+02
  -2.513226e+01  -2.120301e+01
  -5.092038e+01   1.050417e+02
  -1.765501e+02   1.390846e+02
  -2.832330e+02  -4.010540e+01
  -1.706574e+02  -2.723490e+02
   6.305901e+01  -2.559374e+02
   2.334398e+02  -1.183348e+01
   1.945135e+02   2.636991e+02
  -1.026350e+01   2.716778e+02
  -2.655144e+02   1.171116e+02
  -3.309296e+02  -1.810828e+02
  -1.471745e+02  -3.325334e+02
   9.758715e+01  -3.090558e+02
   2.229523e+02  -1.236997e+02
   1.258883e+02  -1.027073e+01
   9.935515e+01  -3.588071e+01
   2.437984e+02  -6.185788e+01
   3.762628e+02   4.009829e+01
   3.375541e+02   2.836135e+02
   1.127947e+01   4.496040e+02
  -3.420349e+02   3.876173e+02
  -4.808054e+02   1.922145e+02
  -3.478227e+02  -8.881173e+01
  -6.105741e+01  -2.941873e+02
   1.199405e+02  -2.656968e+02
   7.016088e+01  -2.156022e+01
  -1.156121e+02   1.005196e+02
  -1.878307e+02  -1.976458e+01
  -5.025042e+01  -2.015378e+02
   1.718726e+02  -1.565368e+02
   1.741494e+02   5.279263e+01
  -8.563822e+00   1.905519e+02
  -1.764876e+02   2.741656e+01
  -1.576096e+02  -2.270272e+02
   1.908472e+01  -3.633959e+02
   2.179185e+02  -1.899146e+02
   3.252698e+02   6.376249e+01
   2.806150e+02   2.383932e+02
   8.338608e+01   2.443067e+02
  -1.171462e+02   1.489924e+02
  -1.805500e+02   1.910181e+01
  -5.971866e+01  -3.319508e+01
   6.778772e+01   4.268147e+01
   2.806715e+01   1.212595e+02
  -1.157203e+02   9.514452e+01
  -1.699891e+02  -1.328975e+01
  -5.287219e+01  -7.113826e+01
   8.523304e+01  -2.347892e+01
   5.239221e+01   6.748251e+01
  -1.258610e+02   8.329217e+01
  -2.688766e+02   3.998754e+00
  -2.766430e+02  -1.342972e+02
  -7.063513e+01  -2.474027e+02
   1.899203e+02  -2.600358e+02
   2.796649e+02  -1.173691e+02
   1.634989e+02   4.569509e+01
  -2.356050e+01   1.086721e+02
  -9.479180e+01   5.913109e+00
   3.452389e+01  -9.221155e+01
   2.019086e+02  -6.230171e+01
   2.156132e+02   1.010176e+02
   6.998736e+01   2.227743e+02
  -9.714686e+01   1.547626e+02
  -1.414496e+02   3.666036e+01
  -7.143101e+01  -4.257526e+01
   2.742394e+01  -6.199272e+00
   4.493429e+01   8.400379e+01
  -6.296454e+01   1.145480e+02
  -1.944482e+02   3.493523e+01
  -1.886776e+02  -1.184135e+02
  -1.753819e+01  -2.243763e+02
   1.510855e+02  -1.679224e+02
   1.858172e+02  -3.408871e+00
   6.357342e+01   1.102755e+02
  -6.329119e+01   1.068344e+02
  -7.929028e+01   2.973890e+01
  -2.033622e+01  -2.493554e+01
   2.563081e+01  -2.013870e+01
  -9.332550e+00   4.863119e+00
  -6.717928e+01  -1.038277e+01
  -8.048866e+01  -7.333732e+01
  -1.570949e+01  -1.526981e+02
   1.243878e+02  -1.508051e+02
   2.326579e+02  -2.346272e+01
   1.891800e+02   1.501347e+02
   4.054860e+01   2.279488e+02
  -1.097667e+02   1.597650e+02
  -1.278755e+02   2.996120e+01
  -6.694201e+01  -5.772308e+01
  -2.711078e+01  -3.377922e+01
  -5.235921e+01   1.147843e+01
  -8.087459e+01   7.876844e+00
  -4.003679e+01  -4.503309e+01
   3.430472e+01  -9.007896e+01
   9.645361e+01  -4.988540e+01
   8.609146e+01   2.573392e+01
  -1.162562e+01   1.137919e+02
  -1.348785e+02   9.786483e+01
  -1.894074e+02  -4.942154e+01
  -1.086181e+02  -1.822427e+02
   9.760611e+01  -2.170709e+02
   2.547009e+02  -1.059513e+02
   2.422038e+02   7.207918e+01
   1.149800e+02   1.758007e+02
  -4.204313e+01   1.488597e+02
  -9.440181e+01   8.714861e+01
  -7.192703e+01   6.766577e+01
  -6.664436e+01   9.163806e+01
  -8.689015e+01   7.896282e+01
  -1.200425e+02  -1.728485e+01
  -1.074420e+02  -1.445646e+02
  -2.526021e+01  -2.150105e+02
   9.258209e+01  -1.561356e+02
   1.761883e+02  -2.883372e+01
   1.394657e+02   1.204876e+02
   1.891438e+01   1.558466e+02
  -5.968593e+01   9.124985e+01
  -5.773804e+01   3.179441e-01
  -6.504016e+00  -3.952207e+01
   1.102160e+01  -3.120396e+01
  -3.333545e+01  -1.669794e+01
  -7.579123e+01  -1.976038e+01
  -4.358796e+01  -3.752886e+01
   5.991717e+01  -3.688201e+01
   1.640047e+02  -1.004994e+01
   1.509207e+02   4.896599e+01
   1.754534e+01   9.688358e+01
  -1.167391e+02   7.546172e+01
  -1.384581e+02   1.887920e+01
  -4.523971e+01  -3.959329e+01
   6.231055e+01  -3.660864e+01
   7.396129e+01   1.652050e+01
   3.715507e+00   6.884655e+01
  -5.082110e+01   5.585787e+01
  -5.835187e+01  -2.796898e+00
  -4.385974e+01  -4.600524e+01
  -4.285762e+01  -4.094976e+01
  -6.153117e+01  -2.978193e+00
  -6.424629e+01  -3.381028e+00
  -3.857298e+01  -6.021960e+01
   3.596180e+01  -1.407570e+02
   1.097362e+02  -1.422710e+02
   1.628842e+02  -3.058209e+01
   1.330731e+02   8.368444e+01
   6.027533e+00   1.239517e+02
  -7.790228e+01   6.921912e+01
  -5.699995e+01  -1.369808e+01
   5.784480e+01  -1.688346e+01
   1.267166e+02   2.639037e+01
   7.516784e+01   9.899331e+01
  -8.078206e+01   1.076820e+02
  -1.860284e+02   5.626745e+01
  -1.538864e+02  -2.989179e+01
  -3.764650e+01  -8.576175e+01
   5.934129e+01  -6.662988e+01
   4.754759e+01  -7.183365e+00
  -3.704422e+01   2.740819e+01
  -8.836518e+01  -1.770770e+01
  -3.105981e+01  -1.116822e+02
   8.628705e+01  -1.579538e+02
   1.579922e+02  -6.671477e+01
   1.200523e+02   9.876452e+01
   1.175387e+01   1.789358e+02
  -7.645721e+01   1.371957e+02
  -1.041946e+02  -9.745625e+00
  -6.171103e+01  -1.155149e+02
   6.795792e+00  -1.063788e+02
   4.367439e+01  -2.090286e+01
   5.005874e+01   3.327282e+01
   2.745630e+01   9.350898e+00
   4.143195e+00  -2.088464e+01
   2.072518e+01   1.367257e+01
   5.442441e+01   8.121435e+01
   4.382993e+01   1.044229e+02
  -4.310436e+01   4.260891e+01
  -1.393863e+02  -3.335871e+01
  -1.195482e+02  -7.416098e+01
  -1.670096e+01  -4.741713e+01
   8.137001e+01  -2.743542e+01
   8.183334e+01  -1.216740e+00
   1.171962e+01   6.107265e+00
  -3.627135e+01   2.166515e+01
  -1.359398e+01   1.836578e+01
   2.149858e+01  -1.343104e+00
  -4.974972e+00  -8.315269e+00
  -6.988193e+01  -1.090341e+00
  -8.490541e+01  -2.554840e+01
  -5.739744e+00  -7.077869e+01
   1.093243e+02  -1.075231e+02
   1.773932e+02  -5.978201e+01
   1.388307e+02   6.153164e+01
   1.933464e+01   1.557266e+02
  -8.187331e+01   1.511838e+02
  -1.059609e+02   6.372975e+01
  -8.226565e+01  -2.185818e+01
  -2.390126e+01  -3.488435e+01
   2.868297e+00  -7.392678e+00
  -8.920120e+00  -3.376303e+00
  -3.304316e+01  -4.707745e+01
  -2.208135e+01  -8.875457e+01
   2.640140e+01  -6.748824e+01
   7.833019e+01   1.996453e+01
   7.455439e+01   1.081413e+02
   8.012355e+00   1.087684e+02
  -7.568201e+01   2.466703e+01
  -1.005778e+02  -7.308843e+01
  -3.261608e+01  -1.010321e+02
   6.585065e+01  -5.569597e+01
   8.838054e+01   5.746181e+00
   3.492458e+01   4.743317e+01
  -2.865783e+01   4.834001e+01
  -2.919535e+01   2.484572e+01
   3.275218e+01  -5.738556e-02
   6.812031e+01  -8.135379e+00
   1.493969e+01   2.387573e+01
  -7.274563e+01   6.703237e+01
  -1.076173e+02   5.680361e+01
  -6.103061e+01  -1.002377e+01
   1.137735e+01  -7.938678e+01
   4.912914e+01  -7.980117e+01
   3.680969e+01  -4.767918e+00
  -4.802537e+00   5.598446e+01
  -2.664892e+01   4.125158e+01
  -3.338921e+01  -1.936896e+01
  -2.939780e+01  -4.823804e+01
   1.331949e+00  -3.167278e+01
   3.235365e+01   8.147178e+00
   3.702004e+01   2.033623e+01
   2.115007e+01   2.790123e-01
  -1.413062e+00  -1.447707e+01
  -9.548415e+00   2.092686e+00
  -5.046940e+00   3.306570e+01
  -1.710715e+01   4.017785e+01
  -2.836658e+01   9.685230e+00
  -2.712183e+01  -4.308903e+01
   1.859313e+00  -5.806450e+01
   4.112169e+01  -1.945014e+01
   5.753380e+01   3.387453e+01
   1.651125e+01   6.234563e+01
  -5.003136e+01   3.632616e+01
  -8.512680e+01  -1.281879e+01
  -5.149701e+01  -4.088952e+01
   2.378518e+01  -3.889494e+01
   6.151644e+01  -2.265086e+01
   2.341124e+01  -6.731074e+00
  -3.839666e+01  -2.260597e+00
  -3.781440e+01  -1.363434e+01
   3.051070e+01  -3.016452e+01
   8.283079e+01  -1.798240e+01
