
 $NMID
 id='ANONYMOUS ', fmtdat='(2E16.6)'
 volume=1.0
 tramp=1.0
 $END
   3.614638e+03  -4.007309e+02
   1.995811e+03   1.885280e+03
  -5.008386e+02   2.315534e+03
  -1.717373e+03   6.851901e+02
  -8.790935e+02  -5.120136e+02
   6.318916e+02  -4.245831e+02
   6.809834e+02   3.845061e+02
   2.354382e+01   8.080772e+02
  -5.629666e+02   6.905358e+02
  -7.925160e+02  -9.542783e+01
  -3.062576e+02  -7.983953e+02
   2.856845e+02  -7.995411e+02
   4.638194e+02  -3.372619e+01
   3.249093e+02   5.906060e+02
  -2.638495e+02   6.046959e+02
  -5.078775e+02  -1.707008e+01
  -2.332723e+02  -6.074325e+02
   2.089946e+02  -4.954899e+02
   4.588838e+02  -1.328599e+02
   3.889622e+02   2.880529e+02
   9.595643e+00   3.478154e+02
  -1.987699e+02   1.789223e+02
  -1.858287e+02   1.792136e+01
   1.351207e+02  -7.602991e+01
   3.293021e+02   1.072636e+02
   2.322004e+02   3.599334e+02
  -3.696057e+02   3.835786e+02
  -6.843160e+02   2.223857e+01
  -3.250481e+02  -4.844824e+02
   3.120471e+02  -4.561410e+02
   6.416618e+02   3.101225e+01
   3.307004e+02   4.237496e+02
  -2.468357e+02   4.743304e+02
  -5.313656e+02   1.287505e+02
  -4.095794e+02  -1.787126e+02
  -6.656938e+01  -4.102090e+02
   1.850702e+02  -2.010467e+02
   1.101544e+02   1.732585e+02
  -1.470616e+02   3.505762e+02
  -3.841854e+02  -5.368178e+01
  -1.891184e+02  -6.191467e+02
   2.666219e+02  -6.220231e+02
   5.169147e+02   4.066207e+01
   1.926698e+02   4.682372e+02
  -2.751786e+02   2.542071e+02
  -3.297269e+02  -2.560061e+02
   6.592528e+01  -4.447810e+02
   4.962785e+02  -1.222765e+02
   5.148159e+02   3.165733e+02
   1.449954e+02   5.207400e+02
  -3.313249e+02   2.739234e+02
  -5.102561e+02  -1.246125e+02
  -3.124800e+02  -3.216678e+02
   1.738716e+02  -3.064313e+02
   3.752055e+02  -4.655193e+01
   2.224121e+02   1.676510e+02
  -9.067743e+01   9.821561e+01
  -9.745600e+01  -1.364934e+02
   1.201859e+02  -1.644405e+02
   2.696823e+02   5.293554e+01
   5.908163e+01   2.535609e+02
  -1.605050e+02   2.004739e+02
  -2.933342e+02   7.048646e+01
  -1.673804e+02  -5.938630e+01
   7.529016e+00  -1.794129e+02
   1.780122e+02  -2.986618e+02
   2.967126e+02  -1.553827e+02
   2.439156e+02   9.300872e+01
   2.853317e+01   3.604767e+02
  -8.045015e+01   3.140225e+02
  -9.963877e+01   9.655184e+01
  -1.862729e+01  -1.504636e+01
  -3.699733e+01   9.322192e+01
  -1.439532e+02   1.038804e+02
  -2.536823e+02  -2.941741e+01
  -1.521854e+02  -2.318676e+02
   4.755495e+01  -2.379355e+02
   2.066715e+02  -1.416856e+01
   1.630430e+02   2.344857e+02
   3.544264e-01   2.481535e+02
  -2.268429e+02   1.005770e+02
  -2.958702e+02  -1.592255e+02
  -1.454999e+02  -2.964527e+02
   8.179395e+01  -2.695099e+02
   1.987923e+02  -1.129772e+02
   1.020299e+02  -9.094367e+00
   8.557311e+01  -2.797108e+01
   2.154045e+02  -4.478475e+01
   3.302560e+02   2.344862e+01
   2.793641e+02   2.425989e+02
   2.021914e+01   3.822936e+02
  -3.111618e+02   3.529360e+02
  -4.334419e+02   1.688590e+02
  -2.998423e+02  -5.697241e+01
  -5.551240e+01  -2.718848e+02
   1.034358e+02  -2.229673e+02
   6.116593e+01  -1.612833e+01
  -1.107306e+02   8.840627e+01
  -1.644298e+02  -3.032462e+01
  -4.339292e+01  -1.752429e+02
   1.475996e+02  -1.193340e+02
   1.409553e+02   4.238922e+01
  -9.283694e+00   1.743874e+02
  -1.571978e+02   2.314030e+01
  -1.438928e+02  -1.845498e+02
   1.503364e+01  -3.137621e+02
   1.879299e+02  -1.699014e+02
   2.760240e+02   6.430519e+01
   2.411851e+02   2.045637e+02
   7.655990e+01   2.059761e+02
  -1.004145e+02   1.335917e+02
  -1.636721e+02   1.994876e+01
  -4.812768e+01  -2.667424e+01
   5.664886e+01   2.818616e+01
   2.248358e+01   1.005649e+02
  -1.015203e+02   8.001866e+01
  -1.458117e+02   1.186949e+00
  -5.107067e+01  -6.249826e+01
   7.154130e+01  -1.792141e+01
   4.357574e+01   5.565204e+01
  -1.014182e+02   7.242234e+01
  -2.298851e+02   2.081131e+01
  -2.483562e+02  -1.115442e+02
  -6.931305e+01  -2.182940e+02
   1.568837e+02  -2.394096e+02
   2.509972e+02  -1.083095e+02
   1.319438e+02   3.774433e+01
  -1.951216e+01   9.726241e+01
  -7.964547e+01   6.520157e-01
   2.972312e+01  -8.580573e+01
   1.746360e+02  -5.414464e+01
   1.921721e+02   8.989797e+01
   5.610918e+01   1.857293e+02
  -8.419081e+01   1.367383e+02
  -1.209528e+02   3.263640e+01
  -6.392553e+01  -3.770028e+01
   2.538096e+01  -3.494463e+00
   4.036350e+01   7.610699e+01
  -5.452482e+01   9.992555e+01
  -1.638961e+02   4.643860e+01
  -1.665999e+02  -1.025394e+02
  -2.115223e+01  -1.947725e+02
   1.282008e+02  -1.469501e+02
   1.600074e+02  -1.690210e+00
   5.474836e+01   8.983640e+01
  -5.407446e+01   9.638756e+01
  -6.621386e+01   2.668921e+01
  -1.712267e+01  -2.470526e+01
   1.952510e+01  -1.790724e+01
  -5.115377e+00   3.951055e+00
  -5.716434e+01  -7.874870e+00
  -6.706019e+01  -6.135167e+01
  -1.678432e+01  -1.327273e+02
   1.073671e+02  -1.267201e+02
   2.067207e+02  -2.241845e+01
   1.689998e+02   1.298594e+02
   2.975457e+01   2.006586e+02
  -1.011893e+02   1.289956e+02
  -1.112446e+02   2.544683e+01
  -5.625357e+01  -4.884960e+01
  -2.522082e+01  -3.004733e+01
  -4.725503e+01   1.230515e+01
  -6.930291e+01   6.239939e+00
  -3.485857e+01  -3.556307e+01
   3.365226e+01  -8.199020e+01
   8.367093e+01  -4.431322e+01
   7.679263e+01   2.438108e+01
  -1.356037e+01   9.779080e+01
  -1.153645e+02   9.277389e+01
  -1.661526e+02  -4.460705e+01
  -9.868626e+01  -1.609304e+02
   7.920720e+01  -1.874472e+02
   2.258721e+02  -9.739431e+01
   2.160009e+02   5.642915e+01
   1.004808e+02   1.501384e+02
  -3.283422e+01   1.255103e+02
  -7.819038e+01   7.637658e+01
  -6.300693e+01   6.659645e+01
  -5.910042e+01   7.976708e+01
  -7.749450e+01   6.745705e+01
  -1.014224e+02  -9.134089e+00
  -9.449068e+01  -1.284142e+02
  -2.494679e+01  -1.881155e+02
   7.716738e+01  -1.470441e+02
   1.527201e+02  -1.697568e+01
   1.262298e+02   9.773253e+01
   2.055049e+01   1.345548e+02
  -5.324686e+01   8.068622e+01
  -5.119018e+01   3.926784e+00
  -5.378978e+00  -3.755625e+01
   7.434890e+00  -2.853249e+01
  -3.172020e+01  -1.295070e+01
  -6.482679e+01  -1.688997e+01
  -3.690152e+01  -3.140628e+01
   5.312575e+01  -3.273464e+01
   1.427700e+02  -1.063343e+01
   1.274940e+02   4.187460e+01
   1.877058e+01   8.139943e+01
  -9.728166e+01   6.057409e+01
  -1.196427e+02   1.537880e+01
  -4.049932e+01  -3.257916e+01
   5.184983e+01  -3.190561e+01
   6.173527e+01   1.115266e+01
   4.652374e+00   5.674798e+01
  -4.715071e+01   5.033317e+01
  -4.990387e+01  -2.188806e+00
  -3.850782e+01  -3.942884e+01
  -3.448921e+01  -3.578913e+01
  -5.261355e+01  -2.236946e+00
  -5.280850e+01  -2.039128e+00
  -3.408318e+01  -5.134590e+01
   3.321987e+01  -1.166295e+02
   9.886540e+01  -1.269558e+02
   1.376708e+02  -2.736292e+01
   1.179428e+02   6.959600e+01
   6.326119e+00   1.101742e+02
  -6.660578e+01   5.797738e+01
  -4.802122e+01  -1.187260e+01
   5.038143e+01  -1.449428e+01
   1.166872e+02   2.034830e+01
   6.552236e+01   8.761765e+01
  -6.201493e+01   9.490917e+01
  -1.629251e+02   4.410481e+01
  -1.338000e+02  -2.724755e+01
  -2.773435e+01  -7.528803e+01
   5.101588e+01  -6.104081e+01
   4.367865e+01  -7.460242e+00
  -3.347986e+01   2.324286e+01
  -7.449148e+01  -1.651176e+01
  -2.964920e+01  -1.009151e+02
   7.692269e+01  -1.422049e+02
   1.359898e+02  -5.121053e+01
   9.952698e+01   8.504724e+01
   9.551343e+00   1.663132e+02
  -7.190604e+01   1.171437e+02
  -8.628821e+01  -7.321581e+00
  -5.422485e+01  -1.056926e+02
   4.210367e+00  -9.143064e+01
   3.908223e+01  -1.876548e+01
   4.312257e+01   2.878074e+01
   2.518059e+01   7.582676e+00
   3.387812e+00  -1.776162e+01
   1.712864e+01   1.254511e+01
   4.812916e+01   7.085519e+01
   3.919975e+01   8.540471e+01
  -3.886658e+01   3.912883e+01
  -1.191086e+02  -2.726516e+01
  -1.074974e+02  -6.428136e+01
  -1.359549e+01  -4.073109e+01
   6.977970e+01  -2.230199e+01
   7.662700e+01  -2.046583e+00
   1.011218e+01   5.218625e+00
  -3.163857e+01   1.898636e+01
  -1.277324e+01   1.689796e+01
   1.829550e+01  -1.442379e+00
  -4.463047e+00  -7.339878e+00
  -6.672485e+01   6.151242e-01
  -7.747076e+01  -2.114299e+01
  -3.079053e+00  -6.513730e+01
   9.719385e+01  -9.481352e+01
   1.570209e+02  -5.487661e+01
   1.268859e+02   5.130017e+01
   1.232877e+01   1.371395e+02
  -6.953506e+01   1.294975e+02
  -9.033960e+01   5.101329e+01
  -7.004929e+01  -1.888178e+01
  -2.226654e+01  -2.911022e+01
   2.419549e+00  -6.354836e+00
  -7.976032e+00  -2.894972e+00
  -2.739315e+01  -3.990804e+01
  -1.848252e+01  -7.388902e+01
   2.255845e+01  -6.412099e+01
   6.855007e+01   1.531988e+01
   5.617218e+01   8.941156e+01
   3.937091e+00   9.352270e+01
  -6.619514e+01   2.300347e+01
  -9.217016e+01  -6.407465e+01
  -2.623915e+01  -8.560083e+01
   5.687961e+01  -5.026948e+01
   7.942617e+01   7.437163e+00
   3.426698e+01   3.994236e+01
  -2.634537e+01   4.202663e+01
  -2.417613e+01   2.095574e+01
   2.953651e+01   7.518452e-01
   5.849288e+01  -6.629243e+00
   1.297528e+01   2.086756e+01
  -6.377783e+01   5.941204e+01
  -9.153078e+01   5.387997e+01
  -5.337465e+01  -8.956770e+00
   9.715715e+00  -6.992835e+01
   4.370018e+01  -6.966201e+01
   3.084314e+01  -5.189788e+00
  -2.687029e+00   4.799597e+01
  -2.170855e+01   3.427707e+01
  -2.782870e+01  -1.662563e+01
  -2.726814e+01  -4.316179e+01
  -4.026776e-01  -2.702669e+01
   2.881545e+01   7.593065e+00
   3.180450e+01   1.775385e+01
   1.833919e+01  -1.046667e-01
  -9.791697e-01  -1.190188e+01
  -7.042713e+00   2.126291e+00
  -3.918370e+00   3.198688e+01
  -1.429100e+01   3.622935e+01
  -2.211839e+01   6.065398e+00
  -2.028254e+01  -3.447961e+01
   3.172634e+00  -5.209361e+01
   3.583397e+01  -1.609432e+01
   4.859014e+01   2.728929e+01
   1.512160e+01   5.230661e+01
  -4.188189e+01   3.246736e+01
  -7.476018e+01  -9.227944e+00
  -4.653292e+01  -3.538454e+01
   2.178998e+01  -3.623241e+01
   5.609648e+01  -2.236967e+01
   2.004116e+01  -6.049232e+00
  -3.544941e+01  -2.237096e+00
  -3.348331e+01  -1.136565e+01
   2.742311e+01  -2.850893e+01
   7.810046e+01  -1.987713e+01
