
 $NMID
 id='ANONYMOUS ', fmtdat='(2E16.6)'
 volume=1.0
 tramp=1.0
 $END
  -3.214701e+03   5.266718e+02
  -1.869708e+03  -1.701677e+03
   3.687011e+02  -2.014170e+03
   1.272093e+03  -5.573499e+02
   7.808574e+02   4.181648e+02
  -4.922128e+02   4.018707e+02
  -6.043416e+02  -3.035625e+02
  -5.972958e+01  -7.093597e+02
   4.968780e+02  -5.911099e+02
   7.075183e+02   6.714774e+01
   2.907483e+02   6.424413e+02
  -2.279258e+02   6.892408e+02
  -3.940111e+02   5.223505e+01
  -3.212579e+02  -5.113159e+02
   2.024149e+02  -5.084094e+02
   4.363134e+02   7.501274e+00
   2.113053e+02   5.331449e+02
  -1.757889e+02   4.458108e+02
  -4.120022e+02   1.035988e+02
  -3.381304e+02  -2.643737e+02
  -1.188598e+01  -2.853345e+02
   1.535243e+02  -1.621025e+02
   1.582795e+02  -7.670810e+00
  -1.153208e+02   5.561629e+01
  -2.859235e+02  -6.911480e+01
  -2.209004e+02  -3.183622e+02
   3.124321e+02  -3.522615e+02
   6.080428e+02  -1.298710e+01
   2.896028e+02   4.200823e+02
  -2.463938e+02   4.010144e+02
  -5.537777e+02  -6.371921e+00
  -2.841714e+02  -3.506714e+02
   1.892721e+02  -4.179284e+02
   4.344931e+02  -1.157028e+02
   3.649625e+02   1.401258e+02
   7.098489e+01   3.684952e+02
  -1.641893e+02   1.701015e+02
  -1.020134e+02  -1.681884e+02
   1.140279e+02  -3.041207e+02
   3.113100e+02   2.625790e+01
   1.451438e+02   5.144351e+02
  -2.174092e+02   5.561899e+02
  -4.617360e+02   6.263289e+00
  -1.967686e+02  -4.064906e+02
   2.302393e+02  -2.279724e+02
   2.762954e+02   1.868431e+02
  -3.273116e+01   4.032293e+02
  -4.007289e+02   1.158187e+02
  -4.393053e+02  -2.328554e+02
  -1.368160e+02  -4.371008e+02
   2.723728e+02  -2.581395e+02
   4.297029e+02   1.010995e+02
   2.602673e+02   2.923652e+02
  -1.416749e+02   2.507290e+02
  -3.126762e+02   4.033888e+01
  -2.014758e+02  -1.662402e+02
   8.561044e+01  -9.233179e+01
   8.963381e+01   1.182167e+02
  -1.229189e+02   1.374819e+02
  -2.260006e+02  -3.175875e+01
  -5.578146e+01  -1.956527e+02
   1.307942e+02  -1.758657e+02
   2.557249e+02  -5.898547e+01
   1.515713e+02   6.122178e+01
  -7.101173e+00   1.516192e+02
  -1.439342e+02   2.509833e+02
  -2.477895e+02   1.457619e+02
  -2.193015e+02  -7.447616e+01
  -2.849392e+01  -3.187811e+02
   6.131326e+01  -2.615893e+02
   8.155106e+01  -8.656314e+01
   7.321128e+00   2.574736e+01
   2.144580e+01  -7.834751e+01
   1.112474e+02  -9.554268e+01
   2.093724e+02   2.672825e+01
   1.435601e+02   2.010995e+02
  -2.960667e+01   2.043246e+02
  -1.652035e+02   2.443208e+01
  -1.389457e+02  -1.965836e+02
   2.233863e+00  -2.264830e+02
   1.892024e+02  -1.003432e+02
   2.589454e+02   1.463082e+02
   1.385617e+02   2.596375e+02
  -7.132845e+01   2.374345e+02
  -1.697316e+02   9.507305e+01
  -9.569035e+01   1.324700e+01
  -6.560318e+01   1.935121e+01
  -1.893571e+02   3.863578e+01
  -2.749246e+02  -1.683138e+01
  -2.390913e+02  -2.044475e+02
  -2.367214e+01  -3.238644e+02
   2.710724e+02  -3.050947e+02
   3.525509e+02  -1.337172e+02
   2.603525e+02   3.755500e+01
   6.715394e+01   2.348411e+02
  -8.471580e+01   1.824568e+02
  -5.699348e+01   2.357941e+01
   9.136522e+01  -7.801434e+01
   1.487180e+02   3.352324e+01
   3.364878e+01   1.529413e+02
  -1.273704e+02   1.074852e+02
  -1.172995e+02  -2.318063e+01
   2.532998e+00  -1.502904e+02
   1.346976e+02  -2.665895e+01
   1.264441e+02   1.643193e+02
  -1.073724e+01   2.693556e+02
  -1.638942e+02   1.497680e+02
  -2.378686e+02  -6.269365e+01
  -2.167719e+02  -1.663693e+02
  -7.377139e+01  -1.712110e+02
   8.404516e+01  -1.140134e+02
   1.456780e+02  -2.244290e+01
   4.240795e+01   2.339207e+01
  -5.197465e+01  -2.132468e+01
  -2.329352e+01  -8.432297e+01
   8.698157e+01  -7.230226e+01
   1.319491e+02  -4.163951e+00
   4.446025e+01   5.458409e+01
  -5.741541e+01   1.437553e+01
  -4.245676e+01  -4.309147e+01
   8.831888e+01  -6.118033e+01
   1.907533e+02  -1.276890e+01
   2.138831e+02   9.046998e+01
   6.912937e+01   1.890146e+02
  -1.332632e+02   1.980076e+02
  -2.065866e+02   9.302533e+01
  -1.192230e+02  -2.574899e+01
   1.463380e+01  -8.384060e+01
   6.666048e+01  -1.545951e+00
  -2.212170e+01   7.728663e+01
  -1.427918e+02   5.291588e+01
  -1.617299e+02  -7.629583e+01
  -5.316874e+01  -1.581973e+02
   6.920337e+01  -1.180464e+02
   1.042824e+02  -2.808548e+01
   5.278960e+01   2.666040e+01
  -1.977045e+01   6.260359e+00
  -3.383732e+01  -6.756208e+01
   4.467996e+01  -8.199727e+01
   1.447546e+02  -4.659278e+01
   1.377782e+02   8.570482e+01
   2.590566e+01   1.677143e+02
  -1.072644e+02   1.253057e+02
  -1.360120e+02   2.901479e+00
  -4.477816e+01  -8.168610e+01
   4.953323e+01  -8.373519e+01
   5.858300e+01  -2.584410e+01
   1.535385e+01   2.015938e+01
  -1.804162e+01   1.620531e+01
   3.983136e+00  -4.852990e+00
   4.563959e+01   9.415102e+00
   6.008443e+01   4.969606e+01
   1.408226e+01   1.194831e+02
  -8.532306e+01   1.075022e+02
  -1.785007e+02   1.265402e+01
  -1.425317e+02  -1.130491e+02
  -2.676741e+01  -1.717128e+02
   9.056327e+01  -1.098436e+02
   9.548389e+01  -2.219567e+01
   4.859283e+01   3.913242e+01
   2.227115e+01   2.626493e+01
   4.255664e+01  -1.062656e+01
   5.714611e+01  -5.893861e+00
   2.986523e+01   2.936370e+01
  -3.020617e+01   6.838191e+01
  -7.066329e+01   3.730122e+01
  -6.386393e+01  -2.199602e+01
   9.446282e+00  -8.076617e+01
   1.002236e+02  -8.659377e+01
   1.392295e+02   4.092318e+01
   7.989078e+01   1.283149e+02
  -6.837924e+01   1.635120e+02
  -1.954950e+02   8.379481e+01
  -1.838270e+02  -4.739193e+01
  -9.125557e+01  -1.286942e+02
   2.605639e+01  -1.092001e+02
   6.303260e+01  -6.645334e+01
   5.176264e+01  -5.672568e+01
   4.561576e+01  -6.996164e+01
   6.484097e+01  -5.846987e+01
   8.623708e+01   6.526894e+00
   8.440245e+01   1.094026e+02
   2.322457e+01   1.612984e+02
  -6.421262e+01   1.273232e+02
  -1.277238e+02   2.058792e+01
  -1.098505e+02  -8.497380e+01
  -1.909828e+01  -1.169006e+02
   4.493595e+01  -6.686316e+01
   4.352813e+01  -4.221517e+00
   3.527070e+00   3.186487e+01
  -4.815549e+00   2.638716e+01
   2.813805e+01   8.086635e+00
   5.351265e+01   1.355249e+01
   3.088031e+01   2.772083e+01
  -4.506505e+01   2.920859e+01
  -1.244489e+02   1.131906e+01
  -1.089753e+02  -3.199673e+01
  -1.246571e+01  -6.727561e+01
   8.604265e+01  -5.481537e+01
   9.949806e+01  -1.383672e+01
   3.506778e+01   2.673907e+01
  -4.412245e+01   2.662968e+01
  -5.039320e+01  -1.071936e+01
  -3.238268e+00  -4.791607e+01
   4.050010e+01  -4.175673e+01
   4.297344e+01   3.755782e+00
   3.327029e+01   3.122918e+01
   2.831950e+01   2.858624e+01
   4.461328e+01   6.748556e-01
   4.503736e+01   3.423561e+00
   2.730019e+01   4.359684e+01
  -2.688422e+01   9.647689e+01
  -7.940344e+01   1.092593e+02
  -1.179462e+02   2.339639e+01
  -1.009823e+02  -5.960718e+01
  -5.253576e+00  -9.394916e+01
   5.642706e+01  -4.853886e+01
   4.037152e+01   1.165225e+01
  -4.397148e+01   1.190209e+01
  -1.004421e+02  -1.557407e+01
  -5.685121e+01  -7.289467e+01
   5.087383e+01  -8.316573e+01
   1.385770e+02  -4.519140e+01
   1.119463e+02   2.447876e+01
   2.505887e+01   6.522445e+01
  -4.371917e+01   5.410039e+01
  -3.800177e+01   6.094867e+00
   2.626027e+01  -2.092121e+01
   6.029486e+01   1.416805e+01
   2.574040e+01   8.764049e+01
  -6.610789e+01   1.235010e+02
  -1.136554e+02   4.697765e+01
  -8.638076e+01  -7.568577e+01
  -1.076333e+01  -1.379233e+02
   6.300512e+01  -9.937120e+01
   7.434000e+01   4.399853e+00
   4.558166e+01   8.943752e+01
  -1.821294e+00   7.778589e+01
  -3.474944e+01   1.728432e+01
  -3.633444e+01  -2.448174e+01
  -2.131796e+01  -7.034910e+00
  -2.037366e+00   1.453628e+01
  -1.432165e+01  -9.930472e+00
  -4.147858e+01  -6.001014e+01
  -3.376032e+01  -6.979542e+01
   3.244232e+01  -3.083865e+01
   1.030464e+02   2.428976e+01
   9.377471e+01   5.277678e+01
   1.170908e+01   3.424762e+01
  -6.147287e+01   2.064887e+01
  -6.582238e+01   2.287484e+00
  -7.951129e+00  -4.548962e+00
   2.653940e+01  -1.648467e+01
   1.083722e+01  -1.471452e+01
  -1.688202e+01   1.476307e+00
   4.194585e+00   6.328622e+00
   5.779870e+01  -2.027382e+00
   6.666437e+01   1.637744e+01
   3.133488e+00   5.817096e+01
  -8.551778e+01   7.917347e+01
  -1.339466e+02   4.198531e+01
  -1.130715e+02  -4.759927e+01
  -1.116397e+01  -1.125549e+02
   5.857590e+01  -1.084107e+02
   7.276799e+01  -4.798663e+01
   6.147619e+01   1.415179e+01
   1.918715e+01   2.491660e+01
  -1.889698e+00   4.898972e+00
   6.969930e+00   2.750076e+00
   2.225490e+01   3.404747e+01
   1.709682e+01   6.381284e+01
  -2.046539e+01   5.628839e+01
  -5.711129e+01  -1.281268e+01
  -4.666112e+01  -7.490656e+01
  -3.942357e+00  -7.852795e+01
   5.595617e+01  -1.907301e+01
   7.949227e+01   5.478327e+01
   2.339223e+01   7.257037e+01
  -4.838191e+01   4.622074e+01
  -7.063707e+01  -7.307291e+00
  -2.831448e+01  -3.394300e+01
   2.226872e+01  -3.418988e+01
   2.134533e+01  -1.941190e+01
  -2.473874e+01   7.092884e-01
  -4.978423e+01   6.471336e+00
  -1.145245e+01  -1.665603e+01
   5.658778e+01  -4.958583e+01
   7.521925e+01  -4.911208e+01
   4.593034e+01   5.303666e+00
  -7.718519e+00   6.168452e+01
  -3.692691e+01   6.226151e+01
  -2.615483e+01   4.445299e+00
   6.126202e-01  -4.040600e+01
   1.790001e+01  -2.858854e+01
   2.490195e+01   1.387907e+01
   2.290734e+01   3.726089e+01
   1.091058e-01   2.461041e+01
  -2.597988e+01  -6.634836e+00
  -2.728483e+01  -1.542061e+01
  -1.597864e+01   2.116614e-01
   5.805700e-01   9.107709e+00
   4.180038e+00  -2.791426e+00
   4.862906e+00  -2.702649e+01
   1.317088e+01  -2.892016e+01
   2.039172e+01  -6.380555e+00
   1.849519e+01   2.956683e+01
  -3.784364e+00   4.418671e+01
  -3.105144e+01   1.489362e+01
  -4.211660e+01  -2.344123e+01
  -1.278873e+01  -4.500676e+01
   3.509266e+01  -2.859516e+01
   6.727427e+01   9.138854e+00
   3.878732e+01   2.874301e+01
  -2.028495e+01   3.094857e+01
  -5.038529e+01   2.050354e+01
  -1.643995e+01   5.509207e+00
   2.936892e+01   1.146990e+00
   2.796329e+01   9.526648e+00
  -2.603509e+01   2.593833e+01
  -6.877748e+01   1.905380e+01
