
 $NMID
 id='ANONYMOUS ', fmtdat='(2E16.6)'
 volume=1.0
 tramp=1.0
 $END
   3.145228e+03  -2.274740e+02
   1.751389e+03   1.670801e+03
  -4.987853e+02   2.109006e+03
  -1.260931e+03   5.656779e+02
  -7.269232e+02  -4.567715e+02
   3.850193e+02  -3.772732e+02
   5.654452e+02   2.727576e+02
  -2.552064e+01   7.789456e+02
  -4.246780e+02   5.383886e+02
  -6.381748e+02  -9.156669e+01
  -2.696800e+02  -6.005652e+02
   1.696360e+02  -6.433464e+02
   3.881085e+02  -9.816498e+01
   3.490484e+02   5.082723e+02
  -2.008501e+02   4.547455e+02
  -4.178723e+02  -1.800412e+01
  -1.845639e+02  -5.009016e+02
   1.810091e+02  -3.932528e+02
   3.486740e+02  -8.505554e+01
   3.411469e+02   2.554142e+02
   2.940985e+01   2.677214e+02
  -1.508907e+02   1.365817e+02
  -1.348371e+02   1.055302e+01
   9.122771e+01  -5.721335e+01
   2.757969e+02   4.281315e+01
   1.679582e+02   2.979248e+02
  -2.762301e+02   3.321953e+02
  -5.686477e+02   4.667526e+00
  -2.527048e+02  -3.497735e+02
   2.112363e+02  -3.777648e+02
   4.920273e+02  -1.024549e+01
   2.914506e+02   3.029907e+02
  -1.600238e+02   4.005834e+02
  -3.885532e+02   1.204398e+02
  -3.289358e+02  -1.238256e+02
  -8.424135e+01  -3.313099e+02
   1.472889e+02  -1.608308e+02
   8.990690e+01   1.532915e+02
  -1.005197e+02   3.043716e+02
  -2.773336e+02  -1.990723e+01
  -1.294878e+02  -4.705780e+02
   2.210022e+02  -4.961761e+02
   4.065814e+02  -4.942135e+01
   1.970912e+02   3.800907e+02
  -1.951646e+02   2.232700e+02
  -2.438223e+02  -1.837372e+02
   1.952519e+01  -3.487345e+02
   3.593241e+02  -1.201345e+02
   3.740774e+02   1.937635e+02
   1.333403e+02   4.243616e+02
  -2.323062e+02   2.433991e+02
  -4.078196e+02  -7.421552e+01
  -2.296198e+02  -2.703730e+02
   1.113480e+02  -2.253217e+02
   2.874180e+02  -6.173137e+01
   1.845140e+02   1.519337e+02
  -7.711167e+01   1.001856e+02
  -8.810822e+01  -1.084659e+02
   1.321938e+02  -1.396658e+02
   2.108739e+02   2.839912e+01
   6.699978e+01   1.765951e+02
  -1.333667e+02   1.625450e+02
  -2.501235e+02   5.366652e+01
  -1.326332e+02  -5.908798e+01
  -4.031772e+00  -1.573615e+02
   1.335927e+02  -2.411627e+02
   2.267971e+02  -1.353765e+02
   1.920439e+02   6.184058e+01
   4.070362e+01   2.969195e+02
  -4.398106e+01   2.504174e+02
  -9.436027e+01   8.804651e+01
  -2.274005e+01  -1.680805e+01
  -3.025574e+01   8.194733e+01
  -1.081887e+02   9.035456e+01
  -1.883461e+02  -1.657581e+01
  -1.240648e+02  -1.852747e+02
   2.070803e+01  -1.966286e+02
   1.528663e+02  -1.826987e+01
   1.261288e+02   1.722036e+02
  -4.694355e+00   2.152353e+02
  -1.745810e+02   1.010629e+02
  -2.416448e+02  -1.318173e+02
  -1.303010e+02  -2.369128e+02
   6.810418e+01  -2.306461e+02
   1.511896e+02  -9.145372e+01
   9.255992e+01   1.243770e+00
   5.906600e+01  -2.195831e+01
   1.649996e+02  -4.110587e+01
   2.651105e+02   1.174857e+01
   2.182593e+02   1.700652e+02
   3.370375e+01   2.940122e+02
  -2.536304e+02   2.937564e+02
  -3.276301e+02   1.123055e+02
  -2.445538e+02  -4.038465e+01
  -5.474059e+01  -2.231068e+02
   8.075999e+01  -1.819766e+02
   6.033404e+01  -2.173223e+01
  -8.369483e+01   7.298039e+01
  -1.388784e+02  -1.821119e+01
  -3.547205e+01  -1.343590e+02
   1.185311e+02  -1.015920e+02
   1.179044e+02   2.886792e+01
  -4.407246e+00   1.430017e+02
  -1.310203e+02   2.632575e+01
  -1.197394e+02  -1.623225e+02
   6.138865e+00  -2.560914e+02
   1.504327e+02  -1.315181e+02
   2.141263e+02   5.503079e+01
   1.958041e+02   1.641525e+02
   7.396285e+01   1.542758e+02
  -7.799711e+01   1.072591e+02
  -1.334773e+02   2.093991e+01
  -3.788448e+01  -2.123315e+01
   5.247214e+01   1.993869e+01
   1.998416e+01   7.214951e+01
  -8.645186e+01   6.754682e+01
  -1.221603e+02  -8.145069e-01
  -4.520369e+01  -4.946146e+01
   4.986010e+01  -1.563204e+01
   4.491360e+01   3.662846e+01
  -7.882186e+01   6.010055e+01
  -1.809391e+02   1.920058e+01
  -1.964285e+02  -8.480983e+01
  -6.428848e+01  -1.704555e+02
   1.256219e+02  -1.838996e+02
   1.924846e+02  -9.133548e+01
   1.124742e+02   2.447982e+01
  -1.347759e+01   7.961347e+01
  -6.124034e+01   3.490079e+00
   1.891133e+01  -7.299625e+01
   1.270487e+02  -4.879080e+01
   1.530037e+02   7.600993e+01
   4.453725e+01   1.449365e+02
  -6.483798e+01   1.116645e+02
  -9.604317e+01   2.417426e+01
  -4.671152e+01  -2.148643e+01
   1.940347e+01  -3.613505e+00
   2.704885e+01   6.411907e+01
  -4.288443e+01   7.768766e+01
  -1.373417e+02   4.018397e+01
  -1.301178e+02  -7.683349e+01
  -2.465603e+01  -1.615799e+02
   1.013346e+02  -1.149274e+02
   1.290178e+02  -7.396938e+00
   4.651797e+01   7.286024e+01
  -4.469391e+01   7.946432e+01
  -5.545947e+01   2.374623e+01
  -1.623818e+01  -1.606393e+01
   1.628873e+01  -1.652807e+01
  -7.167550e+00   6.294339e+00
  -4.441656e+01  -7.848022e+00
  -5.828885e+01  -4.270078e+01
  -9.531558e+00  -1.096199e+02
   7.995687e+01  -9.656726e+01
   1.716024e+02  -1.589472e+01
   1.352318e+02   1.000298e+02
   2.492382e+01   1.621844e+02
  -7.897777e+01   1.055115e+02
  -9.053481e+01   1.667802e+01
  -4.615571e+01  -3.423482e+01
  -1.992845e+01  -2.390900e+01
  -3.997488e+01   7.772116e+00
  -5.199061e+01   6.110140e+00
  -2.746043e+01  -2.939471e+01
   2.848710e+01  -6.226086e+01
   6.556479e+01  -3.943931e+01
   5.727158e+01   1.848337e+01
  -6.724172e+00   6.894560e+01
  -9.828387e+01   7.215232e+01
  -1.270462e+02  -3.342436e+01
  -6.896108e+01  -1.257743e+02
   6.092495e+01  -1.554654e+02
   1.843468e+02  -7.364523e+01
   1.728728e+02   4.683975e+01
   8.017264e+01   1.171695e+02
  -2.515634e+01   9.692177e+01
  -5.698610e+01   6.273318e+01
  -5.096746e+01   5.260709e+01
  -4.222330e+01   6.835597e+01
  -6.226393e+01   5.337440e+01
  -8.393033e+01  -4.472251e+00
  -8.084971e+01  -1.048535e+02
  -1.498908e+01  -1.469617e+02
   5.859030e+01  -1.206918e+02
   1.167852e+02  -1.993841e+01
   1.043506e+02   8.148702e+01
   1.751149e+01   1.092917e+02
  -3.921852e+01   5.878943e+01
  -3.913777e+01   1.552139e+00
  -3.492024e+00  -2.817896e+01
   7.066861e+00  -2.416218e+01
  -2.658642e+01  -8.216440e+00
  -5.001490e+01  -1.190468e+01
  -2.727694e+01  -2.561436e+01
   4.097598e+01  -2.550403e+01
   1.174323e+02  -9.801820e+00
   1.028870e+02   2.986092e+01
   1.235342e+01   6.447794e+01
  -7.848291e+01   5.356842e+01
  -9.484714e+01   1.416479e+01
  -3.250239e+01  -2.660950e+01
   3.836838e+01  -2.743710e+01
   4.891962e+01   9.562477e+00
   3.779261e+00   4.529250e+01
  -3.631042e+01   4.029642e+01
  -3.991903e+01  -4.137029e+00
  -3.221782e+01  -2.961349e+01
  -2.625838e+01  -2.474405e+01
  -4.002729e+01   6.240081e-01
  -4.238004e+01  -1.996324e+00
  -2.655396e+01  -4.163212e+01
   2.900908e+01  -8.881104e+01
   7.165092e+01  -1.054408e+02
   1.131829e+02  -2.083720e+01
   9.537459e+01   5.602839e+01
   3.248698e+00   8.381638e+01
  -5.482083e+01   4.452688e+01
  -3.933107e+01  -1.158734e+01
   4.050679e+01  -1.068986e+01
   9.319542e+01   2.217587e+01
   5.393001e+01   6.654184e+01
  -4.758828e+01   7.715434e+01
  -1.270057e+02   3.876784e+01
  -1.066915e+02  -2.345000e+01
  -2.219461e+01  -6.103689e+01
   4.168246e+01  -5.174928e+01
   3.616107e+01  -5.478893e+00
  -2.507559e+01   1.944717e+01
  -5.600598e+01  -1.251368e+01
  -2.345101e+01  -8.300243e+01
   6.282417e+01  -1.138397e+02
   1.068985e+02  -4.394250e+01
   8.862168e+01   7.030056e+01
   1.275352e+01   1.348996e+02
  -5.769295e+01   9.371542e+01
  -6.831264e+01  -3.849263e+00
  -4.336114e+01  -8.307717e+01
   6.543754e-02  -7.014129e+01
   3.248394e+01  -1.557913e+01
   3.392813e+01   2.308966e+01
   1.936235e+01   4.389084e+00
   2.022072e+00  -1.380750e+01
   1.206538e+01   1.048728e+01
   3.888018e+01   5.750777e+01
   3.201210e+01   6.521829e+01
  -2.852060e+01   3.012757e+01
  -9.473528e+01  -2.313214e+01
  -9.105856e+01  -4.662114e+01
  -1.148007e+01  -3.258835e+01
   5.952882e+01  -1.708324e+01
   6.037080e+01  -2.726034e+00
   7.681055e+00   3.955206e+00
  -2.436332e+01   1.583561e+01
  -9.560393e+00   1.290515e+01
   1.581153e+01  -2.355792e+00
  -4.543983e+00  -5.840118e+00
  -5.392974e+01   6.735286e-01
  -6.157099e+01  -1.680975e+01
  -3.212103e+00  -5.574387e+01
   7.862652e+01  -7.495534e+01
   1.247535e+02  -3.796617e+01
   1.058941e+02   4.848230e+01
   1.247494e+01   1.082276e+02
  -5.347334e+01   1.009846e+02
  -6.706369e+01   4.372745e+01
  -5.735775e+01  -1.186343e+01
  -1.826940e+01  -2.271446e+01
   1.503264e+00  -5.360202e+00
  -6.121551e+00  -2.555987e+00
  -2.130449e+01  -3.047450e+01
  -1.309809e+01  -5.916032e+01
   2.004260e+01  -5.252947e+01
   5.248895e+01   1.068142e+01
   4.716876e+01   7.040441e+01
   2.430090e+00   7.577959e+01
  -5.294921e+01   1.877007e+01
  -7.361586e+01  -5.469984e+01
  -2.235098e+01  -6.524029e+01
   4.613063e+01  -4.252006e+01
   6.535975e+01   6.243911e+00
   2.521312e+01   3.216603e+01
  -2.052885e+01   3.112461e+01
  -1.804943e+01   1.793273e+01
   2.428397e+01  -2.588024e+00
   4.545836e+01  -6.516565e+00
   1.005349e+01   1.609812e+01
  -5.439958e+01   4.782581e+01
  -7.233080e+01   4.325293e+01
  -4.359860e+01  -4.185860e+00
   9.474344e+00  -5.953278e+01
   3.602951e+01  -5.906792e+01
   2.538217e+01  -3.902808e+00
  -1.158184e+00   3.645014e+01
  -1.671673e+01   2.755686e+01
  -2.349157e+01  -1.246209e+01
  -2.086482e+01  -3.692836e+01
   4.507182e-01  -2.267866e+01
   2.538921e+01   6.706159e+00
   2.738926e+01   1.342275e+01
   1.363415e+01   3.482220e-01
  -1.058031e+00  -7.635918e+00
  -4.326142e+00   4.969655e+00
  -4.004423e+00   2.380841e+01
  -1.263992e+01   2.647239e+01
  -1.960544e+01   6.702461e+00
  -1.844506e+01  -2.637830e+01
   5.480166e+00  -4.071301e+01
   2.979971e+01  -1.303722e+01
   3.858035e+01   2.125791e+01
   1.184086e+01   4.262234e+01
  -3.119162e+01   2.508335e+01
  -6.050767e+01  -9.567756e+00
  -3.735727e+01  -2.578609e+01
   1.883620e+01  -2.653933e+01
   4.611952e+01  -1.464839e+01
   1.511542e+01  -4.959876e+00
  -2.794664e+01  -3.799957e-01
  -2.708214e+01  -9.408934e+00
   2.350133e+01  -2.475137e+01
   6.766978e+01  -1.767017e+01
