
 $NMID
 id='ANONYMOUS ', fmtdat='(2E16.6)'
 volume=1.0
 tramp=1.0
 $END
  -3.952183e+03  -1.914369e+02
  -1.937144e+03  -2.409118e+03
   9.437646e+02  -2.546692e+03
   1.729650e+03  -7.981923e+02
   8.702038e+02   8.103363e+02
  -7.165940e+02   6.330967e+02
  -7.519377e+02  -3.017844e+02
   7.308739e+01  -1.000002e+03
   7.567587e+02  -7.544277e+02
   8.647775e+02   1.413983e+02
   4.155145e+02   7.015970e+02
  -2.207477e+02   8.819453e+02
  -5.645501e+02   7.860821e+01
  -3.903989e+02  -7.541912e+02
   2.385710e+02  -6.656855e+02
   6.192466e+02   4.803197e+01
   2.980137e+02   6.291189e+02
  -3.137152e+02   5.680603e+02
  -5.805636e+02   4.147533e+01
  -3.234030e+02  -3.707396e+02
  -9.006106e+00  -4.052764e+02
   2.095618e+02  -2.102009e+02
   2.022694e+02  -1.551800e+01
  -1.225469e+02   7.669292e+01
  -4.198876e+02  -9.900587e+01
  -2.348638e+02  -3.995777e+02
   3.869613e+02  -3.921957e+02
   8.636999e+02   2.120551e+01
   4.062927e+02   5.026218e+02
  -3.795241e+02   4.587563e+02
  -7.252132e+02  -1.620530e+01
  -3.646334e+02  -5.076163e+02
   2.445496e+02  -5.377156e+02
   4.981012e+02  -2.072282e+02
   3.976737e+02   2.237076e+02
   8.553912e+01   4.903143e+02
  -1.820542e+02   2.867073e+02
  -1.591165e+02  -2.122173e+02
   1.898245e+02  -4.425950e+02
   4.362336e+02   1.683877e+01
   2.663847e+02   6.588463e+02
  -3.553426e+02   6.286432e+02
  -6.798685e+02   3.234268e+01
  -3.221111e+02  -4.781989e+02
   2.643328e+02  -3.096499e+02
   3.930158e+02   3.167097e+02
  -5.548781e+01   4.849256e+02
  -4.794203e+02   1.170686e+02
  -5.804968e+02  -3.893137e+02
  -1.215798e+02  -5.489749e+02
   3.287767e+02  -3.273799e+02
   5.981081e+02   8.570690e+01
   3.334510e+02   3.866587e+02
  -1.231416e+02   3.400868e+02
  -4.030778e+02   3.888596e+01
  -2.393708e+02  -2.332391e+02
   1.381159e+02  -1.054159e+02
   1.504963e+02   1.478562e+02
  -1.713531e+02   1.683922e+02
  -3.142358e+02  -6.877828e+01
  -1.205966e+02  -2.573627e+02
   1.834273e+02  -2.282218e+02
   3.062431e+02  -7.388087e+01
   1.637670e+02   7.645138e+01
  -2.002034e+01   2.237253e+02
  -2.145853e+02   2.893875e+02
  -2.827745e+02   2.328055e+02
  -2.752160e+02  -1.159088e+02
  -5.195834e+01  -3.981954e+02
   1.219159e+02  -3.423334e+02
   1.222796e+02  -8.611554e+01
   9.976795e+00   4.573466e+01
   4.727846e+01  -8.031480e+01
   1.817459e+02  -1.412289e+02
   2.453210e+02   2.393403e+01
   1.539220e+02   2.539936e+02
  -7.075308e+01   2.770613e+02
  -2.118023e+02   1.204925e+01
  -2.029392e+02  -2.163777e+02
  -2.143397e+00  -2.694167e+02
   2.652549e+02  -9.673995e+01
   3.026356e+02   1.357232e+02
   1.787847e+02   3.331876e+02
  -8.943819e+01   2.888098e+02
  -2.007718e+02   1.215012e+02
  -1.398786e+02  -3.337758e+00
  -8.241188e+01   3.831046e+01
  -2.045892e+02   6.668744e+01
  -3.738968e+02  -3.083774e+01
  -3.141645e+02  -2.372855e+02
  -2.448321e+01  -4.284407e+02
   3.160604e+02  -3.586072e+02
   4.480833e+02  -1.677520e+02
   3.021787e+02   8.062735e+01
   5.856638e+01   2.728935e+02
  -1.174297e+02   2.340930e+02
  -7.549487e+01   2.855452e+01
   1.053522e+02  -1.091081e+02
   1.874320e+02   1.888518e+01
   5.193209e+01   1.842363e+02
  -1.285477e+02   1.645687e+02
  -1.619383e+02  -6.683206e+01
   1.571195e+01  -1.869826e+02
   1.873829e+02  -2.151712e+01
   1.536369e+02   2.338461e+02
  -1.251142e+01   3.062691e+02
  -2.037361e+02   1.846230e+02
  -2.992145e+02  -6.112907e+01
  -2.508401e+02  -1.903481e+02
  -8.191318e+01  -2.616960e+02
   1.036585e+02  -1.540267e+02
   1.590379e+02  -2.171826e+01
   5.515463e+01   3.258803e+01
  -6.979136e+01  -3.372785e+01
  -3.137818e+01  -1.106995e+02
   1.139498e+02  -8.876349e+01
   1.688720e+02   1.011355e+01
   6.350862e+01   7.491553e+01
  -6.657067e+01   2.618817e+01
  -6.375747e+01  -6.295705e+01
   9.748465e+01  -8.581279e+01
   2.512327e+02   6.103086e-01
   2.524661e+02   1.307988e+02
   8.082229e+01   2.270377e+02
  -1.658800e+02   2.295489e+02
  -2.549715e+02   1.094402e+02
  -1.564078e+02  -5.066337e+01
   2.090097e+01  -1.102996e+02
   8.049586e+01  -1.282358e+01
  -3.313876e+01   9.399421e+01
  -1.830031e+02   6.200863e+01
  -1.842814e+02  -8.986689e+01
  -7.025451e+01  -1.931377e+02
   8.687753e+01  -1.420543e+02
   1.290419e+02  -2.748692e+01
   6.715087e+01   3.899550e+01
  -2.606488e+01   7.775659e+00
  -3.166204e+01  -6.982546e+01
   5.983964e+01  -9.660565e+01
   1.807502e+02  -1.903783e+01
   1.876418e+02   1.162546e+02
   3.119217e+01   1.870316e+02
  -1.418055e+02   1.546954e+02
  -1.661302e+02   1.007626e+01
  -5.028649e+01  -1.046944e+02
   5.837364e+01  -1.003949e+02
   7.644920e+01  -3.345939e+01
   2.492581e+01   2.464534e+01
  -1.947721e+01   1.899389e+01
   1.101020e+01  -4.976056e+00
   6.401477e+01   9.265379e+00
   8.048658e+01   7.328615e+01
   7.809545e+00   1.357098e+02
  -9.761681e+01   1.298099e+02
  -1.987188e+02   1.780008e+01
  -1.988299e+02  -1.317952e+02
  -4.060632e+01  -2.194600e+02
   8.772762e+01  -1.555451e+02
   1.222409e+02  -1.379076e+01
   6.659711e+01   4.723394e+01
   2.601155e+01   3.402580e+01
   4.534584e+01  -1.098160e+01
   7.177938e+01  -9.837881e+00
   3.578933e+01   4.194706e+01
  -3.154808e+01   7.449112e+01
  -8.280898e+01   4.336171e+01
  -7.329224e+01  -3.696372e+01
   7.160624e+00  -1.019070e+02
   1.209737e+02  -7.410165e+01
   1.716366e+02   3.743451e+01
   9.756669e+01   1.784460e+02
  -8.785116e+01   1.976861e+02
  -2.544321e+02   8.507725e+01
  -2.479057e+02  -6.334291e+01
  -1.158363e+02  -1.563858e+02
   2.549002e+01  -1.336566e+02
   8.688027e+01  -7.824331e+01
   7.654506e+01  -6.676141e+01
   6.290773e+01  -7.755568e+01
   8.337918e+01  -6.440979e+01
   1.277578e+02   1.693925e+01
   1.175154e+02   1.420808e+02
   3.048920e+01   2.182468e+02
  -8.942230e+01   1.523880e+02
  -1.606135e+02   1.213472e+01
  -1.143257e+02  -1.136754e+02
  -1.477832e+01  -1.536905e+02
   6.020613e+01  -7.995562e+01
   5.498673e+01  -9.497764e+00
   1.085917e+01   3.412946e+01
  -2.999998e+00   2.821748e+01
   3.468374e+01   1.994635e+01
   7.400936e+01   1.792281e+01
   3.678050e+01   3.137116e+01
  -5.205274e+01   3.764122e+01
  -1.336072e+02   1.650235e+00
  -1.316085e+02  -3.231673e+01
  -1.785540e+01  -7.818071e+01
   1.142897e+02  -6.516082e+01
   1.323412e+02  -8.471302e+00
   4.865133e+01   3.138048e+01
  -5.409864e+01   3.763396e+01
  -6.672873e+01  -1.545080e+01
  -6.714690e+00  -5.670870e+01
   5.266704e+01  -4.938938e+01
   5.653370e+01   3.018159e+00
   3.839341e+01   4.435890e+01
   4.066012e+01   3.521255e+01
   5.786247e+01  -2.202912e+00
   5.780730e+01   2.256192e+00
   2.556770e+01   6.467418e+01
  -2.297378e+01   1.400973e+02
  -1.058088e+02   1.281764e+02
  -1.425509e+02   3.150674e+01
  -1.096009e+02  -8.391173e+01
  -1.304781e+01  -1.104588e+02
   7.382414e+01  -4.892672e+01
   5.324606e+01   1.069445e+01
  -5.403465e+01   1.994840e+01
  -1.256514e+02  -4.471916e+01
  -7.531909e+01  -9.451739e+01
   6.933149e+01  -1.008890e+02
   1.794977e+02  -4.404401e+01
   1.476743e+02   3.522207e+01
   3.213356e+01   7.855292e+01
  -5.543411e+01   6.112087e+01
  -4.573064e+01   4.727584e+00
   3.339617e+01  -2.487986e+01
   7.874988e+01   2.438596e+01
   2.887714e+01   1.024291e+02
  -8.094634e+01   1.372102e+02
  -1.458706e+02   5.498425e+01
  -1.121517e+02  -9.903461e+01
  -3.660470e+00  -1.717917e+02
   6.896912e+01  -1.358217e+02
   9.135745e+01   1.023308e+00
   5.107656e+01   9.866866e+01
   8.004623e+00   1.043961e+02
  -3.991555e+01   1.771570e+01
  -5.141675e+01  -2.479818e+01
  -2.409745e+01  -7.521332e+00
  -3.521504e+00   1.828979e+01
  -1.602141e+01  -1.193618e+01
  -5.010007e+01  -8.145373e+01
  -3.382559e+01  -1.041418e+02
   4.225550e+01  -3.953512e+01
   1.282883e+02   3.298783e+01
   1.181008e+02   5.804484e+01
   1.648220e+01   4.049777e+01
  -8.162319e+01   1.049384e+01
  -7.852763e+01   7.234635e+00
  -9.979769e+00  -4.846142e+00
   3.673308e+01  -2.074155e+01
   9.858541e+00  -1.860354e+01
  -2.110401e+01   3.062658e-01
   5.181200e+00   8.848984e+00
   6.672703e+01   2.416897e+00
   8.227172e+01   1.521336e+01
   5.398595e+00   7.336247e+01
  -1.063894e+02   1.022533e+02
  -1.542437e+02   4.862444e+01
  -1.246119e+02  -6.535010e+01
  -3.564276e+01  -1.377166e+02
   7.455498e+01  -1.419493e+02
   1.006192e+02  -5.883166e+01
   7.048223e+01   2.208162e+01
   2.050339e+01   3.265651e+01
  -5.256596e+00   7.587833e+00
   7.811310e+00   3.130460e+00
   3.242083e+01   4.212272e+01
   2.468376e+01   8.360721e+01
  -2.768441e+01   6.168893e+01
  -7.551557e+01  -1.446173e+01
  -7.437885e+01  -9.612701e+01
  -1.982632e+00  -9.902117e+01
   7.463163e+01  -2.281323e+01
   8.663142e+01   6.767136e+01
   3.047811e+01   8.526678e+01
  -5.764608e+01   5.044986e+01
  -8.358449e+01  -1.319856e+01
  -3.709050e+01  -4.236426e+01
   3.156404e+01  -4.687964e+01
   2.509294e+01  -2.617818e+01
  -3.251534e+01  -1.723402e+00
  -6.044523e+01   3.946540e+00
  -1.515562e+01  -2.266161e+01
   7.250539e+01  -5.893855e+01
   1.040738e+02  -5.960777e+01
   5.478223e+01   6.186410e+00
  -1.672070e+01   7.628139e+01
  -4.506357e+01   7.391540e+01
  -2.769395e+01   3.211415e+00
  -1.127223e+00  -5.263103e+01
   1.855388e+01  -3.949803e+01
   3.258323e+01   1.780615e+01
   2.144601e+01   5.108776e+01
  -4.014558e+00   2.764445e+01
  -2.778303e+01  -8.054700e+00
  -3.557356e+01  -1.717480e+01
  -1.738177e+01  -4.915345e-01
   2.472148e-01   1.264146e+01
   7.823399e+00  -3.750380e+00
   7.834034e+00  -3.350352e+01
   1.538828e+01  -3.883280e+01
   2.767782e+01  -2.947854e+00
   2.423226e+01   3.908838e+01
  -2.075021e+00   5.313581e+01
  -4.418984e+01   1.448907e+01
  -5.258528e+01  -3.231274e+01
  -9.860331e+00  -5.338580e+01
   4.793807e+01  -2.907750e+01
   7.855355e+01   1.119768e+01
   4.396560e+01   3.721663e+01
  -2.468259e+01   3.786115e+01
  -5.372228e+01   1.878473e+01
  -2.013251e+01   4.586572e+00
   3.760206e+01   3.351744e+00
   3.622346e+01   1.812517e+01
  -3.062304e+01   3.335551e+01
  -8.861901e+01   1.167363e+01
