
 $NMID
 id='ANONYMOUS ', fmtdat='(2E16.6)'
 volume=1.0
 tramp=1.0
 $END
  -4.452148e+03  -2.033012e+02
  -2.408442e+03  -2.701919e+03
   7.535244e+02  -2.930608e+03
   2.234675e+03  -1.001706e+03
   8.053927e+02   8.573744e+02
  -7.405633e+02   7.440167e+02
  -9.225103e+02  -4.688168e+02
   7.101978e+01  -1.175939e+03
   8.981910e+02  -7.369227e+02
   1.038515e+03   2.302122e+02
   3.591160e+02   8.667891e+02
  -3.324661e+02   9.694080e+02
  -6.841867e+02   9.421854e+01
  -4.066614e+02  -8.030355e+02
   3.212043e+02  -7.805984e+02
   7.347781e+02   8.055848e+01
   2.431555e+02   7.485069e+02
  -3.586717e+02   6.324935e+02
  -6.258821e+02   3.198513e+01
  -3.822384e+02  -4.190570e+02
  -2.996784e+01  -4.447757e+02
   2.138309e+02  -2.631751e+02
   2.323100e+02  -1.317683e+01
  -1.169305e+02   1.100337e+02
  -4.559828e+02  -8.572802e+01
  -2.321296e+02  -4.437876e+02
   4.538931e+02  -3.658517e+02
   8.974550e+02   9.458674e+01
   4.521555e+02   5.688286e+02
  -4.140445e+02   5.601156e+02
  -7.254021e+02  -6.801901e+01
  -3.204304e+02  -5.278488e+02
   2.843403e+02  -5.196416e+02
   5.719614e+02  -1.832233e+02
   4.444858e+02   2.667538e+02
   6.673182e+01   4.874781e+02
  -2.217034e+02   3.037714e+02
  -2.044796e+02  -2.447161e+02
   1.634978e+02  -4.791265e+02
   4.542109e+02   5.961303e+01
   2.100443e+02   7.078127e+02
  -4.053956e+02   7.179958e+02
  -6.861274e+02  -2.524199e+00
  -2.743122e+02  -5.817256e+02
   3.538990e+02  -3.391872e+02
   3.852022e+02   3.716665e+02
  -6.125536e+01   5.657712e+02
  -5.501878e+02   1.282058e+02
  -6.335319e+02  -4.479267e+02
  -1.389755e+02  -5.721073e+02
   4.086347e+02  -3.164168e+02
   6.835496e+02   1.083863e+02
   3.975459e+02   4.588651e+02
  -1.727834e+02   3.515338e+02
  -4.632326e+02   2.930125e+01
  -2.466439e+02  -2.610212e+02
   1.592540e+02  -1.203890e+02
   1.923451e+02   1.828772e+02
  -1.674965e+02   2.124136e+02
  -3.734856e+02  -9.731180e+01
  -1.390762e+02  -2.984285e+02
   2.019153e+02  -2.666472e+02
   3.252269e+02  -6.059639e+01
   1.781525e+02   9.885472e+01
  -1.357129e+01   2.289793e+02
  -2.378744e+02   3.180505e+02
  -3.412553e+02   2.486094e+02
  -3.150715e+02  -1.583879e+02
  -1.148857e+02  -4.193512e+02
   1.227764e+02  -3.882379e+02
   1.226392e+02  -1.105615e+02
   1.876163e+01   3.998446e+01
   4.657028e+01  -9.003554e+01
   1.924883e+02  -1.329330e+02
   2.917335e+02   4.954329e+01
   1.635581e+02   2.833670e+02
  -8.534131e+01   2.755810e+02
  -2.266494e+02   3.828333e+00
  -1.910428e+02  -2.710526e+02
  -7.441417e+00  -3.104914e+02
   2.724599e+02  -1.116179e+02
   3.743538e+02   1.439226e+02
   1.714208e+02   3.521584e+02
  -1.025630e+02   2.974668e+02
  -2.319052e+02   1.201319e+02
  -1.691490e+02  -1.373333e+01
  -9.133828e+01   2.478246e+01
  -2.385392e+02   5.161399e+01
  -3.899141e+02  -5.955288e+01
  -3.254761e+02  -2.968578e+02
   3.632154e+01  -4.458275e+02
   3.653961e+02  -3.943595e+02
   4.915544e+02  -1.854143e+02
   3.206411e+02   9.925223e+01
   4.857466e+01   3.116536e+02
  -1.480795e+02   2.629870e+02
  -8.707215e+01   2.196253e+01
   1.232616e+02  -1.130098e+02
   2.246084e+02   1.534354e+00
   6.417947e+01   2.090357e+02
  -1.661467e+02   1.730282e+02
  -1.894471e+02  -6.596739e+01
   2.448917e+01  -2.097440e+02
   2.130138e+02  -3.719705e+01
   1.496524e+02   2.605854e+02
  -6.283855e+01   3.338892e+02
  -2.299807e+02   2.057070e+02
  -3.214119e+02  -6.861806e+01
  -2.846890e+02  -2.245464e+02
  -1.012013e+02  -2.698471e+02
   1.130290e+02  -1.604198e+02
   1.773176e+02  -1.858963e+01
   6.538839e+01   4.051110e+01
  -7.475360e+01  -3.501307e+01
  -2.675320e+01  -1.251080e+02
   1.284338e+02  -9.654637e+01
   1.743889e+02   1.651187e+01
   6.511976e+01   7.622667e+01
  -7.584888e+01   2.028216e+01
  -5.706862e+01  -7.004250e+01
   1.121125e+02  -9.099151e+01
   2.739326e+02   2.782266e+01
   2.652305e+02   1.522070e+02
   7.390222e+01   2.408865e+02
  -1.941390e+02   2.682677e+02
  -2.874714e+02   1.199744e+02
  -1.794054e+02  -6.111881e+01
   1.773976e+01  -1.140123e+02
   8.908325e+01  -1.097257e+01
  -3.026379e+01   1.049855e+02
  -2.018858e+02   6.382916e+01
  -2.147697e+02  -9.443911e+01
  -5.862582e+01  -2.119345e+02
   1.017868e+02  -1.703376e+02
   1.521253e+02  -1.476425e+01
   7.085169e+01   3.921994e+01
  -2.318520e+01   9.794307e+00
  -3.576883e+01  -7.782509e+01
   7.091907e+01  -1.079750e+02
   1.922064e+02  -1.694822e+01
   2.205615e+02   1.152164e+02
   8.474034e+00   1.999838e+02
  -1.671779e+02   1.619832e+02
  -2.043425e+02   2.987509e+00
  -5.663575e+01  -1.187821e+02
   7.143437e+01  -1.196024e+02
   8.334135e+01  -3.217549e+01
   2.460754e+01   2.752451e+01
  -1.897380e+01   2.199867e+01
   9.739267e+00  -3.195494e+00
   6.688130e+01   1.107392e+01
   8.027751e+01   8.425256e+01
   1.722178e+01   1.502976e+02
  -1.083716e+02   1.449571e+02
  -2.334099e+02   1.165897e+01
  -2.216870e+02  -1.508869e+02
  -4.710129e+01  -2.548264e+02
   1.126099e+02  -1.711459e+02
   1.306203e+02  -2.917819e+01
   7.221546e+01   6.049513e+01
   2.474884e+01   3.886678e+01
   5.035906e+01  -1.368966e+01
   8.316523e+01  -1.771165e+00
   3.614990e+01   5.069636e+01
  -4.343830e+01   7.973737e+01
  -9.119595e+01   5.616247e+01
  -8.146407e+01  -3.717241e+01
   1.145135e+01  -1.087626e+02
   1.407169e+02  -6.795901e+01
   1.867924e+02   6.078110e+01
   9.451017e+01   2.152249e+02
  -1.153638e+02   2.218674e+02
  -2.749390e+02   9.018153e+01
  -2.589617e+02  -9.958605e+01
  -1.072737e+02  -1.801027e+02
   3.182121e+01  -1.400625e+02
   9.994821e+01  -7.554565e+01
   8.440130e+01  -6.796785e+01
   7.039972e+01  -8.997471e+01
   9.863727e+01  -6.886230e+01
   1.300383e+02   2.859448e+01
   1.237312e+02   1.516673e+02
   1.263805e+01   2.480458e+02
  -1.194912e+02   1.600498e+02
  -1.723571e+02   3.760597e+00
  -1.317889e+02  -1.225748e+02
  -1.343522e+01  -1.698637e+02
   7.047435e+01  -9.371585e+01
   5.535648e+01  -5.186357e+00
   7.211230e+00   4.221813e+01
  -6.132888e+00   3.349656e+01
   3.835647e+01   2.172693e+01
   8.252311e+01   2.420984e+01
   4.518248e+01   3.433676e+01
  -5.912600e+01   3.650177e+01
  -1.472260e+02   1.207468e+00
  -1.355279e+02  -5.491911e+01
  -1.131967e+01  -8.590222e+01
   1.212107e+02  -7.570474e+01
   1.534049e+02  -4.360292e+00
   4.808335e+01   4.077196e+01
  -5.942859e+01   3.732988e+01
  -7.205345e+01  -2.108240e+01
  -9.218003e+00  -6.099744e+01
   6.250103e+01  -4.862757e+01
   5.889796e+01   2.957095e+00
   4.305573e+01   4.833134e+01
   3.936432e+01   4.724121e+01
   6.080734e+01   2.007698e+00
   6.785660e+01   2.384616e+00
   3.256662e+01   6.865427e+01
  -3.413219e+01   1.506188e+02
  -1.158094e+02   1.429792e+02
  -1.561419e+02   3.516297e+01
  -1.147964e+02  -9.994048e+01
  -5.559192e+00  -1.235214e+02
   8.644679e+01  -5.310197e+01
   5.754644e+01   1.546817e+01
  -6.062741e+01   1.817550e+01
  -1.424753e+02  -4.244714e+01
  -7.746944e+01  -1.154236e+02
   8.349437e+01  -9.947146e+01
   2.038773e+02  -5.816287e+01
   1.706815e+02   3.205504e+01
   3.783610e+01   8.896489e+01
  -5.999959e+01   6.796831e+01
  -5.051216e+01   7.747974e+00
   3.850673e+01  -2.607873e+01
   8.696689e+01   2.890708e+01
   3.410229e+01   1.204261e+02
  -9.260915e+01   1.396467e+02
  -1.773705e+02   4.634284e+01
  -1.204290e+02  -1.024154e+02
   2.111880e+00  -1.921383e+02
   8.909829e+01  -1.434757e+02
   1.061343e+02   4.865741e+00
   5.025862e+01   1.147035e+02
   2.778727e+00   1.090632e+02
  -4.488783e+01   1.935914e+01
  -5.518084e+01  -3.283698e+01
  -2.595059e+01  -1.081001e+01
  -3.652080e+00   2.090531e+01
  -1.631111e+01  -1.522661e+01
  -5.428200e+01  -9.151339e+01
  -3.777160e+01  -1.153312e+02
   4.706731e+01  -4.452869e+01
   1.434026e+02   5.036573e+01
   1.266315e+02   6.984400e+01
   2.008405e+01   4.700162e+01
  -8.899343e+01   2.063654e+01
  -9.027011e+01   7.881487e+00
  -9.804570e+00  -6.339676e+00
   3.930181e+01  -2.304185e+01
   1.306399e+01  -1.750406e+01
  -2.077815e+01   2.980205e+00
   5.454137e+00   9.289681e+00
   7.500287e+01   4.502173e+00
   8.800743e+01   2.410499e+01
   8.607760e+00   7.956542e+01
  -1.191887e+02   1.149017e+02
  -1.846756e+02   4.349587e+01
  -1.233906e+02  -7.724486e+01
  -2.462020e+01  -1.571862e+02
   7.735137e+01  -1.562192e+02
   1.149040e+02  -4.857410e+01
   7.548222e+01   1.695149e+01
   2.260917e+01   3.583472e+01
  -4.973332e+00   8.831640e+00
   8.908311e+00   3.182115e+00
   3.671869e+01   4.698942e+01
   2.603744e+01   9.616466e+01
  -3.109482e+01   7.236987e+01
  -7.873616e+01  -1.859432e+01
  -7.162354e+01  -1.136045e+02
   3.366335e+00  -1.175567e+02
   8.007714e+01  -1.408759e+01
   9.936631e+01   7.868171e+01
   2.062362e+01   1.039483e+02
  -6.411702e+01   5.052888e+01
  -9.382585e+01  -1.426733e+01
  -3.724005e+01  -5.036912e+01
   3.544730e+01  -4.708873e+01
   3.126515e+01  -2.865728e+01
  -3.420102e+01  -2.788738e+00
  -6.941243e+01   1.147705e+01
  -1.448129e+01  -2.402886e+01
   8.375304e+01  -6.777999e+01
   1.159713e+02  -5.299351e+01
   6.405696e+01   9.047329e+00
  -1.738415e+01   8.530004e+01
  -5.610121e+01   7.752971e+01
  -3.373433e+01   4.834993e-02
  -1.063842e+00  -5.848654e+01
   2.648545e+01  -4.057628e+01
   3.509343e+01   2.403427e+01
   2.046227e+01   5.636472e+01
  -2.707658e+00   3.141736e+01
  -3.074560e+01  -9.889286e+00
  -4.005357e+01  -1.685296e+01
  -2.048510e+01  -1.158376e+00
  -7.655556e-01   1.356899e+01
   7.852707e+00  -1.880614e+00
   9.846830e+00  -3.788631e+01
   2.079258e+01  -4.301921e+01
   3.133444e+01  -5.625717e+00
   2.367441e+01   4.394464e+01
  -8.296517e+00   6.153317e+01
  -5.059503e+01   1.813218e+01
  -5.485597e+01  -4.240375e+01
  -9.783978e+00  -6.325371e+01
   5.601497e+01  -3.160790e+01
   8.768447e+01   1.872374e+01
   4.800457e+01   4.541510e+01
  -2.991266e+01   4.298803e+01
  -6.423657e+01   2.104826e+01
  -2.334358e+01   3.525378e+00
   3.721223e+01   3.194891e+00
   3.560999e+01   2.109155e+01
  -3.351697e+01   3.218197e+01
  -9.584624e+01   1.416071e+01
