
 $NMID
 id='ANONYMOUS ', fmtdat='(2E16.6)'
 volume=1.0
 tramp=1.0
 $END
  -4.303070e+03  -3.453894e+02
  -2.433210e+03  -2.655662e+03
   9.133402e+02  -2.872425e+03
   2.133914e+03  -8.862764e+02
   8.067336e+02   8.331264e+02
  -8.244228e+02   7.000104e+02
  -9.462065e+02  -4.451488e+02
   4.302243e+01  -1.058743e+03
   8.977949e+02  -7.958636e+02
   1.012193e+03   2.214873e+02
   3.978628e+02   8.898789e+02
  -3.446469e+02   9.245660e+02
  -6.892895e+02   7.623412e+01
  -3.996589e+02  -8.296432e+02
   3.096758e+02  -7.568552e+02
   7.131798e+02   6.551510e+01
   2.268380e+02   7.473413e+02
  -3.688179e+02   6.283601e+02
  -6.512744e+02   4.686523e+01
  -3.709204e+02  -4.074733e+02
  -9.605566e+00  -4.545161e+02
   2.376664e+02  -2.860303e+02
   2.405916e+02  -2.136793e+01
  -1.241743e+02   1.028396e+02
  -4.623294e+02  -1.063980e+02
  -2.096322e+02  -4.946977e+02
   4.948704e+02  -4.271260e+02
   9.259407e+02   1.189466e+02
   4.551442e+02   5.966052e+02
  -3.985010e+02   5.055135e+02
  -7.492084e+02  -2.856609e+01
  -3.641542e+02  -5.468054e+02
   3.156121e+02  -5.420609e+02
   5.829314e+02  -1.731348e+02
   4.402345e+02   2.778433e+02
   6.091915e+01   5.093310e+02
  -2.135110e+02   3.185594e+02
  -1.984795e+02  -2.355248e+02
   1.648193e+02  -4.979188e+02
   4.741899e+02   4.522312e+01
   2.034049e+02   7.270692e+02
  -4.147816e+02   6.242112e+02
  -7.265178e+02  -1.333978e+01
  -2.927571e+02  -5.768900e+02
   3.358172e+02  -3.343748e+02
   4.054743e+02   3.471796e+02
  -9.649025e+01   5.791265e+02
  -5.378159e+02   1.172606e+02
  -6.171028e+02  -4.475413e+02
  -1.534401e+02  -5.769342e+02
   4.276742e+02  -3.153878e+02
   7.035911e+02   9.101959e+01
   3.806808e+02   4.561187e+02
  -1.982003e+02   3.517612e+02
  -4.635492e+02   1.972063e+01
  -2.332247e+02  -2.662142e+02
   1.564197e+02  -1.210672e+02
   1.975313e+02   1.909313e+02
  -1.768321e+02   1.953276e+02
  -3.698158e+02  -1.030142e+02
  -1.393829e+02  -2.895763e+02
   1.968163e+02  -2.756515e+02
   3.338305e+02  -6.561112e+01
   1.745624e+02   9.875594e+01
  -2.163925e+01   2.414942e+02
  -2.437851e+02   3.045670e+02
  -3.396598e+02   2.341158e+02
  -3.160803e+02  -1.524720e+02
  -1.195592e+02  -4.340811e+02
   1.249929e+02  -3.981677e+02
   1.342795e+02  -1.066553e+02
   1.936184e+01   4.249041e+01
   4.140759e+01  -8.545491e+01
   1.988985e+02  -1.424214e+02
   2.933285e+02   4.345286e+01
   1.647935e+02   3.103537e+02
  -9.832335e+01   2.782030e+02
  -2.220330e+02   3.613720e+00
  -1.966631e+02  -2.651647e+02
  -3.761574e+00  -3.089600e+02
   2.801342e+02  -1.124930e+02
   3.818389e+02   1.602511e+02
   1.783816e+02   3.613246e+02
  -1.044654e+02   3.031734e+02
  -2.354175e+02   1.071297e+02
  -1.615686e+02  -1.213650e+01
  -8.702478e+01   2.689165e+01
  -2.409673e+02   5.075076e+01
  -4.002361e+02  -5.956801e+01
  -3.092687e+02  -2.880162e+02
   3.822297e+01  -4.478892e+02
   3.812788e+02  -3.980396e+02
   4.976538e+02  -1.855950e+02
   3.245087e+02   9.491315e+01
   3.726458e+01   3.185847e+02
  -1.406693e+02   2.656956e+02
  -9.123275e+01   2.261152e+01
   1.258378e+02  -1.193936e+02
   2.224110e+02   4.266901e+00
   6.598773e+01   2.086010e+02
  -1.669511e+02   1.778745e+02
  -1.874518e+02  -5.710389e+01
   1.486418e+01  -2.085826e+02
   2.142486e+02  -3.120392e+01
   1.513586e+02   2.681857e+02
  -6.720950e+01   3.410881e+02
  -2.413121e+02   2.063683e+02
  -3.262534e+02  -6.699714e+01
  -2.664118e+02  -2.297588e+02
  -1.092574e+02  -2.723221e+02
   1.180139e+02  -1.616108e+02
   1.889568e+02  -1.705599e+01
   6.425725e+01   4.144873e+01
  -7.119103e+01  -3.065086e+01
  -2.731208e+01  -1.330193e+02
   1.256741e+02  -1.033454e+02
   1.755789e+02   1.634395e+01
   6.798450e+01   7.779326e+01
  -7.524075e+01   1.815455e+01
  -5.760438e+01  -6.914867e+01
   1.216201e+02  -9.041661e+01
   2.765169e+02   2.121914e+01
   2.696860e+02   1.571372e+02
   6.262374e+01   2.541300e+02
  -1.923395e+02   2.618296e+02
  -2.855637e+02   1.079645e+02
  -1.765508e+02  -6.493313e+01
   1.687614e+01  -1.209938e+02
   9.304163e+01  -9.903559e+00
  -3.011501e+01   1.056684e+02
  -2.018393e+02   6.005799e+01
  -2.141348e+02  -9.390770e+01
  -5.298940e+01  -2.169727e+02
   1.003426e+02  -1.734713e+02
   1.531051e+02  -2.010839e+01
   7.512594e+01   4.012897e+01
  -2.306807e+01   9.325480e+00
  -3.447882e+01  -8.273743e+01
   6.809629e+01  -1.089342e+02
   1.916184e+02  -1.428413e+01
   2.069741e+02   1.207055e+02
   1.186751e+01   2.113483e+02
  -1.765930e+02   1.576764e+02
  -1.977372e+02   4.830612e+00
  -5.781702e+01  -1.234381e+02
   7.163796e+01  -1.204101e+02
   8.869281e+01  -3.499602e+01
   2.641439e+01   2.739038e+01
  -1.860098e+01   2.177142e+01
   1.029322e+01  -3.334127e+00
   6.590585e+01   1.523966e+01
   8.320201e+01   8.790926e+01
   1.950600e+01   1.478768e+02
  -1.205182e+02   1.518130e+02
  -2.262095e+02   1.878001e+01
  -2.200704e+02  -1.547681e+02
  -4.291202e+01  -2.463566e+02
   1.062750e+02  -1.724673e+02
   1.318082e+02  -2.645025e+01
   7.320621e+01   5.667520e+01
   2.472731e+01   4.048584e+01
   5.052679e+01  -1.296232e+01
   8.052211e+01  -1.121301e+00
   3.487615e+01   5.331365e+01
  -4.294373e+01   8.065622e+01
  -9.855296e+01   5.055634e+01
  -8.734575e+01  -3.557160e+01
   1.648473e+01  -1.106422e+02
   1.432813e+02  -7.288253e+01
   1.885626e+02   6.469928e+01
   9.859029e+01   2.044290e+02
  -1.088473e+02   2.147141e+02
  -2.843444e+02   8.410871e+01
  -2.586269e+02  -1.051133e+02
  -1.059701e+02  -1.872721e+02
   3.508595e+01  -1.458700e+02
   1.008010e+02  -7.899221e+01
   8.481777e+01  -6.574865e+01
   7.072457e+01  -8.926142e+01
   1.009902e+02  -6.978305e+01
   1.294025e+02   3.000924e+01
   1.281303e+02   1.583362e+02
   1.488780e+01   2.374946e+02
  -1.145660e+02   1.644358e+02
  -1.777259e+02   4.929313e+00
  -1.287276e+02  -1.281001e+02
  -1.209954e+01  -1.674541e+02
   6.926529e+01  -9.372393e+01
   6.224222e+01  -3.001907e+00
   8.099627e+00   4.034664e+01
  -5.341729e+00   3.312335e+01
   3.784424e+01   2.191475e+01
   8.623509e+01   2.312071e+01
   4.355152e+01   3.658687e+01
  -6.037342e+01   3.640039e+01
  -1.579676e+02  -2.616109e+00
  -1.372524e+02  -5.742761e+01
  -7.467200e+00  -7.956841e+01
   1.259046e+02  -7.929820e+01
   1.490131e+02  -3.967645e+00
   4.967114e+01   4.028467e+01
  -5.943071e+01   3.339010e+01
  -7.160198e+01  -2.188311e+01
  -7.657989e+00  -6.476832e+01
   5.934698e+01  -4.649109e+01
   6.049520e+01   2.940325e+00
   4.333663e+01   5.067471e+01
   4.103850e+01   4.567399e+01
   6.572571e+01   3.720543e+00
   6.468825e+01   2.606735e+00
   3.638666e+01   7.066508e+01
  -3.065611e+01   1.500125e+02
  -1.222789e+02   1.429326e+02
  -1.573002e+02   3.439512e+01
  -1.139642e+02  -9.595919e+01
  -5.557858e+00  -1.257786e+02
   8.733279e+01  -5.307003e+01
   5.774867e+01   1.493910e+01
  -5.903975e+01   1.809457e+01
  -1.425147e+02  -4.733298e+01
  -7.464050e+01  -1.167280e+02
   8.666186e+01  -1.039186e+02
   1.978885e+02  -5.842007e+01
   1.738266e+02   3.949689e+01
   3.954844e+01   8.942924e+01
  -6.520080e+01   6.676248e+01
  -4.992684e+01   6.298689e+00
   3.764765e+01  -2.487848e+01
   9.072792e+01   3.085485e+01
   3.189861e+01   1.197997e+02
  -9.431389e+01   1.416211e+02
  -1.707515e+02   4.725510e+01
  -1.269940e+02  -1.034311e+02
   1.115811e+00  -1.910388e+02
   8.510774e+01  -1.464303e+02
   1.038388e+02   6.588920e+00
   5.107277e+01   1.162883e+02
   2.849202e+00   1.082090e+02
  -4.396502e+01   2.092641e+01
  -5.718052e+01  -3.093045e+01
  -2.392140e+01  -9.086256e+00
  -3.617085e+00   2.050687e+01
  -1.659903e+01  -1.371104e+01
  -5.271130e+01  -8.896233e+01
  -4.089479e+01  -1.177552e+02
   4.656624e+01  -4.075837e+01
   1.467491e+02   4.938876e+01
   1.287771e+02   6.442461e+01
   1.791316e+01   4.618627e+01
  -9.147884e+01   2.054770e+01
  -8.855588e+01   7.379781e+00
  -1.054917e+01  -6.160827e+00
   3.893412e+01  -2.393871e+01
   1.435493e+01  -1.855569e+01
  -2.254788e+01   1.422651e+00
   5.367813e+00   9.416208e+00
   7.393946e+01   6.850020e+00
   9.222226e+01   2.382584e+01
   8.314498e+00   7.979105e+01
  -1.128583e+02   1.205558e+02
  -1.846220e+02   4.100661e+01
  -1.300568e+02  -8.108756e+01
  -2.957447e+01  -1.557288e+02
   9.202763e+01  -1.539938e+02
   1.140510e+02  -5.048456e+01
   7.996272e+01   1.753343e+01
   2.270557e+01   3.716797e+01
  -4.575514e+00   8.208862e+00
   8.770543e+00   3.542156e+00
   3.602998e+01   4.687309e+01
   2.529143e+01   9.216261e+01
  -2.931037e+01   6.778083e+01
  -8.152681e+01  -1.962888e+01
  -7.395730e+01  -1.145418e+02
   2.958471e+00  -1.118040e+02
   8.029903e+01  -1.403201e+01
   1.039513e+02   8.137272e+01
   2.187195e+01   1.053528e+02
  -6.526730e+01   5.087201e+01
  -9.686252e+01  -1.563360e+01
  -3.735736e+01  -5.006138e+01
   3.900001e+01  -4.797396e+01
   3.121583e+01  -2.769595e+01
  -3.508352e+01  -2.943523e+00
  -6.968287e+01   9.747083e+00
  -1.420989e+01  -2.563888e+01
   8.453232e+01  -6.400500e+01
   1.162167e+02  -5.111901e+01
   6.450983e+01   1.006713e+01
  -2.041106e+01   8.523082e+01
  -5.523863e+01   7.318890e+01
  -3.487395e+01  -4.675599e-01
  -1.338166e-02  -5.898227e+01
   2.791894e+01  -4.091783e+01
   3.466883e+01   2.457797e+01
   2.134069e+01   5.709850e+01
  -2.968068e+00   3.235435e+01
  -2.955645e+01  -9.583695e+00
  -4.107828e+01  -1.894031e+01
  -2.000328e+01  -1.275246e+00
  -5.061295e-01   1.359234e+01
   9.104827e+00  -2.793915e+00
   1.210069e+01  -3.683262e+01
   1.794862e+01  -4.192910e+01
   3.187407e+01  -6.069093e+00
   2.571527e+01   4.649329e+01
  -9.458635e+00   5.903668e+01
  -4.717526e+01   1.859487e+01
  -5.551163e+01  -4.181800e+01
  -9.654904e+00  -6.439210e+01
   5.573351e+01  -3.036748e+01
   8.786984e+01   1.968899e+01
   4.655112e+01   4.454448e+01
  -3.072716e+01   4.322077e+01
  -6.351287e+01   1.982971e+01
  -2.330820e+01   3.311238e+00
   3.900691e+01   3.433574e+00
   3.708175e+01   2.149580e+01
  -3.703076e+01   3.274619e+01
  -9.348390e+01   1.199521e+01
