
 $NMID
 id='ANONYMOUS ', fmtdat='(2E16.6)'
 volume=1.0
 tramp=1.0
 $END
  -4.022328e+03  -1.635156e+02
  -2.154157e+03  -2.224816e+03
   6.468897e+02  -2.583171e+03
   1.943645e+03  -8.153032e+02
   7.605953e+02   7.830952e+02
  -8.057825e+02   5.963499e+02
  -8.753364e+02  -4.372411e+02
  -4.749886e+01  -9.852782e+02
   8.301068e+02  -7.275808e+02
   8.945352e+02   2.072546e+02
   3.756851e+02   8.114560e+02
  -2.880253e+02   8.096864e+02
  -6.552723e+02   8.056934e+01
  -3.967239e+02  -7.078242e+02
   2.667512e+02  -6.751675e+02
   5.899486e+02   7.319339e+01
   2.374043e+02   6.896383e+02
  -3.046034e+02   5.536232e+02
  -6.050504e+02   2.408456e+01
  -3.323635e+02  -3.666560e+02
   1.767090e+01  -4.053116e+02
   2.116284e+02  -2.494996e+02
   2.175796e+02  -2.326551e+01
  -1.147940e+02   1.022723e+02
  -4.113129e+02  -8.984164e+01
  -1.687441e+02  -4.454109e+02
   4.527994e+02  -3.902843e+02
   8.149146e+02   1.096173e+02
   3.819661e+02   5.534890e+02
  -3.649720e+02   4.919829e+02
  -7.209938e+02  -4.233495e+01
  -3.358573e+02  -5.095485e+02
   2.629586e+02  -4.946780e+02
   5.508879e+02  -1.561364e+02
   4.015334e+02   2.418789e+02
   5.534041e+01   4.918440e+02
  -1.989343e+02   2.785146e+02
  -1.707873e+02  -2.040352e+02
   1.660458e+02  -4.464527e+02
   4.369653e+02   6.510499e+01
   1.760772e+02   6.990701e+02
  -3.028766e+02   5.944028e+02
  -6.944365e+02  -4.254260e+01
  -2.500895e+02  -6.068048e+02
   2.882119e+02  -3.457190e+02
   3.939117e+02   2.997683e+02
  -7.146067e+01   5.043475e+02
  -5.349318e+02   8.129940e+01
  -5.565460e+02  -4.135256e+02
  -1.454607e+02  -5.445834e+02
   3.868005e+02  -2.826370e+02
   6.200018e+02   7.803407e+01
   3.062842e+02   3.830553e+02
  -1.618248e+02   3.200573e+02
  -4.184380e+02   2.254814e+01
  -1.964781e+02  -2.323650e+02
   1.338945e+02  -1.051084e+02
   1.593490e+02   1.734009e+02
  -1.446013e+02   1.759070e+02
  -3.314750e+02  -9.227920e+01
  -1.151000e+02  -2.764879e+02
   1.797561e+02  -2.617461e+02
   2.888048e+02  -5.824282e+01
   1.582590e+02   9.398908e+01
  -2.861442e+01   2.082858e+02
  -2.128041e+02   2.754952e+02
  -2.976532e+02   2.129639e+02
  -3.068642e+02  -1.377110e+02
  -9.327762e+01  -4.058134e+02
   1.057201e+02  -3.642021e+02
   1.250062e+02  -8.888067e+01
   1.021609e+01   4.142251e+01
   4.527350e+01  -7.470954e+01
   1.898324e+02  -1.314208e+02
   2.700688e+02   3.989264e+01
   1.396820e+02   2.804460e+02
  -8.153379e+01   2.584235e+02
  -2.061002e+02  -4.287109e+00
  -1.897944e+02  -2.337191e+02
  -1.389425e+01  -2.711356e+02
   2.708581e+02  -8.916084e+01
   3.460693e+02   1.474419e+02
   1.683267e+02   3.335019e+02
  -8.597954e+01   2.768898e+02
  -2.088468e+02   1.132789e+02
  -1.467406e+02   4.490374e+00
  -7.895361e+01   3.196953e+01
  -2.163717e+02   6.474034e+01
  -3.713971e+02  -6.201473e+01
  -3.019689e+02  -2.548351e+02
   9.189563e+00  -4.316280e+02
   3.587406e+02  -3.761438e+02
   4.575064e+02  -1.731482e+02
   3.016384e+02   9.015995e+01
   4.244660e+01   2.808055e+02
  -1.192024e+02   2.432283e+02
  -8.200907e+01   1.593284e+01
   1.105479e+02  -1.033780e+02
   1.869371e+02   2.975514e+00
   4.532811e+01   1.885525e+02
  -1.522220e+02   1.622335e+02
  -1.715909e+02  -5.475934e+01
   1.819232e+01  -1.805203e+02
   1.903602e+02  -3.309484e+01
   1.436544e+02   2.345628e+02
  -4.955382e+01   3.202441e+02
  -2.281969e+02   1.915515e+02
  -2.947632e+02  -5.359766e+01
  -2.391218e+02  -2.097908e+02
  -8.703268e+01  -2.488828e+02
   1.063134e+02  -1.414543e+02
   1.659600e+02  -9.298102e+00
   5.542382e+01   3.318012e+01
  -5.905042e+01  -3.107984e+01
  -2.442414e+01  -1.220071e+02
   1.117537e+02  -9.779616e+01
   1.580733e+02   2.282703e+01
   6.345319e+01   7.539328e+01
  -7.248859e+01   1.743221e+01
  -5.317162e+01  -6.147856e+01
   1.123005e+02  -8.331261e+01
   2.563615e+02   1.258319e+01
   2.349312e+02   1.478929e+02
   6.565553e+01   2.291075e+02
  -1.744826e+02   2.376841e+02
  -2.502383e+02   1.056516e+02
  -1.625753e+02  -4.761128e+01
   1.882653e+01  -1.082531e+02
   9.022496e+01  -3.673857e+00
  -2.602243e+01   9.291195e+01
  -1.800205e+02   4.739265e+01
  -1.980373e+02  -9.035600e+01
  -4.281538e+01  -1.968027e+02
   9.219199e+01  -1.496074e+02
   1.413178e+02  -1.548398e+01
   7.038476e+01   4.049335e+01
  -2.029269e+01   5.590733e+00
  -3.527092e+01  -7.393230e+01
   6.764382e+01  -9.985499e+01
   1.769654e+02  -9.461832e+00
   1.858840e+02   1.165756e+02
   1.683441e+01   1.987520e+02
  -1.625422e+02   1.417963e+02
  -1.801100e+02   8.239317e+00
  -5.303328e+01  -1.101703e+02
   6.503474e+01  -1.065895e+02
   7.910599e+01  -3.163856e+01
   2.677385e+01   2.716857e+01
  -1.839993e+01   1.861660e+01
   9.365834e+00  -9.577963e-01
   5.947907e+01   1.086214e+01
   7.855489e+01   7.885694e+01
   2.003168e+01   1.384486e+02
  -1.130256e+02   1.426748e+02
  -2.007663e+02   1.233254e+01
  -1.962845e+02  -1.462581e+02
  -3.945491e+01  -2.206797e+02
   9.549162e+01  -1.637450e+02
   1.212885e+02  -2.559816e+01
   6.474252e+01   5.461837e+01
   2.289776e+01   3.501975e+01
   4.556762e+01  -1.205891e+01
   7.348980e+01  -3.103136e+00
   3.107497e+01   4.614919e+01
  -3.800414e+01   7.544650e+01
  -9.049860e+01   4.748900e+01
  -7.911006e+01  -3.613231e+01
   1.461828e+01  -1.013657e+02
   1.367152e+02  -7.188237e+01
   1.782417e+02   4.716413e+01
   8.715351e+01   1.883891e+02
  -9.119030e+01   2.016363e+02
  -2.603824e+02   7.890440e+01
  -2.444747e+02  -8.518911e+01
  -9.336209e+01  -1.652510e+02
   3.606571e+01  -1.304346e+02
   9.307185e+01  -6.965162e+01
   7.625895e+01  -5.918887e+01
   6.402443e+01  -7.954631e+01
   8.531327e+01  -6.608906e+01
   1.157807e+02   2.830152e+01
   1.159880e+02   1.465691e+02
   2.644289e+01   2.161546e+02
  -9.699682e+01   1.509654e+02
  -1.664564e+02   1.011020e+01
  -1.053571e+02  -1.230842e+02
  -1.984659e+00  -1.510156e+02
   6.141902e+01  -8.864678e+01
   5.618776e+01  -4.772973e+00
   9.526554e+00   3.571305e+01
  -5.651297e+00   2.835995e+01
   3.430305e+01   1.851502e+01
   7.696401e+01   2.282549e+01
   3.972891e+01   3.290375e+01
  -5.554551e+01   3.257608e+01
  -1.442266e+02  -5.700597e+00
  -1.255622e+02  -4.746214e+01
  -1.088344e+01  -7.394489e+01
   1.176198e+02  -7.617663e+01
   1.397525e+02  -2.707574e+00
   4.651042e+01   3.627459e+01
  -5.253041e+01   2.923486e+01
  -6.487408e+01  -1.946326e+01
  -5.201674e+00  -5.800898e+01
   5.309034e+01  -4.163162e+01
   5.405856e+01   9.016651e-01
   3.875931e+01   4.673768e+01
   3.820645e+01   3.883321e+01
   5.929510e+01   1.971311e+00
   5.759142e+01   5.241860e-01
   3.161746e+01   6.513245e+01
  -2.606023e+01   1.346297e+02
  -1.132972e+02   1.311080e+02
  -1.416110e+02   2.422639e+01
  -1.017673e+02  -8.437026e+01
  -7.402454e+00  -1.178052e+02
   8.005419e+01  -4.982914e+01
   5.230253e+01   1.255374e+01
  -5.053962e+01   1.778762e+01
  -1.250307e+02  -4.148813e+01
  -7.135370e+01  -1.116155e+02
   7.808296e+01  -9.479594e+01
   1.846675e+02  -5.046603e+01
   1.537993e+02   3.775981e+01
   3.530158e+01   7.666536e+01
  -5.705961e+01   5.840959e+01
  -4.403667e+01   6.663513e+00
   3.424266e+01  -2.281255e+01
   8.392098e+01   2.343484e+01
   3.035540e+01   1.045656e+02
  -8.376870e+01   1.291550e+02
  -1.519145e+02   4.720820e+01
  -1.139690e+02  -9.073011e+01
  -8.570179e+00  -1.640937e+02
   7.408209e+01  -1.379840e+02
   9.041211e+01   3.998500e+00
   4.763750e+01   1.097019e+02
   5.737413e+00   1.026342e+02
  -4.137971e+01   1.910484e+01
  -5.103237e+01  -2.632081e+01
  -2.261410e+01  -7.509350e+00
  -4.033923e+00   1.802467e+01
  -1.619145e+01  -1.025442e+01
  -4.708516e+01  -8.046353e+01
  -3.555406e+01  -1.096793e+02
   4.062885e+01  -3.866332e+01
   1.290548e+02   3.965575e+01
   1.211108e+02   6.164522e+01
   1.509003e+01   4.215850e+01
  -8.296193e+01   1.772293e+01
  -8.109414e+01   6.042568e+00
  -1.010642e+01  -5.559508e+00
   3.381905e+01  -2.095161e+01
   1.234002e+01  -1.852475e+01
  -2.114132e+01   1.153665e+00
   5.328611e+00   8.762306e+00
   6.950205e+01   4.592279e+00
   8.614486e+01   1.980994e+01
   8.515537e+00   7.710600e+01
  -1.035885e+02   1.102176e+02
  -1.590076e+02   3.972578e+01
  -1.245646e+02  -6.908856e+01
  -2.456625e+01  -1.407977e+02
   8.096928e+01  -1.421748e+02
   1.047861e+02  -4.854686e+01
   7.495734e+01   2.015295e+01
   2.106756e+01   3.448269e+01
  -4.066089e+00   6.420546e+00
   8.974941e+00   2.760628e+00
   3.298009e+01   4.156609e+01
   2.123071e+01   8.103985e+01
  -2.506119e+01   6.487539e+01
  -7.516455e+01  -1.637298e+01
  -6.704371e+01  -1.000174e+02
  -2.111577e+00  -1.052255e+02
   7.234801e+01  -1.521456e+01
   9.485234e+01   7.340643e+01
   2.818520e+01   9.332053e+01
  -6.366410e+01   4.817043e+01
  -8.617583e+01  -1.294450e+01
  -3.581805e+01  -4.790773e+01
   3.331065e+01  -4.601659e+01
   2.764463e+01  -2.542212e+01
  -3.271772e+01  -2.668225e+00
  -6.396057e+01   6.093551e+00
  -1.382620e+01  -2.195230e+01
   7.437546e+01  -5.806544e+01
   1.038268e+02  -4.812259e+01
   5.846362e+01   9.339696e+00
  -1.545998e+01   7.744834e+01
  -4.871148e+01   6.687266e+01
  -3.159092e+01   7.164291e-01
  -2.528206e-02  -5.343578e+01
   2.347158e+01  -3.750196e+01
   3.229511e+01   2.103617e+01
   2.291194e+01   5.059324e+01
  -3.407134e+00   2.828714e+01
  -2.820850e+01  -8.132319e+00
  -3.697758e+01  -1.923922e+01
  -1.827391e+01  -9.032165e-01
  -7.863317e-01   1.389798e+01
   7.777101e+00  -1.043394e+00
   1.056020e+01  -3.403181e+01
   1.530591e+01  -3.895843e+01
   3.017417e+01  -9.241287e+00
   2.175134e+01   4.358018e+01
  -3.166385e+00   5.136550e+01
  -4.057297e+01   1.817200e+01
  -5.070203e+01  -3.526212e+01
  -9.715779e+00  -5.785030e+01
   4.909982e+01  -2.594025e+01
   8.008558e+01   1.721808e+01
   4.238748e+01   3.948145e+01
  -2.526793e+01   4.181702e+01
  -5.820058e+01   1.765502e+01
  -2.162727e+01   3.556494e+00
   3.680883e+01   3.710882e+00
   3.413998e+01   1.990159e+01
  -3.186305e+01   2.877089e+01
  -8.765909e+01   1.307896e+01
