
 $NMID
 id='ANONYMOUS ', fmtdat='(2E16.6)'
 volume=1.0
 tramp=1.0
 $END
   3.772758e+03   4.614190e+01
   2.039293e+03   2.089727e+03
  -5.336780e+02   2.438858e+03
  -1.824761e+03   7.036988e+02
  -7.597179e+02  -7.939472e+02
   7.869897e+02  -5.737007e+02
   7.947779e+02   3.704576e+02
   7.836207e+01   9.244500e+02
  -7.767342e+02   6.866500e+02
  -8.487136e+02  -1.511231e+02
  -3.552559e+02  -7.652221e+02
   2.484562e+02  -7.790363e+02
   5.845338e+02  -6.268898e+01
   3.536529e+02   6.688836e+02
  -2.671013e+02   5.739154e+02
  -5.382155e+02  -6.542527e+01
  -2.205366e+02  -6.079354e+02
   2.544793e+02  -5.534681e+02
   5.489181e+02  -6.729382e+00
   3.076342e+02   3.349048e+02
  -1.390272e+01   3.769206e+02
  -2.028083e+02   2.142802e+02
  -2.002897e+02   8.685819e+00
   1.163262e+02  -8.340243e+01
   3.640478e+02   8.237829e+01
   1.796328e+02   3.935044e+02
  -4.159630e+02   3.885035e+02
  -7.652951e+02  -6.189898e+01
  -3.531566e+02  -5.037227e+02
   3.471503e+02  -4.631059e+02
   6.634431e+02   4.515101e+01
   3.006553e+02   4.829624e+02
  -2.332895e+02   4.862276e+02
  -4.922355e+02   1.596177e+02
  -3.816458e+02  -2.264648e+02
  -6.300511e+01  -4.586755e+02
   1.878925e+02  -2.475975e+02
   1.524515e+02   1.838475e+02
  -1.556242e+02   3.992830e+02
  -4.203061e+02  -7.127313e+01
  -1.903291e+02  -6.761735e+02
   2.814092e+02  -5.861060e+02
   6.250189e+02   6.655035e+01
   2.402790e+02   5.695972e+02
  -2.947839e+02   3.075152e+02
  -3.540704e+02  -2.980748e+02
   5.405263e+01  -4.795464e+02
   4.983753e+02  -6.372425e+01
   5.135151e+02   3.911137e+02
   1.177930e+02   4.998977e+02
  -3.535023e+02   2.679280e+02
  -5.603373e+02  -6.848578e+01
  -2.867191e+02  -3.388904e+02
   1.543766e+02  -2.761816e+02
   3.909155e+02   7.943299e+00
   1.845206e+02   2.155826e+02
  -1.140433e+02   9.564270e+01
  -1.337206e+02  -1.538095e+02
   1.297900e+02  -1.614995e+02
   2.993907e+02   8.309028e+01
   9.886700e+01   2.552929e+02
  -1.735551e+02   2.436261e+02
  -2.737422e+02   6.384569e+01
  -1.434847e+02  -7.752930e+01
   2.245347e+01  -1.966551e+02
   1.783894e+02  -2.516981e+02
   2.630893e+02  -2.057524e+02
   2.851603e+02   1.324560e+02
   7.904781e+01   3.808320e+02
  -9.417839e+01   3.307536e+02
  -1.025523e+02   8.358590e+01
  -1.240836e+01  -4.551506e+01
  -3.205520e+01   6.184720e+01
  -1.813786e+02   1.223907e+02
  -2.592270e+02  -3.068988e+01
  -1.318490e+02  -2.562218e+02
   6.685582e+01  -2.478816e+02
   1.994750e+02  -4.578166e+00
   1.704330e+02   2.120206e+02
   1.240802e+01   2.517741e+02
  -2.622237e+02   8.818462e+01
  -3.137034e+02  -1.197481e+02
  -1.591904e+02  -3.074024e+02
   7.257747e+01  -2.589900e+02
   1.897696e+02  -1.019090e+02
   1.318701e+02  -7.780544e+00
   7.265162e+01  -2.932454e+01
   1.999393e+02  -7.020457e+01
   3.516207e+02   5.022912e+01
   2.845531e+02   2.292573e+02
   6.827670e+00   3.837493e+02
  -3.270632e+02   3.461393e+02
  -4.278426e+02   1.477251e+02
  -2.873777e+02  -8.457412e+01
  -5.054192e+01  -2.593964e+02
   1.098847e+02  -2.356177e+02
   7.061755e+01  -1.139633e+01
  -1.124399e+02   1.047906e+02
  -1.708353e+02   6.868432e-01
  -4.907892e+01  -1.661399e+02
   1.377480e+02  -1.518511e+02
   1.594957e+02   5.542944e+01
  -1.063687e+01   1.676074e+02
  -1.767457e+02   2.612473e+01
  -1.383583e+02  -2.099911e+02
   4.576579e+01  -2.895989e+02
   2.080248e+02  -1.811682e+02
   2.729505e+02   5.124670e+01
   2.255502e+02   1.927766e+02
   8.461903e+01   2.271104e+02
  -9.514611e+01   1.366483e+02
  -1.517282e+02   1.040205e+01
  -4.998286e+01  -2.996207e+01
   5.586778e+01   2.386846e+01
   2.351555e+01   1.140081e+02
  -1.016952e+02   8.947442e+01
  -1.512650e+02  -1.535049e+01
  -5.739382e+01  -6.953098e+01
   6.746514e+01  -1.932257e+01
   4.875175e+01   5.441988e+01
  -1.006492e+02   8.133686e+01
  -2.336034e+02  -1.045959e+00
  -2.195110e+02  -1.295742e+02
  -6.982639e+01  -2.092583e+02
   1.605556e+02  -2.200767e+02
   2.334724e+02  -1.023720e+02
   1.452128e+02   4.528436e+01
  -1.356871e+01   1.019020e+02
  -8.337554e+01   2.594104e+00
   2.133166e+01  -8.484486e+01
   1.686711e+02  -4.651809e+01
   1.816652e+02   7.917096e+01
   4.044438e+01   1.774797e+02
  -7.964187e+01   1.345703e+02
  -1.286631e+02   1.528943e+01
  -6.661085e+01  -3.898826e+01
   2.007840e+01  -4.953239e+00
   3.650687e+01   7.064534e+01
  -6.129421e+01   9.360326e+01
  -1.644206e+02   8.581571e+00
  -1.761085e+02  -1.061413e+02
  -2.194209e+01  -1.796934e+02
   1.479702e+02  -1.285219e+02
   1.664513e+02  -8.700860e+00
   4.622573e+01   9.897009e+01
  -5.911037e+01   9.588772e+01
  -7.036064e+01   2.878864e+01
  -2.354660e+01  -2.510377e+01
   1.723468e+01  -1.711354e+01
  -7.471311e+00   1.544525e+00
  -5.322173e+01  -1.078530e+01
  -6.897465e+01  -6.901134e+01
  -1.586391e+01  -1.274142e+02
   1.062507e+02  -1.326233e+02
   1.801100e+02  -1.218763e+01
   1.890110e+02   1.367431e+02
   3.304883e+01   1.996258e+02
  -8.161115e+01   1.468079e+02
  -1.101537e+02   2.104930e+01
  -5.820147e+01  -4.934256e+01
  -2.197448e+01  -3.179209e+01
  -4.227391e+01   1.107555e+01
  -6.651328e+01   3.666877e+00
  -2.797820e+01  -4.042912e+01
   2.895063e+01  -7.095964e+01
   7.964477e+01  -4.276789e+01
   7.688147e+01   3.425643e+01
  -1.071480e+01   9.556531e+01
  -1.249597e+02   6.860160e+01
  -1.641174e+02  -4.048078e+01
  -8.276343e+01  -1.740982e+02
   8.057087e+01  -1.895363e+02
   2.447393e+02  -7.834663e+01
   2.344133e+02   7.107584e+01
   8.678519e+01   1.445388e+02
  -3.144714e+01   1.182287e+02
  -8.523547e+01   6.781893e+01
  -7.276185e+01   5.836174e+01
  -6.070260e+01   7.386586e+01
  -7.616703e+01   6.129845e+01
  -1.075779e+02  -2.170184e+01
  -1.098156e+02  -1.339289e+02
  -2.805056e+01  -1.919411e+02
   8.648063e+01  -1.442748e+02
   1.582950e+02  -1.259938e+01
   9.726591e+01   1.106801e+02
   4.597082e+00   1.366869e+02
  -6.014464e+01   7.999076e+01
  -5.153304e+01   7.912851e+00
  -1.049865e+01  -3.517779e+01
   2.628815e+00  -2.632840e+01
  -3.366800e+01  -1.828300e+01
  -7.099121e+01  -2.046902e+01
  -3.547260e+01  -2.873133e+01
   5.048325e+01  -3.314518e+01
   1.298888e+02   5.662708e+00
   1.183917e+02   4.066240e+01
   1.477703e+01   6.883813e+01
  -1.055548e+02   6.951602e+01
  -1.319518e+02   2.492643e+00
  -4.302722e+01  -3.182140e+01
   4.673494e+01  -2.932056e+01
   6.134844e+01   1.811872e+01
   4.913685e+00   5.124991e+01
  -4.803645e+01   4.065280e+01
  -4.875551e+01  -1.373969e+00
  -3.618473e+01  -4.447811e+01
  -3.616093e+01  -3.628522e+01
  -5.478107e+01  -1.626408e+00
  -5.437352e+01  -3.157839e-01
  -2.804730e+01  -6.021872e+01
   2.371854e+01  -1.207350e+02
   1.000821e+02  -1.222077e+02
   1.290600e+02  -2.668121e+01
   9.743798e+01   7.333740e+01
   8.886826e+00   1.067614e+02
  -7.321922e+01   5.004317e+01
  -4.888345e+01  -1.019936e+01
   4.610045e+01  -1.705148e+01
   1.162543e+02   3.800219e+01
   6.777838e+01   1.027588e+02
  -6.928113e+01   9.059811e+01
  -1.755416e+02   4.610733e+01
  -1.416955e+02  -3.062541e+01
  -3.007954e+01  -6.994947e+01
   4.935606e+01  -5.674719e+01
   3.971678e+01  -7.327485e+00
  -3.092228e+01   2.217783e+01
  -7.873744e+01  -1.965236e+01
  -3.121209e+01  -9.431149e+01
   7.319640e+01  -1.231759e+02
   1.380554e+02  -4.602768e+01
   1.042708e+02   8.295283e+01
   1.432153e+01   1.545492e+02
  -6.733008e+01   1.270177e+02
  -8.154629e+01  -1.859838e+00
  -4.612621e+01  -1.018040e+02
  -4.763909e+00  -9.649217e+01
   3.680202e+01  -1.586600e+01
   4.761668e+01   2.357867e+01
   2.146738e+01   7.524912e+00
   3.529094e+00  -1.711178e+01
   1.353119e+01   1.041775e+01
   4.504560e+01   7.232627e+01
   3.130635e+01   1.001798e+02
  -3.641846e+01   3.688700e+01
  -1.185155e+02  -3.521498e+01
  -1.117414e+02  -5.741486e+01
  -1.515584e+01  -3.662517e+01
   7.585320e+01  -1.640882e+01
   7.609445e+01  -5.023922e+00
   9.521225e+00   5.281098e+00
  -3.167921e+01   2.016762e+01
  -1.089155e+01   1.763093e+01
   2.031719e+01  -9.585618e-01
  -4.522422e+00  -8.506052e+00
  -6.545949e+01  -2.700138e+00
  -7.872660e+01  -1.759398e+01
  -7.982719e+00  -7.179891e+01
   9.791060e+01  -1.027098e+02
   1.446875e+02  -3.949338e+01
   1.157354e+02   6.292957e+01
   2.005570e+01   1.292420e+02
  -7.688750e+01   1.366298e+02
  -9.318256e+01   4.875489e+01
  -6.712484e+01  -2.020390e+01
  -2.078423e+01  -3.144004e+01
   4.025446e+00  -5.829407e+00
  -8.445753e+00  -2.641391e+00
  -3.013156e+01  -3.842481e+01
  -2.226071e+01  -7.413938e+01
   2.343590e+01  -5.998693e+01
   6.964157e+01   1.429357e+01
   6.085171e+01   9.030225e+01
   4.341009e+00   9.667362e+01
  -6.680325e+01   1.615250e+01
  -8.483288e+01  -6.763102e+01
  -2.673163e+01  -8.231932e+01
   5.608660e+01  -4.309066e+01
   7.634359e+01   8.892623e+00
   3.467357e+01   4.183696e+01
  -3.070145e+01   4.223328e+01
  -2.421628e+01   2.476576e+01
   3.141599e+01   2.123263e+00
   5.676303e+01  -5.655081e+00
   1.276973e+01   2.050994e+01
  -6.722210e+01   5.387972e+01
  -9.417377e+01   4.937904e+01
  -5.664986e+01  -8.760968e+00
   1.417739e+01  -7.076194e+01
   4.250318e+01  -6.164678e+01
   2.733600e+01  -1.254755e+00
   2.027021e-01   4.933297e+01
  -1.946480e+01   3.388905e+01
  -3.002668e+01  -1.872883e+01
  -2.210406e+01  -4.623730e+01
   1.995980e+00  -2.660127e+01
   2.653383e+01   6.427734e+00
   3.337229e+01   1.656203e+01
   1.675001e+01   5.630945e-01
   1.866162e-01  -1.234181e+01
  -7.281791e+00   6.208991e-01
  -9.880556e+00   3.300657e+01
  -1.417993e+01   3.556098e+01
  -2.730088e+01   6.750086e+00
  -1.947661e+01  -3.837979e+01
  -1.413843e+00  -4.946622e+01
   3.817009e+01  -1.617101e+01
   4.745386e+01   3.185967e+01
   1.045204e+01   5.360128e+01
  -4.499654e+01   2.564103e+01
  -7.202508e+01  -1.286868e+01
  -3.967298e+01  -3.662462e+01
   2.313440e+01  -3.809622e+01
   5.224742e+01  -1.641755e+01
   1.963545e+01  -4.303946e+00
  -3.372927e+01  -4.490416e+00
  -3.324421e+01  -1.965285e+01
   2.771320e+01  -2.817929e+01
   7.864711e+01  -1.023929e+01
