
 $NMID
 id='ANONYMOUS ', fmtdat='(2E16.6)'
 volume=1.0
 tramp=1.0
 $END
  -3.654332e+03   8.020115e+01
  -2.098298e+03  -2.201258e+03
   5.341556e+02  -2.452765e+03
   1.744445e+03  -8.464851e+02
   8.742789e+02   8.017728e+02
  -5.987098e+02   5.327735e+02
  -7.512610e+02  -3.584265e+02
   1.447355e+01  -9.385019e+02
   7.299636e+02  -6.989009e+02
   8.458585e+02   1.359335e+02
   3.474559e+02   6.643039e+02
  -2.068402e+02   8.089558e+02
  -5.497940e+02   1.034996e+02
  -4.146917e+02  -6.166084e+02
   1.719982e+02  -5.527060e+02
   5.520088e+02   8.297462e+00
   2.560810e+02   5.709735e+02
  -2.652368e+02   5.454561e+02
  -5.189899e+02   4.882924e+01
  -3.095095e+02  -3.380112e+02
  -9.892734e+00  -3.815874e+02
   1.783204e+02  -1.955309e+02
   1.874820e+02  -9.793262e+00
  -1.164463e+02   8.055104e+01
  -3.698816e+02  -6.695160e+01
  -1.640256e+02  -3.789377e+02
   3.769736e+02  -3.550326e+02
   7.654856e+02  -1.747852e+01
   4.108364e+02   4.697758e+02
  -3.522806e+02   5.180485e+02
  -6.353970e+02  -4.127478e+00
  -3.334204e+02  -4.338922e+02
   2.241648e+02  -4.828280e+02
   4.448662e+02  -1.858807e+02
   4.015241e+02   2.033574e+02
   8.067150e+01   4.436801e+02
  -1.338343e+02   2.141374e+02
  -1.119769e+02  -1.518847e+02
   1.356247e+02  -3.875978e+02
   3.995926e+02   4.325881e+01
   2.303514e+02   5.591069e+02
  -3.070681e+02   5.882917e+02
  -5.740969e+02   3.294534e+01
  -2.684097e+02  -4.543777e+02
   2.204024e+02  -2.543774e+02
   3.767746e+02   2.550943e+02
  -3.061856e+01   4.554354e+02
  -4.427293e+02   1.136596e+02
  -5.247265e+02  -3.431055e+02
  -1.296655e+02  -4.880190e+02
   3.054637e+02  -2.579346e+02
   5.379878e+02   5.543311e+01
   3.216234e+02   3.386621e+02
  -1.138626e+02   3.048313e+02
  -3.896681e+02   7.259219e+01
  -2.101320e+02  -1.954651e+02
   1.292099e+02  -1.036710e+02
   1.456024e+02   1.197731e+02
  -1.404166e+02   1.771016e+02
  -2.941076e+02  -5.447791e+01
  -1.193754e+02  -2.263587e+02
   1.633006e+02  -2.342107e+02
   2.658560e+02  -6.705004e+01
   1.521280e+02   6.854422e+01
  -1.279747e+01   2.073737e+02
  -1.785475e+02   2.643831e+02
  -2.439765e+02   2.120579e+02
  -2.525758e+02  -1.086528e+02
  -7.034197e+01  -3.381971e+02
   1.102316e+02  -3.179752e+02
   1.079282e+02  -9.166461e+01
   2.798864e+01   3.408859e+01
   4.131101e+01  -7.916976e+01
   1.458091e+02  -1.335508e+02
   2.386857e+02   2.232858e+01
   1.473398e+02   2.335109e+02
  -5.848385e+01   2.515155e+02
  -1.994719e+02   1.802821e+01
  -1.753964e+02  -1.955288e+02
  -8.562062e+00  -2.420511e+02
   2.340661e+02  -1.023334e+02
   2.909861e+02   1.221106e+02
   1.558354e+02   3.012142e+02
  -7.105710e+01   2.665664e+02
  -1.820141e+02   1.171942e+02
  -1.302811e+02   7.713797e+00
  -6.249839e+01   2.671815e+01
  -1.844847e+02   6.435569e+01
  -3.436795e+02  -2.685241e+01
  -2.940991e+02  -2.106165e+02
  -2.646557e+01  -3.770578e+02
   2.899864e+02  -3.174134e+02
   4.129234e+02  -1.508049e+02
   2.819542e+02   6.423050e+01
   6.855387e+01   2.553763e+02
  -9.769746e+01   2.255655e+02
  -6.919316e+01   3.259734e+01
   1.038708e+02  -8.728859e+01
   1.654759e+02  -6.132612e-01
   3.974892e+01   1.476407e+02
  -1.144886e+02   1.394728e+02
  -1.498186e+02  -5.702026e+01
  -1.384355e+01  -1.744215e+02
   1.641616e+02  -2.925703e+01
   1.377876e+02   2.037964e+02
  -1.049559e+01   2.792313e+02
  -1.941199e+02   1.663726e+02
  -2.706708e+02  -3.805437e+01
  -2.321523e+02  -1.733601e+02
  -7.721101e+01  -2.234334e+02
   8.689789e+01  -1.406331e+02
   1.438547e+02  -2.048942e+01
   4.942509e+01   2.189583e+01
  -6.209125e+01  -2.422192e+01
  -3.290724e+01  -1.002472e+02
   1.027485e+02  -8.282157e+01
   1.611643e+02   7.708513e+00
   5.525592e+01   6.448189e+01
  -6.104903e+01   1.628461e+01
  -4.939076e+01  -5.560409e+01
   9.080541e+01  -7.812745e+01
   2.297600e+02  -8.339943e+00
   2.310085e+02   1.185245e+02
   7.676455e+01   2.063220e+02
  -1.545543e+02   2.092617e+02
  -2.315630e+02   1.050279e+02
  -1.409235e+02  -4.004598e+01
   1.096952e+01  -9.505155e+01
   7.429579e+01  -1.052071e+01
  -1.682704e+01   8.809385e+01
  -1.592447e+02   5.364365e+01
  -1.744062e+02  -7.680840e+01
  -5.902873e+01  -1.639742e+02
   8.036195e+01  -1.286526e+02
   1.151388e+02  -1.782172e+01
   6.511998e+01   3.276253e+01
  -1.572025e+01   6.323187e+00
  -2.813202e+01  -6.532812e+01
   5.066246e+01  -8.836406e+01
   1.542663e+02  -2.495906e+01
   1.745392e+02   1.008265e+02
   2.682461e+01   1.701308e+02
  -1.341959e+02   1.398100e+02
  -1.532462e+02   1.333519e+01
  -4.767302e+01  -8.831609e+01
   5.104023e+01  -9.073387e+01
   6.656563e+01  -2.949357e+01
   2.298547e+01   2.113577e+01
  -1.523754e+01   1.553283e+01
   7.849343e+00  -3.290638e+00
   5.668098e+01   9.968274e+00
   7.560673e+01   6.666486e+01
   1.271996e+01   1.233381e+02
  -9.716501e+01   1.294297e+02
  -1.666178e+02   1.409354e+01
  -1.869816e+02  -1.167933e+02
  -4.186752e+01  -1.938001e+02
   7.562107e+01  -1.410121e+02
   1.104600e+02  -1.886387e+01
   5.941239e+01   4.057206e+01
   2.475233e+01   3.062198e+01
   4.110661e+01  -1.165059e+01
   6.512024e+01  -8.032538e+00
   3.529305e+01   3.813245e+01
  -3.170049e+01   6.807879e+01
  -7.724024e+01   4.442196e+01
  -6.504547e+01  -3.903866e+01
   9.343790e+00  -9.381695e+01
   1.110619e+02  -6.579122e+01
   1.498299e+02   3.348328e+01
   9.083661e+01   1.598645e+02
  -7.316933e+01   1.822769e+02
  -2.371182e+02   9.124744e+01
  -2.385882e+02  -6.185064e+01
  -9.541625e+01  -1.353909e+02
   2.710947e+01  -1.149801e+02
   8.017183e+01  -6.954832e+01
   7.246559e+01  -6.564410e+01
   5.953989e+01  -6.967753e+01
   7.550651e+01  -6.222957e+01
   1.147463e+02   1.271172e+01
   1.049674e+02   1.322025e+02
   3.020760e+01   2.003121e+02
  -8.506818e+01   1.460248e+02
  -1.514611e+02   1.612527e+01
  -1.034922e+02  -9.686567e+01
  -1.612034e+01  -1.351357e+02
   5.265212e+01  -7.493492e+01
   4.900179e+01  -9.587704e+00
   7.110965e+00   3.315776e+01
  -3.526437e+00   2.748443e+01
   3.578268e+01   1.706868e+01
   6.823225e+01   1.549410e+01
   3.741268e+01   2.645582e+01
  -4.726518e+01   3.358281e+01
  -1.271976e+02   5.066380e+00
  -1.181246e+02  -3.502728e+01
  -1.661920e+01  -6.857062e+01
   1.048660e+02  -6.049767e+01
   1.198847e+02  -4.453026e+00
   4.465268e+01   2.750115e+01
  -4.662694e+01   3.641742e+01
  -6.159605e+01  -1.424829e+01
  -6.540313e+00  -5.036422e+01
   4.863046e+01  -4.429841e+01
   4.917848e+01   2.158504e+00
   3.498967e+01   3.995790e+01
   3.728631e+01   3.251566e+01
   5.310386e+01  -4.696771e-01
   5.185372e+01  -5.657764e-01
   2.631723e+01   6.028294e+01
  -1.637295e+01   1.177093e+02
  -9.901905e+01   1.225085e+02
  -1.216368e+02   2.402691e+01
  -1.026736e+02  -6.665805e+01
  -1.297956e+01  -1.005185e+02
   7.023975e+01  -5.270227e+01
   4.823530e+01   6.644541e+00
  -4.802272e+01   2.084982e+01
  -1.148990e+02  -3.668006e+01
  -7.046454e+01  -9.363566e+01
   6.433731e+01  -9.350350e+01
   1.616305e+02  -4.356165e+01
   1.348511e+02   2.711759e+01
   2.709814e+01   6.715226e+01
  -5.153907e+01   5.426241e+01
  -4.055911e+01   5.647105e+00
   3.046920e+01  -2.337156e+01
   7.545290e+01   2.087206e+01
   2.860542e+01   9.200970e+01
  -7.249318e+01   1.248235e+02
  -1.265760e+02   4.867759e+01
  -9.432731e+01  -8.457856e+01
  -1.202894e+01  -1.551468e+02
   5.763695e+01  -1.261337e+02
   7.981032e+01  -1.953750e+00
   4.559106e+01   9.227676e+01
   1.180683e+01   9.304532e+01
  -3.466303e+01   1.407498e+01
  -4.679641e+01  -1.940535e+01
  -2.237516e+01  -6.495609e+00
  -3.534869e+00   1.587250e+01
  -1.587620e+01  -9.484921e+00
  -4.670562e+01  -7.059278e+01
  -2.973908e+01  -9.761943e+01
   3.702252e+01  -3.787140e+01
   1.158047e+02   2.744775e+01
   1.100059e+02   4.711899e+01
   1.490054e+01   3.618617e+01
  -7.473389e+01   1.484090e+01
  -7.268926e+01   4.356668e+00
  -8.611003e+00  -4.136849e+00
   3.177052e+01  -2.111025e+01
   9.460002e+00  -1.678974e+01
  -1.878250e+01   1.744292e+00
   4.628366e+00   7.867116e+00
   6.709724e+01   1.358255e+00
   7.318710e+01   1.544842e+01
   4.681010e+00   6.740714e+01
  -9.450295e+01   1.034247e+02
  -1.388450e+02   4.147828e+01
  -1.111917e+02  -5.383882e+01
  -3.369170e+01  -1.238254e+02
   7.223799e+01  -1.345772e+02
   8.734077e+01  -5.025754e+01
   6.481291e+01   1.793006e+01
   1.960109e+01   3.165902e+01
  -3.315858e+00   7.688870e+00
   7.479166e+00   3.796156e+00
   3.039009e+01   3.741263e+01
   2.175176e+01   7.487928e+01
  -2.491073e+01   6.014368e+01
  -7.156402e+01  -1.037952e+01
  -6.530156e+01  -8.054025e+01
  -6.215343e+00  -9.307097e+01
   6.598021e+01  -1.999379e+01
   7.697228e+01   6.330048e+01
   3.230871e+01   7.689954e+01
  -5.657558e+01   4.934108e+01
  -7.386357e+01  -1.313747e+01
  -3.312620e+01  -4.031964e+01
   2.724899e+01  -4.159187e+01
   2.311886e+01  -2.517980e+01
  -2.968913e+01  -9.228499e-01
  -5.453548e+01   4.980535e+00
  -1.368403e+01  -2.010843e+01
   6.471439e+01  -5.433714e+01
   9.577504e+01  -5.717577e+01
   5.355186e+01   7.687716e+00
  -1.140536e+01   6.843956e+01
  -4.025122e+01   6.526847e+01
  -2.859016e+01   4.249852e+00
   1.588158e+00  -4.855262e+01
   1.637233e+01  -3.750651e+01
   3.088713e+01   1.685430e+01
   2.049295e+01   4.651816e+01
  -1.631966e+00   2.676646e+01
  -2.639831e+01  -8.236666e+00
  -3.187791e+01  -1.453664e+01
  -1.545073e+01   1.825367e-01
  -4.070195e-01   1.174457e+01
   5.358130e+00  -3.262213e+00
   9.104477e+00  -3.309387e+01
   1.204583e+01  -3.549348e+01
   2.550741e+01  -5.675833e+00
   2.217936e+01   3.406927e+01
   1.023473e+00   5.148340e+01
  -4.023003e+01   1.531183e+01
  -4.726119e+01  -2.779593e+01
  -1.103028e+01  -5.309495e+01
   4.334426e+01  -2.983130e+01
   6.962196e+01   8.440276e+00
   4.292250e+01   3.517807e+01
  -2.369324e+01   3.523644e+01
  -4.728239e+01   1.776551e+01
  -1.868811e+01   3.827558e+00
   3.405796e+01   4.753560e-01
   3.228909e+01   1.630567e+01
  -2.716652e+01   3.021548e+01
  -8.088380e+01   1.089869e+01
