
 $NMID
 id='ANONYMOUS ', fmtdat='(2E16.6)'
 volume=1.0
 tramp=1.0
 $END
   4.307013e+03  -4.246350e+01
   2.902163e+03   2.998244e+03
  -1.007133e+03   3.064106e+03
  -2.272441e+03   8.578294e+02
  -1.116890e+03  -8.254296e+02
   8.523332e+02  -7.424436e+02
   1.014453e+03   4.997992e+02
   3.411121e+01   1.069777e+03
  -9.702484e+02   8.173007e+02
  -1.088284e+03  -6.095142e+01
  -5.544920e+02  -9.127565e+02
   2.424910e+02  -1.048520e+03
   7.450639e+02  -1.345065e+02
   3.981170e+02   8.367024e+02
  -2.662946e+02   7.923805e+02
  -7.096420e+02  -2.595536e+01
  -2.862661e+02  -7.754943e+02
   3.599170e+02  -6.595639e+02
   6.382213e+02  -1.492586e+01
   3.651966e+02   3.768393e+02
   9.650110e+00   4.632776e+02
  -2.586027e+02   2.720435e+02
  -2.491733e+02  -1.166470e+00
   8.807437e+01  -1.060432e+02
   4.275096e+02   8.148342e+01
   2.872558e+02   4.766187e+02
  -4.835370e+02   4.878844e+02
  -8.984695e+02  -8.618155e+01
  -5.593603e+02  -5.352226e+02
   4.195335e+02  -5.422466e+02
   7.549343e+02   3.938232e+01
   3.857366e+02   5.078395e+02
  -3.050185e+02   5.510239e+02
  -5.947519e+02   2.621038e+02
  -4.293520e+02  -2.163719e+02
  -7.239944e+01  -5.110978e+02
   2.182302e+02  -3.128036e+02
   1.967758e+02   2.231396e+02
  -1.993294e+02   5.164811e+02
  -4.524570e+02   1.004551e+01
  -2.856169e+02  -6.560208e+02
   2.855503e+02  -7.537934e+02
   7.322477e+02  -2.515541e+01
   3.134189e+02   6.645710e+02
  -3.372214e+02   3.746684e+02
  -4.507454e+02  -3.388208e+02
   6.581080e+01  -6.447563e+02
   5.822933e+02  -1.629994e+02
   6.505287e+02   4.465050e+02
   1.831731e+02   6.527546e+02
  -4.029286e+02   3.683300e+02
  -7.327597e+02  -2.909297e+01
  -4.131903e+02  -3.864597e+02
   1.151754e+02  -4.076993e+02
   4.709687e+02  -8.985013e+01
   2.623048e+02   2.183106e+02
  -1.570139e+02   1.200571e+02
  -1.875609e+02  -1.861362e+02
   1.709595e+02  -1.934685e+02
   3.854769e+02   7.325721e+01
   1.669297e+02   3.466643e+02
  -2.046565e+02   2.645427e+02
  -3.405268e+02   7.119922e+01
  -1.802748e+02  -8.278404e+01
   3.885861e+01  -2.219715e+02
   2.393595e+02  -3.108262e+02
   3.418601e+02  -2.414477e+02
   3.278323e+02   1.375322e+02
   9.265413e+01   4.489065e+02
  -1.399928e+02   4.284431e+02
  -1.287324e+02   9.041070e+01
  -4.202131e+01  -4.227093e+01
  -3.776571e+01   6.769846e+01
  -1.871513e+02   1.540137e+02
  -2.983038e+02  -2.545183e+01
  -1.976731e+02  -2.854377e+02
   4.455909e+01  -2.870506e+02
   2.466063e+02  -2.690806e+01
   2.244350e+02   2.033854e+02
  -2.802720e+00   3.239638e+02
  -2.629332e+02   1.236623e+02
  -3.930611e+02  -1.761714e+02
  -2.388685e+02  -3.723320e+02
   9.637639e+01  -3.308314e+02
   2.432941e+02  -1.329916e+02
   1.685627e+02  -9.865036e+00
   8.996647e+01  -3.088480e+01
   2.306258e+02  -6.648263e+01
   4.170965e+02   5.881494e+01
   3.341829e+02   2.640574e+02
   6.956351e+00   4.325827e+02
  -3.534720e+02   4.590444e+02
  -4.979083e+02   2.526078e+02
  -3.618913e+02  -8.568901e+01
  -7.443013e+01  -3.054971e+02
   1.186576e+02  -2.611233e+02
   1.057152e+02  -4.049079e+01
  -1.029343e+02   1.114483e+02
  -2.210209e+02   1.482579e+01
  -6.219396e+01  -2.110406e+02
   1.651897e+02  -1.935177e+02
   1.909204e+02   5.613343e+01
  -1.475120e+01   2.140086e+02
  -2.117204e+02   5.034555e+01
  -1.717850e+02  -2.534090e+02
   3.621790e+01  -3.623482e+02
   2.364004e+02  -1.880107e+02
   3.103058e+02   6.269682e+01
   2.880925e+02   2.461159e+02
   7.558488e+01   2.732400e+02
  -1.071549e+02   1.753981e+02
  -1.934905e+02   2.971165e+01
  -7.114731e+01  -3.801078e+01
   7.107720e+01   2.974622e+01
   3.519826e+01   1.354431e+02
  -1.247347e+02   1.123753e+02
  -1.854721e+02  -1.199859e+01
  -7.394362e+01  -7.941004e+01
   7.393655e+01  -2.772630e+01
   6.274680e+01   7.399273e+01
  -1.175175e+02   8.288656e+01
  -2.848607e+02   7.204766e+00
  -2.559059e+02  -1.185079e+02
  -7.045485e+01  -2.530416e+02
   1.873648e+02  -2.475416e+02
   2.929727e+02  -1.600689e+02
   2.028602e+02   5.361187e+01
  -2.382756e+01   1.242057e+02
  -9.679571e+01   1.868447e+01
   3.313178e+01  -1.056819e+02
   2.001094e+02  -7.280812e+01
   2.234941e+02   1.024725e+02
   1.040448e+02   2.059768e+02
  -8.888507e+01   1.712802e+02
  -1.542416e+02   3.316673e+01
  -8.200886e+01  -4.198893e+01
   2.085461e+01  -9.615278e+00
   3.841350e+01   7.955308e+01
  -6.708644e+01   1.091994e+02
  -2.005070e+02   2.981638e+01
  -1.936365e+02  -1.103396e+02
  -3.252160e+01  -2.217650e+02
   1.713524e+02  -1.859872e+02
   2.116776e+02  -1.147076e+00
   7.610991e+01   1.219027e+02
  -8.590853e+01   1.293587e+02
  -8.900519e+01   3.035346e+01
  -2.536702e+01  -2.454272e+01
   1.961567e+01  -1.482424e+01
  -1.172261e+01   3.184141e+00
  -5.858139e+01  -1.498124e+01
  -8.482448e+01  -7.990613e+01
  -1.102980e+01  -1.497495e+02
   1.194031e+02  -1.599462e+02
   2.490690e+02  -3.216265e+01
   2.008097e+02   1.544866e+02
   5.159722e+01   2.535117e+02
  -1.140446e+02   1.812476e+02
  -1.464350e+02   2.757070e+01
  -6.865423e+01  -6.427736e+01
  -2.818966e+01  -3.968427e+01
  -5.469047e+01   1.234150e+01
  -7.460935e+01   9.013726e+00
  -3.743746e+01  -5.149316e+01
   4.621133e+01  -8.717368e+01
   1.057067e+02  -5.809046e+01
   8.248166e+01   3.618620e+01
  -1.817653e+01   1.050613e+02
  -1.391409e+02   9.264851e+01
  -2.098832e+02  -3.332660e+01
  -9.953937e+01  -2.077144e+02
   1.141335e+02  -2.424740e+02
   2.488425e+02  -1.328333e+02
   2.668287e+02   7.993716e+01
   1.132782e+02   1.827996e+02
  -4.039368e+01   1.545257e+02
  -9.552702e+01   8.624330e+01
  -8.288164e+01   7.006729e+01
  -7.522570e+01   8.596755e+01
  -9.068619e+01   7.142706e+01
  -1.281260e+02  -2.469814e+01
  -1.311355e+02  -1.470721e+02
  -2.834278e+01  -2.189743e+02
   8.832998e+01  -1.751943e+02
   1.753859e+02  -3.971549e+01
   1.476845e+02   1.162230e+02
   2.392142e+01   1.641205e+02
  -6.643971e+01   9.941836e+01
  -6.149786e+01   8.850865e+00
  -5.732402e+00  -3.922660e+01
   6.212855e+00  -3.760534e+01
  -3.981192e+01  -1.877948e+01
  -8.006649e+01  -2.353023e+01
  -4.437833e+01  -3.702143e+01
   5.965179e+01  -4.096968e+01
   1.547460e+02  -9.139919e+00
   1.405044e+02   4.769075e+01
   1.932556e+01   7.945153e+01
  -1.129529e+02   6.233178e+01
  -1.462412e+02   1.488217e+01
  -5.230142e+01  -3.949380e+01
   6.197965e+01  -3.459528e+01
   8.274522e+01   1.626758e+01
   2.450731e+00   6.992961e+01
  -5.439111e+01   5.749650e+01
  -6.757417e+01  -2.291125e+00
  -3.565714e+01  -5.293797e+01
  -4.518400e+01  -4.310605e+01
  -6.538871e+01  -4.004043e+00
  -6.899507e+01   1.373836e+00
  -3.065147e+01  -6.935965e+01
   2.951665e+01  -1.490653e+02
   1.061034e+02  -1.314120e+02
   1.565754e+02  -3.681935e+01
   1.161185e+02   8.689439e+01
   1.191184e+01   1.271265e+02
  -8.171995e+01   6.024018e+01
  -6.188870e+01  -1.685168e+01
   5.558703e+01  -2.266833e+01
   1.380951e+02   4.581608e+01
   8.858140e+01   1.087568e+02
  -7.250011e+01   1.159700e+02
  -1.864550e+02   5.321073e+01
  -1.713764e+02  -2.592565e+01
  -3.869538e+01  -8.293025e+01
   5.999877e+01  -7.927749e+01
   4.577050e+01  -1.033979e+01
  -3.728682e+01   2.489616e+01
  -8.949955e+01  -1.910535e+01
  -2.623991e+01  -1.294967e+02
   8.697656e+01  -1.548872e+02
   1.784887e+02  -6.778169e+01
   1.307039e+02   9.930955e+01
   1.323946e+01   2.065680e+02
  -8.141115e+01   1.441884e+02
  -1.060768e+02  -7.520722e+00
  -7.280146e+01  -1.197088e+02
   1.829284e+00  -1.044825e+02
   5.104476e+01  -2.104217e+01
   5.621641e+01   2.743914e+01
   2.803640e+01   8.938388e+00
   5.125848e+00  -2.065340e+01
   1.921383e+01   1.069143e+01
   5.566954e+01   9.447027e+01
   4.432914e+01   1.041178e+02
  -4.531880e+01   4.566113e+01
  -1.381082e+02  -3.364939e+01
  -1.386251e+02  -7.519295e+01
  -1.733955e+01  -5.056546e+01
   8.772919e+01  -2.389108e+01
   9.459278e+01  -1.619162e+01
   9.556725e+00   8.569268e+00
  -3.939239e+01   2.230907e+01
  -1.122978e+01   1.954546e+01
   2.376178e+01  -9.629298e-01
  -6.057765e+00  -1.025982e+01
  -7.925666e+01  -6.763609e+00
  -9.651585e+01  -2.023467e+01
  -9.669944e+00  -8.236893e+01
   1.264446e+02  -1.083255e+02
   2.020839e+02  -6.280842e+01
   1.503572e+02   7.005452e+01
   2.110597e+01   1.722601e+02
  -6.475268e+01   1.445380e+02
  -1.168619e+02   5.754985e+01
  -7.898293e+01  -2.227297e+01
  -2.723876e+01  -3.190160e+01
   4.431364e+00  -6.991510e+00
  -9.126565e+00  -2.279065e+00
  -3.371764e+01  -4.305714e+01
  -2.822750e+01  -8.868175e+01
   2.441635e+01  -7.003542e+01
   8.057761e+01   2.150181e+01
   7.142310e+01   1.069579e+02
   4.302186e-01   1.117623e+02
  -8.226269e+01   2.797610e+01
  -1.030733e+02  -8.153846e+01
  -3.098383e+01  -1.048032e+02
   6.143376e+01  -5.404578e+01
   1.082826e+02   1.354978e+01
   3.660447e+01   4.887951e+01
  -2.879382e+01   4.965944e+01
  -2.948133e+01   3.008187e+01
   3.722722e+01  -1.962427e+00
   7.294962e+01  -1.134298e+00
   1.407263e+01   2.453154e+01
  -7.600051e+01   6.292155e+01
  -1.116161e+02   7.051287e+01
  -6.247758e+01  -1.181826e+01
   2.163729e+01  -8.061263e+01
   5.017084e+01  -7.794464e+01
   3.660735e+01  -3.751238e+00
   5.900839e-02   5.473183e+01
  -2.784916e+01   4.354859e+01
  -3.886238e+01  -1.975369e+01
  -2.656284e+01  -5.342912e+01
   3.628551e+00  -3.189294e+01
   3.295758e+01   7.066952e+00
   4.076322e+01   2.212626e+01
   1.997122e+01  -5.077557e-01
   5.153020e-01  -1.330391e+01
  -3.295287e+00   5.034944e+00
  -1.012553e+01   4.009273e+01
  -2.176442e+01   4.288529e+01
  -3.670615e+01   5.674560e+00
  -3.338345e+01  -4.952099e+01
   6.364692e+00  -6.044680e+01
   4.720337e+01  -2.123566e+01
   5.233145e+01   4.270590e+01
   1.457998e+01   6.358957e+01
  -5.741121e+01   3.546027e+01
  -8.546576e+01  -1.719844e+01
  -4.902617e+01  -4.399260e+01
   2.881958e+01  -4.030085e+01
   6.756960e+01  -1.765429e+01
   2.566339e+01  -3.319217e+00
  -3.806765e+01  -5.725081e+00
  -3.921695e+01  -1.648485e+01
   2.768567e+01  -3.428968e+01
   9.433721e+01  -2.423920e+01
