
 $NMID
 id='ANONYMOUS ', fmtdat='(2E16.6)'
 volume=1.0
 tramp=1.0
 $END
   4.303966e+03  -5.070153e+01
   2.709425e+03   2.707343e+03
  -1.060849e+03   2.927927e+03
  -2.240466e+03   8.189339e+02
  -1.020668e+03  -8.762995e+02
   9.213376e+02  -8.841977e+02
   1.028111e+03   4.893702e+02
  -4.108793e+01   1.092135e+03
  -9.247512e+02   8.592982e+02
  -1.054510e+03  -5.509542e+01
  -5.126849e+02  -9.247460e+02
   2.747264e+02  -1.014553e+03
   7.261411e+02  -1.345096e+02
   3.436319e+02   8.515321e+02
  -2.510593e+02   7.962840e+02
  -6.553574e+02  -4.406812e+01
  -2.314050e+02  -7.823724e+02
   3.817403e+02  -6.608355e+02
   6.398069e+02  -3.597266e+01
   3.339820e+02   3.992456e+02
  -6.425386e+00   4.664643e+02
  -2.857583e+02   2.866448e+02
  -2.512009e+02  -1.299534e+01
   5.607921e+01  -9.596206e+01
   4.279014e+02   1.072426e+02
   2.400793e+02   4.467501e+02
  -4.908328e+02   5.165683e+02
  -9.223972e+02  -1.101824e+02
  -5.422581e+02  -5.480633e+02
   4.467582e+02  -5.147893e+02
   7.637466e+02   2.000032e+01
   3.805192e+02   5.305059e+02
  -3.191624e+02   5.437333e+02
  -5.843774e+02   2.709609e+02
  -4.297298e+02  -2.456510e+02
  -3.471532e+01  -5.160196e+02
   2.214125e+02  -3.267092e+02
   2.124349e+02   2.175667e+02
  -1.376085e+02   4.968328e+02
  -4.622441e+02   3.384402e+01
  -3.262792e+02  -6.843862e+02
   3.129423e+02  -7.164070e+02
   7.627044e+02  -1.409694e+01
   3.438851e+02   6.618403e+02
  -3.548470e+02   3.764103e+02
  -4.484053e+02  -3.729589e+02
   6.681536e+01  -6.355990e+02
   5.724964e+02  -1.887691e+02
   6.324071e+02   4.191911e+02
   1.879796e+02   6.618008e+02
  -4.051811e+02   4.031099e+02
  -6.546607e+02  -5.445518e+01
  -3.902017e+02  -3.526960e+02
   1.275552e+02  -3.792306e+02
   4.897504e+02  -5.993659e+01
   2.429492e+02   2.188802e+02
  -1.454747e+02   1.100676e+02
  -1.691189e+02  -1.935424e+02
   1.728476e+02  -1.941852e+02
   3.606836e+02   8.241220e+01
   1.609385e+02   3.207489e+02
  -2.211879e+02   2.587629e+02
  -3.354503e+02   5.766544e+01
  -1.831372e+02  -9.179908e+01
   5.428668e+01  -2.015518e+02
   2.300773e+02  -2.988119e+02
   3.388285e+02  -2.116363e+02
   3.266860e+02   1.345819e+02
   7.922703e+01   4.408870e+02
  -1.439958e+02   4.181973e+02
  -1.371290e+02   8.798821e+01
  -3.846537e+01  -3.359184e+01
  -3.816647e+01   6.576784e+01
  -1.876053e+02   1.519427e+02
  -2.933012e+02  -3.235365e+01
  -1.964265e+02  -2.696293e+02
   5.548449e+01  -2.826404e+02
   2.368183e+02  -2.585568e+01
   2.278316e+02   2.105418e+02
   5.172600e+00   3.124389e+02
  -2.612316e+02   1.210132e+02
  -3.796646e+02  -1.814381e+02
  -2.275139e+02  -3.579528e+02
   1.118204e+02  -3.302878e+02
   2.467943e+02  -1.265368e+02
   1.561097e+02  -3.926259e+00
   8.260086e+01  -3.005308e+01
   2.226709e+02  -6.449438e+01
   4.160462e+02   5.358480e+01
   3.287151e+02   2.672173e+02
  -2.320692e+00   4.414442e+02
  -3.336010e+02   4.520512e+02
  -4.867550e+02   2.344070e+02
  -3.604453e+02  -8.084052e+01
  -7.633443e+01  -3.036247e+02
   1.282269e+02  -2.542615e+02
   1.094230e+02  -4.678164e+01
  -9.673601e+01   1.303079e+02
  -2.028709e+02   1.159393e+00
  -5.635682e+01  -2.079064e+02
   1.663909e+02  -2.028470e+02
   1.821154e+02   5.983815e+01
  -2.638468e+01   2.051876e+02
  -2.004996e+02   4.746863e+01
  -1.659457e+02  -2.546166e+02
   2.689497e+01  -3.668343e+02
   2.299473e+02  -1.861140e+02
   3.031020e+02   8.403198e+01
   2.866909e+02   2.349054e+02
   7.721057e+01   2.662221e+02
  -1.082635e+02   1.707310e+02
  -1.841994e+02   2.572824e+01
  -6.930523e+01  -3.322490e+01
   7.113533e+01   3.033579e+01
   3.373109e+01   1.340718e+02
  -1.258477e+02   1.074678e+02
  -1.912500e+02  -1.101031e+01
  -7.099286e+01  -7.688850e+01
   8.151824e+01  -3.193860e+01
   5.732550e+01   7.521253e+01
  -1.138526e+02   8.804862e+01
  -2.697655e+02   1.525048e+01
  -2.424899e+02  -1.177400e+02
  -6.870104e+01  -2.484936e+02
   1.663568e+02  -2.534128e+02
   2.812571e+02  -1.474096e+02
   1.913377e+02   5.842513e+01
  -2.455910e+01   1.209712e+02
  -9.818485e+01   2.080501e+01
   3.302232e+01  -1.014518e+02
   1.894474e+02  -7.430419e+01
   2.136712e+02   1.032592e+02
   1.067481e+02   2.003834e+02
  -9.136578e+01   1.592379e+02
  -1.499926e+02   3.541780e+01
  -8.470821e+01  -4.250968e+01
   1.961603e+01  -1.075863e+01
   4.022940e+01   7.270420e+01
  -6.137087e+01   1.110442e+02
  -2.048685e+02   3.835759e+01
  -1.872537e+02  -1.062038e+02
  -2.260695e+01  -2.263350e+02
   1.666896e+02  -1.927647e+02
   2.096556e+02   1.266364e+00
   8.136917e+01   1.172231e+02
  -7.569515e+01   1.234775e+02
  -9.141294e+01   3.200893e+01
  -2.549734e+01  -2.538831e+01
   1.840034e+01  -1.592790e+01
  -1.277970e+01   8.902086e-01
  -5.929367e+01  -1.397847e+01
  -8.304090e+01  -7.985730e+01
  -3.203726e+00  -1.389647e+02
   1.214922e+02  -1.615111e+02
   2.285593e+02  -3.447625e+01
   1.989256e+02   1.446214e+02
   4.053184e+01   2.405048e+02
  -1.111082e+02   1.702792e+02
  -1.415417e+02   2.893527e+01
  -7.010437e+01  -6.157003e+01
  -2.745333e+01  -4.309972e+01
  -5.214366e+01   1.182902e+01
  -7.246810e+01   5.792527e+00
  -3.433621e+01  -4.913569e+01
   4.921352e+01  -8.615010e+01
   1.016645e+02  -5.397506e+01
   7.542878e+01   3.366074e+01
  -2.119286e+01   1.007095e+02
  -1.371302e+02   8.812907e+01
  -2.021204e+02  -3.343899e+01
  -1.073061e+02  -1.964468e+02
   1.165084e+02  -2.374338e+02
   2.435619e+02  -1.173742e+02
   2.611182e+02   8.702525e+01
   1.102763e+02   1.872267e+02
  -3.562627e+01   1.567311e+02
  -1.007899e+02   8.790178e+01
  -8.436432e+01   6.566811e+01
  -7.314553e+01   8.792287e+01
  -8.941154e+01   6.141717e+01
  -1.286454e+02  -2.706553e+01
  -1.114245e+02  -1.492789e+02
  -2.366808e+01  -2.165666e+02
   9.424479e+01  -1.766546e+02
   1.765507e+02  -2.687614e+01
   1.405432e+02   1.120673e+02
   2.437529e+01   1.529118e+02
  -6.962989e+01   9.988067e+01
  -6.201479e+01   9.576712e+00
  -6.841398e+00  -3.519032e+01
   3.498683e+00  -3.292416e+01
  -3.994902e+01  -1.945314e+01
  -7.572439e+01  -2.159408e+01
  -4.269327e+01  -3.684683e+01
   5.755291e+01  -3.772196e+01
   1.505367e+02  -9.207861e+00
   1.392446e+02   4.974101e+01
   1.758389e+01   7.996591e+01
  -1.120620e+02   5.773117e+01
  -1.457197e+02   1.877912e+01
  -4.956868e+01  -3.745654e+01
   6.170467e+01  -3.383699e+01
   7.962634e+01   1.623454e+01
   4.078974e+00   7.102536e+01
  -5.707454e+01   5.472826e+01
  -6.363401e+01  -3.913867e+00
  -3.531070e+01  -5.123284e+01
  -4.158586e+01  -4.367035e+01
  -6.381236e+01  -2.361088e+00
  -6.693122e+01   1.176638e+00
  -2.958372e+01  -6.738604e+01
   3.044516e+01  -1.449709e+02
   1.076476e+02  -1.241691e+02
   1.505069e+02  -2.896158e+01
   1.109217e+02   8.957660e+01
   1.057967e+01   1.230925e+02
  -8.067296e+01   5.689612e+01
  -5.867843e+01  -1.471825e+01
   5.435626e+01  -1.881148e+01
   1.366295e+02   4.419228e+01
   8.500403e+01   1.062076e+02
  -7.587976e+01   1.169500e+02
  -1.783341e+02   5.290354e+01
  -1.625412e+02  -2.506590e+01
  -3.723820e+01  -8.165707e+01
   5.796223e+01  -7.510443e+01
   4.479423e+01  -7.129164e+00
  -3.700356e+01   2.361875e+01
  -8.588778e+01  -1.919218e+01
  -2.320727e+01  -1.171597e+02
   9.125685e+01  -1.502302e+02
   1.748795e+02  -6.165008e+01
   1.237182e+02   1.022864e+02
   6.100485e+00   1.946874e+02
  -9.180997e+01   1.354964e+02
  -1.013639e+02  -3.956498e+00
  -6.893369e+01  -1.143035e+02
  -2.254704e+00  -1.062208e+02
   4.659796e+01  -2.054468e+01
   5.425101e+01   2.719997e+01
   2.741681e+01   8.973321e+00
   3.818867e+00  -2.042865e+01
   1.676876e+01   1.134544e+01
   5.168532e+01   8.992860e+01
   4.118916e+01   1.028464e+02
  -4.710508e+01   4.607235e+01
  -1.284265e+02  -3.771205e+01
  -1.322574e+02  -7.839447e+01
  -1.773930e+01  -4.864422e+01
   8.813985e+01  -1.832000e+01
   8.831547e+01  -1.485428e+01
   9.229027e+00   7.593299e+00
  -3.873905e+01   1.993816e+01
  -1.071433e+01   2.131364e+01
   2.431632e+01  -4.322757e-01
  -6.761368e+00  -1.018967e+01
  -7.940815e+01  -7.044064e+00
  -9.463701e+01  -2.372368e+01
  -6.210459e+00  -7.908195e+01
   1.219362e+02  -9.969451e+01
   1.923508e+02  -6.190763e+01
   1.397333e+02   6.953835e+01
   1.909915e+01   1.711349e+02
  -7.506179e+01   1.387972e+02
  -1.179195e+02   5.352419e+01
  -7.909473e+01  -2.280224e+01
  -2.528344e+01  -3.103380e+01
   4.588894e+00  -6.500411e+00
  -8.241663e+00  -1.362032e+00
  -3.028697e+01  -4.146888e+01
  -2.402864e+01  -8.662715e+01
   2.604256e+01  -6.494801e+01
   8.234258e+01   2.483659e+01
   7.039189e+01   1.057229e+02
  -1.951210e+00   1.039254e+02
  -8.582679e+01   2.393231e+01
  -1.057985e+02  -7.469943e+01
  -3.021513e+01  -1.063755e+02
   6.278585e+01  -4.631357e+01
   1.019154e+02   1.391410e+01
   3.677936e+01   4.544755e+01
  -3.119241e+01   4.640964e+01
  -2.989628e+01   2.850870e+01
   3.654369e+01   3.846775e-01
   7.015313e+01  -6.935772e-01
   1.365104e+01   2.534392e+01
  -7.799315e+01   5.948758e+01
  -1.119730e+02   6.530472e+01
  -6.136308e+01  -9.641145e+00
   2.042715e+01  -7.627433e+01
   4.828961e+01  -7.040823e+01
   3.575310e+01  -4.556586e+00
  -1.932717e+00   5.651983e+01
  -2.728754e+01   4.231725e+01
  -3.624228e+01  -2.203284e+01
  -2.205243e+01  -5.339671e+01
   4.001652e+00  -3.071849e+01
   3.131849e+01   8.342103e+00
   3.857581e+01   2.080804e+01
   1.933226e+01   4.368001e-01
   1.377315e+00  -1.204152e+01
  -3.602918e+00   5.959451e+00
  -1.075877e+01   3.885318e+01
  -2.254753e+01   3.969850e+01
  -3.434869e+01   6.999380e+00
  -3.394412e+01  -4.958546e+01
   1.123171e+01  -5.694880e+01
   4.459714e+01  -1.793463e+01
   5.191206e+01   3.899113e+01
   1.212896e+01   6.039827e+01
  -5.400598e+01   3.424359e+01
  -8.209701e+01  -1.348393e+01
  -4.615046e+01  -4.221020e+01
   2.897713e+01  -3.795518e+01
   6.308711e+01  -1.713792e+01
   2.415226e+01  -4.088683e+00
  -4.005251e+01  -5.918332e+00
  -3.732273e+01  -1.865315e+01
   3.173246e+01  -3.232533e+01
   9.215561e+01  -2.105988e+01
