
 $NMID
 id='ANONYMOUS ', fmtdat='(2E16.6)'
 volume=1.0
 tramp=1.0
 $END
  -4.438724e+03   6.396418e+01
  -3.056463e+03  -2.842103e+03
   9.648623e+02  -3.032556e+03
   2.420458e+03  -9.243819e+02
   9.741491e+02   8.313551e+02
  -7.977051e+02   7.132895e+02
  -1.014741e+03  -4.558563e+02
  -2.146435e+01  -1.171736e+03
   9.034667e+02  -8.861645e+02
   1.072545e+03   7.736874e+01
   4.673799e+02   9.099419e+02
  -3.173126e+02   9.663369e+02
  -6.896253e+02   1.209714e+02
  -4.111758e+02  -8.521842e+02
   2.392958e+02  -7.833545e+02
   7.003855e+02   1.991605e+01
   2.206985e+02   7.345267e+02
  -3.698055e+02   6.891668e+02
  -6.617295e+02   2.940703e+01
  -3.820053e+02  -4.207039e+02
   2.681221e+00  -4.473114e+02
   2.655532e+02  -2.858045e+02
   2.647154e+02  -9.338214e+00
  -8.833739e+01   8.324575e+01
  -4.428375e+02  -1.041697e+02
  -2.228746e+02  -5.003425e+02
   4.231598e+02  -4.820280e+02
   9.521571e+02   6.039308e+01
   4.394423e+02   5.451356e+02
  -4.554359e+02   5.387888e+02
  -7.711655e+02  -4.702236e+01
  -3.886985e+02  -5.441097e+02
   3.461844e+02  -5.533059e+02
   5.402084e+02  -2.349250e+02
   4.237773e+02   2.556926e+02
   5.974610e+01   5.177310e+02
  -2.157449e+02   3.321237e+02
  -1.858628e+02  -2.353780e+02
   1.535231e+02  -5.487985e+02
   4.904003e+02   3.504694e+01
   3.167785e+02   6.670056e+02
  -3.211467e+02   7.558792e+02
  -7.109905e+02  -1.295749e+01
  -2.952137e+02  -6.360812e+02
   3.154330e+02  -3.627809e+02
   4.435279e+02   3.728231e+02
  -7.105806e+01   6.342877e+02
  -5.581127e+02   1.568386e+02
  -6.754445e+02  -4.875221e+02
  -1.938253e+02  -6.703682e+02
   3.887533e+02  -3.685782e+02
   7.098324e+02   6.723914e+01
   4.108604e+02   3.943083e+02
  -1.570143e+02   3.938121e+02
  -4.786614e+02   6.663197e+01
  -2.243861e+02  -2.304300e+02
   1.500180e+02  -1.317182e+02
   1.667613e+02   1.931720e+02
  -1.950689e+02   1.906388e+02
  -3.905768e+02  -9.141860e+01
  -1.782261e+02  -3.435434e+02
   2.095243e+02  -2.758754e+02
   3.340471e+02  -7.247343e+01
   1.760031e+02   7.921167e+01
  -4.714823e+01   2.266144e+02
  -2.255106e+02   3.581664e+02
  -3.285671e+02   2.453238e+02
  -3.163500e+02  -1.529065e+02
  -1.080028e+02  -4.621640e+02
   1.252604e+02  -4.429854e+02
   1.463230e+02  -1.000571e+02
   1.431513e+01   2.877082e+01
   3.945965e+01  -6.756997e+01
   1.810145e+02  -1.612459e+02
   2.864587e+02   5.359027e+01
   1.764013e+02   2.835623e+02
  -6.450936e+01   2.822614e+02
  -2.488621e+02   3.951636e+01
  -1.924168e+02  -2.166745e+02
  -1.715875e+00  -3.245011e+02
   2.630833e+02  -1.268329e+02
   3.825138e+02   1.737378e+02
   2.269764e+02   3.658515e+02
  -1.161610e+02   3.184772e+02
  -2.517433e+02   1.116004e+02
  -1.672898e+02   1.214636e-01
  -9.230870e+01   3.141390e+01
  -2.195012e+02   5.747925e+01
  -4.317130e+02  -5.464346e+01
  -3.519163e+02  -2.704500e+02
  -3.002084e+00  -4.354424e+02
   3.519128e+02  -4.441136e+02
   5.044564e+02  -2.345794e+02
   3.464843e+02   8.844625e+01
   5.604944e+01   3.091487e+02
  -1.448461e+02   2.710597e+02
  -1.010148e+02   2.936726e+01
   9.742271e+01  -1.245010e+02
   2.221500e+02  -6.552161e-01
   6.369760e+01   2.237671e+02
  -1.762628e+02   1.977827e+02
  -2.042741e+02  -6.708539e+01
   1.207666e+01  -2.219452e+02
   2.132559e+02  -2.855440e+01
   1.731242e+02   2.489368e+02
  -4.306258e+01   3.578514e+02
  -2.343432e+02   1.701632e+02
  -3.300905e+02  -5.509315e+01
  -2.757649e+02  -2.527829e+02
  -1.083403e+02  -2.656072e+02
   1.026282e+02  -1.676955e+02
   1.870259e+02  -2.511860e+01
   6.743981e+01   4.115111e+01
  -7.594116e+01  -3.097928e+01
  -3.905019e+01  -1.293310e+02
   1.256181e+02  -1.208162e+02
   1.886302e+02   7.740747e+00
   7.453126e+01   7.964907e+01
  -7.813042e+01   2.403553e+01
  -6.525169e+01  -7.227292e+01
   1.209177e+02  -8.594713e+01
   2.877301e+02  -2.404274e+01
   2.585359e+02   1.408284e+02
   5.999836e+01   2.704687e+02
  -1.833904e+02   2.722515e+02
  -3.170161e+02   1.353309e+02
  -1.891335e+02  -5.993216e+01
   1.845970e+01  -1.291479e+02
   9.257785e+01  -6.831680e+00
  -2.805371e+01   1.087651e+02
  -1.957155e+02   6.735735e+01
  -2.341648e+02  -1.012233e+02
  -8.884136e+01  -2.182251e+02
   9.691684e+01  -1.648209e+02
   1.537376e+02  -3.322307e+01
   8.373083e+01   4.642908e+01
  -2.525313e+01   1.485986e+01
  -4.191953e+01  -7.845162e+01
   6.872669e+01  -1.144594e+02
   2.034811e+02  -3.420143e+01
   1.924713e+02   1.245323e+02
   2.941355e+01   2.256937e+02
  -1.753013e+02   1.767499e+02
  -2.101080e+02   4.683776e+00
  -6.934708e+01  -1.155610e+02
   7.651812e+01  -1.264947e+02
   8.713709e+01  -3.512643e+01
   2.316897e+01   2.691892e+01
  -1.847529e+01   1.828011e+01
   1.132536e+01  -4.487836e+00
   6.036972e+01   7.621866e+00
   8.381267e+01   8.049869e+01
   1.833523e+01   1.592152e+02
  -1.162419e+02   1.534099e+02
  -2.505354e+02   3.792939e+01
  -1.983652e+02  -1.480446e+02
  -5.392480e+01  -2.633208e+02
   1.106580e+02  -1.808091e+02
   1.512790e+02  -3.964752e+01
   7.128587e+01   6.259772e+01
   2.849419e+01   3.885170e+01
   5.579924e+01  -1.235607e+01
   7.623315e+01  -7.489188e+00
   3.690590e+01   4.903411e+01
  -4.556074e+01   8.603159e+01
  -1.002556e+02   5.608890e+01
  -8.565029e+01  -3.304967e+01
   1.169378e+01  -1.005576e+02
   1.449330e+02  -9.416587e+01
   1.990137e+02   3.173535e+01
   1.099722e+02   2.047886e+02
  -1.041662e+02   2.565128e+02
  -2.592938e+02   1.137951e+02
  -2.726333e+02  -9.130038e+01
  -9.938810e+01  -1.866408e+02
   4.124630e+01  -1.552686e+02
   9.714192e+01  -8.952128e+01
   8.740029e+01  -7.247943e+01
   6.840409e+01  -8.230327e+01
   9.777142e+01  -7.147185e+01
   1.295921e+02   2.242582e+01
   1.223479e+02   1.543094e+02
   4.894350e+01   2.270538e+02
  -8.717497e+01   1.727300e+02
  -1.782840e+02   2.714735e+01
  -1.449096e+02  -1.250133e+02
  -2.645315e+01  -1.636304e+02
   7.358192e+01  -9.874004e+01
   6.210754e+01  -3.519502e+00
   5.770524e+00   4.171376e+01
  -5.069218e+00   3.651735e+01
   3.778604e+01   2.075165e+01
   8.143502e+01   2.448339e+01
   4.489503e+01   4.003323e+01
  -6.205854e+01   3.865845e+01
  -1.541472e+02   5.447391e-01
  -1.402147e+02  -5.191277e+01
  -1.502183e+01  -8.644683e+01
   1.149242e+02  -7.582627e+01
   1.401224e+02  -1.453453e+01
   5.183941e+01   3.738489e+01
  -6.302005e+01   3.812235e+01
  -8.096708e+01  -2.091848e+01
  -4.542776e+00  -6.720388e+01
   5.621219e+01  -6.304139e+01
   6.424902e+01   1.347997e+00
   3.807807e+01   4.979313e+01
   4.537746e+01   4.366156e+01
   6.231641e+01   5.309889e+00
   7.070043e+01  -5.018804e+00
   3.460401e+01   6.794295e+01
  -3.054852e+01   1.470968e+02
  -1.111035e+02   1.306568e+02
  -1.632823e+02   3.753679e+01
  -1.219668e+02  -9.342491e+01
  -5.925599e+00  -1.269230e+02
   9.171889e+01  -6.110188e+01
   6.153677e+01   1.450659e+01
  -5.875164e+01   2.508698e+01
  -1.459795e+02  -4.875545e+01
  -8.013590e+01  -1.119043e+02
   7.977526e+01  -1.192661e+02
   1.894940e+02  -5.776906e+01
   1.665201e+02   2.677387e+01
   3.877862e+01   8.393077e+01
  -6.103305e+01   7.828291e+01
  -4.798343e+01   9.109371e+00
   4.059371e+01  -2.552907e+01
   8.934082e+01   1.978560e+01
   2.758080e+01   1.245657e+02
  -9.867748e+01   1.568574e+02
  -1.854116e+02   6.086450e+01
  -1.409161e+02  -1.044623e+02
  -2.115282e+01  -2.264348e+02
   8.868106e+01  -1.495870e+02
   1.105598e+02   6.228955e+00
   6.313825e+01   1.246047e+02
   8.868453e+00   1.113673e+02
  -5.004906e+01   2.316844e+01
  -5.654746e+01  -3.062117e+01
  -2.929820e+01  -9.038928e+00
  -3.120377e+00   2.143061e+01
  -1.799766e+01  -1.279398e+01
  -6.584559e+01  -9.307777e+01
  -4.166994e+01  -1.078416e+02
   4.654011e+01  -4.996808e+01
   1.314359e+02   4.429949e+01
   1.413253e+02   6.725396e+01
   1.842525e+01   5.156793e+01
  -9.166612e+01   2.459416e+01
  -9.524088e+01   1.246628e+01
  -1.019923e+01  -7.474522e+00
   4.076088e+01  -2.458490e+01
   1.247588e+01  -1.990230e+01
  -2.424076e+01   5.455955e-01
   6.947353e+00   9.671214e+00
   7.639772e+01   8.082239e+00
   9.028672e+01   2.749076e+01
   7.381790e+00   8.032302e+01
  -1.257626e+02   1.203815e+02
  -1.923121e+02   6.445738e+01
  -1.481706e+02  -6.597084e+01
  -2.352178e+01  -1.686738e+02
   7.383498e+01  -1.397675e+02
   1.295656e+02  -5.768391e+01
   8.116427e+01   2.054958e+01
   2.723943e+01   3.335329e+01
  -4.793449e+00   7.761220e+00
   9.612799e+00   2.049977e+00
   3.401929e+01   4.678670e+01
   2.186625e+01   9.183715e+01
  -2.908213e+01   7.023544e+01
  -8.168634e+01  -1.805686e+01
  -7.297943e+01  -1.060079e+02
  -2.127753e+00  -1.122137e+02
   8.571023e+01  -2.364546e+01
   1.042230e+02   7.787640e+01
   2.990290e+01   1.037340e+02
  -6.810215e+01   4.978362e+01
  -1.052945e+02  -1.271152e+01
  -3.740901e+01  -4.647831e+01
   3.236428e+01  -4.774817e+01
   3.013045e+01  -2.812821e+01
  -3.804860e+01   1.274794e-01
  -7.204048e+01   2.258072e+00
  -1.360070e+01  -2.514915e+01
   7.996239e+01  -6.489456e+01
   1.178764e+02  -6.593781e+01
   5.905016e+01   1.389710e+01
  -1.235791e+01   8.271802e+01
  -4.774542e+01   8.352307e+01
  -3.464850e+01   4.635960e+00
  -2.681722e+00  -5.439737e+01
   2.597031e+01  -4.293758e+01
   3.373076e+01   1.993145e+01
   2.707195e+01   5.634022e+01
  -3.764575e+00   3.311342e+01
  -3.383915e+01  -8.488448e+00
  -4.072636e+01  -2.214126e+01
  -2.081031e+01   3.077102e-01
   3.052414e-01   1.312950e+01
   5.114084e+00  -4.152715e+00
   1.184897e+01  -3.725260e+01
   1.961822e+01  -4.235962e+01
   3.422872e+01  -5.686689e+00
   3.223381e+01   4.596484e+01
  -8.884487e+00   5.913416e+01
  -4.830626e+01   1.985855e+01
  -5.569787e+01  -4.589901e+01
  -1.401084e+01  -6.238300e+01
   6.054791e+01  -3.505600e+01
   8.361528e+01   1.408218e+01
   4.741020e+01   4.966239e+01
  -3.113814e+01   3.849889e+01
  -7.051126e+01   1.661952e+01
  -2.469242e+01   4.582663e+00
   4.013192e+01   3.821246e+00
   3.758310e+01   1.951871e+01
  -3.180687e+01   3.062126e+01
  -9.636410e+01   2.403977e+01
