
 $NMID
 id='ANONYMOUS ', fmtdat='(2E16.6)'
 volume=1.0
 tramp=1.0
 $END
   4.622180e+03  -4.696821e+02
   2.865708e+03   2.543577e+03
  -8.560559e+02   3.146544e+03
  -2.336509e+03   9.456560e+02
  -1.132605e+03  -7.635305e+02
   6.662436e+02  -5.071713e+02
   9.778506e+02   3.668255e+02
   1.406365e+02   1.179349e+03
  -7.816069e+02   9.263097e+02
  -1.026909e+03  -9.339703e+01
  -5.781407e+02  -9.474984e+02
   2.425020e+02  -9.436213e+02
   6.703961e+02  -1.924867e+02
   4.036575e+02   7.268167e+02
  -2.672553e+02   8.554284e+02
  -5.826457e+02   5.489975e+00
  -2.722193e+02  -7.530541e+02
   2.744856e+02  -7.045549e+02
   5.791153e+02  -9.891739e+01
   4.183183e+02   3.558071e+02
   3.396350e+01   4.873473e+02
  -2.939081e+02   2.910551e+02
  -2.346635e+02   1.575088e+01
   9.211874e+01  -6.522812e+01
   4.584379e+02   1.011289e+02
   2.630780e+02   4.021548e+02
  -4.380179e+02   4.965886e+02
  -8.576794e+02  -2.938857e+01
  -5.129180e+02  -5.358147e+02
   3.665298e+02  -4.989803e+02
   7.681318e+02  -4.574612e+01
   4.178141e+02   4.847019e+02
  -2.521964e+02   5.697245e+02
  -5.977466e+02   2.415103e+02
  -4.705907e+02  -2.159193e+02
  -1.062229e+02  -5.221621e+02
   1.906536e+02  -3.186460e+02
   2.132248e+02   1.776140e+02
  -1.147831e+02   4.638466e+02
  -4.467404e+02   7.712894e+01
  -3.512176e+02  -6.031444e+02
   2.109675e+02  -7.476683e+02
   6.186312e+02  -4.654251e+01
   2.587065e+02   6.167092e+02
  -3.336056e+02   3.598906e+02
  -4.284746e+02  -3.069773e+02
   4.892167e+01  -5.557493e+02
   5.873671e+02  -2.085856e+02
   6.266422e+02   4.167975e+02
   2.094102e+02   6.130863e+02
  -3.625225e+02   4.279102e+02
  -6.489879e+02  -1.001913e+02
  -4.128295e+02  -3.766150e+02
   1.281403e+02  -4.499207e+02
   4.694840e+02  -8.889746e+01
   3.089988e+02   2.015193e+02
  -1.059024e+02   1.396819e+02
  -1.629415e+02  -1.531247e+02
   1.222046e+02  -2.213188e+02
   3.664093e+02   3.498036e+01
   1.721134e+02   3.122756e+02
  -2.174613e+02   2.948851e+02
  -3.826636e+02   8.003265e+01
  -1.966677e+02  -9.417506e+01
   6.149639e+01  -2.357639e+02
   2.123888e+02  -3.146528e+02
   3.578238e+02  -2.250253e+02
   2.977479e+02   1.389084e+02
   7.608141e+01   4.807977e+02
  -1.106033e+02   4.142601e+02
  -1.483462e+02   1.337215e+02
  -4.852263e+01  -1.748271e+01
  -4.755601e+01   6.742653e+01
  -1.947823e+02   1.543359e+02
  -2.995685e+02  -5.974460e+01
  -1.866912e+02  -2.590927e+02
   4.262311e+01  -2.684055e+02
   2.330020e+02  -3.760919e+01
   2.236891e+02   2.402784e+02
  -1.232962e+01   3.079249e+02
  -2.576503e+02   1.419523e+02
  -3.898217e+02  -1.823859e+02
  -2.133534e+02  -3.335332e+02
   1.056221e+02  -3.475995e+02
   2.474203e+02  -1.515090e+02
   1.725141e+02  -3.515038e+00
   1.036755e+02  -1.903522e+01
   2.477135e+02  -6.265666e+01
   3.970750e+02   2.645832e+01
   3.501019e+02   3.046604e+02
   1.929842e+01   4.710456e+02
  -3.754358e+02   4.616008e+02
  -5.439287e+02   1.991849e+02
  -3.669296e+02  -7.138986e+01
  -7.198767e+01  -3.166131e+02
   1.347766e+02  -2.828660e+02
   8.924620e+01  -5.296250e+01
  -8.848712e+01   1.055966e+02
  -1.774063e+02   1.534339e+01
  -6.025707e+01  -2.154190e+02
   1.608623e+02  -1.966093e+02
   1.813480e+02   2.838454e+01
  -8.150920e+00   2.060786e+02
  -1.931836e+02   3.954411e+01
  -1.999874e+02  -2.562074e+02
   1.426913e+01  -3.698306e+02
   2.477857e+02  -1.982368e+02
   3.437811e+02   9.441662e+01
   2.810411e+02   2.440509e+02
   9.871099e+01   2.478681e+02
  -9.768296e+01   1.557250e+02
  -2.038446e+02   3.535217e+01
  -6.633006e+01  -2.975504e+01
   7.477215e+01   3.986836e+01
   4.071275e+01   1.171855e+02
  -1.300337e+02   1.166672e+02
  -1.745363e+02   5.843504e+00
  -6.287628e+01  -7.105263e+01
   8.494752e+01  -2.691215e+01
   5.777092e+01   6.724171e+01
  -1.239724e+02   8.665728e+01
  -2.938353e+02   1.976397e+01
  -2.716831e+02  -1.432856e+02
  -7.389593e+01  -2.573918e+02
   1.754208e+02  -2.708409e+02
   2.850469e+02  -1.536379e+02
   1.783704e+02   4.552798e+01
  -2.055529e+01   1.162757e+02
  -9.829220e+01   1.863088e+01
   2.443223e+01  -9.164248e+01
   2.128589e+02  -6.398911e+01
   2.326428e+02   1.054911e+02
   8.441012e+01   2.141714e+02
  -1.093272e+02   1.775156e+02
  -1.398175e+02   4.125112e+01
  -7.459275e+01  -4.352748e+01
   2.430484e+01  -4.220367e+00
   2.907454e+01   8.280220e+01
  -5.981971e+01   1.144937e+02
  -1.814964e+02   4.402491e+01
  -1.905926e+02  -1.234154e+02
  -3.886923e+01  -2.370675e+02
   1.699525e+02  -1.781186e+02
   2.069230e+02  -2.714996e+00
   8.396411e+01   1.167470e+02
  -6.149344e+01   1.084652e+02
  -8.312158e+01   3.248602e+01
  -1.801115e+01  -2.401797e+01
   1.741894e+01  -1.518378e+01
  -1.200482e+01   5.354206e+00
  -7.380281e+01  -9.071514e+00
  -8.311242e+01  -7.493055e+01
  -2.619187e+01  -1.640701e+02
   1.367010e+02  -1.572528e+02
   2.315401e+02  -2.719791e+01
   1.963980e+02   1.458095e+02
   3.244379e+01   2.272315e+02
  -1.237428e+02   1.722467e+02
  -1.432456e+02   2.708730e+01
  -6.947873e+01  -6.364804e+01
  -3.085283e+01  -3.634643e+01
  -5.583676e+01   1.205150e+01
  -8.056509e+01   3.252832e+00
  -4.466886e+01  -4.683051e+01
   4.982098e+01  -9.122692e+01
   1.019296e+02  -5.432115e+01
   8.023687e+01   4.242278e+01
  -1.695198e+01   1.109866e+02
  -1.382473e+02   9.065166e+01
  -1.987473e+02  -4.647648e+01
  -1.125466e+02  -1.985741e+02
   9.826058e+01  -2.109036e+02
   2.690943e+02  -1.148664e+02
   2.674348e+02   6.953569e+01
   1.195498e+02   1.776430e+02
  -3.954273e+01   1.547318e+02
  -8.950592e+01   9.424516e+01
  -7.382773e+01   7.847748e+01
  -6.934508e+01   9.974332e+01
  -9.913063e+01   8.289250e+01
  -1.224292e+02  -1.534950e+01
  -1.162739e+02  -1.578550e+02
  -3.942196e+01  -2.150538e+02
   8.627801e+01  -1.851106e+02
   1.776051e+02  -2.141810e+01
   1.524380e+02   1.153529e+02
   2.671578e+01   1.625582e+02
  -6.782158e+01   8.908285e+01
  -6.130813e+01   4.248345e+00
  -6.187937e+00  -4.191284e+01
   1.124641e+01  -3.282325e+01
  -3.902942e+01  -1.774386e+01
  -7.761898e+01  -2.767566e+01
  -4.497208e+01  -4.225705e+01
   6.790636e+01  -3.613650e+01
   1.692683e+02   1.922827e+00
   1.524137e+02   5.163915e+01
   1.865304e+01   8.842217e+01
  -1.273341e+02   7.467189e+01
  -1.456632e+02   1.650024e+01
  -4.916366e+01  -4.186683e+01
   6.174459e+01  -3.432802e+01
   7.686924e+01   1.972682e+01
   3.593227e+00   7.316468e+01
  -5.485447e+01   6.403344e+01
  -6.442873e+01  -3.801316e+00
  -4.360935e+01  -4.961524e+01
  -3.720869e+01  -4.235135e+01
  -6.540654e+01  -2.237925e+00
  -6.298285e+01  -5.152303e+00
  -3.509302e+01  -7.174998e+01
   4.374858e+01  -1.427058e+02
   1.124607e+02  -1.539644e+02
   1.731720e+02  -3.110393e+01
   1.248590e+02   9.348085e+01
   2.765143e+00   1.320276e+02
  -8.333332e+01   6.846263e+01
  -5.923541e+01  -1.962862e+01
   6.152561e+01  -1.937487e+01
   1.385314e+02   3.434146e+01
   7.127793e+01   1.011200e+02
  -7.586525e+01   1.191950e+02
  -1.919457e+02   4.658129e+01
  -1.791027e+02  -2.583438e+01
  -4.090672e+01  -9.309826e+01
   6.075776e+01  -7.897627e+01
   4.831099e+01  -9.166278e+00
  -3.686253e+01   2.347979e+01
  -9.482188e+01  -2.501757e+01
  -3.435937e+01  -1.246567e+02
   9.422593e+01  -1.723931e+02
   1.593737e+02  -5.459702e+01
   1.326760e+02   9.743157e+01
   9.741559e+00   2.011564e+02
  -9.276022e+01   1.486634e+02
  -1.042919e+02  -7.367934e+00
  -6.569702e+01  -1.207863e+02
   4.114758e+00  -1.009557e+02
   4.279093e+01  -1.848993e+01
   5.260753e+01   3.512570e+01
   2.908299e+01   7.196942e+00
   3.022225e+00  -2.152276e+01
   1.895748e+01   1.655477e+01
   4.909897e+01   8.674215e+01
   4.987246e+01   1.146323e+02
  -4.485146e+01   4.313455e+01
  -1.497807e+02  -4.188252e+01
  -1.290783e+02  -7.443331e+01
  -1.515850e+01  -5.309183e+01
   9.151682e+01  -2.504228e+01
   8.821415e+01  -3.900790e+00
   9.469031e+00   9.335504e+00
  -4.139137e+01   2.233474e+01
  -1.205509e+01   2.016946e+01
   2.377914e+01  -2.228947e+00
  -7.072933e+00  -7.691195e+00
  -7.841276e+01  -2.597190e+00
  -9.850958e+01  -3.371938e+01
  -4.710721e+00  -8.269064e+01
   1.238927e+02  -1.140514e+02
   1.918677e+02  -5.757975e+01
   1.516278e+02   6.284635e+01
   2.141316e+01   1.726614e+02
  -8.611724e+01   1.566061e+02
  -1.108077e+02   5.615971e+01
  -8.939837e+01  -2.506371e+01
  -2.535516e+01  -3.490909e+01
   4.309427e+00  -7.345075e+00
  -9.404575e+00  -3.641634e+00
  -2.986046e+01  -4.800393e+01
  -1.370617e+01  -8.353778e+01
   2.900483e+01  -7.941775e+01
   8.480342e+01   2.012128e+01
   7.942614e+01   1.196996e+02
   1.626971e+00   1.196053e+02
  -8.944358e+01   3.452186e+01
  -1.111056e+02  -8.400261e+01
  -3.615491e+01  -1.105546e+02
   7.055405e+01  -6.056176e+01
   1.000291e+02   1.541066e+01
   4.025774e+01   5.284448e+01
  -3.309544e+01   5.580916e+01
  -2.900845e+01   2.719050e+01
   3.784009e+01  -4.853359e-01
   6.981502e+01  -5.237648e+00
   1.341086e+01   2.689657e+01
  -8.534917e+01   6.961269e+01
  -1.084485e+02   5.930942e+01
  -6.404581e+01  -1.072747e+01
   1.177728e+01  -8.547983e+01
   5.714771e+01  -7.997334e+01
   3.760900e+01  -6.366743e+00
   4.303771e-01   5.993790e+01
  -2.938333e+01   4.263945e+01
  -4.084503e+01  -2.069839e+01
  -3.142155e+01  -5.366248e+01
   5.702046e+00  -3.510635e+01
   3.663117e+01   9.655530e+00
   3.990205e+01   2.354176e+01
   2.103512e+01  -3.087472e-02
   1.149270e+00  -1.444555e+01
  -3.190850e+00   5.497863e+00
  -5.297830e+00   3.938684e+01
  -2.174278e+01   4.833168e+01
  -3.952172e+01   5.132673e+00
  -3.383497e+01  -5.156928e+01
   4.635947e+00  -6.390058e+01
   4.322613e+01  -1.691885e+01
   5.920083e+01   4.219271e+01
   1.451905e+01   6.928003e+01
  -5.135885e+01   3.143165e+01
  -9.143672e+01  -1.446349e+01
  -4.994286e+01  -4.570060e+01
   3.064467e+01  -4.037344e+01
   6.577183e+01  -2.367761e+01
   2.411613e+01  -3.861147e+00
  -3.985409e+01  -1.077397e+00
  -4.221332e+01  -1.276880e+01
   3.038181e+01  -3.482425e+01
   8.998837e+01  -3.155089e+01
