
 $NMID
 id='ANONYMOUS ', fmtdat='(2E16.6)'
 volume=1.0
 tramp=1.0
 $END
   4.625310e+03  -4.320168e+01
   2.595541e+03   2.775514e+03
  -9.310135e+02   2.881184e+03
  -2.440404e+03   1.019845e+03
  -8.859313e+02  -8.931139e+02
   8.440369e+02  -8.016380e+02
   1.143029e+03   4.872893e+02
   2.087911e+01   1.154097e+03
  -8.407950e+02   8.748319e+02
  -9.914654e+02  -1.212428e+02
  -5.451681e+02  -1.083544e+03
   4.136551e+02  -9.616389e+02
   7.159889e+02  -1.621170e+02
   3.719351e+02   7.977762e+02
  -3.149383e+02   8.784095e+02
  -6.127018e+02  -3.173893e+01
  -2.542599e+02  -7.938072e+02
   3.419358e+02  -6.827163e+02
   6.125918e+02  -2.663324e+01
   3.719862e+02   4.228784e+02
  -1.741974e+00   5.134889e+02
  -2.871051e+02   3.069881e+02
  -2.383573e+02  -1.047165e+01
   4.748570e+01  -7.049963e+01
   4.329787e+02   9.740932e+01
   2.727676e+02   4.606487e+02
  -4.866584e+02   5.153299e+02
  -8.718608e+02  -1.057794e+02
  -4.647408e+02  -5.978915e+02
   4.311457e+02  -5.083777e+02
   7.774558e+02  -2.226375e+01
   4.107976e+02   5.181793e+02
  -3.243971e+02   5.304950e+02
  -6.197429e+02   2.321246e+02
  -4.292798e+02  -2.700879e+02
  -3.951314e+01  -5.132087e+02
   2.108859e+02  -3.539979e+02
   2.630184e+02   1.950276e+02
  -1.564100e+02   4.707573e+02
  -4.920402e+02   4.299482e+01
  -2.884504e+02  -6.728330e+02
   3.374129e+02  -7.931838e+02
   6.390488e+02  -3.223819e+00
   3.182142e+02   6.600173e+02
  -3.738380e+02   4.135171e+02
  -4.181954e+02  -3.422053e+02
   6.222145e+01  -6.125690e+02
   6.293973e+02  -1.768865e+02
   6.096830e+02   3.990149e+02
   1.448302e+02   6.079774e+02
  -4.296837e+02   4.363746e+02
  -6.222896e+02  -7.885106e+01
  -3.801747e+02  -3.908599e+02
   1.932348e+02  -4.565329e+02
   4.971797e+02  -8.026989e+01
   2.694338e+02   2.600149e+02
  -1.143954e+02   1.173493e+02
  -1.624870e+02  -1.684475e+02
   1.602260e+02  -2.035539e+02
   3.871195e+02   4.498587e+01
   1.774261e+02   3.238508e+02
  -2.301625e+02   2.791895e+02
  -3.646878e+02   4.213944e+01
  -1.645892e+02  -1.006773e+02
   4.865868e+01  -1.946750e+02
   2.043150e+02  -3.110671e+02
   3.433089e+02  -2.192298e+02
   2.985133e+02   1.200115e+02
   1.041882e+02   4.501457e+02
  -1.076045e+02   3.875768e+02
  -1.445889e+02   1.222767e+02
  -2.823106e+01  -3.006629e+01
  -3.185967e+01   5.996315e+01
  -1.757189e+02   1.429157e+02
  -2.938305e+02  -2.461415e+01
  -1.736959e+02  -2.823619e+02
   6.838581e+01  -2.643790e+02
   2.506585e+02  -2.143276e+01
   2.186391e+02   2.474759e+02
  -1.761673e+01   2.979853e+02
  -2.628996e+02   1.444626e+02
  -3.845122e+02  -1.600354e+02
  -1.952309e+02  -3.648571e+02
   1.287735e+02  -3.297189e+02
   2.699833e+02  -1.296038e+02
   1.507788e+02   1.269537e+01
   9.914867e+01  -1.157864e+01
   2.246352e+02  -5.621383e+01
   3.860011e+02   4.858981e+01
   3.510450e+02   3.079322e+02
  -1.039117e+01   4.590558e+02
  -3.706660e+02   4.266628e+02
  -5.143153e+02   2.294598e+02
  -3.549612e+02  -1.189010e+02
  -5.449700e+01  -3.240432e+02
   1.481521e+02  -2.898980e+02
   9.942759e+01  -3.632502e+01
  -9.029282e+01   1.376152e+02
  -1.928885e+02   1.696149e+01
  -8.248405e+01  -2.145085e+02
   1.736580e+02  -2.066757e+02
   1.920271e+02   5.485757e+01
  -2.054878e+01   1.969227e+02
  -1.904230e+02   4.402493e+01
  -1.782254e+02  -2.458481e+02
   5.071324e+01  -3.678638e+02
   2.459473e+02  -1.855588e+02
   3.393959e+02   8.410434e+01
   2.753230e+02   2.670345e+02
   9.431061e+01   2.427452e+02
  -1.096369e+02   1.435283e+02
  -1.999037e+02   3.282529e+01
  -6.582798e+01  -3.909723e+01
   7.454080e+01   3.830586e+01
   3.677693e+01   1.186567e+02
  -1.208202e+02   1.120068e+02
  -1.814479e+02  -1.006810e+01
  -6.702145e+01  -7.305220e+01
   8.275373e+01  -2.609458e+01
   5.094056e+01   6.325110e+01
  -1.242845e+02   8.281234e+01
  -2.862707e+02   4.326612e+00
  -2.662063e+02  -1.469432e+02
  -5.328395e+01  -2.571842e+02
   1.839743e+02  -2.683773e+02
   3.006715e+02  -1.448974e+02
   1.803337e+02   6.024364e+01
  -2.793914e+01   1.226538e+02
  -1.019371e+02   2.164831e+01
   2.449620e+01  -9.704463e+01
   2.114909e+02  -6.406726e+01
   2.309303e+02   9.939745e+01
   7.426102e+01   2.165039e+02
  -9.697142e+01   1.698114e+02
  -1.504707e+02   4.315799e+01
  -8.198560e+01  -4.073595e+01
   2.296741e+01  -1.101902e+01
   3.241778e+01   7.472258e+01
  -5.134649e+01   1.166211e+02
  -1.830709e+02   2.059898e+01
  -1.841188e+02  -1.284473e+02
  -2.187849e+01  -2.348303e+02
   1.729459e+02  -1.705310e+02
   2.061025e+02  -8.671220e+00
   7.802759e+01   1.212773e+02
  -6.707450e+01   1.168266e+02
  -8.453402e+01   3.216997e+01
  -2.252093e+01  -2.400358e+01
   1.489394e+01  -1.740195e+01
  -9.909131e+00  -7.316351e-01
  -6.921402e+01  -1.954961e+01
  -7.892194e+01  -7.632142e+01
  -2.348652e+01  -1.580029e+02
   1.333974e+02  -1.530964e+02
   2.283900e+02  -2.963709e+01
   1.942827e+02   1.499158e+02
   4.727757e+01   2.243939e+02
  -1.248153e+02   1.779023e+02
  -1.364879e+02   2.645977e+01
  -6.476444e+01  -6.069418e+01
  -2.383684e+01  -3.633371e+01
  -5.549722e+01   9.860690e+00
  -7.917676e+01   3.124159e-01
  -3.824471e+01  -4.506538e+01
   4.576796e+01  -8.402347e+01
   9.968250e+01  -5.272895e+01
   7.885826e+01   3.595882e+01
  -1.874001e+01   1.111534e+02
  -1.386398e+02   7.297028e+01
  -1.902533e+02  -4.461618e+01
  -1.131034e+02  -1.943445e+02
   9.332786e+01  -1.978114e+02
   2.805399e+02  -9.526966e+01
   2.543351e+02   9.477987e+01
   1.127593e+02   1.777775e+02
  -4.237317e+01   1.600211e+02
  -9.924995e+01   8.722185e+01
  -8.127967e+01   7.014569e+01
  -6.862353e+01   9.219554e+01
  -9.483142e+01   7.426587e+01
  -1.191852e+02  -2.856873e+01
  -1.102130e+02  -1.594909e+02
  -3.157284e+01  -2.171625e+02
   9.758640e+01  -1.671843e+02
   1.760491e+02  -2.070775e+01
   1.397348e+02   1.203990e+02
   2.526790e+01   1.611365e+02
  -5.982494e+01   9.217954e+01
  -5.685169e+01   3.328300e+00
  -9.680267e+00  -4.029218e+01
   4.112162e+00  -3.398049e+01
  -3.600710e+01  -2.054031e+01
  -7.483685e+01  -2.799886e+01
  -4.095476e+01  -4.020243e+01
   6.598844e+01  -3.087094e+01
   1.643959e+02  -1.534044e+00
   1.516720e+02   5.535463e+01
   1.652320e+01   8.978769e+01
  -1.165300e+02   7.523753e+01
  -1.400062e+02   1.432860e+01
  -4.973130e+01  -4.285786e+01
   6.540701e+01  -3.282670e+01
   7.428194e+01   1.868990e+01
   2.305402e-01   6.986884e+01
  -6.157229e+01   5.522113e+01
  -5.886200e+01  -5.422771e+00
  -3.688548e+01  -4.948886e+01
  -3.997177e+01  -4.372230e+01
  -6.280020e+01  -4.659458e+00
  -6.218131e+01  -3.078825e+00
  -3.476880e+01  -6.479345e+01
   4.594550e+01  -1.444070e+02
   1.207769e+02  -1.404781e+02
   1.605361e+02  -3.062359e+01
   1.213315e+02   9.282458e+01
  -1.245792e+00   1.241761e+02
  -7.979195e+01   6.241335e+01
  -5.483236e+01  -1.995323e+01
   5.957541e+01  -1.693183e+01
   1.280690e+02   4.168208e+01
   7.251436e+01   1.052026e+02
  -8.626350e+01   1.097133e+02
  -1.847239e+02   5.466638e+01
  -1.616855e+02  -2.667079e+01
  -4.484786e+01  -8.996294e+01
   5.856342e+01  -7.617695e+01
   4.698890e+01  -1.089532e+01
  -3.987985e+01   2.274874e+01
  -9.264956e+01  -2.476497e+01
  -2.850897e+01  -1.231232e+02
   1.106366e+02  -1.582393e+02
   1.691573e+02  -5.521501e+01
   1.199353e+02   9.130605e+01
   4.387689e+00   1.827554e+02
  -8.580404e+01   1.441375e+02
  -1.072297e+02  -1.258974e+01
  -6.830216e+01  -1.174611e+02
   4.144881e+00  -1.081631e+02
   3.850451e+01  -1.939132e+01
   5.240723e+01   3.240139e+01
   3.064143e+01   1.048118e+01
   2.461407e+00  -2.118900e+01
   1.502221e+01   1.590532e+01
   4.640693e+01   8.380989e+01
   4.792771e+01   1.051609e+02
  -4.494349e+01   4.021596e+01
  -1.426371e+02  -4.071625e+01
  -1.264175e+02  -8.081029e+01
  -1.519246e+01  -4.938034e+01
   8.609889e+01  -2.500685e+01
   8.680131e+01  -6.555137e+00
   8.000280e+00   9.179531e+00
  -3.924469e+01   2.007647e+01
  -1.194580e+01   1.970278e+01
   2.541402e+01   1.346358e+00
  -7.076982e+00  -9.824346e+00
  -7.505127e+01  -9.202063e+00
  -9.078591e+01  -2.624377e+01
  -9.850083e-01  -7.685753e+01
   1.213046e+02  -1.126973e+02
   1.827574e+02  -5.714546e+01
   1.354170e+02   6.913440e+01
   2.155572e+01   1.719124e+02
  -7.737747e+01   1.511364e+02
  -1.134730e+02   4.997062e+01
  -8.610143e+01  -2.261158e+01
  -2.362882e+01  -3.621008e+01
   5.689132e+00  -7.448988e+00
  -9.414865e+00  -2.375719e+00
  -2.918017e+01  -4.515342e+01
  -2.039302e+01  -8.979279e+01
   3.194676e+01  -7.410753e+01
   8.036766e+01   2.420062e+01
   7.467857e+01   1.155544e+02
   2.907319e+00   1.162897e+02
  -8.796885e+01   2.251300e+01
  -1.050179e+02  -8.666751e+01
  -2.923011e+01  -1.105792e+02
   7.104213e+01  -5.213266e+01
   9.163961e+01   1.565684e+01
   3.747773e+01   5.158850e+01
  -3.314443e+01   4.927620e+01
  -2.899605e+01   2.624260e+01
   3.672847e+01   2.801821e+00
   7.049883e+01  -5.810624e+00
   1.189096e+01   2.617829e+01
  -7.821497e+01   6.541089e+01
  -1.110576e+02   5.267590e+01
  -6.093967e+01  -9.125217e+00
   2.089715e+01  -8.228585e+01
   5.693537e+01  -7.690862e+01
   3.469576e+01  -6.502131e-01
  -1.431561e-01   6.168813e+01
  -3.439592e+01   3.914014e+01
  -3.786954e+01  -2.233277e+01
  -2.733301e+01  -5.060074e+01
   6.008503e+00  -3.325038e+01
   3.321904e+01   1.193470e+01
   3.591603e+01   2.147185e+01
   2.153432e+01   4.499577e-01
   2.104073e+00  -1.361788e+01
  -6.350935e+00   5.562896e+00
  -8.434432e+00   3.921101e+01
  -2.398910e+01   4.019276e+01
  -3.639157e+01   4.205066e+00
  -2.925140e+01  -5.596224e+01
   7.671934e+00  -5.904261e+01
   4.241215e+01  -1.407489e+01
   5.501066e+01   4.291190e+01
   1.344616e+01   6.774591e+01
  -5.548171e+01   2.774103e+01
  -8.978209e+01  -2.077955e+01
  -4.799982e+01  -4.718227e+01
   3.090871e+01  -3.530269e+01
   6.812804e+01  -1.473817e+01
   2.289318e+01  -3.051970e+00
  -4.241579e+01  -6.857056e+00
  -3.714407e+01  -1.842394e+01
   3.253482e+01  -3.143180e+01
   8.924578e+01  -2.173812e+01
