
 $NMID
 id='ANONYMOUS ', fmtdat='(2E16.6)'
 volume=1.0
 tramp=1.0
 $END
  -4.612213e+03   5.057129e+02
  -2.773382e+03  -2.609259e+03
   7.862510e+02  -2.965329e+03
   2.217609e+03  -9.791011e+02
   1.143917e+03   6.695782e+02
  -5.895585e+02   5.195045e+02
  -9.616316e+02  -3.553565e+02
  -1.009600e+02  -1.180093e+03
   7.778842e+02  -8.902927e+02
   9.856876e+02   8.960872e+01
   5.640144e+02   9.056737e+02
  -2.041183e+02   9.405130e+02
  -6.493592e+02   1.976421e+02
  -4.164152e+02  -7.355367e+02
   2.780382e+02  -8.315589e+02
   5.510354e+02   3.183099e+00
   2.723201e+02   7.216443e+02
  -2.630175e+02   7.304151e+02
  -5.608782e+02   1.400869e+02
  -4.243057e+02  -3.552815e+02
  -3.628700e+01  -4.649831e+02
   2.688927e+02  -2.923320e+02
   2.276988e+02  -1.777365e+01
  -1.167081e+02   5.399564e+01
  -4.758906e+02  -1.167348e+02
  -2.336089e+02  -4.144658e+02
   4.366038e+02  -4.802036e+02
   8.406923e+02   1.681273e+01
   5.120646e+02   5.266582e+02
  -3.571636e+02   4.923484e+02
  -7.175774e+02   4.589573e+01
  -4.023249e+02  -4.708028e+02
   2.516089e+02  -5.382159e+02
   5.604300e+02  -2.330236e+02
   4.726277e+02   2.118593e+02
   1.035872e+02   4.964861e+02
  -1.789443e+02   3.009255e+02
  -1.917223e+02  -1.929104e+02
   1.242571e+02  -4.486108e+02
   4.185760e+02  -6.737035e+01
   3.190104e+02   6.107986e+02
  -2.099282e+02   7.290090e+02
  -5.781414e+02   4.651104e+01
  -2.347872e+02  -5.719661e+02
   3.040959e+02  -3.439857e+02
   4.373957e+02   3.146368e+02
  -3.705664e+01   5.548243e+02
  -5.720665e+02   1.908538e+02
  -5.894086e+02  -4.011407e+02
  -2.034946e+02  -6.102156e+02
   3.572293e+02  -4.201312e+02
   6.318843e+02   9.620074e+01
   3.960240e+02   3.945867e+02
  -1.267137e+02   4.321926e+02
  -4.364330e+02   8.034858e+01
  -2.974820e+02  -1.822423e+02
   9.633443e+01  -1.174292e+02
   1.380927e+02   1.580415e+02
  -1.356320e+02   2.173545e+02
  -3.434163e+02  -3.481535e+01
  -1.576550e+02  -3.084287e+02
   2.180846e+02  -2.886933e+02
   3.656871e+02  -8.077924e+01
   2.120170e+02   8.338809e+01
  -5.007565e+01   2.398985e+02
  -2.223481e+02   3.148348e+02
  -3.668449e+02   2.142617e+02
  -2.944065e+02  -1.342926e+02
  -7.646714e+01  -4.582424e+02
   1.015746e+02  -3.905787e+02
   1.388670e+02  -1.394225e+02
   2.965364e+01   4.532906e+00
   5.555163e+01  -8.040944e+01
   1.986493e+02  -1.316437e+02
   2.996432e+02   6.001035e+01
   1.726094e+02   2.794035e+02
  -4.478310e+01   2.612864e+02
  -2.224944e+02   3.028842e+01
  -2.189033e+02  -2.459090e+02
   1.849439e+01  -3.169095e+02
   2.511424e+02  -1.405979e+02
   3.811011e+02   1.830630e+02
   2.309555e+02   3.251867e+02
  -9.307109e+01   3.467250e+02
  -2.449688e+02   1.429854e+02
  -1.722000e+02   1.706262e+01
  -1.049678e+02   2.200619e+01
  -2.456852e+02   7.124984e+01
  -4.005672e+02  -4.102502e+01
  -3.505031e+02  -2.994805e+02
  -3.653521e+01  -4.665396e+02
   3.672829e+02  -4.602413e+02
   5.247969e+02  -2.135553e+02
   3.656622e+02   7.743187e+01
   6.559204e+01   3.058459e+02
  -1.362665e+02   2.798020e+02
  -7.935977e+01   4.728613e+01
   8.818865e+01  -9.578608e+01
   1.732156e+02  -7.693087e+00
   6.253744e+01   2.159436e+02
  -1.605419e+02   1.867851e+02
  -1.734875e+02  -3.151081e+01
   1.618477e+01  -2.026273e+02
   1.936985e+02  -3.344469e+01
   2.021892e+02   2.481149e+02
  -7.097657e+00   3.610232e+02
  -2.465146e+02   2.010790e+02
  -3.468241e+02  -8.624712e+01
  -2.865369e+02  -2.474409e+02
  -9.712018e+01  -2.486622e+02
   1.025652e+02  -1.609860e+02
   2.003898e+02  -3.219290e+01
   6.202098e+01   3.102219e+01
  -7.363970e+01  -4.272584e+01
  -3.603227e+01  -1.169054e+02
   1.352088e+02  -1.158441e+02
   1.750949e+02  -5.882580e+00
   6.069687e+01   6.717202e+01
  -8.645451e+01   2.221928e+01
  -5.638626e+01  -7.167505e+01
   1.294949e+02  -8.689349e+01
   2.930652e+02  -2.300390e+01
   2.759035e+02   1.379059e+02
   7.755066e+01   2.615684e+02
  -1.769252e+02   2.637915e+02
  -2.729771e+02   1.415438e+02
  -1.780818e+02  -4.721683e+01
   2.662984e+01  -1.103851e+02
   9.435772e+01  -1.351869e+01
  -2.741147e+01   9.568634e+01
  -2.095170e+02   6.570219e+01
  -2.351371e+02  -1.069962e+02
  -7.912867e+01  -2.065418e+02
   1.059443e+02  -1.797220e+02
   1.375439e+02  -4.270080e+01
   6.711273e+01   3.940410e+01
  -2.588572e+01   2.156966e+00
  -3.324227e+01  -8.735564e+01
   6.528717e+01  -1.184517e+02
   1.966896e+02  -4.451958e+01
   1.924963e+02   1.252019e+02
   4.120258e+01   2.322826e+02
  -1.653711e+02   1.745360e+02
  -2.050258e+02   3.205907e+00
  -8.301035e+01  -1.211879e+02
   6.419985e+01  -1.087224e+02
   8.350259e+01  -3.385080e+01
   1.680381e+01   2.433683e+01
  -1.976060e+01   1.469361e+01
   9.846985e+00  -7.760868e+00
   8.008928e+01   9.562315e+00
   8.854972e+01   7.360569e+01
   2.094898e+01   1.722280e+02
  -1.292843e+02   1.547537e+02
  -2.374417e+02   2.291564e+01
  -1.932720e+02  -1.435997e+02
  -3.450449e+01  -2.271593e+02
   1.211941e+02  -1.660240e+02
   1.405903e+02  -2.957410e+01
   6.874655e+01   6.083841e+01
   3.132823e+01   3.498124e+01
   5.598785e+01  -1.319454e+01
   8.202516e+01  -5.812476e+00
   4.576073e+01   4.566402e+01
  -4.948990e+01   9.614999e+01
  -1.053558e+02   5.585405e+01
  -8.187554e+01  -4.312128e+01
   2.124528e+01  -1.118702e+02
   1.392924e+02  -9.477138e+01
   1.982440e+02   4.759972e+01
   1.105125e+02   2.084573e+02
  -9.665300e+01   2.119668e+02
  -2.678610e+02   1.173295e+02
  -2.608054e+02  -6.953825e+01
  -1.228894e+02  -1.785052e+02
   3.732685e+01  -1.549454e+02
   8.542554e+01  -9.585532e+01
   7.281705e+01  -7.857865e+01
   6.534076e+01  -9.870766e+01
   9.638351e+01  -8.210863e+01
   1.250913e+02   1.335847e+01
   1.233971e+02   1.599805e+02
   4.094300e+01   2.170230e+02
  -8.488087e+01   1.827399e+02
  -1.782264e+02   2.552027e+01
  -1.495049e+02  -1.204007e+02
  -2.886323e+01  -1.666283e+02
   6.672493e+01  -8.831904e+01
   6.165485e+01  -4.735056e+00
   6.104110e+00   4.317121e+01
  -1.251064e+01   3.231168e+01
   3.640264e+01   1.601296e+01
   7.935338e+01   2.759296e+01
   4.497142e+01   4.250228e+01
  -6.655358e+01   3.614492e+01
  -1.647853e+02   1.517447e+00
  -1.521164e+02  -4.931506e+01
  -1.941185e+01  -8.652953e+01
   1.280265e+02  -7.342099e+01
   1.485624e+02  -1.758870e+01
   4.926665e+01   4.108402e+01
  -6.244296e+01   3.792157e+01
  -7.797462e+01  -1.907554e+01
  -6.226736e+00  -7.139023e+01
   5.569001e+01  -6.614667e+01
   6.425547e+01   2.604261e+00
   4.610125e+01   5.066193e+01
   3.935319e+01   4.174934e+01
   6.273154e+01   2.615676e+00
   6.158832e+01   4.595104e+00
   3.907526e+01   7.265749e+01
  -4.392118e+01   1.444471e+02
  -1.129526e+02   1.538284e+02
  -1.770946e+02   2.775105e+01
  -1.269630e+02  -9.437634e+01
  -3.369623e+00  -1.312129e+02
   8.237843e+01  -6.770775e+01
   6.009568e+01   1.651494e+01
  -6.109658e+01   2.086075e+01
  -1.448279e+02  -3.650178e+01
  -7.246399e+01  -9.783335e+01
   7.533723e+01  -1.202170e+02
   1.967787e+02  -5.066142e+01
   1.777247e+02   3.148614e+01
   3.838270e+01   9.539855e+01
  -5.994881e+01   7.664664e+01
  -5.005958e+01   1.047412e+01
   3.826482e+01  -2.545727e+01
   9.346115e+01   2.213970e+01
   3.271069e+01   1.239693e+02
  -9.244707e+01   1.738221e+02
  -1.555191e+02   6.124701e+01
  -1.353354e+02  -9.655443e+01
  -1.043035e+01  -1.983086e+02
   9.090883e+01  -1.509813e+02
   1.060505e+02   8.189112e+00
   6.636784e+01   1.195620e+02
  -3.741956e+00   9.909256e+01
  -4.276220e+01   1.919045e+01
  -5.177469e+01  -3.685871e+01
  -2.751615e+01  -6.127635e+00
  -3.437915e+00   2.079863e+01
  -2.090774e+01  -1.640879e+01
  -5.158557e+01  -8.486195e+01
  -5.135848e+01  -1.137698e+02
   4.519024e+01  -4.474328e+01
   1.529199e+02   4.028811e+01
   1.314958e+02   6.927453e+01
   1.628771e+01   5.328552e+01
  -9.113652e+01   2.609164e+01
  -8.611455e+01   3.607622e+00
  -9.952722e+00  -8.786822e+00
   4.185139e+01  -2.211876e+01
   1.334706e+01  -1.993812e+01
  -2.272511e+01   3.381216e+00
   7.340719e+00   7.327915e+00
   7.673404e+01   2.843345e+00
   9.719125e+01   2.865977e+01
   1.175089e+01   8.556792e+01
  -1.222670e+02   1.158029e+02
  -1.914519e+02   5.912478e+01
  -1.480292e+02  -6.254058e+01
  -2.324300e+01  -1.719418e+02
   8.727776e+01  -1.568855e+02
   1.102258e+02  -5.836661e+01
   9.045778e+01   2.146595e+01
   2.565505e+01   3.523015e+01
  -3.117014e+00   7.677462e+00
   1.035305e+01   4.044830e+00
   2.855542e+01   4.805615e+01
   1.338111e+01   8.619301e+01
  -2.903731e+01   8.052911e+01
  -8.242664e+01  -2.051643e+01
  -8.230520e+01  -1.164776e+02
  -4.562344e+00  -1.180795e+02
   8.809826e+01  -3.829583e+01
   1.061334e+02   8.379868e+01
   3.891745e+01   1.068302e+02
  -6.988656e+01   6.301240e+01
  -1.001771e+02  -1.727458e+01
  -3.969820e+01  -5.366403e+01
   3.241762e+01  -5.966102e+01
   3.069728e+01  -2.710749e+01
  -3.592819e+01   1.513823e+00
  -6.988735e+01   6.214545e+00
  -1.456863e+01  -2.630668e+01
   8.497189e+01  -6.943975e+01
   1.102488e+02  -6.620480e+01
   6.385906e+01   1.152309e+01
  -1.149573e+01   8.754204e+01
  -5.782760e+01   7.873652e+01
  -3.714563e+01   7.717010e+00
  -2.378403e+00  -5.955669e+01
   2.743754e+01  -4.359331e+01
   4.017280e+01   1.722703e+01
   3.200798e+01   5.415104e+01
  -5.386116e+00   3.656640e+01
  -3.597974e+01  -9.115424e+00
  -4.065876e+01  -2.407906e+01
  -2.126982e+01  -7.578398e-01
  -5.754573e-02   1.467386e+01
   4.182570e+00  -4.738521e+00
   4.792889e+00  -3.700874e+01
   1.997831e+01  -4.599389e+01
   3.690616e+01  -5.120025e+00
   3.364591e+01   4.819630e+01
  -3.117811e+00   6.155009e+01
  -4.307104e+01   1.771909e+01
  -5.926289e+01  -4.099953e+01
  -1.397712e+01  -6.737086e+01
   5.325645e+01  -3.212697e+01
   9.399833e+01   1.560145e+01
   4.956271e+01   4.501683e+01
  -3.142718e+01   4.251924e+01
  -6.644075e+01   2.323203e+01
  -2.399047e+01   3.921502e+00
   3.776210e+01   1.651001e+00
   4.282547e+01   1.105789e+01
  -3.067886e+01   3.432952e+01
  -9.005252e+01   3.266121e+01
