
 $NMID
 id='ANONYMOUS ', fmtdat='(2E16.6)'
 volume=1.0
 tramp=1.0
 $END
   4.570161e+03  -2.918774e+02
   2.799392e+03   2.663550e+03
  -1.089271e+03   3.128778e+03
  -2.374109e+03   9.752133e+02
  -9.873763e+02  -9.142392e+02
   7.738505e+02  -6.090405e+02
   1.000152e+03   3.988556e+02
   1.360877e+02   1.137156e+03
  -8.117692e+02   8.472187e+02
  -9.756154e+02  -1.195824e+02
  -5.162827e+02  -9.742100e+02
   3.363287e+02  -8.918342e+02
   6.676461e+02  -1.748706e+02
   3.833233e+02   7.977316e+02
  -2.554069e+02   9.070465e+02
  -6.298190e+02   1.464064e+01
  -2.518827e+02  -7.316406e+02
   3.227502e+02  -6.747462e+02
   5.774327e+02  -4.860135e+01
   3.526347e+02   4.179128e+02
  -2.258237e+01   4.358671e+02
  -2.485903e+02   2.910363e+02
  -2.497749e+02  -1.584878e+01
   3.901150e+01  -7.725634e+01
   4.067226e+02   8.236631e+01
   2.161346e+02   4.487798e+02
  -4.903324e+02   4.435427e+02
  -8.796313e+02  -1.056606e+02
  -4.945512e+02  -5.081511e+02
   3.994608e+02  -5.124455e+02
   7.487760e+02  -3.921927e+01
   3.956137e+02   5.227319e+02
  -2.895939e+02   5.176595e+02
  -5.586098e+02   2.099154e+02
  -4.417767e+02  -2.522281e+02
  -1.330034e+01  -5.129870e+02
   1.784156e+02  -3.189540e+02
   2.204210e+02   1.883025e+02
  -1.472546e+02   5.164835e+02
  -4.219126e+02   6.155974e+01
  -2.780117e+02  -6.335929e+02
   2.408972e+02  -7.432835e+02
   5.999130e+02   3.159691e+01
   2.202820e+02   5.997444e+02
  -3.371032e+02   3.607556e+02
  -4.384468e+02  -3.234344e+02
   7.829546e+01  -5.494219e+02
   5.814345e+02  -1.610828e+02
   5.646607e+02   3.615034e+02
   1.559422e+02   5.993598e+02
  -4.058202e+02   3.663280e+02
  -6.284980e+02  -8.321468e+01
  -4.308740e+02  -3.812995e+02
   1.401606e+02  -4.405667e+02
   4.493440e+02  -8.656148e+01
   2.736840e+02   2.069547e+02
  -1.447682e+02   1.324532e+02
  -1.568890e+02  -1.742141e+02
   1.532650e+02  -2.391890e+02
   3.731441e+02   3.412865e+01
   1.775861e+02   2.967245e+02
  -2.255611e+02   2.762581e+02
  -3.810618e+02   4.156925e+01
  -1.891578e+02  -9.192306e+01
   5.380928e+01  -2.039232e+02
   1.909731e+02  -3.069048e+02
   3.326182e+02  -2.193616e+02
   2.655333e+02   1.243454e+02
   8.843697e+01   4.530659e+02
  -1.248291e+02   3.965025e+02
  -1.723263e+02   1.056579e+02
  -5.397996e+01  -1.277167e+01
  -2.947469e+01   6.771397e+01
  -1.747050e+02   1.418443e+02
  -2.757027e+02  -4.006855e+01
  -1.661356e+02  -2.562832e+02
   6.954174e+01  -2.541141e+02
   2.314803e+02  -1.620792e+01
   1.943151e+02   2.328087e+02
  -7.893823e+00   3.092662e+02
  -2.555053e+02   1.197295e+02
  -3.681736e+02  -1.530142e+02
  -1.706816e+02  -3.538527e+02
   1.071662e+02  -3.122140e+02
   2.416911e+02  -1.230638e+02
   1.716516e+02   9.493643e+00
   1.012883e+02  -1.548510e+01
   2.309216e+02  -4.865527e+01
   3.653255e+02   5.698256e+01
   3.261985e+02   3.169040e+02
  -2.320249e+01   4.479173e+02
  -3.685917e+02   4.143013e+02
  -4.725188e+02   2.001713e+02
  -3.451786e+02  -1.139018e+02
  -5.286232e+01  -2.953851e+02
   1.387245e+02  -2.818790e+02
   8.306637e+01  -4.994339e+01
  -8.843719e+01   9.952506e+01
  -1.737357e+02   2.792832e+01
  -6.800570e+01  -2.196807e+02
   1.629786e+02  -1.883250e+02
   1.855699e+02   4.187687e+01
  -1.504243e+01   2.117750e+02
  -1.784151e+02   4.275398e+01
  -1.800968e+02  -2.526172e+02
   5.242976e+01  -3.478150e+02
   2.255208e+02  -1.803605e+02
   3.298370e+02   7.431556e+01
   2.604100e+02   2.408195e+02
   9.132265e+01   2.595668e+02
  -1.043092e+02   1.475196e+02
  -1.868970e+02   2.758942e+01
  -6.802392e+01  -2.796939e+01
   7.316126e+01   3.409320e+01
   3.254041e+01   1.090806e+02
  -1.154361e+02   1.128074e+02
  -1.700446e+02   4.448375e-01
  -5.898648e+01  -7.431503e+01
   7.969215e+01  -1.902564e+01
   5.310376e+01   6.453141e+01
  -1.178210e+02   7.464128e+01
  -2.772802e+02  -5.367209e+00
  -2.575203e+02  -1.422677e+02
  -5.655683e+01  -2.464506e+02
   1.952407e+02  -2.580321e+02
   2.767179e+02  -1.320874e+02
   1.749687e+02   5.114361e+01
  -2.679385e+01   1.262976e+02
  -9.654090e+01   1.324788e+01
   2.787003e+01  -9.965298e+01
   2.046382e+02  -6.678810e+01
   2.257706e+02   1.035002e+02
   7.219041e+01   1.927456e+02
  -9.107517e+01   1.683901e+02
  -1.397919e+02   3.801016e+01
  -7.511689e+01  -4.044414e+01
   2.070817e+01  -4.014671e+00
   2.481646e+01   6.841754e+01
  -5.870015e+01   1.086426e+02
  -1.850057e+02   2.527045e+01
  -1.758479e+02  -1.153934e+02
  -1.187286e+01  -2.259620e+02
   1.571283e+02  -1.558216e+02
   1.998973e+02  -3.519906e+00
   7.594631e+01   1.133157e+02
  -6.293724e+01   1.124075e+02
  -8.842300e+01   2.999274e+01
  -1.954107e+01  -2.548979e+01
   1.403075e+01  -1.685778e+01
  -8.131636e+00   2.328057e+00
  -6.617191e+01  -1.227309e+01
  -7.275519e+01  -7.929150e+01
  -2.457678e+01  -1.530254e+02
   1.272554e+02  -1.313522e+02
   2.290878e+02  -3.862630e+01
   1.885610e+02   1.449877e+02
   4.235965e+01   2.206676e+02
  -1.097086e+02   1.761183e+02
  -1.326876e+02   2.962415e+01
  -6.843430e+01  -5.797541e+01
  -2.361735e+01  -3.523506e+01
  -5.285637e+01   9.348714e+00
  -7.862998e+01  -2.833253e-01
  -4.073900e+01  -4.709836e+01
   5.333608e+01  -8.419757e+01
   9.231872e+01  -4.693701e+01
   7.547260e+01   3.271313e+01
  -1.469410e+01   1.039108e+02
  -1.286995e+02   6.335817e+01
  -1.881364e+02  -4.085499e+01
  -1.164032e+02  -1.861148e+02
   9.542630e+01  -2.134340e+02
   2.582326e+02  -9.437784e+01
   2.439761e+02   9.246106e+01
   1.083867e+02   1.704528e+02
  -3.761953e+01   1.465951e+02
  -9.492611e+01   7.969067e+01
  -7.704359e+01   6.602117e+01
  -6.785520e+01   9.402236e+01
  -9.024709e+01   7.618763e+01
  -1.228785e+02  -2.769917e+01
  -1.013496e+02  -1.582734e+02
  -3.742716e+01  -2.178875e+02
   1.013009e+02  -1.716726e+02
   1.607119e+02  -1.795048e+01
   1.402507e+02   1.076781e+02
   2.590067e+01   1.506100e+02
  -5.291056e+01   8.147399e+01
  -5.357911e+01   3.462824e+00
  -6.887494e+00  -3.862370e+01
   9.048407e+00  -3.150768e+01
  -3.518152e+01  -1.906456e+01
  -7.155261e+01  -2.551859e+01
  -3.914182e+01  -3.831591e+01
   6.202148e+01  -2.686884e+01
   1.462608e+02   6.549533e-01
   1.407556e+02   4.972120e+01
   1.497663e+01   8.465746e+01
  -1.114542e+02   7.319131e+01
  -1.379456e+02   1.673028e+01
  -4.737535e+01  -4.095834e+01
   5.990585e+01  -2.991985e+01
   6.859022e+01   2.101596e+01
   4.648305e+00   6.810073e+01
  -5.844185e+01   5.626879e+01
  -5.980348e+01  -4.522165e+00
  -3.788463e+01  -5.055301e+01
  -3.662226e+01  -4.133077e+01
  -5.783044e+01  -7.119242e+00
  -6.306389e+01   1.623883e+00
  -3.236769e+01  -6.242312e+01
   4.455384e+01  -1.482391e+02
   1.173082e+02  -1.345640e+02
   1.559573e+02  -3.001485e+01
   1.176801e+02   9.216376e+01
  -8.104238e+00   1.201628e+02
  -7.585182e+01   6.023748e+01
  -5.808902e+01  -2.014529e+01
   6.172940e+01  -1.960482e+01
   1.324209e+02   3.369039e+01
   6.052306e+01   1.006777e+02
  -8.403947e+01   1.083982e+02
  -1.861276e+02   4.806703e+01
  -1.574424e+02  -1.875900e+01
  -4.208609e+01  -8.548996e+01
   5.869348e+01  -7.267096e+01
   4.742830e+01  -1.001533e+01
  -4.000447e+01   2.184201e+01
  -8.876942e+01  -2.123989e+01
  -3.474367e+01  -1.227062e+02
   9.739694e+01  -1.563503e+02
   1.623229e+02  -5.702732e+01
   1.227990e+02   1.038885e+02
   1.861884e+00   1.928712e+02
  -9.566775e+01   1.376987e+02
  -1.023332e+02  -8.583010e+00
  -5.885764e+01  -1.096903e+02
   6.128482e+00  -9.933211e+01
   4.201598e+01  -1.947379e+01
   5.081949e+01   3.031799e+01
   2.713357e+01   1.098109e+01
   2.936648e+00  -2.053999e+01
   1.635487e+01   1.640754e+01
   4.830424e+01   8.782040e+01
   4.824697e+01   1.008358e+02
  -4.046862e+01   4.274585e+01
  -1.386621e+02  -3.780037e+01
  -1.261691e+02  -8.194266e+01
  -1.730496e+01  -4.846189e+01
   8.560968e+01  -3.024190e+01
   8.024380e+01  -1.837224e+00
   7.341310e+00   8.413530e+00
  -3.905150e+01   2.026019e+01
  -1.259396e+01   1.854787e+01
   2.251301e+01  -2.148729e-02
  -6.356413e+00  -8.497172e+00
  -7.503502e+01  -6.807910e+00
  -8.613998e+01  -3.038828e+01
   2.174872e+00  -7.554654e+01
   1.251605e+02  -1.059149e+02
   1.853532e+02  -6.175981e+01
   1.326701e+02   6.539765e+01
   2.246374e+01   1.583986e+02
  -7.824250e+01   1.416258e+02
  -1.093868e+02   5.090600e+01
  -7.875279e+01  -1.890212e+01
  -2.186920e+01  -3.269273e+01
   4.809524e+00  -6.174124e+00
  -9.165128e+00  -2.626247e+00
  -2.965003e+01  -4.311097e+01
  -1.927356e+01  -8.600166e+01
   3.186684e+01  -7.095246e+01
   7.789229e+01   2.345256e+01
   7.816305e+01   1.126660e+02
  -4.047932e-01   1.155880e+02
  -8.715042e+01   2.128308e+01
  -1.016257e+02  -8.500131e+01
  -2.782311e+01  -1.057776e+02
   7.061216e+01  -4.853946e+01
   9.233631e+01   1.794989e+01
   2.848671e+01   4.966946e+01
  -3.096824e+01   4.849506e+01
  -2.802669e+01   2.388773e+01
   3.705085e+01   3.518589e+00
   6.550435e+01  -3.367321e+00
   1.034446e+01   2.817679e+01
  -7.774450e+01   6.906500e+01
  -1.089592e+02   4.831445e+01
  -5.717107e+01  -1.299444e+01
   2.195897e+01  -8.554136e+01
   5.929623e+01  -8.031427e+01
   3.455108e+01  -2.824361e+00
   3.044464e-01   5.220491e+01
  -3.191079e+01   3.859275e+01
  -3.435408e+01  -2.028675e+01
  -2.703020e+01  -5.472615e+01
   4.967876e+00  -3.044186e+01
   3.312353e+01   1.218996e+01
   3.563590e+01   2.010825e+01
   1.976780e+01  -8.173359e-01
  -1.181265e-01  -1.388699e+01
  -4.287275e+00   6.779106e+00
  -8.817670e+00   3.415412e+01
  -2.542414e+01   4.416693e+01
  -3.649909e+01   5.676452e+00
  -2.921246e+01  -4.994502e+01
   8.263826e+00  -6.358858e+01
   4.215472e+01  -1.743327e+01
   5.339905e+01   4.196009e+01
   1.298327e+01   6.364073e+01
  -5.087935e+01   2.882767e+01
  -9.193358e+01  -2.120696e+01
  -4.425403e+01  -4.243664e+01
   3.125659e+01  -3.736165e+01
   6.361699e+01  -1.757867e+01
   2.347014e+01  -1.660469e+00
  -3.848038e+01  -4.624903e+00
  -3.758325e+01  -1.727041e+01
   3.285565e+01  -2.990471e+01
   9.120449e+01  -2.267256e+01
