
 $NMID
 id='ANONYMOUS ', fmtdat='(2E16.6)'
 volume=1.0
 tramp=1.0
 $END
  -4.473319e+03   3.813287e+02
  -2.744551e+03  -2.210741e+03
   5.250516e+02  -2.619897e+03
   1.866958e+03  -1.262777e+03
   9.537753e+02   5.071609e+02
  -5.087948e+02   4.720715e+02
  -9.594728e+02  -1.822876e+02
  -1.551371e+02  -1.065628e+03
   7.360066e+02  -8.413546e+02
   8.033817e+02   1.065734e+02
   5.437108e+02   8.231754e+02
  -1.650731e+02   8.783513e+02
  -6.137956e+02   1.934590e+02
  -4.400445e+02  -6.353293e+02
   2.299539e+02  -7.709158e+02
   5.515709e+02  -1.626639e+01
   3.434483e+02   6.207098e+02
  -3.067923e+02   6.976172e+02
  -5.758655e+02   1.894574e+02
  -4.320138e+02  -3.204461e+02
  -5.695633e+01  -4.555510e+02
   2.070996e+02  -2.752653e+02
   1.745554e+02  -4.206761e+01
  -8.507612e+01   6.731746e+01
  -3.574486e+02  -1.494692e+02
  -1.503005e+02  -4.209634e+02
   4.896547e+02  -3.609176e+02
   8.458226e+02   3.256272e+01
   4.333854e+02   4.904297e+02
  -2.915530e+02   4.906693e+02
  -7.339385e+02   1.346719e+02
  -3.112660e+02  -4.852523e+02
   2.186567e+02  -5.353263e+02
   5.448710e+02  -2.157120e+02
   4.248553e+02   1.800357e+02
   1.515206e+02   4.338102e+02
  -1.517178e+02   3.063841e+02
  -1.909049e+02  -1.642147e+02
   1.552782e+02  -3.500844e+02
   3.977330e+02  -3.288925e+01
   2.758724e+02   6.300681e+02
  -2.566115e+02   7.774385e+02
  -5.513061e+02  -1.000018e+00
  -3.025069e+02  -4.700972e+02
   2.533436e+02  -2.857199e+02
   3.254692e+02   3.049570e+02
  -8.241183e+01   5.142056e+02
  -5.278906e+02   1.844834e+02
  -5.886231e+02  -3.551474e+02
  -1.855406e+02  -5.613267e+02
   3.641410e+02  -3.229432e+02
   5.953521e+02   9.697221e+01
   3.761276e+02   3.847217e+02
  -9.123260e+01   3.945226e+02
  -4.257444e+02   1.188118e+02
  -2.701634e+02  -1.645260e+02
   9.547667e+01  -9.583056e+01
   1.052339e+02   1.349756e+02
  -1.384595e+02   2.192918e+02
  -3.337391e+02  -3.415347e+01
  -1.554491e+02  -2.735560e+02
   1.938357e+02  -2.910850e+02
   3.478944e+02  -1.106294e+02
   2.137447e+02   8.497307e+01
  -3.750040e+01   2.367962e+02
  -2.424205e+02   3.152887e+02
  -3.267601e+02   2.379063e+02
  -2.717679e+02  -1.310835e+02
  -1.170371e+02  -4.216508e+02
   6.223699e+01  -3.923311e+02
   9.427073e+01  -1.296161e+02
   2.668332e+01  -1.488954e+01
   5.198202e+01  -6.910834e+01
   2.001879e+02  -1.127961e+02
   2.611684e+02   5.574429e+01
   1.516939e+02   2.722242e+02
  -7.945895e+01   2.575834e+02
  -2.166655e+02   1.679640e+00
  -1.949153e+02  -2.281388e+02
  -1.939884e+00  -2.855990e+02
   2.700143e+02  -1.182528e+02
   3.481853e+02   1.562468e+02
   2.168285e+02   3.453780e+02
  -5.829412e+01   3.176547e+02
  -2.222253e+02   1.643761e+02
  -1.560520e+02   5.970608e+00
  -1.066417e+02   4.931503e+01
  -2.226375e+02   5.692738e+01
  -4.004168e+02  -3.938065e+01
  -3.465918e+02  -2.870568e+02
  -1.356883e+01  -4.669583e+02
   3.655148e+02  -3.945514e+02
   4.841496e+02  -1.840286e+02
   3.403204e+02   8.140907e+01
   7.156037e+01   2.936914e+02
  -1.215467e+02   2.527851e+02
  -7.853023e+01   5.170604e+01
   1.132591e+02  -1.104916e+02
   1.929895e+02  -3.309977e+00
   3.304328e+01   1.820017e+02
  -1.351974e+02   1.824853e+02
  -1.818956e+02  -3.545352e+01
   7.131075e+00  -1.798219e+02
   1.841763e+02  -5.490285e+01
   1.657427e+02   2.575784e+02
  -1.065865e+01   3.568656e+02
  -2.267575e+02   2.267813e+02
  -3.366958e+02  -5.673934e+01
  -2.869028e+02  -1.998541e+02
  -1.025590e+02  -2.505075e+02
   1.046906e+02  -1.612463e+02
   1.714445e+02  -2.154800e+01
   5.542003e+01   2.557328e+01
  -6.676656e+01  -3.958646e+01
  -3.499915e+01  -1.163425e+02
   1.256904e+02  -8.461928e+01
   1.837532e+02  -6.075166e+00
   5.558023e+01   7.122735e+01
  -8.152976e+01   1.330168e+01
  -5.525009e+01  -7.147450e+01
   1.205558e+02  -9.677879e+01
   2.803520e+02   8.616297e+00
   2.667367e+02   1.315479e+02
   7.749080e+01   2.506835e+02
  -1.646150e+02   2.634259e+02
  -2.682603e+02   1.367124e+02
  -1.598108e+02  -4.799544e+01
   2.237578e+01  -1.133935e+02
   8.521077e+01  -1.879040e+01
  -2.149886e+01   1.039557e+02
  -1.925533e+02   6.231468e+01
  -1.981442e+02  -9.865191e+01
  -6.375168e+01  -2.070297e+02
   9.469885e+01  -1.558278e+02
   1.439261e+02  -3.002396e+01
   6.823774e+01   3.239581e+01
  -3.361685e+01  -2.447216e+00
  -3.898837e+01  -8.143441e+01
   7.943003e+01  -1.112780e+02
   1.927272e+02  -3.512309e+01
   1.959188e+02   1.095358e+02
   3.029898e+01   2.206681e+02
  -1.580653e+02   1.658442e+02
  -1.815356e+02   1.497087e+01
  -6.752593e+01  -1.135659e+02
   5.404923e+01  -1.100302e+02
   7.934431e+01  -4.633913e+01
   1.931160e+01   2.043898e+01
  -1.986975e+01   1.783167e+01
   1.060825e+01  -1.135631e+01
   7.652020e+01   3.185079e+00
   9.920881e+01   8.039575e+01
   1.510704e+01   1.567584e+02
  -1.192276e+02   1.677922e+02
  -2.186326e+02   2.881874e+01
  -2.082700e+02  -1.290157e+02
  -3.481326e+01  -2.199003e+02
   9.462820e+01  -1.821845e+02
   1.403469e+02  -2.815772e+01
   7.657687e+01   4.300703e+01
   3.347970e+01   3.421455e+01
   5.223576e+01  -1.494027e+01
   8.403441e+01  -8.495284e+00
   4.510752e+01   5.030430e+01
  -3.949632e+01   8.859648e+01
  -9.789434e+01   5.931447e+01
  -8.174058e+01  -4.263986e+01
   6.202113e+00  -1.186330e+02
   1.417432e+02  -8.464198e+01
   1.951974e+02   5.605878e+01
   9.491604e+01   1.972069e+02
  -8.719123e+01   2.288244e+02
  -2.766556e+02   1.014288e+02
  -2.742719e+02  -6.605309e+01
  -1.279917e+02  -1.613890e+02
   1.629210e+01  -1.492031e+02
   8.802699e+01  -8.375275e+01
   7.845404e+01  -7.780181e+01
   5.902045e+01  -9.200423e+01
   9.247572e+01  -6.977285e+01
   1.397157e+02   1.126411e+01
   1.243492e+02   1.522814e+02
   2.564187e+01   2.301361e+02
  -9.579027e+01   1.747041e+02
  -1.788756e+02   2.754262e+01
  -1.304202e+02  -1.241314e+02
  -2.235459e+01  -1.532237e+02
   6.088476e+01  -8.979686e+01
   6.057493e+01   9.529317e-01
   4.993731e+00   4.203664e+01
  -9.577559e+00   3.795738e+01
   3.785713e+01   1.289197e+01
   8.019887e+01   1.826426e+01
   4.752230e+01   3.389310e+01
  -6.477355e+01   4.406848e+01
  -1.578113e+02   6.503018e+00
  -1.483217e+02  -4.550767e+01
  -2.212504e+01  -8.501245e+01
   1.251116e+02  -7.270693e+01
   1.376028e+02  -1.594576e+01
   5.104340e+01   3.860617e+01
  -5.734000e+01   4.795687e+01
  -7.390081e+01  -1.430992e+01
  -1.602409e+01  -7.016874e+01
   5.734558e+01  -6.153488e+01
   6.763039e+01  -3.203721e+00
   5.253703e+01   4.591064e+01
   4.774725e+01   4.074312e+01
   5.915804e+01  -6.434836e+00
   6.441237e+01   7.255346e-01
   2.846751e+01   7.184277e+01
  -2.837253e+01   1.489471e+02
  -1.164240e+02   1.522324e+02
  -1.660191e+02   4.421359e+01
  -1.340581e+02  -8.535455e+01
  -1.520985e+01  -1.205652e+02
   9.159268e+01  -6.420858e+01
   6.273322e+01   9.364293e+00
  -6.077774e+01   2.207191e+01
  -1.330434e+02  -3.860097e+01
  -7.799678e+01  -1.068976e+02
   8.042693e+01  -1.108473e+02
   1.874518e+02  -4.753060e+01
   1.519873e+02   4.897088e+01
   3.542170e+01   8.334236e+01
  -6.157281e+01   6.630056e+01
  -4.809712e+01   6.862155e+00
   3.494130e+01  -3.474068e+01
   9.488237e+01   2.362518e+01
   3.997736e+01   1.107829e+02
  -7.434811e+01   1.672047e+02
  -1.623274e+02   7.507088e+01
  -1.149880e+02  -1.064714e+02
  -1.454628e+01  -1.956958e+02
   7.569856e+01  -1.513098e+02
   1.064817e+02  -1.940255e+00
   5.360234e+01   1.102785e+02
   4.951950e+00   1.105448e+02
  -4.383278e+01   1.782902e+01
  -5.010562e+01  -2.781779e+01
  -2.479658e+01  -7.921996e+00
  -2.530812e+00   1.926997e+01
  -2.296357e+01  -1.564831e+01
  -6.613910e+01  -8.669382e+01
  -3.817154e+01  -1.089662e+02
   4.476463e+01  -4.522837e+01
   1.422696e+02   3.325910e+01
   1.361107e+02   5.442054e+01
   2.108190e+01   4.529869e+01
  -8.708041e+01   2.389885e+01
  -8.572445e+01   9.656327e+00
  -1.051829e+01  -7.581538e+00
   3.479450e+01  -2.351931e+01
   1.551882e+01  -1.597581e+01
  -2.085700e+01   3.688194e+00
   7.318614e+00   7.383738e+00
   7.549792e+01  -8.843815e+00
   9.271549e+01   1.478583e+01
   1.387215e+01   8.657007e+01
  -1.055398e+02   1.259108e+02
  -1.773425e+02   5.353567e+01
  -1.486142e+02  -6.217636e+01
  -4.420626e+01  -1.556057e+02
   7.912346e+01  -1.579758e+02
   1.070358e+02  -6.447898e+01
   8.114162e+01   2.437443e+01
   2.480513e+01   3.797485e+01
  -5.815521e-01   9.869128e+00
   1.060352e+01   4.986033e+00
   3.592554e+01   4.280378e+01
   3.284811e+01   8.757738e+01
  -2.970506e+01   7.238722e+01
  -8.843558e+01  -6.719989e+00
  -7.769122e+01  -1.000435e+02
  -1.028000e+01  -1.166647e+02
   8.700833e+01  -2.326540e+01
   1.097072e+02   6.242760e+01
   3.385450e+01   1.014697e+02
  -6.393090e+01   6.249586e+01
  -9.531353e+01  -1.104778e+01
  -4.224652e+01  -4.796905e+01
   3.503050e+01  -5.492952e+01
   2.914473e+01  -2.833450e+01
  -3.152231e+01   2.859373e+00
  -6.597662e+01   1.099259e+01
  -1.815625e+01  -2.486040e+01
   7.826863e+01  -7.117988e+01
   1.210369e+02  -6.149415e+01
   6.573866e+01   9.668824e+00
  -1.150338e+01   8.450834e+01
  -5.087517e+01   8.494774e+01
  -3.773312e+01   7.442847e+00
   2.091368e-02  -5.557664e+01
   2.173518e+01  -4.778404e+01
   3.653201e+01   1.640144e+01
   2.429453e+01   5.550422e+01
  -2.148430e+00   3.181894e+01
  -3.475078e+01  -6.855797e+00
  -4.091464e+01  -1.692206e+01
  -2.024739e+01  -8.861176e-01
  -3.309660e-01   1.535683e+01
   4.474523e+00  -1.909107e+00
   3.500301e+00  -3.655306e+01
   1.048755e+01  -4.924954e+01
   3.207037e+01  -1.190673e+01
   3.188177e+01   4.743066e+01
   6.911979e+00   6.310314e+01
  -4.188400e+01   2.290283e+01
  -5.749923e+01  -3.460966e+01
  -1.415573e+01  -6.321465e+01
   5.055890e+01  -3.802654e+01
   8.997819e+01   8.309302e+00
   5.254524e+01   3.919769e+01
  -2.858617e+01   4.145873e+01
  -6.288187e+01   2.629009e+01
  -2.443443e+01   5.875208e+00
   3.812119e+01  -5.194904e+00
   3.827511e+01   1.379077e+01
  -2.970789e+01   3.345844e+01
  -9.408351e+01   1.736508e+01
