
 $NMID
 id='ANONYMOUS ', fmtdat='(2E16.6)'
 volume=1.0
 tramp=1.0
 $END
  -4.722917e+03   1.311725e+02
  -2.797456e+03  -2.800148e+03
   6.572935e+02  -2.817300e+03
   2.195497e+03  -1.260841e+03
   9.423070e+02   6.534685e+02
  -6.218150e+02   5.438599e+02
  -1.066125e+03  -3.218590e+02
  -1.084125e+02  -1.155723e+03
   8.813551e+02  -9.262617e+02
   8.873334e+02   1.397226e+02
   5.017047e+02   8.857392e+02
  -2.123253e+02   8.702637e+02
  -6.745958e+02   1.978782e+02
  -4.340062e+02  -6.983400e+02
   2.553873e+02  -8.000961e+02
   6.160737e+02   2.082261e+01
   3.689840e+02   6.805151e+02
  -3.668076e+02   7.043331e+02
  -5.933845e+02   1.138350e+02
  -4.002003e+02  -3.592149e+02
  -4.459489e+01  -4.588588e+02
   2.516655e+02  -2.868304e+02
   2.211724e+02  -3.493424e+01
  -7.716322e+01   1.249643e+02
  -4.113536e+02  -1.035592e+02
  -2.133246e+02  -4.180089e+02
   5.014069e+02  -4.097795e+02
   8.937980e+02   2.762353e+01
   5.195382e+02   5.382209e+02
  -3.350242e+02   5.566900e+02
  -7.998939e+02   1.419325e+02
  -3.437282e+02  -4.763262e+02
   2.337171e+02  -5.627311e+02
   5.753090e+02  -2.460783e+02
   4.396919e+02   2.160173e+02
   1.483505e+02   4.681210e+02
  -1.774863e+02   3.348652e+02
  -2.378949e+02  -1.705271e+02
   1.711847e+02  -4.577691e+02
   4.619392e+02  -7.751841e+01
   3.536603e+02   7.059301e+02
  -3.084337e+02   7.727778e+02
  -5.851356e+02   1.207098e+01
  -3.297015e+02  -5.069210e+02
   2.927148e+02  -3.325248e+02
   4.036825e+02   3.635254e+02
  -5.179900e+01   5.237779e+02
  -5.642319e+02   1.860093e+02
  -6.125046e+02  -3.675681e+02
  -1.935277e+02  -6.008800e+02
   3.841659e+02  -3.589939e+02
   6.307731e+02   9.231316e+01
   3.799406e+02   4.040888e+02
  -1.341343e+02   4.080038e+02
  -4.623830e+02   1.077899e+02
  -2.596216e+02  -2.005708e+02
   1.389739e+02  -1.054263e+02
   1.438256e+02   1.685033e+02
  -1.530741e+02   2.337279e+02
  -3.585530e+02  -4.799102e+01
  -1.682114e+02  -3.132891e+02
   2.014010e+02  -2.837061e+02
   3.343948e+02  -8.827288e+01
   1.945105e+02   7.171536e+01
  -2.402227e+01   2.169719e+02
  -2.296632e+02   3.065497e+02
  -3.167165e+02   2.411105e+02
  -3.109413e+02  -1.231455e+02
  -1.280416e+02  -4.520544e+02
   8.478679e+01  -4.361139e+02
   1.210687e+02  -1.184886e+02
   2.747777e+01   1.646700e+01
   2.130218e+01  -6.629038e+01
   1.917522e+02  -1.410198e+02
   2.783851e+02   2.165004e+01
   1.651855e+02   2.611702e+02
  -7.575841e+01   2.585279e+02
  -2.387832e+02   2.356761e+01
  -2.160128e+02  -2.317101e+02
  -8.229452e+00  -2.995407e+02
   2.609788e+02  -1.329526e+02
   3.593896e+02   1.512028e+02
   2.172988e+02   3.488328e+02
  -9.129420e+01   3.192175e+02
  -2.246176e+02   1.517102e+02
  -1.566371e+02  -1.215168e+01
  -8.781018e+01   4.289443e+01
  -2.151825e+02   7.594561e+01
  -3.857264e+02  -2.739828e+01
  -3.600943e+02  -2.698505e+02
  -2.607191e+01  -4.532926e+02
   3.428843e+02  -4.088461e+02
   4.856937e+02  -2.062969e+02
   3.460644e+02   7.793630e+01
   8.323672e+01   2.926991e+02
  -1.284510e+02   2.680033e+02
  -9.302724e+01   4.934178e+01
   9.988763e+01  -1.210609e+02
   2.028158e+02   2.866161e+00
   5.791899e+01   1.989080e+02
  -1.386932e+02   1.963948e+02
  -2.031961e+02  -3.775061e+01
   6.600137e+00  -1.996063e+02
   1.914080e+02  -6.367877e+01
   1.636003e+02   2.611103e+02
  -1.088271e+01   3.607954e+02
  -2.149152e+02   2.112270e+02
  -3.413721e+02  -6.791348e+01
  -2.775672e+02  -2.042644e+02
  -1.128058e+02  -2.661655e+02
   1.057602e+02  -1.634857e+02
   1.780987e+02  -2.596284e+01
   6.309939e+01   3.276721e+01
  -7.803306e+01  -3.413639e+01
  -4.356384e+01  -1.196325e+02
   1.304708e+02  -9.569169e+01
   1.805909e+02  -7.569161e+00
   6.069497e+01   7.862547e+01
  -7.482492e+01   2.216704e+01
  -6.168031e+01  -6.856925e+01
   1.085256e+02  -9.447463e+01
   2.874322e+02   9.215263e+00
   2.621060e+02   1.177692e+02
   7.740495e+01   2.297378e+02
  -1.512677e+02   2.826193e+02
  -2.596008e+02   1.443877e+02
  -1.724195e+02  -4.836703e+01
   2.101759e+01  -1.150791e+02
   8.981914e+01  -2.992449e+01
  -1.724138e+01   1.084545e+02
  -1.912321e+02   7.012564e+01
  -2.145530e+02  -9.619521e+01
  -7.280029e+01  -2.014369e+02
   8.983633e+01  -1.584943e+02
   1.498258e+02  -3.378059e+01
   7.659240e+01   3.419050e+01
  -2.931077e+01   5.244368e+00
  -4.307117e+01  -7.487046e+01
   6.597069e+01  -1.066530e+02
   1.876752e+02  -4.287658e+01
   1.978932e+02   1.120363e+02
   3.432551e+01   2.210530e+02
  -1.538962e+02   1.635276e+02
  -1.918603e+02   1.681699e+01
  -7.188239e+01  -1.228383e+02
   6.183129e+01  -1.192099e+02
   8.384866e+01  -4.674159e+01
   2.593706e+01   2.368681e+01
  -1.579407e+01   1.813567e+01
   9.182849e+00  -7.462559e+00
   7.053492e+01   6.023681e+00
   9.657740e+01   7.625602e+01
   1.429698e+01   1.564236e+02
  -1.039960e+02   1.613050e+02
  -2.319343e+02   2.993175e+01
  -2.148514e+02  -1.297142e+02
  -4.685416e+01  -2.275671e+02
   9.627352e+01  -1.857971e+02
   1.380124e+02  -2.392346e+01
   7.654122e+01   5.098689e+01
   3.195576e+01   3.681458e+01
   4.994361e+01  -1.430160e+01
   7.850332e+01  -8.169293e+00
   4.097896e+01   5.029949e+01
  -4.212835e+01   8.869765e+01
  -9.517986e+01   5.262989e+01
  -7.505618e+01  -4.281334e+01
   1.301809e+01  -1.112895e+02
   1.345294e+02  -8.065919e+01
   2.013607e+02   5.771445e+01
   1.057478e+02   2.032549e+02
  -8.750553e+01   2.219373e+02
  -2.684021e+02   9.499573e+01
  -2.660006e+02  -6.375005e+01
  -1.370426e+02  -1.559853e+02
   1.652346e+01  -1.531893e+02
   8.896934e+01  -8.624043e+01
   7.517606e+01  -7.317093e+01
   6.290733e+01  -9.323910e+01
   9.461520e+01  -7.520398e+01
   1.303388e+02   1.292934e+01
   1.215986e+02   1.468662e+02
   2.420433e+01   2.355742e+02
  -9.421543e+01   1.770810e+02
  -1.762401e+02   3.172023e+01
  -1.305003e+02  -1.233259e+02
  -2.167927e+01  -1.553361e+02
   6.170720e+01  -9.810643e+01
   6.208851e+01  -1.617831e+00
   5.970482e+00   4.099947e+01
  -5.233605e+00   3.666131e+01
   4.023167e+01   1.461948e+01
   8.105777e+01   2.065819e+01
   4.621435e+01   3.380550e+01
  -6.084103e+01   4.325156e+01
  -1.544399e+02   6.613387e+00
  -1.414452e+02  -4.119265e+01
  -2.343990e+01  -8.225540e+01
   1.213613e+02  -7.701134e+01
   1.416075e+02  -1.714981e+01
   5.470022e+01   3.619470e+01
  -5.627199e+01   4.515078e+01
  -6.883409e+01  -9.887465e+00
  -1.103805e+01  -6.632776e+01
   5.970653e+01  -5.367398e+01
   6.386421e+01  -2.444182e+00
   4.705183e+01   4.985094e+01
   4.467421e+01   3.737172e+01
   6.193107e+01  -8.879392e+00
   6.374588e+01   2.441726e+00
   3.003509e+01   6.723712e+01
  -2.756928e+01   1.492616e+02
  -1.078674e+02   1.423659e+02
  -1.640328e+02   4.207331e+01
  -1.263757e+02  -8.250114e+01
  -2.205897e+01  -1.201516e+02
   9.249355e+01  -6.276028e+01
   6.055720e+01   1.048833e+01
  -6.190369e+01   1.902887e+01
  -1.364431e+02  -3.939808e+01
  -8.172880e+01  -9.837421e+01
   7.804611e+01  -1.176937e+02
   1.835118e+02  -5.926609e+01
   1.542312e+02   4.719444e+01
   4.117205e+01   8.926646e+01
  -6.040359e+01   6.698843e+01
  -4.951308e+01   1.086184e+01
   3.621055e+01  -3.199631e+01
   9.404040e+01   2.448933e+01
   3.899140e+01   1.191466e+02
  -8.208904e+01   1.671804e+02
  -1.608745e+02   6.855060e+01
  -1.145853e+02  -1.024540e+02
  -1.338119e+01  -1.896454e+02
   7.752285e+01  -1.490772e+02
   1.036842e+02  -3.452280e+00
   6.333903e+01   1.092085e+02
   5.902319e+00   1.088366e+02
  -4.057208e+01   2.139923e+01
  -5.441232e+01  -2.707336e+01
  -2.772227e+01  -8.786312e+00
  -1.742106e+00   2.067662e+01
  -2.171017e+01  -1.264915e+01
  -6.335249e+01  -8.741385e+01
  -4.492835e+01  -1.084067e+02
   4.358595e+01  -4.585143e+01
   1.396930e+02   3.444989e+01
   1.391489e+02   5.951821e+01
   2.137491e+01   4.759125e+01
  -8.893345e+01   1.949304e+01
  -8.762377e+01   1.287113e+01
  -8.886855e+00  -5.853407e+00
   3.950396e+01  -2.498732e+01
   1.418324e+01  -1.847360e+01
  -2.206135e+01   1.323393e+00
   7.791901e+00   9.544329e+00
   7.588122e+01  -3.604800e+00
   9.338764e+01   1.110308e+01
   8.396957e+00   8.004700e+01
  -1.096126e+02   1.304940e+02
  -1.849876e+02   5.273537e+01
  -1.427782e+02  -6.710276e+01
  -3.805567e+01  -1.634240e+02
   7.010843e+01  -1.456440e+02
   1.099139e+02  -6.196699e+01
   8.260885e+01   2.506486e+01
   2.317449e+01   3.580779e+01
  -2.557346e+00   9.367312e+00
   9.673719e+00   3.809928e+00
   3.609980e+01   4.107071e+01
   3.348572e+01   9.045979e+01
  -2.564136e+01   7.132246e+01
  -8.736036e+01  -1.104530e+01
  -8.158924e+01  -1.098696e+02
  -7.313551e+00  -1.169880e+02
   8.446124e+01  -2.081223e+01
   1.094999e+02   6.745762e+01
   3.186628e+01   1.061080e+02
  -6.327524e+01   5.984696e+01
  -9.554716e+01  -1.176087e+01
  -4.476704e+01  -4.383986e+01
   3.424978e+01  -5.068328e+01
   2.718248e+01  -2.961811e+01
  -3.303714e+01   2.598373e+00
  -6.607909e+01   1.141395e+01
  -1.815128e+01  -2.273439e+01
   7.622020e+01  -6.968386e+01
   1.192449e+02  -6.008588e+01
   6.180153e+01   8.725816e+00
  -1.258724e+01   8.630022e+01
  -5.296468e+01   8.426847e+01
  -3.517441e+01   4.247587e+00
  -5.629598e-01  -5.431872e+01
   2.310957e+01  -4.480908e+01
   3.545662e+01   1.754491e+01
   2.459726e+01   5.453750e+01
  -3.275671e+00   3.091723e+01
  -3.291623e+01  -7.145511e+00
  -4.009055e+01  -1.724932e+01
  -2.056773e+01  -8.682581e-01
  -1.084324e+00   1.309634e+01
   4.633913e+00  -5.355068e+00
   4.221338e+00  -3.646251e+01
   1.463018e+01  -4.438871e+01
   3.508213e+01  -8.086562e+00
   2.840446e+01   4.836498e+01
   2.176763e+00   6.245610e+01
  -4.383528e+01   2.314546e+01
  -5.882195e+01  -3.619478e+01
  -1.341238e+01  -6.054277e+01
   5.281457e+01  -3.622101e+01
   9.014161e+01   1.399011e+01
   5.127983e+01   3.966426e+01
  -2.805584e+01   4.131904e+01
  -6.105080e+01   2.239194e+01
  -2.370334e+01   3.745913e+00
   3.995568e+01  -1.474609e+00
   3.909086e+01   1.723627e+01
  -2.902589e+01   3.339519e+01
  -9.499202e+01   1.866482e+01
