
 $NMID
 id='ANONYMOUS ', fmtdat='(2E16.6)'
 volume=1.0
 tramp=1.0
 $END
   4.322062e+03   2.145668e+02
   2.406027e+03   2.775388e+03
  -5.380389e+02   2.500986e+03
  -2.001568e+03   8.047267e+02
  -8.912650e+02  -4.370826e+02
   4.026148e+02  -4.775171e+02
   7.495912e+02   4.067023e+02
  -1.154952e+02   1.069496e+03
  -8.306733e+02   7.672657e+02
  -8.538341e+02  -7.411089e+01
  -4.740926e+02  -7.799799e+02
   1.631296e+02  -8.612993e+02
   5.621357e+02  -7.983707e+01
   3.342099e+02   6.547594e+02
  -1.835554e+02   6.146862e+02
  -5.605394e+02   3.558878e+00
  -2.821961e+02  -6.165291e+02
   2.981416e+02  -6.667029e+02
   5.808839e+02  -1.610604e+02
   4.010114e+02   2.863862e+02
   2.240768e+01   4.626204e+02
  -2.092244e+02   2.526304e+02
  -1.443459e+02   2.490368e+01
   1.272068e+02  -5.199325e+01
   3.591658e+02   1.791795e+02
   1.355243e+02   4.329276e+02
  -4.817852e+02   3.290222e+02
  -8.264204e+02  -1.726449e+02
  -3.802553e+02  -5.187977e+02
   4.128031e+02  -4.176428e+02
   7.486588e+02   8.525814e+01
   3.172381e+02   4.735097e+02
  -3.226506e+02   5.126085e+02
  -5.530872e+02   1.924658e+02
  -3.666241e+02  -2.078622e+02
  -5.523406e+01  -4.607201e+02
   2.028223e+02  -2.766968e+02
   1.253879e+02   2.084589e+02
  -2.055977e+02   3.027646e+02
  -4.478909e+02  -5.812064e+01
  -2.335373e+02  -7.278409e+02
   3.384724e+02  -7.209825e+02
   5.741749e+02  -1.790856e+01
   2.303840e+02   4.814341e+02
  -2.247244e+02   2.233719e+02
  -3.220358e+02  -3.024098e+02
   1.104528e+02  -5.207833e+02
   5.009866e+02  -1.393099e+02
   5.153382e+02   3.942605e+02
   1.602147e+02   5.770468e+02
  -3.594735e+02   3.373525e+02
  -5.794560e+02  -7.462427e+01
  -3.592027e+02  -3.714634e+02
   1.366862e+02  -3.086910e+02
   4.724604e+02  -4.818625e+01
   2.281093e+02   1.511247e+02
  -8.924706e+01   7.328566e+01
  -1.069064e+02  -1.026579e+02
   1.696363e+02  -1.684531e+02
   3.634844e+02   6.570429e+01
   1.300169e+02   2.781273e+02
  -1.980270e+02   2.336786e+02
  -3.425561e+02   7.726317e+01
  -2.221438e+02  -9.018174e+01
   3.021574e+01  -2.191996e+02
   2.192626e+02  -3.311559e+02
   3.492030e+02  -1.746762e+02
   2.726090e+02   1.334647e+02
   5.965340e+01   4.106167e+02
  -1.144340e+02   4.029196e+02
  -7.927350e+01   1.248445e+02
  -2.873607e+01   2.094534e+01
  -6.412559e+01   8.548331e+01
  -1.938956e+02   1.024271e+02
  -2.535906e+02  -7.534936e+01
  -1.342856e+02  -2.706332e+02
   8.670021e+01  -2.702008e+02
   2.225380e+02   5.277402e+00
   1.860815e+02   2.256602e+02
  -3.190533e+01   2.647546e+02
  -2.551997e+02   1.165236e+02
  -3.342896e+02  -1.652598e+02
  -1.979178e+02  -3.896629e+02
   9.439029e+01  -2.966932e+02
   2.274102e+02  -1.274614e+02
   1.483341e+02  -1.431992e+01
   1.139622e+02  -4.694521e+01
   2.312572e+02  -5.341580e+01
   4.440519e+02   7.554351e+01
   2.944691e+02   2.756281e+02
  -1.188794e+01   4.222456e+02
  -3.451881e+02   4.051787e+02
  -4.483537e+02   1.969597e+02
  -3.133006e+02  -1.001111e+02
  -3.112464e+01  -2.641508e+02
   1.104229e+02  -2.082202e+02
   7.356486e+01  -2.697572e+01
  -1.143989e+02   1.036035e+02
  -1.959525e+02   2.079786e+00
  -2.551699e+01  -1.519024e+02
   1.510793e+02  -1.527168e+02
   1.774108e+02   7.026294e+01
  -2.496383e+01   1.720414e+02
  -1.934795e+02   2.350963e+01
  -1.579525e+02  -2.424204e+02
   2.871859e+01  -3.480895e+02
   2.416470e+02  -1.955467e+02
   3.082160e+02   5.766344e+01
   2.956180e+02   2.438573e+02
   9.617782e+01   2.834685e+02
  -1.282737e+02   1.692627e+02
  -1.520589e+02   1.306658e+01
  -4.703674e+01  -2.638443e+01
   5.871744e+01   4.629751e+01
   1.967828e+01   1.312570e+02
  -1.261937e+02   8.970511e+01
  -1.948688e+02  -2.216858e+01
  -5.727426e+01  -6.678352e+01
   7.806204e+01  -2.005031e+00
   5.446113e+01   8.029221e+01
  -1.400637e+02   8.765062e+01
  -2.934436e+02  -8.021957e+00
  -2.364478e+02  -1.400594e+02
  -4.878260e+01  -2.748841e+02
   1.876514e+02  -2.602901e+02
   3.027531e+02  -1.267161e+02
   1.644916e+02   5.077332e+01
  -2.834292e+01   9.642312e+01
  -8.732719e+01   3.277995e+00
   3.673721e+01  -1.029906e+02
   1.725394e+02  -4.061676e+01
   1.944592e+02   9.815754e+01
   6.715425e+01   1.993574e+02
  -8.110281e+01   1.313508e+02
  -1.389103e+02   2.953247e+01
  -6.870540e+01  -4.366579e+01
   2.908904e+01   5.457455e+00
   3.502407e+01   7.679768e+01
  -7.904773e+01   1.130650e+02
  -2.130424e+02   2.521297e+01
  -1.886096e+02  -1.303840e+02
  -1.155252e+01  -2.078215e+02
   1.615409e+02  -1.564847e+02
   1.776965e+02  -6.164171e+00
   5.810874e+01   1.078790e+02
  -7.031872e+01   1.048713e+02
  -8.243374e+01   2.606010e+01
  -1.614522e+01  -2.402859e+01
   2.385426e+01  -1.986854e+01
  -9.322237e+00   1.285560e+01
  -7.347903e+01  -2.951108e+00
  -9.464836e+01  -9.067234e+01
  -9.953270e+00  -1.529628e+02
   1.351664e+02  -1.449335e+02
   2.268429e+02  -1.832588e+01
   2.085215e+02   1.544767e+02
   4.177067e+01   2.427092e+02
  -1.053165e+02   1.585488e+02
  -1.316857e+02   2.423616e+01
  -6.912138e+01  -5.138789e+01
  -2.981864e+01  -3.597703e+01
  -5.472409e+01   1.176304e+01
  -7.333722e+01   4.974333e+00
  -4.449981e+01  -4.842118e+01
   4.073682e+01  -8.620137e+01
   1.131025e+02  -6.352448e+01
   8.686785e+01   3.055606e+01
  -8.374336e+00   1.055994e+02
  -1.431795e+02   8.883058e+01
  -1.991052e+02  -4.957459e+01
  -9.004643e+01  -1.972443e+02
   1.121442e+02  -2.407600e+02
   2.718785e+02  -9.183838e+01
   2.608447e+02   1.011486e+02
   1.086482e+02   1.751348e+02
  -4.815736e+01   1.469045e+02
  -1.023670e+02   9.027102e+01
  -8.121676e+01   7.170619e+01
  -5.914471e+01   8.836714e+01
  -8.707539e+01   7.165544e+01
  -1.310225e+02  -2.512218e+01
  -1.131356e+02  -1.509309e+02
  -2.787493e+01  -2.270169e+02
   9.961224e+01  -1.721082e+02
   1.714411e+02  -1.784506e+01
   1.310617e+02   1.186192e+02
   1.470707e+01   1.528074e+02
  -6.725293e+01   9.435151e+01
  -6.442209e+01  -3.776334e+00
  -2.261031e+00  -4.861387e+01
   1.645593e+01  -3.441523e+01
  -3.606855e+01  -1.948955e+01
  -7.451439e+01  -2.533933e+01
  -4.519685e+01  -3.650761e+01
   6.528071e+01  -3.389522e+01
   1.455920e+02   1.633127e+00
   1.434883e+02   5.762213e+01
   1.221750e+01   9.273093e+01
  -1.089113e+02   7.143766e+01
  -1.437022e+02   1.472336e+01
  -4.701066e+01  -4.318972e+01
   5.886283e+01  -3.671981e+01
   7.964145e+01   1.893434e+01
   1.284785e+01   7.364603e+01
  -5.323965e+01   5.604260e+01
  -6.478646e+01  -2.205970e+00
  -4.660555e+01  -5.251932e+01
  -4.508492e+01  -4.592616e+01
  -5.642527e+01  -4.184322e+00
  -7.107292e+01  -2.552699e-01
  -3.434154e+01  -6.437599e+01
   3.068122e+01  -1.480105e+02
   1.171589e+02  -1.389297e+02
   1.501981e+02  -2.606527e+01
   1.151353e+02   9.243203e+01
   2.953242e+00   1.259841e+02
  -8.727343e+01   5.976583e+01
  -5.606578e+01  -1.315440e+01
   5.514660e+01  -1.980697e+01
   1.428009e+02   4.760995e+01
   7.583322e+01   1.058014e+02
  -8.515166e+01   1.163392e+02
  -1.775838e+02   3.939940e+01
  -1.552625e+02  -3.417091e+01
  -3.091469e+01  -7.637604e+01
   6.263493e+01  -6.765989e+01
   4.227555e+01  -6.704458e+00
  -4.221515e+01   2.720494e+01
  -9.002853e+01  -2.043383e+01
  -3.464039e+01  -1.088532e+02
   9.199563e+01  -1.470550e+02
   1.754670e+02  -6.388418e+01
   1.310396e+02   9.782753e+01
   6.151897e+00   1.925825e+02
  -8.048079e+01   1.337053e+02
  -1.004643e+02  -1.117896e+01
  -6.411332e+01  -1.137569e+02
   4.860620e+00  -1.150182e+02
   4.549987e+01  -2.039477e+01
   4.809530e+01   3.201084e+01
   2.160233e+01   8.147019e+00
   3.707380e+00  -1.958926e+01
   2.241334e+01   1.671834e+01
   5.168008e+01   8.925586e+01
   3.933382e+01   1.036002e+02
  -5.058395e+01   4.301515e+01
  -1.247412e+02  -3.729508e+01
  -1.296315e+02  -7.663113e+01
  -1.634651e+01  -4.985439e+01
   8.727000e+01  -2.078725e+01
   9.076882e+01  -7.361636e+00
   1.262594e+01   7.251859e+00
  -3.336401e+01   1.845425e+01
  -1.535822e+01   1.663095e+01
   1.948194e+01  -2.932050e+00
  -5.570099e+00  -9.733260e+00
  -7.694490e+01  -3.424444e+00
  -8.980699e+01  -2.436596e+01
  -1.047057e+01  -7.936670e+01
   1.211036e+02  -1.076385e+02
   1.808753e+02  -6.222787e+01
   1.477586e+02   6.702399e+01
   2.527783e+01   1.592046e+02
  -7.462664e+01   1.498960e+02
  -1.219382e+02   6.028791e+01
  -7.656760e+01  -1.957874e+01
  -2.655811e+01  -3.609493e+01
   1.568986e-01  -1.001146e+01
  -1.194460e+01  -5.115410e+00
  -3.304145e+01  -4.767029e+01
  -1.998247e+01  -9.419626e+01
   2.492676e+01  -6.345970e+01
   8.004390e+01   2.161104e+01
   6.657568e+01   9.429596e+01
  -2.302457e+00   9.438344e+01
  -8.139344e+01   2.749477e+01
  -9.066223e+01  -6.490340e+01
  -2.822896e+01  -9.212177e+01
   6.377055e+01  -5.673086e+01
   9.457064e+01   1.108297e+01
   3.780448e+01   4.963686e+01
  -3.215753e+01   5.160587e+01
  -3.640196e+01   3.023498e+01
   3.102528e+01  -3.325805e-01
   6.780534e+01  -6.611020e+00
   1.389122e+01   2.556171e+01
  -7.234888e+01   5.949893e+01
  -1.243154e+02   5.833786e+01
  -6.555300e+01  -1.366978e+01
   1.544182e+01  -7.534499e+01
   4.715715e+01  -6.816831e+01
   4.169344e+01  -1.025933e+01
   4.402490e+00   5.105567e+01
  -2.506298e+01   4.085377e+01
  -3.639186e+01  -1.427906e+01
  -2.722996e+01  -5.461855e+01
   9.621761e-01  -3.108469e+01
   3.003279e+01   7.663464e+00
   3.595031e+01   2.218277e+01
   2.026466e+01   2.233104e+00
  -1.507937e+00  -1.528305e+01
  -7.326433e+00   2.114917e+00
  -4.661304e+00   3.664635e+01
  -1.163879e+01   4.325252e+01
  -2.970570e+01   7.799321e+00
  -3.380482e+01  -4.344646e+01
  -1.495106e+00  -5.880919e+01
   4.541200e+01  -2.166512e+01
   5.341725e+01   3.660939e+01
   1.542051e+01   5.503309e+01
  -5.904601e+01   3.507507e+01
  -8.428148e+01  -1.420467e+01
  -5.083212e+01  -4.383768e+01
   2.853411e+01  -3.926204e+01
   6.551181e+01  -2.179144e+01
   2.603845e+01  -5.214599e+00
  -3.740416e+01  -3.498537e+00
  -3.664377e+01  -1.328931e+01
   2.816735e+01  -2.885325e+01
   8.987808e+01  -1.967062e+01
