
 $NMID
 id='ANONYMOUS ', fmtdat='(2E16.6)'
 volume=1.0
 tramp=1.0
 $END
   3.871635e+03  -1.227606e+02
   2.403985e+03   2.511984e+03
  -6.481298e+02   2.696986e+03
  -1.835815e+03   8.391891e+02
  -9.507064e+02  -5.390358e+02
   3.911592e+02  -4.646459e+02
   6.662838e+02   2.866819e+02
  -5.686708e+01   1.032255e+03
  -6.195649e+02   6.041737e+02
  -7.862307e+02  -4.291671e+01
  -4.703385e+02  -8.386610e+02
   1.553922e+02  -8.335766e+02
   5.194872e+02  -1.292640e+02
   3.339755e+02   6.846265e+02
  -2.110703e+02   6.004081e+02
  -5.137825e+02  -1.747205e+01
  -2.630872e+02  -6.563166e+02
   2.897463e+02  -6.422968e+02
   5.811854e+02  -1.223412e+02
   3.736310e+02   2.847633e+02
   5.839714e+01   3.799974e+02
  -2.357982e+02   2.666593e+02
  -1.488151e+02   3.531569e+01
   1.275023e+02  -5.101432e+01
   3.696822e+02   1.430366e+02
   1.578525e+02   4.082128e+02
  -4.946100e+02   3.484261e+02
  -6.982129e+02  -1.507453e+02
  -4.095183e+02  -4.969309e+02
   3.666039e+02  -4.153100e+02
   6.996900e+02   7.063813e+01
   3.264050e+02   4.914658e+02
  -2.513242e+02   4.073831e+02
  -5.448533e+02   1.663640e+02
  -4.479734e+02  -2.352275e+02
  -5.626720e+01  -3.821813e+02
   2.072010e+02  -2.617860e+02
   1.064284e+02   1.752981e+02
  -1.942787e+02   3.449291e+02
  -4.194108e+02  -5.130103e+01
  -1.845481e+02  -6.543915e+02
   3.249982e+02  -7.506871e+02
   5.174051e+02   1.759842e+01
   2.204290e+02   4.873200e+02
  -3.096095e+02   3.077843e+02
  -3.766647e+02  -3.414141e+02
   8.004380e+01  -5.420564e+02
   5.771620e+02  -1.048026e+02
   5.837203e+02   4.348442e+02
   1.809367e+02   5.890416e+02
  -3.478300e+02   3.161072e+02
  -6.177469e+02  -8.523549e+01
  -3.857586e+02  -3.915943e+02
   1.446098e+02  -3.423916e+02
   3.601487e+02  -5.648538e+01
   2.240507e+02   1.660806e+02
  -9.269575e+01   9.326950e+01
  -1.148364e+02  -1.380002e+02
   1.491436e+02  -1.687847e+02
   3.154157e+02   6.586182e+01
   1.295982e+02   2.426130e+02
  -1.998283e+02   2.429163e+02
  -3.382817e+02   7.694846e+01
  -2.264031e+02  -9.998557e+01
   1.736612e+01  -2.453950e+02
   2.440847e+02  -3.551916e+02
   3.276693e+02  -1.812787e+02
   2.874491e+02   1.576457e+02
   5.098917e+01   3.836203e+02
  -9.088143e+01   3.385319e+02
  -1.085352e+02   1.124739e+02
  -2.619749e+01  -1.180619e+01
  -6.188170e+01   9.372591e+01
  -2.168647e+02   1.244924e+02
  -2.785166e+02  -5.338938e+01
  -1.455841e+02  -2.802333e+02
   7.577018e+01  -2.061702e+02
   2.313149e+02  -3.741078e+00
   1.697817e+02   2.159725e+02
  -2.983718e+01   2.709555e+02
  -2.576550e+02   9.547634e+01
  -2.935487e+02  -1.628513e+02
  -1.722891e+02  -3.388516e+02
   8.350594e+01  -2.797266e+02
   2.148323e+02  -1.145971e+02
   1.531968e+02  -2.255156e+01
   1.169270e+02  -3.980122e+01
   2.330207e+02  -5.420021e+01
   4.007574e+02   6.017523e+01
   2.844987e+02   2.638697e+02
  -1.343945e+01   4.173517e+02
  -3.805651e+02   4.009729e+02
  -4.510332e+02   1.799575e+02
  -3.060678e+02  -9.356308e+01
  -4.044911e+01  -2.874757e+02
   1.285353e+02  -2.413484e+02
   7.377548e+01  -3.505874e+01
  -1.060917e+02   7.119435e+01
  -1.735721e+02  -2.074113e+01
  -4.522712e+01  -1.753905e+02
   1.458442e+02  -1.490702e+02
   1.632274e+02   5.349119e+01
  -2.911678e+01   1.506279e+02
  -1.833808e+02   2.187679e+01
  -1.533791e+02  -2.498213e+02
   3.815009e+01  -3.250485e+02
   2.431277e+02  -1.959782e+02
   3.258707e+02   5.711028e+01
   2.449315e+02   2.368347e+02
   9.105502e+01   2.489755e+02
  -1.290608e+02   1.569693e+02
  -1.714491e+02   1.362447e+01
  -5.245342e+01  -3.011517e+01
   6.750177e+01   4.078926e+01
   1.796961e+01   1.190233e+02
  -1.231595e+02   9.383379e+01
  -1.701007e+02  -1.886139e+01
  -4.957127e+01  -6.699634e+01
   8.018615e+01  -8.732753e+00
   4.471433e+01   6.811539e+01
  -1.267767e+02   8.343156e+01
  -2.658159e+02  -1.689238e+00
  -2.362090e+02  -1.525134e+02
  -5.143454e+01  -2.806157e+02
   1.831792e+02  -2.328429e+02
   2.854189e+02  -1.167650e+02
   1.570986e+02   4.448719e+01
  -2.873338e+01   1.119916e+02
  -8.604707e+01   8.665514e+00
   4.026432e+01  -8.455356e+01
   2.070857e+02  -5.667707e+01
   1.986313e+02   9.583762e+01
   5.584708e+01   1.902906e+02
  -8.823226e+01   1.467636e+02
  -1.415994e+02   2.725404e+01
  -7.221810e+01  -4.773811e+01
   2.636269e+01  -1.732585e+00
   3.183475e+01   9.332152e+01
  -8.429240e+01   1.162466e+02
  -2.146102e+02   2.006350e+01
  -1.876920e+02  -1.225149e+02
  -1.506124e+01  -2.207729e+02
   1.667421e+02  -1.631954e+02
   1.858404e+02   1.565066e-01
   6.099607e+01   1.136961e+02
  -6.247876e+01   1.056534e+02
  -8.013962e+01   3.007454e+01
  -1.250331e+01  -2.613866e+01
   2.672604e+01  -1.572371e+01
  -9.307676e+00   9.427551e+00
  -7.403908e+01  -8.128729e+00
  -8.523125e+01  -8.411645e+01
  -1.596478e+01  -1.737914e+02
   1.318455e+02  -1.540829e+02
   1.981212e+02  -1.623701e+01
   1.768214e+02   1.349948e+02
   3.981997e+01   2.402582e+02
  -1.158380e+02   1.778442e+02
  -1.374948e+02   2.960119e+01
  -7.333901e+01  -5.327309e+01
  -2.983912e+01  -3.414281e+01
  -5.702527e+01   1.129420e+01
  -8.016396e+01   5.005417e+00
  -4.290143e+01  -4.993603e+01
   3.739226e+01  -9.066921e+01
   1.050247e+02  -5.405366e+01
   8.860771e+01   3.991110e+01
  -8.966937e+00   1.028332e+02
  -1.360990e+02   8.334928e+01
  -1.866959e+02  -5.304137e+01
  -9.710638e+01  -1.952468e+02
   1.103816e+02  -2.349315e+02
   2.951436e+02  -9.512597e+01
   2.563066e+02   8.849925e+01
   1.139986e+02   1.844496e+02
  -4.356270e+01   1.428368e+02
  -9.593426e+01   8.536124e+01
  -7.450610e+01   6.889715e+01
  -6.497436e+01   9.066205e+01
  -9.188221e+01   7.501426e+01
  -1.414402e+02  -2.271997e+01
  -1.243205e+02  -1.636097e+02
  -2.194330e+01  -2.142864e+02
   9.871943e+01  -1.655350e+02
   1.664341e+02  -1.536728e+01
   1.189249e+02   1.187994e+02
   9.039973e+00   1.556041e+02
  -7.755103e+01   1.023416e+02
  -6.457470e+01  -4.183788e+00
  -1.741283e+00  -4.224585e+01
   1.286423e+01  -3.409993e+01
  -3.085650e+01  -1.610652e+01
  -7.515659e+01  -1.988929e+01
  -4.508284e+01  -3.481630e+01
   6.476053e+01  -3.622053e+01
   1.534281e+02   3.330987e+00
   1.373963e+02   5.122546e+01
   1.949313e+01   1.021816e+02
  -1.283422e+02   7.062445e+01
  -1.381073e+02   8.096317e+00
  -4.288258e+01  -3.904350e+01
   5.758970e+01  -3.578256e+01
   8.410451e+01   1.890733e+01
   1.178899e+01   6.925765e+01
  -5.222984e+01   6.220088e+01
  -5.872863e+01   3.241684e-01
  -5.003471e+01  -5.545537e+01
  -4.212997e+01  -3.885111e+01
  -5.307436e+01  -1.942924e+00
  -6.783583e+01   3.506952e-01
  -3.449811e+01  -6.982100e+01
   3.461391e+01  -1.478143e+02
   1.223865e+02  -1.413012e+02
   1.528441e+02  -3.217696e+01
   1.181088e+02   9.133481e+01
   7.349815e-01   1.357893e+02
  -8.688561e+01   6.609790e+01
  -5.405331e+01  -1.141496e+01
   5.775797e+01  -1.806546e+01
   1.354695e+02   4.112651e+01
   7.608095e+01   9.837767e+01
  -8.658556e+01   1.175343e+02
  -2.003319e+02   5.061250e+01
  -1.577150e+02  -4.200964e+01
  -3.395382e+01  -7.739135e+01
   6.260412e+01  -6.596263e+01
   4.654621e+01  -4.430208e+00
  -3.546023e+01   2.507433e+01
  -9.019129e+01  -2.283713e+01
  -3.191385e+01  -1.255134e+02
   8.269278e+01  -1.429728e+02
   1.445014e+02  -5.651772e+01
   1.283061e+02   1.015037e+02
   7.338706e+00   1.816612e+02
  -8.439688e+01   1.397941e+02
  -1.009781e+02  -1.251598e+01
  -5.973832e+01  -1.182313e+02
   9.577316e+00  -1.060002e+02
   5.067532e+01  -1.896713e+01
   4.664290e+01   2.748429e+01
   1.996657e+01   6.813366e+00
   4.987725e+00  -1.966161e+01
   2.271087e+01   1.570488e+01
   5.078662e+01   8.536247e+01
   3.618303e+01   1.016979e+02
  -5.018548e+01   4.804417e+01
  -1.320817e+02  -3.315849e+01
  -1.155631e+02  -6.720632e+01
  -1.749579e+01  -5.396880e+01
   8.229810e+01  -2.577673e+01
   8.351080e+01  -8.112155e+00
   1.318540e+01   9.101145e+00
  -3.814624e+01   2.302938e+01
  -1.536310e+01   1.748546e+01
   1.898978e+01  -1.431323e+00
  -4.725055e+00  -8.096819e+00
  -6.845086e+01  -2.494143e+00
  -9.110083e+01  -2.103074e+01
  -1.553172e+01  -7.512425e+01
   1.155237e+02  -1.124355e+02
   1.748365e+02  -5.281757e+01
   1.435398e+02   6.557535e+01
   2.601219e+01   1.553861e+02
  -7.770577e+01   1.518717e+02
  -1.142516e+02   5.861039e+01
  -8.400804e+01  -2.262318e+01
  -2.392916e+01  -3.517745e+01
   2.240867e+00  -9.670595e+00
  -1.132979e+01  -4.923025e+00
  -3.120469e+01  -4.471655e+01
  -2.365218e+01  -8.808324e+01
   2.901448e+01  -6.977164e+01
   7.290181e+01   1.665506e+01
   7.160643e+01   1.029600e+02
  -8.757864e-01   1.082357e+02
  -8.002977e+01   2.617355e+01
  -1.028796e+02  -7.394559e+01
  -3.167526e+01  -9.926124e+01
   6.540066e+01  -5.646404e+01
   9.387900e+01   1.274816e+01
   3.727551e+01   4.891560e+01
  -3.484973e+01   5.570799e+01
  -2.955983e+01   2.779050e+01
   2.863166e+01  -9.390809e-01
   6.864718e+01  -9.351352e+00
   1.509859e+01   2.679379e+01
  -8.645660e+01   7.015228e+01
  -1.053407e+02   5.275391e+01
  -6.650044e+01  -1.142158e+01
   1.149451e+01  -7.718701e+01
   5.843047e+01  -8.743920e+01
   3.577312e+01  -5.437369e+00
  -2.164529e-01   5.216066e+01
  -2.582293e+01   4.548393e+01
  -3.803337e+01  -1.819039e+01
  -2.549425e+01  -5.230577e+01
   1.255422e+00  -3.241417e+01
   3.340227e+01   7.870830e+00
   3.528058e+01   2.164665e+01
   1.910534e+01   2.931049e+00
  -2.509633e+00  -1.598655e+01
  -8.329260e+00   1.902209e+00
  -2.842396e+00   3.598361e+01
  -1.089643e+01   4.817319e+01
  -2.879103e+01   9.919363e+00
  -3.077416e+01  -4.250574e+01
  -2.248071e+00  -5.654672e+01
   4.367276e+01  -2.285667e+01
   5.559040e+01   3.565378e+01
   1.272796e+01   5.638889e+01
  -5.379498e+01   3.267272e+01
  -9.575653e+01  -1.547917e+01
  -4.548751e+01  -4.207715e+01
   2.694264e+01  -3.856222e+01
   6.306061e+01  -1.959799e+01
   2.704115e+01  -4.848976e+00
  -3.615504e+01  -1.632092e+00
  -3.362546e+01  -1.157057e+01
   2.701580e+01  -2.927335e+01
   9.404800e+01  -2.173818e+01
