
 $NMID
 id='ANONYMOUS ', fmtdat='(2E16.6)'
 volume=1.0
 tramp=1.0
 $END
   3.346890e+03  -1.209977e+02
   2.400789e+03   1.891815e+03
   8.085643e+01   2.043810e+03
  -1.402863e+03   1.094930e+03
  -8.752256e+02   4.890255e+01
  -2.349008e+01  -2.295124e+02
   4.372228e+02   2.217994e+02
   3.980979e+01   6.469704e+02
  -5.898254e+02   7.222041e+02
  -6.649065e+02   4.835658e+01
  -3.601526e+02  -4.932304e+02
   1.551949e+01  -6.334200e+02
   4.261664e+02  -8.833474e+01
   1.898520e+02   4.161132e+02
  -1.284598e+02   4.647767e+02
  -4.687601e+02   7.310808e+01
  -2.829746e+02  -4.969855e+02
   1.701044e+02  -6.423038e+02
   4.924891e+02  -2.556114e+02
   4.138740e+02   1.578218e+02
   9.092187e+01   4.137676e+02
  -1.277566e+02   2.449533e+02
  -6.737840e+01   6.670919e+01
   1.674016e+02   4.923920e+01
   2.490552e+02   2.734265e+02
  -4.466305e+00   3.575596e+02
  -4.732680e+02   1.718826e+02
  -6.455708e+02  -1.954412e+02
  -2.532479e+02  -4.071199e+02
   3.516265e+02  -2.657774e+02
   5.585324e+02   1.644638e+02
   1.765680e+02   3.938217e+02
  -3.003054e+02   3.729225e+02
  -4.873847e+02   1.372144e+02
  -2.936977e+02  -1.707012e+02
  -4.986938e+01  -3.264088e+02
   9.884590e+01  -2.210675e+02
   1.753907e+01   1.302928e+02
  -1.850316e+02   1.587976e+02
  -2.742709e+02  -1.359382e+02
  -9.073972e+01  -5.986240e+02
   2.378245e+02  -5.535878e+02
   4.033218e+02   3.130719e+01
   9.465772e+01   3.009808e+02
  -1.342663e+02   1.087540e+02
  -1.932203e+02  -2.562142e+02
   1.097823e+02  -3.883409e+02
   4.090815e+02  -4.455342e+01
   4.436745e+02   4.236505e+02
   1.393188e+02   4.968489e+02
  -3.196808e+02   2.540858e+02
  -5.281707e+02  -6.631311e+01
  -3.435850e+02  -2.744362e+02
   1.017409e+02  -2.142578e+02
   3.533683e+02  -5.127876e+01
   1.992933e+02   5.451039e+01
  -1.044051e+01   3.288171e+01
  -4.271270e+01  -2.992325e+01
   1.155250e+02  -8.553609e+01
   2.715597e+02   6.803135e+01
   1.111957e+02   2.114522e+02
  -1.483922e+02   2.388343e+02
  -3.330203e+02   1.164128e+02
  -2.584733e+02  -9.171458e+01
   1.279311e+01  -2.763083e+02
   2.804295e+02  -3.512624e+02
   3.685472e+02  -1.371518e+02
   2.256989e+02   1.675953e+02
   5.502037e+01   3.724111e+02
  -6.701460e+01   3.532004e+02
  -3.400940e+01   1.474410e+02
  -3.486055e+01   8.982847e+01
  -1.174908e+02   1.100476e+02
  -2.431364e+02   4.823257e+01
  -2.311561e+02  -1.104533e+02
  -7.406638e+01  -2.624090e+02
   9.755066e+01  -2.123361e+02
   1.994844e+02   4.016312e+01
   1.317153e+02   2.343117e+02
  -4.147602e+01   2.235911e+02
  -2.408739e+02   6.613124e+01
  -2.932494e+02  -1.711239e+02
  -1.824142e+02  -3.521432e+02
   6.400519e+01  -2.685860e+02
   1.810976e+02  -1.401756e+02
   1.476543e+02  -6.374937e+01
   1.423126e+02  -6.331131e+01
   2.563275e+02  -3.989609e+01
   4.249483e+02   1.045048e+02
   2.927169e+02   2.769613e+02
  -4.687308e+01   3.988346e+02
  -3.586377e+02   3.491589e+02
  -4.510304e+02   1.702898e+02
  -2.644621e+02  -1.003514e+02
   8.397593e-01  -2.422383e+02
   9.103316e+01  -1.724184e+02
   3.825633e+01  -3.169285e+01
  -1.182444e+02   6.225020e+01
  -1.548936e+02  -2.985912e+01
  -3.840160e+00  -1.186226e+02
   1.234985e+02  -9.410321e+01
   1.353393e+02   6.038813e+01
  -2.615379e+01   1.296012e+02
  -1.718516e+02   8.029465e+00
  -1.559335e+02  -2.308718e+02
   2.467060e+01  -3.133037e+02
   2.374910e+02  -2.012244e+02
   3.248722e+02   3.948525e+01
   2.665757e+02   2.687734e+02
   6.967530e+01   2.763652e+02
  -1.277313e+02   1.618451e+02
  -1.331011e+02  -8.181328e+00
  -3.066240e+01  -1.515003e+01
   4.747565e+01   5.776245e+01
  -3.803313e+00   1.198021e+02
  -1.189446e+02   6.427009e+01
  -1.727523e+02  -2.637078e+01
  -2.777405e+01  -5.915628e+01
   7.795460e+01   1.627143e+01
   4.381063e+01   9.698633e+01
  -1.542560e+02   8.248615e+01
  -3.013391e+02  -2.385862e+01
  -2.318817e+02  -1.577355e+02
  -1.511508e+01  -2.720728e+02
   1.905456e+02  -2.158347e+02
   2.827986e+02  -9.763094e+01
   1.365131e+02   4.756523e+01
  -2.949404e+01   7.291288e+01
  -6.341839e+01  -4.743700e+00
   4.608217e+01  -8.574181e+01
   1.659453e+02  -1.922205e+01
   1.616702e+02   1.080310e+02
   5.096498e+01   1.943553e+02
  -7.506926e+01   1.075893e+02
  -1.212992e+02   2.000628e+01
  -4.917326e+01  -4.090156e+01
   3.881479e+01   2.068929e+01
   1.910404e+01   9.405222e+01
  -9.868302e+01   1.117502e+02
  -2.125008e+02   1.674096e+01
  -1.730403e+02  -1.402805e+02
  -2.278216e+00  -1.993908e+02
   1.638726e+02  -1.334659e+02
   1.597502e+02  -1.354777e+01
   5.196437e+01   9.240510e+01
  -6.512089e+01   9.481388e+01
  -7.155254e+01   2.058519e+01
  -1.963489e+00  -2.756943e+01
   3.190332e+01  -1.229171e+01
  -8.164075e+00   2.518307e+01
  -8.281353e+01   1.419747e+00
  -1.045926e+02  -9.251980e+01
  -9.229459e+00  -1.619844e+02
   1.417374e+02  -1.382757e+02
   2.284593e+02  -5.594682e+00
   1.991642e+02   1.676510e+02
   3.609207e+01   2.383319e+02
  -9.496978e+01   1.534897e+02
  -1.289459e+02   3.221500e+01
  -7.120697e+01  -4.227375e+01
  -3.366794e+01  -3.223843e+01
  -5.591076e+01   1.193416e+01
  -7.852736e+01   5.283400e+00
  -5.909653e+01  -5.563023e+01
   3.712568e+01  -1.004642e+02
   1.277590e+02  -6.596116e+01
   1.026371e+02   3.989807e+01
  -1.811986e+01   1.167652e+02
  -1.563196e+02   8.087349e+01
  -1.996839e+02  -6.955766e+01
  -8.340141e+01  -2.039316e+02
   1.317965e+02  -2.265798e+02
   2.646933e+02  -7.388663e+01
   2.518897e+02   1.071638e+02
   9.027558e+01   1.699673e+02
  -3.994538e+01   1.357529e+02
  -9.428671e+01   8.631161e+01
  -7.764246e+01   7.018548e+01
  -5.385826e+01   8.708279e+01
  -8.742615e+01   7.601366e+01
  -1.278064e+02  -2.267386e+01
  -1.205234e+02  -1.523457e+02
  -3.246035e+01  -2.280069e+02
   9.871131e+01  -1.611457e+02
   1.697504e+02  -8.818041e+00
   1.233844e+02   1.208258e+02
   2.551076e+00   1.534755e+02
  -7.737670e+01   8.182477e+01
  -6.608033e+01  -1.553553e+01
   6.710750e+00  -5.285917e+01
   2.653511e+01  -3.351917e+01
  -3.027917e+01  -1.482878e+01
  -7.899468e+01  -2.052855e+01
  -4.464974e+01  -4.151634e+01
   7.272876e+01  -3.392243e+01
   1.549589e+02   9.928466e+00
   1.388702e+02   6.129574e+01
  -2.182976e+00   9.344506e+01
  -1.171824e+02   6.919755e+01
  -1.378194e+02   5.051964e+00
  -4.225997e+01  -4.943601e+01
   6.071081e+01  -3.996525e+01
   7.860595e+01   2.018555e+01
   1.894805e+01   7.234038e+01
  -4.394829e+01   6.370298e+01
  -6.824863e+01   1.346872e+00
  -5.864299e+01  -4.947980e+01
  -4.838909e+01  -4.401153e+01
  -5.477027e+01  -1.055229e+01
  -6.604731e+01   4.913837e-01
  -4.389234e+01  -6.912899e+01
   3.037534e+01  -1.490591e+02
   1.262271e+02  -1.395767e+02
   1.618329e+02  -2.440466e+01
   1.203787e+02   8.471005e+01
  -2.198112e+00   1.311786e+02
  -8.969969e+01   6.774302e+01
  -5.877699e+01  -8.925726e+00
   5.325825e+01  -2.028525e+01
   1.384867e+02   4.285869e+01
   6.640809e+01   1.109920e+02
  -8.298769e+01   1.085954e+02
  -1.751849e+02   3.769240e+01
  -1.487205e+02  -4.165080e+01
  -2.398520e+01  -7.571677e+01
   6.397123e+01  -5.463137e+01
   4.197442e+01  -6.894553e-01
  -4.079691e+01   2.976743e+01
  -8.696543e+01  -1.901807e+01
  -3.651437e+01  -1.088716e+02
   7.519292e+01  -1.505044e+02
   1.598705e+02  -7.231813e+01
   1.286126e+02   8.730102e+01
   1.147060e+01   1.894112e+02
  -7.142804e+01   1.275983e+02
  -9.923374e+01  -1.821252e+01
  -5.172240e+01  -1.181757e+02
   1.585602e+01  -1.064283e+02
   4.916557e+01  -1.345174e+01
   4.096911e+01   3.151281e+01
   1.590466e+01   7.354766e+00
   5.795084e+00  -1.685538e+01
   2.859197e+01   1.995715e+01
   5.583604e+01   8.775945e+01
   3.179080e+01   1.021357e+02
  -5.460567e+01   4.165821e+01
  -1.248896e+02  -3.476388e+01
  -1.205584e+02  -6.695139e+01
  -1.816920e+01  -5.390720e+01
   8.141621e+01  -2.533809e+01
   8.561484e+01  -5.778618e+00
   1.534637e+01   1.121590e+01
  -3.101095e+01   1.905312e+01
  -2.036983e+01   1.188710e+01
   1.412278e+01  -2.985428e+00
  -3.898475e+00  -7.148455e+00
  -6.815567e+01  -8.850695e-01
  -8.563147e+01  -2.442751e+01
  -2.117442e+01  -7.489751e+01
   1.077164e+02  -1.096539e+02
   1.804342e+02  -6.878095e+01
   1.517480e+02   6.615597e+01
   2.892197e+01   1.547233e+02
  -7.355332e+01   1.477763e+02
  -1.185185e+02   6.775185e+01
  -7.572806e+01  -1.855821e+01
  -2.583857e+01  -3.810642e+01
  -2.597986e+00  -1.260429e+01
  -1.327272e+01  -8.411862e+00
  -3.150883e+01  -4.853281e+01
  -1.926734e+01  -9.327797e+01
   2.473866e+01  -6.405222e+01
   7.885048e+01   1.796223e+01
   7.141966e+01   9.003581e+01
   7.502511e+00   9.207174e+01
  -7.285220e+01   3.043879e+01
  -8.899253e+01  -5.604123e+01
  -3.375163e+01  -9.241267e+01
   5.933260e+01  -5.941122e+01
   1.007842e+02   9.195361e+00
   3.992690e+01   5.432321e+01
  -3.491618e+01   5.834892e+01
  -4.017183e+01   3.206415e+01
   2.498270e+01  -4.988975e+00
   6.619962e+01  -1.145675e+01
   1.684594e+01   2.681143e+01
  -6.985217e+01   5.758220e+01
  -1.217455e+02   5.771021e+01
  -6.963581e+01  -1.838492e+01
   1.441933e+01  -7.763182e+01
   5.020840e+01  -7.490907e+01
   4.617798e+01  -1.415512e+01
   6.455466e+00   4.828288e+01
  -2.467169e+01   4.220474e+01
  -3.529523e+01  -7.175260e+00
  -2.789802e+01  -5.317000e+01
   3.267109e-02  -3.595111e+01
   3.069934e+01   4.150174e+00
   3.924745e+01   2.536206e+01
   1.865697e+01   4.809239e+00
  -3.765136e+00  -1.941277e+01
  -6.109379e+00  -4.909415e+00
   1.902517e+00   3.263644e+01
   4.732458e-02   4.828061e+01
  -2.587838e+01   1.967242e+01
  -3.794681e+01  -3.312997e+01
  -1.327354e+01  -5.893690e+01
   4.333285e+01  -2.689352e+01
   5.778787e+01   3.519179e+01
   1.698476e+01   5.145541e+01
  -5.714263e+01   3.876416e+01
  -8.691734e+01  -1.135485e+01
  -4.723185e+01  -4.455684e+01
   2.792488e+01  -4.426522e+01
   6.622318e+01  -2.626888e+01
   2.731387e+01  -6.010746e+00
  -2.859690e+01   1.809585e+00
  -3.350692e+01  -7.613589e+00
   2.323299e+01  -2.684177e+01
   8.336629e+01  -1.810043e+01
