
 $NMID
 id='ANONYMOUS ', fmtdat='(2E16.6)'
 volume=1.0
 tramp=1.0
 $END
  -4.296415e+03  -5.624159e+00
  -2.454505e+03  -2.888443e+03
   7.735470e+02  -3.015353e+03
   2.171735e+03  -7.629116e+02
   9.596004e+02   8.955503e+02
  -6.131232e+02   5.961836e+02
  -8.110427e+02  -4.554628e+02
   5.402773e+01  -1.182840e+03
   7.410837e+02  -6.864585e+02
   9.162336e+02   1.051989e+02
   4.757001e+02   9.309460e+02
  -2.213252e+02   9.144230e+02
  -6.046341e+02   1.047904e+02
  -3.479819e+02  -7.632379e+02
   2.476992e+02  -6.605714e+02
   6.081069e+02   3.828932e+01
   2.787128e+02   7.302907e+02
  -3.476049e+02   6.489773e+02
  -6.552174e+02   8.328939e+01
  -3.789605e+02  -3.578018e+02
  -9.259049e+00  -3.992157e+02
   2.858502e+02  -2.663879e+02
   1.950820e+02  -2.852645e+01
  -1.186569e+02   9.124847e+01
  -4.128064e+02  -1.091491e+02
  -2.100204e+02  -4.384712e+02
   4.945013e+02  -4.290627e+02
   7.794169e+02   1.098267e+02
   4.584776e+02   6.081646e+02
  -3.973631e+02   4.884593e+02
  -7.776146e+02  -5.451289e+01
  -3.770644e+02  -5.249587e+02
   2.511152e+02  -4.780086e+02
   5.641900e+02  -1.824322e+02
   4.617661e+02   2.735445e+02
   5.086759e+01   4.463281e+02
  -2.453288e+02   2.769977e+02
  -1.481729e+02  -2.099910e+02
   1.989713e+02  -4.222630e+02
   5.150404e+02  -5.562866e+00
   2.049292e+02   7.478207e+02
  -3.267273e+02   8.480556e+02
  -5.997898e+02  -3.140234e+01
  -2.543863e+02  -5.823288e+02
   3.424015e+02  -3.775623e+02
   4.290985e+02   3.366052e+02
  -7.251795e+01   5.964166e+02
  -6.053402e+02   1.436254e+02
  -6.224727e+02  -4.335515e+02
  -1.707954e+02  -6.235779e+02
   3.672912e+02  -3.207162e+02
   6.511036e+02   1.062254e+02
   4.013776e+02   4.299201e+02
  -1.695694e+02   4.058379e+02
  -4.098781e+02   4.722301e+01
  -2.166244e+02  -2.187255e+02
   1.370081e+02  -1.168289e+02
   1.382084e+02   1.699507e+02
  -1.871177e+02   2.060481e+02
  -3.548754e+02  -6.627065e+01
  -1.217201e+02  -2.807890e+02
   2.028279e+02  -2.569543e+02
   3.314098e+02  -4.558709e+01
   2.040746e+02   8.775026e+01
  -2.464381e+01   2.152565e+02
  -2.248488e+02   3.410422e+02
  -3.227638e+02   1.909942e+02
  -3.096848e+02  -1.476623e+02
  -6.341210e+01  -4.091037e+02
   1.234322e+02  -3.456022e+02
   1.330809e+02  -8.942977e+01
   2.639926e+01   4.388524e+01
   3.570142e+01  -9.041167e+01
   2.039567e+02  -1.466629e+02
   2.878529e+02   3.516274e+01
   1.568905e+02   2.833062e+02
  -5.865004e+01   2.296237e+02
  -2.473305e+02   1.916847e+01
  -1.842731e+02  -2.234821e+02
   1.711346e+01  -2.828598e+02
   2.737477e+02  -1.110202e+02
   3.138750e+02   1.537534e+02
   1.861474e+02   3.555021e+02
  -9.914430e+01   3.036138e+02
  -2.318397e+02   9.353521e+01
  -1.598616e+02  -7.344531e-01
  -9.999088e+01   2.821818e+01
  -2.246021e+02   6.155974e+01
  -4.018780e+02  -4.907072e+01
  -2.938092e+02  -2.668505e+02
   5.312037e+00  -4.165242e+02
   3.814927e+02  -4.032201e+02
   4.423864e+02  -2.052627e+02
   3.292342e+02   1.022810e+02
   4.864703e+01   2.922216e+02
  -1.398511e+02   2.637586e+02
  -1.019992e+02   2.844404e+01
   1.080776e+02  -9.626327e+01
   1.932187e+02   2.590146e+00
   4.852135e+01   1.981345e+02
  -1.601508e+02   1.738441e+02
  -1.846240e+02  -5.718218e+01
   2.392702e+01  -1.745043e+02
   1.957714e+02  -4.012137e+01
   1.691297e+02   2.458311e+02
  -2.690416e+01   3.413170e+02
  -2.375649e+02   1.880165e+02
  -3.236720e+02  -5.511733e+01
  -2.582098e+02  -2.305641e+02
  -9.639005e+01  -2.509367e+02
   1.291857e+02  -1.668507e+02
   1.785914e+02  -2.100434e+01
   5.879544e+01   3.768653e+01
  -7.077801e+01  -3.356807e+01
  -2.848536e+01  -1.253667e+02
   1.198303e+02  -1.045563e+02
   1.761163e+02   1.109820e+01
   5.729201e+01   7.236296e+01
  -8.014473e+01   1.765131e+01
  -5.064374e+01  -6.115190e+01
   1.195061e+02  -8.040621e+01
   2.636196e+02   1.605283e+00
   2.366659e+02   1.483434e+02
   6.935651e+01   2.763221e+02
  -1.797300e+02   2.511168e+02
  -2.930661e+02   1.280463e+02
  -1.684378e+02  -5.179327e+01
   2.836845e+01  -1.269008e+02
   9.537762e+01  -1.645211e+01
  -3.292625e+01   9.152856e+01
  -2.100006e+02   6.177988e+01
  -2.106257e+02  -9.435575e+01
  -5.819557e+01  -1.983952e+02
   9.293605e+01  -1.561825e+02
   1.479912e+02  -3.293464e+01
   8.102008e+01   4.983555e+01
  -2.473810e+01   9.802669e+00
  -3.891292e+01  -8.798826e+01
   7.431476e+01  -1.175566e+02
   2.143436e+02  -1.666024e+01
   1.827112e+02   1.231620e+02
   1.455763e+01   2.207775e+02
  -1.719438e+02   1.722209e+02
  -1.949994e+02  -3.869017e-01
  -6.639435e+01  -1.189441e+02
   6.686763e+01  -1.082971e+02
   8.552933e+01  -3.287614e+01
   1.913070e+01   2.539127e+01
  -2.116788e+01   1.812470e+01
   8.721543e+00  -4.744067e+00
   6.471704e+01   1.013631e+01
   7.868998e+01   7.865509e+01
   1.675535e+01   1.666847e+02
  -1.279376e+02   1.534995e+02
  -2.030604e+02   2.159595e+01
  -1.804148e+02  -1.333630e+02
  -4.101754e+01  -2.430498e+02
   1.204797e+02  -1.848139e+02
   1.409384e+02  -2.864538e+01
   7.123595e+01   5.847224e+01
   2.768430e+01   3.566985e+01
   5.756749e+01  -1.154909e+01
   7.949144e+01  -6.186495e+00
   3.587536e+01   4.677911e+01
  -3.959860e+01   8.383226e+01
  -9.399322e+01   5.267463e+01
  -7.693022e+01  -3.382969e+01
   1.055798e+01  -9.842382e+01
   1.268986e+02  -8.279584e+01
   1.822921e+02   5.192789e+01
   9.621938e+01   1.950411e+02
  -1.063249e+02   2.327432e+02
  -2.885484e+02   9.657204e+01
  -2.584701e+02  -9.019245e+01
  -1.169952e+02  -1.870822e+02
   4.084249e+01  -1.463421e+02
   9.935254e+01  -8.371073e+01
   7.838354e+01  -6.795982e+01
   6.909749e+01  -8.930209e+01
   9.147800e+01  -7.377991e+01
   1.351011e+02   2.581927e+01
   1.266245e+02   1.653908e+02
   2.454905e+01   2.153162e+02
  -1.027987e+02   1.653669e+02
  -1.725603e+02   2.404256e+01
  -1.305991e+02  -1.208940e+02
  -5.244545e+00  -1.590755e+02
   7.450830e+01  -1.057254e+02
   6.401832e+01   1.295725e+00
   5.985166e+00   3.853805e+01
  -6.157469e+00   3.509218e+01
   3.460576e+01   1.829490e+01
   7.401929e+01   2.064054e+01
   4.122676e+01   3.351606e+01
  -6.259019e+01   3.567628e+01
  -1.512940e+02   2.429517e+00
  -1.411586e+02  -4.695951e+01
  -2.056634e+01  -9.523270e+01
   1.280444e+02  -7.256119e+01
   1.370505e+02  -1.618985e+01
   4.697533e+01   3.353899e+01
  -5.911249e+01   3.412384e+01
  -8.194639e+01  -1.723228e+01
  -7.756350e+00  -6.800059e+01
   5.594989e+01  -5.727174e+01
   5.723562e+01   1.326933e+00
   4.495109e+01   5.527373e+01
   4.002588e+01   4.005458e+01
   5.633941e+01   2.772032e+00
   6.792268e+01   1.489814e-01
   2.846676e+01   6.949052e+01
  -3.716029e+01   1.473850e+02
  -1.202324e+02   1.428454e+02
  -1.507937e+02   3.484380e+01
  -1.165108e+02  -9.261616e+01
  -3.715646e+00  -1.319996e+02
   8.358422e+01  -6.049816e+01
   5.472812e+01   1.182306e+01
  -5.746834e+01   1.639790e+01
  -1.355248e+02  -4.578781e+01
  -7.770309e+01  -1.037224e+02
   8.700021e+01  -1.181772e+02
   1.949182e+02  -5.195969e+01
   1.602872e+02   3.770512e+01
   3.292922e+01   8.155158e+01
  -6.201192e+01   7.067433e+01
  -4.645272e+01   8.656080e+00
   3.537007e+01  -2.332657e+01
   8.429604e+01   2.406351e+01
   2.808509e+01   1.234858e+02
  -8.496145e+01   1.430890e+02
  -1.523184e+02   5.305428e+01
  -1.287000e+02  -1.049503e+02
  -2.793546e+00  -1.847671e+02
   8.136462e+01  -1.464941e+02
   1.032209e+02   1.039111e+01
   6.643018e+01   1.138101e+02
  -6.355411e+00   1.110390e+02
  -4.911577e+01   1.999137e+01
  -4.938894e+01  -2.789032e+01
  -2.328939e+01  -8.467867e+00
  -4.349715e+00   2.071768e+01
  -1.890261e+01  -1.312656e+01
  -5.326036e+01  -8.337725e+01
  -3.288579e+01  -1.079625e+02
   4.840846e+01  -4.772321e+01
   1.360462e+02   3.646991e+01
   1.213497e+02   6.641951e+01
   1.817929e+01   5.254787e+01
  -8.730885e+01   2.473368e+01
  -8.572348e+01   8.038831e+00
  -1.023008e+01  -7.609912e+00
   4.057891e+01  -2.251514e+01
   1.403956e+01  -1.909166e+01
  -2.140431e+01   1.221066e+00
   5.772075e+00   9.500904e+00
   7.276592e+01   3.013306e+00
   9.022803e+01   2.219638e+01
   8.368981e+00   7.553418e+01
  -1.194838e+02   1.095581e+02
  -1.750612e+02   4.930831e+01
  -1.393031e+02  -6.868709e+01
  -2.154428e+01  -1.608521e+02
   7.989844e+01  -1.472738e+02
   1.147445e+02  -5.298841e+01
   8.432242e+01   2.339570e+01
   2.323681e+01   3.493955e+01
  -3.863471e+00   8.283148e+00
   1.004640e+01   3.869790e+00
   3.212790e+01   4.673921e+01
   2.262498e+01   8.703226e+01
  -2.920991e+01   6.976914e+01
  -7.338057e+01  -1.765274e+01
  -7.295126e+01  -1.025676e+02
  -7.347243e-01  -1.094361e+02
   8.215579e+01  -2.325434e+01
   1.038398e+02   8.003371e+01
   3.129832e+01   9.881567e+01
  -6.410388e+01   5.510142e+01
  -9.438130e+01  -1.304536e+01
  -3.685026e+01  -4.721163e+01
   3.466633e+01  -5.319418e+01
   2.833067e+01  -2.845501e+01
  -3.050335e+01  -3.027308e-01
  -6.803202e+01   6.301562e+00
  -1.465723e+01  -2.593261e+01
   8.438100e+01  -6.838592e+01
   1.062084e+02  -5.351423e+01
   6.409558e+01   1.118320e+01
  -1.271974e+01   7.614169e+01
  -5.832726e+01   8.520779e+01
  -3.473241e+01   4.740714e+00
   2.304827e+00  -5.493636e+01
   2.691332e+01  -4.228887e+01
   3.695754e+01   2.136871e+01
   2.282482e+01   5.203557e+01
  -4.286752e+00   3.008611e+01
  -3.393807e+01  -9.342067e+00
  -3.392914e+01  -1.950394e+01
  -1.945913e+01  -2.076781e+00
   1.217564e+00   1.329932e+01
   7.774325e+00  -6.382948e+00
   6.293674e+00  -3.641403e+01
   1.665764e+01  -4.240794e+01
   3.127383e+01  -5.979083e+00
   2.515410e+01   4.738476e+01
  -2.323102e+00   5.590172e+01
  -4.550476e+01   2.068607e+01
  -5.659466e+01  -3.912163e+01
  -9.825780e+00  -6.061113e+01
   5.295077e+01  -3.377652e+01
   9.350691e+01   1.820327e+01
   4.506748e+01   4.262919e+01
  -2.776856e+01   3.641569e+01
  -6.243850e+01   1.853695e+01
  -2.582127e+01   3.653699e+00
   3.860659e+01   3.569808e+00
   3.388854e+01   1.555195e+01
  -2.999379e+01   3.093226e+01
  -1.006885e+02   2.040087e+01
