
 $NMID
 id='ANONYMOUS ', fmtdat='(2E16.6)'
 volume=1.0
 tramp=1.0
 $END
  -4.590908e+03  -1.081297e+02
  -2.490856e+03  -2.961458e+03
   9.324174e+02  -2.679040e+03
   2.444374e+03  -7.097457e+02
   1.039099e+03   5.996543e+02
  -7.170800e+02   7.109636e+02
  -1.090903e+03  -5.400681e+02
   1.473195e+02  -1.160546e+03
   9.869647e+02  -8.169476e+02
   1.011633e+03   8.479069e+01
   3.958170e+02   9.259621e+02
  -2.551141e+02   9.415824e+02
  -7.871644e+02   1.199840e+02
  -3.879465e+02  -7.695785e+02
   2.997942e+02  -7.449344e+02
   6.710038e+02   2.041471e+01
   2.537851e+02   7.558302e+02
  -4.198372e+02   6.687925e+02
  -6.147787e+02   7.772111e+01
  -3.553380e+02  -3.706125e+02
   2.595315e+01  -4.980570e+02
   2.770176e+02  -2.624845e+02
   2.282399e+02   7.521022e-01
  -9.674872e+01   1.193838e+02
  -4.021172e+02  -1.258880e+02
  -2.379055e+02  -4.327829e+02
   4.449644e+02  -4.204373e+02
   9.157800e+02   1.230807e+02
   5.304970e+02   5.796424e+02
  -4.207502e+02   5.065088e+02
  -8.165812e+02  -2.478882e+01
  -3.719784e+02  -4.790091e+02
   2.977899e+02  -5.625230e+02
   6.062434e+02  -2.583000e+02
   4.065791e+02   2.151955e+02
   7.661959e+01   5.102043e+02
  -2.697608e+02   3.439645e+02
  -2.055608e+02  -2.527464e+02
   1.675342e+02  -4.561083e+02
   5.063842e+02  -4.196425e+01
   3.624476e+02   7.831669e+02
  -3.697257e+02   7.617573e+02
  -7.036925e+02   4.171027e+01
  -2.514918e+02  -5.436976e+02
   2.696772e+02  -3.103122e+02
   3.915791e+02   3.725916e+02
  -7.371337e+01   5.786998e+02
  -5.600165e+02   1.476796e+02
  -6.396383e+02  -4.155957e+02
  -1.708980e+02  -6.260746e+02
   3.773395e+02  -3.788183e+02
   6.486454e+02   8.105995e+01
   4.028086e+02   4.295404e+02
  -1.614750e+02   3.919923e+02
  -5.396283e+02   6.304228e+01
  -2.473257e+02  -1.954412e+02
   1.211063e+02  -1.090137e+02
   1.404476e+02   1.524487e+02
  -1.987550e+02   2.215329e+02
  -4.042238e+02  -8.985460e+01
  -1.486945e+02  -3.325713e+02
   2.218033e+02  -2.386632e+02
   3.345496e+02  -5.965581e+01
   1.975514e+02   1.007705e+02
  -3.315335e+01   1.855180e+02
  -2.157710e+02   3.090264e+02
  -3.333174e+02   2.181023e+02
  -3.053344e+02  -1.402958e+02
  -5.568000e+01  -4.619666e+02
   1.655341e+02  -4.259198e+02
   1.255888e+02  -1.003527e+02
   2.442693e+01   2.956523e+01
   2.058995e+01  -7.795100e+01
   1.862661e+02  -1.384491e+02
   2.916976e+02   6.028948e+01
   1.779771e+02   2.664050e+02
  -7.661544e+01   2.864147e+02
  -2.278458e+02   6.921172e+00
  -2.124468e+02  -2.295224e+02
   2.768505e+01  -2.925538e+02
   2.825110e+02  -1.243819e+02
   3.821844e+02   1.724832e+02
   2.063294e+02   4.096015e+02
  -9.776516e+01   3.096506e+02
  -2.463858e+02   1.171899e+02
  -1.511928e+02  -1.464810e+01
  -8.770325e+01   2.665730e+01
  -2.185219e+02   6.392778e+01
  -4.351294e+02  -4.220956e+01
  -3.078146e+02  -2.899304e+02
   1.860462e+01  -4.169442e+02
   3.492698e+02  -4.136175e+02
   4.798801e+02  -1.997443e+02
   3.260884e+02   8.631245e+01
   5.562438e+01   2.841711e+02
  -1.219599e+02   2.233608e+02
  -9.376514e+01   4.018668e+01
   1.109955e+02  -1.249983e+02
   2.417780e+02   3.582627e-01
   4.741518e+01   1.869355e+02
  -1.809023e+02   1.944411e+02
  -2.090316e+02  -7.344609e+01
   2.394249e+01  -2.030732e+02
   2.210911e+02  -3.147655e+01
   1.565542e+02   2.598567e+02
  -3.897415e+01   3.603151e+02
  -2.304401e+02   1.873761e+02
  -2.903755e+02  -7.689096e+01
  -2.891003e+02  -2.417979e+02
  -9.252320e+01  -2.674456e+02
   1.239603e+02  -1.722737e+02
   1.662912e+02  -2.724501e+01
   6.202140e+01   3.305926e+01
  -6.624607e+01  -4.075607e+01
  -4.168454e+01  -1.354813e+02
   1.252275e+02  -9.565148e+01
   2.016007e+02   6.527958e+00
   6.358717e+01   8.086066e+01
  -7.884770e+01   1.574581e+01
  -5.747072e+01  -7.765320e+01
   1.244281e+02  -9.053448e+01
   2.792013e+02  -1.309730e+00
   2.528308e+02   1.210014e+02
   7.096436e+01   2.713836e+02
  -1.828663e+02   2.655417e+02
  -3.000425e+02   1.418696e+02
  -1.752061e+02  -4.891112e+01
   3.039974e+01  -1.082027e+02
   9.808164e+01  -1.413470e+01
  -2.989740e+01   1.056929e+02
  -1.898997e+02   5.798581e+01
  -2.135321e+02  -1.003941e+02
  -9.289530e+01  -2.176364e+02
   9.249239e+01  -1.487334e+02
   1.503204e+02  -3.611891e+01
   7.536662e+01   4.885852e+01
  -2.433345e+01   4.793363e+00
  -3.779151e+01  -7.343609e+01
   5.961554e+01  -1.149189e+02
   1.934501e+02  -3.300282e+01
   1.868213e+02   1.132934e+02
   1.913576e+01   2.200469e+02
  -1.505430e+02   1.781232e+02
  -1.873964e+02   1.261503e+00
  -6.572122e+01  -1.131764e+02
   7.377348e+01  -1.193147e+02
   9.151995e+01  -3.067218e+01
   2.343118e+01   3.008518e+01
  -1.555864e+01   2.155193e+01
   9.493498e+00  -5.824753e+00
   6.647477e+01   7.189995e+00
   8.561814e+01   8.323022e+01
   1.713080e+01   1.461479e+02
  -1.227080e+02   1.442056e+02
  -2.356789e+02   3.041359e+01
  -2.089477e+02  -1.487192e+02
  -4.692989e+01  -2.631722e+02
   1.183192e+02  -1.635351e+02
   1.381606e+02  -2.463954e+01
   6.713538e+01   6.062269e+01
   3.061678e+01   3.883970e+01
   5.482451e+01  -1.301522e+01
   7.180042e+01  -3.656848e+00
   3.860754e+01   4.900710e+01
  -4.280273e+01   7.745777e+01
  -1.032772e+02   6.590042e+01
  -7.725544e+01  -3.344241e+01
   1.093499e+01  -9.583041e+01
   1.390473e+02  -9.152369e+01
   1.941789e+02   4.368483e+01
   9.652080e+01   2.015413e+02
  -1.174169e+02   2.464305e+02
  -2.556757e+02   1.110792e+02
  -2.660058e+02  -8.519672e+01
  -1.206710e+02  -1.836554e+02
   3.630104e+01  -1.536087e+02
   9.982943e+01  -9.057659e+01
   8.162563e+01  -7.510734e+01
   6.315723e+01  -9.000298e+01
   8.538676e+01  -6.691975e+01
   1.279116e+02   2.478856e+01
   1.054464e+02   1.566596e+02
   2.631378e+01   2.213224e+02
  -9.025999e+01   1.652758e+02
  -1.782271e+02   1.993923e+01
  -1.381232e+02  -1.091685e+02
  -2.895102e+01  -1.534369e+02
   6.783413e+01  -9.739262e+01
   6.140187e+01  -4.197472e+00
   6.643190e+00   4.130941e+01
  -1.187263e+01   3.251295e+01
   3.766805e+01   2.122780e+01
   7.449031e+01   2.797415e+01
   4.428850e+01   3.472915e+01
  -5.856884e+01   3.522305e+01
  -1.417231e+02   1.285858e+01
  -1.409989e+02  -5.899392e+01
  -1.549699e+01  -8.644669e+01
   1.122060e+02  -6.176945e+01
   1.486104e+02  -1.319496e+01
   4.573808e+01   3.950159e+01
  -6.193787e+01   3.664841e+01
  -8.161309e+01  -2.008433e+01
  -6.554360e+00  -6.894403e+01
   5.518451e+01  -5.415959e+01
   6.370199e+01   4.152620e+00
   4.185405e+01   5.038631e+01
   4.335305e+01   4.466877e+01
   6.145188e+01  -8.624860e-01
   7.057309e+01   3.695585e+00
   3.218256e+01   6.501923e+01
  -3.664093e+01   1.492958e+02
  -1.041123e+02   1.342374e+02
  -1.452270e+02   2.504947e+01
  -1.121869e+02  -8.946799e+01
  -1.391982e+01  -1.241148e+02
   8.256074e+01  -5.569871e+01
   5.590145e+01   1.722053e+01
  -5.603223e+01   1.437653e+01
  -1.455842e+02  -5.218614e+01
  -8.376435e+01  -1.104834e+02
   7.609162e+01  -1.074323e+02
   1.870350e+02  -5.207058e+01
   1.673458e+02   2.644806e+01
   3.944306e+01   7.864566e+01
  -5.876648e+01   6.735927e+01
  -4.522804e+01   7.239835e+00
   3.935312e+01  -2.303619e+01
   8.740635e+01   2.227738e+01
   3.296149e+01   1.177017e+02
  -9.063718e+01   1.487271e+02
  -1.783514e+02   6.219957e+01
  -1.295091e+02  -1.044075e+02
  -8.828519e+00  -2.055239e+02
   8.092607e+01  -1.328827e+02
   1.022583e+02   5.340830e+00
   6.506333e+01   1.159425e+02
   2.068987e+00   1.127112e+02
  -4.598410e+01   2.287641e+01
  -5.211939e+01  -3.137361e+01
  -2.496277e+01  -9.002556e+00
  -3.934983e+00   2.074476e+01
  -1.668501e+01  -1.496902e+01
  -5.280609e+01  -9.437056e+01
  -4.158782e+01  -1.066829e+02
   4.846418e+01  -4.598458e+01
   1.309689e+02   4.182132e+01
   1.239105e+02   7.441468e+01
   1.582681e+01   4.783300e+01
  -9.328639e+01   1.790157e+01
  -9.154265e+01   8.866427e+00
  -9.582189e+00  -6.895444e+00
   3.618170e+01  -2.043646e+01
   1.344905e+01  -2.004176e+01
  -2.160937e+01   1.423274e+00
   6.813495e+00   1.135935e+01
   7.650217e+01   4.461944e+00
   8.709595e+01   2.237457e+01
   3.285414e+00   7.530438e+01
  -1.245007e+02   1.051439e+02
  -1.810691e+02   5.098367e+01
  -1.393886e+02  -6.699095e+01
  -2.461897e+01  -1.634294e+02
   7.773349e+01  -1.443958e+02
   1.216395e+02  -5.582106e+01
   7.484330e+01   2.334503e+01
   2.301413e+01   3.456359e+01
  -3.932763e+00   8.132620e+00
   9.120814e+00   3.497232e+00
   3.325164e+01   4.632650e+01
   2.414103e+01   9.261936e+01
  -2.937389e+01   6.660045e+01
  -8.051227e+01  -2.290405e+01
  -6.245899e+01  -1.014122e+02
   9.894306e-01  -1.017477e+02
   8.546870e+01  -2.196283e+01
   9.971458e+01   6.935121e+01
   2.643292e+01   9.826349e+01
  -6.558525e+01   5.071176e+01
  -9.861293e+01  -1.106932e+01
  -3.810889e+01  -4.890122e+01
   2.974582e+01  -5.055421e+01
   3.262330e+01  -2.897838e+01
  -3.546450e+01   8.329263e-01
  -7.208613e+01   7.111476e+00
  -1.363568e+01  -2.524251e+01
   7.237684e+01  -5.703714e+01
   1.200681e+02  -5.822684e+01
   6.507574e+01   1.030852e+01
  -1.782529e+01   7.965404e+01
  -5.051171e+01   6.642402e+01
  -3.831670e+01   6.710287e+00
  -2.198210e+00  -5.316563e+01
   2.576707e+01  -4.075635e+01
   3.600894e+01   1.650948e+01
   2.718031e+01   5.268866e+01
  -5.234989e+00   3.127818e+01
  -2.919349e+01  -1.000723e+01
  -3.904181e+01  -1.957803e+01
  -1.926527e+01  -3.864231e-01
  -1.970156e-01   1.287729e+01
   7.183581e+00  -6.382465e+00
   6.814393e+00  -3.920221e+01
   1.870787e+01  -3.704825e+01
   3.477607e+01   1.459625e+00
   2.717415e+01   4.739511e+01
  -7.897600e+00   5.874594e+01
  -4.862609e+01   1.683361e+01
  -5.466628e+01  -4.195243e+01
  -1.272819e+01  -6.082476e+01
   5.808621e+01  -3.042451e+01
   8.320069e+01   1.700452e+01
   4.700964e+01   4.325152e+01
  -3.090075e+01   3.828344e+01
  -6.713531e+01   2.315202e+01
  -2.342849e+01   3.755239e+00
   3.998165e+01   4.543167e+00
   3.932522e+01   1.675831e+01
  -3.333461e+01   3.133521e+01
  -9.335066e+01   2.149301e+01
