
 $NMID
 id='ANONYMOUS ', fmtdat='(2E16.6)'
 volume=1.0
 tramp=1.0
 $END
  -4.450505e+03   6.345874e+01
  -2.718679e+03  -2.921712e+03
   8.508663e+02  -2.722250e+03
   2.494987e+03  -7.996396e+02
   1.158060e+03   5.845103e+02
  -6.566952e+02   6.567703e+02
  -1.044065e+03  -4.821391e+02
   6.352521e+01  -1.117998e+03
   9.228049e+02  -8.152941e+02
   1.003662e+03   2.347261e+01
   4.575222e+02   8.753233e+02
  -2.047878e+02   9.479520e+02
  -7.622317e+02   1.407488e+02
  -3.573590e+02  -7.764127e+02
   3.124963e+02  -7.879479e+02
   7.218815e+02   1.810843e-01
   2.437761e+02   7.273847e+02
  -4.165670e+02   6.798833e+02
  -6.327849e+02   8.389150e+01
  -3.985949e+02  -3.538723e+02
  -1.494925e+01  -4.905831e+02
   2.764853e+02  -2.698373e+02
   1.887529e+02  -1.820200e+01
  -1.040020e+02   1.272486e+02
  -3.797714e+02  -1.293571e+02
  -2.050161e+02  -4.307652e+02
   4.048728e+02  -3.633695e+02
   8.589226e+02   8.265442e+01
   4.465206e+02   5.523423e+02
  -3.652719e+02   4.416302e+02
  -7.794927e+02  -2.167172e+01
  -3.577790e+02  -4.595558e+02
   2.737165e+02  -5.203389e+02
   5.932005e+02  -2.464781e+02
   3.981593e+02   1.995008e+02
   7.676030e+01   4.775354e+02
  -2.656298e+02   3.457718e+02
  -2.243117e+02  -2.404424e+02
   1.853857e+02  -4.185290e+02
   4.978739e+02  -3.404501e+01
   2.732409e+02   7.494385e+02
  -3.382579e+02   7.634645e+02
  -6.485318e+02   5.199140e+01
  -2.920123e+02  -5.123901e+02
   2.466198e+02  -3.110816e+02
   3.734236e+02   3.009344e+02
  -4.120648e+01   5.652346e+02
  -5.104587e+02   1.634165e+02
  -6.469119e+02  -4.087380e+02
  -1.649006e+02  -6.063290e+02
   3.540085e+02  -3.755294e+02
   6.667926e+02   5.854706e+01
   4.399369e+02   4.545042e+02
  -1.188302e+02   3.907524e+02
  -4.935270e+02   8.236000e+01
  -2.750289e+02  -1.761090e+02
   1.150877e+02  -1.337868e+02
   1.456011e+02   1.549454e+02
  -1.927505e+02   2.114376e+02
  -4.050664e+02  -5.010671e+01
  -1.674298e+02  -3.303856e+02
   2.188782e+02  -2.564699e+02
   3.254687e+02  -5.432211e+01
   1.961357e+02   1.080272e+02
  -3.683304e+01   2.068390e+02
  -2.311244e+02   3.031149e+02
  -3.562126e+02   2.277211e+02
  -2.963377e+02  -1.341785e+02
  -6.198661e+01  -4.607875e+02
   1.465465e+02  -4.113977e+02
   1.186411e+02  -1.175412e+02
   4.143738e+01   1.061424e+01
   3.632723e+01  -7.598392e+01
   1.963586e+02  -1.166867e+02
   2.848168e+02   5.296897e+01
   1.696106e+02   2.768475e+02
  -7.200506e+01   2.724458e+02
  -2.176574e+02   2.395694e+00
  -1.960635e+02  -2.249945e+02
   1.912604e+01  -2.955727e+02
   2.639291e+02  -1.284488e+02
   3.783796e+02   1.694811e+02
   2.017445e+02   3.831246e+02
  -8.763411e+01   3.139671e+02
  -2.469186e+02   1.445917e+02
  -1.617676e+02  -7.868775e+00
  -1.037788e+02   2.549906e+01
  -2.157360e+02   5.307972e+01
  -4.189012e+02  -5.859398e+01
  -3.099992e+02  -2.876607e+02
   4.120675e+00  -4.216613e+02
   3.727288e+02  -4.197383e+02
   4.880648e+02  -1.793286e+02
   3.169053e+02   8.915568e+01
   7.307624e+01   2.742456e+02
  -1.148026e+02   2.348689e+02
  -9.999256e+01   5.132446e+01
   1.006372e+02  -1.303704e+02
   2.370482e+02  -7.087795e+00
   4.297659e+01   1.886903e+02
  -1.633257e+02   1.908726e+02
  -1.997158e+02  -6.812210e+01
   2.199432e+01  -1.931130e+02
   2.130337e+02  -4.584786e+01
   1.623097e+02   2.470685e+02
  -3.364224e+01   3.536188e+02
  -2.306046e+02   1.951218e+02
  -3.045740e+02  -8.586879e+01
  -2.767676e+02  -2.434260e+02
  -9.466120e+01  -2.706744e+02
   1.254238e+02  -1.701618e+02
   1.717743e+02  -2.951866e+01
   6.268123e+01   3.026587e+01
  -6.014376e+01  -4.187099e+01
  -3.572213e+01  -1.360838e+02
   1.177289e+02  -1.006233e+02
   1.952540e+02   1.078554e+01
   6.066303e+01   6.926317e+01
  -7.349056e+01   1.132126e+01
  -5.396384e+01  -7.993856e+01
   1.271187e+02  -8.491296e+01
   2.726916e+02   6.099384e+00
   2.527570e+02   1.180449e+02
   5.644671e+01   2.621315e+02
  -1.804467e+02   2.579821e+02
  -2.860932e+02   1.432996e+02
  -1.796789e+02  -4.462162e+01
   2.359208e+01  -1.039638e+02
   9.209813e+01  -8.165972e+00
  -2.636844e+01   9.895962e+01
  -1.779794e+02   5.781523e+01
  -2.106454e+02  -1.072481e+02
  -7.698595e+01  -2.120752e+02
   8.665272e+01  -1.482354e+02
   1.525941e+02  -3.509139e+01
   7.043372e+01   4.123595e+01
  -2.339906e+01   2.076211e+00
  -2.954698e+01  -7.559429e+01
   7.201344e+01  -1.139660e+02
   1.941471e+02  -2.724407e+01
   1.939010e+02   1.182435e+02
   1.851960e+01   2.089792e+02
  -1.612735e+02   1.745084e+02
  -1.954399e+02  -5.310272e-01
  -6.896963e+01  -1.199244e+02
   7.360628e+01  -1.209047e+02
   8.746367e+01  -3.251172e+01
   2.042396e+01   2.580672e+01
  -1.710208e+01   1.870277e+01
   1.323988e+01  -1.023499e+01
   7.130194e+01   1.383494e+01
   8.162401e+01   8.440208e+01
   1.585580e+01   1.533618e+02
  -1.259392e+02   1.413371e+02
  -2.348459e+02   2.821631e+01
  -1.943833e+02  -1.443726e+02
  -3.983842e+01  -2.668367e+02
   1.158777e+02  -1.634967e+02
   1.450201e+02  -2.474158e+01
   7.077637e+01   6.348447e+01
   3.152644e+01   3.828123e+01
   5.679865e+01  -1.309102e+01
   7.563561e+01  -6.037405e+00
   3.927300e+01   5.038971e+01
  -4.680103e+01   8.222570e+01
  -1.103601e+02   5.943214e+01
  -7.977066e+01  -3.851880e+01
   1.651037e+01  -9.737170e+01
   1.411014e+02  -8.072702e+01
   1.968461e+02   5.435150e+01
   1.026212e+02   2.125266e+02
  -1.166667e+02   2.298969e+02
  -2.488674e+02   1.065486e+02
  -2.626027e+02  -8.084405e+01
  -1.135642e+02  -1.829014e+02
   3.828317e+01  -1.536684e+02
   9.917996e+01  -8.538510e+01
   8.276316e+01  -7.549027e+01
   7.088892e+01  -9.116565e+01
   9.097798e+01  -7.152370e+01
   1.239608e+02   2.643831e+01
   1.107972e+02   1.525124e+02
   2.756740e+01   2.297912e+02
  -8.508965e+01   1.552686e+02
  -1.753703e+02   1.741714e+01
  -1.365333e+02  -1.127007e+02
  -2.700433e+01  -1.541873e+02
   7.038991e+01  -1.026204e+02
   6.120456e+01  -2.287706e+00
   6.115505e+00   4.134023e+01
  -1.149788e+01   3.358701e+01
   3.668590e+01   1.816355e+01
   7.597008e+01   2.760405e+01
   4.420161e+01   3.889430e+01
  -5.997796e+01   3.482690e+01
  -1.453573e+02   8.441624e+00
  -1.421965e+02  -5.270786e+01
  -1.538324e+01  -8.161972e+01
   1.117347e+02  -6.241398e+01
   1.473624e+02  -1.211783e+01
   4.517296e+01   3.936514e+01
  -6.197889e+01   3.585324e+01
  -7.971032e+01  -1.993502e+01
  -5.533518e+00  -7.067793e+01
   5.351033e+01  -5.693032e+01
   6.426108e+01   4.517481e+00
   4.202500e+01   5.185596e+01
   4.411647e+01   4.390457e+01
   6.189255e+01  -1.091807e+00
   6.992267e+01   4.280345e+00
   2.952627e+01   7.106577e+01
  -3.549498e+01   1.494670e+02
  -1.068796e+02   1.318981e+02
  -1.547816e+02   2.914944e+01
  -1.160565e+02  -9.108817e+01
  -6.365001e+00  -1.200065e+02
   8.443863e+01  -6.389781e+01
   5.631553e+01   1.959385e+01
  -5.854500e+01   1.573937e+01
  -1.437202e+02  -5.107936e+01
  -8.199178e+01  -1.100080e+02
   7.710903e+01  -9.948561e+01
   1.931191e+02  -5.329073e+01
   1.670389e+02   3.000640e+01
   3.876089e+01   8.546024e+01
  -5.864197e+01   7.140561e+01
  -4.525732e+01   6.815131e+00
   3.983206e+01  -2.406424e+01
   8.400486e+01   2.470519e+01
   3.290938e+01   1.228121e+02
  -8.552035e+01   1.484853e+02
  -1.812600e+02   6.263291e+01
  -1.277978e+02  -9.962136e+01
  -6.657339e+00  -2.003751e+02
   8.173430e+01  -1.383256e+02
   1.021548e+02   6.993993e+00
   6.291431e+01   1.140772e+02
  -4.523347e+00   1.017421e+02
  -4.744773e+01   2.053927e+01
  -5.319689e+01  -3.259436e+01
  -2.450791e+01  -7.320335e+00
  -3.563143e+00   2.081478e+01
  -1.882009e+01  -1.597367e+01
  -5.409003e+01  -9.616808e+01
  -4.623004e+01  -1.094413e+02
   5.041340e+01  -4.515528e+01
   1.360264e+02   3.688660e+01
   1.180426e+02   7.147255e+01
   1.396171e+01   5.023988e+01
  -9.190064e+01   1.750999e+01
  -8.959195e+01   9.371103e+00
  -9.539152e+00  -8.656137e+00
   3.840512e+01  -1.998504e+01
   1.373859e+01  -1.937453e+01
  -2.146793e+01   2.518754e+00
   5.936362e+00   9.740526e+00
   7.701822e+01  -3.192499e-01
   8.928600e+01   2.299002e+01
   9.943247e+00   8.052462e+01
  -1.261453e+02   1.106766e+02
  -1.960225e+02   4.672796e+01
  -1.408945e+02  -6.513548e+01
  -2.786022e+01  -1.724997e+02
   7.624697e+01  -1.444175e+02
   1.242010e+02  -5.724461e+01
   7.625686e+01   2.326667e+01
   2.349524e+01   3.381809e+01
  -3.604424e+00   1.014749e+01
   1.019088e+01   4.824305e+00
   3.330026e+01   4.665583e+01
   2.628200e+01   9.298794e+01
  -2.869548e+01   6.891905e+01
  -8.194558e+01  -2.216650e+01
  -7.199323e+01  -1.004410e+02
   5.285870e-01  -1.079126e+02
   8.166148e+01  -2.546693e+01
   1.000624e+02   7.565555e+01
   2.459091e+01   9.811078e+01
  -6.581154e+01   5.407337e+01
  -1.035795e+02  -1.101249e+01
  -3.840607e+01  -5.336545e+01
   3.211470e+01  -5.183199e+01
   3.419421e+01  -2.804449e+01
  -3.165923e+01   7.337869e-01
  -7.411555e+01   6.558552e+00
  -1.316261e+01  -2.502304e+01
   7.691401e+01  -5.995524e+01
   1.152007e+02  -5.952761e+01
   6.693201e+01   1.175006e+01
  -2.255257e+01   7.833386e+01
  -5.013797e+01   6.756341e+01
  -4.109893e+01   6.260109e+00
  -2.388965e+00  -5.404095e+01
   2.697179e+01  -4.093808e+01
   3.787858e+01   1.584675e+01
   2.802103e+01   5.605857e+01
  -4.246647e+00   3.332861e+01
  -2.991383e+01  -8.566701e+00
  -3.909946e+01  -2.134720e+01
  -1.890545e+01  -1.453977e+00
  -1.289629e+00   1.263835e+01
   5.595726e+00  -3.906155e+00
   4.921277e+00  -4.023584e+01
   1.839275e+01  -4.221947e+01
   3.764691e+01  -1.457797e+00
   2.957690e+01   4.824929e+01
  -6.169860e+00   6.204997e+01
  -4.955645e+01   1.967850e+01
  -5.558752e+01  -4.192813e+01
  -1.287578e+01  -6.175515e+01
   5.818568e+01  -3.083282e+01
   8.334438e+01   1.618128e+01
   4.803126e+01   4.384350e+01
  -3.029341e+01   3.922226e+01
  -6.723887e+01   2.390404e+01
  -2.521630e+01   3.655933e+00
   3.618440e+01   2.610736e+00
   3.674965e+01   1.427130e+01
  -3.103676e+01   3.105118e+01
  -1.007184e+02   2.360286e+01
