
 $NMID
 id='ANONYMOUS ', fmtdat='(2E16.6)'
 volume=1.0
 tramp=1.0
 $END
   4.670199e+03   3.104452e+02
   2.632894e+03   3.071885e+03
  -6.956929e+02   2.783091e+03
  -2.459295e+03   8.096977e+02
  -8.709835e+02  -5.644815e+02
   7.271523e+02  -5.764976e+02
   1.020539e+03   6.474065e+02
  -1.365368e+02   1.255376e+03
  -9.668997e+02   7.748241e+02
  -9.783819e+02  -1.646987e+02
  -3.709379e+02  -9.535055e+02
   3.673603e+02  -9.590766e+02
   7.766764e+02  -7.091945e+01
   3.822616e+02   7.544524e+02
  -3.670339e+02   7.743246e+02
  -7.165519e+02  -5.166960e+01
  -2.539198e+02  -7.225614e+02
   4.256102e+02  -6.834468e+02
   6.082342e+02  -9.911131e+01
   4.080981e+02   3.680778e+02
  -1.107861e+01   4.625876e+02
  -2.788507e+02   2.675837e+02
  -2.092794e+02   4.416490e+00
   1.466576e+02  -1.622743e+02
   4.457221e+02   1.178105e+02
   2.062688e+02   4.726793e+02
  -5.159410e+02   3.774358e+02
  -9.811403e+02  -1.297007e+02
  -4.858795e+02  -6.388353e+02
   4.757346e+02  -4.907376e+02
   8.326273e+02   7.392677e+01
   3.217787e+02   4.896596e+02
  -3.294889e+02   5.312121e+02
  -6.034729e+02   2.142315e+02
  -4.150777e+02  -2.400218e+02
  -5.932024e+01  -4.958046e+02
   2.833034e+02  -3.036252e+02
   2.185385e+02   2.840242e+02
  -1.991501e+02   4.488817e+02
  -5.410859e+02  -2.675812e+01
  -2.838196e+02  -7.871773e+02
   3.916967e+02  -7.722986e+02
   7.127519e+02   6.196400e+01
   2.244062e+02   5.423767e+02
  -2.632948e+02   3.073450e+02
  -3.755970e+02  -3.517893e+02
   1.050447e+02  -6.021989e+02
   5.954923e+02  -1.377859e+02
   6.452437e+02   4.807761e+02
   1.710747e+02   6.407033e+02
  -4.048319e+02   3.629337e+02
  -6.836707e+02  -1.237994e+02
  -4.292411e+02  -4.746459e+02
   2.100421e+02  -3.634571e+02
   5.049944e+02  -4.529079e+01
   2.365931e+02   2.162792e+02
  -1.425843e+02   8.888737e+01
  -1.532567e+02  -1.772810e+02
   2.081496e+02  -2.281847e+02
   3.885171e+02   1.122434e+02
   1.447597e+02   3.481595e+02
  -2.221751e+02   2.554430e+02
  -3.095926e+02   6.430748e+01
  -2.066061e+02  -7.992310e+01
   3.099489e+01  -2.123949e+02
   2.210547e+02  -3.365231e+02
   3.752838e+02  -2.288379e+02
   3.177905e+02   1.607179e+02
   5.450641e+01   4.579313e+02
  -1.491863e+02   4.387196e+02
  -1.101230e+02   1.007689e+02
  -1.671977e+01  -2.523212e+01
  -2.665202e+01   9.365237e+01
  -2.119983e+02   1.462211e+02
  -3.112910e+02  -5.808567e+01
  -1.606392e+02  -2.966135e+02
   8.533159e+01  -2.911744e+02
   2.470817e+02  -4.945691e+00
   2.192152e+02   2.390120e+02
  -2.199778e+01   3.136724e+02
  -2.939607e+02   1.324239e+02
  -4.039857e+02  -1.808209e+02
  -1.954232e+02  -3.817618e+02
   1.091680e+02  -3.099504e+02
   2.523307e+02  -1.187637e+02
   1.352029e+02   7.772049e+00
   9.819127e+01  -3.778686e+01
   2.313482e+02  -7.708740e+01
   4.286985e+02   6.369968e+01
   3.332726e+02   2.735655e+02
   1.096991e+01   4.150778e+02
  -3.825172e+02   4.327134e+02
  -5.141476e+02   1.934478e+02
  -3.233506e+02  -9.646954e+01
  -5.088033e+01  -3.135231e+02
   1.253676e+02  -2.426761e+02
   1.030011e+02  -1.618773e+01
  -1.193926e+02   1.333247e+02
  -2.480758e+02  -9.367286e+00
  -5.069591e+01  -2.077649e+02
   1.970740e+02  -1.891803e+02
   2.134917e+02   7.664744e+01
  -1.884237e+01   2.057669e+02
  -2.326280e+02   4.226495e+01
  -1.709281e+02  -2.515322e+02
   4.134944e+01  -3.618198e+02
   2.493301e+02  -2.033623e+02
   3.153688e+02   5.593172e+01
   2.818397e+02   2.582303e+02
   1.132541e+02   2.878735e+02
  -1.259930e+02   1.853911e+02
  -1.838412e+02   1.631381e+01
  -6.424828e+01  -4.029660e+01
   7.323104e+01   4.310306e+01
   4.121712e+01   1.425382e+02
  -1.437304e+02   1.054018e+02
  -1.951898e+02  -1.785532e+01
  -6.084246e+01  -7.884932e+01
   8.309487e+01  -1.197088e+01
   6.049558e+01   8.294633e+01
  -1.301107e+02   9.374930e+01
  -2.833194e+02   1.115298e+01
  -2.834716e+02  -1.367042e+02
  -5.768558e+01  -2.805162e+02
   1.817736e+02  -2.758450e+02
   3.279999e+02  -1.458196e+02
   1.876973e+02   6.603267e+01
  -3.200045e+01   1.131163e+02
  -1.023502e+02   7.304112e+00
   3.369478e+01  -1.124917e+02
   1.950328e+02  -5.836797e+01
   2.207133e+02   1.058912e+02
   6.953208e+01   2.351090e+02
  -9.945712e+01   1.669187e+02
  -1.545590e+02   3.190797e+01
  -7.086710e+01  -4.451395e+01
   3.007822e+01  -5.211860e+00
   4.368908e+01   7.724029e+01
  -7.035156e+01   1.235421e+02
  -2.006941e+02   3.495930e+01
  -2.108140e+02  -1.343735e+02
  -1.999773e+01  -2.143382e+02
   1.750132e+02  -1.619201e+02
   2.014670e+02  -8.887727e+00
   6.623384e+01   1.235707e+02
  -7.793631e+01   1.289160e+02
  -9.029250e+01   2.956999e+01
  -2.022752e+01  -2.814624e+01
   1.598300e+01  -2.510663e+01
  -7.002679e+00   7.190269e+00
  -6.805989e+01  -5.542369e+00
  -8.829337e+01  -8.215327e+01
  -2.137885e+01  -1.589397e+02
   1.258007e+02  -1.575518e+02
   2.437672e+02  -3.289970e+01
   2.117605e+02   1.575822e+02
   5.446909e+01   2.797667e+02
  -1.185589e+02   1.740907e+02
  -1.508385e+02   2.135245e+01
  -7.008700e+01  -6.169178e+01
  -3.006098e+01  -3.699682e+01
  -5.648125e+01   1.325600e+01
  -7.763230e+01   6.097323e+00
  -4.501538e+01  -4.767856e+01
   3.851006e+01  -8.259840e+01
   1.104649e+02  -6.019867e+01
   8.743255e+01   3.312031e+01
  -1.078565e+01   9.881617e+01
  -1.400847e+02   8.967063e+01
  -2.100089e+02  -5.235608e+01
  -1.153714e+02  -2.109038e+02
   1.100309e+02  -2.498943e+02
   2.715688e+02  -1.048859e+02
   2.805465e+02   9.242863e+01
   1.101949e+02   1.769699e+02
  -4.274308e+01   1.544010e+02
  -9.774344e+01   8.574243e+01
  -8.688152e+01   7.461623e+01
  -7.129877e+01   9.218473e+01
  -9.630575e+01   8.124462e+01
  -1.309178e+02  -2.347148e+01
  -1.176226e+02  -1.581293e+02
  -3.923936e+01  -2.413504e+02
   9.605010e+01  -1.659580e+02
   1.780972e+02  -2.143383e+01
   1.420913e+02   1.231166e+02
   2.206107e+01   1.673081e+02
  -7.142287e+01   1.028497e+02
  -6.744973e+01   1.864113e+00
  -7.106900e+00  -4.826139e+01
   1.135116e+01  -3.595332e+01
  -3.702749e+01  -2.182653e+01
  -8.555704e+01  -2.610713e+01
  -4.688117e+01  -4.079830e+01
   6.544245e+01  -3.630166e+01
   1.464556e+02  -1.337393e+00
   1.478882e+02   5.029079e+01
   1.992362e+01   8.936007e+01
  -1.169112e+02   7.663610e+01
  -1.529373e+02   1.658036e+01
  -5.298967e+01  -4.287659e+01
   6.363063e+01  -3.815760e+01
   8.331581e+01   2.049283e+01
   8.128184e+00   6.519464e+01
  -5.507106e+01   5.561046e+01
  -6.514423e+01   1.052958e+00
  -4.431277e+01  -5.016326e+01
  -4.343073e+01  -4.285254e+01
  -6.125073e+01  -5.584225e+00
  -7.286149e+01  -4.414648e-01
  -3.366415e+01  -6.538416e+01
   3.832578e+01  -1.426818e+02
   1.221515e+02  -1.391720e+02
   1.681115e+02  -3.436064e+01
   1.238221e+02   8.595494e+01
   4.632695e+00   1.222490e+02
  -8.751310e+01   6.441953e+01
  -5.964643e+01  -1.681505e+01
   5.953718e+01  -2.054641e+01
   1.510411e+02   4.988313e+01
   8.080404e+01   1.196507e+02
  -7.565966e+01   1.075488e+02
  -2.065161e+02   5.459186e+01
  -1.774620e+02  -3.292356e+01
  -3.802509e+01  -8.660588e+01
   6.558932e+01  -7.570277e+01
   4.761457e+01  -9.620011e+00
  -3.949648e+01   2.682311e+01
  -8.422218e+01  -1.822895e+01
  -3.434899e+01  -1.256661e+02
   9.271841e+01  -1.575767e+02
   1.849221e+02  -6.541479e+01
   1.431459e+02   1.068794e+02
   1.158568e+01   2.156819e+02
  -8.424652e+01   1.412216e+02
  -1.053692e+02  -9.753728e+00
  -6.309664e+01  -1.157441e+02
   2.493724e+00  -1.104200e+02
   5.123803e+01  -2.553872e+01
   5.716538e+01   3.279932e+01
   2.546191e+01   9.649123e+00
   4.115924e+00  -2.307999e+01
   2.007311e+01   1.296905e+01
   5.904870e+01   9.894104e+01
   4.568764e+01   1.148598e+02
  -4.834154e+01   5.232991e+01
  -1.433777e+02  -4.265809e+01
  -1.268607e+02  -7.237129e+01
  -1.682808e+01  -5.276497e+01
   9.344796e+01  -2.113086e+01
   9.658571e+01  -9.539409e+00
   1.116717e+01   5.828460e+00
  -3.872591e+01   2.196735e+01
  -1.467168e+01   1.931209e+01
   1.984573e+01  -8.252821e-01
  -5.830694e+00  -1.086417e+01
  -7.711325e+01  -1.021130e+01
  -8.973096e+01  -2.471700e+01
  -4.348372e+00  -7.885522e+01
   1.246562e+02  -1.172370e+02
   1.927579e+02  -5.864875e+01
   1.479813e+02   6.474121e+01
   2.034034e+01   1.642428e+02
  -8.591355e+01   1.483116e+02
  -1.273062e+02   6.363395e+01
  -7.550114e+01  -1.942999e+01
  -2.498010e+01  -3.324997e+01
   2.911586e+00  -8.905193e+00
  -1.010046e+01  -4.492423e+00
  -3.770391e+01  -4.947313e+01
  -2.317129e+01  -9.776045e+01
   2.893073e+01  -7.162122e+01
   7.824384e+01   1.900175e+01
   7.284905e+01   1.025220e+02
   1.146711e+00   1.165609e+02
  -8.432973e+01   2.158426e+01
  -9.685922e+01  -7.641698e+01
  -2.799742e+01  -9.526777e+01
   6.388217e+01  -5.583465e+01
   1.045786e+02   1.606015e+01
   4.123789e+01   4.919880e+01
  -3.062818e+01   5.041937e+01
  -3.171146e+01   2.899658e+01
   3.119444e+01  -1.161834e+00
   7.683570e+01  -5.924064e+00
   1.362656e+01   2.506655e+01
  -8.349202e+01   6.574373e+01
  -1.228453e+02   6.393942e+01
  -6.961947e+01  -1.243060e+01
   1.948946e+01  -8.015315e+01
   4.860819e+01  -7.323426e+01
   3.672646e+01  -7.238380e+00
   1.406290e+00   5.337021e+01
  -2.827010e+01   4.020971e+01
  -3.552611e+01  -1.957769e+01
  -2.842631e+01  -5.763396e+01
   2.990594e+00  -3.281735e+01
   3.173864e+01   9.688336e+00
   4.011421e+01   2.179283e+01
   2.053268e+01   6.548479e-01
  -7.026116e-01  -1.263811e+01
  -9.135766e+00   5.625405e+00
  -9.298105e+00   3.686752e+01
  -1.647538e+01   4.168880e+01
  -3.369356e+01   1.090230e+00
  -2.295470e+01  -4.584682e+01
   3.394384e+00  -5.964808e+01
   4.601137e+01  -2.103311e+01
   5.798233e+01   4.440013e+01
   1.210382e+01   6.225592e+01
  -5.881923e+01   3.509883e+01
  -8.213115e+01  -1.262488e+01
  -4.892366e+01  -4.728553e+01
   3.069708e+01  -4.144580e+01
   6.974805e+01  -2.195711e+01
   2.326440e+01  -4.687881e+00
  -3.459020e+01  -5.286626e+00
  -3.855117e+01  -1.618367e+01
   3.344908e+01  -3.138772e+01
   9.665467e+01  -1.651466e+01
