
 $NMID
 id='ANONYMOUS ', fmtdat='(2E16.6)'
 volume=1.0
 tramp=1.0
 $END
  -4.235653e+03  -6.755447e+02
  -1.982525e+03  -2.575666e+03
   6.070306e+02  -2.538200e+03
   1.792597e+03  -5.962041e+02
   8.267703e+02   3.432464e+02
  -3.808193e+02   5.603713e+02
  -6.772379e+02  -4.901772e+02
   1.623685e+02  -8.676058e+02
   8.746046e+02  -5.585681e+02
   8.009161e+02  -3.104703e+01
   4.029031e+02   8.472470e+02
  -1.835747e+02   8.704941e+02
  -5.086996e+02   4.420521e-01
  -2.723671e+02  -6.131388e+02
   2.759481e+02  -6.991267e+02
   5.175014e+02   2.309839e+01
   2.088459e+02   6.454189e+02
  -3.541282e+02   5.673650e+02
  -5.317522e+02   6.811131e+01
  -3.810595e+02  -2.962144e+02
   5.661433e+00  -3.876182e+02
   2.149894e+02  -2.343604e+02
   1.545704e+02  -2.674979e+01
  -1.477727e+02   5.821541e+01
  -3.523661e+02  -1.806757e+02
  -1.333331e+02  -4.682621e+02
   4.825324e+02  -3.482758e+02
   7.905303e+02   1.741746e+02
   3.863413e+02   5.599727e+02
  -4.745596e+02   3.691018e+02
  -7.424230e+02  -1.804515e+02
  -2.887949e+02  -4.652193e+02
   3.552644e+02  -4.323392e+02
   5.542095e+02  -1.849290e+02
   4.076930e+02   2.624259e+02
   2.171421e+01   4.265484e+02
  -1.661528e+02   2.051319e+02
  -6.463697e+01  -2.481286e+02
   1.752231e+02  -3.599758e+02
   4.415328e+02   1.142842e+02
   1.297489e+02   7.294896e+02
  -4.050888e+02   6.324599e+02
  -4.815400e+02  -2.091063e+01
  -1.901611e+02  -4.819287e+02
   2.475223e+02  -2.537075e+02
   3.105722e+02   3.359207e+02
  -9.880659e+01   4.648419e+02
  -5.699183e+02   9.646826e+01
  -5.067811e+02  -4.030783e+02
  -1.440755e+02  -5.433579e+02
   3.641680e+02  -3.350721e+02
   5.709889e+02   6.749037e+01
   3.339275e+02   3.586252e+02
  -1.577884e+02   3.521267e+02
  -3.829851e+02   3.394344e+01
  -2.239691e+02  -1.643368e+02
   9.919122e+01  -6.828654e+01
   1.195412e+02   1.112869e+02
  -2.024674e+02   1.300438e+02
  -2.927756e+02  -1.101230e+02
  -1.016753e+02  -2.576124e+02
   2.210083e+02  -2.412853e+02
   3.288315e+02  -4.906075e+01
   2.191415e+02   9.537071e+01
  -2.701698e+01   2.503803e+02
  -2.308587e+02   3.501741e+02
  -3.523007e+02   1.701809e+02
  -2.654821e+02  -1.541777e+02
  -4.105346e+01  -4.238823e+02
   1.333037e+02  -3.205703e+02
   8.965159e+01  -1.251716e+02
   2.428905e+01  -1.274205e+01
   5.638464e+01  -1.037426e+02
   2.178101e+02  -1.108773e+02
   2.538570e+02   8.782885e+01
   1.418149e+02   2.870868e+02
  -8.463566e+01   2.400472e+02
  -2.202844e+02  -9.499646e-01
  -1.974480e+02  -2.599807e+02
   5.462686e+01  -2.953802e+02
   2.774320e+02  -1.179069e+02
   3.463195e+02   1.640858e+02
   1.586760e+02   3.481266e+02
  -1.252038e+02   2.903463e+02
  -2.294222e+02   1.011806e+02
  -1.483256e+02   2.394849e+01
  -1.225541e+02   4.089927e+01
  -2.539580e+02   5.984444e+01
  -3.825859e+02  -9.740690e+01
  -3.239398e+02  -3.088521e+02
   4.762367e+01  -4.809574e+02
   3.427920e+02  -4.125794e+02
   4.991164e+02  -2.067708e+02
   3.234862e+02   1.109664e+02
   4.269594e+01   2.983209e+02
  -1.317493e+02   2.465947e+02
  -6.844411e+01   1.035271e+01
   1.246152e+02  -9.613234e+01
   1.787594e+02   9.947333e+00
   4.014530e+01   1.789213e+02
  -1.714089e+02   1.339893e+02
  -1.521935e+02  -8.242644e+01
   3.211047e+01  -1.755054e+02
   1.948299e+02  -4.240756e+00
   1.534364e+02   2.557843e+02
  -4.964362e+01   3.614009e+02
  -2.590132e+02   1.802475e+02
  -3.489531e+02  -6.163408e+01
  -2.412637e+02  -2.664552e+02
  -7.413021e+01  -2.678110e+02
   1.157825e+02  -1.570833e+02
   1.826349e+02  -1.891929e+01
   4.885424e+01   3.024223e+01
  -6.319477e+01  -4.931086e+01
  -1.817194e+01  -1.202807e+02
   1.215958e+02  -9.634829e+01
   1.711587e+02   3.777204e+01
   5.361573e+01   6.244173e+01
  -8.203051e+01   4.697765e+00
  -4.515301e+01  -8.156407e+01
   1.300533e+02  -7.580251e+01
   2.851155e+02   9.100375e+00
   2.779950e+02   1.556939e+02
   2.045166e+01   2.583460e+02
  -2.013252e+02   2.482800e+02
  -2.806255e+02   1.097929e+02
  -1.537326e+02  -5.324622e+01
   3.310390e+01  -1.015900e+02
   8.929291e+01   5.461485e+00
  -5.188250e+01   9.728294e+01
  -2.022251e+02   4.892679e+01
  -2.032211e+02  -1.008098e+02
  -7.591373e+01  -1.947108e+02
   9.928666e+01  -1.591093e+02
   1.429693e+02  -2.346678e+01
   6.087305e+01   4.178289e+01
  -3.497820e+01  -6.421982e+00
  -4.294415e+01  -9.172069e+01
   7.869587e+01  -1.112502e+02
   2.087247e+02  -2.082075e+01
   1.851865e+02   1.314264e+02
   9.001681e+00   2.204818e+02
  -1.588099e+02   1.475608e+02
  -1.882085e+02   3.255951e+00
  -5.753821e+01  -1.118343e+02
   7.354771e+01  -9.836899e+01
   8.652814e+01  -1.570058e+01
   1.224235e+01   2.825350e+01
  -2.707039e+01   2.070012e+01
   9.721646e+00  -1.459168e+01
   7.884813e+01   1.057124e+01
   8.955823e+01   8.902011e+01
   1.449388e+01   1.617044e+02
  -1.412588e+02   1.480406e+02
  -2.260035e+02   2.635684e+01
  -1.886009e+02  -1.586941e+02
  -4.162982e+01  -2.091097e+02
   1.181963e+02  -1.583119e+02
   1.312555e+02  -2.621433e+01
   6.525345e+01   5.973002e+01
   2.555110e+01   3.467522e+01
   5.336554e+01  -9.744638e+00
   8.516340e+01  -3.757182e+00
   4.630667e+01   5.244649e+01
  -4.620464e+01   9.302234e+01
  -1.041683e+02   5.287502e+01
  -9.024659e+01  -2.556210e+01
   1.738620e+01  -1.229925e+02
   1.429991e+02  -8.961982e+01
   1.979734e+02   4.656022e+01
   9.781265e+01   2.029954e+02
  -1.164347e+02   2.122652e+02
  -2.684605e+02   9.722626e+01
  -2.509038e+02  -1.044650e+02
  -9.133692e+01  -1.883507e+02
   5.094709e+01  -1.433561e+02
   9.327357e+01  -7.481000e+01
   8.192415e+01  -6.344944e+01
   6.970106e+01  -9.033969e+01
   9.161719e+01  -7.826432e+01
   1.306504e+02   3.204091e+01
   1.178307e+02   1.633657e+02
   3.252916e+01   2.277124e+02
  -1.079531e+02   1.743930e+02
  -1.780898e+02   1.791175e+01
  -1.382742e+02  -1.144852e+02
  -1.789703e+01  -1.617619e+02
   7.047032e+01  -8.490735e+01
   5.951568e+01   2.434834e+00
   1.088836e+00   4.660467e+01
  -2.046074e+01   3.350121e+01
   2.920562e+01   2.154699e+01
   7.713992e+01   1.992245e+01
   4.293166e+01   4.027873e+01
  -6.901690e+01   3.482406e+01
  -1.643891e+02   6.014300e+00
  -1.476525e+02  -6.156317e+01
  -6.894532e+00  -9.269123e+01
   1.296926e+02  -8.031407e+01
   1.479624e+02  -1.103412e+01
   4.615867e+01   5.163756e+01
  -6.477762e+01   3.277924e+01
  -7.477945e+01  -1.961207e+01
  -4.241338e+00  -6.929928e+01
   5.416939e+01  -6.250825e+01
   6.310635e+01   4.254588e+00
   4.165702e+01   5.328623e+01
   4.128473e+01   4.088400e+01
   5.768804e+01   7.179831e+00
   5.966792e+01   6.383538e-02
   3.783484e+01   6.454059e+01
  -3.400322e+01   1.518609e+02
  -1.290018e+02   1.399414e+02
  -1.781373e+02   2.759195e+01
  -1.253967e+02  -9.959180e+01
   1.854707e+00  -1.170212e+02
   8.493756e+01  -6.463675e+01
   6.221259e+01   1.756707e+01
  -6.108394e+01   1.882247e+01
  -1.271774e+02  -4.494008e+01
  -6.742861e+01  -1.107587e+02
   8.450741e+01  -1.097572e+02
   1.890606e+02  -5.321369e+01
   1.556108e+02   2.087410e+01
   3.847000e+01   8.993622e+01
  -5.805527e+01   6.725172e+01
  -5.462149e+01   4.431924e+00
   4.280331e+01  -2.334066e+01
   9.313689e+01   1.960362e+01
   3.398065e+01   1.191886e+02
  -9.755145e+01   1.500230e+02
  -1.617602e+02   5.635219e+01
  -1.229943e+02  -8.514267e+01
  -1.370634e+01  -1.879889e+02
   9.738760e+01  -1.415085e+02
   1.038678e+02   1.639181e+01
   6.108944e+01   1.141075e+02
  -1.366226e+01   1.045957e+02
  -4.483009e+01   1.968228e+01
  -4.515232e+01  -3.088223e+01
  -2.300416e+01  -1.007315e+01
  -6.316092e+00   1.928459e+01
  -2.375994e+01  -1.717620e+01
  -5.099692e+01  -9.230433e+01
  -4.115948e+01  -1.118049e+02
   4.716728e+01  -4.368479e+01
   1.364763e+02   4.546072e+01
   1.226560e+02   8.165946e+01
   1.410388e+01   5.024774e+01
  -8.131418e+01   2.222039e+01
  -8.206728e+01   9.282929e+00
  -1.204602e+01  -7.060766e+00
   3.866538e+01  -2.102520e+01
   1.465757e+01  -1.659099e+01
  -2.017049e+01   1.424187e+00
   3.665722e+00   8.936421e+00
   6.882997e+01   1.463226e+01
   9.065557e+01   3.119163e+01
   8.657890e+00   8.453283e+01
  -1.180938e+02   9.686006e+01
  -1.828993e+02   6.277208e+01
  -1.398262e+02  -6.893010e+01
  -1.743516e+01  -1.586576e+02
   8.773311e+01  -1.545446e+02
   1.125445e+02  -4.724786e+01
   8.154812e+01   2.019689e+01
   2.691114e+01   3.619770e+01
  -4.073141e-01   1.011413e+01
   1.163327e+01   5.191390e+00
   3.178118e+01   4.778563e+01
   1.395583e+01   9.247568e+01
  -3.103937e+01   7.457875e+01
  -8.172633e+01  -2.988163e+01
  -8.006209e+01  -1.091262e+02
  -6.701300e+00  -1.136073e+02
   7.891274e+01  -2.340901e+01
   9.945705e+01   7.562769e+01
   3.340193e+01   1.004974e+02
  -6.881473e+01   5.249883e+01
  -9.299927e+01  -1.014418e+01
  -4.075762e+01  -5.524463e+01
   3.343272e+01  -5.610714e+01
   3.314509e+01  -2.548448e+01
  -3.027784e+01   9.005807e-01
  -6.348246e+01   3.486747e+00
  -1.339735e+01  -2.675180e+01
   8.567889e+01  -6.354707e+01
   1.181020e+02  -5.502988e+01
   6.444857e+01   1.637396e+01
  -1.879999e+01   8.566196e+01
  -5.888496e+01   8.383304e+01
  -3.785030e+01   5.822094e+00
  -5.634724e+00  -5.611942e+01
   2.821085e+01  -4.193353e+01
   3.675102e+01   1.694577e+01
   2.737979e+01   5.200542e+01
  -9.542731e-02   3.243731e+01
  -3.326700e+01  -8.927266e+00
  -3.883280e+01  -2.625894e+01
  -2.107740e+01  -2.568261e+00
   2.196547e+00   1.410998e+01
   9.350074e+00  -1.231370e+00
   5.859414e+00  -3.023209e+01
   1.464214e+01  -4.777280e+01
   2.705862e+01  -7.466228e+00
   3.022282e+01   4.084933e+01
  -5.402125e+00   5.904357e+01
  -3.985049e+01   2.083384e+01
  -5.101807e+01  -3.607200e+01
  -1.868867e+01  -6.266858e+01
   5.491928e+01  -2.828634e+01
   8.856876e+01   1.683868e+01
   4.551133e+01   4.705317e+01
  -2.853907e+01   3.662485e+01
  -6.112090e+01   1.714450e+01
  -2.381793e+01   4.686725e+00
   3.290091e+01   4.340295e+00
   3.414691e+01   1.393073e+01
  -3.343048e+01   2.861194e+01
  -8.714226e+01   1.774419e+01
