
 $NMID
 id='ANONYMOUS ', fmtdat='(2E16.6)'
 volume=1.0
 tramp=1.0
 $END
   5.001662e+03  -6.618778e+01
   2.735701e+03   2.997195e+03
  -7.824058e+02   3.089096e+03
  -2.464928e+03   5.127839e+02
  -1.049129e+03  -7.053546e+02
   7.322722e+02  -6.588561e+02
   1.046333e+03   7.042336e+02
  -1.596109e+02   1.276245e+03
  -9.930264e+02   8.425982e+02
  -1.025790e+03  -9.135523e+01
  -4.659531e+02  -1.000426e+03
   2.529889e+02  -9.727776e+02
   7.325839e+02  -3.612467e+01
   4.428522e+02   8.042695e+02
  -3.557942e+02   8.670965e+02
  -6.374991e+02  -5.021232e+01
  -2.582700e+02  -7.677087e+02
   3.571221e+02  -6.440127e+02
   6.191002e+02  -9.803268e+01
   4.010677e+02   4.003125e+02
  -5.652594e+01   4.182852e+02
  -3.026329e+02   2.494290e+02
  -2.593862e+02   1.183151e+01
   1.285015e+02  -1.595354e+02
   4.879418e+02   9.790155e+01
   2.320234e+02   4.636991e+02
  -4.376296e+02   4.986873e+02
  -9.374899e+02  -1.018665e+02
  -5.097225e+02  -6.453763e+02
   4.503765e+02  -5.367331e+02
   8.206621e+02   3.660255e+01
   3.810120e+02   4.948714e+02
  -3.043560e+02   5.597882e+02
  -5.984672e+02   2.618682e+02
  -4.584489e+02  -2.526411e+02
  -5.432891e+01  -5.084969e+02
   2.833388e+02  -2.978024e+02
   2.193965e+02   3.257168e+02
  -1.991708e+02   4.885371e+02
  -5.423412e+02  -5.801135e+01
  -3.644361e+02  -7.480432e+02
   3.535666e+02  -8.174241e+02
   6.482314e+02  -2.547354e+01
   2.959019e+02   6.078279e+02
  -3.258170e+02   3.966081e+02
  -4.605134e+02  -3.235253e+02
   8.396822e+01  -5.962327e+02
   6.145624e+02  -1.872271e+02
   6.409103e+02   4.281497e+02
   1.981654e+02   6.080697e+02
  -3.902124e+02   3.980310e+02
  -6.942868e+02  -5.871722e+01
  -3.873258e+02  -4.267882e+02
   1.912536e+02  -4.308301e+02
   4.810424e+02  -1.353604e+01
   2.578668e+02   2.269299e+02
  -1.541432e+02   1.269684e+02
  -1.861992e+02  -1.672362e+02
   2.300010e+02  -2.297232e+02
   3.873047e+02   1.113068e+02
   1.335785e+02   3.612335e+02
  -2.402250e+02   2.661947e+02
  -3.406861e+02   6.421776e+01
  -1.844823e+02  -8.273953e+01
   2.142742e+01  -2.008939e+02
   1.847546e+02  -3.518097e+02
   3.513300e+02  -2.291305e+02
   3.153480e+02   1.303480e+02
   8.332322e+01   4.894797e+02
  -1.296707e+02   4.023305e+02
  -1.535520e+02   1.182141e+02
  -2.526666e+01  -3.517604e+01
   6.301187e+00   9.476844e+01
  -1.926644e+02   1.537233e+02
  -3.043764e+02  -4.002789e+01
  -1.789530e+02  -2.796101e+02
   5.575752e+01  -2.790966e+02
   2.394098e+02  -3.176456e+01
   2.498560e+02   2.412121e+02
  -6.007222e+00   3.137155e+02
  -2.800834e+02   1.347046e+02
  -3.833118e+02  -1.839822e+02
  -2.214700e+02  -3.549300e+02
   9.963534e+01  -3.333523e+02
   2.510462e+02  -1.053494e+02
   1.618116e+02   7.160388e-01
   9.268639e+01  -2.624303e+01
   2.306542e+02  -8.637844e+01
   4.048117e+02   4.626200e+01
   3.689520e+02   2.784310e+02
   2.290234e+01   4.791911e+02
  -3.451898e+02   4.360657e+02
  -5.039561e+02   2.202007e+02
  -3.556715e+02  -6.867462e+01
  -5.512781e+01  -3.103784e+02
   1.322928e+02  -2.907372e+02
   1.027702e+02  -1.865347e+01
  -1.191161e+02   1.436184e+02
  -2.341649e+02   1.454031e+00
  -7.598446e+01  -2.216226e+02
   1.904037e+02  -2.051767e+02
   2.007894e+02   6.371393e+01
  -1.905297e+01   2.227499e+02
  -2.209272e+02   4.234375e+01
  -1.956558e+02  -2.503881e+02
   3.662824e+01  -3.573189e+02
   2.393789e+02  -1.792903e+02
   3.294226e+02   7.226295e+01
   2.952932e+02   2.192882e+02
   1.201655e+02   2.696222e+02
  -9.854071e+01   1.789791e+02
  -1.941017e+02   3.186266e+01
  -6.698661e+01  -3.531893e+01
   7.762000e+01   2.839025e+01
   4.246750e+01   1.350306e+02
  -1.249873e+02   1.131306e+02
  -1.894191e+02  -1.065917e+01
  -7.651047e+01  -6.951223e+01
   7.816315e+01  -3.004070e+01
   6.349126e+01   6.678156e+01
  -1.243341e+02   8.238935e+01
  -2.979359e+02   3.852259e+01
  -2.725371e+02  -1.327654e+02
  -7.071331e+01  -2.485035e+02
   1.791592e+02  -2.818594e+02
   2.832432e+02  -1.336276e+02
   1.845505e+02   4.374743e+01
  -2.595051e+01   1.236155e+02
  -1.043150e+02   1.140729e+01
   3.724043e+01  -1.258485e+02
   2.134057e+02  -7.697375e+01
   2.339271e+02   9.481319e+01
   9.222735e+01   2.046767e+02
  -1.084959e+02   1.831685e+02
  -1.579810e+02   3.966082e+01
  -7.591029e+01  -3.848967e+01
   2.411322e+01  -1.185345e+01
   4.909845e+01   8.062998e+01
  -6.331045e+01   1.193973e+02
  -1.961963e+02   4.777736e+01
  -1.993139e+02  -1.302321e+02
  -4.185417e+01  -2.234211e+02
   1.573840e+02  -1.847511e+02
   2.145094e+02  -2.042511e+00
   8.257883e+01   1.292859e+02
  -7.026888e+01   1.203172e+02
  -9.313452e+01   3.675432e+01
  -2.246487e+01  -2.461337e+01
   1.686839e+01  -2.885261e+01
  -9.617961e+00   5.643769e+00
  -7.157469e+01  -8.012273e+00
  -9.348240e+01  -7.641966e+01
  -1.886105e+01  -1.608064e+02
   1.324600e+02  -1.500812e+02
   2.356914e+02  -5.153361e+01
   2.196537e+02   1.586583e+02
   4.169688e+01   2.350526e+02
  -1.218482e+02   1.809936e+02
  -1.329283e+02   2.840327e+01
  -7.246185e+01  -6.274957e+01
  -2.768700e+01  -3.610773e+01
  -5.233636e+01   1.117919e+01
  -8.018597e+01   1.307821e+01
  -4.107468e+01  -4.599917e+01
   3.748991e+01  -8.841483e+01
   9.287887e+01  -5.387161e+01
   7.937289e+01   1.966770e+01
  -3.633730e+00   1.111497e+02
  -1.262057e+02   1.043796e+02
  -1.997436e+02  -2.553577e+01
  -1.215486e+02  -2.009928e+02
   8.698647e+01  -2.435730e+02
   2.663936e+02  -1.296838e+02
   2.584232e+02   8.740657e+01
   1.157179e+02   1.911954e+02
  -3.692127e+01   1.496511e+02
  -9.026534e+01   9.229315e+01
  -7.908952e+01   6.866656e+01
  -6.717028e+01   9.002774e+01
  -1.019997e+02   7.342909e+01
  -1.300061e+02  -1.912072e+01
  -1.301525e+02  -1.588245e+02
  -4.527396e+01  -2.405911e+02
   8.934713e+01  -1.901600e+02
   1.863412e+02  -3.280478e+01
   1.571048e+02   1.248492e+02
   2.055047e+01   1.778540e+02
  -6.620214e+01   1.007174e+02
  -5.748484e+01   6.804830e+00
  -7.713329e+00  -3.975376e+01
   6.516246e+00  -3.388622e+01
  -3.905055e+01  -1.759519e+01
  -8.244581e+01  -2.609094e+01
  -4.531843e+01  -3.906921e+01
   6.436917e+01  -3.788940e+01
   1.599411e+02  -1.470199e+01
   1.412001e+02   4.278568e+01
   3.067097e+01   8.712548e+01
  -1.262458e+02   7.899173e+01
  -1.485346e+02   2.056822e+01
  -4.985458e+01  -4.058258e+01
   6.041500e+01  -3.314075e+01
   7.485942e+01   1.541667e+01
   4.715410e+00   6.662532e+01
  -5.329279e+01   6.117114e+01
  -6.330092e+01  -1.092330e+00
  -4.290366e+01  -4.954724e+01
  -4.158106e+01  -4.097458e+01
  -6.523123e+01  -3.956177e+00
  -6.615815e+01   3.297052e+00
  -3.653502e+01  -6.460720e+01
   3.693423e+01  -1.404236e+02
   1.177480e+02  -1.429806e+02
   1.765602e+02  -3.461684e+01
   1.292656e+02   8.361703e+01
   7.609001e+00   1.276523e+02
  -8.481667e+01   6.579099e+01
  -6.221973e+01  -1.579125e+01
   6.175519e+01  -2.371237e+01
   1.455525e+02   4.292655e+01
   8.153745e+01   1.051229e+02
  -7.903109e+01   1.289903e+02
  -1.993277e+02   5.950053e+01
  -1.791164e+02  -2.462752e+01
  -3.999440e+01  -9.404340e+01
   5.795530e+01  -7.628391e+01
   5.546014e+01  -1.151927e+01
  -4.034955e+01   2.635746e+01
  -9.794795e+01  -1.576422e+01
  -3.044551e+01  -1.188441e+02
   8.450922e+01  -1.575766e+02
   1.661265e+02  -6.105265e+01
   1.391504e+02   9.360279e+01
   1.352094e+01   1.988328e+02
  -8.664078e+01   1.610404e+02
  -1.112264e+02  -2.799600e+00
  -7.399147e+01  -1.155267e+02
  -2.605753e+00  -1.070722e+02
   4.367664e+01  -2.411768e+01
   5.342218e+01   2.999758e+01
   2.943837e+01   8.705327e+00
   3.236750e+00  -2.317740e+01
   2.023968e+01   1.305662e+01
   5.497619e+01   8.382627e+01
   4.925597e+01   1.179787e+02
  -4.211522e+01   5.011355e+01
  -1.481038e+02  -4.383202e+01
  -1.356450e+02  -7.195371e+01
  -1.779860e+01  -5.005834e+01
   9.135043e+01  -2.274474e+01
   8.947635e+01  -1.027922e+01
   9.146345e+00   3.994679e+00
  -4.248499e+01   2.598365e+01
  -9.938266e+00   2.049256e+01
   2.260586e+01  -1.790151e+00
  -6.088482e+00  -1.092910e+01
  -7.389332e+01  -2.361460e+00
  -9.077135e+01  -2.486858e+01
  -1.263972e+01  -8.393188e+01
   1.306220e+02  -1.064446e+02
   1.861345e+02  -7.021408e+01
   1.410042e+02   6.426803e+01
   2.350125e+01   1.622518e+02
  -7.468824e+01   1.480469e+02
  -1.035747e+02   5.381753e+01
  -8.397171e+01  -2.005958e+01
  -2.996206e+01  -3.372799e+01
   4.224424e+00  -7.980325e+00
  -8.864789e+00  -3.240317e+00
  -3.413836e+01  -4.581271e+01
  -2.412093e+01  -9.133302e+01
   2.827971e+01  -7.410744e+01
   8.335117e+01   2.081878e+01
   8.461247e+01   1.173771e+02
  -2.702734e+00   1.170021e+02
  -7.934996e+01   2.895846e+01
  -1.121251e+02  -8.252168e+01
  -3.412880e+01  -1.096919e+02
   6.697580e+01  -5.348988e+01
   1.000788e+02   9.144597e+00
   3.813512e+01   4.899232e+01
  -3.273689e+01   5.169967e+01
  -2.945581e+01   2.775906e+01
   3.677440e+01  -1.790907e+00
   6.989399e+01  -9.708360e-01
   1.317360e+01   2.289003e+01
  -8.733096e+01   6.956975e+01
  -1.074802e+02   7.290727e+01
  -6.078148e+01  -1.044739e+01
   1.568798e+01  -8.496807e+01
   5.196141e+01  -8.775351e+01
   3.485596e+01  -6.364635e+00
   2.084133e+00   6.000315e+01
  -2.630668e+01   4.011728e+01
  -3.713110e+01  -1.887675e+01
  -2.889326e+01  -5.267984e+01
   2.039188e+00  -3.141266e+01
   3.452915e+01   8.389047e+00
   3.956469e+01   2.313920e+01
   2.242600e+01  -9.396415e-01
  -8.003390e-01  -1.174258e+01
  -9.089405e+00   8.365605e+00
  -9.302683e+00   3.580507e+01
  -2.104773e+01   4.681588e+01
  -3.246314e+01  -2.962085e+00
  -2.691913e+01  -4.507123e+01
   7.667494e+00  -6.238876e+01
   4.762556e+01  -2.124865e+01
   5.116667e+01   4.299395e+01
   1.500301e+01   6.542846e+01
  -5.320212e+01   3.513617e+01
  -9.541486e+01  -1.242507e+01
  -4.721794e+01  -4.466076e+01
   3.020629e+01  -3.965584e+01
   6.393408e+01  -1.499513e+01
   2.183264e+01  -5.594097e+00
  -3.943551e+01  -4.939480e+00
  -3.999042e+01  -1.779945e+01
   3.265786e+01  -3.404882e+01
   9.471231e+01  -2.159218e+01
