
 $NMID
 id='ANONYMOUS ', fmtdat='(2E16.6)'
 volume=1.0
 tramp=1.0
 $END
   4.401578e+03   5.906517e+02
   2.077979e+03   2.782324e+03
  -8.554619e+02   2.654559e+03
  -1.994150e+03   5.521134e+02
  -8.291594e+02  -6.202820e+02
   6.932178e+02  -6.820852e+02
   8.590730e+02   6.130910e+02
  -1.957954e+02   1.099033e+03
  -9.839930e+02   6.149779e+02
  -8.917510e+02  -5.499473e+01
  -3.971167e+02  -9.961113e+02
   3.358897e+02  -9.497422e+02
   6.203050e+02   1.304010e+01
   3.123639e+02   7.581066e+02
  -3.370155e+02   7.860160e+02
  -5.706488e+02  -2.833377e+01
  -2.331272e+02  -6.975728e+02
   4.334903e+02  -5.536316e+02
   5.403411e+02  -3.553743e+01
   3.496950e+02   3.731823e+02
  -3.632203e+01   4.071878e+02
  -2.602150e+02   2.379348e+02
  -1.985586e+02   7.660187e+00
   1.429789e+02  -1.255354e+02
   4.155486e+02   1.210832e+02
   1.990705e+02   4.834554e+02
  -4.948816e+02   4.315787e+02
  -8.539906e+02  -1.694855e+02
  -4.727993e+02  -6.282061e+02
   5.116420e+02  -4.227371e+02
   8.349831e+02   1.606072e+02
   3.604266e+02   5.313790e+02
  -3.824682e+02   4.700816e+02
  -5.949358e+02   2.071495e+02
  -4.423446e+02  -2.882227e+02
  -3.821294e+00  -4.774700e+02
   2.320981e+02  -2.464796e+02
   1.557789e+02   2.899585e+02
  -1.827727e+02   4.306005e+02
  -5.027899e+02  -7.113902e+01
  -2.212431e+02  -7.863092e+02
   4.298338e+02  -7.215485e+02
   5.686923e+02   1.051728e+01
   2.166368e+02   5.993776e+02
  -2.997404e+02   3.203449e+02
  -3.620923e+02  -3.410921e+02
   9.137318e+01  -5.184047e+02
   6.243988e+02  -1.166843e+02
   5.750530e+02   4.374292e+02
   1.485224e+02   5.822027e+02
  -4.050643e+02   3.723230e+02
  -6.127643e+02  -7.999351e+01
  -3.406321e+02  -3.935836e+02
   2.040222e+02  -3.933693e+02
   4.560521e+02  -4.178616e+01
   2.387459e+02   2.239157e+02
  -1.359302e+02   8.450213e+01
  -1.526250e+02  -1.547683e+02
   2.307364e+02  -1.755792e+02
   3.293255e+02   1.190860e+02
   1.135731e+02   3.089268e+02
  -2.408264e+02   2.478727e+02
  -3.179697e+02   2.930040e+01
  -2.064296e+02  -8.714925e+01
   1.794878e+01  -2.190339e+02
   2.113063e+02  -3.422664e+02
   3.583022e+02  -1.878760e+02
   2.856427e+02   1.538820e+02
   4.265673e+01   4.555295e+02
  -1.565627e+02   3.413748e+02
  -1.213366e+02   1.029827e+02
  -2.629588e+01  -2.681244e+01
  -2.524364e+01   9.858023e+01
  -2.083377e+02   1.473441e+02
  -2.825806e+02  -7.135131e+01
  -1.725831e+02  -2.938063e+02
   8.140355e+01  -2.658659e+02
   2.342709e+02  -1.394868e+01
   2.217928e+02   2.502252e+02
  -3.814458e+01   2.966358e+02
  -2.907208e+02   1.360916e+02
  -3.725962e+02  -1.842105e+02
  -1.708419e+02  -3.671171e+02
   1.373934e+02  -3.022883e+02
   2.488274e+02  -8.121487e+01
   1.419379e+02  -5.381279e+00
   1.018103e+02  -2.900158e+01
   2.322413e+02  -7.100827e+01
   3.776554e+02   8.162706e+01
   3.319434e+02   3.116612e+02
  -2.410815e+01   4.856723e+02
  -3.336150e+02   4.186110e+02
  -5.126002e+02   2.160726e+02
  -3.482479e+02  -1.053095e+02
  -5.896564e+01  -3.198202e+02
   1.538521e+02  -2.618113e+02
   9.663101e+01  -1.532399e+01
  -1.280924e+02   1.221258e+02
  -2.124608e+02  -9.377350e+00
  -5.415658e+01  -2.025868e+02
   1.850310e+02  -1.627932e+02
   1.763609e+02   8.663640e+01
  -3.215087e+01   1.955163e+02
  -2.115829e+02   1.745546e+01
  -1.587729e+02  -2.590943e+02
   5.234348e+01  -3.704825e+02
   2.556736e+02  -1.823875e+02
   3.395719e+02   6.492747e+01
   2.502043e+02   2.592753e+02
   8.497866e+01   2.644808e+02
  -1.106226e+02   1.619016e+02
  -1.877332e+02   1.831523e+01
  -5.595159e+01  -3.692561e+01
   6.724952e+01   4.392874e+01
   2.810072e+01   1.265843e+02
  -1.218352e+02   1.038611e+02
  -1.824261e+02  -3.953168e+01
  -6.552223e+01  -7.319591e+01
   8.102838e+01  -1.336269e+01
   5.416226e+01   7.392281e+01
  -1.258605e+02   7.497103e+01
  -2.784147e+02   1.084686e-01
  -2.937596e+02  -1.521246e+02
  -2.867323e+01  -2.606250e+02
   2.010276e+02  -2.539624e+02
   2.857226e+02  -1.241588e+02
   1.647631e+02   5.712565e+01
  -3.232187e+01   1.158555e+02
  -9.957750e+01   4.204880e+00
   4.844571e+01  -1.029311e+02
   2.059185e+02  -5.841345e+01
   2.139203e+02   1.076071e+02
   8.556269e+01   2.133589e+02
  -1.037011e+02   1.730159e+02
  -1.529888e+02   2.659524e+01
  -7.326658e+01  -4.860620e+01
   2.925500e+01  -2.907312e+00
   4.246593e+01   8.275785e+01
  -6.749454e+01   1.138379e+02
  -2.022747e+02   2.555240e+01
  -1.938617e+02  -1.353236e+02
  -1.315713e+01  -2.232088e+02
   1.640995e+02  -1.606937e+02
   1.922421e+02  -3.716638e+00
   6.505917e+01   1.225939e+02
  -7.217957e+01   1.077670e+02
  -9.141072e+01   1.845804e+01
  -1.969800e+01  -3.135785e+01
   2.254592e+01  -2.510309e+01
  -9.911897e+00   7.458737e+00
  -7.185343e+01  -1.428741e+01
  -8.529434e+01  -8.897194e+01
  -1.792654e+01  -1.583320e+02
   1.274670e+02  -1.546575e+02
   2.234508e+02  -3.999180e+01
   2.006583e+02   1.608888e+02
   4.897357e+01   2.117433e+02
  -1.202212e+02   1.700654e+02
  -1.329019e+02   2.135898e+01
  -6.353976e+01  -6.043418e+01
  -2.370706e+01  -3.694347e+01
  -5.324382e+01   1.037535e+01
  -8.250504e+01   5.030308e+00
  -3.956826e+01  -4.587837e+01
   4.374909e+01  -8.201785e+01
   1.012082e+02  -5.239042e+01
   8.846382e+01   1.999968e+01
  -1.246002e+01   1.188143e+02
  -1.374082e+02   8.907046e+01
  -1.947377e+02  -4.077321e+01
  -1.027784e+02  -2.027730e+02
   1.093490e+02  -2.188821e+02
   2.763279e+02  -1.014687e+02
   2.593088e+02   9.894326e+01
   9.883217e+01   1.951398e+02
  -5.038080e+01   1.466451e+02
  -9.649093e+01   7.667457e+01
  -8.598331e+01   6.319423e+01
  -7.162186e+01   8.925333e+01
  -9.218640e+01   7.516907e+01
  -1.310465e+02  -3.266099e+01
  -1.215999e+02  -1.582534e+02
  -3.077994e+01  -2.251482e+02
   1.081736e+02  -1.835423e+02
   1.871845e+02  -1.938026e+01
   1.441006e+02   1.135375e+02
   2.142490e+01   1.677106e+02
  -6.579284e+01   9.259476e+01
  -5.948561e+01   3.165654e+00
  -4.029656e+00  -4.344105e+01
   1.435926e+01  -3.409168e+01
  -3.306255e+01  -2.425991e+01
  -7.582234e+01  -2.162133e+01
  -4.264301e+01  -4.178054e+01
   6.656317e+01  -3.097127e+01
   1.635590e+02  -9.830231e+00
   1.491910e+02   5.880806e+01
   1.664601e+01   9.299617e+01
  -1.282935e+02   8.184087e+01
  -1.476088e+02   1.507944e+01
  -4.890748e+01  -4.677286e+01
   6.479845e+01  -3.174089e+01
   7.635207e+01   2.086367e+01
   2.094107e+00   6.764719e+01
  -5.460382e+01   5.964659e+01
  -6.144870e+01  -6.727211e+00
  -3.705937e+01  -5.181615e+01
  -3.982253e+01  -4.163932e+01
  -6.258371e+01  -7.199756e+00
  -6.250384e+01   1.188642e+00
  -3.785915e+01  -6.375606e+01
   3.740155e+01  -1.478998e+02
   1.253259e+02  -1.386001e+02
   1.726884e+02  -3.132294e+01
   1.232740e+02   9.610256e+01
   1.034447e+00   1.225302e+02
  -8.386856e+01   6.157078e+01
  -6.110416e+01  -2.040849e+01
   6.040678e+01  -1.854189e+01
   1.251817e+02   4.865848e+01
   7.570905e+01   1.120660e+02
  -8.789210e+01   1.099395e+02
  -1.928431e+02   6.062521e+01
  -1.621543e+02  -2.142250e+01
  -4.075177e+01  -8.874371e+01
   5.735994e+01  -7.259461e+01
   5.651732e+01  -8.300037e+00
  -4.137120e+01   2.212050e+01
  -9.135084e+01  -2.374180e+01
  -2.991507e+01  -1.208943e+02
   1.065879e+02  -1.507456e+02
   1.649487e+02  -5.035711e+01
   1.256086e+02   8.987398e+01
   7.266099e+00   1.863854e+02
  -9.767289e+01   1.481424e+02
  -1.054508e+02  -1.513883e+01
  -6.542708e+01  -1.163371e+02
   9.887636e+00  -1.088620e+02
   4.441078e+01  -2.151776e+01
   5.011566e+01   3.018147e+01
   2.600451e+01   9.700779e+00
   5.811713e+00  -2.064905e+01
   2.058793e+01   1.557055e+01
   5.095997e+01   9.053426e+01
   4.524976e+01   1.142508e+02
  -4.300855e+01   4.408198e+01
  -1.442295e+02  -4.579767e+01
  -1.239270e+02  -8.035017e+01
  -1.445321e+01  -4.869148e+01
   8.579967e+01  -2.122402e+01
   8.525228e+01  -1.044300e+01
   9.554176e+00   5.738166e+00
  -4.033713e+01   2.066462e+01
  -1.289765e+01   1.869645e+01
   2.328555e+01  -2.308783e-02
  -4.789400e+00  -1.024776e+01
  -7.273452e+01  -1.817274e+01
  -9.101263e+01  -3.183570e+01
  -3.371542e+00  -8.099750e+01
   1.217166e+02  -9.616432e+01
   1.757290e+02  -5.747339e+01
   1.352471e+02   6.872805e+01
   1.228589e+01   1.552991e+02
  -8.597282e+01   1.560355e+02
  -1.103684e+02   4.736045e+01
  -8.281676e+01  -2.158508e+01
  -2.788346e+01  -3.560920e+01
   2.057941e+00  -8.342533e+00
  -1.050503e+01  -3.803163e+00
  -3.285090e+01  -4.785746e+01
  -1.736588e+01  -9.282097e+01
   3.066884e+01  -7.294090e+01
   8.392367e+01   2.905804e+01
   7.808141e+01   1.132116e+02
   4.530724e+00   1.158707e+02
  -8.335346e+01   1.793171e+01
  -9.979692e+01  -7.862080e+01
  -3.336981e+01  -1.009797e+02
   7.072983e+01  -4.945654e+01
   8.994315e+01   1.151985e+01
   3.943472e+01   5.456845e+01
  -3.256387e+01   5.267377e+01
  -3.157768e+01   2.637661e+01
   3.406568e+01   3.837268e-01
   6.567987e+01  -2.870771e+00
   1.235648e+01   2.671299e+01
  -8.495712e+01   6.553874e+01
  -1.174050e+02   5.634510e+01
  -6.272829e+01  -1.399619e+01
   1.954899e+01  -8.489944e+01
   5.737225e+01  -8.143005e+01
   3.384273e+01  -3.948559e+00
   3.634178e+00   5.916803e+01
  -2.807169e+01   4.114292e+01
  -3.683248e+01  -1.946729e+01
  -2.469502e+01  -5.297090e+01
   1.373233e+00  -2.985880e+01
   3.275121e+01   1.098419e+01
   3.859830e+01   2.221102e+01
   2.146380e+01   1.736483e+00
  -1.376816e+00  -1.241225e+01
  -9.370765e+00   5.400336e+00
  -8.766192e+00   3.238666e+01
  -2.049594e+01   4.373240e+01
  -2.799507e+01   3.508703e+00
  -2.553210e+01  -4.501816e+01
   9.520147e+00  -6.003590e+01
   4.377852e+01  -1.811870e+01
   5.007702e+01   3.944123e+01
   1.624952e+01   6.467307e+01
  -5.292533e+01   2.967059e+01
  -8.956843e+01  -2.015931e+01
  -4.365640e+01  -4.781549e+01
   2.799249e+01  -3.708546e+01
   6.112007e+01  -1.584700e+01
   2.250652e+01  -4.649101e+00
  -3.652239e+01  -7.458573e+00
  -3.592450e+01  -1.768555e+01
   3.547468e+01  -3.074663e+01
   9.467385e+01  -1.532957e+01
