
 $NMID
 id='ANONYMOUS ', fmtdat='(2E16.6)'
 volume=1.0
 tramp=1.0
 $END
   4.363819e+03   5.011799e+02
   2.335217e+03   2.788897e+03
  -7.308998e+02   2.944290e+03
  -1.813671e+03   9.120414e+02
  -9.302119e+02  -8.022752e+02
   5.946019e+02  -5.428563e+02
   7.507040e+02   4.340909e+02
  -1.119675e+02   9.331309e+02
  -9.275006e+02   6.308688e+02
  -9.427339e+02  -1.414377e+02
  -4.058985e+02  -8.911521e+02
   2.596910e+02  -8.804417e+02
   5.653068e+02  -2.896149e+01
   3.486378e+02   6.958841e+02
  -3.264642e+02   7.365595e+02
  -5.560140e+02  -4.449870e+01
  -3.153576e+02  -6.566787e+02
   3.563084e+02  -5.974345e+02
   5.818720e+02  -5.303905e+01
   4.017653e+02   3.654864e+02
   1.625195e+01   4.118891e+02
  -2.394650e+02   2.742405e+02
  -2.244666e+02   1.761515e+01
   1.708334e+02  -7.714360e+01
   4.219905e+02   1.406201e+02
   1.560206e+02   4.636395e+02
  -5.347517e+02   3.611711e+02
  -8.112027e+02  -1.570367e+02
  -3.634571e+02  -6.132368e+02
   4.284510e+02  -4.796822e+02
   7.774476e+02   1.180030e+02
   2.687736e+02   5.400835e+02
  -3.427859e+02   5.245317e+02
  -6.128227e+02   1.448555e+02
  -4.218587e+02  -2.529549e+02
  -4.672877e+01  -4.673763e+02
   1.771564e+02  -2.398253e+02
   1.113473e+02   2.450264e+02
  -1.909855e+02   4.387559e+02
  -4.482088e+02  -1.074065e+02
  -9.534885e+01  -7.260276e+02
   4.964880e+02  -6.675001e+02
   5.849932e+02   4.605207e+01
   2.351420e+02   5.837482e+02
  -3.193630e+02   3.270494e+02
  -3.962384e+02  -3.804026e+02
   1.003766e+02  -5.515938e+02
   6.202590e+02  -8.635352e+01
   6.056239e+02   4.271575e+02
   1.436206e+02   5.999247e+02
  -4.638069e+02   3.016713e+02
  -6.533860e+02  -6.715764e+01
  -3.441055e+02  -3.699579e+02
   1.856360e+02  -3.514906e+02
   4.013536e+02  -2.756719e+01
   2.410654e+02   2.150327e+02
  -1.343778e+02   8.866056e+01
  -1.348687e+02  -1.582504e+02
   1.796414e+02  -1.510049e+02
   3.408047e+02   1.071794e+02
   1.312398e+02   3.295930e+02
  -2.037228e+02   2.605099e+02
  -3.457731e+02   7.316241e+01
  -2.083186e+02  -9.375501e+01
   3.546062e+00  -2.527824e+02
   2.710385e+02  -3.269270e+02
   3.540595e+02  -2.484856e+02
   2.748407e+02   1.455982e+02
   8.329579e+01   4.684459e+02
  -1.346349e+02   3.615287e+02
  -1.287795e+02   1.196327e+02
  -1.886501e+01   3.147158e+00
  -5.587891e+01   1.165217e+02
  -2.111107e+02   1.333036e+02
  -3.026034e+02  -7.483232e+01
  -1.359966e+02  -2.967780e+02
   1.098411e+02  -2.374099e+02
   2.478836e+02   1.614858e+01
   1.862290e+02   2.813498e+02
  -1.492364e+01   3.216449e+02
  -2.918532e+02   8.687211e+01
  -3.992310e+02  -1.810644e+02
  -1.377995e+02  -3.593456e+02
   1.119200e+02  -3.361434e+02
   2.384111e+02  -1.291693e+02
   1.385734e+02   2.235899e+00
   1.076928e+02  -3.936257e+01
   2.620177e+02  -7.867400e+01
   4.095326e+02   7.843739e+01
   3.412338e+02   3.177324e+02
  -3.200914e+01   4.622141e+02
  -4.264333e+02   4.356821e+02
  -5.255157e+02   2.043536e+02
  -3.593482e+02  -1.190171e+02
  -3.920657e+01  -3.110577e+02
   1.494536e+02  -2.671564e+02
   7.914207e+01  -1.310065e+01
  -1.229072e+02   7.711561e+01
  -1.982552e+02  -1.874462e+01
  -5.042771e+01  -2.151257e+02
   1.695893e+02  -1.690025e+02
   1.763724e+02   8.220233e+01
  -2.879436e+01   1.999606e+02
  -2.065988e+02   2.361456e+01
  -1.481143e+02  -2.702467e+02
   4.822304e+01  -3.557621e+02
   2.312130e+02  -2.176157e+02
   3.450104e+02   6.870522e+01
   3.085983e+02   2.662226e+02
   7.591269e+01   2.766033e+02
  -1.348474e+02   1.661887e+02
  -1.997962e+02   9.568511e+00
  -6.386427e+01  -3.441686e+01
   7.821594e+01   4.026615e+01
   2.140523e+01   1.382015e+02
  -1.371809e+02   9.768874e+01
  -1.849689e+02  -3.045431e+01
  -5.292244e+01  -7.806218e+01
   9.029055e+01  -1.547737e+01
   5.313018e+01   8.272461e+01
  -1.275331e+02   9.604207e+01
  -2.989607e+02  -2.630689e+01
  -2.771394e+02  -1.442918e+02
  -6.470200e+01  -2.736295e+02
   2.068636e+02  -2.636685e+02
   3.101085e+02  -1.133715e+02
   1.787970e+02   6.266737e+01
  -2.428031e+01   1.132735e+02
  -1.010348e+02   4.971246e+00
   3.948347e+01  -1.096367e+02
   2.183523e+02  -5.945666e+01
   2.297274e+02   1.203095e+02
   5.152823e+01   2.215908e+02
  -1.022744e+02   1.706688e+02
  -1.489943e+02   1.055679e+01
  -7.491115e+01  -4.549735e+01
   2.837294e+01   4.717467e-01
   4.760338e+01   1.013730e+02
  -8.251834e+01   1.128121e+02
  -2.120038e+02   1.726940e+01
  -2.010441e+02  -1.292642e+02
  -9.379343e+00  -2.312807e+02
   1.824284e+02  -1.698998e+02
   2.037397e+02  -4.692442e+00
   5.412124e+01   1.320114e+02
  -6.629426e+01   1.116976e+02
  -8.363116e+01   3.190237e+01
  -1.792365e+01  -2.676251e+01
   2.893700e+01  -2.038577e+01
  -1.008070e+01   8.431419e+00
  -7.602136e+01  -1.089476e+01
  -8.411787e+01  -8.410729e+01
  -8.120092e+00  -1.718180e+02
   1.276837e+02  -1.641894e+02
   2.462730e+02  -2.036682e+01
   2.089073e+02   1.525372e+02
   4.063484e+01   2.396394e+02
  -9.929827e+01   1.782373e+02
  -1.392543e+02   2.873011e+01
  -7.720742e+01  -4.997567e+01
  -2.490540e+01  -3.822879e+01
  -5.731070e+01   1.389055e+01
  -8.124689e+01   8.627722e+00
  -4.419999e+01  -5.357125e+01
   4.287965e+01  -9.293260e+01
   1.095847e+02  -5.746334e+01
   8.933471e+01   3.716184e+01
  -1.405068e+01   1.134391e+02
  -1.514308e+02   9.126306e+01
  -1.980396e+02  -7.170693e+01
  -9.743435e+01  -2.189248e+02
   1.124912e+02  -2.246984e+02
   2.854884e+02  -8.475644e+01
   2.604038e+02   9.466541e+01
   1.055995e+02   1.848542e+02
  -4.239318e+01   1.579812e+02
  -1.058716e+02   7.852838e+01
  -8.391436e+01   6.586157e+01
  -7.504372e+01   9.077255e+01
  -9.877767e+01   7.730408e+01
  -1.252729e+02  -2.674397e+01
  -1.201044e+02  -1.625107e+02
  -8.970107e+00  -2.299510e+02
   1.180218e+02  -1.659507e+02
   1.874390e+02  -1.226667e+01
   1.424606e+02   1.415009e+02
   1.434418e+01   1.751389e+02
  -6.713566e+01   9.789320e+01
  -6.366142e+01  -5.087301e+00
  -2.843249e+00  -4.508952e+01
   9.654540e+00  -3.639083e+01
  -3.456420e+01  -2.069198e+01
  -8.071470e+01  -1.777065e+01
  -4.874351e+01  -3.898758e+01
   6.947544e+01  -4.204629e+01
   1.759788e+02   4.126543e-01
   1.508961e+02   5.635539e+01
   1.370180e+01   1.034435e+02
  -1.293597e+02   7.691609e+01
  -1.555016e+02   3.137744e+00
  -5.154315e+01  -4.312031e+01
   5.914631e+01  -3.861726e+01
   7.686079e+01   2.030963e+01
   1.041357e+01   7.138892e+01
  -6.244047e+01   5.488860e+01
  -6.335241e+01  -1.724109e+00
  -4.717683e+01  -4.982695e+01
  -4.393504e+01  -3.838559e+01
  -6.317718e+01  -2.081717e+00
  -6.559036e+01  -6.486987e-01
  -3.650002e+01  -6.996878e+01
   1.993485e+01  -1.398533e+02
   1.301069e+02  -1.421360e+02
   1.766370e+02  -4.614121e+01
   1.206601e+02   1.033114e+02
   1.552177e+01   1.362418e+02
  -9.297514e+01   5.615202e+01
  -6.060195e+01  -1.270929e+01
   6.269692e+01  -1.905250e+01
   1.428535e+02   5.267521e+01
   7.018494e+01   1.020654e+02
  -9.473922e+01   1.112738e+02
  -1.919527e+02   5.360723e+01
  -1.748145e+02  -4.913165e+01
  -3.919657e+01  -9.465101e+01
   7.461745e+01  -7.129421e+01
   5.477568e+01  -6.180624e+00
  -3.842679e+01   2.723547e+01
  -9.177845e+01  -3.000299e+01
  -3.395622e+01  -1.241810e+02
   1.051940e+02  -1.586701e+02
   1.579853e+02  -5.693515e+01
   1.301795e+02   1.114568e+02
   4.788911e+00   2.040679e+02
  -8.774710e+01   1.480563e+02
  -1.100728e+02  -6.446755e+00
  -5.412960e+01  -1.308281e+02
   4.261761e+00  -1.031665e+02
   4.924858e+01  -2.034019e+01
   5.526324e+01   2.952514e+01
   2.692136e+01   1.284970e+01
   4.978061e+00  -2.200760e+01
   2.304607e+01   1.534633e+01
   5.423642e+01   8.474884e+01
   4.109788e+01   1.148706e+02
  -5.324036e+01   5.065510e+01
  -1.514373e+02  -4.011429e+01
  -1.329970e+02  -7.294207e+01
  -2.127210e+01  -5.348959e+01
   8.744005e+01  -1.824810e+01
   9.124099e+01  -8.249015e+00
   1.412735e+01   7.059069e+00
  -4.012574e+01   2.472692e+01
  -1.748090e+01   1.749329e+01
   2.149937e+01  -1.553548e+00
  -4.117815e+00  -9.719234e+00
  -7.460619e+01  -3.763435e+00
  -9.403052e+01  -2.232544e+01
  -9.576025e+00  -7.936328e+01
   1.082834e+02  -1.166840e+02
   1.914995e+02  -4.819792e+01
   1.400443e+02   7.162724e+01
   3.021675e+01   1.708956e+02
  -8.166689e+01   1.519727e+02
  -1.135005e+02   5.436492e+01
  -8.330007e+01  -2.719302e+01
  -2.264143e+01  -3.859166e+01
   3.275807e+00  -8.382914e+00
  -1.067956e+01  -4.363600e+00
  -3.655410e+01  -4.340847e+01
  -2.783026e+01  -8.859004e+01
   3.415981e+01  -7.828555e+01
   7.803084e+01   1.815268e+01
   8.108335e+01   1.163449e+02
   9.839112e+00   1.127543e+02
  -8.759509e+01   1.460442e+01
  -1.093500e+02  -7.449432e+01
  -2.678820e+01  -1.063045e+02
   7.055329e+01  -5.943090e+01
   1.035838e+02   9.111410e+00
   4.293228e+01   5.291891e+01
  -3.686301e+01   5.155996e+01
  -3.419983e+01   2.778186e+01
   3.342308e+01   2.288753e+00
   7.157440e+01  -1.050226e+01
   1.528831e+01   2.316378e+01
  -7.842701e+01   6.983235e+01
  -1.189528e+02   4.616675e+01
  -6.908609e+01  -1.409778e+01
   1.645814e+01  -8.449550e+01
   5.715421e+01  -8.280481e+01
   3.765218e+01  -3.647608e+00
   1.009499e+00   5.875367e+01
  -2.383066e+01   4.149602e+01
  -3.693823e+01  -2.141379e+01
  -2.224858e+01  -5.661285e+01
   8.147341e-01  -3.630170e+01
   3.510199e+01   9.026869e+00
   4.197881e+01   1.910866e+01
   2.154879e+01   2.245851e+00
  -8.691029e-01  -1.454612e+01
  -1.183166e+01   3.114850e+00
  -6.848904e+00   3.535124e+01
  -1.492662e+01   4.549106e+01
  -2.795198e+01   8.585328e+00
  -2.620269e+01  -4.511686e+01
   2.285491e-01  -6.080083e+01
   4.277930e+01  -1.939600e+01
   5.813631e+01   3.743239e+01
   1.481837e+01   6.687993e+01
  -5.643497e+01   3.239882e+01
  -9.341408e+01  -1.584140e+01
  -4.912219e+01  -4.570212e+01
   2.484279e+01  -4.387503e+01
   6.624654e+01  -2.751948e+01
   2.449331e+01  -4.704915e+00
  -3.490064e+01  -1.799460e+00
  -3.620758e+01  -1.875546e+01
   3.067207e+01  -3.035827e+01
   9.284921e+01  -7.485923e+00
