
 $NMID
 id='ANONYMOUS ', fmtdat='(2E16.6)'
 volume=1.0
 tramp=1.0
 $END
  -4.733154e+03  -3.657025e+01
  -2.624811e+03  -2.891676e+03
   8.849123e+02  -3.097742e+03
   2.153597e+03  -8.150937e+02
   1.007846e+03   8.902639e+02
  -8.376119e+02   6.195036e+02
  -9.550776e+02  -5.531618e+02
   4.212033e+01  -1.217152e+03
   9.164676e+02  -7.523414e+02
   9.732771e+02   1.544177e+02
   3.915546e+02   9.445480e+02
  -2.910651e+02   9.309614e+02
  -6.738160e+02   5.244946e+01
  -4.748309e+02  -8.173071e+02
   3.518100e+02  -8.125755e+02
   5.797876e+02   1.305936e+01
   3.185796e+02   6.874281e+02
  -3.811845e+02   6.213326e+02
  -6.112813e+02   6.731368e+01
  -3.935148e+02  -4.146221e+02
   2.096433e+01  -3.972337e+02
   2.813830e+02  -2.392029e+02
   2.594279e+02  -1.559815e+01
  -1.329919e+02   1.331569e+02
  -4.458227e+02  -7.840002e+01
  -2.198209e+02  -4.545006e+02
   4.658849e+02  -4.932065e+02
   9.222293e+02   7.335023e+00
   4.487510e+02   6.211154e+02
  -3.791362e+02   5.509173e+02
  -7.940434e+02   9.721931e+00
  -3.647009e+02  -4.877085e+02
   2.281172e+02  -5.662573e+02
   5.790758e+02  -2.302227e+02
   4.592308e+02   2.242456e+02
   1.264190e+02   4.988163e+02
  -2.257978e+02   2.530728e+02
  -1.679447e+02  -2.595968e+02
   1.369797e+02  -4.895508e+02
   5.220279e+02   3.211594e+01
   2.895698e+02   7.262630e+02
  -3.559592e+02   7.374913e+02
  -5.904096e+02   2.567155e+01
  -3.335053e+02  -6.115697e+02
   3.310049e+02  -3.787713e+02
   4.580769e+02   3.178617e+02
  -7.217910e+01   6.210392e+02
  -6.207549e+02   1.529121e+02
  -5.712243e+02  -3.841141e+02
  -2.002137e+02  -6.286535e+02
   4.361759e+02  -3.658582e+02
   6.019760e+02   8.444428e+01
   3.567276e+02   4.112531e+02
  -1.604958e+02   4.056255e+02
  -4.656035e+02   3.956727e+01
  -2.363721e+02  -2.111446e+02
   1.454317e+02  -1.214775e+02
   1.580361e+02   1.825652e+02
  -1.965772e+02   2.212176e+02
  -3.547148e+02  -1.066646e+02
  -1.276399e+02  -3.186543e+02
   2.115759e+02  -2.616769e+02
   3.391799e+02  -9.525895e+01
   1.859359e+02   7.754285e+01
   3.292493e+00   1.964750e+02
  -2.085140e+02   3.244647e+02
  -3.370352e+02   2.577696e+02
  -2.886720e+02  -1.251487e+02
  -8.615589e+01  -4.517237e+02
   1.377877e+02  -3.795976e+02
   1.383885e+02  -1.017784e+02
   3.210988e+01   2.887372e+01
   2.022942e+01  -1.023964e+02
   1.557642e+02  -1.543950e+02
   2.873342e+02   4.210554e+01
   1.780057e+02   2.635667e+02
  -5.974989e+01   2.546849e+02
  -2.360453e+02   3.160816e+01
  -2.208010e+02  -2.403584e+02
  -2.775390e+01  -3.099232e+02
   2.840761e+02  -1.351703e+02
   3.938113e+02   1.783372e+02
   2.106132e+02   3.534155e+02
  -9.560925e+01   3.333099e+02
  -2.340639e+02   1.100518e+02
  -1.368488e+02  -1.742957e+01
  -8.313380e+01   3.456039e+01
  -2.376847e+02   7.947049e+01
  -3.679490e+02  -1.639151e+01
  -3.613121e+02  -2.641107e+02
  -1.962895e+01  -4.392864e+02
   3.485944e+02  -4.200730e+02
   4.905267e+02  -1.884418e+02
   3.677136e+02   6.384101e+01
   8.618790e+01   2.972918e+02
  -1.480488e+02   2.831754e+02
  -9.086506e+01   2.946037e+01
   1.239221e+02  -1.235596e+02
   2.136114e+02   1.389549e+01
   6.693331e+01   2.199515e+02
  -1.834432e+02   1.963779e+02
  -2.012673e+02  -6.160794e+01
   5.706907e+00  -2.135420e+02
   1.986631e+02  -4.022809e+01
   1.642394e+02   2.624637e+02
  -1.364568e+01   3.593347e+02
  -2.152380e+02   1.950249e+02
  -3.436786e+02  -4.850823e+01
  -2.896886e+02  -2.266226e+02
  -1.195827e+02  -2.629096e+02
   1.074251e+02  -1.684883e+02
   1.848038e+02  -2.207197e+01
   7.021300e+01   3.420976e+01
  -7.976325e+01  -3.076002e+01
  -4.254000e+01  -1.307190e+02
   1.290397e+02  -1.113850e+02
   1.774089e+02   6.204928e+00
   6.542646e+01   7.315258e+01
  -8.060502e+01   3.035548e+01
  -5.722095e+01  -6.083437e+01
   1.097180e+02  -9.593949e+01
   2.780193e+02   7.100406e+00
   2.757135e+02   1.272662e+02
   7.559648e+01   2.485877e+02
  -1.623346e+02   2.925923e+02
  -2.842851e+02   1.445093e+02
  -1.859082e+02  -4.787999e+01
   1.780798e+01  -1.231431e+02
   9.836609e+01  -1.221177e+01
  -2.691289e+01   1.140994e+02
  -1.975215e+02   7.549521e+01
  -2.359560e+02  -9.984290e+01
  -6.644030e+01  -2.031849e+02
   9.779488e+01  -1.626820e+02
   1.485187e+02  -2.888345e+01
   7.947130e+01   3.913311e+01
  -2.085727e+01   1.098057e+01
  -4.529708e+01  -7.601525e+01
   6.072639e+01  -1.024075e+02
   1.909556e+02  -4.299935e+01
   1.832474e+02   1.052957e+02
   3.362780e+01   2.303119e+02
  -1.486797e+02   1.634747e+02
  -2.017620e+02   1.043904e+01
  -5.756149e+01  -1.265645e+02
   6.420091e+01  -1.180403e+02
   8.710544e+01  -3.532846e+01
   2.549383e+01   2.232449e+01
  -1.948661e+01   2.456185e+01
   1.057378e+01  -6.627047e-01
   6.856735e+01   8.807943e+00
   8.137774e+01   7.067534e+01
   1.972562e+01   1.526912e+02
  -1.010098e+02   1.536723e+02
  -2.451821e+02   3.771832e+01
  -2.027206e+02  -1.262611e+02
  -4.149279e+01  -2.240787e+02
   1.007757e+02  -1.811784e+02
   1.381435e+02  -2.553869e+01
   6.809854e+01   5.357785e+01
   2.791844e+01   3.582154e+01
   5.415847e+01  -1.450506e+01
   7.670890e+01  -8.673378e+00
   3.701187e+01   4.555078e+01
  -4.111772e+01   8.668567e+01
  -9.140266e+01   5.692079e+01
  -7.684756e+01  -2.836700e+01
   1.547196e+00  -1.060190e+02
   1.284703e+02  -9.274198e+01
   1.891703e+02   3.839368e+01
   1.026664e+02   1.968381e+02
  -8.407975e+01   2.349217e+02
  -2.549605e+02   9.981017e+01
  -2.557106e+02  -6.134479e+01
  -1.171358e+02  -1.656781e+02
   2.847550e+01  -1.587210e+02
   8.914018e+01  -8.816008e+01
   7.866920e+01  -7.144495e+01
   6.527400e+01  -9.101915e+01
   9.317248e+01  -6.780085e+01
   1.214961e+02   1.688268e+01
   1.184698e+02   1.426789e+02
   3.152713e+01   2.117206e+02
  -8.924576e+01   1.749338e+02
  -1.693648e+02   2.364243e+01
  -1.336819e+02  -1.199135e+02
  -1.987959e+01  -1.502066e+02
   5.913135e+01  -8.886767e+01
   5.523347e+01  -7.498007e+00
   9.067965e+00   3.612462e+01
   1.537295e-01   3.479656e+01
   3.690779e+01   1.518941e+01
   6.928807e+01   2.085172e+01
   4.372168e+01   3.411872e+01
  -5.578937e+01   3.932438e+01
  -1.480965e+02   1.102572e+01
  -1.484451e+02  -4.704382e+01
  -2.682248e+01  -9.111379e+01
   1.150994e+02  -7.932668e+01
   1.428041e+02  -1.511625e+01
   5.356374e+01   3.375631e+01
  -5.424659e+01   4.008170e+01
  -7.439241e+01  -1.602960e+01
  -7.525047e+00  -6.782436e+01
   6.024098e+01  -5.689495e+01
   6.138261e+01  -8.439257e-01
   4.221783e+01   4.793309e+01
   4.277313e+01   3.614598e+01
   5.849788e+01  -3.877455e+00
   6.415108e+01   3.540566e+00
   3.017899e+01   6.186214e+01
  -2.368070e+01   1.536051e+02
  -1.031198e+02   1.448830e+02
  -1.551260e+02   3.430771e+01
  -1.267077e+02  -8.698984e+01
  -1.970214e+01  -1.178937e+02
   7.909179e+01  -5.398439e+01
   6.118870e+01   1.238525e+01
  -5.824335e+01   1.873064e+01
  -1.289422e+02  -4.521754e+01
  -7.759694e+01  -9.078739e+01
   7.570437e+01  -1.107727e+02
   1.825573e+02  -5.308034e+01
   1.493949e+02   3.514190e+01
   4.276553e+01   8.859574e+01
  -5.878493e+01   7.010017e+01
  -5.039039e+01   1.104431e+01
   3.637905e+01  -2.780498e+01
   8.921534e+01   2.409424e+01
   3.433058e+01   1.276391e+02
  -9.599882e+01   1.696617e+02
  -1.674677e+02   6.628901e+01
  -1.211649e+02  -1.052911e+02
  -1.168984e+01  -2.007115e+02
   7.656878e+01  -1.478273e+02
   1.036578e+02  -3.545805e+00
   6.021265e+01   1.159103e+02
   1.064912e+01   9.908140e+01
  -4.456569e+01   2.308507e+01
  -5.385641e+01  -2.541232e+01
  -2.978295e+01  -7.623799e+00
  -3.373528e+00   2.149075e+01
  -1.765360e+01  -1.106641e+01
  -5.989838e+01  -8.282851e+01
  -3.915419e+01  -1.082495e+02
   4.366165e+01  -4.926442e+01
   1.366403e+02   3.776415e+01
   1.343152e+02   6.016236e+01
   1.972027e+01   4.763086e+01
  -8.778275e+01   1.525582e+01
  -8.019697e+01   1.274424e+01
  -1.101657e+01  -4.020588e+00
   3.757799e+01  -2.304098e+01
   1.091196e+01  -1.977496e+01
  -2.510151e+01   2.273722e+00
   6.162172e+00   9.582573e+00
   7.831788e+01  -1.946438e+00
   8.796558e+01   2.023727e+01
   4.362351e+00   7.548573e+01
  -1.085514e+02   1.179634e+02
  -1.880460e+02   5.022719e+01
  -1.344283e+02  -6.508781e+01
  -3.326238e+01  -1.586088e+02
   6.933999e+01  -1.406585e+02
   1.100754e+02  -6.454604e+01
   8.083429e+01   2.543121e+01
   2.182655e+01   3.362907e+01
  -4.739434e+00   6.476791e+00
   7.703518e+00   1.725169e+00
   3.539313e+01   4.372218e+01
   2.748596e+01   8.954367e+01
  -2.733714e+01   7.348278e+01
  -8.040285e+01  -1.275769e+01
  -7.681484e+01  -1.075498e+02
   1.854319e+00  -1.047990e+02
   8.486330e+01  -1.978720e+01
   1.048371e+02   7.208358e+01
   2.973470e+01   9.900063e+01
  -6.504952e+01   5.750615e+01
  -9.006032e+01  -1.137194e+01
  -3.782242e+01  -4.451942e+01
   3.015020e+01  -4.447499e+01
   2.555733e+01  -2.840221e+01
  -3.755035e+01  -1.231587e+00
  -6.595392e+01   8.625285e+00
  -1.792529e+01  -2.207273e+01
   7.542597e+01  -5.818061e+01
   1.094570e+02  -5.717483e+01
   5.510568e+01   8.791407e+00
  -1.269343e+01   8.479951e+01
  -4.962565e+01   8.482731e+01
  -3.624271e+01   3.157403e+00
   2.104319e+00  -5.256808e+01
   2.106162e+01  -4.341271e+01
   3.447899e+01   2.052009e+01
   2.594480e+01   5.503231e+01
  -9.487673e-02   3.026438e+01
  -3.385707e+01  -8.991562e+00
  -3.769609e+01  -1.609805e+01
  -2.142317e+01   4.943233e-02
   6.154149e-01   1.125388e+01
   8.507764e+00  -6.306122e+00
   6.625791e+00  -3.392314e+01
   2.155323e+01  -4.099737e+01
   2.762882e+01  -2.358501e+00
   2.541934e+01   4.501898e+01
  -2.606602e+00   6.089810e+01
  -4.218280e+01   1.654490e+01
  -5.341387e+01  -3.674397e+01
  -9.261315e+00  -6.537764e+01
   4.819303e+01  -3.396935e+01
   9.413666e+01   1.374706e+01
   4.495110e+01   4.058064e+01
  -2.316778e+01   3.942824e+01
  -6.104910e+01   2.352220e+01
  -2.348250e+01   4.406645e+00
   4.017045e+01  -8.378463e-01
   3.937162e+01   1.633614e+01
  -2.984013e+01   3.378339e+01
  -8.711411e+01   1.250386e+01
