
 $NMID
 id='ANONYMOUS ', fmtdat='(2E16.6)'
 volume=1.0
 tramp=1.0
 $END
  -4.726684e+03  -2.349366e+02
  -2.638642e+03  -2.990254e+03
   7.845581e+02  -3.273195e+03
   2.103515e+03  -8.468168e+02
   9.845855e+02   8.119679e+02
  -7.043751e+02   5.722888e+02
  -9.782436e+02  -4.886896e+02
   5.400924e+01  -1.145949e+03
   9.397945e+02  -7.456145e+02
   1.015566e+03   9.748235e+01
   4.051217e+02   9.624388e+02
  -2.394381e+02   9.616289e+02
  -6.657959e+02   1.040953e+02
  -4.818692e+02  -7.492911e+02
   3.650446e+02  -8.121063e+02
   6.215472e+02   1.245146e+01
   2.909332e+02   7.039660e+02
  -3.544630e+02   6.303344e+02
  -6.226261e+02   5.543289e+01
  -3.892692e+02  -3.982167e+02
  -2.170941e+01  -3.880731e+02
   2.576732e+02  -2.447964e+02
   2.572314e+02  -9.857971e+00
  -1.472828e+02   8.020877e+01
  -4.501202e+02  -1.073627e+02
  -1.996518e+02  -4.252473e+02
   5.091641e+02  -4.395225e+02
   8.732424e+02  -1.116646e+01
   3.957142e+02   5.835238e+02
  -4.014126e+02   5.350233e+02
  -8.215082e+02  -6.752336e+01
  -3.618933e+02  -5.149752e+02
   2.565650e+02  -5.434114e+02
   5.801889e+02  -1.993480e+02
   4.514640e+02   2.456630e+02
   1.357889e+02   4.833562e+02
  -2.269348e+02   2.702489e+02
  -1.668330e+02  -2.368477e+02
   1.379029e+02  -5.143592e+02
   4.175647e+02   5.963954e+01
   2.018452e+02   7.574958e+02
  -4.211650e+02   7.155977e+02
  -6.115614e+02   2.560100e+01
  -3.315316e+02  -5.797909e+02
   3.277279e+02  -3.879274e+02
   4.361213e+02   3.527343e+02
  -4.474406e+01   5.728664e+02
  -6.514733e+02   1.441896e+02
  -5.923232e+02  -3.769902e+02
  -1.672840e+02  -6.126100e+02
   4.326495e+02  -3.551526e+02
   5.952621e+02   7.604975e+01
   3.380222e+02   4.036473e+02
  -1.968944e+02   3.899756e+02
  -4.383075e+02   2.258317e+01
  -2.389190e+02  -2.122279e+02
   1.235836e+02  -1.195730e+02
   1.794030e+02   1.692251e+02
  -1.962716e+02   2.107498e+02
  -3.570771e+02  -9.631477e+01
  -1.350013e+02  -3.264315e+02
   2.137603e+02  -2.645373e+02
   3.510215e+02  -8.207637e+01
   1.909142e+02   8.482050e+01
   3.714015e+00   2.128307e+02
  -2.260291e+02   3.321241e+02
  -3.488949e+02   2.415046e+02
  -2.888845e+02  -1.263500e+02
  -1.015966e+02  -4.841906e+02
   1.456064e+02  -4.063167e+02
   1.509127e+02  -1.322231e+02
   2.092652e+01   6.202812e+00
   2.778576e+01  -1.064488e+02
   1.798427e+02  -1.507532e+02
   2.868259e+02   3.336824e+01
   1.531836e+02   2.619732e+02
  -5.590966e+01   2.512070e+02
  -2.459481e+02   1.875602e+01
  -2.189433e+02  -2.656773e+02
  -7.115390e+00  -3.175486e+02
   2.815355e+02  -1.207781e+02
   3.883683e+02   1.796697e+02
   1.963603e+02   3.670578e+02
  -9.501223e+01   3.237393e+02
  -2.200056e+02   1.129197e+02
  -1.463561e+02  -1.544936e+01
  -9.273002e+01   3.134961e+01
  -2.437810e+02   8.813643e+01
  -3.866913e+02  -3.759332e+01
  -3.796289e+02  -2.940140e+02
  -8.509025e+00  -4.563625e+02
   3.673019e+02  -4.322675e+02
   4.845043e+02  -1.873697e+02
   3.672741e+02   8.598146e+01
   8.352207e+01   2.826384e+02
  -1.379202e+02   2.760906e+02
  -9.272375e+01   2.121922e+01
   1.123867e+02  -1.021966e+02
   1.951607e+02   1.804237e+01
   6.614820e+01   2.218573e+02
  -1.767899e+02   1.883636e+02
  -1.967705e+02  -7.596121e+01
   3.731324e+00  -2.105612e+02
   1.975855e+02  -3.949981e+01
   1.600517e+02   2.596148e+02
  -2.311665e+01   3.636053e+02
  -2.202702e+02   1.859065e+02
  -3.548783e+02  -5.697627e+01
  -2.917806e+02  -2.354629e+02
  -1.126436e+02  -2.708247e+02
   1.181135e+02  -1.664669e+02
   1.863678e+02  -2.069146e+01
   6.094808e+01   3.681703e+01
  -8.086566e+01  -3.951639e+01
  -4.023116e+01  -1.328634e+02
   1.310500e+02  -1.072390e+02
   1.801792e+02   1.584988e+01
   5.836117e+01   7.684226e+01
  -8.353372e+01   2.041699e+01
  -5.565507e+01  -6.840337e+01
   1.099885e+02  -9.349134e+01
   2.938886e+02   4.968111e+00
   2.761003e+02   1.351744e+02
   6.114991e+01   2.534571e+02
  -1.763654e+02   2.898582e+02
  -2.909404e+02   1.493032e+02
  -1.861571e+02  -5.364708e+01
   1.584754e+01  -1.266358e+02
   1.013197e+02  -1.115723e+01
  -2.698257e+01   1.090952e+02
  -2.050551e+02   6.619979e+01
  -2.391851e+02  -1.116765e+02
  -6.189436e+01  -2.087089e+02
   9.562216e+01  -1.604973e+02
   1.474548e+02  -2.596971e+01
   7.855211e+01   4.374226e+01
  -2.338756e+01   5.618085e+00
  -5.021911e+01  -7.683066e+01
   6.586852e+01  -1.019749e+02
   1.992381e+02  -2.604350e+01
   1.849383e+02   1.089890e+02
   2.573766e+01   2.313343e+02
  -1.666827e+02   1.636777e+02
  -2.064718e+02   1.211177e+01
  -6.045161e+01  -1.228509e+02
   7.124453e+01  -1.196604e+02
   9.195107e+01  -3.313861e+01
   2.278836e+01   2.507749e+01
  -2.499058e+01   2.157072e+01
   1.201745e+01  -1.355857e+00
   7.093621e+01   1.006768e+01
   8.262526e+01   7.516241e+01
   1.413802e+01   1.628681e+02
  -1.015866e+02   1.560763e+02
  -2.481475e+02   1.914922e+01
  -2.057373e+02  -1.387154e+02
  -4.761692e+01  -2.282617e+02
   1.143164e+02  -1.795166e+02
   1.400461e+02  -2.213669e+01
   6.720296e+01   5.700484e+01
   2.862884e+01   3.644767e+01
   5.635584e+01  -1.326749e+01
   8.097508e+01  -6.648825e+00
   3.689623e+01   4.980654e+01
  -4.546198e+01   8.888770e+01
  -1.004714e+02   5.563446e+01
  -8.277410e+01  -3.495203e+01
   9.881465e+00  -1.108080e+02
   1.381197e+02  -8.615772e+01
   1.949497e+02   4.678533e+01
   9.189603e+01   2.132258e+02
  -1.033026e+02   2.288851e+02
  -2.654512e+02   8.486260e+01
  -2.589204e+02  -6.672975e+01
  -1.132024e+02  -1.771572e+02
   3.430678e+01  -1.636476e+02
   1.002013e+02  -8.302548e+01
   7.521941e+01  -6.629379e+01
   6.840526e+01  -9.631732e+01
   9.416564e+01  -7.224417e+01
   1.211456e+02   1.857520e+01
   1.212293e+02   1.463989e+02
   2.011142e+01   2.281123e+02
  -9.988968e+01   1.742306e+02
  -1.811209e+02   2.445556e+01
  -1.312020e+02  -1.252417e+02
  -1.341937e+01  -1.553589e+02
   6.567099e+01  -9.432281e+01
   5.762442e+01  -3.326589e+00
   5.807126e+00   3.986122e+01
  -3.795654e+00   3.451513e+01
   3.601895e+01   1.670000e+01
   7.377269e+01   1.767846e+01
   4.561914e+01   3.533031e+01
  -5.750973e+01   3.871309e+01
  -1.580326e+02   5.935287e+00
  -1.471361e+02  -5.086938e+01
  -2.029760e+01  -9.380037e+01
   1.197962e+02  -7.964590e+01
   1.491216e+02  -1.591289e+01
   5.160362e+01   3.562000e+01
  -5.502945e+01   4.207311e+01
  -7.517571e+01  -1.695164e+01
  -6.714677e+00  -6.724689e+01
   6.012718e+01  -5.536746e+01
   6.327035e+01   2.274425e+00
   4.382999e+01   5.110591e+01
   4.228143e+01   3.811232e+01
   5.903905e+01  -2.539548e+00
   6.460111e+01   2.673424e+00
   2.947955e+01   6.708142e+01
  -2.560452e+01   1.530795e+02
  -1.132634e+02   1.459105e+02
  -1.616177e+02   3.202305e+01
  -1.264665e+02  -9.179966e+01
  -1.828164e+01  -1.242000e+02
   8.926487e+01  -5.629736e+01
   6.222858e+01   1.530679e+01
  -6.085610e+01   2.090128e+01
  -1.327283e+02  -4.789897e+01
  -7.325346e+01  -9.593541e+01
   7.785067e+01  -1.108798e+02
   1.901879e+02  -5.714731e+01
   1.567697e+02   3.645488e+01
   4.411715e+01   9.292808e+01
  -5.867770e+01   7.101155e+01
  -5.324855e+01   1.082022e+01
   3.588588e+01  -2.876864e+01
   9.045621e+01   2.874709e+01
   3.627661e+01   1.274493e+02
  -1.022791e+02   1.666901e+02
  -1.638302e+02   6.004591e+01
  -1.239050e+02  -1.083759e+02
  -8.399509e+00  -1.962631e+02
   7.945803e+01  -1.477073e+02
   1.033012e+02   4.588538e-01
   5.790421e+01   1.160293e+02
   8.547783e+00   1.009624e+02
  -4.507315e+01   2.348645e+01
  -5.426350e+01  -2.798285e+01
  -3.001992e+01  -8.360638e+00
  -4.231508e+00   2.252668e+01
  -2.058137e+01  -1.324361e+01
  -5.979814e+01  -9.034320e+01
  -3.770799e+01  -1.107241e+02
   4.826351e+01  -4.755082e+01
   1.393951e+02   3.978197e+01
   1.403633e+02   6.956078e+01
   1.805073e+01   5.141052e+01
  -9.188555e+01   1.608684e+01
  -8.317669e+01   9.624274e+00
  -1.169130e+01  -5.427318e+00
   4.066141e+01  -2.308793e+01
   1.296478e+01  -1.820990e+01
  -2.337335e+01   1.506017e+00
   5.455258e+00   1.017999e+01
   8.052376e+01   3.561248e+00
   9.290209e+01   2.107622e+01
   5.034742e+00   7.720849e+01
  -1.154506e+02   1.215945e+02
  -1.978961e+02   4.866761e+01
  -1.378405e+02  -7.185795e+01
  -2.769867e+01  -1.625053e+02
   7.329883e+01  -1.452805e+02
   1.154693e+02  -6.270254e+01
   8.237535e+01   2.612462e+01
   2.067966e+01   3.402138e+01
  -4.110840e+00   7.513444e+00
   1.011192e+01   2.870152e+00
   3.672577e+01   4.291979e+01
   2.779477e+01   8.796936e+01
  -3.194886e+01   7.377380e+01
  -8.222070e+01  -1.616136e+01
  -7.562457e+01  -1.148794e+02
  -1.989171e+00  -1.102883e+02
   8.851535e+01  -1.482040e+01
   1.087424e+02   7.697876e+01
   3.299702e+01   1.062391e+02
  -6.511487e+01   5.881276e+01
  -9.386327e+01  -1.492309e+01
  -4.027484e+01  -4.731640e+01
   3.185181e+01  -4.836071e+01
   2.787996e+01  -2.799242e+01
  -3.541762e+01  -9.478067e-01
  -6.708516e+01   9.056365e+00
  -1.739077e+01  -2.419443e+01
   7.920384e+01  -6.360702e+01
   1.134830e+02  -5.072752e+01
   5.787469e+01   1.017943e+01
  -1.644034e+01   8.906945e+01
  -5.596329e+01   8.256062e+01
  -3.719761e+01   2.427201e+00
   5.827722e-01  -5.363937e+01
   2.338568e+01  -4.302524e+01
   3.639259e+01   1.967522e+01
   2.576002e+01   5.762826e+01
  -9.248077e-01   3.259579e+01
  -3.341884e+01  -9.866985e+00
  -3.916819e+01  -1.727006e+01
  -2.047777e+01  -6.320519e-01
   4.221515e-01   1.345290e+01
   8.799780e+00  -4.858854e+00
   5.976198e+00  -3.519135e+01
   2.080879e+01  -4.317430e+01
   2.910066e+01  -4.178309e+00
   2.529063e+01   4.555113e+01
  -1.492696e+00   6.365772e+01
  -4.289578e+01   1.802607e+01
  -5.405981e+01  -3.863516e+01
  -1.202933e+01  -6.316982e+01
   5.202114e+01  -3.280320e+01
   9.294393e+01   1.858647e+01
   4.684205e+01   3.941880e+01
  -2.683700e+01   3.937597e+01
  -6.310134e+01   2.283531e+01
  -2.515048e+01   4.192643e+00
   3.855314e+01   2.674862e+00
   3.624065e+01   1.826529e+01
  -2.922047e+01   3.149848e+01
  -8.953496e+01   1.006910e+01
