
 $NMID
 id='ANONYMOUS ', fmtdat='(2E16.6)'
 volume=1.0
 tramp=1.0
 $END
  -4.651660e+03  -5.533279e+02
  -2.268150e+03  -2.931742e+03
   1.025995e+03  -3.068204e+03
   2.065481e+03  -7.164286e+02
   8.272444e+02   1.005347e+03
  -8.495154e+02   6.530612e+02
  -9.588300e+02  -5.385047e+02
   1.396803e+02  -1.091026e+03
   9.924276e+02  -6.663921e+02
   9.875552e+02   1.998405e+02
   4.170077e+02   9.924504e+02
  -3.118385e+02   9.453632e+02
  -6.601431e+02   1.701043e+00
  -3.924231e+02  -7.993742e+02
   3.491405e+02  -8.284472e+02
   6.041861e+02   5.604621e+01
   2.871276e+02   7.348845e+02
  -4.248036e+02   5.851229e+02
  -5.971516e+02   6.642561e+00
  -3.868546e+02  -4.220899e+02
   3.000838e+01  -4.310145e+02
   2.852668e+02  -2.785872e+02
   2.543381e+02  -1.420030e+00
  -1.663025e+02   1.307625e+02
  -4.781896e+02  -1.119623e+02
  -1.852983e+02  -4.960129e+02
   5.309073e+02  -4.271305e+02
   8.535392e+02   1.675338e+02
   4.326622e+02   6.816204e+02
  -4.313656e+02   5.332796e+02
  -8.235532e+02  -1.245876e+02
  -2.979194e+02  -5.621376e+02
   3.539162e+02  -5.582093e+02
   6.504780e+02  -1.606880e+02
   4.451453e+02   2.793773e+02
   3.924075e+01   5.037167e+02
  -2.226456e+02   2.594260e+02
  -1.717313e+02  -2.759469e+02
   2.239858e+02  -4.670201e+02
   5.243529e+02   1.060705e+02
   1.209651e+02   7.913355e+02
  -5.020670e+02   7.272088e+02
  -6.667639e+02  -3.956271e+01
  -2.803354e+02  -6.739890e+02
   3.764836e+02  -3.828054e+02
   4.312793e+02   4.055265e+02
  -9.532087e+01   5.884250e+02
  -6.620573e+02   1.069020e+02
  -6.123873e+02  -4.433691e+02
  -1.536805e+02  -6.526698e+02
   4.918229e+02  -3.239831e+02
   6.666892e+02   8.664007e+01
   3.622899e+02   4.138314e+02
  -2.168216e+02   3.939401e+02
  -4.667045e+02   8.291079e+00
  -2.476196e+02  -2.457025e+02
   1.634456e+02  -9.732134e+01
   1.665120e+02   1.737801e+02
  -2.093166e+02   1.907402e+02
  -3.575059e+02  -1.212058e+02
  -1.208151e+02  -3.536397e+02
   2.230843e+02  -2.600111e+02
   3.458364e+02  -5.000922e+01
   1.918991e+02   9.203044e+01
   9.978455e-01   2.157680e+02
  -2.445778e+02   3.091390e+02
  -3.527984e+02   2.718382e+02
  -2.999322e+02  -1.452269e+02
  -9.809968e+01  -4.910055e+02
   1.454173e+02  -3.789578e+02
   1.516919e+02  -1.018155e+02
   1.578008e+01   1.954178e+01
   3.288907e+01  -1.116272e+02
   2.029096e+02  -1.517863e+02
   3.174730e+02   5.432973e+01
   1.497012e+02   3.036381e+02
  -1.024579e+02   2.635820e+02
  -2.515724e+02   2.874969e+00
  -2.022192e+02  -2.754703e+02
   3.933469e-01  -3.213458e+02
   3.068937e+02  -1.093935e+02
   4.176282e+02   1.955608e+02
   1.554067e+02   3.801667e+02
  -1.311873e+02   3.459758e+02
  -2.560792e+02   1.136263e+02
  -1.342002e+02  -1.938178e+01
  -9.101434e+01   3.366962e+01
  -2.531381e+02   8.204502e+01
  -4.029428e+02  -6.949401e+01
  -3.480717e+02  -3.075947e+02
   3.660571e+01  -4.603075e+02
   4.314362e+02  -4.526322e+02
   5.421735e+02  -2.178399e+02
   3.760737e+02   1.157529e+02
   4.622476e+01   3.223606e+02
  -1.571186e+02   2.791826e+02
  -1.048954e+02   1.356857e+01
   1.224240e+02  -1.008213e+02
   2.194648e+02   1.641142e+01
   5.759513e+01   2.386103e+02
  -1.797801e+02   1.846587e+02
  -1.883072e+02  -7.962910e+01
   3.073766e+01  -2.196950e+02
   2.180640e+02  -2.548456e+01
   1.422894e+02   2.796297e+02
  -5.797137e+01   3.604448e+02
  -2.425874e+02   2.152924e+02
  -3.383620e+02  -6.460359e+01
  -3.059839e+02  -2.605065e+02
  -8.897223e+01  -2.743292e+02
   1.317509e+02  -1.726098e+02
   2.073114e+02  -8.353836e+00
   6.639339e+01   4.108000e+01
  -8.293707e+01  -3.417706e+01
  -3.061357e+01  -1.359037e+02
   1.395683e+02  -1.090993e+02
   1.907805e+02   2.491822e+01
   6.245938e+01   8.576359e+01
  -8.924622e+01   2.385039e+01
  -6.065990e+01  -7.516603e+01
   1.259292e+02  -9.518672e+01
   2.933089e+02   2.139900e+01
   2.867347e+02   1.493338e+02
   6.854978e+01   2.705089e+02
  -1.966180e+02   2.719341e+02
  -3.173418e+02   1.161364e+02
  -1.845138e+02  -5.805982e+01
   2.274145e+01  -1.212038e+02
   1.064189e+02  -8.651496e+00
  -3.338371e+01   1.147956e+02
  -2.151975e+02   6.515011e+01
  -2.360446e+02  -1.186891e+02
  -5.918710e+01  -2.373583e+02
   1.058599e+02  -1.727421e+02
   1.556130e+02  -1.309986e+01
   8.000613e+01   4.991741e+01
  -2.457681e+01   7.966375e+00
  -5.122002e+01  -9.032213e+01
   7.926003e+01  -1.107685e+02
   2.077187e+02  -2.237853e+01
   1.990673e+02   1.289387e+02
   1.490976e+01   2.426353e+02
  -1.818864e+02   1.736481e+02
  -2.107293e+02   1.411085e+00
  -5.805155e+01  -1.370120e+02
   6.460776e+01  -1.147326e+02
   8.736085e+01  -3.625054e+01
   2.209068e+01   2.741509e+01
  -2.291001e+01   2.319098e+01
   1.040604e+01  -2.481068e+00
   6.996705e+01   1.609235e+01
   7.501173e+01   8.031403e+01
   9.827447e+00   1.692641e+02
  -1.261614e+02   1.647926e+02
  -2.467012e+02   3.072047e+01
  -2.154622e+02  -1.512605e+02
  -4.037136e+01  -2.488932e+02
   1.029474e+02  -1.867542e+02
   1.410978e+02  -2.821896e+01
   7.631741e+01   5.641140e+01
   2.267893e+01   4.076351e+01
   5.715463e+01  -1.264928e+01
   8.117066e+01  -5.620594e+00
   3.788364e+01   5.328438e+01
  -4.585871e+01   8.711181e+01
  -1.015333e+02   4.936854e+01
  -8.625567e+01  -3.420117e+01
   1.253427e+01  -1.078927e+02
   1.473279e+02  -8.566616e+01
   1.954231e+02   6.337603e+01
   9.906246e+01   2.086747e+02
  -1.029358e+02   2.305537e+02
  -2.848040e+02   7.981218e+01
  -2.658389e+02  -9.265448e+01
  -1.112462e+02  -1.879737e+02
   4.068743e+01  -1.639366e+02
   1.095888e+02  -8.172536e+01
   8.995074e+01  -6.515324e+01
   7.769802e+01  -9.066711e+01
   1.024322e+02  -7.571294e+01
   1.217583e+02   3.001848e+01
   1.189059e+02   1.666641e+02
   1.677768e+01   2.281939e+02
  -1.169416e+02   1.673078e+02
  -1.899728e+02   1.865826e+01
  -1.485920e+02  -1.430034e+02
  -1.585684e+01  -1.759182e+02
   6.728574e+01  -1.023534e+02
   6.308586e+01   2.958689e-01
   7.091446e+00   4.269142e+01
  -4.584323e+00   3.633134e+01
   3.580244e+01   2.194885e+01
   7.999955e+01   1.956983e+01
   4.913740e+01   3.810345e+01
  -6.694901e+01   4.065880e+01
  -1.702315e+02  -2.476872e-01
  -1.480079e+02  -5.725702e+01
  -2.174045e+01  -1.032681e+02
   1.263628e+02  -7.944993e+01
   1.518481e+02  -7.488170e+00
   5.244512e+01   4.036647e+01
  -6.012343e+01   3.816814e+01
  -7.842635e+01  -2.165454e+01
  -5.049996e+00  -7.033869e+01
   6.576845e+01  -4.994740e+01
   6.184746e+01   3.629891e+00
   4.151859e+01   5.009763e+01
   4.384717e+01   3.885789e+01
   6.566248e+01   7.026431e-01
   6.630896e+01  -2.295398e-01
   3.446537e+01   6.909390e+01
  -2.792009e+01   1.357993e+02
  -1.351362e+02   1.423277e+02
  -1.732598e+02   4.589269e+01
  -1.208609e+02  -9.762059e+01
  -1.554073e+01  -1.379266e+02
   9.002165e+01  -5.499907e+01
   6.150240e+01   1.474127e+01
  -6.192622e+01   1.844446e+01
  -1.433353e+02  -5.186300e+01
  -7.226280e+01  -1.048044e+02
   9.456197e+01  -1.145990e+02
   1.965677e+02  -6.051912e+01
   1.747370e+02   5.102527e+01
   3.925674e+01   9.636387e+01
  -7.206616e+01   7.396233e+01
  -5.378463e+01   7.988007e+00
   3.720959e+01  -2.638465e+01
   9.074109e+01   2.862755e+01
   3.222610e+01   1.263093e+02
  -1.077452e+02   1.636994e+02
  -1.677477e+02   5.578424e+01
  -1.296528e+02  -1.173533e+02
  -1.383689e+00  -2.065199e+02
   9.429934e+01  -1.480654e+02
   1.112028e+02   3.766502e+00
   5.888233e+01   1.317119e+02
  -1.333575e+00   1.043636e+02
  -4.775282e+01   2.177073e+01
  -5.706204e+01  -2.952643e+01
  -2.930653e+01  -1.233172e+01
  -4.058605e+00   2.274126e+01
  -1.938562e+01  -1.506296e+01
  -5.488995e+01  -8.489982e+01
  -4.241081e+01  -1.199482e+02
   4.816941e+01  -5.074954e+01
   1.506916e+02   4.456822e+01
   1.343464e+02   7.231515e+01
   2.146000e+01   5.295871e+01
  -9.084188e+01   1.959320e+01
  -9.157447e+01   7.795996e+00
  -1.225254e+01  -6.085988e+00
   4.182241e+01  -2.547959e+01
   1.484189e+01  -1.845413e+01
  -2.425076e+01   1.685818e-01
   5.139164e+00   1.116503e+01
   7.792052e+01   5.408655e+00
   9.489726e+01   2.389226e+01
   5.997811e+00   7.991566e+01
  -1.105718e+02   1.148176e+02
  -1.989380e+02   5.187862e+01
  -1.415888e+02  -7.702797e+01
  -2.675647e+01  -1.741650e+02
   8.386411e+01  -1.476780e+02
   1.135249e+02  -5.022348e+01
   8.478030e+01   2.840843e+01
   2.275731e+01   3.671743e+01
  -4.379026e+00   6.946464e+00
   9.468039e+00   3.384339e+00
   3.733694e+01   4.398678e+01
   2.787172e+01   8.944846e+01
  -3.388028e+01   7.875940e+01
  -7.958216e+01  -1.977654e+01
  -8.354991e+01  -1.168283e+02
  -1.522105e+00  -1.148402e+02
   9.160999e+01  -1.221608e+01
   1.050443e+02   8.125414e+01
   2.573725e+01   1.059688e+02
  -7.351399e+01   5.486109e+01
  -1.003705e+02  -1.225000e+01
  -4.091101e+01  -5.244337e+01
   3.488085e+01  -4.993561e+01
   3.113083e+01  -2.944291e+01
  -3.595067e+01  -3.912859e+00
  -7.208261e+01   6.962098e+00
  -1.474406e+01  -2.298762e+01
   8.215131e+01  -6.805870e+01
   1.197087e+02  -4.878745e+01
   6.517272e+01   1.280060e+01
  -1.822778e+01   8.041468e+01
  -5.386988e+01   7.978531e+01
  -3.598399e+01   7.852028e-01
   2.594986e-01  -6.018527e+01
   2.529005e+01  -4.095692e+01
   3.603890e+01   2.472180e+01
   2.007068e+01   5.763124e+01
  -1.371307e+00   3.340407e+01
  -3.511550e+01  -1.069450e+01
  -4.242062e+01  -1.736784e+01
  -2.212249e+01  -2.055336e+00
   5.194547e-01   1.258135e+01
   1.199771e+01  -5.004070e+00
   1.107142e+01  -3.664754e+01
   2.154132e+01  -4.504717e+01
   2.792436e+01  -4.934486e+00
   2.295088e+01   4.897680e+01
  -4.106235e+00   5.886634e+01
  -4.365308e+01   1.769622e+01
  -5.766989e+01  -4.041225e+01
  -1.154030e+01  -6.881135e+01
   5.327867e+01  -3.265795e+01
   9.314178e+01   1.667039e+01
   4.802363e+01   4.721287e+01
  -2.735645e+01   4.160067e+01
  -6.717292e+01   2.434121e+01
  -2.265924e+01   3.369552e+00
   3.842856e+01   3.598269e+00
   3.699701e+01   2.225447e+01
  -3.399822e+01   3.071772e+01
  -9.620596e+01   6.598854e+00
