
 $NMID
 id='ANONYMOUS ', fmtdat='(2E16.6)'
 volume=1.0
 tramp=1.0
 $END
  -4.805950e+03  -2.677879e+02
  -2.525347e+03  -3.024600e+03
   1.009197e+03  -2.977305e+03
   2.433461e+03  -8.299171e+02
   1.038471e+03   1.068495e+03
  -8.650679e+02   7.242581e+02
  -1.025105e+03  -6.706747e+02
   8.538670e+01  -1.128150e+03
   9.693171e+02  -6.936754e+02
   1.046302e+03   2.128515e+02
   4.756553e+02   1.093942e+03
  -3.574001e+02   9.993843e+02
  -7.300911e+02   2.805021e+01
  -3.950219e+02  -8.352726e+02
   3.695757e+02  -8.084379e+02
   6.241114e+02   4.206559e+01
   3.044930e+02   7.700753e+02
  -3.789535e+02   5.636023e+02
  -6.324065e+02   3.939183e+01
  -3.872073e+02  -4.182455e+02
   1.301896e+01  -4.747368e+02
   2.888202e+02  -2.845379e+02
   2.529259e+02   1.801360e+00
  -1.467304e+02   1.277150e+02
  -4.809245e+02  -7.879601e+01
  -2.433287e+02  -4.999927e+02
   5.359699e+02  -5.168129e+02
   8.833096e+02   8.219830e+01
   4.741006e+02   6.671963e+02
  -3.954815e+02   5.901733e+02
  -8.636858e+02  -8.697462e+01
  -3.801786e+02  -5.740380e+02
   3.018584e+02  -5.664892e+02
   6.713633e+02  -2.105076e+02
   4.502017e+02   2.702562e+02
   8.952698e+01   5.329761e+02
  -2.468417e+02   2.947444e+02
  -2.187506e+02  -2.805261e+02
   2.011097e+02  -5.130704e+02
   5.306965e+02   5.204107e+01
   2.023630e+02   8.040125e+02
  -4.177289e+02   7.764152e+02
  -6.894646e+02  -5.638165e+00
  -3.581926e+02  -6.878089e+02
   3.594947e+02  -4.015223e+02
   4.275673e+02   3.688646e+02
  -6.984829e+01   6.357571e+02
  -6.727293e+02   1.373147e+02
  -6.120741e+02  -4.538172e+02
  -1.704658e+02  -6.541200e+02
   4.938051e+02  -3.689140e+02
   6.750126e+02   9.024776e+01
   3.614292e+02   4.126215e+02
  -2.418614e+02   4.172975e+02
  -5.127019e+02   1.864487e+01
  -2.619628e+02  -2.574538e+02
   1.484650e+02  -1.051627e+02
   1.808230e+02   1.876160e+02
  -2.097655e+02   2.061708e+02
  -3.665060e+02  -1.035724e+02
  -1.286526e+02  -3.581619e+02
   2.211742e+02  -2.782069e+02
   3.579547e+02  -6.057808e+01
   1.904346e+02   8.956326e+01
  -8.108717e+00   2.089463e+02
  -2.100586e+02   3.077995e+02
  -3.456565e+02   2.655992e+02
  -3.227373e+02  -1.273379e+02
  -1.095717e+02  -4.844233e+02
   1.383011e+02  -4.058959e+02
   1.402236e+02  -1.079640e+02
   2.763715e+01   2.977072e+01
   2.790347e+01  -1.136811e+02
   1.847737e+02  -1.648549e+02
   3.079015e+02   3.775596e+01
   1.889179e+02   3.011043e+02
  -9.112108e+01   2.726786e+02
  -2.560654e+02   2.158671e+01
  -2.313465e+02  -2.733061e+02
  -1.886698e+01  -3.115642e+02
   3.007735e+02  -1.307391e+02
   4.172041e+02   1.785414e+02
   1.804496e+02   3.890733e+02
  -1.073572e+02   3.525680e+02
  -2.588037e+02   1.176590e+02
  -1.456899e+02  -2.165078e+01
  -8.585404e+01   3.614904e+01
  -2.479225e+02   1.011363e+02
  -4.096874e+02  -5.143181e+01
  -3.496656e+02  -2.851779e+02
  -1.132897e+01  -4.599291e+02
   3.930348e+02  -4.603473e+02
   5.368248e+02  -2.464346e+02
   3.881028e+02   1.124131e+02
   7.553884e+01   3.422068e+02
  -1.559241e+02   2.855115e+02
  -1.151460e+02   1.933634e+01
   1.243007e+02  -1.269245e+02
   2.198114e+02   1.486726e+01
   6.056382e+01   2.399149e+02
  -1.987729e+02   2.007756e+02
  -1.949605e+02  -7.849253e+01
   1.939252e+01  -2.121196e+02
   2.145977e+02  -4.025193e+01
   1.566835e+02   2.739514e+02
  -4.724081e+01   3.668729e+02
  -2.440895e+02   2.080409e+02
  -3.340208e+02  -5.656354e+01
  -3.105282e+02  -2.410985e+02
  -1.151886e+02  -2.704171e+02
   1.176407e+02  -1.689525e+02
   2.038139e+02  -2.228266e+01
   6.630199e+01   4.334252e+01
  -7.748515e+01  -3.334838e+01
  -3.951616e+01  -1.412571e+02
   1.384149e+02  -1.163704e+02
   1.940260e+02   1.036983e+01
   6.861103e+01   8.658381e+01
  -8.547165e+01   3.109736e+01
  -6.232911e+01  -7.156810e+01
   1.245142e+02  -9.419662e+01
   2.905437e+02   1.203740e+01
   2.877951e+02   1.523889e+02
   7.837734e+01   2.670534e+02
  -1.801535e+02   2.912675e+02
  -3.327442e+02   1.300338e+02
  -1.957220e+02  -5.864048e+01
   2.164417e+01  -1.247832e+02
   1.144256e+02  -1.252034e+01
  -2.561395e+01   1.186781e+02
  -2.105669e+02   7.710593e+01
  -2.360408e+02  -1.093443e+02
  -6.610009e+01  -2.408548e+02
   1.055199e+02  -1.703710e+02
   1.616263e+02  -2.383271e+01
   7.857813e+01   4.244923e+01
  -2.078293e+01   1.126362e+01
  -4.934523e+01  -8.404421e+01
   7.995035e+01  -1.077154e+02
   2.057935e+02  -3.817584e+01
   2.015758e+02   1.135899e+02
   2.104940e+01   2.464978e+02
  -1.866001e+02   1.770094e+02
  -2.228541e+02   1.071515e+01
  -6.427360e+01  -1.351337e+02
   7.017922e+01  -1.237756e+02
   8.776435e+01  -3.591120e+01
   2.570072e+01   2.697139e+01
  -1.893537e+01   2.339712e+01
   1.171240e+01   1.867441e+00
   6.790488e+01   1.388126e+01
   7.703568e+01   7.611366e+01
   5.251305e+00   1.608631e+02
  -1.199330e+02   1.680161e+02
  -2.457376e+02   2.762849e+01
  -2.225314e+02  -1.443171e+02
  -4.209023e+01  -2.485432e+02
   1.114292e+02  -1.897455e+02
   1.435358e+02  -3.672517e+01
   7.836492e+01   5.930965e+01
   2.509946e+01   3.922527e+01
   5.514583e+01  -1.319465e+01
   7.862234e+01  -4.844602e+00
   3.600494e+01   5.273057e+01
  -4.674199e+01   8.642223e+01
  -1.043652e+02   5.267418e+01
  -8.165753e+01  -3.132314e+01
   9.548736e+00  -1.089951e+02
   1.381779e+02  -8.811704e+01
   1.964754e+02   5.592216e+01
   9.712220e+01   1.972633e+02
  -1.000642e+02   2.405225e+02
  -2.819900e+02   9.291527e+01
  -2.651498e+02  -8.250935e+01
  -1.152597e+02  -1.869662e+02
   4.150198e+01  -1.644273e+02
   1.043718e+02  -8.500615e+01
   8.870738e+01  -6.476583e+01
   7.711417e+01  -9.536442e+01
   1.034889e+02  -7.445664e+01
   1.206263e+02   2.362691e+01
   1.264505e+02   1.564572e+02
   2.624603e+01   2.260277e+02
  -1.190325e+02   1.744048e+02
  -1.905975e+02   2.264526e+01
  -1.424205e+02  -1.425209e+02
  -1.694946e+01  -1.695316e+02
   6.814938e+01  -1.060216e+02
   6.022663e+01  -4.503855e+00
   6.626279e+00   4.221194e+01
  -1.168897e+00   3.382013e+01
   3.995146e+01   1.852445e+01
   7.776081e+01   2.108885e+01
   4.794727e+01   3.862068e+01
  -6.642163e+01   4.126760e+01
  -1.701632e+02   2.585677e+00
  -1.498915e+02  -4.818580e+01
  -2.326415e+01  -9.237242e+01
   1.209803e+02  -8.406569e+01
   1.508000e+02  -1.675096e+01
   5.425780e+01   3.865146e+01
  -5.934841e+01   3.920352e+01
  -7.845617e+01  -2.163819e+01
  -5.147087e+00  -7.205960e+01
   6.417103e+01  -4.905749e+01
   6.045201e+01   3.001579e+00
   3.922359e+01   5.314285e+01
   4.199631e+01   3.790772e+01
   6.778555e+01   1.096562e+00
   6.664206e+01  -1.240168e+00
   3.377828e+01   6.728601e+01
  -2.814004e+01   1.434267e+02
  -1.249782e+02   1.460236e+02
  -1.682150e+02   3.139900e+01
  -1.207405e+02  -9.175580e+01
  -1.354956e+01  -1.399451e+02
   9.086865e+01  -5.301809e+01
   6.153271e+01   1.455961e+01
  -5.771608e+01   2.098763e+01
  -1.382993e+02  -4.392794e+01
  -7.357793e+01  -1.104133e+02
   8.632998e+01  -1.169964e+02
   1.971907e+02  -5.486267e+01
   1.657911e+02   4.486344e+01
   4.142217e+01   9.653694e+01
  -6.438214e+01   7.723178e+01
  -5.233446e+01   9.401525e+00
   3.720019e+01  -2.703771e+01
   8.996024e+01   2.659496e+01
   3.099902e+01   1.303238e+02
  -1.066091e+02   1.659543e+02
  -1.725356e+02   5.613772e+01
  -1.276174e+02  -1.119890e+02
  -4.760805e+00  -2.025900e+02
   9.179648e+01  -1.555771e+02
   1.104916e+02   9.505716e-01
   6.889791e+01   1.316126e+02
   8.640581e+00   1.058383e+02
  -4.776105e+01   2.327377e+01
  -5.868345e+01  -3.057927e+01
  -3.148565e+01  -1.028109e+01
  -3.483958e+00   2.358219e+01
  -1.699594e+01  -1.122059e+01
  -5.399809e+01  -8.272094e+01
  -4.300710e+01  -1.190264e+02
   4.391938e+01  -5.012045e+01
   1.476857e+02   4.400131e+01
   1.415092e+02   6.626741e+01
   1.937618e+01   5.106508e+01
  -9.330191e+01   1.844932e+01
  -9.296711e+01   8.682678e+00
  -1.008496e+01  -4.815591e+00
   4.215042e+01  -2.595170e+01
   1.352302e+01  -2.050993e+01
  -2.634059e+01   1.403996e+00
   6.058738e+00   1.102508e+01
   7.879000e+01   2.505635e+00
   9.830001e+01   2.387174e+01
   5.885677e+00   7.980511e+01
  -1.123540e+02   1.166693e+02
  -1.981370e+02   5.069483e+01
  -1.444585e+02  -8.352342e+01
  -3.124298e+01  -1.701961e+02
   8.412985e+01  -1.561127e+02
   1.135907e+02  -5.226189e+01
   8.713465e+01   2.367472e+01
   2.367735e+01   3.654095e+01
  -6.266559e+00   7.174682e+00
   8.626147e+00   2.372960e+00
   3.768655e+01   4.474446e+01
   2.386301e+01   8.839084e+01
  -3.112153e+01   7.622416e+01
  -7.992002e+01  -1.677847e+01
  -7.992582e+01  -1.141914e+02
   6.216160e-01  -1.180233e+02
   8.751005e+01  -1.522016e+01
   1.092845e+02   8.545847e+01
   2.248095e+01   1.080547e+02
  -7.056209e+01   5.531905e+01
  -9.915933e+01  -1.486733e+01
  -3.767976e+01  -5.226177e+01
   3.500099e+01  -4.798813e+01
   2.945070e+01  -2.936957e+01
  -3.966872e+01  -2.446209e+00
  -7.280263e+01   6.323473e+00
  -1.660452e+01  -2.299268e+01
   8.026747e+01  -6.856754e+01
   1.143703e+02  -5.804197e+01
   6.377656e+01   1.290237e+01
  -1.643205e+01   8.326323e+01
  -5.460903e+01   7.645751e+01
  -3.548457e+01   1.188425e+00
   1.339887e+00  -6.040906e+01
   2.551492e+01  -4.301690e+01
   3.698683e+01   2.590946e+01
   2.208895e+01   5.764846e+01
  -2.531875e+00   3.202116e+01
  -3.610684e+01  -1.037405e+01
  -3.998620e+01  -1.811738e+01
  -2.147579e+01  -7.805645e-01
   1.086249e+00   1.167022e+01
   8.877995e+00  -5.670253e+00
   1.201078e+01  -3.826356e+01
   2.247013e+01  -3.987264e+01
   3.168913e+01  -4.626285e+00
   2.311151e+01   5.045633e+01
  -2.449411e+00   5.920319e+01
  -4.147202e+01   1.819906e+01
  -5.736210e+01  -4.255091e+01
  -8.638690e+00  -6.826666e+01
   5.345111e+01  -3.201273e+01
   9.259139e+01   1.847804e+01
   5.025969e+01   4.420753e+01
  -2.731784e+01   4.009917e+01
  -6.837326e+01   2.119827e+01
  -2.153956e+01   3.142238e+00
   3.993019e+01   4.256418e+00
   3.878162e+01   2.168209e+01
  -3.316682e+01   3.169463e+01
  -9.708307e+01   1.185969e+01
