
 $NMID
 id='ANONYMOUS ', fmtdat='(2E16.6)'
 volume=1.0
 tramp=1.0
 $END
  -4.299637e+03   9.027221e+01
  -2.547087e+03  -3.034075e+03
   8.852975e+02  -2.970102e+03
   2.311316e+03  -1.019070e+03
   8.546023e+02   7.738769e+02
  -9.281383e+02   6.141712e+02
  -9.009722e+02  -4.767376e+02
   7.795310e+01  -1.123876e+03
   9.350789e+02  -8.082802e+02
   1.040602e+03   2.159411e+02
   3.686254e+02   8.873880e+02
  -3.260341e+02   9.611834e+02
  -6.903570e+02   1.600668e+02
  -4.341792e+02  -7.574718e+02
   3.253347e+02  -7.216924e+02
   7.206329e+02   4.939170e+01
   2.701272e+02   7.388752e+02
  -3.047780e+02   6.527163e+02
  -6.302986e+02   9.993861e+01
  -4.266298e+02  -3.729405e+02
  -8.078538e+00  -4.643545e+02
   2.627304e+02  -2.567914e+02
   2.288207e+02   3.916340e+00
  -1.414451e+02   1.055702e+02
  -4.626763e+02  -1.071321e+02
  -2.427953e+02  -4.433643e+02
   4.915295e+02  -4.258568e+02
   9.418801e+02   8.239057e+01
   3.853238e+02   6.549254e+02
  -3.938699e+02   5.421209e+02
  -7.937267e+02  -4.747589e+01
  -3.452292e+02  -5.094086e+02
   3.046555e+02  -5.389279e+02
   5.788212e+02  -1.391527e+02
   4.185197e+02   2.526276e+02
   3.182082e+01   4.927289e+02
  -2.195509e+02   2.928130e+02
  -1.659283e+02  -2.266885e+02
   1.937918e+02  -5.100239e+02
   5.231711e+02   3.807922e+01
   1.543096e+02   7.456480e+02
  -3.362803e+02   6.757046e+02
  -6.844394e+02  -3.926870e+00
  -2.582134e+02  -6.336110e+02
   3.064791e+02  -3.286071e+02
   4.274907e+02   3.517812e+02
  -6.222639e+01   6.413000e+02
  -5.632723e+02   1.132973e+02
  -6.935022e+02  -4.101570e+02
  -1.597627e+02  -6.830683e+02
   4.153558e+02  -3.552017e+02
   7.112253e+02   1.254110e+02
   3.591969e+02   4.511963e+02
  -1.887158e+02   3.390042e+02
  -4.822576e+02   4.522490e+01
  -2.536323e+02  -2.179753e+02
   1.377615e+02  -1.262683e+02
   1.574898e+02   1.933243e+02
  -1.891165e+02   1.961467e+02
  -3.877778e+02  -8.854377e+01
  -1.399142e+02  -3.329970e+02
   2.103448e+02  -2.338653e+02
   3.198922e+02  -5.882305e+01
   1.690662e+02   8.876524e+01
  -1.331905e+01   2.336649e+02
  -2.124432e+02   3.564381e+02
  -3.592562e+02   2.451028e+02
  -3.303912e+02  -1.241133e+02
  -6.945079e+01  -4.426703e+02
   1.075211e+02  -4.104445e+02
   1.433049e+02  -9.986064e+01
   1.756444e+01   3.944026e+01
   2.592003e+01  -9.790881e+01
   2.164770e+02  -1.406662e+02
   2.907532e+02   2.551484e+01
   1.708309e+02   2.931106e+02
  -8.123200e+01   2.702597e+02
  -2.345702e+02   1.064722e+01
  -1.967767e+02  -2.518730e+02
   1.627383e+01  -3.042728e+02
   2.816683e+02  -1.133757e+02
   3.923517e+02   1.904920e+02
   1.684779e+02   3.708361e+02
  -1.160709e+02   3.164783e+02
  -2.304548e+02   1.239550e+02
  -1.301779e+02  -5.049447e+00
  -9.849820e+01   3.137105e+01
  -2.370182e+02   6.353157e+01
  -4.288711e+02  -4.808083e+01
  -3.161435e+02  -2.679428e+02
   8.353548e-01  -4.215391e+02
   3.811954e+02  -4.120750e+02
   4.973057e+02  -1.853500e+02
   3.228968e+02   9.051800e+01
   6.175184e+01   3.101939e+02
  -1.391330e+02   2.579252e+02
  -8.712311e+01   2.472620e+01
   1.175698e+02  -1.172461e+02
   2.311728e+02   1.192860e+01
   6.349564e+01   2.008476e+02
  -1.859046e+02   1.844454e+02
  -1.947208e+02  -6.528444e+01
   1.499579e+01  -2.166342e+02
   2.067431e+02  -4.021583e+01
   1.775963e+02   2.513543e+02
  -2.815747e+01   3.508253e+02
  -2.264053e+02   1.855103e+02
  -3.130061e+02  -8.311628e+01
  -2.825653e+02  -2.259132e+02
  -1.134578e+02  -2.800845e+02
   1.351271e+02  -1.617040e+02
   1.881349e+02  -1.727635e+01
   7.060691e+01   3.660448e+01
  -7.578108e+01  -3.542889e+01
  -2.993555e+01  -1.404992e+02
   1.378806e+02  -1.010887e+02
   1.906341e+02   1.912641e+01
   6.325151e+01   8.433728e+01
  -8.130206e+01   2.364921e+01
  -6.289740e+01  -7.049273e+01
   1.273736e+02  -9.265154e+01
   2.785056e+02  -8.682436e+00
   2.723289e+02   1.397987e+02
   7.199761e+01   2.598467e+02
  -1.817702e+02   2.697735e+02
  -3.145432e+02   1.439272e+02
  -1.876932e+02  -5.657303e+01
   2.996830e+01  -1.224054e+02
   9.946359e+01  -1.244317e+00
  -3.497311e+01   1.067655e+02
  -1.849203e+02   6.288661e+01
  -2.225734e+02  -1.025224e+02
  -6.186253e+01  -2.286988e+02
   9.659581e+01  -1.652744e+02
   1.468208e+02  -3.622498e+01
   7.809745e+01   4.693475e+01
  -2.502165e+01   7.893875e+00
  -4.047168e+01  -8.648001e+01
   6.386167e+01  -1.197106e+02
   2.049949e+02  -3.357964e+01
   2.072362e+02   1.288913e+02
   2.270842e+01   2.124513e+02
  -1.754908e+02   1.782152e+02
  -2.099959e+02   7.737898e+00
  -6.758486e+01  -1.183748e+02
   6.587596e+01  -1.276010e+02
   8.869576e+01  -3.087413e+01
   1.959145e+01   2.764534e+01
  -2.192404e+01   2.006769e+01
   8.822906e+00  -5.775779e+00
   6.485451e+01   1.220049e+01
   8.775831e+01   8.295987e+01
   1.696554e+01   1.520207e+02
  -1.344308e+02   1.525607e+02
  -2.548490e+02   3.014642e+01
  -2.094655e+02  -1.544008e+02
  -4.577892e+01  -2.674100e+02
   1.166236e+02  -1.764822e+02
   1.461177e+02  -2.825043e+01
   7.371096e+01   6.058772e+01
   2.929517e+01   3.892205e+01
   5.564051e+01  -1.194887e+01
   7.820851e+01  -7.634297e+00
   3.961486e+01   4.921701e+01
  -3.578474e+01   8.646336e+01
  -1.035234e+02   5.593110e+01
  -9.066935e+01  -3.444809e+01
   6.650271e+00  -1.053389e+02
   1.463598e+02  -8.721494e+01
   2.020426e+02   4.817518e+01
   1.119016e+02   1.994439e+02
  -1.174575e+02   2.548881e+02
  -2.844695e+02   8.373414e+01
  -2.727434e+02  -1.076540e+02
  -1.158322e+02  -1.777194e+02
   4.226366e+01  -1.518649e+02
   9.453672e+01  -8.344624e+01
   8.245464e+01  -7.299329e+01
   6.258033e+01  -9.114332e+01
   9.641048e+01  -8.166128e+01
   1.323102e+02   2.559944e+01
   1.069252e+02   1.623264e+02
   2.233805e+01   2.297653e+02
  -1.058937e+02   1.719332e+02
  -1.742214e+02   1.457823e+01
  -1.475209e+02  -1.366680e+02
  -1.651417e+01  -1.686010e+02
   7.053151e+01  -1.018070e+02
   6.854749e+01   2.274176e+00
   9.617633e+00   4.199538e+01
  -7.197324e+00   3.454692e+01
   3.887185e+01   1.902632e+01
   8.246091e+01   2.333495e+01
   4.527727e+01   3.944948e+01
  -6.481478e+01   3.616280e+01
  -1.521196e+02   3.826068e+00
  -1.379407e+02  -4.584686e+01
  -1.781103e+01  -8.540596e+01
   1.193152e+02  -7.460820e+01
   1.450814e+02  -1.483504e+01
   5.008799e+01   4.023360e+01
  -5.811391e+01   3.632653e+01
  -7.846978e+01  -2.120136e+01
  -6.952441e+00  -6.899959e+01
   5.924275e+01  -5.958420e+01
   6.499245e+01   3.134673e+00
   4.344078e+01   4.877267e+01
   4.575506e+01   4.331591e+01
   6.438534e+01   2.053524e+00
   7.334430e+01   3.730937e+00
   3.732063e+01   6.442284e+01
  -4.058800e+01   1.411183e+02
  -1.100996e+02   1.385452e+02
  -1.675779e+02   2.752338e+01
  -1.219795e+02  -7.984362e+01
  -7.741673e+00  -1.324508e+02
   8.807555e+01  -6.704399e+01
   5.788008e+01   1.549892e+01
  -5.890241e+01   1.637573e+01
  -1.448458e+02  -4.184728e+01
  -8.470596e+01  -1.158725e+02
   8.727845e+01  -1.107431e+02
   1.946691e+02  -5.139137e+01
   1.693364e+02   3.365598e+01
   3.629852e+01   8.385139e+01
  -6.586667e+01   7.383547e+01
  -4.871373e+01   6.353760e+00
   3.973935e+01  -2.754796e+01
   8.693441e+01   2.205344e+01
   3.683117e+01   1.228622e+02
  -9.282456e+01   1.466121e+02
  -1.815851e+02   7.785535e+01
  -1.225086e+02  -1.086642e+02
  -5.698509e+00  -2.185545e+02
   8.776210e+01  -1.443514e+02
   1.047169e+02   7.012881e+00
   6.338413e+01   1.209567e+02
  -9.776689e-01   1.068515e+02
  -5.111607e+01   2.455971e+01
  -5.261532e+01  -3.318127e+01
  -2.602756e+01  -1.023705e+01
  -3.502728e+00   2.125547e+01
  -1.789938e+01  -1.565492e+01
  -6.027270e+01  -9.146582e+01
  -4.532655e+01  -1.109008e+02
   4.872413e+01  -4.910315e+01
   1.339816e+02   4.013206e+01
   1.306985e+02   8.060543e+01
   2.034277e+01   5.051635e+01
  -8.935298e+01   2.357275e+01
  -9.547496e+01   2.261400e+00
  -1.121482e+01  -5.650089e+00
   3.914161e+01  -2.103853e+01
   1.613128e+01  -1.924245e+01
  -2.264452e+01  -4.332302e-03
   5.709205e+00   1.003857e+01
   7.789454e+01   3.077121e+00
   9.329252e+01   2.489992e+01
   5.057476e+00   8.106693e+01
  -1.266019e+02   1.213501e+02
  -1.931999e+02   6.418482e+01
  -1.437531e+02  -6.709073e+01
  -2.055521e+01  -1.668782e+02
   7.847730e+01  -1.415511e+02
   1.156747e+02  -6.516200e+01
   7.646027e+01   2.143172e+01
   2.255509e+01   3.572994e+01
  -4.628280e+00   8.510446e+00
   1.007260e+01   3.851969e+00
   3.233771e+01   5.034851e+01
   2.393998e+01   9.073258e+01
  -3.055722e+01   6.616150e+01
  -7.926558e+01  -2.109710e+01
  -7.059880e+01  -1.056145e+02
  -4.898858e+00  -1.103581e+02
   7.788730e+01  -2.408978e+01
   1.016177e+02   8.094340e+01
   3.460618e+01   1.014579e+02
  -6.640433e+01   5.069411e+01
  -1.078069e+02  -1.113957e+01
  -3.546878e+01  -4.712307e+01
   3.313365e+01  -4.910140e+01
   2.926051e+01  -2.798774e+01
  -3.529540e+01  -3.206685e+00
  -7.612712e+01   9.155494e+00
  -1.531757e+01  -2.366185e+01
   8.341508e+01  -7.029109e+01
   1.208465e+02  -6.113229e+01
   6.132583e+01   9.033298e+00
  -1.385699e+01   7.974192e+01
  -5.173797e+01   7.840348e+01
  -3.605570e+01   2.646440e+00
   3.121483e+00  -5.323149e+01
   2.737407e+01  -4.272127e+01
   3.468920e+01   2.033900e+01
   2.966533e+01   5.634467e+01
  -3.347531e+00   3.223908e+01
  -3.301785e+01  -1.038540e+01
  -4.206250e+01  -2.229002e+01
  -2.060936e+01  -5.829743e-02
   9.305456e-01   1.242196e+01
   9.727483e+00  -3.420548e+00
   6.138414e+00  -3.975422e+01
   1.773325e+01  -4.079250e+01
   3.289160e+01  -5.838927e+00
   2.699451e+01   4.322851e+01
  -3.592528e+00   6.054579e+01
  -4.856290e+01   1.960203e+01
  -6.046100e+01  -3.664624e+01
  -1.348423e+01  -6.117665e+01
   5.653780e+01  -3.492696e+01
   8.456312e+01   1.582185e+01
   5.178086e+01   4.413071e+01
  -2.973332e+01   4.205909e+01
  -6.838432e+01   2.232356e+01
  -2.465763e+01   6.849592e+00
   3.916062e+01   3.262396e+00
   3.801274e+01   1.582652e+01
  -3.336467e+01   2.895033e+01
  -9.475473e+01   1.333027e+01
