
 $NMID
 id='ANONYMOUS ', fmtdat='(2E16.6)'
 volume=1.0
 tramp=1.0
 $END
   4.463428e+03  -1.887040e+01
   2.479353e+03   3.004523e+03
  -1.025399e+03   2.931691e+03
  -2.083665e+03   8.316611e+02
  -1.009642e+03  -8.676428e+02
   9.647961e+02  -6.151384e+02
   9.059620e+02   5.239794e+02
   2.026817e+00   1.122393e+03
  -9.367334e+02   8.355222e+02
  -9.536685e+02  -1.836722e+02
  -3.913442e+02  -8.350890e+02
   3.492485e+02  -9.326452e+02
   6.933821e+02  -1.117651e+02
   4.962691e+02   8.101786e+02
  -3.466294e+02   7.016720e+02
  -6.798926e+02  -1.982905e+01
  -3.167455e+02  -7.078008e+02
   3.698445e+02  -6.625713e+02
   6.588631e+02  -5.091634e+01
   3.846397e+02   4.153727e+02
  -3.627899e+00   4.443529e+02
  -2.565118e+02   2.471100e+02
  -2.559316e+02  -1.289709e+01
   1.288484e+02  -1.249307e+02
   4.185142e+02   7.038369e+01
   2.512613e+02   4.438901e+02
  -4.802437e+02   5.135061e+02
  -9.332425e+02  -7.000299e+01
  -4.195729e+02  -5.818914e+02
   3.530258e+02  -5.673689e+02
   7.886924e+02   1.147335e+01
   4.481354e+02   4.878411e+02
  -2.681020e+02   6.069726e+02
  -5.720446e+02   1.667344e+02
  -4.495401e+02  -2.213222e+02
  -1.065185e+02  -5.255981e+02
   2.362335e+02  -2.721518e+02
   1.922103e+02   2.544866e+02
  -1.505356e+02   5.053372e+02
  -4.809103e+02   2.474306e+00
  -2.654285e+02  -7.490199e+02
   3.630453e+02  -7.874714e+02
   6.949183e+02  -2.583422e+01
   3.232909e+02   6.235887e+02
  -3.484017e+02   3.654151e+02
  -4.606154e+02  -3.579611e+02
   9.131165e+01  -5.828054e+02
   5.379166e+02  -1.407096e+02
   6.371575e+02   4.074132e+02
   1.910160e+02   5.982079e+02
  -4.062258e+02   3.289469e+02
  -6.541177e+02  -1.108032e+02
  -3.307300e+02  -4.079066e+02
   1.501483e+02  -3.503685e+02
   4.788745e+02  -8.568228e+01
   2.641654e+02   2.503141e+02
  -1.517396e+02   1.314761e+02
  -1.534520e+02  -1.821113e+02
   1.824411e+02  -1.832980e+02
   3.662625e+02   9.973503e+01
   1.327606e+02   3.161787e+02
  -2.211527e+02   2.651999e+02
  -3.042252e+02   4.399912e+01
  -1.711848e+02  -9.029460e+01
   2.063305e+01  -1.986078e+02
   1.951966e+02  -3.218500e+02
   3.222283e+02  -2.022061e+02
   3.017363e+02   1.207173e+02
   6.756978e+01   4.588287e+02
  -1.413202e+02   4.155706e+02
  -1.566118e+02   9.811676e+01
  -4.025157e+01  -4.884026e+01
  -2.068840e+01   9.045009e+01
  -1.598124e+02   1.534176e+02
  -2.710886e+02  -1.953177e+01
  -1.861360e+02  -2.617372e+02
   5.236018e+01  -2.806178e+02
   2.336770e+02  -2.866955e+01
   2.019948e+02   2.376765e+02
  -1.044149e+01   3.047448e+02
  -2.534842e+02   1.375454e+02
  -3.475899e+02  -1.712118e+02
  -1.980323e+02  -3.794216e+02
   1.067879e+02  -3.237529e+02
   2.328005e+02  -1.096102e+02
   1.491915e+02   1.868429e+01
   8.993720e+01  -2.095418e+01
   2.093116e+02  -5.965521e+01
   4.125046e+02   2.427389e+01
   3.144415e+02   2.833423e+02
   2.425412e+01   4.331169e+02
  -3.468455e+02   3.854029e+02
  -4.794544e+02   1.999618e+02
  -3.581912e+02  -9.174989e+01
  -7.424763e+01  -2.853892e+02
   1.389863e+02  -2.546059e+02
   9.798107e+01  -3.830325e+01
  -1.122684e+02   1.180898e+02
  -2.177322e+02  -1.427404e+01
  -6.552780e+01  -1.994516e+02
   1.781524e+02  -1.576480e+02
   2.041450e+02   6.037775e+01
  -1.536918e+01   2.030941e+02
  -2.004090e+02   4.124269e+01
  -1.616544e+02  -2.472195e+02
   2.774551e+01  -3.363186e+02
   2.113227e+02  -1.868166e+02
   3.000116e+02   7.389009e+01
   2.684811e+02   2.345283e+02
   1.008736e+02   2.548244e+02
  -1.238145e+02   1.690528e+02
  -1.684128e+02   2.978369e+01
  -6.819065e+01  -4.294052e+01
   7.027294e+01   2.815320e+01
   3.703472e+01   1.316570e+02
  -1.202791e+02   1.151329e+02
  -2.032337e+02  -3.814209e+00
  -7.203124e+01  -8.111671e+01
   7.504618e+01  -2.724545e+01
   5.909647e+01   6.789318e+01
  -9.907072e+01   8.272996e+01
  -2.681734e+02   1.394166e+00
  -2.513711e+02  -1.174874e+02
  -8.390584e+01  -2.432217e+02
   1.729598e+02  -2.491513e+02
   2.818211e+02  -1.348098e+02
   1.825297e+02   5.867335e+01
  -2.663466e+01   1.177911e+02
  -9.596591e+01   9.197063e+00
   2.983098e+01  -1.078401e+02
   1.787759e+02  -6.186311e+01
   2.065281e+02   9.500243e+01
   6.587247e+01   2.179789e+02
  -8.882077e+01   1.561041e+02
  -1.485757e+02   3.347707e+01
  -8.645300e+01  -4.472605e+01
   2.102414e+01  -9.289554e+00
   3.435861e+01   7.394443e+01
  -5.617148e+01   1.121074e+02
  -1.973783e+02   3.626068e+01
  -1.788671e+02  -1.133626e+02
  -2.801890e+01  -2.105223e+02
   1.660250e+02  -1.834591e+02
   1.915758e+02  -1.031633e+01
   6.360720e+01   1.250870e+02
  -6.479176e+01   1.168788e+02
  -8.817705e+01   2.991314e+01
  -2.600016e+01  -2.397324e+01
   1.803857e+01  -2.205734e+01
  -1.046616e+01   2.669075e+00
  -5.525758e+01  -1.538626e+01
  -8.684201e+01  -8.146808e+01
  -1.513211e+01  -1.373994e+02
   1.135074e+02  -1.443500e+02
   2.235886e+02  -1.851654e+01
   1.979096e+02   1.418775e+02
   4.555011e+01   2.351120e+02
  -1.092199e+02   1.663989e+02
  -1.409726e+02   2.349158e+01
  -6.860640e+01  -5.781943e+01
  -2.981928e+01  -4.061337e+01
  -4.987621e+01   1.047338e+01
  -7.312096e+01   2.421761e+00
  -3.415985e+01  -4.580931e+01
   4.103811e+01  -8.151545e+01
   9.035233e+01  -4.826870e+01
   7.653866e+01   3.013551e+01
  -8.999484e+00   1.018409e+02
  -1.407685e+02   9.044200e+01
  -1.942807e+02  -5.834844e+01
  -1.080520e+02  -1.821775e+02
   1.024912e+02  -2.348402e+02
   2.608722e+02  -7.922379e+01
   2.680819e+02   7.299732e+01
   1.192637e+02   1.756336e+02
  -3.728622e+01   1.451057e+02
  -9.578605e+01   9.129813e+01
  -8.301644e+01   7.449958e+01
  -5.951122e+01   8.708630e+01
  -8.414200e+01   7.042389e+01
  -1.307056e+02  -1.861686e+01
  -1.060749e+02  -1.435550e+02
  -2.900521e+01  -2.269115e+02
   9.635627e+01  -1.753223e+02
   1.812923e+02  -3.433344e+01
   1.298207e+02   1.163421e+02
   2.565080e+01   1.498814e+02
  -7.129630e+01   1.048577e+02
  -6.225673e+01   5.624294e+00
  -1.084438e+01  -3.635609e+01
   5.345637e+00  -3.101787e+01
  -4.382216e+01  -2.104269e+01
  -7.482651e+01  -2.139432e+01
  -3.928640e+01  -3.703499e+01
   5.922250e+01  -3.445395e+01
   1.416199e+02  -1.063244e+01
   1.362024e+02   4.268107e+01
   1.788161e+01   8.616961e+01
  -1.068512e+02   7.164625e+01
  -1.374716e+02   1.933062e+01
  -4.716199e+01  -3.887361e+01
   5.672508e+01  -3.420951e+01
   7.562643e+01   1.950203e+01
   4.897528e+00   6.854345e+01
  -5.667417e+01   5.476637e+01
  -6.243111e+01  -3.032278e+00
  -3.765639e+01  -4.820197e+01
  -4.349849e+01  -4.164529e+01
  -6.115097e+01  -1.836406e+00
  -6.631512e+01  -3.449118e+00
  -3.714175e+01  -6.490856e+01
   4.525441e+01  -1.331882e+02
   9.709183e+01  -1.316064e+02
   1.441346e+02  -2.410367e+01
   1.196921e+02   8.597918e+01
   8.819421e+00   1.166001e+02
  -7.681370e+01   5.724893e+01
  -5.838247e+01  -1.668952e+01
   5.757700e+01  -1.583748e+01
   1.415023e+02   4.113901e+01
   7.826076e+01   1.039538e+02
  -8.172306e+01   1.125334e+02
  -1.684548e+02   5.045081e+01
  -1.581875e+02  -3.390916e+01
  -3.548003e+01  -7.706878e+01
   5.599042e+01  -7.021920e+01
   4.726613e+01  -8.402432e+00
  -3.777966e+01   2.477250e+01
  -9.237775e+01  -2.531876e+01
  -2.505416e+01  -1.070949e+02
   9.231380e+01  -1.400183e+02
   1.704507e+02  -6.263575e+01
   1.198482e+02   1.053945e+02
   4.972982e+00   1.984473e+02
  -8.484667e+01   1.430079e+02
  -1.053989e+02  -1.078246e+01
  -6.246251e+01  -1.125416e+02
  -4.257359e+00  -1.102596e+02
   4.348475e+01  -2.226223e+01
   5.153460e+01   3.000277e+01
   2.793685e+01   8.504635e+00
   3.656059e+00  -2.078209e+01
   1.387457e+01   1.410507e+01
   5.347479e+01   9.199536e+01
   4.675682e+01   1.072009e+02
  -4.592730e+01   4.791979e+01
  -1.260860e+02  -3.638453e+01
  -1.343122e+02  -7.340409e+01
  -1.508976e+01  -4.848184e+01
   8.524135e+01  -2.515309e+01
   9.001532e+01  -4.367573e+00
   1.062440e+01   6.253435e+00
  -3.839620e+01   2.285448e+01
  -1.256626e+01   2.046338e+01
   2.426513e+01  -4.149404e-01
  -7.137463e+00  -1.037578e+01
  -7.715935e+01  -4.420868e+00
  -8.992589e+01  -2.144818e+01
  -2.760635e+00  -7.790664e+01
   1.097559e+02  -1.112911e+02
   1.778679e+02  -5.747526e+01
   1.408200e+02   6.416138e+01
   2.223879e+01   1.529744e+02
  -7.614907e+01   1.355564e+02
  -1.147060e+02   5.595178e+01
  -7.809322e+01  -1.957877e+01
  -2.222061e+01  -3.455716e+01
   5.282163e+00  -5.989870e+00
  -7.807548e+00  -2.254664e+00
  -3.118238e+01  -4.482160e+01
  -2.083683e+01  -9.010908e+01
   2.800793e+01  -6.518869e+01
   8.403135e+01   2.070182e+01
   6.522982e+01   1.059729e+02
   6.969923e+00   1.049823e+02
  -8.177068e+01   1.983697e+01
  -9.073393e+01  -7.486400e+01
  -3.140944e+01  -9.762812e+01
   6.688675e+01  -5.199432e+01
   9.399633e+01   1.398121e+01
   3.328496e+01   4.467598e+01
  -3.005351e+01   4.854066e+01
  -2.773594e+01   2.708295e+01
   3.678126e+01   1.311435e+00
   6.304939e+01  -5.735116e+00
   1.268090e+01   2.406072e+01
  -7.025759e+01   6.215709e+01
  -1.185234e+02   5.726867e+01
  -5.664191e+01  -5.946331e+00
   1.657852e+01  -7.463030e+01
   5.182262e+01  -7.031494e+01
   3.113875e+01  -4.635329e-02
  -2.259899e+00   5.461911e+01
  -2.673137e+01   3.842420e+01
  -3.461597e+01  -2.089948e+01
  -2.513961e+01  -5.106489e+01
   3.002871e+00  -2.652031e+01
   3.066866e+01   9.449885e+00
   3.841252e+01   1.790484e+01
   1.947650e+01   6.266869e-01
  -4.540524e-01  -1.110271e+01
  -8.141070e+00   6.302134e+00
  -6.483273e+00   3.778890e+01
  -2.217129e+01   4.257862e+01
  -2.964285e+01   5.909735e+00
  -2.887856e+01  -4.789709e+01
   7.181950e+00  -6.045772e+01
   4.901378e+01  -1.906403e+01
   5.415439e+01   3.590672e+01
   1.161169e+01   6.147964e+01
  -5.766717e+01   3.450700e+01
  -7.846110e+01  -1.728485e+01
  -4.979126e+01  -4.076680e+01
   2.674031e+01  -3.617602e+01
   6.040338e+01  -1.904538e+01
   2.292262e+01  -4.931310e+00
  -4.329358e+01  -3.099862e+00
  -4.111012e+01  -1.804136e+01
   3.187065e+01  -3.178728e+01
   9.191079e+01  -1.884165e+01
