
 $NMID
 id='ANONYMOUS ', fmtdat='(2E16.6)'
 volume=1.0
 tramp=1.0
 $END
   4.392238e+03  -1.681316e+01
   2.500054e+03   3.019490e+03
  -8.890972e+02   2.972386e+03
  -2.179361e+03   8.867951e+02
  -9.996005e+02  -7.707002e+02
   7.626736e+02  -6.669719e+02
   9.882820e+02   4.909259e+02
  -4.976445e+01   1.059136e+03
  -9.232303e+02   8.222431e+02
  -1.034749e+03  -1.763498e+02
  -4.346518e+02  -8.565858e+02
   2.967236e+02  -9.517341e+02
   6.664083e+02  -1.219961e+02
   4.539545e+02   8.201105e+02
  -2.963569e+02   7.166693e+02
  -6.765497e+02  -4.395079e+01
  -3.162490e+02  -6.984414e+02
   3.836028e+02  -6.540015e+02
   6.764846e+02  -7.195613e+01
   3.982642e+02   3.895178e+02
   3.263137e+01   4.485231e+02
  -2.690226e+02   2.534808e+02
  -2.465662e+02  -1.320656e+01
   1.189688e+02  -9.130920e+01
   4.160929e+02   9.286986e+01
   2.557190e+02   4.106330e+02
  -4.692007e+02   4.978885e+02
  -9.109673e+02  -6.119443e+01
  -4.055920e+02  -6.097549e+02
   4.054780e+02  -5.621701e+02
   7.742717e+02   1.320856e+01
   4.247131e+02   5.359110e+02
  -2.690896e+02   5.652358e+02
  -5.960987e+02   1.668799e+02
  -4.488150e+02  -2.162696e+02
  -7.408754e+01  -5.035969e+02
   2.192898e+02  -2.713595e+02
   2.012599e+02   2.432336e+02
  -1.597551e+02   4.924946e+02
  -4.624314e+02  -1.405147e+00
  -2.430778e+02  -7.109198e+02
   3.563866e+02  -7.488534e+02
   6.615662e+02  -3.176324e+01
   2.630707e+02   5.951024e+02
  -3.119877e+02   3.441169e+02
  -4.576484e+02  -3.799327e+02
   6.371487e+01  -5.823574e+02
   5.664857e+02  -1.378160e+02
   6.911456e+02   4.006995e+02
   1.723490e+02   6.162183e+02
  -3.794171e+02   3.391436e+02
  -7.030511e+02  -1.019320e+02
  -3.420929e+02  -3.974954e+02
   1.659565e+02  -3.657394e+02
   4.778626e+02  -7.450406e+01
   2.831772e+02   2.126101e+02
  -1.553039e+02   1.372162e+02
  -1.663126e+02  -1.871424e+02
   1.689079e+02  -1.914340e+02
   3.774696e+02   6.294906e+01
   1.364991e+02   3.201669e+02
  -2.315415e+02   2.596510e+02
  -3.124367e+02   4.961508e+01
  -1.745728e+02  -8.434826e+01
   1.873459e+01  -2.164342e+02
   2.202870e+02  -3.214544e+02
   3.175534e+02  -2.051114e+02
   3.218207e+02   1.086638e+02
   5.952664e+01   4.664673e+02
  -1.408077e+02   4.332384e+02
  -1.585145e+02   1.047076e+02
  -3.755410e+01  -3.048486e+01
  -2.824273e+01   8.980260e+01
  -1.836588e+02   1.501630e+02
  -2.811835e+02  -2.650273e+01
  -1.777077e+02  -2.604635e+02
   7.040491e+01  -2.740874e+02
   2.405720e+02  -2.173987e+01
   1.888250e+02   2.393048e+02
  -4.966725e-01   3.019255e+02
  -2.661554e+02   1.233337e+02
  -3.691119e+02  -1.751063e+02
  -1.747064e+02  -3.987923e+02
   1.009525e+02  -3.276089e+02
   2.226799e+02  -1.335180e+02
   1.421509e+02   1.928768e+01
   9.088143e+01  -1.528110e+01
   2.126132e+02  -6.190269e+01
   4.297333e+02   4.346005e+01
   3.271947e+02   2.929074e+02
   2.565851e+01   4.399865e+02
  -3.476604e+02   3.878889e+02
  -5.077580e+02   2.067148e+02
  -3.599288e+02  -9.919142e+01
  -7.801742e+01  -2.913111e+02
   1.232908e+02  -2.737521e+02
   9.639842e+01  -3.193541e+01
  -1.161017e+02   1.110866e+02
  -2.196643e+02  -1.110024e+01
  -6.221452e+01  -2.047032e+02
   1.641495e+02  -1.675774e+02
   2.099110e+02   6.809534e+01
  -7.413941e+00   2.069421e+02
  -2.137922e+02   4.113183e+01
  -1.680175e+02  -2.567091e+02
   2.450450e+01  -3.453699e+02
   2.111139e+02  -2.006295e+02
   2.975709e+02   9.112238e+01
   2.869589e+02   2.232158e+02
   9.887343e+01   2.657680e+02
  -1.287936e+02   1.695542e+02
  -1.658872e+02   2.996636e+01
  -6.937246e+01  -3.580717e+01
   6.911542e+01   2.933057e+01
   3.492418e+01   1.327928e+02
  -1.303980e+02   1.087384e+02
  -1.983469e+02  -1.080164e+01
  -6.681878e+01  -8.099953e+01
   7.392465e+01  -2.141790e+01
   5.624014e+01   6.703895e+01
  -1.145180e+02   8.431988e+01
  -2.781390e+02  -3.280381e+00
  -2.446395e+02  -1.105278e+02
  -8.717886e+01  -2.446528e+02
   1.775460e+02  -2.506698e+02
   2.842462e+02  -1.251260e+02
   1.868315e+02   6.044990e+01
  -2.306116e+01   1.193077e+02
  -9.188419e+01   9.805999e+00
   3.449659e+01  -1.078553e+02
   1.827194e+02  -6.614876e+01
   2.109523e+02   9.930683e+01
   6.790498e+01   2.191729e+02
  -9.314938e+01   1.580099e+02
  -1.541094e+02   3.133675e+01
  -8.453435e+01  -4.317603e+01
   1.985416e+01  -8.406897e+00
   3.538325e+01   8.081745e+01
  -6.303719e+01   1.148509e+02
  -2.023258e+02   4.227991e+01
  -1.886490e+02  -1.097099e+02
  -2.678649e+01  -2.150119e+02
   1.662398e+02  -1.824380e+02
   2.020928e+02   6.868459e-01
   6.574576e+01   1.197140e+02
  -6.823254e+01   1.237353e+02
  -8.469931e+01   3.362117e+01
  -2.510907e+01  -2.617713e+01
   1.856392e+01  -2.309409e+01
  -9.120169e+00   3.224091e+00
  -5.957136e+01  -1.478759e+01
  -8.504025e+01  -8.066749e+01
  -1.001858e+01  -1.425640e+02
   1.224653e+02  -1.508465e+02
   2.302842e+02  -2.170938e+01
   2.015153e+02   1.415867e+02
   4.382255e+01   2.452724e+02
  -1.198634e+02   1.656568e+02
  -1.463361e+02   2.868450e+01
  -7.351972e+01  -5.663156e+01
  -2.952014e+01  -3.676410e+01
  -5.155547e+01   1.210694e+01
  -7.456701e+01   1.982288e+00
  -3.849448e+01  -4.643131e+01
   4.145248e+01  -7.781447e+01
   9.814470e+01  -5.218944e+01
   8.116296e+01   3.411207e+01
  -1.117575e+01   1.040876e+02
  -1.392676e+02   9.313921e+01
  -1.961011e+02  -5.498614e+01
  -1.053570e+02  -1.877296e+02
   1.120131e+02  -2.430450e+02
   2.603673e+02  -8.920247e+01
   2.715192e+02   7.884191e+01
   1.177893e+02   1.709001e+02
  -4.201379e+01   1.421284e+02
  -9.569973e+01   8.797766e+01
  -8.026903e+01   7.527683e+01
  -6.723639e+01   8.606806e+01
  -8.358123e+01   7.268049e+01
  -1.352185e+02  -1.740393e+01
  -1.120829e+02  -1.537292e+02
  -2.785361e+01  -2.223848e+02
   1.062449e+02  -1.741422e+02
   1.829075e+02  -2.562188e+01
   1.387776e+02   1.175166e+02
   2.864331e+01   1.540129e+02
  -6.739507e+01   1.064193e+02
  -6.211677e+01   2.838596e+00
  -1.158932e+01  -3.660682e+01
   7.186035e+00  -3.273476e+01
  -4.240317e+01  -2.056036e+01
  -7.658366e+01  -2.032655e+01
  -4.374622e+01  -3.594299e+01
   6.238540e+01  -3.550175e+01
   1.513631e+02  -1.264186e+01
   1.340295e+02   4.409027e+01
   2.030281e+01   8.706739e+01
  -1.126145e+02   7.306371e+01
  -1.391790e+02   1.529329e+01
  -4.780513e+01  -3.690869e+01
   5.746029e+01  -3.719739e+01
   7.695248e+01   1.991798e+01
   8.502518e+00   6.781749e+01
  -6.027372e+01   5.398933e+01
  -6.266265e+01  -5.211736e+00
  -3.906662e+01  -4.888207e+01
  -4.460203e+01  -4.511208e+01
  -6.410881e+01   1.026224e+00
  -6.888982e+01  -4.177057e+00
  -3.639229e+01  -6.931779e+01
   4.563051e+01  -1.395486e+02
   1.033069e+02  -1.285062e+02
   1.483255e+02  -2.793938e+01
   1.194702e+02   8.991631e+01
   6.585284e+00   1.241467e+02
  -8.175164e+01   6.114922e+01
  -6.160675e+01  -1.982407e+01
   5.839069e+01  -1.440735e+01
   1.408465e+02   3.638866e+01
   8.530435e+01   1.105966e+02
  -8.216294e+01   1.130109e+02
  -1.822683e+02   5.096611e+01
  -1.647000e+02  -3.465013e+01
  -3.631919e+01  -7.978131e+01
   5.769654e+01  -6.803009e+01
   4.983256e+01  -7.150151e+00
  -4.043974e+01   2.441813e+01
  -9.098975e+01  -2.995170e+01
  -2.636332e+01  -1.142922e+02
   9.195217e+01  -1.431530e+02
   1.780051e+02  -6.305737e+01
   1.248634e+02   1.079301e+02
   1.701364e+00   2.050175e+02
  -8.919640e+01   1.448199e+02
  -1.057811e+02  -8.782921e+00
  -6.509931e+01  -1.167462e+02
   8.931642e-01  -1.139162e+02
   4.582106e+01  -2.223082e+01
   5.413476e+01   3.089898e+01
   2.722705e+01   8.040756e+00
   3.182107e+00  -2.049879e+01
   1.618880e+01   1.556864e+01
   5.521136e+01   9.469276e+01
   4.501651e+01   1.119196e+02
  -4.845631e+01   4.862102e+01
  -1.322959e+02  -3.150255e+01
  -1.287146e+02  -7.369193e+01
  -1.612168e+01  -4.889429e+01
   8.889736e+01  -2.358775e+01
   9.344398e+01  -2.846103e+00
   9.445943e+00   7.273503e+00
  -4.093937e+01   2.255727e+01
  -1.294716e+01   1.965557e+01
   2.430117e+01  -1.052935e+00
  -6.134088e+00  -9.865542e+00
  -7.586303e+01  -2.536384e+00
  -8.944132e+01  -2.277787e+01
  -3.936627e+00  -8.061575e+01
   1.148612e+02  -1.112895e+02
   1.814459e+02  -5.324776e+01
   1.462524e+02   6.468114e+01
   2.612240e+01   1.541955e+02
  -7.860098e+01   1.362239e+02
  -1.186163e+02   5.507850e+01
  -7.664890e+01  -1.723124e+01
  -2.361521e+01  -3.607728e+01
   4.483079e+00  -7.305011e+00
  -8.873044e+00  -3.120140e+00
  -3.217030e+01  -4.462373e+01
  -1.960521e+01  -8.897285e+01
   2.721730e+01  -6.695979e+01
   8.427619e+01   1.887697e+01
   7.266670e+01   1.034479e+02
   3.982704e+00   1.080538e+02
  -8.286588e+01   2.237622e+01
  -9.339496e+01  -7.680229e+01
  -3.111340e+01  -9.954254e+01
   6.568084e+01  -5.121707e+01
   1.012189e+02   1.394830e+01
   3.479978e+01   4.679065e+01
  -2.871911e+01   5.101512e+01
  -2.963250e+01   2.729289e+01
   3.551908e+01   7.120519e-01
   6.804323e+01  -6.428499e+00
   1.363077e+01   2.498753e+01
  -7.245051e+01   6.658244e+01
  -1.174290e+02   6.204309e+01
  -6.196819e+01  -5.674790e+00
   1.649148e+01  -7.900056e+01
   5.419628e+01  -6.796280e+01
   3.262276e+01  -3.817753e+00
  -2.774368e+00   5.514556e+01
  -2.413558e+01   4.146198e+01
  -3.395188e+01  -2.161309e+01
  -2.564288e+01  -5.060888e+01
   3.432306e+00  -2.986189e+01
   3.194297e+01   8.756579e+00
   3.851030e+01   1.807879e+01
   1.919125e+01   3.029787e-01
   1.218764e-01  -1.205956e+01
  -8.188807e+00   5.251064e+00
  -5.548790e+00   4.161248e+01
  -2.446486e+01   4.263992e+01
  -3.257904e+01   7.317690e+00
  -2.938549e+01  -4.701400e+01
   8.956007e+00  -6.577839e+01
   4.813815e+01  -1.761014e+01
   5.906590e+01   3.700260e+01
   1.188778e+01   6.172913e+01
  -5.897282e+01   3.644478e+01
  -8.257887e+01  -1.897213e+01
  -5.261849e+01  -4.004130e+01
   2.786425e+01  -3.692787e+01
   6.272694e+01  -2.305747e+01
   2.292599e+01  -5.163294e+00
  -3.962007e+01  -3.383761e+00
  -3.996423e+01  -1.705801e+01
   3.148805e+01  -3.310837e+01
   9.108491e+01  -1.917116e+01
