
 $NMID
 id='ANONYMOUS ', fmtdat='(2E16.6)'
 volume=1.0
 tramp=1.0
 $END
  -4.521739e+03   1.123889e+02
  -2.438996e+03  -2.964903e+03
   1.046293e+03  -2.895637e+03
   2.212458e+03  -9.216985e+02
   1.057284e+03   7.571376e+02
  -7.942458e+02   6.555598e+02
  -9.573280e+02  -4.681454e+02
   3.541316e+01  -1.068502e+03
   9.019239e+02  -8.095552e+02
   1.026963e+03   1.769528e+02
   4.335601e+02   8.584767e+02
  -3.067581e+02   9.503562e+02
  -6.854505e+02   1.160859e+02
  -4.145313e+02  -8.476075e+02
   2.611748e+02  -7.564053e+02
   6.765702e+02   9.987648e+00
   2.969643e+02   7.298318e+02
  -3.685406e+02   6.674017e+02
  -6.653850e+02   7.746053e+01
  -4.005113e+02  -3.993903e+02
  -2.840160e+01  -4.598052e+02
   2.604802e+02  -2.718156e+02
   2.416624e+02  -4.962086e+00
  -1.255449e+02   1.064768e+02
  -4.069634e+02  -8.948641e+01
  -2.621604e+02  -4.095294e+02
   4.550306e+02  -4.596343e+02
   9.397031e+02   3.605041e+01
   4.189646e+02   5.935950e+02
  -3.699309e+02   5.386029e+02
  -7.838643e+02  -3.670873e+01
  -4.102617e+02  -5.272867e+02
   2.706848e+02  -5.754311e+02
   5.772847e+02  -1.664233e+02
   4.422891e+02   2.078998e+02
   8.574570e+01   5.085865e+02
  -2.028032e+02   2.758054e+02
  -2.053966e+02  -2.229849e+02
   1.790793e+02  -4.875116e+02
   4.415645e+02   7.027840e+00
   2.318651e+02   7.301845e+02
  -3.245983e+02   7.331689e+02
  -6.786836e+02   3.287328e+01
  -2.517521e+02  -5.899005e+02
   2.942324e+02  -3.587977e+02
   4.631302e+02   3.606745e+02
  -5.620376e+01   6.035053e+02
  -5.537259e+02   1.220842e+02
  -7.119530e+02  -4.232658e+02
  -1.790977e+02  -6.192978e+02
   3.759315e+02  -3.465395e+02
   7.040019e+02   1.054455e+02
   3.652242e+02   4.034986e+02
  -1.647638e+02   3.550591e+02
  -4.626041e+02   7.940911e+01
  -2.904287e+02  -2.061629e+02
   1.391565e+02  -1.440675e+02
   1.692591e+02   1.815566e+02
  -1.675709e+02   1.972195e+02
  -3.755988e+02  -4.993951e+01
  -1.342661e+02  -3.216028e+02
   2.343303e+02  -2.637454e+02
   3.148359e+02  -5.238143e+01
   1.784483e+02   9.196085e+01
  -2.010760e+01   2.281805e+02
  -2.264394e+02   3.263232e+02
  -3.240631e+02   2.079567e+02
  -3.176557e+02  -1.172632e+02
  -5.679830e+01  -4.775915e+02
   1.487956e+02  -4.165043e+02
   1.527008e+02  -9.760104e+01
   3.508698e+01   2.653500e+01
   2.808364e+01  -8.798882e+01
   1.958915e+02  -1.415754e+02
   2.857934e+02   2.394355e+01
   1.796906e+02   2.656345e+02
  -7.991848e+01   2.773768e+02
  -2.410287e+02   1.569612e+01
  -1.845781e+02  -2.373318e+02
  -4.405408e+00  -3.089335e+02
   2.803696e+02  -1.187850e+02
   3.676768e+02   1.965580e+02
   1.673707e+02   3.953544e+02
  -1.022381e+02   3.302996e+02
  -2.208946e+02   1.435732e+02
  -1.500464e+02  -1.346137e+01
  -9.397373e+01   1.967294e+01
  -2.302830e+02   6.175808e+01
  -4.295722e+02  -4.470751e+01
  -3.183369e+02  -3.095419e+02
  -1.457265e+01  -4.301793e+02
   3.597882e+02  -3.958598e+02
   5.046110e+02  -1.982653e+02
   3.497823e+02   9.342183e+01
   7.556127e+01   2.989779e+02
  -1.302003e+02   2.687493e+02
  -9.432026e+01   2.359635e+01
   1.192466e+02  -1.135152e+02
   2.139807e+02   1.210379e+01
   5.966355e+01   2.143885e+02
  -1.619137e+02   1.735449e+02
  -2.055022e+02  -6.396857e+01
   7.702162e+00  -2.008743e+02
   2.156589e+02  -3.950326e+01
   1.653445e+02   2.590791e+02
  -2.777653e+01   3.420942e+02
  -2.174335e+02   2.090704e+02
  -3.113248e+02  -8.938555e+01
  -2.859211e+02  -2.289175e+02
  -9.169224e+01  -2.701156e+02
   1.285316e+02  -1.690602e+02
   1.680282e+02  -2.874340e+01
   6.865649e+01   3.277402e+01
  -6.949592e+01  -3.135918e+01
  -3.403361e+01  -1.339236e+02
   1.344146e+02  -1.138721e+02
   1.931122e+02   1.642777e+01
   6.822157e+01   8.691986e+01
  -7.297007e+01   1.884857e+01
  -5.809738e+01  -7.258517e+01
   1.167632e+02  -8.628634e+01
   2.798321e+02  -1.968032e+00
   2.479383e+02   1.120781e+02
   8.490236e+01   2.495906e+02
  -1.853879e+02   2.601016e+02
  -2.972664e+02   1.228715e+02
  -1.847908e+02  -5.855792e+01
   2.672681e+01  -1.206937e+02
   8.982177e+01  -9.478009e+00
  -3.503156e+01   1.079379e+02
  -1.885174e+02   6.450136e+01
  -2.142361e+02  -1.072839e+02
  -7.321074e+01  -2.185237e+02
   9.628190e+01  -1.592250e+02
   1.531626e+02  -3.546040e+01
   7.979632e+01   4.371923e+01
  -2.042166e+01   7.402986e+00
  -3.405835e+01  -8.094494e+01
   6.377307e+01  -1.153669e+02
   1.989188e+02  -4.075120e+01
   1.944727e+02   1.105605e+02
   2.529578e+01   2.198265e+02
  -1.667915e+02   1.883948e+02
  -2.048797e+02   4.522698e+00
  -7.100964e+01  -1.183668e+02
   6.921772e+01  -1.266515e+02
   8.616304e+01  -3.337619e+01
   2.180372e+01   2.791166e+01
  -1.945643e+01   2.271238e+01
   1.078455e+01  -5.074776e+00
   6.153535e+01   1.368411e+01
   8.750072e+01   8.244296e+01
   1.199729e+01   1.475833e+02
  -1.307738e+02   1.476258e+02
  -2.383595e+02   2.673929e+01
  -2.045075e+02  -1.502185e+02
  -3.743737e+01  -2.546037e+02
   1.228198e+02  -1.680226e+02
   1.505040e+02  -2.948317e+01
   7.802439e+01   5.571395e+01
   3.016150e+01   3.827674e+01
   5.103182e+01  -1.203833e+01
   7.830997e+01  -2.717672e+00
   4.022201e+01   4.853960e+01
  -4.328370e+01   8.105209e+01
  -9.971009e+01   5.843924e+01
  -8.583024e+01  -3.523616e+01
   1.134855e+01  -1.052876e+02
   1.403413e+02  -9.682560e+01
   1.965757e+02   5.733723e+01
   1.091868e+02   1.950869e+02
  -1.139154e+02   2.443050e+02
  -2.600319e+02   9.733241e+01
  -2.746338e+02  -7.762404e+01
  -1.234238e+02  -1.706976e+02
   4.114748e+01  -1.447770e+02
   9.494241e+01  -8.945310e+01
   8.216793e+01  -7.651761e+01
   6.701871e+01  -8.707834e+01
   8.660658e+01  -7.466667e+01
   1.354032e+02   2.042262e+01
   1.139989e+02   1.585978e+02
   2.203867e+01   2.269125e+02
  -1.057554e+02   1.700352e+02
  -1.840748e+02   1.799310e+01
  -1.423326e+02  -1.203497e+02
  -2.552307e+01  -1.564716e+02
   6.790263e+01  -1.045360e+02
   6.307848e+01  -4.239493e+00
   1.064439e+01   3.877900e+01
  -6.865103e+00   3.261300e+01
   4.172872e+01   1.934102e+01
   8.064278e+01   2.205838e+01
   4.648479e+01   3.688264e+01
  -6.383263e+01   3.617331e+01
  -1.556137e+02   1.522927e+01
  -1.331012e+02  -4.279244e+01
  -1.856016e+01  -8.732979e+01
   1.147742e+02  -7.003135e+01
   1.401040e+02  -1.637507e+01
   4.591478e+01   3.738527e+01
  -6.044427e+01   3.861500e+01
  -7.932309e+01  -2.091646e+01
  -7.168549e+00  -6.759507e+01
   6.192438e+01  -5.396036e+01
   6.429127e+01   5.909921e+00
   4.269102e+01   4.992801e+01
   4.475128e+01   4.478117e+01
   6.492102e+01  -1.179495e+00
   7.087586e+01   5.133987e+00
   3.420554e+01   7.045678e+01
  -4.116116e+01   1.419294e+02
  -1.032238e+02   1.360634e+02
  -1.571766e+02   3.311731e+01
  -1.202804e+02  -8.785914e+01
  -6.853145e+00  -1.258914e+02
   8.203706e+01  -6.648199e+01
   6.024744e+01   2.040889e+01
  -5.901460e+01   1.499867e+01
  -1.422055e+02  -3.982167e+01
  -8.076930e+01  -1.139101e+02
   7.971343e+01  -1.122397e+02
   1.885851e+02  -4.997547e+01
   1.658738e+02   3.857015e+01
   3.540817e+01   8.454808e+01
  -6.205641e+01   6.878530e+01
  -5.018878e+01   7.259722e+00
   4.052543e+01  -2.527555e+01
   9.007445e+01   2.894669e+01
   2.922774e+01   1.153233e+02
  -9.309910e+01   1.457543e+02
  -1.831680e+02   6.877510e+01
  -1.276378e+02  -1.138554e+02
  -3.072567e+00  -2.147079e+02
   9.187441e+01  -1.492344e+02
   1.080542e+02   7.428906e+00
   6.810907e+01   1.195400e+02
  -5.255190e+00   1.143714e+02
  -4.870095e+01   2.312430e+01
  -5.435827e+01  -3.264336e+01
  -2.731146e+01  -9.235807e+00
  -3.450011e+00   2.069113e+01
  -1.741658e+01  -1.472529e+01
  -5.476342e+01  -9.609718e+01
  -4.377807e+01  -1.132928e+02
   5.033501e+01  -4.780382e+01
   1.337191e+02   2.915776e+01
   1.265703e+02   7.316927e+01
   1.654873e+01   4.897947e+01
  -9.156843e+01   2.308128e+01
  -9.484862e+01   4.580182e+00
  -9.833436e+00  -6.720846e+00
   4.104532e+01  -2.252052e+01
   1.400879e+01  -2.003938e+01
  -2.374188e+01   8.010930e-01
   5.529808e+00   9.579667e+00
   7.588575e+01   1.419447e+00
   8.977060e+01   2.266506e+01
   3.798173e+00   8.086021e+01
  -1.173510e+02   1.110552e+02
  -1.851189e+02   4.811734e+01
  -1.470221e+02  -6.840826e+01
  -2.863439e+01  -1.568610e+02
   7.787635e+01  -1.403256e+02
   1.201797e+02  -5.667032e+01
   7.884517e+01   1.861893e+01
   2.421203e+01   3.724285e+01
  -4.304957e+00   7.993531e+00
   9.005255e+00   3.658624e+00
   3.438876e+01   4.622940e+01
   2.115587e+01   9.023864e+01
  -2.751992e+01   6.838985e+01
  -8.319488e+01  -2.059751e+01
  -7.437606e+01  -1.030896e+02
  -5.314989e+00  -1.108749e+02
   8.063550e+01  -2.442388e+01
   9.926914e+01   7.837824e+01
   2.991514e+01   1.008549e+02
  -6.373418e+01   5.135662e+01
  -1.018403e+02  -1.345457e+01
  -3.689809e+01  -4.722207e+01
   2.966351e+01  -5.188439e+01
   2.979974e+01  -2.813792e+01
  -3.589652e+01  -1.497808e+00
  -7.028914e+01   7.376221e+00
  -1.409631e+01  -2.545132e+01
   7.529370e+01  -6.671506e+01
   1.194636e+02  -6.244688e+01
   6.285253e+01   6.090943e+00
  -1.895533e+01   7.845581e+01
  -5.574712e+01   7.136486e+01
  -3.503711e+01   5.487910e+00
   3.203573e+00  -5.545308e+01
   2.450890e+01  -4.376127e+01
   3.429487e+01   2.134280e+01
   2.628671e+01   5.291415e+01
  -3.135855e+00   3.167066e+01
  -3.255152e+01  -9.505187e+00
  -3.994023e+01  -1.797265e+01
  -1.920029e+01  -1.224308e-01
   5.500618e-01   1.335751e+01
   7.599892e+00  -3.329459e+00
   6.656164e+00  -4.180093e+01
   2.359694e+01  -4.354904e+01
   3.514294e+01  -7.724029e+00
   2.860153e+01   4.731609e+01
  -8.338153e+00   6.444763e+01
  -4.971906e+01   1.840753e+01
  -5.773077e+01  -3.681841e+01
  -1.203334e+01  -6.415262e+01
   5.958508e+01  -3.777509e+01
   8.380272e+01   1.871239e+01
   5.318610e+01   4.014688e+01
  -2.821345e+01   3.840221e+01
  -6.558123e+01   2.455903e+01
  -2.353694e+01   5.142930e+00
   3.932401e+01   2.283099e+00
   4.066080e+01   1.572511e+01
  -3.225217e+01   3.204328e+01
  -9.395492e+01   1.964549e+01
