
 $NMID
 id='ANONYMOUS ', fmtdat='(2E16.6)'
 volume=1.0
 tramp=1.0
 $END
   4.472409e+03  -1.999533e+02
   2.423562e+03   2.863168e+03
  -1.135248e+03   2.822945e+03
  -2.174809e+03   8.791683e+02
  -9.518399e+02  -8.189866e+02
   8.351496e+02  -6.351769e+02
   9.821220e+02   5.032042e+02
  -3.605897e+01   1.091553e+03
  -8.754612e+02   8.661238e+02
  -1.025642e+03  -1.744071e+02
  -3.972254e+02  -8.504031e+02
   3.224904e+02  -9.445904e+02
   6.939835e+02  -9.493603e+01
   3.870797e+02   8.380781e+02
  -2.993734e+02   7.708903e+02
  -6.985063e+02  -7.636297e+00
  -3.042707e+02  -7.260119e+02
   3.679646e+02  -6.776208e+02
   6.644471e+02  -8.004332e+01
   3.987478e+02   4.018544e+02
   1.651835e+01   4.674127e+02
  -2.604681e+02   2.661988e+02
  -2.447367e+02  -7.143902e+00
   1.077952e+02  -9.971828e+01
   4.192637e+02   8.167400e+01
   2.723544e+02   4.212240e+02
  -4.683335e+02   4.447006e+02
  -9.550213e+02  -3.619977e+01
  -4.517042e+02  -5.617654e+02
   3.661732e+02  -5.224374e+02
   7.681271e+02   1.154243e+01
   3.861216e+02   5.236915e+02
  -2.864735e+02   5.553823e+02
  -5.729008e+02   1.395339e+02
  -4.380440e+02  -2.148769e+02
  -9.312133e+01  -5.181729e+02
   2.132980e+02  -3.007479e+02
   1.955001e+02   2.229952e+02
  -2.103046e+02   4.946336e+02
  -4.536784e+02   7.472759e+00
  -2.182849e+02  -7.539318e+02
   3.435620e+02  -7.276590e+02
   6.953594e+02  -1.801839e+01
   2.714666e+02   5.700061e+02
  -2.990463e+02   3.563522e+02
  -4.517524e+02  -3.560093e+02
   4.951298e+01  -6.150238e+02
   5.437504e+02  -1.082121e+02
   6.873623e+02   4.246088e+02
   1.801508e+02   6.385749e+02
  -3.880496e+02   3.597068e+02
  -7.087477e+02  -1.109577e+02
  -3.922728e+02  -4.088449e+02
   1.651275e+02  -3.480287e+02
   4.734520e+02  -6.832112e+01
   2.972378e+02   2.135040e+02
  -1.270962e+02   1.467964e+02
  -1.557271e+02  -1.886068e+02
   1.893979e+02  -2.066608e+02
   3.790526e+02   5.023626e+01
   1.410816e+02   3.274029e+02
  -2.279296e+02   2.599481e+02
  -3.169378e+02   5.666160e+01
  -1.834681e+02  -8.927842e+01
   2.083748e+01  -2.296846e+02
   2.259738e+02  -3.378636e+02
   3.241190e+02  -2.165700e+02
   3.285568e+02   1.165424e+02
   5.071513e+01   4.748379e+02
  -1.425465e+02   4.076732e+02
  -1.431489e+02   9.982192e+01
  -4.227551e+01  -2.484695e+01
  -3.264123e+01   8.964656e+01
  -1.985246e+02   1.378373e+02
  -2.804818e+02  -1.238755e+01
  -1.799421e+02  -2.701338e+02
   8.727824e+01  -2.681874e+02
   2.355464e+02  -5.822667e+00
   1.789157e+02   2.403858e+02
   4.748715e+00   3.090777e+02
  -2.792759e+02   1.072981e+02
  -3.751330e+02  -1.956434e+02
  -1.621455e+02  -4.021198e+02
   8.099762e+01  -3.340737e+02
   2.266695e+02  -1.373521e+02
   1.491225e+02   1.343715e+01
   9.840089e+01  -2.745632e+01
   2.222168e+02  -6.462516e+01
   4.367895e+02   4.315580e+01
   3.035255e+02   2.965739e+02
   4.675911e+00   4.370518e+02
  -3.586064e+02   3.970735e+02
  -5.063700e+02   1.801446e+02
  -3.372774e+02  -9.207094e+01
  -6.897932e+01  -3.028071e+02
   1.356966e+02  -2.655958e+02
   8.448246e+01  -1.816515e+01
  -1.233666e+02   1.157037e+02
  -2.166925e+02  -7.967718e+00
  -6.397691e+01  -2.150508e+02
   1.646837e+02  -1.724726e+02
   2.038035e+02   6.092308e+01
  -7.934864e+00   2.016109e+02
  -2.127548e+02   3.626406e+01
  -1.672746e+02  -2.537095e+02
   2.945514e+01  -3.508305e+02
   2.177340e+02  -2.089994e+02
   3.170085e+02   8.008700e+01
   2.817160e+02   2.281451e+02
   1.044894e+02   2.727978e+02
  -1.273028e+02   1.654509e+02
  -1.781205e+02   2.550841e+01
  -7.085792e+01  -3.268826e+01
   6.824127e+01   3.252516e+01
   3.692866e+01   1.348148e+02
  -1.352005e+02   1.051675e+02
  -1.917504e+02  -1.663466e+01
  -6.413702e+01  -8.854069e+01
   7.083100e+01  -2.107264e+01
   5.757384e+01   7.209128e+01
  -1.160607e+02   8.992865e+01
  -2.785222e+02   1.759965e+00
  -2.543540e+02  -1.237620e+02
  -8.479150e+01  -2.487828e+02
   1.800335e+02  -2.567703e+02
   3.016664e+02  -1.300172e+02
   1.883443e+02   5.532948e+01
  -2.564484e+01   1.199084e+02
  -9.377807e+01   9.689853e+00
   3.359840e+01  -1.092098e+02
   1.850960e+02  -5.923577e+01
   2.097568e+02   1.115806e+02
   6.952840e+01   2.185642e+02
  -9.532175e+01   1.589652e+02
  -1.515156e+02   4.051813e+01
  -7.694269e+01  -4.518233e+01
   2.616015e+01  -9.673973e+00
   3.505879e+01   8.102210e+01
  -6.066708e+01   1.168110e+02
  -2.005899e+02   3.957130e+01
  -1.999952e+02  -1.092906e+02
  -2.134747e+01  -2.226564e+02
   1.712322e+02  -1.831922e+02
   2.075869e+02  -7.428171e+00
   7.481945e+01   1.191837e+02
  -7.005508e+01   1.285913e+02
  -9.007681e+01   3.519932e+01
  -2.125742e+01  -2.683614e+01
   1.947737e+01  -2.180637e+01
  -9.595914e+00   6.143079e+00
  -6.373896e+01  -1.158951e+01
  -8.542349e+01  -8.271730e+01
  -1.698999e+01  -1.527362e+02
   1.322204e+02  -1.531248e+02
   2.352898e+02  -3.119452e+01
   2.057523e+02   1.505131e+02
   3.946027e+01   2.590872e+02
  -1.227470e+02   1.677340e+02
  -1.517849e+02   2.968274e+01
  -7.806671e+01  -5.855742e+01
  -2.928653e+01  -3.874985e+01
  -5.108583e+01   1.244036e+01
  -7.860117e+01   4.614289e+00
  -4.171800e+01  -4.568732e+01
   4.065482e+01  -8.185791e+01
   1.030162e+02  -6.350543e+01
   8.626727e+01   3.406056e+01
  -9.202549e+00   1.054784e+02
  -1.370209e+02   9.761790e+01
  -1.974617e+02  -5.824569e+01
  -1.148882e+02  -1.969102e+02
   1.158794e+02  -2.503117e+02
   2.608581e+02  -9.991001e+01
   2.750979e+02   8.263776e+01
   1.273572e+02   1.737774e+02
  -3.797310e+01   1.483931e+02
  -9.593775e+01   8.936956e+01
  -7.991858e+01   7.454141e+01
  -6.192908e+01   8.597467e+01
  -8.479052e+01   7.839187e+01
  -1.331866e+02  -2.202066e+01
  -1.097438e+02  -1.593941e+02
  -1.748753e+01  -2.265550e+02
   1.066100e+02  -1.665893e+02
   1.835861e+02  -1.477817e+01
   1.473571e+02   1.192334e+02
   2.882019e+01   1.623735e+02
  -6.960327e+01   1.057731e+02
  -6.486848e+01   6.219287e+00
  -9.453054e+00  -3.973417e+01
   8.129650e+00  -3.297797e+01
  -3.995547e+01  -1.801055e+01
  -8.145752e+01  -2.289365e+01
  -4.629929e+01  -3.833174e+01
   6.410930e+01  -3.682286e+01
   1.573854e+02  -1.052587e+01
   1.363343e+02   4.399283e+01
   1.625276e+01   8.486555e+01
  -1.164853e+02   7.353602e+01
  -1.394574e+02   1.510164e+01
  -4.746268e+01  -3.974422e+01
   5.962102e+01  -3.913908e+01
   7.862469e+01   2.218597e+01
   7.252230e+00   6.832930e+01
  -6.054655e+01   5.325869e+01
  -6.331709e+01  -6.686347e+00
  -4.450167e+01  -4.992713e+01
  -4.522520e+01  -4.461173e+01
  -6.348371e+01   1.823617e-02
  -7.050578e+01  -3.349917e+00
  -3.512850e+01  -6.808830e+01
   3.820329e+01  -1.460725e+02
   1.034501e+02  -1.375509e+02
   1.622695e+02  -3.209764e+01
   1.236970e+02   8.068983e+01
   8.170399e+00   1.247630e+02
  -8.507295e+01   6.888532e+01
  -5.970924e+01  -2.163616e+01
   5.852282e+01  -1.459503e+01
   1.464870e+02   4.115979e+01
   7.989226e+01   1.133209e+02
  -8.029457e+01   1.107200e+02
  -1.888582e+02   4.903188e+01
  -1.660196e+02  -3.487723e+01
  -3.731443e+01  -8.416947e+01
   6.381600e+01  -7.025700e+01
   4.855411e+01  -6.562026e+00
  -4.023374e+01   2.605735e+01
  -8.901327e+01  -2.755948e+01
  -3.273343e+01  -1.159889e+02
   9.289616e+01  -1.441888e+02
   1.835496e+02  -7.509012e+01
   1.258173e+02   1.136603e+02
   5.654751e+00   2.158158e+02
  -9.021951e+01   1.500069e+02
  -1.063109e+02  -6.669299e+00
  -6.875260e+01  -1.197253e+02
   5.823622e+00  -1.091082e+02
   5.073523e+01  -2.376738e+01
   5.458730e+01   3.061137e+01
   2.707375e+01   9.791907e+00
   4.090086e+00  -2.070355e+01
   1.789879e+01   1.396656e+01
   5.646977e+01   9.178826e+01
   4.289158e+01   1.125193e+02
  -5.033709e+01   4.606440e+01
  -1.413403e+02  -3.106311e+01
  -1.252594e+02  -7.463970e+01
  -1.693395e+01  -4.868980e+01
   9.281249e+01  -2.022114e+01
   9.254080e+01  -5.467812e+00
   1.013063e+01   6.013334e+00
  -4.022529e+01   2.328892e+01
  -1.468278e+01   2.054937e+01
   2.317973e+01  -4.781884e-01
  -5.759358e+00  -9.781269e+00
  -7.441055e+01  -2.329728e+00
  -9.180745e+01  -2.258935e+01
  -4.089935e+00  -8.153183e+01
   1.217646e+02  -1.131829e+02
   1.912660e+02  -4.955100e+01
   1.445623e+02   6.511045e+01
   2.920275e+01   1.611025e+02
  -7.934111e+01   1.425389e+02
  -1.195223e+02   5.993374e+01
  -7.772134e+01  -1.939479e+01
  -2.387775e+01  -3.730027e+01
   4.676043e+00  -8.824500e+00
  -9.232087e+00  -3.861638e+00
  -3.544999e+01  -4.705711e+01
  -2.151857e+01  -8.857205e+01
   2.647919e+01  -6.789795e+01
   8.166236e+01   2.158419e+01
   7.666967e+01   1.050356e+02
   6.288191e+00   1.077299e+02
  -7.786282e+01   2.315112e+01
  -1.023624e+02  -7.862624e+01
  -3.227889e+01  -1.013064e+02
   6.313949e+01  -5.208454e+01
   1.027403e+02   1.367557e+01
   3.637940e+01   4.728952e+01
  -3.065806e+01   5.277243e+01
  -3.001929e+01   2.850309e+01
   3.526060e+01   1.105419e+00
   7.214942e+01  -1.012477e+01
   1.411800e+01   2.483702e+01
  -7.613207e+01   6.775556e+01
  -1.184125e+02   6.436113e+01
  -6.199319e+01  -6.845807e+00
   1.972025e+01  -7.802671e+01
   5.509561e+01  -7.449884e+01
   3.547668e+01  -4.287442e+00
  -2.408434e+00   5.470149e+01
  -2.360820e+01   4.344610e+01
  -3.514840e+01  -1.981203e+01
  -2.692650e+01  -5.432180e+01
   2.305548e+00  -3.237719e+01
   3.219000e+01   9.840359e+00
   4.032855e+01   1.830174e+01
   1.974812e+01  -4.616739e-01
  -8.499638e-01  -1.322127e+01
  -7.395529e+00   2.780687e+00
  -6.096430e+00   4.078036e+01
  -2.171507e+01   4.271740e+01
  -3.495667e+01   8.283246e+00
  -2.975868e+01  -4.627186e+01
   5.778044e+00  -6.376157e+01
   4.930182e+01  -1.857919e+01
   5.748459e+01   3.652536e+01
   1.066770e+01   6.394058e+01
  -5.703994e+01   3.923509e+01
  -8.341825e+01  -1.800097e+01
  -5.498861e+01  -3.940898e+01
   2.844053e+01  -3.941138e+01
   6.603191e+01  -2.565452e+01
   2.400322e+01  -5.898641e+00
  -3.918011e+01  -2.407129e+00
  -3.959145e+01  -1.531043e+01
   3.230810e+01  -3.115664e+01
   9.458885e+01  -2.005057e+01
