
 $NMID
 id='ANONYMOUS ', fmtdat='(2E16.6)'
 volume=1.0
 tramp=1.0
 $END
   4.319187e+03  -1.567624e+02
   2.515961e+03   3.026627e+03
  -9.547972e+02   2.931441e+03
  -2.247169e+03   9.489130e+02
  -8.666243e+02  -7.933828e+02
   9.469869e+02  -5.785950e+02
   9.212031e+02   4.894877e+02
  -4.079846e+01   1.157356e+03
  -8.920602e+02   8.804750e+02
  -1.061863e+03  -1.850135e+02
  -4.153614e+02  -8.688612e+02
   3.336832e+02  -9.564087e+02
   6.877896e+02  -1.278909e+02
   4.053820e+02   7.880229e+02
  -3.057674e+02   7.453591e+02
  -7.134882e+02  -3.520380e+01
  -2.856929e+02  -7.149645e+02
   3.272376e+02  -6.862573e+02
   6.273725e+02  -9.758393e+01
   4.256798e+02   3.658998e+02
   6.539073e+00   4.661677e+02
  -2.465452e+02   2.802340e+02
  -2.410270e+02  -3.178556e+00
   1.102392e+02  -1.127610e+02
   4.623636e+02   8.441303e+01
   2.822311e+02   4.405780e+02
  -4.789249e+02   4.263599e+02
  -9.483851e+02  -9.121059e+01
  -4.140075e+02  -6.081777e+02
   3.697856e+02  -5.120015e+02
   7.909712e+02   1.573185e+01
   3.602477e+02   5.154522e+02
  -3.026526e+02   5.498959e+02
  -5.562112e+02   1.506987e+02
  -4.294526e+02  -2.362737e+02
  -4.350830e+01  -5.031281e+02
   2.215544e+02  -3.051244e+02
   2.048100e+02   2.402243e+02
  -1.792629e+02   4.955196e+02
  -5.071016e+02   4.018144e+00
  -1.986830e+02  -7.426355e+02
   3.294730e+02  -6.959760e+02
   6.973780e+02   2.435412e+01
   3.001955e+02   6.121994e+02
  -3.060379e+02   3.351376e+02
  -4.210483e+02  -3.403417e+02
   6.122458e+01  -6.434418e+02
   5.411139e+02  -1.109361e+02
   6.906495e+02   4.192406e+02
   1.843365e+02   6.776087e+02
  -3.978922e+02   3.636927e+02
  -7.051227e+02  -1.199470e+02
  -3.862591e+02  -4.252950e+02
   1.888680e+02  -3.327932e+02
   4.724969e+02  -4.685483e+01
   2.689842e+02   2.155957e+02
  -1.373157e+02   1.377419e+02
  -1.588203e+02  -1.882150e+02
   1.795734e+02  -2.036138e+02
   3.819294e+02   6.524511e+01
   1.489503e+02   3.255834e+02
  -2.103725e+02   2.416741e+02
  -3.112474e+02   5.378365e+01
  -1.778283e+02  -9.261278e+01
   1.738531e+01  -2.279790e+02
   2.193795e+02  -3.452767e+02
   3.529394e+02  -2.471304e+02
   3.330585e+02   1.243173e+02
   5.703755e+01   4.558149e+02
  -1.208668e+02   4.040743e+02
  -1.328265e+02   9.887383e+01
  -3.530136e+01  -4.315707e+01
  -2.374597e+01   9.190605e+01
  -2.072068e+02   1.371722e+02
  -2.904158e+02  -1.991108e+01
  -1.820247e+02  -2.818456e+02
   7.905095e+01  -2.650632e+02
   2.282096e+02  -3.864288e+00
   1.880323e+02   2.448665e+02
  -7.023809e+00   3.042054e+02
  -2.803563e+02   1.033999e+02
  -3.835831e+02  -1.917710e+02
  -1.661150e+02  -3.805841e+02
   9.804126e+01  -3.192541e+02
   2.277620e+02  -1.297936e+02
   1.369918e+02   1.023195e+01
   9.434627e+01  -2.674291e+01
   2.340989e+02  -5.881390e+01
   4.287009e+02   5.296148e+01
   3.089452e+02   2.704531e+02
   1.558517e+00   4.269492e+02
  -3.810539e+02   4.076916e+02
  -4.883943e+02   1.990002e+02
  -3.248298e+02  -7.798607e+01
  -6.882948e+01  -3.049795e+02
   1.351279e+02  -2.646625e+02
   8.704690e+01  -2.824780e+01
  -1.209064e+02   1.171934e+02
  -2.344159e+02  -4.184886e+00
  -6.245273e+01  -2.017709e+02
   1.846825e+02  -1.870682e+02
   1.986037e+02   5.388267e+01
  -1.209936e+01   2.205341e+02
  -2.079037e+02   4.827225e+01
  -1.724796e+02  -2.543208e+02
   2.623810e+01  -3.475765e+02
   2.200344e+02  -1.920338e+02
   3.233846e+02   7.291534e+01
   2.873836e+02   2.266885e+02
   1.133311e+02   2.810764e+02
  -1.320756e+02   1.614501e+02
  -1.891063e+02   2.268960e+01
  -7.262827e+01  -3.229277e+01
   7.185384e+01   3.637976e+01
   3.419751e+01   1.392843e+02
  -1.366903e+02   1.045335e+02
  -1.932395e+02  -1.647825e+01
  -6.379858e+01  -8.416526e+01
   7.652750e+01  -2.410745e+01
   6.101166e+01   7.248738e+01
  -1.262437e+02   9.457958e+01
  -2.709538e+02   6.650458e+00
  -2.720423e+02  -1.251799e+02
  -7.824930e+01  -2.517869e+02
   1.759694e+02  -2.720221e+02
   3.072591e+02  -1.414502e+02
   1.866663e+02   4.932698e+01
  -2.797965e+01   1.241118e+02
  -9.585537e+01   5.942517e+00
   3.371574e+01  -1.087444e+02
   1.812741e+02  -5.858477e+01
   2.157535e+02   1.010493e+02
   6.747035e+01   2.248091e+02
  -9.233016e+01   1.640171e+02
  -1.481279e+02   4.124910e+01
  -7.886842e+01  -4.454090e+01
   2.584147e+01  -7.401735e+00
   3.488948e+01   8.402220e+01
  -6.259575e+01   1.226847e+02
  -2.010781e+02   3.853221e+01
  -2.107082e+02  -1.209678e+02
  -2.125682e+01  -2.150215e+02
   1.746445e+02  -1.869800e+02
   2.061223e+02  -1.201072e+01
   7.420839e+01   1.188515e+02
  -6.351348e+01   1.270353e+02
  -8.816644e+01   3.154631e+01
  -2.149211e+01  -2.921468e+01
   2.234799e+01  -2.120671e+01
  -9.007970e+00   5.958998e+00
  -6.478611e+01  -1.372199e+01
  -8.923507e+01  -8.288742e+01
  -2.111191e+01  -1.491164e+02
   1.278810e+02  -1.530278e+02
   2.482931e+02  -3.405097e+01
   2.079457e+02   1.540224e+02
   5.321375e+01   2.666485e+02
  -1.187794e+02   1.655229e+02
  -1.486392e+02   3.039975e+01
  -7.523747e+01  -6.014274e+01
  -3.112255e+01  -3.995113e+01
  -5.429252e+01   1.391520e+01
  -7.792336e+01   8.378317e+00
  -4.121899e+01  -4.944758e+01
   3.731756e+01  -8.698476e+01
   1.046015e+02  -5.844605e+01
   9.096941e+01   3.289232e+01
  -4.575950e+00   1.047522e+02
  -1.440011e+02   9.215826e+01
  -1.968676e+02  -4.990463e+01
  -1.112504e+02  -1.997338e+02
   1.168895e+02  -2.538664e+02
   2.731707e+02  -9.780513e+01
   2.720682e+02   9.588230e+01
   1.213089e+02   1.731040e+02
  -3.777616e+01   1.539074e+02
  -9.057795e+01   8.442666e+01
  -8.185136e+01   7.306077e+01
  -6.118667e+01   9.148229e+01
  -9.281905e+01   8.320162e+01
  -1.315092e+02  -2.476843e+01
  -1.072299e+02  -1.576742e+02
  -2.568495e+01  -2.249546e+02
   1.029706e+02  -1.689070e+02
   1.764082e+02  -1.411296e+01
   1.496356e+02   1.307248e+02
   1.883642e+01   1.642096e+02
  -7.072291e+01   1.061230e+02
  -6.904437e+01   8.785213e-01
  -1.087178e+01  -4.247945e+01
   5.471802e+00  -3.429651e+01
  -3.944348e+01  -1.752048e+01
  -8.345852e+01  -2.228255e+01
  -4.646815e+01  -3.912799e+01
   6.456811e+01  -3.571107e+01
   1.536578e+02  -1.380219e+01
   1.365631e+02   4.087382e+01
   1.966213e+01   8.625764e+01
  -1.188477e+02   7.317378e+01
  -1.411715e+02   1.677337e+01
  -4.869961e+01  -3.790069e+01
   5.930556e+01  -3.843266e+01
   7.826798e+01   1.989076e+01
   6.024280e+00   6.873083e+01
  -5.848708e+01   5.788180e+01
  -6.517936e+01  -3.805459e+00
  -4.540682e+01  -4.841636e+01
  -4.593230e+01  -4.402133e+01
  -6.386019e+01   2.217370e-01
  -7.273415e+01  -2.774227e+00
  -3.681790e+01  -6.383657e+01
   3.746770e+01  -1.448320e+02
   1.054005e+02  -1.407202e+02
   1.696586e+02  -3.248145e+01
   1.245743e+02   7.885166e+01
   8.067390e+00   1.273612e+02
  -8.995285e+01   6.851054e+01
  -5.829910e+01  -1.786800e+01
   5.914556e+01  -1.652529e+01
   1.471713e+02   3.990846e+01
   7.821588e+01   1.129705e+02
  -8.314671e+01   1.123217e+02
  -1.891703e+02   5.288491e+01
  -1.684540e+02  -3.387561e+01
  -3.877369e+01  -8.445238e+01
   6.755437e+01  -7.307899e+01
   5.007153e+01  -7.658008e+00
  -4.028645e+01   2.762759e+01
  -8.667621e+01  -2.432319e+01
  -3.552702e+01  -1.198798e+02
   9.106071e+01  -1.462938e+02
   1.793857e+02  -7.974022e+01
   1.245728e+02   1.107063e+02
   5.706868e+00   2.165401e+02
  -8.222475e+01   1.505257e+02
  -1.045744e+02  -5.485515e+00
  -6.668134e+01  -1.187281e+02
   2.505264e+00  -1.035110e+02
   5.105672e+01  -2.521500e+01
   5.401418e+01   3.174678e+01
   2.595430e+01   9.820841e+00
   4.238689e+00  -2.102296e+01
   1.766504e+01   1.466170e+01
   6.041270e+01   9.039571e+01
   4.520185e+01   1.098712e+02
  -4.825241e+01   4.936481e+01
  -1.383171e+02  -3.278910e+01
  -1.320776e+02  -7.359937e+01
  -1.953039e+01  -4.966465e+01
   8.965728e+01  -2.143902e+01
   9.527560e+01  -5.371318e+00
   1.084050e+01   6.547487e+00
  -4.021008e+01   2.228321e+01
  -1.644087e+01   1.932713e+01
   2.226212e+01  -6.010944e-01
  -5.809941e+00  -9.811547e+00
  -7.692346e+01  -2.169143e+00
  -9.528774e+01  -2.178254e+01
  -4.079345e+00  -8.138496e+01
   1.248195e+02  -1.213791e+02
   1.963261e+02  -6.306005e+01
   1.431402e+02   6.092851e+01
   2.547135e+01   1.629797e+02
  -7.591355e+01   1.455430e+02
  -1.177753e+02   6.339588e+01
  -7.833969e+01  -1.934175e+01
  -2.321613e+01  -3.670376e+01
   4.557833e+00  -9.205105e+00
  -1.002997e+01  -3.161155e+00
  -3.496931e+01  -4.899059e+01
  -2.490362e+01  -8.903802e+01
   2.754167e+01  -6.659100e+01
   8.035832e+01   1.790023e+01
   7.566320e+01   1.052999e+02
   6.730392e+00   1.082098e+02
  -7.857693e+01   2.378823e+01
  -1.059524e+02  -7.862498e+01
  -3.475244e+01  -9.925133e+01
   6.555382e+01  -5.100268e+01
   1.064265e+02   9.632119e+00
   3.634684e+01   4.585418e+01
  -3.137559e+01   5.113896e+01
  -2.863227e+01   2.759285e+01
   3.605940e+01   3.711382e+00
   7.414879e+01  -9.069712e+00
   1.534230e+01   2.424101e+01
  -8.121157e+01   7.284722e+01
  -1.181645e+02   6.537675e+01
  -6.121895e+01  -9.029495e+00
   1.483189e+01  -7.911414e+01
   5.192474e+01  -7.884569e+01
   3.564651e+01  -3.949055e+00
  -3.104200e+00   5.336161e+01
  -2.675279e+01   4.335523e+01
  -3.403107e+01  -1.886196e+01
  -3.125132e+01  -5.633293e+01
   3.418770e+00  -3.286624e+01
   3.213250e+01   1.100522e+01
   4.132400e+01   2.135778e+01
   2.022530e+01  -2.299357e-01
  -1.383235e+00  -1.277754e+01
  -9.225008e+00   3.992290e+00
  -5.345989e+00   3.946377e+01
  -1.962606e+01   4.229524e+01
  -3.382795e+01   7.192296e+00
  -2.699099e+01  -4.332131e+01
   2.538540e+00  -6.119516e+01
   4.872344e+01  -1.958104e+01
   5.986015e+01   3.619289e+01
   1.157606e+01   6.175983e+01
  -5.645571e+01   3.751115e+01
  -8.200702e+01  -1.651803e+01
  -5.265190e+01  -4.196895e+01
   2.870037e+01  -4.197248e+01
   6.849857e+01  -2.418899e+01
   2.458841e+01  -6.677879e+00
  -3.988384e+01  -2.534704e+00
  -3.880179e+01  -1.449458e+01
   3.288813e+01  -2.915992e+01
   9.571352e+01  -1.849527e+01
