
 $NMID
 id='ANONYMOUS ', fmtdat='(2E16.6)'
 volume=1.0
 tramp=1.0
 $END
  -4.491544e+03   7.311394e+01
  -2.741649e+03  -2.918585e+03
   9.152077e+02  -2.936775e+03
   2.410434e+03  -9.618530e+02
   9.562886e+02   8.991934e+02
  -1.032944e+03   5.472313e+02
  -1.020260e+03  -6.010244e+02
   2.382853e+01  -1.187105e+03
   9.215089e+02  -7.952363e+02
   1.074432e+03   2.273843e+02
   3.958114e+02   1.017332e+03
  -3.905474e+02   9.499163e+02
  -7.215824e+02   1.265440e+02
  -4.736441e+02  -7.983490e+02
   2.892860e+02  -7.431104e+02
   7.095063e+02   2.410263e+00
   2.930716e+02   7.945045e+02
  -3.191625e+02   6.358505e+02
  -6.441248e+02   9.000434e+01
  -3.763823e+02  -3.904993e+02
   2.163587e+01  -4.531328e+02
   2.786546e+02  -2.559669e+02
   2.448385e+02  -1.050755e+00
  -1.524994e+02   1.239930e+02
  -4.505329e+02  -7.980993e+01
  -2.328235e+02  -4.793553e+02
   4.596032e+02  -4.760684e+02
   9.340395e+02   2.153531e+01
   4.205632e+02   6.855967e+02
  -4.374202e+02   5.840981e+02
  -7.913607e+02  -5.012252e+01
  -4.141630e+02  -4.911419e+02
   2.757591e+02  -5.659627e+02
   6.328522e+02  -1.673539e+02
   4.182315e+02   2.549747e+02
   9.636969e+01   5.441095e+02
  -2.439633e+02   2.952096e+02
  -2.307153e+02  -2.411575e+02
   1.794428e+02  -5.446515e+02
   5.523777e+02   2.736883e+01
   2.594528e+02   7.509978e+02
  -3.661373e+02   7.204659e+02
  -7.336306e+02  -1.722039e+01
  -2.875434e+02  -6.523783e+02
   3.235596e+02  -3.682480e+02
   4.734951e+02   3.552516e+02
  -5.700346e+01   6.614117e+02
  -5.897796e+02   1.445176e+02
  -6.892518e+02  -4.194738e+02
  -1.574180e+02  -6.728834e+02
   4.297803e+02  -3.522758e+02
   7.182674e+02   1.086314e+02
   3.691667e+02   4.700316e+02
  -2.035418e+02   3.845024e+02
  -5.211840e+02   4.114736e+01
  -2.549054e+02  -2.485475e+02
   1.328034e+02  -1.351087e+02
   1.745225e+02   1.899585e+02
  -1.893075e+02   2.034372e+02
  -3.910514e+02  -8.503951e+01
  -1.494749e+02  -3.399748e+02
   2.049422e+02  -2.568640e+02
   3.165914e+02  -5.543853e+01
   1.670331e+02   7.746715e+01
  -9.524010e+00   2.147348e+02
  -1.932937e+02   3.649698e+02
  -3.550530e+02   2.386189e+02
  -3.330085e+02  -1.309290e+02
  -7.849822e+01  -4.345543e+02
   1.180695e+02  -4.199909e+02
   1.428760e+02  -9.186902e+01
   2.135291e+01   4.391750e+01
   2.992741e+01  -9.818917e+01
   2.046249e+02  -1.637742e+02
   2.845585e+02   3.031502e+01
   1.748284e+02   2.795299e+02
  -7.497373e+01   2.854947e+02
  -2.510499e+02   2.538423e+01
  -2.047266e+02  -2.507305e+02
   9.991386e+00  -3.196440e+02
   2.775294e+02  -1.315122e+02
   3.866466e+02   1.752354e+02
   1.976437e+02   3.971468e+02
  -1.305482e+02   3.077944e+02
  -2.497025e+02   1.040943e+02
  -1.377969e+02  -4.610911e+00
  -9.259980e+01   2.744277e+01
  -2.259785e+02   7.664468e+01
  -4.253533e+02  -4.740645e+01
  -3.383729e+02  -2.710142e+02
  -2.431383e+01  -4.281939e+02
   3.738599e+02  -4.319506e+02
   5.248733e+02  -2.004717e+02
   3.474040e+02   9.652634e+01
   5.609289e+01   3.115848e+02
  -1.421637e+02   2.492691e+02
  -9.963589e+01   2.355246e+01
   1.129717e+02  -1.283463e+02
   2.257275e+02   1.089103e+01
   7.638100e+01   2.125111e+02
  -1.821189e+02   1.923078e+02
  -2.006224e+02  -6.533217e+01
   1.628882e+01  -2.097241e+02
   2.126359e+02  -4.125585e+01
   1.768096e+02   2.475919e+02
  -2.691298e+01   3.608690e+02
  -2.252796e+02   1.700575e+02
  -3.110251e+02  -5.376510e+01
  -2.828100e+02  -2.384458e+02
  -1.242408e+02  -2.753241e+02
   1.239435e+02  -1.698518e+02
   1.876567e+02  -2.034978e+01
   6.566662e+01   3.954239e+01
  -7.481265e+01  -3.248423e+01
  -4.142998e+01  -1.402147e+02
   1.265200e+02  -1.114445e+02
   1.891502e+02   1.184455e+01
   6.823959e+01   8.728500e+01
  -7.923405e+01   2.282177e+01
  -6.458777e+01  -7.327876e+01
   1.183144e+02  -8.825152e+01
   2.783966e+02  -2.148333e+01
   2.574915e+02   1.408677e+02
   7.677549e+01   2.584128e+02
  -1.702708e+02   2.730795e+02
  -3.208901e+02   1.426026e+02
  -1.937019e+02  -5.700765e+01
   2.779418e+01  -1.192879e+02
   1.019273e+02  -1.282325e+00
  -2.836535e+01   1.147836e+02
  -2.096001e+02   7.456564e+01
  -2.283804e+02  -1.011372e+02
  -5.949479e+01  -2.279863e+02
   9.531685e+01  -1.656775e+02
   1.477067e+02  -3.844003e+01
   7.776501e+01   4.759389e+01
  -2.238389e+01   1.302827e+01
  -4.405630e+01  -7.952843e+01
   5.694214e+01  -1.165490e+02
   2.031241e+02  -3.498774e+01
   2.016134e+02   1.295170e+02
   2.428241e+01   2.146638e+02
  -1.775879e+02   1.763732e+02
  -2.106479e+02   2.243924e+01
  -6.504652e+01  -1.170514e+02
   7.025453e+01  -1.336092e+02
   8.832598e+01  -3.088418e+01
   2.491393e+01   2.794955e+01
  -1.895110e+01   2.486805e+01
   1.067907e+01  -2.230591e+00
   6.069139e+01   8.221273e+00
   9.139891e+01   7.216748e+01
   2.845307e+01   1.474800e+02
  -1.230550e+02   1.574696e+02
  -2.490770e+02   3.047466e+01
  -2.149691e+02  -1.518289e+02
  -4.893938e+01  -2.570946e+02
   1.143550e+02  -1.812444e+02
   1.450390e+02  -3.059265e+01
   7.402467e+01   5.608794e+01
   2.818780e+01   3.866269e+01
   5.427957e+01  -1.023322e+01
   7.619149e+01  -5.823025e+00
   3.967111e+01   4.307424e+01
  -3.692667e+01   8.353338e+01
  -1.036389e+02   5.025387e+01
  -8.461293e+01  -3.432869e+01
   2.359133e+00  -1.070360e+02
   1.420397e+02  -8.719764e+01
   2.094894e+02   4.439849e+01
   1.177950e+02   1.989812e+02
  -9.974898e+01   2.580129e+02
  -2.772171e+02   8.159276e+01
  -2.732595e+02  -9.478284e+01
  -1.195271e+02  -1.792564e+02
   3.728599e+01  -1.520358e+02
   9.666414e+01  -8.517677e+01
   8.393738e+01  -7.499276e+01
   6.351901e+01  -9.336662e+01
   9.228085e+01  -7.423849e+01
   1.298505e+02   1.605530e+01
   1.109949e+02   1.619493e+02
   3.416647e+01   2.292006e+02
  -9.800622e+01   1.774221e+02
  -1.757283e+02   1.838044e+01
  -1.422875e+02  -1.309537e+02
  -1.758993e+01  -1.656004e+02
   6.755388e+01  -1.010166e+02
   6.441789e+01  -3.758080e+00
   9.304944e+00   3.893894e+01
  -4.593876e+00   3.439287e+01
   3.942292e+01   2.062766e+01
   8.043936e+01   2.567646e+01
   4.099397e+01   3.951553e+01
  -6.118329e+01   3.314733e+01
  -1.548469e+02   2.027208e+00
  -1.377395e+02  -4.502643e+01
  -1.966197e+01  -8.454834e+01
   1.096343e+02  -8.151082e+01
   1.514268e+02  -1.565689e+01
   5.033739e+01   3.989613e+01
  -5.845375e+01   3.767006e+01
  -8.095318e+01  -2.280156e+01
  -7.335261e+00  -6.460312e+01
   5.926916e+01  -5.963109e+01
   6.740716e+01   3.662749e+00
   4.125045e+01   4.715849e+01
   4.513732e+01   4.179692e+01
   6.633491e+01   3.316354e+00
   7.253333e+01   1.509497e+00
   3.934126e+01   6.276292e+01
  -3.680895e+01   1.406192e+02
  -1.066656e+02   1.298828e+02
  -1.613434e+02   2.876937e+01
  -1.217235e+02  -8.070104e+01
  -4.052930e+00  -1.303753e+02
   8.541684e+01  -6.309729e+01
   6.130730e+01   1.492651e+01
  -5.797164e+01   1.800801e+01
  -1.439356e+02  -3.886729e+01
  -8.496336e+01  -1.170273e+02
   8.293291e+01  -1.096940e+02
   1.955180e+02  -5.370109e+01
   1.691730e+02   3.754319e+01
   3.698577e+01   8.533430e+01
  -6.628668e+01   7.532579e+01
  -4.949650e+01   8.793074e+00
   3.815946e+01  -2.561740e+01
   8.925637e+01   1.839418e+01
   3.338351e+01   1.220691e+02
  -9.714196e+01   1.474024e+02
  -1.854056e+02   7.035547e+01
  -1.215658e+02  -1.071857e+02
  -1.192818e+01  -2.178392e+02
   8.245447e+01  -1.448280e+02
   1.034405e+02   4.059847e+00
   5.978258e+01   1.255754e+02
   4.981145e+00   1.090154e+02
  -4.898898e+01   2.622262e+01
  -5.564263e+01  -3.495924e+01
  -2.834573e+01  -8.384985e+00
  -3.079061e+00   2.180699e+01
  -1.698428e+01  -1.300859e+01
  -6.149922e+01  -9.296212e+01
  -4.297118e+01  -1.098011e+02
   4.825491e+01  -4.919103e+01
   1.293137e+02   4.379923e+01
   1.342683e+02   7.432298e+01
   1.815319e+01   4.970826e+01
  -8.842314e+01   2.453395e+01
  -9.817472e+01   3.002851e+00
  -1.059453e+01  -4.228486e+00
   3.924543e+01  -2.173475e+01
   1.420295e+01  -2.101413e+01
  -2.300146e+01  -5.478582e-01
   6.407039e+00   1.052651e+01
   7.707421e+01   4.501192e+00
   9.310292e+01   2.765344e+01
   4.085758e+00   8.152933e+01
  -1.297996e+02   1.218092e+02
  -1.929448e+02   6.263420e+01
  -1.442789e+02  -7.466760e+01
  -2.307391e+01  -1.719214e+02
   7.264899e+01  -1.387192e+02
   1.116737e+02  -6.429297e+01
   7.555566e+01   1.948963e+01
   2.120396e+01   3.506219e+01
  -4.626888e+00   7.141023e+00
   8.294966e+00   2.534010e+00
   3.222429e+01   4.677950e+01
   2.112181e+01   9.165097e+01
  -3.109392e+01   6.675258e+01
  -7.826277e+01  -1.782040e+01
  -7.075082e+01  -1.077589e+02
  -7.822602e+00  -1.123995e+02
   8.074713e+01  -1.876393e+01
   1.010875e+02   8.148998e+01
   3.508658e+01   9.923241e+01
  -6.546808e+01   4.915480e+01
  -1.036334e+02  -1.593408e+01
  -3.653240e+01  -4.813484e+01
   3.540612e+01  -4.577909e+01
   2.916553e+01  -2.834814e+01
  -3.759526e+01  -3.341977e+00
  -7.216152e+01   9.886880e+00
  -1.540727e+01  -2.345906e+01
   7.868236e+01  -6.652955e+01
   1.179390e+02  -5.966024e+01
   6.183676e+01   1.077442e+01
  -9.561663e+00   8.053109e+01
  -4.792667e+01   7.850887e+01
  -3.361909e+01   1.544339e+00
   2.752185e+00  -5.310916e+01
   2.671342e+01  -4.042618e+01
   3.535753e+01   2.260343e+01
   2.707317e+01   5.396702e+01
  -2.945204e+00   3.131469e+01
  -3.178961e+01  -1.080141e+01
  -4.072174e+01  -2.207245e+01
  -2.032396e+01   7.044634e-01
   4.222157e-01   1.095147e+01
   8.675665e+00  -4.059861e+00
   1.009811e+01  -4.147806e+01
   1.959025e+01  -4.126126e+01
   3.271714e+01  -7.839356e+00
   2.654536e+01   4.639672e+01
  -5.825997e+00   6.148715e+01
  -4.911479e+01   2.011643e+01
  -5.652468e+01  -3.952024e+01
  -1.347714e+01  -6.200579e+01
   5.432888e+01  -3.607203e+01
   8.394800e+01   1.680272e+01
   5.090654e+01   4.338376e+01
  -2.853457e+01   3.982752e+01
  -6.487308e+01   1.912273e+01
  -2.339871e+01   6.225498e+00
   3.874077e+01   3.331936e+00
   4.075228e+01   1.820596e+01
  -3.281665e+01   3.042509e+01
  -9.273659e+01   1.565185e+01
