
 $NMID
 id='ANONYMOUS ', fmtdat='(2E16.6)'
 volume=1.0
 tramp=1.0
 $END
   4.250409e+03  -2.405434e+02
   2.713021e+03   2.690382e+03
  -8.205682e+02   2.860116e+03
  -1.876797e+03   7.891926e+02
  -9.759893e+02  -9.208642e+02
   9.299253e+02  -6.926659e+02
   9.094949e+02   4.474208e+02
   3.359545e+01   1.094353e+03
  -9.431626e+02   7.987631e+02
  -9.729193e+02  -2.289386e+02
  -4.261174e+02  -8.014030e+02
   3.114534e+02  -9.468246e+02
   6.253229e+02  -8.030024e+01
   4.822496e+02   7.989323e+02
  -2.856982e+02   7.024768e+02
  -6.672627e+02  -3.666334e+00
  -2.955033e+02  -6.998205e+02
   3.627488e+02  -6.451595e+02
   6.276937e+02  -7.520933e+01
   3.814954e+02   4.073748e+02
  -9.215487e+00   4.767934e+02
  -2.551010e+02   2.660152e+02
  -2.505367e+02   2.780302e+01
   1.172885e+02  -1.398446e+02
   4.224352e+02   4.333723e+01
   2.548844e+02   4.214158e+02
  -3.997612e+02   5.036582e+02
  -9.354825e+02   8.804100e+00
  -4.228089e+02  -6.471147e+02
   3.699693e+02  -5.789397e+02
   8.119263e+02  -2.268790e+01
   4.272891e+02   4.795283e+02
  -2.510847e+02   5.979408e+02
  -5.693909e+02   1.853918e+02
  -4.411904e+02  -2.121159e+02
  -1.127988e+02  -5.074214e+02
   2.248133e+02  -2.682582e+02
   1.989746e+02   2.374842e+02
  -1.519004e+02   4.980738e+02
  -4.953726e+02  -2.630948e+01
  -2.859779e+02  -7.061353e+02
   2.897855e+02  -7.557276e+02
   7.222151e+02  -1.039448e+01
   3.114360e+02   6.185348e+02
  -3.048802e+02   3.631721e+02
  -4.746290e+02  -3.548126e+02
   6.940398e+01  -5.895984e+02
   5.425574e+02  -1.279365e+02
   6.237156e+02   4.039587e+02
   1.962111e+02   6.072174e+02
  -4.132139e+02   3.521391e+02
  -6.492253e+02  -1.152970e+02
  -3.298660e+02  -3.986212e+02
   1.523745e+02  -3.436281e+02
   4.728891e+02  -7.752716e+01
   2.579837e+02   2.356925e+02
  -1.432998e+02   1.550470e+02
  -1.595549e+02  -1.806982e+02
   1.704783e+02  -2.181670e+02
   3.761249e+02   7.391941e+01
   1.225975e+02   3.190014e+02
  -2.073456e+02   2.664269e+02
  -3.080722e+02   5.059534e+01
  -1.767425e+02  -8.385783e+01
   1.827848e+01  -2.013428e+02
   1.762125e+02  -3.231467e+02
   3.120257e+02  -2.192665e+02
   3.004010e+02   1.218112e+02
   7.641156e+01   4.396878e+02
  -1.132349e+02   4.094369e+02
  -1.496584e+02   9.684952e+01
  -2.218523e+01  -3.824781e+01
  -1.620490e+01   7.858601e+01
  -1.505906e+02   1.357811e+02
  -2.719827e+02  -3.167403e+01
  -1.894750e+02  -2.670145e+02
   4.821737e+01  -2.730261e+02
   2.302405e+02  -3.095798e+01
   1.990890e+02   2.338457e+02
   3.354830e+00   3.084958e+02
  -2.515882e+02   1.461837e+02
  -3.661913e+02  -1.509925e+02
  -1.900849e+02  -3.571454e+02
   1.124799e+02  -3.242238e+02
   2.299031e+02  -1.193293e+02
   1.474979e+02   1.500119e+01
   9.276911e+01  -1.836510e+01
   2.199932e+02  -7.192346e+01
   4.010394e+02   3.409681e+01
   3.148025e+02   2.772310e+02
   3.395720e+01   4.278234e+02
  -3.342291e+02   3.898285e+02
  -4.643351e+02   1.997120e+02
  -3.403459e+02  -8.193123e+01
  -7.334129e+01  -2.857773e+02
   1.419555e+02  -2.572732e+02
   1.007848e+02  -2.305675e+01
  -1.089786e+02   1.144970e+02
  -2.156662e+02  -4.014299e+00
  -6.049844e+01  -1.892307e+02
   1.742482e+02  -1.745519e+02
   1.854258e+02   6.922049e+01
  -8.078186e-01   2.122793e+02
  -1.992751e+02   3.059090e+01
  -1.729199e+02  -2.411991e+02
   1.510113e+01  -3.360529e+02
   2.078407e+02  -1.858807e+02
   3.142264e+02   5.109967e+01
   2.752777e+02   2.394264e+02
   1.034809e+02   2.510139e+02
  -1.147934e+02   1.707501e+02
  -1.763233e+02   4.119480e+01
  -6.718746e+01  -4.344304e+01
   7.175079e+01   2.724415e+01
   3.488699e+01   1.301773e+02
  -1.169726e+02   1.152178e+02
  -2.051573e+02  -3.110935e+00
  -7.246202e+01  -7.800767e+01
   7.908438e+01  -2.435117e+01
   6.436666e+01   6.216292e+01
  -1.003821e+02   8.300549e+01
  -2.705785e+02   7.417127e+00
  -2.547096e+02  -1.151101e+02
  -8.242215e+01  -2.492877e+02
   1.793215e+02  -2.429819e+02
   2.932538e+02  -1.372930e+02
   1.886677e+02   5.237750e+01
  -1.787638e+01   1.200672e+02
  -9.656712e+01   9.558366e+00
   2.307197e+01  -1.054223e+02
   1.814970e+02  -6.179044e+01
   2.012069e+02   9.202271e+01
   5.794967e+01   2.271066e+02
  -8.662169e+01   1.580627e+02
  -1.416680e+02   3.140014e+01
  -8.152369e+01  -4.028328e+01
   2.590669e+01  -1.070467e+01
   3.842885e+01   7.277313e+01
  -5.248185e+01   1.071033e+02
  -1.999694e+02   3.078607e+01
  -1.829768e+02  -1.123138e+02
  -3.136699e+01  -2.086176e+02
   1.663179e+02  -1.723573e+02
   1.895180e+02  -1.423306e+01
   6.411309e+01   1.193939e+02
  -6.030460e+01   1.200215e+02
  -8.864342e+01   3.238176e+01
  -2.417511e+01  -2.660978e+01
   1.789012e+01  -2.276182e+01
  -1.182595e+01   2.510839e+00
  -5.699687e+01  -1.381118e+01
  -8.890730e+01  -7.825144e+01
  -2.656846e+01  -1.318190e+02
   1.118938e+02  -1.420968e+02
   2.214152e+02  -3.140349e+01
   2.070662e+02   1.468612e+02
   4.866575e+01   2.424213e+02
  -1.014498e+02   1.644339e+02
  -1.381527e+02   2.868395e+01
  -7.260997e+01  -5.717031e+01
  -3.123875e+01  -4.187168e+01
  -4.986624e+01   1.192483e+01
  -7.197095e+01   5.567069e+00
  -3.693816e+01  -4.427445e+01
   3.306527e+01  -8.176186e+01
   9.181913e+01  -4.894207e+01
   7.790006e+01   2.960011e+01
  -1.611973e+00   1.024807e+02
  -1.310081e+02   8.907485e+01
  -1.970204e+02  -5.204853e+01
  -1.125618e+02  -1.778159e+02
   8.527725e+01  -2.373967e+02
   2.609239e+02  -9.432937e+01
   2.714924e+02   7.119452e+01
   1.228314e+02   1.713125e+02
  -3.885118e+01   1.451384e+02
  -9.639519e+01   9.317301e+01
  -7.876476e+01   7.694508e+01
  -6.007867e+01   8.861519e+01
  -7.930978e+01   7.307368e+01
  -1.363873e+02  -1.970045e+01
  -1.142618e+02  -1.444008e+02
  -3.459846e+01  -2.126307e+02
   9.494191e+01  -1.791552e+02
   1.742545e+02  -2.924009e+01
   1.331785e+02   1.108963e+02
   2.357423e+01   1.508981e+02
  -6.456166e+01   1.012134e+02
  -6.311582e+01   8.536767e+00
  -1.016074e+01  -3.693399e+01
   6.955071e+00  -3.209628e+01
  -4.106214e+01  -1.819734e+01
  -7.411716e+01  -2.361218e+01
  -3.916487e+01  -3.818632e+01
   6.067518e+01  -3.370374e+01
   1.473800e+02  -7.173341e+00
   1.396298e+02   3.620932e+01
   1.974407e+01   8.475544e+01
  -1.084107e+02   7.669656e+01
  -1.364094e+02   2.084580e+01
  -4.925217e+01  -3.857291e+01
   5.834963e+01  -3.496122e+01
   7.307432e+01   1.881052e+01
   6.484100e+00   6.840735e+01
  -5.531526e+01   5.709469e+01
  -6.214155e+01  -3.588089e+00
  -3.785727e+01  -4.866530e+01
  -4.319194e+01  -4.123489e+01
  -6.131994e+01  -3.600575e-01
  -6.793704e+01  -4.718980e-01
  -3.644911e+01  -6.291527e+01
   3.526677e+01  -1.378886e+02
   9.381281e+01  -1.301280e+02
   1.377882e+02  -2.906474e+01
   1.209218e+02   7.712689e+01
   7.859404e+00   1.189121e+02
  -7.541099e+01   5.996534e+01
  -5.763616e+01  -1.390066e+01
   5.668054e+01  -1.776264e+01
   1.406852e+02   3.869325e+01
   7.576274e+01   1.040654e+02
  -8.474390e+01   1.121712e+02
  -1.652633e+02   4.714627e+01
  -1.563937e+02  -3.144439e+01
  -3.415162e+01  -7.871479e+01
   5.311821e+01  -7.085848e+01
   4.623034e+01  -9.858077e+00
  -3.626253e+01   2.539643e+01
  -8.688325e+01  -2.113011e+01
  -3.198242e+01  -1.123061e+02
   9.290008e+01  -1.508568e+02
   1.643771e+02  -6.216126e+01
   1.225690e+02   1.044916e+02
   9.977812e+00   1.967200e+02
  -7.765172e+01   1.421488e+02
  -1.023762e+02  -8.056737e+00
  -6.174869e+01  -1.181548e+02
  -2.813255e+00  -1.105859e+02
   4.217892e+01  -2.246997e+01
   4.812579e+01   3.231409e+01
   2.786716e+01   6.053840e+00
   3.167809e+00  -1.992923e+01
   1.708181e+01   1.428168e+01
   5.876506e+01   8.582543e+01
   4.461546e+01   1.066997e+02
  -4.643949e+01   4.720521e+01
  -1.286621e+02  -2.916787e+01
  -1.354133e+02  -6.515124e+01
  -1.581975e+01  -4.690614e+01
   8.166980e+01  -2.528704e+01
   8.652851e+01  -5.251227e+00
   1.008552e+01   5.536866e+00
  -3.858878e+01   2.249272e+01
  -1.149945e+01   2.066701e+01
   2.338847e+01  -1.853267e+00
  -6.788134e+00  -9.611625e+00
  -7.599850e+01  -2.079283e+00
  -8.726377e+01  -2.595859e+01
  -4.480045e+00  -7.553136e+01
   1.096569e+02  -1.091134e+02
   1.749714e+02  -5.834775e+01
   1.446892e+02   6.541815e+01
   2.817391e+01   1.544104e+02
  -7.173847e+01   1.442085e+02
  -1.134088e+02   6.212963e+01
  -7.923408e+01  -1.695915e+01
  -2.282270e+01  -3.311039e+01
   5.591956e+00  -6.248704e+00
  -8.199253e+00  -2.520096e+00
  -3.252855e+01  -4.430158e+01
  -2.158029e+01  -9.085450e+01
   2.431405e+01  -6.466875e+01
   8.337808e+01   1.502114e+01
   6.885393e+01   1.029745e+02
   1.180610e+01   9.968191e+01
  -8.154265e+01   2.084662e+01
  -8.750034e+01  -7.715661e+01
  -3.127994e+01  -9.390235e+01
   6.119388e+01  -5.293551e+01
   9.430134e+01   1.202735e+01
   3.507734e+01   4.443551e+01
  -3.322721e+01   4.605273e+01
  -2.748704e+01   2.691256e+01
   3.582829e+01   1.650383e+00
   6.287816e+01  -7.087478e+00
   1.504100e+01   2.425915e+01
  -6.933604e+01   6.102777e+01
  -1.173711e+02   6.000946e+01
  -5.886132e+01  -9.561211e+00
   1.276791e+01  -7.603343e+01
   4.283235e+01  -7.333919e+01
   3.275314e+01  -1.789473e+00
  -1.794294e+00   5.267595e+01
  -2.691248e+01   4.125520e+01
  -3.499603e+01  -2.104468e+01
  -2.656835e+01  -4.827103e+01
   3.036257e+00  -2.860993e+01
   2.986743e+01   8.381635e+00
   3.726453e+01   1.878912e+01
   1.890480e+01  -1.301398e-01
  -6.258158e-02  -1.015494e+01
  -8.088397e+00   6.116472e+00
  -9.927261e+00   3.841907e+01
  -1.970894e+01   4.321939e+01
  -3.016734e+01   5.544941e+00
  -2.756158e+01  -4.529982e+01
   5.580196e+00  -5.980008e+01
   4.704972e+01  -1.758677e+01
   5.185926e+01   3.699887e+01
   1.325353e+01   5.800415e+01
  -5.650918e+01   3.653522e+01
  -7.445046e+01  -1.312173e+01
  -4.921656e+01  -4.187114e+01
   2.372029e+01  -3.595259e+01
   6.168492e+01  -1.815638e+01
   2.210527e+01  -6.081389e+00
  -4.248422e+01  -1.216039e+00
  -4.004687e+01  -1.583615e+01
   3.223834e+01  -3.344203e+01
   9.040391e+01  -2.246403e+01
