
 $NMID
 id='ANONYMOUS ', fmtdat='(2E16.6)'
 volume=1.0
 tramp=1.0
 $END
  -4.377376e+03   2.082138e+02
  -2.560448e+03  -2.763318e+03
   9.739676e+02  -2.938449e+03
   1.975646e+03  -8.338112e+02
   9.167747e+02   9.674712e+02
  -9.740964e+02   6.533671e+02
  -8.919076e+02  -4.967622e+02
  -4.805196e+00  -1.078725e+03
   9.788431e+02  -8.051610e+02
   9.570292e+02   2.073215e+02
   3.571336e+02   8.021347e+02
  -3.381744e+02   9.381589e+02
  -6.279873e+02   9.047167e+01
  -4.863459e+02  -7.844129e+02
   3.361182e+02  -6.946610e+02
   6.601160e+02   1.303841e+01
   2.964386e+02   7.004180e+02
  -3.843648e+02   6.276624e+02
  -6.386146e+02   5.404252e+01
  -3.986071e+02  -4.067921e+02
   1.008899e+01  -4.631286e+02
   2.514212e+02  -2.293430e+02
   2.492293e+02   8.259823e+00
  -1.184886e+02   1.260826e+02
  -4.273632e+02  -7.944158e+01
  -2.526971e+02  -4.438328e+02
   4.518508e+02  -5.238261e+02
   9.353885e+02   4.684811e+01
   4.025500e+02   6.241439e+02
  -3.853838e+02   5.555399e+02
  -8.249124e+02   3.713395e+00
  -4.390799e+02  -4.967248e+02
   2.748667e+02  -6.097252e+02
   5.672493e+02  -1.626590e+02
   4.409344e+02   2.254141e+02
   1.173336e+02   5.342184e+02
  -2.318540e+02   2.701205e+02
  -1.946534e+02  -2.495282e+02
   1.491858e+02  -5.159647e+02
   4.977082e+02   2.768019e+01
   2.878803e+02   7.191284e+02
  -3.192059e+02   7.606965e+02
  -6.885394e+02   1.231488e+01
  -3.042158e+02  -6.171177e+02
   3.327308e+02  -3.558896e+02
   4.800979e+02   3.685947e+02
  -6.504124e+01   6.026148e+02
  -5.382913e+02   1.367732e+02
  -6.271374e+02  -4.184078e+02
  -1.855218e+02  -5.967188e+02
   4.287743e+02  -3.322886e+02
   6.451945e+02   1.201563e+02
   3.176856e+02   4.057505e+02
  -1.477555e+02   3.410858e+02
  -4.602195e+02   8.641490e+01
  -2.629866e+02  -2.603026e+02
   1.475999e+02  -1.356514e+02
   1.531029e+02   1.850150e+02
  -1.857987e+02   1.869718e+02
  -3.658782e+02  -9.298353e+01
  -1.358827e+02  -3.246085e+02
   2.061319e+02  -2.626763e+02
   2.979032e+02  -4.958155e+01
   1.664625e+02   8.800296e+01
  -1.465907e+01   1.913313e+02
  -1.844860e+02   3.181825e+02
  -3.110179e+02   2.098928e+02
  -3.012125e+02  -1.191283e+02
  -6.746973e+01  -4.482311e+02
   1.218910e+02  -4.116536e+02
   1.517889e+02  -8.597935e+01
   3.034811e+01   4.435872e+01
   1.388340e+01  -8.284177e+01
   1.614344e+02  -1.434967e+02
   2.639146e+02   1.914893e+01
   1.849010e+02   2.693337e+02
  -5.758572e+01   2.757186e+02
  -2.322567e+02   2.348667e+01
  -2.024106e+02  -2.330807e+02
   2.990035e-01  -3.058515e+02
   2.495293e+02  -1.386760e+02
   3.569518e+02   1.639445e+02
   1.876724e+02   3.669178e+02
  -1.121224e+02   3.166801e+02
  -2.256537e+02   1.062977e+02
  -1.477461e+02  -1.910350e+01
  -9.595049e+01   2.092868e+01
  -2.144568e+02   6.472426e+01
  -4.050365e+02  -2.441184e+01
  -3.128306e+02  -2.723405e+02
  -2.797053e+01  -4.403979e+02
   3.303142e+02  -3.835068e+02
   4.648343e+02  -1.936300e+02
   3.406879e+02   8.950191e+01
   7.028876e+01   2.859586e+02
  -1.458084e+02   2.585884e+02
  -9.130861e+01   3.406865e+01
   1.070186e+02  -1.225575e+02
   2.068118e+02   1.000649e+01
   6.453846e+01   1.900490e+02
  -1.777267e+02   1.612629e+02
  -1.944961e+02  -6.951724e+01
   5.232502e+00  -2.053227e+02
   1.977778e+02  -3.674173e+01
   1.649898e+02   2.417655e+02
  -2.686987e+01   3.317635e+02
  -2.101419e+02   1.842211e+02
  -3.005034e+02  -6.196170e+01
  -2.748377e+02  -2.406698e+02
  -1.049858e+02  -2.500409e+02
   1.209220e+02  -1.662143e+02
   1.745942e+02  -3.273815e+01
   6.717597e+01   4.333116e+01
  -6.974058e+01  -2.792438e+01
  -3.771681e+01  -1.320593e+02
   1.200705e+02  -1.157784e+02
   2.106209e+02   7.937316e+00
   7.155195e+01   7.852062e+01
  -7.415090e+01   2.673866e+01
  -6.224094e+01  -6.196702e+01
   1.023973e+02  -8.577319e+01
   2.668798e+02  -9.566350e-01
   2.502600e+02   1.149304e+02
   8.812517e+01   2.439314e+02
  -1.745564e+02   2.418071e+02
  -2.847060e+02   1.305344e+02
  -1.837234e+02  -5.825102e+01
   2.396414e+01  -1.225357e+02
   9.726704e+01  -7.039815e+00
  -2.547601e+01   1.077429e+02
  -1.790380e+02   6.345356e+01
  -1.972477e+02  -9.061457e+01
  -5.856005e+01  -2.220228e+02
   8.571780e+01  -1.516283e+02
   1.452217e+02  -3.145168e+01
   8.525121e+01   4.223288e+01
  -2.337375e+01   9.918850e+00
  -4.210294e+01  -7.410607e+01
   5.229442e+01  -1.070220e+02
   2.049810e+02  -3.743467e+01
   1.828090e+02   1.125919e+02
   3.098658e+01   2.108317e+02
  -1.615792e+02   1.750456e+02
  -1.874856e+02   1.150790e+01
  -6.329955e+01  -1.224249e+02
   6.434904e+01  -1.194822e+02
   8.979300e+01  -3.100733e+01
   2.630270e+01   2.381343e+01
  -1.738889e+01   2.380579e+01
   1.093245e+01  -3.473017e+00
   5.532678e+01   1.236460e+01
   8.740171e+01   8.028448e+01
   2.375100e+01   1.319851e+02
  -1.106699e+02   1.414050e+02
  -2.210630e+02   2.506552e+01
  -2.026015e+02  -1.429042e+02
  -4.863553e+01  -2.351471e+02
   1.026243e+02  -1.641936e+02
   1.398356e+02  -2.535041e+01
   6.990492e+01   5.574661e+01
   2.920235e+01   4.074251e+01
   4.972245e+01  -1.236172e+01
   6.911753e+01  -3.059454e+00
   3.692424e+01   4.442713e+01
  -3.771559e+01   8.291096e+01
  -8.991854e+01   4.853186e+01
  -7.484001e+01  -3.078670e+01
   5.457748e+00  -1.011154e+02
   1.331139e+02  -8.921968e+01
   1.903477e+02   6.025502e+01
   1.060856e+02   1.838104e+02
  -9.858048e+01   2.365040e+02
  -2.616965e+02   8.776364e+01
  -2.764441e+02  -7.678891e+01
  -1.223408e+02  -1.713490e+02
   3.660144e+01  -1.446620e+02
   9.653170e+01  -8.976135e+01
   8.092002e+01  -7.560225e+01
   5.728030e+01  -8.569950e+01
   8.105281e+01  -6.750023e+01
   1.341170e+02   1.840064e+01
   1.091013e+02   1.425850e+02
   2.428789e+01   2.184615e+02
  -9.863792e+01   1.773791e+02
  -1.782719e+02   3.055218e+01
  -1.319247e+02  -1.117028e+02
  -2.192989e+01  -1.506032e+02
   6.589292e+01  -1.004457e+02
   6.335676e+01  -9.231394e+00
   8.988874e+00   3.610441e+01
  -5.230902e+00   3.329086e+01
   4.152856e+01   1.901988e+01
   7.365742e+01   2.155507e+01
   3.863066e+01   3.835916e+01
  -6.146108e+01   3.203966e+01
  -1.422837e+02   9.248778e+00
  -1.397885e+02  -4.017550e+01
  -1.965479e+01  -8.384119e+01
   1.055504e+02  -7.679004e+01
   1.336807e+02  -1.933179e+01
   4.794179e+01   3.927810e+01
  -5.919846e+01   3.428709e+01
  -7.293359e+01  -1.716312e+01
  -7.069318e+00  -7.042862e+01
   5.699321e+01  -5.636837e+01
   6.110629e+01   4.442886e+00
   3.540397e+01   4.763970e+01
   4.200115e+01   4.191502e+01
   6.062427e+01   1.806867e+00
   6.735831e+01   1.536684e+00
   3.861578e+01   6.403329e+01
  -4.045815e+01   1.357208e+02
  -9.517939e+01   1.293414e+02
  -1.414697e+02   2.572553e+01
  -1.202965e+02  -8.037057e+01
  -7.413235e+00  -1.186016e+02
   7.463036e+01  -5.974984e+01
   5.869708e+01   1.594322e+01
  -5.518965e+01   1.635805e+01
  -1.387306e+02  -3.694355e+01
  -7.585561e+01  -1.028961e+02
   8.335031e+01  -1.138292e+02
   1.659106e+02  -4.686476e+01
   1.558723e+02   3.303435e+01
   3.402276e+01   7.614866e+01
  -5.288499e+01   7.046094e+01
  -4.623409e+01   8.647546e+00
   3.588493e+01  -2.575980e+01
   8.874933e+01   2.405335e+01
   2.881242e+01   1.090416e+02
  -9.330597e+01   1.504298e+02
  -1.642704e+02   6.074718e+01
  -1.196715e+02  -1.034553e+02
  -8.781777e+00  -1.931848e+02
   7.963155e+01  -1.390916e+02
   1.030132e+02   9.880512e+00
   5.885063e+01   1.148570e+02
   3.715306e+00   1.125132e+02
  -4.246987e+01   2.245214e+01
  -4.972246e+01  -3.032116e+01
  -2.765444e+01  -6.872688e+00
  -4.034273e+00   2.037234e+01
  -1.515077e+01  -1.368530e+01
  -5.599620e+01  -8.704216e+01
  -4.444729e+01  -1.075537e+02
   4.663790e+01  -4.725719e+01
   1.285306e+02   3.759824e+01
   1.353538e+02   6.795251e+01
   1.484465e+01   4.871130e+01
  -8.265003e+01   2.521136e+01
  -8.635904e+01   3.501133e+00
  -1.001455e+01  -5.613622e+00
   3.755830e+01  -2.314213e+01
   1.195471e+01  -2.103782e+01
  -2.408319e+01   1.670465e+00
   7.176793e+00   9.813020e+00
   7.674958e+01   4.512546e+00
   8.697295e+01   2.350646e+01
   3.540357e+00   7.742707e+01
  -1.087078e+02   1.113758e+02
  -1.714323e+02   5.731634e+01
  -1.399221e+02  -6.166162e+01
  -2.496413e+01  -1.499662e+02
   7.408771e+01  -1.431494e+02
   1.136717e+02  -6.017364e+01
   7.800709e+01   1.793605e+01
   2.197615e+01   3.431267e+01
  -4.982701e+00   5.768692e+00
   7.447899e+00   2.623304e+00
   3.074690e+01   4.320555e+01
   2.134084e+01   9.115899e+01
  -2.545841e+01   6.416818e+01
  -8.436693e+01  -1.838383e+01
  -6.580290e+01  -1.049799e+02
  -1.003167e+01  -1.001023e+02
   8.130011e+01  -2.064992e+01
   8.657938e+01   7.507441e+01
   3.183163e+01   9.246835e+01
  -6.269368e+01   5.279276e+01
  -9.379803e+01  -1.305104e+01
  -3.539641e+01  -4.505510e+01
   3.148466e+01  -4.545817e+01
   2.705135e+01  -2.604304e+01
  -3.604382e+01  -5.869075e-01
  -6.249956e+01   6.226557e+00
  -1.382842e+01  -2.312827e+01
   6.806741e+01  -6.062438e+01
   1.161540e+02  -5.783479e+01
   5.760171e+01   7.198935e+00
  -1.288248e+01   7.646231e+01
  -4.925353e+01   7.031304e+01
  -3.288177e+01   1.943178e-01
   2.538300e+00  -5.271856e+01
   2.517669e+01  -3.895435e+01
   3.544814e+01   2.173166e+01
   2.490701e+01   5.107197e+01
  -3.110176e+00   2.697616e+01
  -2.998977e+01  -8.846439e+00
  -3.733710e+01  -1.860068e+01
  -1.887854e+01  -1.409065e-01
   2.073263e-01   1.030872e+01
   8.225312e+00  -6.219999e+00
   8.354637e+00  -3.875022e+01
   2.094958e+01  -4.160764e+01
   2.857397e+01  -5.483832e+00
   2.656869e+01   4.664789e+01
  -6.109080e+00   5.765617e+01
  -4.822197e+01   1.781261e+01
  -5.216262e+01  -3.675378e+01
  -1.171559e+01  -5.924387e+01
   5.782170e+01  -3.527286e+01
   7.579960e+01   1.586966e+01
   4.809267e+01   4.122466e+01
  -2.486007e+01   3.661410e+01
  -6.110436e+01   1.803489e+01
  -2.268182e+01   5.351122e+00
   4.265207e+01   1.716294e+00
   4.029159e+01   1.767603e+01
  -3.111804e+01   3.193254e+01
  -9.094351e+01   1.703780e+01
