
 $NMID
 id='ANONYMOUS ', fmtdat='(2E16.6)'
 volume=1.0
 tramp=1.0
 $END
   4.597391e+03   5.620826e+00
   2.507241e+03   2.372981e+03
  -8.408323e+02   2.811034e+03
  -2.169924e+03   9.362495e+02
  -9.096601e+02  -6.113212e+02
   7.128043e+02  -6.109402e+02
   9.473198e+02   4.037426e+02
  -4.613031e+01   1.087167e+03
  -8.083724e+02   7.729643e+02
  -1.012699e+03  -2.797948e+01
  -4.520587e+02  -8.147908e+02
   2.237456e+02  -9.106373e+02
   6.694787e+02  -1.372210e+02
   3.783233e+02   7.645684e+02
  -2.704501e+02   7.517436e+02
  -6.833077e+02   1.229357e+01
  -2.477164e+02  -7.324461e+02
   2.897012e+02  -6.501610e+02
   6.107763e+02  -9.548634e+01
   3.711675e+02   3.728178e+02
   4.903936e+01   4.869023e+02
  -2.453864e+02   2.695112e+02
  -2.209810e+02   8.230618e+00
   1.322504e+02  -9.082773e+01
   4.256006e+02   1.134016e+02
   2.592549e+02   4.501997e+02
  -4.646883e+02   4.429664e+02
  -9.028293e+02   3.735563e+00
  -4.286022e+02  -5.403304e+02
   4.275624e+02  -4.788691e+02
   7.402354e+02   6.592607e+01
   3.846339e+02   5.047580e+02
  -2.953151e+02   5.529771e+02
  -5.612952e+02   2.382801e+02
  -4.480699e+02  -2.327936e+02
  -5.975235e+01  -5.087784e+02
   2.080165e+02  -3.061120e+02
   1.460623e+02   2.321730e+02
  -1.721790e+02   4.274213e+02
  -4.351627e+02  -2.100253e+01
  -3.296707e+02  -6.953687e+02
   2.836025e+02  -6.735918e+02
   6.862426e+02  -2.437131e+01
   2.848563e+02   5.665604e+02
  -3.355135e+02   3.584844e+02
  -3.947888e+02  -3.347218e+02
   5.107923e+01  -5.861417e+02
   5.322703e+02  -1.486048e+02
   6.180993e+02   4.195585e+02
   1.556312e+02   5.583267e+02
  -3.643648e+02   3.383261e+02
  -6.824203e+02  -6.763611e+01
  -4.380230e+02  -4.037354e+02
   1.319136e+02  -3.666380e+02
   4.575500e+02  -6.844321e+01
   2.792209e+02   2.101755e+02
  -1.361098e+02   1.195970e+02
  -1.458625e+02  -1.732472e+02
   1.853284e+02  -1.787259e+02
   3.740855e+02   6.735421e+01
   1.366078e+02   2.941667e+02
  -2.143419e+02   2.702772e+02
  -3.331737e+02   1.040094e+02
  -2.039216e+02  -8.482912e+01
   4.189427e+01  -2.401356e+02
   1.959823e+02  -3.312538e+02
   3.405450e+02  -2.267003e+02
   3.155245e+02   1.270165e+02
   6.037739e+01   4.287448e+02
  -1.122017e+02   3.708499e+02
  -1.281218e+02   1.182514e+02
  -3.214639e+01  -2.950727e+01
  -4.977540e+01   8.703184e+01
  -1.907029e+02   1.328915e+02
  -2.922653e+02  -4.876845e+01
  -2.017333e+02  -2.718439e+02
   4.250173e+01  -2.787929e+02
   2.155029e+02  -2.677716e+01
   2.107642e+02   2.435388e+02
  -1.475753e+01   2.978797e+02
  -2.685159e+02   1.351525e+02
  -3.588986e+02  -1.809216e+02
  -2.090244e+02  -3.326319e+02
   1.181056e+02  -2.964697e+02
   2.494285e+02  -1.245283e+02
   1.484950e+02  -2.179784e+01
   9.536894e+01  -3.247065e+01
   2.389133e+02  -6.471117e+01
   3.937961e+02   5.696111e+01
   3.504480e+02   2.622725e+02
   2.348682e+01   4.582514e+02
  -3.397050e+02   4.477060e+02
  -4.909455e+02   2.204914e+02
  -3.333158e+02  -8.591422e+01
  -7.536435e+01  -3.053278e+02
   1.292576e+02  -2.710057e+02
   7.143097e+01  -3.140575e+01
  -1.144715e+02   1.230749e+02
  -2.170435e+02  -1.278469e+01
  -4.921813e+01  -2.067383e+02
   1.660137e+02  -1.767140e+02
   1.724060e+02   7.326255e+01
  -5.073398e+00   1.998428e+02
  -2.034971e+02   3.375503e+01
  -1.842358e+02  -2.413434e+02
   1.651433e+01  -3.457090e+02
   2.628000e+02  -2.118304e+02
   3.335583e+02   5.507199e+01
   2.763489e+02   2.391020e+02
   8.545972e+01   2.773947e+02
  -1.073593e+02   1.604662e+02
  -1.787812e+02   3.778107e+01
  -6.027312e+01  -3.365676e+01
   6.812076e+01   3.525920e+01
   3.775568e+01   1.293295e+02
  -1.192060e+02   1.130484e+02
  -1.724664e+02  -5.597490e+00
  -6.079839e+01  -7.386704e+01
   8.023524e+01  -2.472897e+01
   5.898406e+01   6.554146e+01
  -1.256943e+02   8.966806e+01
  -2.799325e+02   3.803135e+00
  -2.834295e+02  -1.477801e+02
  -5.656277e+01  -2.646493e+02
   1.846376e+02  -2.817813e+02
   2.767290e+02  -1.336177e+02
   1.743911e+02   4.826630e+01
  -2.533363e+01   1.130322e+02
  -9.066269e+01   1.235182e+01
   3.096196e+01  -1.019168e+02
   1.958056e+02  -6.931004e+01
   2.127126e+02   9.874200e+01
   7.928816e+01   2.039730e+02
  -9.276208e+01   1.654190e+02
  -1.478345e+02   3.665616e+01
  -7.147095e+01  -4.151667e+01
   2.845415e+01  -1.100219e+01
   4.098248e+01   8.565060e+01
  -6.650986e+01   1.171494e+02
  -1.898423e+02   3.959243e+01
  -2.059646e+02  -1.387097e+02
  -2.620672e+01  -2.153163e+02
   1.575289e+02  -1.653130e+02
   2.002583e+02   1.764204e+00
   7.282394e+01   1.141464e+02
  -6.861050e+01   1.151533e+02
  -8.677267e+01   2.882955e+01
  -2.285268e+01  -2.678021e+01
   2.395080e+01  -2.094896e+01
  -9.833195e+00   7.584972e+00
  -6.906149e+01  -5.673977e+00
  -9.293751e+01  -7.766212e+01
  -1.218375e+01  -1.572164e+02
   1.260973e+02  -1.551117e+02
   2.278759e+02  -3.283192e+01
   2.167144e+02   1.614662e+02
   5.064781e+01   2.479727e+02
  -1.130185e+02   1.726663e+02
  -1.367195e+02   2.275650e+01
  -7.043757e+01  -6.412563e+01
  -2.875842e+01  -3.557721e+01
  -4.967571e+01   9.156923e+00
  -8.366062e+01   7.355207e+00
  -4.346293e+01  -5.088353e+01
   3.642640e+01  -8.715147e+01
   1.034133e+02  -5.233492e+01
   9.054654e+01   3.155492e+01
  -1.041743e+01   1.129900e+02
  -1.330341e+02   9.452280e+01
  -2.012184e+02  -2.910645e+01
  -1.121947e+02  -2.012455e+02
   1.010350e+02  -2.242518e+02
   2.786812e+02  -1.122942e+02
   2.702383e+02   7.473855e+01
   1.123012e+02   1.790183e+02
  -3.846413e+01   1.458773e+02
  -9.000232e+01   9.232344e+01
  -8.058311e+01   7.651770e+01
  -6.684408e+01   9.305122e+01
  -1.023661e+02   7.665275e+01
  -1.310119e+02  -1.401526e+01
  -1.264629e+02  -1.550096e+02
  -4.611482e+01  -2.398470e+02
   8.248677e+01  -1.786503e+02
   1.795797e+02  -3.095874e+01
   1.377541e+02   1.145735e+02
   3.138404e+01   1.627429e+02
  -7.148239e+01   9.071026e+01
  -6.065445e+01   5.181060e+00
  -5.393321e+00  -4.414083e+01
   6.681292e+00  -3.583329e+01
  -3.668322e+01  -1.788500e+01
  -8.655423e+01  -2.807553e+01
  -4.528331e+01  -4.027793e+01
   6.400744e+01  -3.650134e+01
   1.658399e+02  -8.572935e+00
   1.478741e+02   4.428259e+01
   1.388815e+01   8.525692e+01
  -1.269462e+02   8.079276e+01
  -1.471898e+02   2.194651e+01
  -4.901068e+01  -3.662706e+01
   6.141070e+01  -4.009155e+01
   7.283719e+01   1.524504e+01
   5.062539e+00   6.823030e+01
  -4.894899e+01   5.716491e+01
  -5.906428e+01  -6.975831e-01
  -4.339017e+01  -5.209453e+01
  -4.616004e+01  -4.261016e+01
  -6.343722e+01  -3.377224e+00
  -6.557945e+01   7.150237e-01
  -3.707325e+01  -6.760762e+01
   3.830505e+01  -1.480351e+02
   1.193518e+02  -1.500975e+02
   1.633837e+02  -3.402714e+01
   1.299747e+02   9.218048e+01
   3.168923e+00   1.287561e+02
  -8.734365e+01   6.404367e+01
  -5.591550e+01  -1.324324e+01
   5.861377e+01  -2.328909e+01
   1.396321e+02   4.238231e+01
   8.504377e+01   1.073797e+02
  -7.132613e+01   1.183361e+02
  -2.066205e+02   6.504941e+01
  -1.728447e+02  -2.517387e+01
  -3.717217e+01  -8.955903e+01
   5.248386e+01  -7.519745e+01
   4.720059e+01  -7.607303e+00
  -3.814882e+01   2.811784e+01
  -9.458161e+01  -1.910501e+01
  -2.910735e+01  -1.223297e+02
   8.016613e+01  -1.573556e+02
   1.709094e+02  -6.043800e+01
   1.311737e+02   9.882275e+01
   8.058142e+00   1.937982e+02
  -9.480818e+01   1.431371e+02
  -1.044877e+02   9.975685e-02
  -6.424071e+01  -1.170524e+02
   5.437176e-01  -1.088013e+02
   4.593120e+01  -2.024737e+01
   5.513554e+01   3.475307e+01
   2.532409e+01   7.764828e+00
   3.128538e+00  -2.129439e+01
   1.978677e+01   1.353678e+01
   5.523248e+01   8.516669e+01
   5.096082e+01   1.170411e+02
  -4.560187e+01   4.377519e+01
  -1.497001e+02  -4.109166e+01
  -1.248617e+02  -6.851536e+01
  -1.586755e+01  -4.723879e+01
   8.698071e+01  -2.574728e+01
   8.750505e+01  -9.148918e+00
   1.150372e+01   7.337074e+00
  -3.932209e+01   1.969720e+01
  -1.154532e+01   2.031012e+01
   2.138017e+01  -7.241100e-01
  -5.279248e+00  -8.245770e+00
  -7.283107e+01  -5.588006e+00
  -9.059119e+01  -2.534669e+01
  -3.626977e+00  -8.141215e+01
   1.257926e+02  -1.118850e+02
   1.735398e+02  -7.145890e+01
   1.351498e+02   6.783223e+01
   2.480775e+01   1.585569e+02
  -8.575878e+01   1.686611e+02
  -1.114783e+02   6.061150e+01
  -7.835481e+01  -2.348329e+01
  -2.693374e+01  -3.443642e+01
   2.912876e+00  -8.165040e+00
  -1.060611e+01  -3.302371e+00
  -3.587394e+01  -5.094737e+01
  -2.188544e+01  -9.452585e+01
   2.941256e+01  -7.211211e+01
   7.815901e+01   1.980573e+01
   7.723910e+01   1.095862e+02
   4.056752e+00   1.159943e+02
  -7.916035e+01   2.709676e+01
  -1.033057e+02  -7.670347e+01
  -3.548273e+01  -9.971472e+01
   6.817957e+01  -6.020545e+01
   9.383091e+01   1.026162e+01
   4.053745e+01   5.239007e+01
  -3.082064e+01   5.474074e+01
  -2.939794e+01   3.019949e+01
   3.452287e+01  -9.992761e-01
   7.094390e+01  -2.028060e+00
   1.533165e+01   2.484311e+01
  -8.051013e+01   6.844466e+01
  -1.164732e+02   5.898160e+01
  -6.954751e+01  -1.361465e+01
   1.407593e+01  -8.493509e+01
   4.842992e+01  -7.801527e+01
   3.484610e+01  -7.244767e+00
   1.094860e+00   5.973227e+01
  -2.626848e+01   4.263257e+01
  -3.863057e+01  -1.453108e+01
  -2.929323e+01  -5.397118e+01
   2.003266e+00  -3.379016e+01
   3.212289e+01   7.879240e+00
   3.776027e+01   2.254400e+01
   2.105694e+01  -2.908382e-01
  -1.737113e+00  -1.494535e+01
  -7.064194e+00   1.231519e+00
  -7.046804e+00   3.824099e+01
  -1.773826e+01   4.406882e+01
  -3.241040e+01   4.652682e+00
  -3.393935e+01  -4.020437e+01
   4.519638e+00  -6.114376e+01
   4.517957e+01  -1.943189e+01
   5.736599e+01   4.101285e+01
   1.805090e+01   6.455986e+01
  -5.485778e+01   3.352472e+01
  -9.026413e+01  -1.446791e+01
  -5.013272e+01  -4.664538e+01
   3.377816e+01  -4.193515e+01
   6.848947e+01  -1.707174e+01
   2.356980e+01  -5.927586e+00
  -3.746379e+01  -4.184809e+00
  -3.900085e+01  -1.632064e+01
   3.115058e+01  -3.480217e+01
   9.234280e+01  -2.286049e+01
