
 $NMID
 id='ANONYMOUS ', fmtdat='(2E16.6)'
 volume=1.0
 tramp=1.0
 $END
  -4.337112e+03   2.255485e+02
  -2.649544e+03  -2.473614e+03
   8.373074e+02  -2.690231e+03
   2.318182e+03  -8.413704e+02
   9.616236e+02   7.076759e+02
  -8.424968e+02   5.831413e+02
  -9.909365e+02  -5.179458e+02
   4.877978e+01  -1.118091e+03
   8.699155e+02  -8.434648e+02
   1.047343e+03   1.089672e+02
   4.525230e+02   9.190873e+02
  -3.226036e+02   9.268927e+02
  -6.863409e+02   1.253361e+02
  -4.486504e+02  -7.402421e+02
   2.600902e+02  -7.636223e+02
   7.146231e+02   4.028388e+00
   2.662494e+02   7.555365e+02
  -3.439201e+02   6.645909e+02
  -6.235483e+02   6.912511e+01
  -3.770510e+02  -3.941214e+02
   2.515966e+01  -4.549448e+02
   2.688344e+02  -2.339456e+02
   2.419421e+02  -9.869218e+00
  -1.254754e+02   1.071721e+02
  -4.424215e+02  -1.071456e+02
  -2.449975e+02  -4.311747e+02
   4.204051e+02  -4.578820e+02
   9.139757e+02   1.466255e+00
   4.130146e+02   6.043502e+02
  -4.564198e+02   5.368643e+02
  -7.624210e+02  -5.990147e+01
  -4.057395e+02  -4.966434e+02
   2.849484e+02  -5.429583e+02
   5.870604e+02  -2.268274e+02
   4.490388e+02   2.546718e+02
   9.170257e+01   4.912579e+02
  -2.480135e+02   3.171352e+02
  -1.770424e+02  -2.516603e+02
   1.428683e+02  -4.915643e+02
   4.693630e+02   3.405954e+01
   3.380894e+02   6.593873e+02
  -3.091693e+02   7.452684e+02
  -6.527987e+02  -3.091805e+00
  -2.772678e+02  -6.072681e+02
   3.298041e+02  -3.824855e+02
   4.205945e+02   3.149341e+02
  -5.286961e+01   5.650855e+02
  -5.641552e+02   1.455793e+02
  -6.549648e+02  -4.442494e+02
  -1.674588e+02  -5.758554e+02
   3.781222e+02  -3.550169e+02
   6.810413e+02   9.881807e+01
   4.258575e+02   4.013673e+02
  -1.317465e+02   3.828780e+02
  -4.271450e+02   4.556189e+01
  -2.732086e+02  -2.413421e+02
   1.500957e+02  -1.299722e+02
   1.809337e+02   1.866513e+02
  -1.700707e+02   1.886079e+02
  -3.696204e+02  -7.762672e+01
  -1.468746e+02  -2.974650e+02
   2.084729e+02  -2.568824e+02
   3.291511e+02  -8.900461e+01
   1.810690e+02   7.833894e+01
  -4.210528e+01   2.322766e+02
  -2.067731e+02   3.542703e+02
  -3.524850e+02   2.245021e+02
  -3.286576e+02  -1.312952e+02
  -5.953857e+01  -4.518171e+02
   1.214751e+02  -3.976296e+02
   1.406612e+02  -1.144000e+02
   1.854769e+01   3.106896e+01
   4.728046e+01  -9.131813e+01
   1.743767e+02  -1.377624e+02
   2.929742e+02   3.434546e+01
   1.918811e+02   2.757717e+02
  -4.593652e+01   2.863264e+02
  -2.354721e+02   3.745712e+01
  -2.263075e+02  -2.572719e+02
   2.578659e+00  -3.050861e+02
   2.682922e+02  -1.231595e+02
   3.588095e+02   1.917336e+02
   2.148858e+02   3.390736e+02
  -1.131508e+02   3.126007e+02
  -2.263062e+02   9.977576e+01
  -1.610048e+02   2.384284e+01
  -8.782314e+01   2.861213e+01
  -2.323165e+02   6.156301e+01
  -3.961501e+02  -4.087109e+01
  -3.461946e+02  -2.699329e+02
  -1.358217e+01  -4.531665e+02
   3.388228e+02  -4.260488e+02
   4.917182e+02  -2.008574e+02
   3.427946e+02   7.082167e+01
   7.448912e+01   3.262770e+02
  -1.426293e+02   2.698972e+02
  -9.575425e+01   3.117913e+01
   1.112678e+02  -1.351616e+02
   2.146415e+02   1.130086e+01
   5.912643e+01   1.966345e+02
  -1.634026e+02   1.727101e+02
  -1.826541e+02  -5.725151e+01
   5.669463e+00  -2.170225e+02
   2.162543e+02  -3.674906e+01
   1.858196e+02   2.401343e+02
  -2.400432e+01   3.522114e+02
  -2.460467e+02   1.785271e+02
  -3.294072e+02  -4.052667e+01
  -2.697220e+02  -2.523466e+02
  -1.047286e+02  -2.708101e+02
   1.110297e+02  -1.674511e+02
   1.868269e+02  -2.233462e+01
   6.626619e+01   3.660778e+01
  -7.761719e+01  -3.429122e+01
  -4.143045e+01  -1.246399e+02
   1.153776e+02  -1.113632e+02
   1.784927e+02   1.178798e+01
   6.244936e+01   7.943483e+01
  -8.259828e+01   2.326705e+01
  -6.015745e+01  -6.691339e+01
   1.232158e+02  -8.757439e+01
   2.774540e+02  -1.433658e+01
   2.752722e+02   1.411981e+02
   5.020446e+01   2.560139e+02
  -1.740989e+02   2.907248e+02
  -2.746831e+02   1.267382e+02
  -1.777200e+02  -4.138431e+01
   2.567819e+01  -1.183264e+02
   9.222685e+01  -6.658258e+00
  -3.055091e+01   1.084225e+02
  -2.090541e+02   6.744529e+01
  -2.207060e+02  -9.567172e+01
  -7.738240e+01  -2.075875e+02
   1.045784e+02  -1.723627e+02
   1.512652e+02  -4.683082e+01
   7.350366e+01   4.211168e+01
  -2.602469e+01   1.460036e+01
  -3.926114e+01  -7.932989e+01
   6.260877e+01  -1.157348e+02
   1.939884e+02  -4.119961e+01
   2.024974e+02   1.415222e+02
   2.781844e+01   2.079215e+02
  -1.671427e+02   1.706104e+02
  -1.988072e+02   6.194099e+00
  -7.220391e+01  -1.182389e+02
   6.899841e+01  -1.212194e+02
   8.531439e+01  -2.943569e+01
   2.533951e+01   2.597376e+01
  -2.049268e+01   1.992496e+01
   9.378603e+00  -2.198202e+00
   6.807147e+01   1.062665e+01
   8.605201e+01   7.582652e+01
   1.978164e+01   1.517185e+02
  -1.247679e+02   1.404946e+02
  -2.250354e+02   4.443899e+01
  -2.124891e+02  -1.671691e+02
  -5.396037e+01  -2.507058e+02
   1.086241e+02  -1.692635e+02
   1.304974e+02  -1.847616e+01
   7.014533e+01   6.554044e+01
   2.651276e+01   3.652934e+01
   5.281018e+01  -8.699496e+00
   8.376441e+01  -1.045073e+01
   3.902838e+01   4.680670e+01
  -3.782589e+01   8.487876e+01
  -9.276159e+01   4.795189e+01
  -8.785191e+01  -3.418669e+01
   1.239604e+01  -1.160835e+02
   1.340928e+02  -8.813194e+01
   1.961839e+02   2.728256e+01
   1.230481e+02   1.998675e+02
  -9.222916e+01   2.267059e+02
  -2.669375e+02   1.238298e+02
  -2.541484e+02  -7.033651e+01
  -1.138819e+02  -1.836095e+02
   3.947864e+01  -1.397603e+02
   8.621482e+01  -9.413676e+01
   8.239063e+01  -7.148065e+01
   7.253765e+01  -9.654530e+01
   9.472328e+01  -7.228604e+01
   1.297230e+02   2.140840e+01
   1.200572e+02   1.591457e+02
   5.161115e+01   2.399838e+02
  -8.514263e+01   1.798003e+02
  -1.728038e+02   3.105757e+01
  -1.385920e+02  -1.191615e+02
  -2.345004e+01  -1.708743e+02
   6.686151e+01  -9.372127e+01
   5.546567e+01  -6.960590e+00
   5.156773e+00   3.897919e+01
  -5.427526e+00   3.297235e+01
   3.982965e+01   1.965852e+01
   8.263078e+01   2.884768e+01
   4.106598e+01   3.960673e+01
  -5.972218e+01   3.234390e+01
  -1.519015e+02   7.224465e+00
  -1.451889e+02  -4.929985e+01
  -1.656302e+01  -8.808546e+01
   1.191795e+02  -7.479287e+01
   1.553647e+02  -2.561455e+01
   5.100925e+01   3.893014e+01
  -6.174681e+01   3.443211e+01
  -7.452589e+01  -1.641238e+01
  -5.128030e-01  -6.483935e+01
   5.542108e+01  -5.637972e+01
   6.132133e+01   3.149016e+00
   4.048671e+01   5.042600e+01
   4.488538e+01   4.112755e+01
   6.352866e+01   4.570353e+00
   6.641413e+01  -5.858128e-01
   3.694002e+01   6.935333e+01
  -3.557752e+01   1.490314e+02
  -1.138783e+02   1.457827e+02
  -1.558153e+02   2.717976e+01
  -1.309076e+02  -8.260445e+01
  -5.788003e+00  -1.222500e+02
   7.874046e+01  -6.299380e+01
   5.916355e+01   1.517450e+01
  -6.033392e+01   2.258793e+01
  -1.411145e+02  -4.682830e+01
  -8.206688e+01  -1.133431e+02
   6.872921e+01  -1.115251e+02
   2.053079e+02  -6.262620e+01
   1.771980e+02   2.914985e+01
   4.080664e+01   9.228795e+01
  -5.502095e+01   7.492931e+01
  -5.071556e+01   7.850857e+00
   3.814447e+01  -2.638417e+01
   9.076748e+01   1.696665e+01
   2.690021e+01   1.199791e+02
  -8.499971e+01   1.465613e+02
  -1.649222e+02   6.338714e+01
  -1.309244e+02  -9.661985e+01
  -1.014899e+01  -1.845152e+02
   8.438662e+01  -1.428553e+02
   1.064132e+02   4.820499e+00
   6.508427e+01   1.093966e+02
   2.002311e+00   1.118947e+02
  -4.358824e+01   1.902150e+01
  -5.676154e+01  -3.058683e+01
  -2.727144e+01  -7.478105e+00
  -3.997544e+00   2.149182e+01
  -1.895140e+01  -1.336605e+01
  -5.906982e+01  -8.678389e+01
  -4.492646e+01  -1.138380e+02
   4.778581e+01  -4.516961e+01
   1.513135e+02   3.901786e+01
   1.256631e+02   6.783048e+01
   1.516414e+01   4.947638e+01
  -9.175274e+01   2.597930e+01
  -9.162648e+01   8.874578e+00
  -1.072756e+01  -7.241961e+00
   4.049916e+01  -2.300126e+01
   1.105492e+01  -1.968035e+01
  -2.121683e+01  -4.572166e-01
   6.036180e+00   9.439936e+00
   7.568292e+01   8.228311e+00
   8.682771e+01   2.803751e+01
   5.144619e-01   8.233218e+01
  -1.210659e+02   1.119831e+02
  -1.764598e+02   6.658083e+01
  -1.389432e+02  -6.126693e+01
  -2.007281e+01  -1.570335e+02
   8.743217e+01  -1.569612e+02
   1.099053e+02  -6.224115e+01
   7.679543e+01   2.511895e+01
   2.582873e+01   3.519230e+01
  -4.133538e+00   7.804914e+00
   9.193294e+00   2.440706e+00
   3.260795e+01   4.672535e+01
   2.297179e+01   9.548866e+01
  -2.981340e+01   7.383522e+01
  -8.056875e+01  -2.130245e+01
  -8.118423e+01  -1.168787e+02
  -3.026005e+00  -1.184263e+02
   7.966472e+01  -2.885875e+01
   1.039091e+02   7.677532e+01
   3.440759e+01   1.048974e+02
  -6.507525e+01   5.458451e+01
  -9.612026e+01  -1.193329e+01
  -3.639380e+01  -5.055363e+01
   3.317750e+01  -5.226112e+01
   2.907708e+01  -3.045113e+01
  -3.275414e+01   1.826318e+00
  -7.014383e+01   2.129370e+00
  -1.543538e+01  -2.447285e+01
   8.697109e+01  -6.803539e+01
   1.104423e+02  -5.783366e+01
   6.165551e+01   1.371419e+01
  -1.383154e+01   8.776827e+01
  -5.028095e+01   8.241418e+01
  -3.311000e+01   7.339749e+00
   3.278258e+00  -6.100775e+01
   2.517441e+01  -4.080448e+01
   3.837393e+01   1.874787e+01
   3.019418e+01   5.311278e+01
  -2.397288e+00   3.280390e+01
  -3.163472e+01  -9.562384e+00
  -3.647695e+01  -2.243545e+01
  -2.077754e+01   9.480005e-01
   1.345669e+00   1.478316e+01
   7.007541e+00  -2.629058e+00
   1.135255e+01  -3.928157e+01
   2.137923e+01  -4.446547e+01
   3.177486e+01  -4.907235e+00
   2.999291e+01   4.168253e+01
  -6.575219e+00   6.429887e+01
  -4.627722e+01   2.111188e+01
  -5.452354e+01  -4.202825e+01
  -1.311507e+01  -6.373704e+01
   5.376091e+01  -3.472382e+01
   9.277080e+01   1.283396e+01
   4.496267e+01   4.720726e+01
  -3.162869e+01   4.111821e+01
  -6.694932e+01   1.427340e+01
  -2.345126e+01   5.164384e+00
   3.887214e+01   4.216257e+00
   3.900045e+01   1.541932e+01
  -3.384952e+01   3.565564e+01
  -9.511041e+01   2.327109e+01
