
 $NMID
 id='ANONYMOUS ', fmtdat='(2E16.6)'
 volume=1.0
 tramp=1.0
 $END
   3.504686e+03   1.924540e+02
   2.048528e+03   1.862824e+03
  -4.760968e+02   2.201579e+03
  -1.716729e+03   7.838247e+02
  -7.179861e+02  -6.236635e+02
   4.933464e+02  -5.714848e+02
   6.801637e+02   2.507116e+02
  -5.119050e+01   8.141617e+02
  -6.455572e+02   4.846120e+02
  -7.702628e+02  -5.565970e+01
  -4.209402e+02  -7.461224e+02
   1.646179e+02  -7.076291e+02
   4.505697e+02  -1.226208e+02
   2.824256e+02   5.706334e+02
  -1.688197e+02   6.041394e+02
  -4.767991e+02  -9.100715e+00
  -2.206441e+02  -5.407938e+02
   2.775691e+02  -4.346764e+02
   4.381853e+02  -3.363619e+00
   2.908797e+02   2.981703e+02
  -8.966583e+00   3.340562e+02
  -1.735756e+02   2.361660e+02
  -1.565340e+02   4.348197e+00
   7.637765e+01  -7.589350e+01
   3.381230e+02   5.895284e+01
   1.511771e+02   3.709605e+02
  -3.952687e+02   3.237597e+02
  -6.204758e+02  -9.301852e+01
  -3.496758e+02  -3.674267e+02
   3.988896e+02  -3.985086e+02
   5.651198e+02   5.137883e+01
   2.394639e+02   4.283095e+02
  -2.865702e+02   4.222734e+02
  -4.604017e+02   2.331073e+02
  -3.290255e+02  -2.169799e+02
  -3.636492e+01  -3.941705e+02
   1.341991e+02  -2.274407e+02
   1.203629e+02   1.462424e+02
  -1.185291e+02   3.452312e+02
  -3.419046e+02  -2.575778e+01
  -2.001347e+02  -5.340308e+02
   3.160362e+02  -5.163574e+02
   4.518902e+02   9.347624e+00
   2.248612e+02   4.411400e+02
  -2.355961e+02   2.377290e+02
  -2.920919e+02  -2.687875e+02
   7.241959e+01  -4.247324e+02
   4.198650e+02  -1.184741e+02
   4.012439e+02   3.101002e+02
   1.282896e+02   4.890329e+02
  -3.101744e+02   2.661745e+02
  -5.013543e+02  -3.251457e+01
  -3.019010e+02  -2.758954e+02
   8.678948e+01  -3.067300e+02
   3.437037e+02  -7.809268e+01
   1.622570e+02   1.812570e+02
  -1.123874e+02   7.429844e+01
  -1.248488e+02  -9.860530e+01
   1.187627e+02  -1.361086e+02
   2.463069e+02   4.963478e+01
   1.220876e+02   2.240182e+02
  -1.487781e+02   1.860123e+02
  -2.805000e+02   4.864524e+01
  -1.426449e+02  -7.548369e+01
   1.652738e+01  -1.669095e+02
   1.915720e+02  -2.298559e+02
   2.514549e+02  -1.905563e+02
   2.181564e+02   1.162288e+02
   5.865908e+01   3.323326e+02
  -1.061914e+02   2.773206e+02
  -1.013587e+02   8.051048e+01
  -1.050305e+01  -2.267244e+01
  -3.794465e+01   6.095625e+01
  -1.343826e+02   1.111178e+02
  -2.319110e+02  -5.381496e+01
  -1.170850e+02  -2.244693e+02
   6.756109e+01  -2.101486e+02
   1.929372e+02   1.153137e+00
   1.529386e+02   1.711736e+02
  -5.195325e+00   2.438828e+02
  -1.972836e+02   8.108291e+01
  -2.863627e+02  -1.118758e+02
  -1.517763e+02  -2.696209e+02
   9.640406e+01  -2.485887e+02
   1.874735e+02  -9.514849e+01
   1.193925e+02  -2.861452e+00
   7.178125e+01  -2.416978e+01
   1.847293e+02  -5.414684e+01
   3.274150e+02   6.814910e+01
   2.503994e+02   2.142901e+02
  -2.416866e+01   3.434138e+02
  -2.910896e+02   3.273617e+02
  -3.855289e+02   1.545913e+02
  -2.839412e+02  -7.742826e+01
  -4.311574e+01  -2.485726e+02
   1.176566e+02  -2.010961e+02
   5.818307e+01  -3.319965e+01
  -7.466957e+01   7.524734e+01
  -1.484005e+02  -2.674460e+00
  -4.540557e+01  -1.596246e+02
   1.049740e+02  -1.408964e+02
   1.286760e+02   5.510615e+01
  -2.024812e+01   1.573111e+02
  -1.457472e+02   1.384079e+01
  -1.043808e+02  -1.902261e+02
   3.193255e+01  -2.793995e+02
   1.729177e+02  -1.434418e+02
   2.468067e+02   3.562397e+01
   2.077881e+02   1.887311e+02
   5.005111e+01   1.885065e+02
  -8.474976e+01   1.180861e+02
  -1.461955e+02   2.120584e+01
  -4.593164e+01  -2.611893e+01
   5.730198e+01   3.007387e+01
   1.988811e+01   8.023520e+01
  -1.045619e+02   8.385041e+01
  -1.333001e+02  -2.237579e+01
  -5.292964e+01  -5.894906e+01
   6.189881e+01  -1.520358e+01
   3.857514e+01   5.442096e+01
  -9.894991e+01   6.993867e+01
  -2.043295e+02  -2.379766e+01
  -1.906356e+02  -1.243395e+02
  -3.419613e+01  -2.149903e+02
   1.598081e+02  -1.922617e+02
   2.250285e+02  -9.829123e+01
   1.264068e+02   4.164836e+01
  -1.812005e+01   8.621770e+01
  -7.188080e+01   1.259493e+01
   2.728422e+01  -7.783346e+01
   1.593223e+02  -5.075137e+01
   1.754888e+02   8.424862e+01
   5.884503e+01   1.633246e+02
  -7.146716e+01   1.252096e+02
  -1.110267e+02   1.074350e+01
  -5.461107e+01  -3.411149e+01
   1.893100e+01  -3.716165e+00
   2.655744e+01   6.333924e+01
  -5.657585e+01   8.636848e+01
  -1.622783e+02  -1.181375e+00
  -1.481501e+02  -9.431130e+01
  -1.392112e+01  -1.864491e+02
   1.335914e+02  -1.263606e+02
   1.548489e+02  -6.270155e+00
   4.273478e+01   9.159836e+01
  -5.523912e+01   8.496439e+01
  -6.379706e+01   2.114780e+01
  -1.711521e+01  -2.200575e+01
   1.579293e+01  -1.292011e+01
  -7.245039e+00   2.991501e+00
  -5.626119e+01  -1.195616e+01
  -5.741191e+01  -5.708419e+01
  -1.617657e+01  -1.209541e+02
   8.777351e+01  -1.202938e+02
   1.823607e+02  -1.654696e+01
   1.556175e+02   1.055996e+02
   3.936153e+01   1.815477e+02
  -6.892465e+01   1.304761e+02
  -1.039361e+02   1.395287e+01
  -5.351712e+01  -4.366189e+01
  -1.932990e+01  -2.934681e+01
  -4.228151e+01   9.329934e+00
  -6.007058e+01   3.781417e+00
  -2.569196e+01  -3.455878e+01
   3.549817e+01  -7.044195e+01
   7.363558e+01  -3.757857e+01
   5.959745e+01   3.646440e+01
  -1.081241e+01   8.403653e+01
  -1.263047e+02   5.399662e+01
  -1.472252e+02  -3.086811e+01
  -7.371703e+01  -1.507658e+02
   9.217350e+01  -1.688102e+02
   1.994032e+02  -7.041769e+01
   1.879458e+02   7.257673e+01
   8.008813e+01   1.305882e+02
  -2.986173e+01   1.146425e+02
  -7.982439e+01   5.951250e+01
  -6.210567e+01   4.605456e+01
  -5.827159e+01   6.913996e+01
  -7.639406e+01   5.548533e+01
  -8.785201e+01  -2.386163e+01
  -9.194847e+01  -1.134775e+02
  -1.993648e+01  -1.604347e+02
   7.991893e+01  -1.285407e+02
   1.379549e+02  -8.930796e+00
   1.090976e+02   1.033888e+02
   7.103036e+00   1.232306e+02
  -5.079112e+01   6.511985e+01
  -4.724020e+01   3.113818e+00
  -5.407272e+00  -3.164349e+01
   6.077042e+00  -2.791182e+01
  -2.769993e+01  -1.751646e+01
  -6.283729e+01  -1.729990e+01
  -3.456486e+01  -2.924404e+01
   5.060741e+01  -2.872307e+01
   1.246995e+02   3.078115e+00
   1.093534e+02   4.022317e+01
   6.295811e+00   7.050718e+01
  -9.052327e+01   5.082849e+01
  -1.100411e+02   7.394144e+00
  -3.776357e+01  -2.591005e+01
   4.645769e+01  -2.640717e+01
   5.838542e+01   1.662785e+01
   6.710990e+00   5.201421e+01
  -4.834790e+01   4.136336e+01
  -4.637567e+01  -1.449722e+00
  -2.821702e+01  -3.975899e+01
  -3.195327e+01  -3.047485e+01
  -4.898819e+01  -1.526458e+00
  -4.992189e+01   1.815802e+00
  -2.040931e+01  -5.230931e+01
   1.243494e+01  -1.058926e+02
   9.766736e+01  -1.094439e+02
   1.287211e+02  -3.065716e+01
   8.974077e+01   7.946888e+01
   6.170566e+00   1.038178e+02
  -6.961738e+01   4.197596e+01
  -4.522189e+01  -9.902963e+00
   4.413149e+01  -1.553987e+01
   9.602960e+01   4.073936e+01
   5.472838e+01   7.814490e+01
  -6.997328e+01   8.341080e+01
  -1.496192e+02   3.941303e+01
  -1.246907e+02  -2.067462e+01
  -2.915978e+01  -6.472045e+01
   5.016586e+01  -5.377544e+01
   3.775150e+01  -4.898518e+00
  -2.890194e+01   1.997614e+01
  -6.414627e+01  -1.906388e+01
  -2.427104e+01  -8.985934e+01
   7.807959e+01  -1.219099e+02
   1.263303e+02  -3.929333e+01
   9.656429e+01   7.951372e+01
   4.170741e+00   1.590905e+02
  -6.217685e+01   1.107200e+02
  -7.765553e+01  -7.729492e-01
  -4.568871e+01  -9.699762e+01
  -9.386756e-01  -8.086897e+01
   3.540242e+01  -1.377149e+01
   4.241809e+01   2.098005e+01
   2.329239e+01   8.284154e+00
   3.355464e+00  -1.617951e+01
   1.478871e+01   1.092347e+01
   3.676054e+01   6.652904e+01
   2.205318e+01   8.094808e+01
  -3.763462e+01   2.909198e+01
  -1.044159e+02  -3.054656e+01
  -1.065414e+02  -5.384128e+01
  -1.351368e+01  -3.803870e+01
   6.969776e+01  -1.162665e+01
   6.939814e+01  -8.825086e+00
   7.271182e+00   6.491139e+00
  -2.882293e+01   1.721058e+01
  -1.128266e+01   1.566568e+01
   1.734923e+01  -8.447700e-01
  -4.573727e+00  -7.891250e+00
  -5.815891e+01  -7.711210e+00
  -7.290194e+01  -1.928164e+01
  -6.190082e+00  -6.183501e+01
   9.688126e+01  -8.643330e+01
   1.476644e+02  -4.894318e+01
   1.063464e+02   6.465194e+01
   2.891375e+01   1.279037e+02
  -6.339746e+01   1.092104e+02
  -8.057296e+01   3.692696e+01
  -6.391550e+01  -1.845916e+01
  -1.759038e+01  -2.811080e+01
   3.082271e+00  -6.436561e+00
  -6.778471e+00  -2.443202e+00
  -2.333635e+01  -3.209728e+01
  -1.687623e+01  -6.000000e+01
   2.511886e+01  -5.689785e+01
   5.829112e+01   1.467153e+01
   5.473787e+01   8.229196e+01
   6.526208e-01   8.624676e+01
  -6.494497e+01   1.337740e+01
  -8.324699e+01  -6.192749e+01
  -2.352539e+01  -8.336071e+01
   5.437327e+01  -4.153514e+01
   7.908223e+01   8.346654e+00
   2.630681e+01   3.710919e+01
  -2.851253e+01   3.482954e+01
  -2.072105e+01   2.009571e+01
   2.812107e+01   2.673791e+00
   5.352419e+01  -4.213512e+00
   1.011579e+01   1.873218e+01
  -6.434226e+01   5.071289e+01
  -9.170438e+01   3.636665e+01
  -4.750156e+01  -9.021519e+00
   1.666814e+01  -6.152051e+01
   4.150647e+01  -6.224290e+01
   2.832444e+01  -2.306205e+00
   1.248374e+00   4.492589e+01
  -1.980236e+01   3.321945e+01
  -2.587302e+01  -1.590885e+01
  -1.594300e+01  -4.319962e+01
   3.955128e+00  -2.640376e+01
   2.761786e+01   8.327911e+00
   3.152505e+01   1.592747e+01
   1.566242e+01   6.654673e-01
   6.011805e-01  -1.116001e+01
  -2.843436e+00   1.068768e+00
  -8.132368e+00   2.666437e+01
  -1.134736e+01   3.163760e+01
  -2.654704e+01   6.844262e+00
  -2.333479e+01  -3.647532e+01
   3.081660e+00  -4.301234e+01
   3.233792e+01  -1.301366e+01
   4.129321e+01   3.299402e+01
   1.184546e+01   4.901889e+01
  -4.284165e+01   2.124996e+01
  -6.610763e+01  -1.382571e+01
  -3.558834e+01  -3.830140e+01
   2.194605e+01  -3.151071e+01
   5.148595e+01  -1.359907e+01
   1.843643e+01  -2.663314e+00
  -2.939230e+01  -4.905940e+00
  -2.644215e+01  -1.812540e+01
   2.484803e+01  -2.264220e+01
   7.550497e+01  -9.770913e+00
