
 $NMID
 id='ANONYMOUS ', fmtdat='(2E16.6)'
 volume=1.0
 tramp=1.0
 $END
  -3.740568e+03  -1.461292e+02
  -2.113725e+03  -2.081289e+03
   6.032729e+02  -2.396846e+03
   1.829779e+03  -8.293116e+02
   8.195341e+02   7.004084e+02
  -5.242976e+02   5.943263e+02
  -7.509851e+02  -3.282781e+02
  -2.647676e+00  -8.919938e+02
   6.832291e+02  -5.287535e+02
   8.217292e+02   6.191202e+01
   4.480141e+02   7.573567e+02
  -1.721081e+02   7.411129e+02
  -5.193663e+02   1.016437e+02
  -3.184333e+02  -6.496272e+02
   1.826264e+02  -6.775991e+02
   5.004556e+02   1.470570e+01
   2.747794e+02   6.291520e+02
  -2.837480e+02   4.994450e+02
  -4.807287e+02   1.627396e+01
  -3.208358e+02  -3.631250e+02
  -9.004786e-01  -3.711287e+02
   1.930437e+02  -2.621662e+02
   1.766638e+02  -1.974712e+01
  -7.724748e+01   6.608859e+01
  -3.674573e+02  -5.477501e+01
  -1.535893e+02  -3.788476e+02
   4.238864e+02  -3.513539e+02
   6.918810e+02   9.719500e+01
   3.990579e+02   3.756498e+02
  -3.960873e+02   4.042809e+02
  -6.237066e+02  -4.074173e+01
  -2.709653e+02  -4.433564e+02
   2.777595e+02  -4.606988e+02
   4.699243e+02  -2.321304e+02
   3.472688e+02   2.234015e+02
   4.659619e+01   4.348462e+02
  -1.444430e+02   2.663395e+02
  -1.597677e+02  -1.744660e+02
   1.190485e+02  -3.866750e+02
   3.676663e+02   3.159253e+00
   2.046644e+02   5.302320e+02
  -3.043541e+02   5.685002e+02
  -5.197838e+02  -1.328856e+01
  -2.591638e+02  -5.092708e+02
   2.686249e+02  -2.583758e+02
   3.009746e+02   2.729408e+02
  -9.135071e+01   4.612307e+02
  -4.602723e+02   1.224276e+02
  -4.693097e+02  -3.636183e+02
  -1.442028e+02  -5.287138e+02
   3.349361e+02  -2.897633e+02
   5.440674e+02   4.905419e+01
   3.358305e+02   3.057969e+02
  -1.030871e+02   3.484135e+02
  -3.942808e+02   8.564973e+01
  -1.954951e+02  -2.026302e+02
   1.185470e+02  -9.241987e+01
   1.497651e+02   1.165095e+02
  -1.130172e+02   1.678369e+02
  -2.779025e+02  -6.937037e+01
  -1.282099e+02  -2.529984e+02
   1.615566e+02  -1.981877e+02
   2.967775e+02  -6.084756e+01
   1.549274e+02   7.681143e+01
  -2.730886e+01   1.919675e+02
  -2.062606e+02   2.550132e+02
  -2.701516e+02   2.026412e+02
  -2.371571e+02  -1.265978e+02
  -8.800793e+01  -3.669498e+02
   1.111406e+02  -2.975581e+02
   1.159428e+02  -9.170601e+01
   1.318508e+01   2.480290e+01
   4.427819e+01  -6.864785e+01
   1.397968e+02  -1.167938e+02
   2.589307e+02   5.984875e+01
   1.320143e+02   2.333002e+02
  -7.181526e+01   2.214847e+02
  -1.974240e+02   9.306295e+00
  -1.714995e+02  -1.836813e+02
   1.405471e+01  -2.490162e+02
   2.202968e+02  -1.025043e+02
   3.197449e+02   1.145280e+02
   1.583641e+02   2.876319e+02
  -9.644510e+01   2.666394e+02
  -1.974431e+02   1.112404e+02
  -1.362718e+02   3.604930e+00
  -7.726357e+01   2.835436e+01
  -1.983582e+02   6.367437e+01
  -3.345710e+02  -6.061148e+01
  -2.747935e+02  -2.387748e+02
   1.623014e+01  -3.841667e+02
   3.174707e+02  -3.743240e+02
   4.098401e+02  -1.688503e+02
   2.928025e+02   8.579002e+01
   4.916407e+01   2.669206e+02
  -1.220410e+02   2.159281e+02
  -7.539507e+01   3.374774e+01
   7.941660e+01  -8.709392e+01
   1.598022e+02   3.986195e+00
   5.096008e+01   1.717305e+02
  -1.160834e+02   1.618211e+02
  -1.539360e+02  -5.710308e+01
   1.683363e+01  -1.682131e+02
   1.559218e+02  -1.727580e+01
   1.183812e+02   2.044561e+02
  -3.460539e+01   3.151263e+02
  -1.875808e+02   1.522372e+02
  -2.726874e+02  -3.514407e+01
  -2.298335e+02  -2.006489e+02
  -6.167002e+01  -2.031407e+02
   8.113279e+01  -1.326903e+02
   1.600677e+02  -2.402931e+01
   5.113602e+01   2.878001e+01
  -6.315247e+01  -3.170475e+01
  -2.461417e+01  -9.434062e+01
   1.041880e+02  -8.982004e+01
   1.496078e+02   1.275627e+01
   5.858169e+01   6.288753e+01
  -7.107728e+01   1.983542e+01
  -4.399156e+01  -5.499514e+01
   1.045800e+02  -7.514663e+01
   2.259890e+02   2.239328e+01
   2.052701e+02   1.304243e+02
   4.058994e+01   2.290933e+02
  -1.617126e+02   2.122836e+02
  -2.375054e+02   1.020647e+02
  -1.350169e+02  -4.580229e+01
   2.080761e+01  -9.366057e+01
   7.743554e+01  -1.532775e+01
  -3.103493e+01   8.524031e+01
  -1.634874e+02   5.750989e+01
  -1.944308e+02  -8.785576e+01
  -7.100576e+01  -1.785153e+02
   7.890736e+01  -1.407528e+02
   1.216952e+02  -1.879169e+01
   5.959677e+01   3.723020e+01
  -1.838959e+01   3.699891e+00
  -3.222396e+01  -6.738766e+01
   6.048870e+01  -9.435089e+01
   1.722683e+02   8.172184e-01
   1.617820e+02   9.816251e+01
   1.633495e+01   1.974116e+02
  -1.426507e+02   1.446863e+02
  -1.654772e+02   3.460633e+00
  -4.884694e+01  -9.986288e+01
   5.841979e+01  -9.073378e+01
   6.949858e+01  -2.223258e+01
   1.922192e+01   2.393104e+01
  -1.722610e+01   1.230365e+01
   7.970119e+00  -5.142944e+00
   5.940936e+01   1.014334e+01
   6.876765e+01   6.146226e+01
   1.463829e+01   1.295335e+02
  -9.577976e+01   1.300686e+02
  -1.973604e+02   2.527061e+01
  -1.765474e+02  -1.117087e+02
  -4.456570e+01  -2.007908e+02
   7.984423e+01  -1.464326e+02
   1.147726e+02  -1.461914e+01
   5.808497e+01   4.639969e+01
   2.212814e+01   3.027724e+01
   4.674007e+01  -1.023400e+01
   6.745491e+01  -5.314657e+00
   2.836722e+01   3.930214e+01
  -3.632531e+01   7.715774e+01
  -8.256244e+01   4.438044e+01
  -6.440312e+01  -3.687643e+01
   1.079646e+01  -9.003650e+01
   1.319041e+02  -5.933161e+01
   1.642933e+02   3.350909e+01
   8.334408e+01   1.639225e+02
  -9.275317e+01   1.825373e+02
  -2.165169e+02   8.024920e+01
  -2.050259e+02  -7.518092e+01
  -9.345192e+01  -1.486629e+02
   2.736713e+01  -1.260585e+02
   8.658801e+01  -6.544321e+01
   6.772692e+01  -4.975589e+01
   6.169455e+01  -7.600741e+01
   8.268565e+01  -5.972437e+01
   9.965390e+01   2.264469e+01
   9.930836e+01   1.199111e+02
   2.108575e+01   1.760137e+02
  -8.566582e+01   1.414299e+02
  -1.470406e+02   1.127195e+01
  -1.189493e+02  -1.085363e+02
  -8.169211e+00  -1.349094e+02
   5.866545e+01  -7.714134e+01
   5.259645e+01  -4.358172e+00
   5.858963e+00   3.258623e+01
  -4.618468e+00   2.953887e+01
   2.828972e+01   1.759069e+01
   6.620965e+01   1.849214e+01
   3.864012e+01   3.101208e+01
  -5.362716e+01   3.346821e+01
  -1.354535e+02  -1.581593e+00
  -1.182880e+02  -4.076182e+01
  -1.179519e+01  -7.826399e+01
   9.927428e+01  -5.369645e+01
   1.167467e+02  -9.302997e+00
   4.065431e+01   2.847072e+01
  -4.822752e+01   3.216708e+01
  -6.231725e+01  -1.556452e+01
  -8.237448e+00  -5.814780e+01
   4.997294e+01  -4.640032e+01
   5.014382e+01   4.715025e-01
   3.084089e+01   4.084771e+01
   3.460753e+01   3.318183e+01
   5.363686e+01   1.568513e+00
   5.440728e+01  -1.447090e+00
   2.562636e+01   5.716681e+01
  -1.847558e+01   1.139847e+02
  -1.025854e+02   1.179851e+02
  -1.393034e+02   3.443433e+01
  -9.619715e+01  -8.204780e+01
  -6.203115e+00  -1.095547e+02
   7.327997e+01  -4.507294e+01
   4.948456e+01   1.028434e+01
  -4.743201e+01   1.697719e+01
  -1.057107e+02  -4.261800e+01
  -6.032090e+01  -8.633219e+01
   6.951067e+01  -9.343952e+01
   1.587629e+02  -4.341706e+01
   1.371739e+02   1.893896e+01
   3.154196e+01   7.068587e+01
  -5.355437e+01   6.058402e+01
  -4.076591e+01   4.751059e+00
   3.063411e+01  -2.111375e+01
   7.140611e+01   1.941328e+01
   2.803655e+01   9.549132e+01
  -8.191771e+01   1.311415e+02
  -1.363530e+02   4.450687e+01
  -1.084446e+02  -8.694793e+01
  -4.127896e+00  -1.676477e+02
   6.664466e+01  -1.199274e+02
   8.605337e+01   1.624641e+00
   5.178317e+01   1.024497e+02
   4.333299e+00   8.804809e+01
  -3.854040e+01   1.544050e+01
  -4.437248e+01  -2.346412e+01
  -2.399029e+01  -8.568423e+00
  -3.285670e+00   1.756923e+01
  -1.709572e+01  -1.161233e+01
  -4.088579e+01  -6.991039e+01
  -2.971362e+01  -8.797566e+01
   3.938672e+01  -3.151206e+01
   1.143986e+02   3.575102e+01
   1.148900e+02   5.442386e+01
   1.547600e+01   4.184071e+01
  -7.546498e+01   1.589707e+01
  -7.486513e+01   1.157820e+01
  -8.835544e+00  -6.641102e+00
   3.208457e+01  -1.852819e+01
   1.154236e+01  -1.781777e+01
  -1.965949e+01   1.190729e+00
   5.244199e+00   8.486095e+00
   6.240532e+01   7.351031e+00
   7.849226e+01   1.924437e+01
   5.667955e+00   6.592366e+01
  -1.012581e+02   8.980947e+01
  -1.586517e+02   5.263622e+01
  -1.160854e+02  -6.977817e+01
  -3.129716e+01  -1.359764e+02
   6.984769e+01  -1.189928e+02
   9.074500e+01  -4.389481e+01
   7.074284e+01   1.823003e+01
   1.987502e+01   3.016910e+01
  -3.356664e+00   6.118945e+00
   7.643933e+00   2.791863e+00
   2.625485e+01   3.590657e+01
   1.604563e+01   6.730139e+01
  -2.720566e+01   6.141787e+01
  -6.576980e+01  -1.454711e+01
  -6.368020e+01  -8.827791e+01
  -2.008310e+00  -9.421920e+01
   7.017128e+01  -1.261512e+01
   9.037769e+01   6.781926e+01
   2.439622e+01   9.097402e+01
  -5.753688e+01   4.772162e+01
  -8.698928e+01  -9.978615e+00
  -2.853098e+01  -3.904735e+01
   3.032049e+01  -3.907750e+01
   2.342185e+01  -2.106208e+01
  -2.966406e+01  -1.329424e+00
  -5.973802e+01   3.730020e+00
  -1.046133e+01  -2.042601e+01
   6.927195e+01  -5.480038e+01
   9.677016e+01  -4.245262e+01
   5.003095e+01   8.630746e+00
  -1.717893e+01   6.739331e+01
  -4.348841e+01   6.655296e+01
  -2.911834e+01   1.979068e+00
  -3.174777e+00  -4.851896e+01
   2.155219e+01  -3.610961e+01
   2.754172e+01   1.686027e+01
   1.770140e+01   4.578783e+01
  -2.725998e+00   2.828127e+01
  -2.952066e+01  -9.525546e+00
  -3.433258e+01  -1.715601e+01
  -1.719879e+01  -1.395471e+00
  -4.178039e-01   1.192124e+01
   3.963714e+00  -2.905875e+00
   8.938810e+00  -3.065134e+01
   1.308509e+01  -3.354606e+01
   2.873474e+01  -7.575911e+00
   2.728481e+01   4.083803e+01
  -3.593220e+00   4.773709e+01
  -3.548723e+01   1.433281e+01
  -4.542331e+01  -3.618918e+01
  -1.189966e+01  -5.437299e+01
   4.566801e+01  -2.262571e+01
   7.276334e+01   1.344430e+01
   3.878751e+01   3.983370e+01
  -2.503375e+01   3.207095e+01
  -5.657343e+01   1.397955e+01
  -1.988657e+01   1.826146e+00
   3.385868e+01   3.802973e+00
   2.999263e+01   1.932029e+01
  -2.729273e+01   2.602298e+01
  -8.210470e+01   1.324187e+01
