
 $NMID
 id='ANONYMOUS ', fmtdat='(2E16.6)'
 volume=1.0
 tramp=1.0
 $END
   4.165174e+03   2.118450e+02
   2.513537e+03   2.444074e+03
  -7.761099e+02   2.698932e+03
  -2.091512e+03   8.624567e+02
  -9.832000e+02  -7.627855e+02
   6.996848e+02  -6.074703e+02
   8.702034e+02   4.032517e+02
  -2.274758e+01   9.394267e+02
  -7.892922e+02   7.122465e+02
  -9.881572e+02  -1.035722e+02
  -5.217622e+02  -9.219895e+02
   1.655180e+02  -1.008748e+03
   6.180823e+02  -9.697963e+01
   3.745111e+02   7.759516e+02
  -2.660095e+02   8.255528e+02
  -6.456791e+02  -1.026467e+01
  -2.314446e+02  -6.979770e+02
   3.303876e+02  -6.001128e+02
   5.563304e+02  -5.256329e+01
   3.825903e+02   3.837860e+02
   2.683234e+01   4.358042e+02
  -2.496188e+02   2.885491e+02
  -2.028787e+02   1.684484e+01
   9.860248e+01  -9.197248e+01
   4.248922e+02   8.660747e+01
   2.027213e+02   4.880766e+02
  -4.601193e+02   4.445122e+02
  -8.502454e+02  -1.024059e+02
  -4.923330e+02  -4.793990e+02
   3.703203e+02  -4.883771e+02
   7.319540e+02   2.956201e+01
   3.315596e+02   5.118145e+02
  -2.753922e+02   5.589900e+02
  -5.870456e+02   2.554346e+02
  -4.158477e+02  -2.478766e+02
  -5.916071e+01  -4.756008e+02
   1.772062e+02  -2.856666e+02
   1.666163e+02   2.204710e+02
  -1.733940e+02   4.576779e+02
  -4.282730e+02   2.007044e+01
  -2.439177e+02  -6.750917e+02
   3.105609e+02  -7.431618e+02
   6.273102e+02  -1.873528e+01
   2.890076e+02   5.533381e+02
  -3.007464e+02   3.639056e+02
  -3.908839e+02  -3.241596e+02
   3.716972e+01  -5.482635e+02
   5.595912e+02  -1.431110e+02
   5.925448e+02   4.624175e+02
   1.691341e+02   5.751696e+02
  -3.760065e+02   3.800669e+02
  -6.473254e+02  -3.667787e+01
  -3.448185e+02  -3.875750e+02
   1.647460e+02  -4.019990e+02
   4.494915e+02  -4.411539e+01
   2.413446e+02   2.394123e+02
  -1.469042e+02   1.146026e+02
  -1.542172e+02  -1.619896e+02
   1.621787e+02  -1.863865e+02
   3.303136e+02   9.375536e+01
   1.582537e+02   2.990520e+02
  -1.987271e+02   2.664145e+02
  -3.374212e+02   8.224186e+01
  -2.069494e+02  -9.334020e+01
   4.231093e+01  -2.271241e+02
   2.338939e+02  -3.041133e+02
   3.157440e+02  -2.450242e+02
   2.836038e+02   1.436464e+02
   1.088753e+02   4.342381e+02
  -1.075595e+02   3.683546e+02
  -1.414031e+02   1.044665e+02
  -1.917055e+01  -3.384829e+01
  -4.242189e+01   8.184965e+01
  -1.750407e+02   1.295357e+02
  -3.069872e+02  -6.280894e+01
  -1.688599e+02  -2.799526e+02
   7.014859e+01  -2.632273e+02
   2.334419e+02  -2.708539e+01
   2.176733e+02   2.220997e+02
   2.855564e-01   2.976741e+02
  -2.525895e+02   1.068794e+02
  -3.789117e+02  -1.473918e+02
  -2.040920e+02  -3.270601e+02
   1.083627e+02  -3.192623e+02
   2.377421e+02  -1.268456e+02
   1.551354e+02  -1.037392e+01
   9.061175e+01  -3.852148e+01
   2.356727e+02  -7.698665e+01
   3.820325e+02   5.654598e+01
   3.393867e+02   2.812188e+02
  -9.920058e+00   4.572366e+02
  -3.338318e+02   4.156649e+02
  -4.882286e+02   2.226801e+02
  -3.542910e+02  -8.914290e+01
  -6.218000e+01  -3.141848e+02
   1.387573e+02  -2.545920e+02
   8.206499e+01  -3.396236e+01
  -1.010050e+02   1.101368e+02
  -1.975037e+02   1.642847e+01
  -5.353484e+01  -2.180747e+02
   1.548584e+02  -1.835011e+02
   1.655469e+02   7.345258e+01
  -2.314520e+01   2.014519e+02
  -1.917932e+02   3.285711e+01
  -1.507577e+02  -2.481742e+02
   3.559193e+01  -3.717152e+02
   2.271554e+02  -1.826116e+02
   3.395519e+02   6.247140e+01
   2.940901e+02   2.268415e+02
   8.009362e+01   2.375412e+02
  -9.661919e+01   1.615717e+02
  -1.939579e+02   2.352982e+01
  -6.734982e+01  -3.578525e+01
   7.493841e+01   3.812055e+01
   2.140533e+01   1.269828e+02
  -1.197037e+02   9.834539e+01
  -1.783954e+02  -5.900476e+00
  -6.388967e+01  -6.805743e+01
   8.815630e+01  -2.326817e+01
   5.497236e+01   7.134480e+01
  -1.146626e+02   8.795586e+01
  -2.713323e+02   1.590587e+00
  -2.576832e+02  -1.513365e+02
  -6.447602e+01  -2.582103e+02
   1.864513e+02  -2.614725e+02
   2.660040e+02  -1.318255e+02
   1.776270e+02   4.908259e+01
  -2.104007e+01   1.186095e+02
  -8.987981e+01   1.223006e+01
   2.675193e+01  -1.004983e+02
   1.952204e+02  -7.617670e+01
   2.176343e+02   1.015353e+02
   8.194614e+01   2.163293e+02
  -9.886677e+01   1.742590e+02
  -1.484143e+02   2.702659e+01
  -7.328207e+01  -4.056514e+01
   2.314640e+01  -7.007793e+00
   3.460709e+01   8.467345e+01
  -7.277801e+01   1.134884e+02
  -1.975629e+02   2.296005e+01
  -1.895129e+02  -1.095310e+02
  -3.282827e+01  -2.282736e+02
   1.675797e+02  -1.655336e+02
   1.939769e+02  -1.324312e+01
   6.983519e+01   1.206884e+02
  -6.837037e+01   1.163342e+02
  -8.073690e+01   2.851873e+01
  -2.308848e+01  -2.780969e+01
   2.206680e+01  -1.983002e+01
  -1.099266e+01   6.686867e+00
  -6.833641e+01  -8.332340e+00
  -8.446630e+01  -7.399961e+01
  -1.685109e+01  -1.567808e+02
   1.202250e+02  -1.631402e+02
   2.297938e+02  -2.300281e+01
   2.073820e+02   1.336372e+02
   4.047245e+01   2.353800e+02
  -9.942108e+01   1.763477e+02
  -1.312718e+02   2.932712e+01
  -7.121292e+01  -5.661787e+01
  -2.697839e+01  -3.360120e+01
  -5.234451e+01   1.334488e+01
  -8.232939e+01   5.973852e+00
  -3.694104e+01  -4.934689e+01
   4.198935e+01  -9.164421e+01
   9.562685e+01  -5.024405e+01
   8.032340e+01   4.090592e+01
  -1.403164e+01   1.145843e+02
  -1.447596e+02   7.293542e+01
  -1.990597e+02  -4.244576e+01
  -9.983304e+01  -2.061662e+02
   1.063693e+02  -2.148407e+02
   2.552561e+02  -9.797423e+01
   2.447705e+02   8.685713e+01
   1.111665e+02   1.788917e+02
  -2.896867e+01   1.505667e+02
  -9.800401e+01   8.038667e+01
  -7.940529e+01   6.517919e+01
  -6.756777e+01   9.216400e+01
  -9.696856e+01   6.765155e+01
  -1.223593e+02  -1.974706e+01
  -1.158356e+02  -1.436622e+02
  -3.050178e+01  -2.130392e+02
   8.880068e+01  -1.669445e+02
   1.772639e+02  -1.478303e+01
   1.356524e+02   1.236230e+02
   1.267122e+01   1.579336e+02
  -6.989810e+01   8.771683e+01
  -5.826913e+01   6.011864e+00
  -6.451799e+00  -4.201732e+01
   7.796263e+00  -3.542788e+01
  -3.579911e+01  -2.012849e+01
  -7.838271e+01  -2.307786e+01
  -4.607182e+01  -3.780401e+01
   6.069568e+01  -3.809372e+01
   1.641291e+02   4.568991e+00
   1.553751e+02   5.066180e+01
   1.615449e+01   9.219323e+01
  -1.187878e+02   7.107226e+01
  -1.375860e+02   9.452921e+00
  -5.273350e+01  -3.655745e+01
   5.928181e+01  -4.069928e+01
   7.610172e+01   1.969672e+01
   1.174104e+01   6.982310e+01
  -5.296465e+01   5.674488e+01
  -5.767269e+01   1.386386e+00
  -4.176366e+01  -4.952557e+01
  -4.185049e+01  -4.107006e+01
  -6.395577e+01  -1.314618e-01
  -6.512126e+01   1.766852e+00
  -3.241848e+01  -7.052321e+01
   2.810894e+01  -1.468418e+02
   1.153128e+02  -1.331961e+02
   1.667195e+02  -3.233780e+01
   1.198974e+02   9.796380e+01
   8.082136e+00   1.211833e+02
  -8.689395e+01   5.160530e+01
  -5.945567e+01  -1.307810e+01
   5.817199e+01  -2.265433e+01
   1.283140e+02   4.648723e+01
   7.494100e+01   1.012719e+02
  -7.523890e+01   1.125834e+02
  -1.827258e+02   4.510865e+01
  -1.624755e+02  -3.260615e+01
  -3.669762e+01  -8.586976e+01
   6.058500e+01  -7.232651e+01
   4.861442e+01  -7.226330e+00
  -3.761822e+01   2.522347e+01
  -8.748466e+01  -1.990575e+01
  -3.488647e+01  -1.134076e+02
   8.829290e+01  -1.569628e+02
   1.660205e+02  -5.676682e+01
   1.275620e+02   9.793233e+01
   1.306118e+01   1.859706e+02
  -8.202389e+01   1.404789e+02
  -1.106779e+02  -1.632597e+00
  -6.143459e+01  -1.224673e+02
  -9.618122e+00  -1.069648e+02
   4.447205e+01  -1.899172e+01
   5.209318e+01   2.908866e+01
   2.825147e+01   7.839127e+00
   4.288204e+00  -2.116847e+01
   2.087655e+01   1.313238e+01
   4.994164e+01   8.461578e+01
   3.884758e+01   1.089323e+02
  -4.272787e+01   4.510401e+01
  -1.400675e+02  -5.222364e+01
  -1.301514e+02  -6.294937e+01
  -1.996937e+01  -4.761227e+01
   8.869281e+01  -1.565946e+01
   8.391100e+01  -1.106252e+01
   1.018757e+01   6.955866e+00
  -3.972441e+01   2.138242e+01
  -1.309434e+01   1.788132e+01
   2.201673e+01  -2.153790e+00
  -5.728098e+00  -8.474253e+00
  -7.131118e+01  -3.391177e+00
  -9.289906e+01  -1.966824e+01
  -1.469845e+01  -7.531410e+01
   1.107798e+02  -1.035222e+02
   1.866052e+02  -5.566764e+01
   1.326468e+02   7.276359e+01
   3.216181e+01   1.594948e+02
  -7.988201e+01   1.540424e+02
  -1.121945e+02   5.339485e+01
  -8.543675e+01  -2.059660e+01
  -2.592949e+01  -3.499707e+01
   3.236053e+00  -7.194626e+00
  -9.653331e+00  -2.893735e+00
  -3.213275e+01  -4.513516e+01
  -2.200862e+01  -8.893489e+01
   2.821883e+01  -7.057496e+01
   8.340031e+01   1.574902e+01
   7.753880e+01   1.144104e+02
  -3.239509e+00   1.147628e+02
  -8.189723e+01   2.409521e+01
  -1.019605e+02  -7.648161e+01
  -3.170589e+01  -1.071825e+02
   6.762869e+01  -5.089263e+01
   9.554339e+01   1.298136e+01
   3.679182e+01   4.878960e+01
  -3.710085e+01   4.739550e+01
  -2.744490e+01   2.737013e+01
   3.363874e+01   1.435899e+00
   6.835457e+01  -6.380913e+00
   1.453113e+01   2.473907e+01
  -8.332778e+01   6.094578e+01
  -1.029108e+02   5.982935e+01
  -6.138894e+01  -1.157459e+01
   1.830231e+01  -8.051927e+01
   5.158560e+01  -7.903065e+01
   3.445234e+01  -4.492841e+00
   6.004714e+00   5.788075e+01
  -2.644731e+01   4.467775e+01
  -3.639479e+01  -1.869270e+01
  -1.913929e+01  -5.296882e+01
   4.899915e+00  -3.393650e+01
   3.296877e+01   9.092651e+00
   3.824662e+01   1.946129e+01
   2.119130e+01   9.743820e-01
  -6.304218e-03  -1.389011e+01
  -5.643462e+00   5.085837e+00
  -9.493248e+00   3.566897e+01
  -1.575183e+01   4.147832e+01
  -3.478332e+01   7.350115e+00
  -3.349962e+01  -4.796382e+01
   4.476985e+00  -5.544967e+01
   4.046663e+01  -1.993577e+01
   5.535406e+01   4.186575e+01
   1.395090e+01   6.607189e+01
  -5.596458e+01   3.223111e+01
  -8.415048e+01  -1.767331e+01
  -4.882846e+01  -4.498365e+01
   2.617375e+01  -3.630063e+01
   6.555617e+01  -1.878493e+01
   2.268962e+01  -4.030907e+00
  -3.785364e+01  -2.716641e+00
  -3.584972e+01  -1.811887e+01
   3.307063e+01  -3.241461e+01
   8.887598e+01  -2.075009e+01
