
 $NMID
 id='ANONYMOUS ', fmtdat='(2E16.6)'
 volume=1.0
 tramp=1.0
 $END
   4.466162e+03  -2.418914e+02
   2.617208e+03   2.333473e+03
  -6.762654e+02   2.857670e+03
  -2.058336e+03   9.611947e+02
  -8.889737e+02  -5.254502e+02
   5.305315e+02  -5.574318e+02
   8.266470e+02   3.574774e+02
   3.369808e+01   9.656593e+02
  -7.575723e+02   7.457249e+02
  -9.812884e+02  -1.171796e+02
  -4.875347e+02  -7.884123e+02
   1.925764e+02  -8.762519e+02
   5.950085e+02  -9.938541e+01
   3.689776e+02   6.772435e+02
  -2.080034e+02   7.525448e+02
  -5.542226e+02  -5.243868e+01
  -2.874451e+02  -6.347076e+02
   3.299778e+02  -6.291969e+02
   5.899383e+02  -8.803805e+01
   4.152286e+02   3.440847e+02
   1.408668e+01   4.226690e+02
  -2.367926e+02   2.728586e+02
  -2.140009e+02   3.740675e+01
   9.594634e+01  -5.299709e+01
   3.983696e+02   1.195221e+02
   1.700027e+02   4.365316e+02
  -4.684418e+02   3.855961e+02
  -8.230943e+02  -1.011885e+02
  -4.390305e+02  -4.542904e+02
   3.611571e+02  -4.829242e+02
   6.619028e+02  -5.157040e+00
   3.018035e+02   4.574424e+02
  -3.050981e+02   5.178769e+02
  -5.613869e+02   2.336105e+02
  -4.021763e+02  -2.234938e+02
  -6.729351e+01  -4.561450e+02
   1.473053e+02  -3.075327e+02
   1.521334e+02   1.656863e+02
  -1.337945e+02   4.115369e+02
  -3.827480e+02  -2.948878e+01
  -2.286320e+02  -6.181716e+02
   2.727193e+02  -6.436937e+02
   5.796507e+02  -2.450551e+01
   2.422682e+02   5.379876e+02
  -3.082917e+02   3.227391e+02
  -3.833545e+02  -3.147347e+02
   7.912804e+01  -5.290859e+02
   5.711839e+02  -1.369882e+02
   5.414319e+02   4.183858e+02
   1.713595e+02   5.273827e+02
  -3.453134e+02   3.240458e+02
  -5.883512e+02  -5.370284e+01
  -3.819177e+02  -3.636875e+02
   1.172507e+02  -3.438511e+02
   3.993114e+02  -6.832071e+01
   2.133900e+02   1.939701e+02
  -1.170315e+02   1.006835e+02
  -1.620565e+02  -1.283515e+02
   1.285665e+02  -1.720483e+02
   3.229593e+02   6.383101e+01
   1.425888e+02   2.801176e+02
  -1.989258e+02   2.712916e+02
  -3.422957e+02   9.606873e+01
  -2.114657e+02  -9.917796e+01
   3.961821e+01  -2.139444e+02
   2.620274e+02  -3.155492e+02
   3.337789e+02  -2.265142e+02
   2.727448e+02   1.284619e+02
   1.075693e+02   4.062405e+02
  -8.404645e+01   3.914136e+02
  -1.444051e+02   1.326409e+02
  -2.458203e+01  -1.228261e+01
  -6.093484e+01   7.005952e+01
  -1.708259e+02   1.180914e+02
  -2.841072e+02  -4.900500e+01
  -1.414917e+02  -2.717439e+02
   8.556937e+01  -2.479919e+02
   2.215389e+02  -5.916679e+00
   1.884322e+02   2.245778e+02
   6.509999e+00   3.015022e+02
  -2.444682e+02   9.411300e+01
  -3.472795e+02  -1.693201e+02
  -2.097800e+02  -3.179430e+02
   7.333969e+01  -3.066738e+02
   2.142536e+02  -1.436552e+02
   1.649587e+02  -2.106210e+01
   9.824035e+01  -3.519150e+01
   2.339025e+02  -5.676607e+01
   3.764165e+02   5.505323e+01
   3.640600e+02   2.931351e+02
  -6.499535e+00   4.426967e+02
  -3.610214e+02   3.927573e+02
  -4.896615e+02   1.981963e+02
  -3.557168e+02  -8.690421e+01
  -3.704422e+01  -2.923419e+02
   1.224881e+02  -2.579461e+02
   6.623377e+01  -3.163323e+01
  -9.934957e+01   9.002608e+01
  -1.693872e+02  -4.233133e+00
  -5.951386e+01  -1.929326e+02
   1.428787e+02  -1.780030e+02
   1.693537e+02   3.715583e+01
  -2.597335e+01   1.966343e+02
  -1.782793e+02   2.589822e+01
  -1.663644e+02  -2.508724e+02
   3.831350e+01  -3.701644e+02
   2.183067e+02  -1.877880e+02
   3.433742e+02   6.559798e+01
   2.860461e+02   2.303450e+02
   8.127841e+01   2.465213e+02
  -1.007433e+02   1.508433e+02
  -1.801432e+02   1.317327e+01
  -5.910894e+01  -2.938468e+01
   7.143471e+01   3.872755e+01
   2.360984e+01   1.175377e+02
  -1.301128e+02   9.662242e+01
  -1.743237e+02  -1.344246e+01
  -5.407868e+01  -5.541130e+01
   8.158905e+01  -1.746221e+01
   5.214760e+01   7.085624e+01
  -1.148611e+02   8.013655e+01
  -2.760916e+02  -5.761929e+00
  -2.555010e+02  -1.505624e+02
  -6.763561e+01  -2.386579e+02
   1.908130e+02  -2.554658e+02
   2.732057e+02  -1.148774e+02
   1.708365e+02   5.413768e+01
  -1.919095e+01   1.105508e+02
  -8.618110e+01   1.495639e+01
   3.213459e+01  -9.401719e+01
   1.946346e+02  -5.930659e+01
   2.192244e+02   9.792950e+01
   7.538415e+01   1.941234e+02
  -9.610339e+01   1.551302e+02
  -1.438664e+02   2.096371e+01
  -7.370014e+01  -3.914302e+01
   2.826486e+01  -3.904252e+00
   2.953942e+01   8.518335e+01
  -7.372672e+01   1.059995e+02
  -1.954822e+02   2.515715e+01
  -1.748226e+02  -1.043802e+02
  -2.854617e+01  -2.223555e+02
   1.534336e+02  -1.577282e+02
   1.929073e+02  -5.162043e+00
   6.471621e+01   1.093008e+02
  -6.809201e+01   1.070421e+02
  -8.234240e+01   3.737257e+01
  -1.859172e+01  -2.286876e+01
   2.109720e+01  -1.435338e+01
  -9.099103e+00   6.227798e+00
  -6.903057e+01  -1.092801e+01
  -7.946692e+01  -7.876034e+01
  -1.245626e+01  -1.593753e+02
   1.205796e+02  -1.481321e+02
   2.334011e+02  -1.926899e+01
   1.860029e+02   1.349218e+02
   3.515216e+01   2.211745e+02
  -1.081586e+02   1.712602e+02
  -1.361746e+02   3.270270e+01
  -7.143161e+01  -5.255579e+01
  -2.749304e+01  -3.560215e+01
  -5.101235e+01   1.476560e+01
  -8.195566e+01   8.317681e+00
  -4.042301e+01  -4.857335e+01
   4.615666e+01  -9.953776e+01
   9.404255e+01  -5.296297e+01
   8.111468e+01   4.355098e+01
  -1.533930e+01   1.152624e+02
  -1.436744e+02   8.195138e+01
  -2.092496e+02  -5.266005e+01
  -9.190989e+01  -2.045108e+02
   1.084754e+02  -2.100201e+02
   2.388022e+02  -9.980870e+01
   2.424562e+02   8.303474e+01
   1.034997e+02   1.737203e+02
  -3.202693e+01   1.501313e+02
  -9.509390e+01   8.135723e+01
  -7.790820e+01   6.329537e+01
  -7.116677e+01   8.705851e+01
  -9.517004e+01   7.165145e+01
  -1.204850e+02  -2.426418e+01
  -1.154443e+02  -1.385385e+02
  -2.728953e+01  -2.134041e+02
   1.004997e+02  -1.668898e+02
   1.715852e+02  -1.748044e+01
   1.161022e+02   1.166586e+02
   4.064495e+00   1.417755e+02
  -6.781713e+01   9.156785e+01
  -5.609484e+01   2.289523e+00
  -4.675645e+00  -4.127288e+01
   9.056100e+00  -3.568181e+01
  -3.451839e+01  -1.599509e+01
  -7.373796e+01  -2.061433e+01
  -4.538216e+01  -3.367451e+01
   5.833089e+01  -3.934025e+01
   1.617372e+02  -1.019828e+00
   1.488972e+02   6.103389e+01
   1.122036e+01   8.814672e+01
  -1.275290e+02   6.585274e+01
  -1.388102e+02   5.869667e+00
  -4.963159e+01  -4.021872e+01
   6.019026e+01  -3.917795e+01
   7.191780e+01   1.776788e+01
   8.989400e+00   6.948832e+01
  -5.669184e+01   5.412117e+01
  -6.093098e+01   1.093825e+00
  -4.215809e+01  -4.546388e+01
  -4.117943e+01  -4.227431e+01
  -5.855477e+01  -7.318013e-01
  -6.448022e+01  -6.378558e-01
  -2.846377e+01  -7.229294e+01
   2.610474e+01  -1.531509e+02
   1.093671e+02  -1.359939e+02
   1.648180e+02  -3.604965e+01
   1.296286e+02   1.006290e+02
   8.795022e+00   1.200837e+02
  -8.443839e+01   5.905801e+01
  -6.294428e+01  -1.145871e+01
   5.967433e+01  -2.380029e+01
   1.272030e+02   4.083511e+01
   6.575905e+01   9.945415e+01
  -7.529513e+01   1.126809e+02
  -1.898502e+02   4.804541e+01
  -1.557993e+02  -3.530037e+01
  -3.345908e+01  -8.734772e+01
   6.303341e+01  -6.288597e+01
   4.733173e+01  -6.907207e+00
  -3.760970e+01   2.736083e+01
  -9.289426e+01  -2.398661e+01
  -3.635480e+01  -1.180173e+02
   8.804855e+01  -1.651427e+02
   1.621152e+02  -6.036501e+01
   1.258385e+02   9.574080e+01
   6.875986e+00   1.929720e+02
  -7.544976e+01   1.430579e+02
  -1.017147e+02  -4.440624e+00
  -5.902401e+01  -1.151599e+02
   8.059193e-02  -1.049202e+02
   4.418129e+01  -1.554027e+01
   5.288424e+01   2.731455e+01
   2.567428e+01   8.281928e+00
   4.683023e+00  -2.113914e+01
   1.956513e+01   1.426975e+01
   5.918503e+01   8.735980e+01
   3.404363e+01   1.111649e+02
  -4.597156e+01   4.114940e+01
  -1.309910e+02  -4.102921e+01
  -1.322618e+02  -6.231042e+01
  -1.778077e+01  -5.063283e+01
   8.415136e+01  -1.888722e+01
   7.929803e+01  -1.103853e+01
   1.140264e+01   9.232957e+00
  -3.544401e+01   2.326449e+01
  -1.324079e+01   1.762125e+01
   2.046773e+01  -4.411123e+00
  -5.413382e+00  -7.352632e+00
  -7.362543e+01  -1.986933e+00
  -9.397698e+01  -1.936018e+01
  -1.244967e+01  -7.457869e+01
   1.140267e+02  -1.166885e+02
   1.932196e+02  -5.544084e+01
   1.411260e+02   6.446623e+01
   3.039566e+01   1.590784e+02
  -8.367993e+01   1.473515e+02
  -1.120280e+02   5.731009e+01
  -8.110044e+01  -1.767919e+01
  -2.230388e+01  -3.177664e+01
   3.844600e+00  -8.428074e+00
  -1.025197e+01  -4.020187e+00
  -3.245837e+01  -4.490447e+01
  -2.410742e+01  -9.049402e+01
   2.652916e+01  -6.862015e+01
   8.127133e+01   1.611451e+01
   7.845384e+01   1.054539e+02
   3.727189e+00   1.150725e+02
  -8.183890e+01   2.655437e+01
  -1.065438e+02  -7.519971e+01
  -3.021423e+01  -1.091515e+02
   6.439734e+01  -5.621194e+01
   9.344206e+01   1.153173e+01
   3.760424e+01   4.823812e+01
  -2.938465e+01   4.881036e+01
  -2.916299e+01   2.602467e+01
   3.154468e+01  -2.608038e+00
   6.414195e+01  -5.963479e+00
   1.621005e+01   2.519543e+01
  -7.993670e+01   6.322432e+01
  -1.067401e+02   6.292804e+01
  -6.090569e+01  -8.446929e+00
   1.765848e+01  -8.359028e+01
   5.414193e+01  -7.900806e+01
   3.659631e+01  -7.660575e+00
   1.809551e+00   5.322331e+01
  -2.392584e+01   4.334797e+01
  -3.289307e+01  -1.776664e+01
  -2.400658e+01  -5.394545e+01
   5.048854e+00  -3.408336e+01
   3.338308e+01   6.589596e+00
   3.824916e+01   1.737404e+01
   2.085720e+01   2.110695e+00
  -8.121315e-02  -1.496656e+01
  -5.089455e+00   2.629135e+00
  -9.109041e+00   3.254915e+01
  -1.622869e+01   4.377066e+01
  -3.343234e+01   8.959081e+00
  -3.074674e+01  -4.593229e+01
   3.914345e-01  -5.958624e+01
   4.063275e+01  -2.075167e+01
   5.495228e+01   4.056988e+01
   1.106357e+01   6.664239e+01
  -5.403063e+01   3.177134e+01
  -8.670454e+01  -1.366373e+01
  -4.605939e+01  -4.377051e+01
   2.679415e+01  -3.900188e+01
   6.271388e+01  -2.014384e+01
   2.484225e+01  -4.890000e+00
  -3.695671e+01   1.146876e-01
  -3.622064e+01  -1.627240e+01
   2.889425e+01  -3.092494e+01
   8.025118e+01  -1.981469e+01
