
 $NMID
 id='ANONYMOUS ', fmtdat='(2E16.6)'
 volume=1.0
 tramp=1.0
 $END
  -3.723539e+03  -6.449369e+01
  -2.215442e+03  -2.233050e+03
   6.636634e+02  -2.446297e+03
   1.781328e+03  -9.756726e+02
   8.079107e+02   5.480096e+02
  -5.785315e+02   4.778171e+02
  -7.784356e+02  -2.521402e+02
  -1.299073e+01  -8.981833e+02
   6.681566e+02  -6.965513e+02
   8.410753e+02   3.452209e+01
   4.368904e+02   7.394548e+02
  -1.973378e+02   8.118133e+02
  -4.739417e+02   1.285714e+02
  -2.949115e+02  -6.069737e+02
   2.074882e+02  -6.026611e+02
   4.835168e+02   6.530004e+00
   1.912772e+02   5.737287e+02
  -3.032415e+02   5.112888e+02
  -5.021728e+02   6.663117e+01
  -3.195765e+02  -3.188750e+02
  -6.757132e+00  -3.545228e+02
   1.794254e+02  -2.258871e+02
   1.813448e+02  -1.919598e+01
  -4.269797e+01   5.263046e+01
  -3.557518e+02  -8.049192e+01
  -1.592590e+02  -3.830385e+02
   4.060779e+02  -3.044425e+02
   7.224225e+02   9.118461e+01
   3.859530e+02   4.042371e+02
  -3.876873e+02   4.268933e+02
  -6.035686e+02  -3.295207e+01
  -2.366063e+02  -4.241534e+02
   2.520359e+02  -4.515507e+02
   4.514306e+02  -1.853841e+02
   3.581780e+02   2.264636e+02
   5.449185e+01   4.036799e+02
  -1.275545e+02   2.731566e+02
  -1.461566e+02  -1.404054e+02
   1.418988e+02  -3.662754e+02
   3.116654e+02   1.660938e+01
   2.092428e+02   5.407969e+02
  -3.300309e+02   5.682574e+02
  -4.608086e+02  -1.977437e+01
  -2.412795e+02  -4.752724e+02
   2.264113e+02  -2.627173e+02
   3.069525e+02   2.758937e+02
  -5.943323e+01   4.555619e+02
  -4.567312e+02   1.016265e+02
  -4.510479e+02  -3.472268e+02
  -1.159506e+02  -5.334341e+02
   3.239427e+02  -2.394695e+02
   5.214858e+02   2.401099e+01
   3.140546e+02   3.024066e+02
  -1.235841e+02   2.931563e+02
  -3.351537e+02   1.819221e+00
  -1.768908e+02  -1.829669e+02
   1.275108e+02  -8.685725e+01
   1.314732e+02   1.105083e+02
  -1.234872e+02   1.732410e+02
  -2.548363e+02  -6.548242e+01
  -1.348897e+02  -2.237256e+02
   1.467516e+02  -2.206355e+02
   3.002868e+02  -6.210864e+01
   1.620580e+02   8.066711e+01
  -4.008648e+01   1.763339e+02
  -2.108759e+02   2.519125e+02
  -2.726541e+02   1.940344e+02
  -2.266105e+02  -1.047495e+02
  -6.937452e+01  -3.499778e+02
   8.820466e+01  -3.182569e+02
   1.049119e+02  -9.464140e+01
   3.497789e+01   3.171015e+01
   3.526509e+01  -4.655570e+01
   1.624638e+02  -1.219917e+02
   2.407948e+02   4.053676e+01
   1.250047e+02   2.266966e+02
  -5.766626e+01   2.322024e+02
  -1.990689e+02  -3.528726e+00
  -1.566902e+02  -1.794504e+02
  -1.623486e+01  -2.538882e+02
   2.299744e+02  -7.119041e+01
   3.013701e+02   1.274195e+02
   1.661553e+02   2.864887e+02
  -9.852854e+01   2.709353e+02
  -1.863521e+02   9.649734e+01
  -1.273241e+02   8.760453e+00
  -7.272911e+01   2.111228e+01
  -1.934910e+02   4.369013e+01
  -3.303941e+02  -5.899336e+01
  -2.786406e+02  -2.319258e+02
   1.745192e+01  -3.677929e+02
   3.015693e+02  -3.275897e+02
   3.989682e+02  -1.433749e+02
   2.938455e+02   1.076168e+02
   3.433906e+01   2.637380e+02
  -1.051445e+02   2.240219e+02
  -5.659800e+01   1.920510e+01
   7.255587e+01  -7.571117e+01
   1.446823e+02  -4.434045e+00
   4.421934e+01   1.570040e+02
  -1.140140e+02   1.416850e+02
  -1.401271e+02  -5.249473e+01
   1.838329e+01  -1.825771e+02
   1.447922e+02  -3.122611e+01
   1.365062e+02   2.112090e+02
  -5.076730e+01   2.978070e+02
  -1.788517e+02   1.417188e+02
  -2.717891e+02  -6.482803e+01
  -2.147357e+02  -1.952433e+02
  -5.464950e+01  -2.063910e+02
   9.149258e+01  -1.276879e+02
   1.577584e+02  -2.116799e+01
   4.579563e+01   2.461515e+01
  -6.282138e+01  -2.912850e+01
  -1.214959e+01  -9.674900e+01
   1.050640e+02  -9.293949e+01
   1.351923e+02   1.320042e+01
   4.931534e+01   6.071772e+01
  -6.533394e+01   9.132804e+00
  -4.540815e+01  -6.009979e+01
   9.771279e+01  -7.483415e+01
   2.228018e+02   2.008551e+01
   2.021444e+02   1.166761e+02
   4.969445e+01   2.145670e+02
  -1.604242e+02   1.996683e+02
  -2.201931e+02   1.039689e+02
  -1.290932e+02  -4.046279e+01
   1.544609e+01  -9.683020e+01
   7.085431e+01  -1.425495e+01
  -2.371019e+01   8.371168e+01
  -1.679779e+02   4.134189e+01
  -1.935157e+02  -9.954261e+01
  -4.891107e+01  -1.659441e+02
   7.443408e+01  -1.385456e+02
   1.117827e+02  -1.758087e+01
   6.150559e+01   3.692641e+01
  -1.796365e+01   3.152062e+00
  -2.751285e+01  -7.255645e+01
   5.966775e+01  -8.612882e+01
   1.631820e+02  -8.834020e+00
   1.518840e+02   1.035588e+02
   1.493985e+01   1.971241e+02
  -1.313633e+02   1.267827e+02
  -1.650929e+02   7.100962e+00
  -5.134215e+01  -9.022479e+01
   5.764052e+01  -9.011670e+01
   6.963694e+01  -2.412448e+01
   1.927314e+01   1.930086e+01
  -1.736852e+01   1.197577e+01
   8.555294e+00  -5.173104e+00
   5.234063e+01   1.221604e+01
   6.447466e+01   6.566555e+01
   1.242792e+01   1.332524e+02
  -9.945343e+01   1.287637e+02
  -1.970321e+02   9.046421e+00
  -1.483768e+02  -1.185230e+02
  -3.870927e+01  -1.836882e+02
   7.723103e+01  -1.381326e+02
   1.141845e+02  -2.128574e+01
   5.658063e+01   4.624699e+01
   2.099563e+01   3.113560e+01
   4.506447e+01  -8.491450e+00
   6.463271e+01  -4.786257e+00
   2.869519e+01   4.008897e+01
  -4.046304e+01   7.905980e+01
  -8.215879e+01   3.967746e+01
  -6.477349e+01  -3.173198e+01
   1.325555e+01  -8.626636e+01
   1.236161e+02  -6.311470e+01
   1.562076e+02   3.907648e+01
   6.648237e+01   1.629987e+02
  -1.004271e+02   1.820984e+02
  -2.202219e+02   7.246060e+01
  -2.030821e+02  -7.078904e+01
  -8.235944e+01  -1.458236e+02
   2.926835e+01  -1.171232e+02
   8.585962e+01  -6.267942e+01
   6.968104e+01  -5.070886e+01
   6.294779e+01  -6.988703e+01
   7.961718e+01  -5.868469e+01
   9.657572e+01   2.126869e+01
   1.004922e+02   1.219671e+02
   1.752932e+01   1.794228e+02
  -8.650674e+01   1.358149e+02
  -1.435001e+02   6.794177e+00
  -1.071169e+02  -1.100782e+02
  -5.281414e+00  -1.293572e+02
   5.501504e+01  -6.581217e+01
   4.863560e+01  -3.492635e+00
   5.553373e+00   3.399836e+01
  -8.455830e+00   2.438836e+01
   2.986944e+01   1.786437e+01
   6.462401e+01   1.802914e+01
   3.696646e+01   2.956465e+01
  -5.161484e+01   3.154497e+01
  -1.317514e+02  -7.314190e+00
  -1.124764e+02  -4.400543e+01
  -6.512718e+00  -7.267206e+01
   1.001161e+02  -5.601496e+01
   1.125894e+02   1.828252e+00
   3.803538e+01   2.822613e+01
  -4.972358e+01   2.853337e+01
  -5.875081e+01  -1.517686e+01
  -4.910882e+00  -5.457107e+01
   5.619660e+01  -4.339380e+01
   4.918912e+01   2.902651e+00
   3.094989e+01   4.379376e+01
   3.171442e+01   3.404208e+01
   4.988665e+01   3.636116e+00
   5.166230e+01  -1.162991e+00
   2.029286e+01   5.692744e+01
  -2.159881e+01   1.141808e+02
  -1.012236e+02   1.133733e+02
  -1.396059e+02   3.541104e+01
  -9.557657e+01  -8.544428e+01
  -3.825158e+00  -1.014020e+02
   7.205045e+01  -4.928896e+01
   4.799925e+01   1.122580e+01
  -4.876184e+01   1.908874e+01
  -1.060907e+02  -4.043162e+01
  -5.983637e+01  -8.121377e+01
   6.843881e+01  -9.310667e+01
   1.541784e+02  -4.480283e+01
   1.332108e+02   2.503026e+01
   3.485643e+01   6.754182e+01
  -5.202580e+01   5.953075e+01
  -4.011957e+01   7.911052e+00
   3.196807e+01  -2.258914e+01
   6.965069e+01   2.262283e+01
   2.416431e+01   9.319303e+01
  -8.166492e+01   1.290707e+02
  -1.397775e+02   3.782663e+01
  -1.054163e+02  -8.239428e+01
  -9.771827e+00  -1.691669e+02
   6.528662e+01  -1.199780e+02
   8.126744e+01   2.737293e+00
   4.832205e+01   9.895849e+01
  -7.281455e-01   8.341905e+01
  -3.625813e+01   1.482290e+01
  -4.408090e+01  -1.971206e+01
  -2.410410e+01  -8.901595e+00
  -4.049050e+00   1.643919e+01
  -1.423299e+01  -1.284232e+01
  -3.839474e+01  -7.074701e+01
  -2.944398e+01  -8.039470e+01
   3.812932e+01  -3.441064e+01
   1.097048e+02   3.234883e+01
   1.096802e+02   6.000916e+01
   1.292956e+01   3.987293e+01
  -7.381451e+01   1.255653e+01
  -7.042580e+01   7.181870e+00
  -7.685777e+00  -5.367617e+00
   3.087683e+01  -1.831207e+01
   1.041772e+01  -1.582933e+01
  -1.823974e+01   2.853627e-01
   4.155815e+00   7.816854e+00
   6.360199e+01   7.632635e+00
   7.489685e+01   1.654457e+01
   5.151205e+00   6.658901e+01
  -9.565084e+01   9.968268e+01
  -1.569603e+02   4.757087e+01
  -1.088061e+02  -6.143784e+01
  -1.902760e+01  -1.398414e+02
   6.486105e+01  -1.141439e+02
   9.064845e+01  -4.035159e+01
   6.731634e+01   2.221854e+01
   1.910323e+01   2.834744e+01
  -3.300294e+00   7.048701e+00
   8.155714e+00   2.572394e+00
   2.704978e+01   3.310920e+01
   2.198729e+01   6.424581e+01
  -2.599183e+01   5.911976e+01
  -6.501036e+01  -1.623692e+01
  -5.838737e+01  -8.919772e+01
  -2.342047e+00  -9.213755e+01
   6.990053e+01  -1.254487e+01
   8.843877e+01   6.291216e+01
   2.769716e+01   8.886751e+01
  -5.282993e+01   4.353731e+01
  -8.009275e+01  -1.062358e+01
  -2.899582e+01  -3.672561e+01
   2.493241e+01  -3.475053e+01
   2.298573e+01  -2.074850e+01
  -2.866929e+01   7.047838e-02
  -5.805109e+01   5.246363e+00
  -9.782773e+00  -2.105834e+01
   6.623534e+01  -5.552175e+01
   9.023545e+01  -4.399215e+01
   4.932651e+01   9.958225e+00
  -1.952093e+01   6.557709e+01
  -4.647100e+01   6.450743e+01
  -3.049512e+01   2.872966e+00
  -5.719368e-01  -4.537262e+01
   2.207803e+01  -3.430214e+01
   2.822711e+01   1.627409e+01
   1.857098e+01   4.572200e+01
  -3.108595e+00   2.967146e+01
  -2.836065e+01  -7.633615e+00
  -3.226934e+01  -1.749151e+01
  -1.751137e+01  -8.091628e-01
  -1.105656e+00   1.142430e+01
   5.354615e+00  -2.309732e+00
   7.179799e+00  -2.972504e+01
   1.773557e+01  -3.554088e+01
   2.836390e+01  -7.114691e+00
   2.481830e+01   4.017964e+01
  -5.231942e+00   4.833820e+01
  -3.579634e+01   1.549124e+01
  -4.442008e+01  -3.041261e+01
  -1.239638e+01  -5.128974e+01
   4.611727e+01  -2.413499e+01
   7.134440e+01   1.420402e+01
   3.816147e+01   3.843386e+01
  -2.282573e+01   3.428082e+01
  -5.177358e+01   1.631206e+01
  -1.973704e+01   2.055295e+00
   3.010082e+01   5.828612e+00
   2.964303e+01   1.843921e+01
  -2.586114e+01   2.833363e+01
  -7.531407e+01   1.376155e+01
