
 $NMID
 id='ANONYMOUS ', fmtdat='(2E16.6)'
 volume=1.0
 tramp=1.0
 $END
   4.199365e+03  -1.340254e+02
   2.706862e+03   2.574645e+03
  -6.598259e+02   2.811685e+03
  -1.922628e+03   1.095403e+03
  -8.350452e+02  -5.946070e+02
   5.127418e+02  -4.123283e+02
   8.390138e+02   2.865237e+02
   7.557783e+01   1.020893e+03
  -7.368495e+02   8.457335e+02
  -8.292847e+02  -1.035779e+01
  -4.264088e+02  -7.330724e+02
   1.530781e+02  -7.873493e+02
   5.768510e+02  -1.643693e+02
   3.724346e+02   7.076947e+02
  -2.319525e+02   6.831011e+02
  -5.242684e+02   2.489750e+01
  -1.911296e+02  -6.533718e+02
   3.198464e+02  -6.685788e+02
   5.736588e+02  -1.329577e+02
   3.842312e+02   3.260885e+02
   4.964201e+01   4.606537e+02
  -2.244353e+02   2.860061e+02
  -1.957539e+02   3.277670e+01
   1.047668e+02  -3.781118e+01
   3.996083e+02   1.357795e+02
   1.275663e+02   4.450474e+02
  -4.895888e+02   3.937995e+02
  -8.205554e+02  -1.055118e+02
  -4.065306e+02  -4.165881e+02
   3.940238e+02  -4.163236e+02
   6.889873e+02   3.320072e+01
   2.820993e+02   5.104180e+02
  -3.038694e+02   4.815636e+02
  -5.161809e+02   1.820167e+02
  -3.830169e+02  -2.064796e+02
  -5.044014e+01  -4.506242e+02
   1.467786e+02  -2.489367e+02
   1.493777e+02   1.841594e+02
  -2.297253e+02   4.399583e+02
  -4.035920e+02  -3.048269e+01
  -1.468475e+02  -6.317945e+02
   3.163934e+02  -6.200560e+02
   5.010197e+02   4.893938e+00
   2.327754e+02   5.237742e+02
  -2.939981e+02   2.688360e+02
  -4.022489e+02  -3.440965e+02
   6.057162e+01  -5.388685e+02
   4.956070e+02  -1.306169e+02
   6.074245e+02   3.988194e+02
   1.448134e+02   6.036162e+02
  -3.512854e+02   3.321289e+02
  -6.275979e+02  -1.069190e+02
  -3.344056e+02  -3.380537e+02
   1.245714e+02  -3.344718e+02
   4.529389e+02  -7.752267e+01
   2.155268e+02   1.434296e+02
  -1.092632e+02   7.506578e+01
  -1.015634e+02  -1.423746e+02
   1.538418e+02  -1.681247e+02
   3.378810e+02   6.149339e+01
   1.517260e+02   2.924472e+02
  -2.001667e+02   2.924371e+02
  -3.392098e+02   7.895354e+01
  -2.082733e+02  -8.372872e+01
   2.030255e+01  -2.483450e+02
   2.401216e+02  -3.242287e+02
   3.443683e+02  -2.114221e+02
   3.028341e+02   1.461879e+02
   7.848564e+01   4.524118e+02
  -1.089314e+02   3.806996e+02
  -1.154561e+02   1.022533e+02
  -2.180205e+01   1.939955e+01
  -6.447326e+01   9.568566e+01
  -2.305488e+02   1.318544e+02
  -2.664448e+02  -6.005922e+01
  -1.306396e+02  -2.818099e+02
   8.172205e+01  -2.385696e+02
   2.299362e+02   6.305937e+00
   1.656630e+02   2.175656e+02
  -1.542129e+01   2.943517e+02
  -2.612071e+02   1.003508e+02
  -3.666657e+02  -1.573127e+02
  -1.848608e+02  -3.583397e+02
   9.824909e+01  -3.071078e+02
   2.151920e+02  -1.430362e+02
   1.681052e+02  -1.094579e+01
   1.051718e+02  -4.542810e+01
   2.371077e+02  -3.598541e+01
   4.317321e+02   6.234699e+01
   3.313876e+02   3.000455e+02
  -2.261525e+01   4.268547e+02
  -3.881937e+02   4.011238e+02
  -5.284728e+02   1.664047e+02
  -3.298870e+02  -9.546015e+01
  -4.937674e+01  -2.697232e+02
   1.359346e+02  -2.506118e+02
   7.527423e+01  -3.939181e+01
  -1.068100e+02   8.303331e+01
  -1.808914e+02  -1.649533e+00
  -3.860192e+01  -1.918825e+02
   1.456773e+02  -1.688276e+02
   1.801848e+02   5.972784e+01
  -1.262576e+01   1.716559e+02
  -1.900502e+02   3.472289e+01
  -1.694745e+02  -2.661878e+02
   2.596614e+01  -3.233868e+02
   2.339672e+02  -2.073629e+02
   3.334053e+02   8.052029e+01
   2.737388e+02   2.506976e+02
   8.925451e+01   2.706307e+02
  -1.185900e+02   1.487338e+02
  -1.651839e+02   1.210674e+01
  -5.690402e+01  -3.577954e+01
   6.304386e+01   4.405753e+01
   2.385750e+01   1.219914e+02
  -1.393372e+02   9.733628e+01
  -1.745768e+02  -1.601714e+01
  -5.616899e+01  -7.720468e+01
   8.302345e+01  -9.962311e+00
   5.595213e+01   8.171406e+01
  -1.293147e+02   8.835415e+01
  -3.034839e+02  -3.838110e+00
  -2.417123e+02  -1.335902e+02
  -5.584701e+01  -2.583175e+02
   1.847200e+02  -2.454553e+02
   2.822296e+02  -1.306428e+02
   1.739684e+02   5.137868e+01
  -2.524839e+01   1.120839e+02
  -8.413515e+01   5.335674e+00
   3.394020e+01  -9.722308e+01
   1.886974e+02  -5.169219e+01
   2.128931e+02   1.063579e+02
   6.086108e+01   1.984820e+02
  -9.115062e+01   1.521267e+02
  -1.396665e+02   3.090184e+01
  -7.017260e+01  -4.691485e+01
   3.304159e+01   2.686543e+00
   3.340500e+01   8.448703e+01
  -7.493968e+01   1.175020e+02
  -1.965415e+02   1.302656e+01
  -1.837399e+02  -1.180370e+02
  -1.043258e+01  -2.185508e+02
   1.689298e+02  -1.716793e+02
   1.924989e+02  -1.506423e+01
   6.683181e+01   1.146939e+02
  -6.886156e+01   1.056619e+02
  -8.293510e+01   3.083714e+01
  -1.503329e+01  -2.697203e+01
   2.271076e+01  -1.388013e+01
  -9.624079e+00   1.489864e+01
  -7.263486e+01  -6.071057e+00
  -9.309326e+01  -8.479032e+01
  -1.772984e+01  -1.600908e+02
   1.350929e+02  -1.571745e+02
   2.236192e+02  -1.605383e+01
   1.834643e+02   1.455347e+02
   4.402311e+01   2.325222e+02
  -1.187181e+02   1.680826e+02
  -1.448807e+02   2.208675e+01
  -6.861886e+01  -5.641526e+01
  -2.982987e+01  -3.590751e+01
  -5.370207e+01   1.234425e+01
  -7.727790e+01   3.632604e+00
  -4.758470e+01  -5.230155e+01
   4.676940e+01  -8.896883e+01
   1.052052e+02  -6.680525e+01
   8.550161e+01   3.589078e+01
  -1.639475e+01   1.041138e+02
  -1.428967e+02   8.354518e+01
  -1.960819e+02  -4.805672e+01
  -8.800277e+01  -2.023660e+02
   1.126699e+02  -2.323138e+02
   2.713867e+02  -9.557950e+01
   2.659141e+02   9.594878e+01
   1.151911e+02   1.652081e+02
  -3.491692e+01   1.456907e+02
  -9.733318e+01   8.014691e+01
  -7.786971e+01   7.405815e+01
  -5.453601e+01   8.508487e+01
  -8.952326e+01   7.685406e+01
  -1.313324e+02  -2.630125e+01
  -1.217329e+02  -1.544026e+02
  -1.877562e+01  -2.278450e+02
   1.032805e+02  -1.689101e+02
   1.811203e+02  -9.801578e+00
   1.348808e+02   1.208285e+02
   1.550635e+01   1.565997e+02
  -7.212222e+01   9.712306e+01
  -6.312899e+01  -3.995153e+00
  -7.245821e+00  -4.575112e+01
   1.358403e+01  -3.626289e+01
  -3.495118e+01  -1.890594e+01
  -7.895761e+01  -2.203862e+01
  -4.672821e+01  -3.958267e+01
   6.806274e+01  -4.046180e+01
   1.596231e+02  -9.550350e+00
   1.332623e+02   5.292825e+01
   1.183562e+01   8.400068e+01
  -1.252738e+02   7.045191e+01
  -1.374058e+02   6.005420e+00
  -4.698807e+01  -4.256805e+01
   5.811890e+01  -3.903380e+01
   7.938102e+01   1.725290e+01
   7.885459e+00   6.941880e+01
  -5.453361e+01   5.898691e+01
  -6.317446e+01  -5.609767e+00
  -5.101574e+01  -4.881329e+01
  -4.412636e+01  -4.550374e+01
  -5.904405e+01  -1.800341e+00
  -6.543544e+01  -2.353529e+00
  -3.768295e+01  -7.310299e+01
   2.948800e+01  -1.417964e+02
   1.107560e+02  -1.426834e+02
   1.692042e+02  -2.569042e+01
   1.238690e+02   8.206757e+01
   5.726828e+00   1.307471e+02
  -8.813984e+01   6.324106e+01
  -6.064634e+01  -1.645068e+01
   5.969159e+01  -1.543661e+01
   1.435939e+02   4.285931e+01
   7.421341e+01   1.016354e+02
  -9.361986e+01   1.107749e+02
  -1.778613e+02   4.620584e+01
  -1.649224e+02  -3.528441e+01
  -3.984735e+01  -8.326034e+01
   6.222406e+01  -6.777496e+01
   4.638473e+01  -6.285854e+00
  -3.937644e+01   2.796506e+01
  -9.582659e+01  -2.692754e+01
  -3.750086e+01  -1.152141e+02
   8.915578e+01  -1.469584e+02
   1.652822e+02  -6.512662e+01
   1.226249e+02   1.056617e+02
   1.366902e+01   2.065216e+02
  -8.819059e+01   1.562188e+02
  -1.066729e+02  -6.280485e+00
  -5.629411e+01  -1.196596e+02
   6.050492e+00  -1.022201e+02
   4.617565e+01  -1.828561e+01
   5.215628e+01   3.153850e+01
   2.332481e+01   1.023140e+01
   4.593197e+00  -1.833858e+01
   2.211740e+01   1.546296e+01
   5.191108e+01   9.047824e+01
   3.734119e+01   1.109399e+02
  -5.118676e+01   4.496755e+01
  -1.345420e+02  -3.506626e+01
  -1.265501e+02  -7.297152e+01
  -1.898979e+01  -5.016403e+01
   9.028429e+01  -2.290600e+01
   8.806708e+01  -6.495332e+00
   1.086744e+01   8.618696e+00
  -3.979666e+01   2.290568e+01
  -1.615864e+01   1.750185e+01
   2.183511e+01  -1.167130e+00
  -6.379158e+00  -8.888019e+00
  -6.820592e+01  -3.841228e+00
  -8.983470e+01  -2.271960e+01
  -1.000190e+01  -7.838392e+01
   1.195230e+02  -1.104311e+02
   1.885477e+02  -4.685549e+01
   1.383667e+02   6.658036e+01
   2.636726e+01   1.576425e+02
  -7.427498e+01   1.413870e+02
  -1.168810e+02   5.973103e+01
  -7.812869e+01  -2.144807e+01
  -2.501396e+01  -3.805589e+01
   1.435741e+00  -9.741669e+00
  -1.075439e+01  -4.339339e+00
  -3.104380e+01  -4.556621e+01
  -2.128747e+01  -8.470128e+01
   2.927710e+01  -6.976269e+01
   7.837996e+01   1.832770e+01
   7.420566e+01   1.054714e+02
   3.021621e+00   1.089352e+02
  -8.497906e+01   2.336283e+01
  -9.882212e+01  -7.270846e+01
  -3.288588e+01  -1.020532e+02
   6.595287e+01  -5.249273e+01
   1.041144e+02   9.876530e+00
   4.234926e+01   5.157138e+01
  -3.263437e+01   5.410477e+01
  -3.332495e+01   2.775294e+01
   3.226798e+01   1.879878e+00
   6.861198e+01  -7.965346e+00
   1.493306e+01   2.454534e+01
  -7.762506e+01   6.454151e+01
  -1.176944e+02   5.802487e+01
  -6.686688e+01  -1.034726e+01
   1.696080e+01  -7.921448e+01
   5.212909e+01  -7.748037e+01
   3.607408e+01  -6.127286e+00
   2.701364e+00   5.326575e+01
  -2.411265e+01   4.180229e+01
  -3.608883e+01  -1.651363e+01
  -2.726849e+01  -5.215912e+01
   2.085833e+00  -3.388192e+01
   3.125953e+01   1.021104e+01
   3.963853e+01   2.116655e+01
   2.081590e+01   4.102779e-01
   2.151243e-01  -1.637303e+01
  -6.024823e+00   3.034888e+00
  -3.651448e+00   3.432490e+01
  -1.416777e+01   4.554131e+01
  -3.246638e+01   1.042908e+01
  -2.926567e+01  -4.467872e+01
   1.703731e+00  -6.039403e+01
   4.496816e+01  -1.797396e+01
   6.061035e+01   3.571893e+01
   1.643815e+01   6.276868e+01
  -5.820033e+01   3.451171e+01
  -8.829242e+01  -1.787700e+01
  -5.051998e+01  -3.905280e+01
   2.904000e+01  -4.118486e+01
   6.349612e+01  -2.489463e+01
   2.517058e+01  -3.867739e+00
  -3.571536e+01  -3.171268e+00
  -3.576461e+01  -1.420042e+01
   2.700131e+01  -2.586487e+01
   8.322391e+01  -1.728972e+01
