
 $NMID
 id='ANONYMOUS ', fmtdat='(2E16.6)'
 volume=1.0
 tramp=1.0
 $END
  -4.073602e+03   3.232884e+02
  -2.674235e+03  -2.554791e+03
   6.942080e+02  -2.794161e+03
   1.916236e+03  -1.164265e+03
   8.964370e+02   5.403124e+02
  -4.950797e+02   4.596193e+02
  -8.873538e+02  -2.386379e+02
  -9.732311e+01  -1.040067e+03
   7.933782e+02  -8.565227e+02
   8.969587e+02  -2.019966e-02
   4.511232e+02   8.116389e+02
  -1.552745e+02   8.085094e+02
  -5.729919e+02   1.767874e+02
  -3.442232e+02  -6.948550e+02
   1.927463e+02  -6.865450e+02
   5.405744e+02  -2.283856e+01
   2.135527e+02   6.095047e+02
  -2.927326e+02   7.092189e+02
  -6.032303e+02   1.477037e+02
  -3.774328e+02  -3.291357e+02
  -5.075397e+01  -4.736056e+02
   2.168262e+02  -2.923320e+02
   1.949280e+02  -3.443624e+01
  -1.113185e+02   1.841730e+01
  -4.077892e+02  -1.171654e+02
  -1.317344e+02  -4.437066e+02
   4.995126e+02  -4.035026e+02
   8.362795e+02   9.753236e+01
   4.275215e+02   4.444174e+02
  -4.289208e+02   4.017425e+02
  -6.881329e+02  -1.849817e+01
  -3.055458e+02  -5.001448e+02
   2.626229e+02  -4.946991e+02
   4.876847e+02  -1.999710e+02
   3.964765e+02   2.077994e+02
   5.838268e+01   4.463560e+02
  -1.207522e+02   2.649991e+02
  -1.375489e+02  -1.544609e+02
   2.172689e+02  -4.448602e+02
   3.849788e+02   1.913368e+01
   1.454420e+02   5.604992e+02
  -2.971468e+02   6.224876e+02
  -5.090113e+02   2.385713e-01
  -2.374325e+02  -5.215516e+02
   2.554228e+02  -2.905089e+02
   4.054476e+02   3.331756e+02
  -7.350329e+01   5.322369e+02
  -4.998761e+02   1.422304e+02
  -5.993403e+02  -4.003155e+02
  -1.370312e+02  -6.141736e+02
   3.591410e+02  -3.487955e+02
   6.443918e+02   7.749083e+01
   3.638666e+02   3.336665e+02
  -1.115923e+02   3.363081e+02
  -4.362900e+02   6.277460e+01
  -2.453784e+02  -1.486953e+02
   9.312889e+01  -6.121823e+01
   1.124041e+02   1.234388e+02
  -1.456770e+02   1.646872e+02
  -3.326632e+02  -5.288099e+01
  -1.584623e+02  -2.965071e+02
   1.969127e+02  -2.917761e+02
   3.425636e+02  -7.513450e+01
   2.099582e+02   8.080154e+01
  -2.799176e+01   2.653368e+02
  -2.364715e+02   3.226009e+02
  -3.441671e+02   2.205608e+02
  -2.990798e+02  -1.459236e+02
  -8.129772e+01  -4.522830e+02
   1.065403e+02  -3.981022e+02
   9.153311e+01  -1.142526e+02
   2.339498e+01  -1.855329e+01
   7.190345e+01  -8.660622e+01
   2.385944e+02  -1.327067e+02
   2.696275e+02   7.977856e+01
   1.346772e+02   2.743983e+02
  -8.566311e+01   2.434965e+02
  -2.311049e+02  -1.400032e+01
  -1.693076e+02  -2.164370e+02
   1.632747e+01  -2.982707e+02
   2.610901e+02  -9.329425e+01
   3.713410e+02   1.539155e+02
   1.936234e+02   3.507668e+02
  -1.007459e+02   3.068505e+02
  -2.115914e+02   1.434659e+02
  -1.715833e+02   1.541300e+01
  -1.029855e+02   4.713674e+01
  -2.327281e+02   3.430994e+01
  -4.364460e+02  -6.760139e+01
  -3.337610e+02  -2.943558e+02
   1.916542e+01  -4.237765e+02
   3.888699e+02  -4.034911e+02
   5.380292e+02  -1.645997e+02
   3.339180e+02   9.682532e+01
   4.904657e+01   2.708330e+02
  -1.346704e+02   2.509444e+02
  -6.263641e+01   4.527913e+01
   1.043327e+02  -8.274319e+01
   1.780687e+02   6.440712e+00
   3.549438e+01   1.851112e+02
  -1.379555e+02   1.745402e+02
  -1.811334e+02  -5.120943e+01
   1.940618e+01  -1.778341e+02
   1.872575e+02  -3.454534e+01
   1.645823e+02   2.679250e+02
  -1.687450e+01   3.315698e+02
  -2.341394e+02   2.045926e+02
  -3.354446e+02  -7.920846e+01
  -2.834187e+02  -2.430073e+02
  -8.645629e+01  -2.774364e+02
   1.152521e+02  -1.489601e+02
   1.694641e+02  -1.765343e+01
   5.933465e+01   3.141331e+01
  -6.365446e+01  -4.251356e+01
  -2.224746e+01  -1.218391e+02
   1.315929e+02  -9.580370e+01
   1.765259e+02   1.077445e+01
   5.073958e+01   7.718911e+01
  -8.153380e+01   1.037550e+01
  -5.702891e+01  -8.297095e+01
   1.288001e+02  -8.789222e+01
   2.984084e+02   8.359166e+00
   2.494518e+02   1.414534e+02
   4.962697e+01   2.630385e+02
  -1.726694e+02   2.458334e+02
  -2.916307e+02   1.372948e+02
  -1.736627e+02  -4.849151e+01
   2.839925e+01  -1.139305e+02
   9.075215e+01  -1.269936e+01
  -3.585029e+01   9.410287e+01
  -1.937161e+02   5.511923e+01
  -2.099748e+02  -1.068114e+02
  -6.310608e+01  -1.996300e+02
   9.154321e+01  -1.525858e+02
   1.395754e+02  -3.551293e+01
   6.976358e+01   4.875012e+01
  -2.907949e+01  -3.818218e+00
  -3.272846e+01  -9.170465e+01
   7.718252e+01  -1.197230e+02
   1.982959e+02  -1.508825e+01
   1.891127e+02   1.192348e+02
   8.919850e+00   2.169642e+02
  -1.658844e+02   1.726188e+02
  -1.912230e+02   1.161822e+01
  -7.160308e+01  -1.131555e+02
   6.470268e+01  -1.091498e+02
   8.076131e+01  -3.172553e+01
   1.365908e+01   2.728071e+01
  -2.143763e+01   1.398931e+01
   9.313855e+00  -1.205737e+01
   7.394763e+01   6.230841e+00
   9.214418e+01   9.049978e+01
   1.833639e+01   1.655049e+02
  -1.372053e+02   1.614511e+02
  -2.282268e+02   1.575175e+01
  -1.890747e+02  -1.516889e+02
  -3.993142e+01  -2.384851e+02
   1.169667e+02  -1.712810e+02
   1.474904e+02  -2.430540e+01
   6.984705e+01   5.651678e+01
   3.064028e+01   3.546066e+01
   5.361744e+01  -1.348966e+01
   7.854920e+01  -3.886187e+00
   4.624449e+01   5.180877e+01
  -4.699143e+01   9.170697e+01
  -1.059618e+02   6.412761e+01
  -9.122250e+01  -3.602943e+01
   1.358667e+01  -1.066636e+02
   1.422305e+02  -8.296899e+01
   1.977675e+02   4.511157e+01
   8.657581e+01   2.031471e+02
  -1.132184e+02   2.284526e+02
  -2.793007e+02   9.409826e+01
  -2.672544e+02  -1.034666e+02
  -1.108877e+02  -1.634237e+02
   3.180929e+01  -1.457897e+02
   9.609831e+01  -8.009993e+01
   8.016280e+01  -7.484974e+01
   5.694881e+01  -8.603709e+01
   8.969825e+01  -7.780081e+01
   1.339914e+02   2.728384e+01
   1.209473e+02   1.570015e+02
   2.306490e+01   2.269108e+02
  -1.038416e+02   1.731606e+02
  -1.792557e+02   5.378886e+00
  -1.366734e+02  -1.215985e+02
  -1.616304e+01  -1.580750e+02
   7.231738e+01  -9.459680e+01
   6.257037e+01   4.036849e+00
   4.849990e+00   4.484198e+01
  -1.348709e+01   3.567860e+01
   3.522436e+01   1.915508e+01
   8.016154e+01   2.109655e+01
   4.740102e+01   3.844043e+01
  -6.870859e+01   3.898804e+01
  -1.586282e+02   4.222218e+00
  -1.365546e+02  -5.340560e+01
  -1.157051e+01  -8.687705e+01
   1.317764e+02  -7.104921e+01
   1.394346e+02  -7.768331e+00
   4.959405e+01   4.272445e+01
  -6.102647e+01   3.896226e+01
  -7.894042e+01  -1.873392e+01
  -8.361653e+00  -6.842193e+01
   5.511170e+01  -5.832521e+01
   6.431309e+01   5.228330e+00
   5.329451e+01   4.848808e+01
   4.442652e+01   4.416473e+01
   5.915535e+01   6.325221e-01
   6.656532e+01   2.896126e+00
   3.706419e+01   7.534009e+01
  -2.959417e+01   1.416046e+02
  -1.133991e+02   1.385484e+02
  -1.731535e+02   2.553554e+01
  -1.241419e+02  -8.057722e+01
  -7.268422e+00  -1.303042e+02
   8.613075e+01  -6.585722e+01
   6.188232e+01   1.698217e+01
  -5.896830e+01   1.538083e+01
  -1.458117e+02  -4.550049e+01
  -7.624071e+01  -1.034244e+02
   9.155036e+01  -1.115778e+02
   1.809319e+02  -4.760326e+01
   1.667516e+02   3.566623e+01
   3.734720e+01   8.260869e+01
  -6.588230e+01   6.786108e+01
  -4.783891e+01   6.499557e+00
   3.914005e+01  -2.782262e+01
   9.577660e+01   2.748372e+01
   3.906761e+01   1.136974e+02
  -9.080032e+01   1.515942e+02
  -1.642359e+02   7.064808e+01
  -1.246524e+02  -1.064345e+02
  -1.498906e+01  -2.056965e+02
   8.502114e+01  -1.503399e+02
   1.061477e+02   5.219086e+00
   5.630801e+01   1.203893e+02
  -5.234480e+00   1.057225e+02
  -4.791070e+01   1.816070e+01
  -5.251287e+01  -3.333063e+01
  -2.233318e+01  -1.016070e+01
  -3.737270e+00   1.845113e+01
  -2.196650e+01  -1.524756e+01
  -5.628387e+01  -9.071895e+01
  -3.995553e+01  -1.107871e+02
   5.227419e+01  -4.608594e+01
   1.384814e+02   3.355151e+01
   1.271025e+02   7.646382e+01
   2.057101e+01   5.033017e+01
  -9.006624e+01   2.002092e+01
  -8.809769e+01   7.387072e+00
  -1.202429e+01  -8.397458e+00
   3.940478e+01  -2.205289e+01
   1.649987e+01  -1.623464e+01
  -2.121009e+01   1.186835e+00
   6.275328e+00   8.861651e+00
   6.966964e+01   1.515486e+00
   9.270204e+01   2.335344e+01
   8.947610e+00   8.121456e+01
  -1.198821e+02   1.155482e+02
  -1.898628e+02   5.079128e+01
  -1.359496e+02  -6.906283e+01
  -2.896535e+01  -1.603004e+02
   7.609354e+01  -1.450791e+02
   1.183502e+02  -6.179688e+01
   7.781164e+01   2.468817e+01
   2.459862e+01   3.764238e+01
  -1.726509e+00   1.000156e+01
   1.134926e+01   5.504745e+00
   3.065872e+01   4.711312e+01
   2.093567e+01   8.574371e+01
  -3.151180e+01   7.014682e+01
  -7.993550e+01  -1.871493e+01
  -7.897881e+01  -1.062144e+02
  -5.146291e+00  -1.116851e+02
   8.502274e+01  -2.295953e+01
   1.034361e+02   6.942909e+01
   3.493329e+01   1.013639e+02
  -6.543825e+01   5.442455e+01
  -1.055436e+02  -1.084410e+01
  -4.235257e+01  -5.158520e+01
   3.307720e+01  -5.583471e+01
   3.221021e+01  -2.875626e+01
  -3.218094e+01  -1.428046e+00
  -6.913830e+01   7.913862e+00
  -1.542357e+01  -2.515557e+01
   7.823809e+01  -6.352712e+01
   1.198950e+02  -5.972050e+01
   6.695549e+01   1.184634e+01
  -1.580934e+01   8.052894e+01
  -5.132387e+01   7.762840e+01
  -3.715540e+01   4.843018e+00
  -1.422391e+00  -5.300128e+01
   2.385948e+01  -4.316560e+01
   3.617733e+01   1.830829e+01
   2.907669e+01   5.349090e+01
  -2.539262e+00   3.508328e+01
  -3.197334e+01  -1.004387e+01
  -3.927343e+01  -2.225388e+01
  -2.085046e+01  -5.588565e-01
  -3.692801e-02   1.559017e+01
   5.370928e+00  -2.217065e+00
   1.944296e+00  -3.533828e+01
   1.626794e+01  -4.807053e+01
   3.069745e+01  -1.395415e+01
   3.323496e+01   4.449193e+01
   6.647394e-01   5.938002e+01
  -4.391829e+01   1.880655e+01
  -6.392498e+01  -3.624933e+01
  -1.708932e+01  -6.364337e+01
   5.684179e+01  -3.529455e+01
   8.648692e+01   1.644209e+01
   5.213388e+01   4.045890e+01
  -2.805794e+01   4.117200e+01
  -6.496183e+01   2.577574e+01
  -2.554491e+01   3.807349e+00
   3.537280e+01   4.117921e+00
   3.613655e+01   1.243723e+01
  -2.708452e+01   2.625720e+01
  -8.330482e+01   1.959194e+01
