
 $NMID
 id='ANONYMOUS ', fmtdat='(2E16.6)'
 volume=1.0
 tramp=1.0
 $END
  -3.841572e+03   2.273095e+02
  -2.488841e+03  -2.466754e+03
   7.203079e+02  -2.444111e+03
   1.865337e+03  -1.104020e+03
   9.652649e+02   5.237970e+02
  -5.176704e+02   4.605565e+02
  -7.984210e+02  -2.223840e+02
  -3.634754e+01  -9.022429e+02
   7.097989e+02  -8.031822e+02
   8.405000e+02   8.850730e+01
   3.826612e+02   8.147157e+02
  -2.188734e+02   7.740860e+02
  -5.656500e+02   1.707853e+02
  -3.407473e+02  -5.806095e+02
   1.689532e+02  -7.282711e+02
   5.502877e+02  -2.105845e+01
   2.261208e+02   6.117549e+02
  -2.538994e+02   6.357725e+02
  -5.427071e+02   1.035901e+02
  -3.611598e+02  -2.717731e+02
  -3.303197e+01  -4.300745e+02
   2.186513e+02  -2.682875e+02
   1.963777e+02  -2.111554e+01
  -8.465867e+01   3.893727e+01
  -3.816149e+02  -1.330233e+02
  -1.485513e+02  -3.906266e+02
   4.559007e+02  -3.561199e+02
   8.206379e+02   9.990676e+01
   3.882482e+02   4.613868e+02
  -4.342994e+02   4.160289e+02
  -6.464843e+02  -3.428067e+00
  -2.929613e+02  -4.459503e+02
   2.622526e+02  -4.768754e+02
   4.800522e+02  -1.970482e+02
   3.485573e+02   2.179241e+02
   5.050356e+01   4.216416e+02
  -1.207705e+02   2.610238e+02
  -1.402418e+02  -1.451909e+02
   1.731708e+02  -3.746595e+02
   3.701739e+02  -2.204486e+01
   1.859448e+02   5.606643e+02
  -2.957280e+02   6.372542e+02
  -5.437565e+02   2.054746e+01
  -2.328501e+02  -5.162201e+02
   2.289676e+02  -3.234631e+02
   3.778446e+02   3.108369e+02
  -3.843063e+01   5.038806e+02
  -4.958793e+02   1.500249e+02
  -5.780934e+02  -3.548066e+02
  -1.225929e+02  -5.592230e+02
   3.240602e+02  -3.536619e+02
   5.996571e+02   1.011105e+02
   3.529450e+02   3.206729e+02
  -9.118103e+01   3.409402e+02
  -3.811977e+02   6.081793e+01
  -2.251351e+02  -1.672904e+02
   1.030841e+02  -9.368060e+01
   1.167474e+02   1.291828e+02
  -1.345680e+02   1.698795e+02
  -3.374193e+02  -2.268794e+01
  -1.722481e+02  -2.894948e+02
   2.106383e+02  -2.541985e+02
   3.267713e+02  -5.997630e+01
   1.804419e+02   7.371947e+01
  -4.273534e+01   2.234059e+02
  -2.097253e+02   3.032618e+02
  -3.187018e+02   1.986513e+02
  -2.756099e+02  -1.376781e+02
  -7.255648e+01  -4.190338e+02
   9.490001e+01  -3.781459e+02
   1.118217e+02  -1.144461e+02
   2.287171e+01  -1.359593e+01
   4.012153e+01  -6.384711e+01
   2.219189e+02  -1.106803e+02
   2.555553e+02   6.247730e+01
   1.366471e+02   2.651531e+02
  -9.076866e+01   2.259520e+02
  -2.164486e+02   1.834601e+00
  -1.692324e+02  -2.094355e+02
   1.683339e+01  -2.908246e+02
   2.510674e+02  -7.747327e+01
   3.301439e+02   1.413703e+02
   1.756110e+02   3.230754e+02
  -9.870232e+01   2.886076e+02
  -2.083011e+02   1.390399e+02
  -1.515104e+02   1.793248e+01
  -9.166197e+01   3.904212e+01
  -2.168051e+02   3.731395e+01
  -3.888454e+02  -6.022222e+01
  -3.109154e+02  -2.727736e+02
   1.532361e+01  -3.988147e+02
   3.666788e+02  -3.891797e+02
   5.001571e+02  -1.450922e+02
   2.999054e+02   9.207303e+01
   4.575330e+01   2.657418e+02
  -1.203535e+02   2.314431e+02
  -6.774851e+01   4.492074e+01
   9.228362e+01  -8.011075e+01
   1.632816e+02   3.885295e+00
   5.063351e+01   1.788679e+02
  -1.306662e+02   1.735515e+02
  -1.533661e+02  -5.200563e+01
   2.582474e+01  -1.652613e+02
   1.805776e+02  -3.191347e+01
   1.497864e+02   2.380833e+02
  -2.151767e+01   3.032419e+02
  -2.218766e+02   1.845876e+02
  -3.081363e+02  -7.518253e+01
  -2.678614e+02  -2.268384e+02
  -9.227995e+01  -2.545380e+02
   1.129032e+02  -1.449212e+02
   1.736158e+02  -1.895247e+01
   5.775750e+01   2.597355e+01
  -6.574982e+01  -4.357942e+01
  -2.908995e+01  -1.070767e+02
   1.269485e+02  -8.695979e+01
   1.713044e+02   2.197249e+01
   5.207679e+01   6.708698e+01
  -7.624087e+01   1.100109e+01
  -5.132533e+01  -7.669349e+01
   1.175317e+02  -8.064950e+01
   2.716924e+02  -2.550269e+00
   2.474178e+02   1.342998e+02
   4.864552e+01   2.366772e+02
  -1.498883e+02   2.291174e+02
  -2.812074e+02   1.319646e+02
  -1.755493e+02  -4.058687e+01
   2.389269e+01  -1.036617e+02
   8.480841e+01  -8.186018e+00
  -2.987606e+01   9.059598e+01
  -1.803130e+02   5.838254e+01
  -1.881036e+02  -9.259192e+01
  -6.752305e+01  -1.858557e+02
   9.215100e+01  -1.494008e+02
   1.264317e+02  -3.527183e+01
   6.419870e+01   4.756121e+01
  -3.164354e+01   1.065344e-01
  -2.653678e+01  -7.775775e+01
   6.641627e+01  -1.039626e+02
   1.818750e+02  -2.839146e+01
   1.765649e+02   1.078634e+02
   9.859454e+00   1.893625e+02
  -1.588025e+02   1.701376e+02
  -1.863016e+02   1.770127e+01
  -7.348591e+01  -1.057249e+02
   6.186704e+01  -1.061125e+02
   7.253156e+01  -2.916176e+01
   1.085207e+01   2.794644e+01
  -2.022639e+01   1.460044e+01
   9.054747e+00  -1.032915e+01
   6.737244e+01   5.324900e+00
   8.512810e+01   7.785794e+01
   1.115442e+01   1.522548e+02
  -1.254832e+02   1.406260e+02
  -2.086134e+02   2.262455e+01
  -1.823945e+02  -1.313024e+02
  -3.966639e+01  -2.236707e+02
   1.014650e+02  -1.631737e+02
   1.343992e+02  -2.379186e+01
   6.662169e+01   5.222486e+01
   2.694786e+01   3.358637e+01
   5.162359e+01  -1.123334e+01
   7.089553e+01  -3.767991e+00
   3.934513e+01   4.750952e+01
  -4.142640e+01   8.020595e+01
  -9.930231e+01   5.471216e+01
  -8.641899e+01  -3.398328e+01
   1.495125e+01  -1.003431e+02
   1.338780e+02  -7.772004e+01
   1.879086e+02   4.819715e+01
   9.537317e+01   1.888082e+02
  -9.691073e+01   2.110841e+02
  -2.558739e+02   8.438577e+01
  -2.464363e+02  -9.357229e+01
  -1.063578e+02  -1.533063e+02
   3.011578e+01  -1.390642e+02
   8.681048e+01  -7.479826e+01
   7.445847e+01  -6.652533e+01
   5.710250e+01  -8.180218e+01
   8.329940e+01  -6.907763e+01
   1.249958e+02   2.485451e+01
   1.092414e+02   1.493409e+02
   1.580103e+01   2.075029e+02
  -9.475067e+01   1.583248e+02
  -1.596046e+02   3.944164e+00
  -1.270616e+02  -1.136554e+02
  -1.736537e+01  -1.516537e+02
   6.420684e+01  -8.524648e+01
   5.864182e+01   1.778130e+00
   3.454977e+00   4.149239e+01
  -1.041610e+01   3.195231e+01
   3.112560e+01   2.067295e+01
   7.369563e+01   1.974035e+01
   4.425014e+01   3.595026e+01
  -6.026366e+01   3.547255e+01
  -1.455420e+02   5.570430e+00
  -1.282460e+02  -4.635951e+01
  -1.354511e+01  -8.009817e+01
   1.157154e+02  -6.706820e+01
   1.318160e+02  -7.611175e+00
   4.865086e+01   4.082823e+01
  -5.695421e+01   3.602314e+01
  -7.359896e+01  -1.773176e+01
  -6.836077e+00  -6.091492e+01
   5.208457e+01  -5.067502e+01
   6.109885e+01   4.584107e+00
   4.556087e+01   4.197288e+01
   4.064160e+01   3.908810e+01
   5.583289e+01  -2.785179e-01
   6.129525e+01   2.574538e+00
   3.378411e+01   6.600648e+01
  -2.669999e+01   1.312128e+02
  -1.026737e+02   1.247889e+02
  -1.533533e+02   2.019129e+01
  -1.166783e+02  -7.808625e+01
  -4.451747e+00  -1.216996e+02
   8.041417e+01  -5.766821e+01
   5.675792e+01   1.335804e+01
  -5.616127e+01   1.645236e+01
  -1.340103e+02  -4.235150e+01
  -6.962874e+01  -9.879876e+01
   8.337193e+01  -1.026422e+02
   1.710603e+02  -4.669129e+01
   1.530049e+02   3.069004e+01
   3.296584e+01   7.744274e+01
  -6.007188e+01   6.530235e+01
  -4.540972e+01   3.861872e+00
   3.520569e+01  -2.420131e+01
   8.485084e+01   2.170954e+01
   3.904052e+01   1.105206e+02
  -8.596741e+01   1.407278e+02
  -1.462350e+02   6.149547e+01
  -1.177071e+02  -1.009854e+02
  -9.249223e+00  -1.921417e+02
   8.097993e+01  -1.377161e+02
   1.002363e+02  -2.171539e-01
   5.445822e+01   1.127268e+02
  -8.211860e+00   9.756309e+01
  -4.245749e+01   1.851896e+01
  -4.652834e+01  -2.904008e+01
  -2.378179e+01  -8.439906e+00
  -2.835272e+00   1.813205e+01
  -1.915845e+01  -1.330345e+01
  -5.150077e+01  -8.577790e+01
  -3.722197e+01  -1.020360e+02
   4.636004e+01  -4.388510e+01
   1.283981e+02   3.495682e+01
   1.192304e+02   7.294922e+01
   2.034232e+01   4.638047e+01
  -7.879354e+01   1.627050e+01
  -8.357543e+01   5.628432e+00
  -1.104265e+01  -7.514472e+00
   3.727537e+01  -2.224038e+01
   1.469105e+01  -1.439139e+01
  -1.896316e+01   5.276288e-01
   4.389932e+00   7.678494e+00
   6.693214e+01   2.198002e+00
   8.804461e+01   2.529001e+01
   4.490880e+00   7.243711e+01
  -1.099145e+02   1.084952e+02
  -1.753188e+02   4.731753e+01
  -1.270923e+02  -7.236600e+01
  -2.468622e+01  -1.488080e+02
   7.520430e+01  -1.330294e+02
   1.134550e+02  -5.994617e+01
   7.328379e+01   2.353215e+01
   2.049702e+01   3.344120e+01
  -2.306043e+00   9.195004e+00
   1.033186e+01   5.149301e+00
   2.984202e+01   4.202676e+01
   2.070880e+01   7.979192e+01
  -2.825611e+01   6.580104e+01
  -7.441107e+01  -2.178155e+01
  -7.522626e+01  -9.937224e+01
  -4.442067e+00  -1.063839e+02
   7.773717e+01  -2.199571e+01
   9.553409e+01   6.813807e+01
   3.596512e+01   9.287781e+01
  -6.515805e+01   4.655181e+01
  -9.911823e+01  -1.082205e+01
  -4.013566e+01  -5.129485e+01
   3.009863e+01  -5.021966e+01
   3.034099e+01  -2.739837e+01
  -3.121055e+01  -1.057526e+00
  -6.452513e+01   1.017936e+01
  -1.390285e+01  -2.321344e+01
   7.299051e+01  -5.725537e+01
   1.079605e+02  -5.644103e+01
   5.916699e+01   8.880867e+00
  -1.219572e+01   7.402334e+01
  -5.006062e+01   7.170283e+01
  -3.406543e+01   5.583963e+00
   1.442644e+00  -5.178024e+01
   2.402127e+01  -4.094539e+01
   3.360090e+01   1.733642e+01
   2.522015e+01   5.002169e+01
  -2.942886e+00   3.329612e+01
  -2.929747e+01  -9.840854e+00
  -3.641864e+01  -2.067391e+01
  -1.879086e+01  -5.630140e-01
   1.264389e-01   1.410248e+01
   6.620687e+00  -7.664548e-01
   5.365603e+00  -3.483410e+01
   1.482156e+01  -4.125158e+01
   3.053496e+01  -9.904776e+00
   2.885427e+01   4.270296e+01
  -7.009492e-02   5.371287e+01
  -3.954504e+01   1.960839e+01
  -6.089822e+01  -3.271784e+01
  -1.777320e+01  -5.696657e+01
   5.083125e+01  -3.316262e+01
   7.945049e+01   1.307413e+01
   4.814237e+01   3.858451e+01
  -2.593908e+01   3.794263e+01
  -5.937190e+01   2.364608e+01
  -2.389529e+01   4.914605e+00
   3.160333e+01   2.930275e+00
   3.428089e+01   1.297168e+01
  -2.882477e+01   2.443215e+01
  -8.245425e+01   1.745310e+01
