
 $NMID
 id='ANONYMOUS ', fmtdat='(2E16.6)'
 volume=1.0
 tramp=1.0
 $END
   3.355419e+03  -2.176756e+02
   2.209293e+03   1.677080e+03
  -3.157058e+02   1.949768e+03
  -1.534073e+03   1.175863e+03
  -7.016002e+02  -1.913899e+02
   2.912182e+02  -2.541756e+02
   7.123552e+02   8.885211e+01
   7.732671e+01   7.172289e+02
  -5.471701e+02   6.585638e+02
  -7.361155e+02   4.920846e+00
  -4.088131e+02  -6.166046e+02
   2.081245e+02  -6.910428e+02
   4.864194e+02  -2.066308e+02
   2.919269e+02   4.804175e+02
  -1.720601e+02   6.562079e+02
  -4.701324e+02   1.637206e+01
  -2.672975e+02  -5.140397e+02
   1.675759e+02  -6.156142e+02
   4.490136e+02  -2.098646e+02
   3.958425e+02   2.216454e+02
   6.635315e+01   3.842463e+02
  -1.805881e+02   2.285702e+02
  -1.176118e+02   3.413770e+01
   1.175425e+02   7.207590e+00
   3.243378e+02   2.293467e+02
   7.068072e+01   3.751499e+02
  -4.369032e+02   2.401013e+02
  -6.747627e+02  -9.509862e+01
  -3.147805e+02  -4.636503e+02
   3.505964e+02  -2.425638e+02
   5.615083e+02   4.114488e+01
   2.200671e+02   3.664060e+02
  -2.697205e+02   3.646246e+02
  -4.645152e+02   1.327964e+02
  -3.412099e+02  -1.722355e+02
  -5.871177e+01  -3.279329e+02
   1.082005e+02  -2.215118e+02
   7.871091e+01   1.135904e+02
  -1.567047e+02   2.404607e+02
  -3.125399e+02  -4.735683e+01
  -1.750020e+02  -5.491964e+02
   2.456283e+02  -5.252196e+02
   4.406094e+02   4.140606e+01
   1.463819e+02   3.823140e+02
  -2.050898e+02   1.950142e+02
  -2.021673e+02  -2.848856e+02
   6.329229e+01  -4.402498e+02
   4.558837e+02  -9.507510e+01
   5.260168e+02   3.254445e+02
   1.168149e+02   4.867452e+02
  -3.204917e+02   2.971711e+02
  -5.177951e+02  -6.890314e+01
  -3.509504e+02  -2.837471e+02
   9.964277e+01  -2.826715e+02
   3.521516e+02  -9.618465e+01
   2.012718e+02   8.217896e+01
  -4.467186e+01   4.868236e+01
  -5.749854e+01  -1.002824e+02
   1.085187e+02  -1.193212e+02
   2.741184e+02   2.993930e+01
   1.270263e+02   2.239575e+02
  -1.592307e+02   2.216698e+02
  -3.012145e+02   9.921479e+01
  -2.055714e+02  -7.872914e+01
   4.114947e+01  -2.338916e+02
   2.215121e+02  -3.210449e+02
   3.353824e+02  -1.684517e+02
   2.450086e+02   1.313403e+02
   5.921179e+01   3.603457e+02
  -3.778971e+01   3.306398e+02
  -5.027270e+01   1.311706e+02
  -1.244398e+01   6.595041e+01
  -8.061689e+01   8.321633e+01
  -2.073686e+02   7.216083e+01
  -2.278098e+02  -5.230882e+01
  -1.145937e+02  -2.559894e+02
   7.674047e+01  -1.917704e+02
   1.837826e+02   1.959700e+01
   1.444061e+02   2.261952e+02
  -4.541702e+01   2.395100e+02
  -2.214519e+02   9.288266e+01
  -2.970645e+02  -1.757711e+02
  -1.485782e+02  -2.889404e+02
   8.421480e+01  -2.277787e+02
   1.849670e+02  -1.237948e+02
   1.383409e+02  -4.654172e+01
   1.122595e+02  -5.785275e+01
   2.291188e+02  -5.300962e+01
   3.477961e+02   6.263985e+01
   2.868557e+02   2.394597e+02
   1.197182e+01   4.021078e+02
  -3.251825e+02   3.737671e+02
  -4.170531e+02   1.737905e+02
  -2.690854e+02  -8.366428e+01
  -3.836684e+01  -2.496767e+02
   9.089350e+01  -1.928444e+02
   4.126191e+01  -4.190252e+01
  -9.777915e+01   7.726636e+01
  -1.543829e+02  -1.853361e+01
  -2.195379e+01  -1.499840e+02
   1.245388e+02  -1.469189e+02
   1.276282e+02   3.144602e+01
  -1.372766e+01   1.461556e+02
  -1.524803e+02   3.140974e+01
  -1.545915e+02  -2.076533e+02
   7.642618e+00  -3.226960e+02
   2.241271e+02  -1.848742e+02
   2.975165e+02   5.184275e+01
   2.491060e+02   2.378178e+02
   7.594935e+01   2.364830e+02
  -1.158743e+02   1.286680e+02
  -1.553808e+02  -4.966844e+00
  -3.991172e+01  -2.271812e+01
   5.064919e+01   4.845365e+01
   2.250684e+01   1.037071e+02
  -1.095090e+02   7.263501e+01
  -1.454289e+02  -1.467746e+01
  -2.919349e+01  -6.152319e+01
   7.107642e+01   2.272706e-01
   3.949033e+01   8.179296e+01
  -1.276078e+02   8.333044e+01
  -2.626552e+02   5.212391e+00
  -2.370990e+02  -1.329847e+02
  -3.644846e+01  -2.318793e+02
   1.648435e+02  -2.346115e+02
   2.496059e+02  -9.842201e+01
   1.367711e+02   4.649255e+01
  -3.075821e+01   8.750613e+01
  -6.901119e+01   2.576831e+00
   3.495197e+01  -7.923336e+01
   1.731816e+02  -3.937412e+01
   1.706045e+02   9.780368e+01
   6.064567e+01   1.903052e+02
  -8.641558e+01   1.330151e+02
  -1.230880e+02   2.787994e+01
  -4.887151e+01  -3.441153e+01
   3.428264e+01   1.115113e+01
   2.787474e+01   8.223656e+01
  -7.224395e+01   1.115177e+02
  -1.833696e+02   2.800397e+01
  -1.629252e+02  -1.367004e+02
  -1.826628e+01  -1.972136e+02
   1.512047e+02  -1.328759e+02
   1.729478e+02  -3.367443e+00
   5.933960e+01   9.188077e+01
  -5.406439e+01   9.850022e+01
  -6.925602e+01   3.407343e+01
  -5.379181e+00  -2.381734e+01
   2.982557e+01  -1.248791e+01
  -8.479079e+00   1.503214e+01
  -7.129151e+01  -2.798984e+00
  -9.038255e+01  -7.538734e+01
  -8.549945e+00  -1.487286e+02
   1.318340e+02  -1.339302e+02
   2.193053e+02  -2.869777e+01
   1.753661e+02   1.430975e+02
   3.463899e+01   2.200089e+02
  -9.771473e+01   1.452155e+02
  -1.182124e+02   2.264378e+01
  -6.951232e+01  -4.184309e+01
  -2.849593e+01  -2.774588e+01
  -4.942860e+01   8.137582e+00
  -7.645029e+01   4.025451e+00
  -5.406881e+01  -4.495123e+01
   3.491527e+01  -9.012811e+01
   1.046338e+02  -6.433125e+01
   8.246730e+01   3.943006e+01
  -1.317559e+01   1.127360e+02
  -1.343159e+02   8.588649e+01
  -1.885606e+02  -4.325248e+01
  -9.652040e+01  -1.807595e+02
   9.461116e+01  -2.104576e+02
   2.462779e+02  -7.325418e+01
   2.192293e+02   6.739415e+01
   1.009155e+02   1.613717e+02
  -3.981463e+01   1.286585e+02
  -7.809486e+01   7.591415e+01
  -6.312133e+01   6.034691e+01
  -5.598078e+01   8.432610e+01
  -7.938339e+01   6.606544e+01
  -1.204125e+02  -1.178726e+01
  -8.844016e+01  -1.485067e+02
  -3.652370e+01  -2.017176e+02
   8.533771e+01  -1.571723e+02
   1.533542e+02  -2.783739e+01
   1.187909e+02   1.130111e+02
   1.817053e+01   1.429987e+02
  -5.753906e+01   7.808557e+01
  -5.816008e+01  -1.112917e+01
   4.172341e-02  -4.447003e+01
   1.645285e+01  -3.399565e+01
  -2.710169e+01  -1.069982e+01
  -7.401092e+01  -2.274788e+01
  -4.453713e+01  -3.555920e+01
   6.309980e+01  -3.504959e+01
   1.504996e+02   5.635497e+00
   1.352905e+02   4.758063e+01
   5.683166e+00   7.800210e+01
  -1.117270e+02   6.300109e+01
  -1.327153e+02   1.498241e+01
  -4.328270e+01  -4.330116e+01
   5.526473e+01  -4.061519e+01
   6.822889e+01   1.719909e+01
   1.415878e+01   6.338527e+01
  -4.307191e+01   5.453741e+01
  -5.930702e+01   3.403940e+00
  -4.909124e+01  -4.687196e+01
  -4.463746e+01  -3.763818e+01
  -5.098470e+01  -9.103579e-01
  -6.000342e+01  -2.485132e+00
  -3.647234e+01  -6.351137e+01
   3.781029e+01  -1.374746e+02
   1.070263e+02  -1.276013e+02
   1.541684e+02  -3.731192e+01
   1.182548e+02   8.574916e+01
   9.290983e-02   1.127006e+02
  -7.499065e+01   6.628511e+01
  -5.528347e+01  -1.033039e+01
   5.079921e+01  -1.661116e+01
   1.193527e+02   3.779082e+01
   6.890499e+01   9.879267e+01
  -6.597792e+01   1.047981e+02
  -1.688857e+02   4.018309e+01
  -1.459735e+02  -3.963923e+01
  -2.940967e+01  -7.904301e+01
   5.552680e+01  -5.504709e+01
   4.146580e+01  -2.093272e+00
  -3.498136e+01   2.866252e+01
  -8.340468e+01  -1.394176e+01
  -2.910186e+01  -1.101618e+02
   7.125807e+01  -1.373168e+02
   1.444850e+02  -6.941530e+01
   1.072128e+02   8.003079e+01
   8.814489e+00   1.704856e+02
  -7.356802e+01   1.265431e+02
  -9.894630e+01  -9.702039e+00
  -5.698094e+01  -1.050869e+02
   1.254195e+01  -9.446989e+01
   4.276571e+01  -1.749912e+01
   4.283930e+01   2.887588e+01
   1.729515e+01   7.966121e+00
   2.741544e+00  -1.652731e+01
   2.697665e+01   1.697362e+01
   5.517432e+01   7.891192e+01
   4.005785e+01   9.009612e+01
  -4.527966e+01   3.825932e+01
  -1.273465e+02  -2.886749e+01
  -1.082820e+02  -6.536638e+01
  -1.431299e+01  -4.762680e+01
   7.425640e+01  -2.805928e+01
   7.895590e+01  -3.609417e+00
   1.140844e+01   8.969517e+00
  -3.305908e+01   1.773965e+01
  -1.552136e+01   1.337128e+01
   1.491852e+01  -1.246127e+00
  -4.107117e+00  -5.673234e+00
  -6.179811e+01   2.652292e-02
  -8.083955e+01  -2.136521e+01
  -1.265316e+01  -7.090917e+01
   9.365814e+01  -1.045256e+02
   1.673449e+02  -6.852191e+01
   1.382425e+02   3.959293e+01
   2.226855e+01   1.406760e+02
  -7.523657e+01   1.359462e+02
  -1.044632e+02   6.131956e+01
  -6.932427e+01  -1.965308e+01
  -2.321326e+01  -3.375386e+01
  -2.076291e-01  -9.959333e+00
  -1.183937e+01  -4.651590e+00
  -2.890820e+01  -4.128492e+01
  -1.876541e+01  -8.390046e+01
   2.872943e+01  -6.430291e+01
   7.165884e+01   1.402164e+01
   7.582324e+01   8.976787e+01
   1.387112e+01   1.011518e+02
  -6.771431e+01   2.796719e+01
  -9.846868e+01  -5.948413e+01
  -3.421268e+01  -9.432946e+01
   5.024131e+01  -5.559392e+01
   8.977937e+01   1.309273e+01
   3.708495e+01   5.065983e+01
  -2.625368e+01   5.333834e+01
  -3.369513e+01   3.004725e+01
   2.489026e+01  -5.057223e+00
   6.222382e+01  -7.170880e+00
   1.415155e+01   2.340475e+01
  -6.724861e+01   6.253660e+01
  -1.123711e+02   4.626193e+01
  -6.335999e+01  -1.660863e+01
   1.272861e+01  -7.759204e+01
   5.034300e+01  -7.351925e+01
   3.723311e+01  -1.296112e+01
   8.640585e-01   4.653964e+01
  -2.272406e+01   4.207899e+01
  -3.434479e+01  -1.084475e+01
  -2.767182e+01  -4.526274e+01
   1.965596e+00  -3.153014e+01
   2.968229e+01   4.408734e+00
   3.838545e+01   1.979658e+01
   2.008984e+01   2.411138e+00
  -3.026829e+00  -1.583753e+01
  -4.830455e+00  -2.645188e+00
  -1.694484e-02   3.005241e+01
  -3.885236e+00   4.436593e+01
  -3.005994e+01   1.313294e+01
  -3.329183e+01  -3.538307e+01
  -1.099978e+01  -5.239942e+01
   3.687335e+01  -2.433174e+01
   5.482088e+01   3.784049e+01
   1.463490e+01   5.798081e+01
  -4.968816e+01   3.581841e+01
  -8.272564e+01  -7.946197e+00
  -4.554724e+01  -3.960713e+01
   2.791970e+01  -3.838672e+01
   5.768454e+01  -2.398520e+01
   2.463242e+01  -5.160084e+00
  -2.622962e+01   1.193062e+00
  -2.839212e+01  -6.659036e+00
   2.318467e+01  -2.434123e+01
   7.559890e+01  -1.750747e+01
