
 $NMID
 id='ANONYMOUS ', fmtdat='(2E16.6)'
 volume=1.0
 tramp=1.0
 $END
  -3.954861e+03   3.665511e+02
  -2.502158e+03  -2.123920e+03
   3.552405e+02  -2.410099e+03
   1.864502e+03  -1.180454e+03
   9.048756e+02   1.384535e+02
  -3.630608e+02   3.772908e+02
  -8.107365e+02  -2.445056e+02
  -1.320265e+02  -8.188703e+02
   6.151157e+02  -7.901193e+02
   7.593232e+02   3.721593e+01
   4.511216e+02   7.623832e+02
  -1.922563e+02   7.586322e+02
  -4.564880e+02   2.319928e+02
  -3.089163e+02  -5.383257e+02
   2.218990e+02  -6.425398e+02
   5.140264e+02  -1.561472e+01
   2.832308e+02   6.097227e+02
  -2.072630e+02   6.709228e+02
  -5.628711e+02   2.047482e+02
  -4.052270e+02  -2.346156e+02
  -8.870173e+01  -4.340499e+02
   1.921121e+02  -2.372816e+02
   1.251107e+02  -5.481805e+01
  -1.151331e+02  -8.653262e+00
  -3.389190e+02  -2.130425e+02
  -1.311016e+02  -3.558268e+02
   4.627054e+02  -2.826442e+02
   6.834605e+02   7.376843e+01
   3.129304e+02   4.727327e+02
  -3.175081e+02   3.578917e+02
  -6.028817e+02  -5.057575e+01
  -2.842029e+02  -4.048911e+02
   2.821410e+02  -4.402892e+02
   5.043341e+02  -1.585068e+02
   3.553379e+02   1.585869e+02
   8.264648e+01   3.854067e+02
  -1.401084e+02   2.601738e+02
  -1.187468e+02  -1.440779e+02
   1.688506e+02  -2.689202e+02
   3.270558e+02   4.660164e+01
   1.842402e+02   5.746625e+02
  -1.614398e+02   6.584395e+02
  -4.731191e+02  -5.202978e+01
  -2.072875e+02  -4.801333e+02
   2.237838e+02  -2.313606e+02
   2.714500e+02   2.867768e+02
  -8.249116e+01   4.475490e+02
  -5.026746e+02   9.953996e+01
  -4.998002e+02  -3.621691e+02
  -1.553975e+02  -5.435094e+02
   3.330131e+02  -3.319400e+02
   5.654715e+02   1.054154e+02
   3.667595e+02   3.177286e+02
  -1.186077e+02   3.092969e+02
  -3.806316e+02   8.255813e+01
  -2.256256e+02  -9.624631e+01
   3.525515e+01  -6.634307e+01
   8.413460e+01   1.188755e+02
  -1.093186e+02   1.453625e+02
  -2.958984e+02  -4.327270e+01
  -1.298904e+02  -2.418445e+02
   1.714827e+02  -2.346650e+02
   3.413148e+02  -1.070172e+02
   2.195561e+02   1.028813e+02
  -4.064912e+01   2.495599e+02
  -2.426570e+02   3.402478e+02
  -3.569115e+02   1.615604e+02
  -2.642922e+02  -1.529938e+02
  -4.528994e+01  -3.690557e+02
   5.886316e+01  -3.752440e+02
   6.018483e+01  -1.404655e+02
   3.480927e+01  -5.494621e+01
   8.553687e+01  -8.151511e+01
   2.228438e+02  -9.542891e+01
   2.485326e+02   6.706779e+01
   1.498872e+02   2.437975e+02
  -6.540690e+01   2.156076e+02
  -2.016426e+02  -1.627435e+01
  -1.668250e+02  -2.412751e+02
   3.111184e+01  -2.543327e+02
   2.358857e+02  -9.673703e+01
   3.029527e+02   1.733577e+02
   1.849946e+02   3.394331e+02
  -8.230480e+01   2.757962e+02
  -2.062899e+02   1.494929e+02
  -1.507255e+02   3.605838e+01
  -1.277322e+02   5.283538e+01
  -2.497682e+02   5.406157e+01
  -3.959119e+02  -5.097743e+01
  -3.085884e+02  -2.661705e+02
  -3.603305e+00  -4.333064e+02
   3.623457e+02  -4.096171e+02
   4.768621e+02  -1.942138e+02
   3.051719e+02   9.551251e+01
   5.681686e+01   2.551765e+02
  -9.388900e+01   2.036294e+02
  -6.506123e+01   3.761909e+01
   9.441780e+01  -7.984765e+01
   1.661741e+02   1.708192e+01
   2.914561e+01   1.650463e+02
  -1.391579e+02   1.322546e+02
  -1.417735e+02  -3.316735e+01
   1.171019e+01  -1.537425e+02
   1.619805e+02  -3.934333e+01
   1.662685e+02   2.208732e+02
  -3.307569e+01   3.470481e+02
  -2.407644e+02   1.853056e+02
  -3.234080e+02  -5.411839e+01
  -2.503226e+02  -2.622435e+02
  -9.533154e+01  -2.659163e+02
   1.187926e+02  -1.421297e+02
   1.597235e+02  -6.173473e+00
   4.408804e+01   2.282255e+01
  -5.485740e+01  -4.899180e+01
  -2.108671e+01  -1.082466e+02
   1.189877e+02  -8.163281e+01
   1.555818e+02   6.978480e+00
   4.171698e+01   6.776214e+01
  -7.646446e+01   3.865731e-01
  -4.640846e+01  -8.107786e+01
   1.304326e+02  -8.361955e+01
   2.818091e+02   9.896814e+00
   2.351275e+02   1.329460e+02
   3.841337e+01   2.356863e+02
  -1.826608e+02   2.394648e+02
  -2.587047e+02   1.154655e+02
  -1.476512e+02  -5.576683e+01
   2.808707e+01  -8.165716e+01
   7.856690e+01  -3.894481e+00
  -3.400517e+01   8.804802e+01
  -1.852756e+02   3.302989e+01
  -1.844391e+02  -9.803774e+01
  -6.090571e+01  -1.908042e+02
   8.584727e+01  -1.373783e+02
   1.338766e+02  -3.492414e+01
   5.371944e+01   3.659724e+01
  -3.648631e+01  -7.801306e+00
  -3.147997e+01  -9.121814e+01
   7.076090e+01  -1.193511e+02
   1.919923e+02  -3.194954e+01
   1.783238e+02   1.369809e+02
   1.716943e+01   2.143904e+02
  -1.600462e+02   1.483805e+02
  -1.913692e+02  -2.323236e+00
  -6.865430e+01  -1.008258e+02
   6.240152e+01  -1.060272e+02
   7.344953e+01  -2.865023e+01
   9.725457e+00   2.434200e+01
  -2.816505e+01   8.874905e+00
   8.513560e+00  -1.564883e+01
   7.912251e+01   8.927072e+00
   9.634572e+01   8.705211e+01
   9.809199e+00   1.574533e+02
  -1.358720e+02   1.473064e+02
  -2.265792e+02   2.020466e+01
  -1.901908e+02  -1.738309e+02
  -3.887092e+01  -2.244585e+02
   1.108379e+02  -1.560085e+02
   1.249269e+02  -2.577285e+01
   7.428382e+01   5.081062e+01
   3.349815e+01   3.027067e+01
   5.132402e+01  -1.098897e+01
   8.223509e+01  -2.832790e+00
   4.981141e+01   5.145078e+01
  -4.261024e+01   9.325798e+01
  -1.054122e+02   6.162256e+01
  -8.539250e+01  -3.902170e+01
   1.495673e+01  -1.132119e+02
   1.418222e+02  -8.159707e+01
   1.954718e+02   5.152882e+01
   8.993862e+01   1.983352e+02
  -1.063419e+02   2.279366e+02
  -2.547829e+02   8.042134e+01
  -2.421741e+02  -7.386888e+01
  -9.443228e+01  -1.775078e+02
   4.320234e+01  -1.393001e+02
   8.548968e+01  -8.414931e+01
   7.093957e+01  -6.770327e+01
   6.157393e+01  -9.092221e+01
   8.659477e+01  -7.662963e+01
   1.272808e+02   1.912978e+01
   1.064816e+02   1.603020e+02
   3.796915e+01   2.231692e+02
  -8.802828e+01   1.685537e+02
  -1.596760e+02   2.836312e+01
  -1.347187e+02  -1.223977e+02
  -1.964288e+01  -1.497727e+02
   6.463216e+01  -8.671045e+01
   5.776135e+01   8.175036e+00
   1.814868e+00   4.457747e+01
  -2.096967e+01   3.409161e+01
   3.243173e+01   1.105514e+01
   8.015486e+01   2.302566e+01
   4.495460e+01   3.761609e+01
  -6.910656e+01   3.911749e+01
  -1.621934e+02  -1.415979e+00
  -1.318737e+02  -5.376902e+01
  -6.832823e+00  -8.354678e+01
   1.191307e+02  -6.761687e+01
   1.447859e+02  -1.370559e+01
   4.387984e+01   4.659565e+01
  -6.154513e+01   3.892288e+01
  -7.000001e+01  -2.104255e+01
  -7.811890e+00  -6.990830e+01
   4.716527e+01  -6.432498e+01
   6.488191e+01  -9.429252e-01
   4.978277e+01   5.093611e+01
   4.445420e+01   4.087395e+01
   5.575356e+01   2.650505e+00
   6.445710e+01   5.239568e+00
   3.656883e+01   6.303431e+01
  -4.068159e+01   1.411122e+02
  -1.079688e+02   1.436587e+02
  -1.684198e+02   3.424425e+01
  -1.208292e+02  -8.457474e+01
   2.531665e+00  -1.266641e+02
   8.293924e+01  -7.076614e+01
   5.969002e+01   1.300435e+01
  -5.629970e+01   1.999655e+01
  -1.327158e+02  -3.782727e+01
  -6.513124e+01  -1.098555e+02
   7.675997e+01  -1.149385e+02
   1.840471e+02  -4.321011e+01
   1.531342e+02   3.926145e+01
   3.586824e+01   8.520169e+01
  -5.737679e+01   6.365472e+01
  -4.365563e+01   3.510459e+00
   3.902561e+01  -3.008286e+01
   9.005950e+01   1.817529e+01
   2.990714e+01   1.173285e+02
  -8.195372e+01   1.519961e+02
  -1.593200e+02   7.389943e+01
  -1.220717e+02  -8.789069e+01
  -1.508342e+01  -1.836607e+02
   8.241216e+01  -1.368371e+02
   1.000602e+02   1.442502e+01
   6.055830e+01   1.123579e+02
  -9.860623e+00   1.030644e+02
  -4.600338e+01   1.759111e+01
  -4.558921e+01  -3.330166e+01
  -2.052473e+01  -8.286469e+00
  -4.186301e+00   1.821191e+01
  -2.516077e+01  -1.837773e+01
  -6.080788e+01  -8.337436e+01
  -4.156371e+01  -9.689642e+01
   4.704382e+01  -4.189531e+01
   1.291481e+02   3.183525e+01
   1.256198e+02   6.922025e+01
   1.521395e+01   5.057075e+01
  -7.840879e+01   2.794973e+01
  -8.794262e+01   3.649996e+00
  -1.193277e+01  -1.067797e+01
   3.676440e+01  -2.020331e+01
   1.651974e+01  -1.582334e+01
  -1.794170e+01   2.220807e+00
   5.785098e+00   7.357430e+00
   6.796822e+01   1.687827e+00
   8.791069e+01   2.235625e+01
   8.411255e+00   8.050073e+01
  -1.045294e+02   1.112683e+02
  -1.857311e+02   6.404688e+01
  -1.495702e+02  -4.252773e+01
  -1.656970e+01  -1.646611e+02
   7.982896e+01  -1.408310e+02
   1.067340e+02  -6.652484e+01
   7.741082e+01   1.985832e+01
   2.494839e+01   3.584972e+01
  -3.383354e-01   1.166932e+01
   1.080801e+01   4.790597e+00
   2.718470e+01   4.569367e+01
   2.013864e+01   8.752227e+01
  -2.982605e+01   6.767636e+01
  -7.585391e+01  -1.407530e+01
  -7.293841e+01  -9.948956e+01
  -1.125352e+01  -1.091147e+02
   7.752828e+01  -2.893002e+01
   9.917076e+01   6.287161e+01
   3.622142e+01   9.780559e+01
  -6.102447e+01   6.118956e+01
  -9.673192e+01  -1.098266e+01
  -3.595863e+01  -5.436224e+01
   2.703852e+01  -5.719380e+01
   3.415683e+01  -2.995133e+01
  -2.833130e+01   4.837567e+00
  -6.698064e+01   7.193565e+00
  -1.495218e+01  -2.485205e+01
   7.452544e+01  -6.583265e+01
   1.197543e+02  -5.395917e+01
   6.541965e+01   1.745733e+01
  -1.201740e+01   7.986689e+01
  -5.501405e+01   7.648610e+01
  -3.963825e+01   9.323828e+00
   4.763768e-01  -5.152390e+01
   2.544573e+01  -4.330249e+01
   3.799364e+01   1.259734e+01
   2.867984e+01   4.726085e+01
  -4.608936e+00   3.434844e+01
  -3.263248e+01  -5.450118e+00
  -4.015617e+01  -2.183966e+01
  -2.025023e+01  -3.664657e+00
   1.212589e+00   1.637202e+01
   5.163134e+00   1.365994e+00
   9.080240e-01  -3.233994e+01
   9.277687e+00  -4.876046e+01
   2.990393e+01  -1.456461e+01
   3.354194e+01   3.932129e+01
   7.581656e+00   5.440346e+01
  -4.067508e+01   2.402567e+01
  -5.614418e+01  -3.654848e+01
  -1.347762e+01  -5.798767e+01
   5.282679e+01  -3.632361e+01
   8.811817e+01   1.215571e+01
   4.570729e+01   4.676379e+01
  -2.821106e+01   4.185758e+01
  -6.260448e+01   2.427674e+01
  -2.595989e+01   4.558211e+00
   3.178384e+01  -1.550249e+00
   3.420553e+01   8.354898e+00
  -2.294082e+01   2.580580e+01
  -8.285653e+01   2.025530e+01
