
 $NMID
 id='ANONYMOUS ', fmtdat='(2E16.6)'
 volume=1.0
 tramp=1.0
 $END
  -3.503991e+03   1.853839e+02
  -2.198530e+03  -1.993123e+03
   3.290082e+02  -2.012100e+03
   1.472497e+03  -1.179406e+03
   8.755364e+02  -1.419651e+01
  -2.081555e+02   1.743152e+02
  -6.077223e+02  -1.829323e+02
  -2.509056e+01  -8.287036e+02
   6.185329e+02  -7.449815e+02
   7.313061e+02   1.116924e+01
   5.345545e+02   5.653526e+02
  -1.041270e+02   7.257499e+02
  -4.586030e+02   2.266650e+02
  -2.576318e+02  -5.202180e+02
   1.744649e+02  -6.241031e+02
   4.383789e+02  -3.413218e+01
   2.963757e+02   4.878063e+02
  -2.100988e+02   6.651909e+02
  -4.919041e+02   1.977615e+02
  -4.383849e+02  -2.492661e+02
  -1.412348e+02  -3.833796e+02
   1.761688e+02  -2.453314e+02
   1.133380e+02  -4.289060e+01
  -1.598625e+02  -2.309910e+01
  -2.876829e+02  -2.289648e+02
  -7.070856e+01  -3.190317e+02
   4.409837e+02  -2.578928e+02
   6.399013e+02   1.298473e+02
   2.988257e+02   4.377450e+02
  -2.981759e+02   3.276154e+02
  -5.696961e+02  -1.190252e+02
  -2.439731e+02  -3.661352e+02
   2.657772e+02  -3.535783e+02
   4.597125e+02  -1.445823e+02
   3.770060e+02   1.830815e+02
   5.038370e+01   3.618219e+02
  -9.024925e+01   2.294706e+02
  -1.005623e+02  -1.243104e+02
   2.581968e+02  -2.624188e+02
   2.746408e+02   6.629602e+01
   1.204162e+02   5.471979e+02
  -1.916751e+02   5.565359e+02
  -3.755016e+02  -4.636401e-01
  -1.572553e+02  -3.657244e+02
   2.227443e+02  -1.864056e+02
   2.513830e+02   2.735267e+02
  -1.051367e+02   4.204421e+02
  -4.803794e+02   1.149622e+02
  -5.270129e+02  -3.969511e+02
  -1.407917e+02  -5.094503e+02
   3.164866e+02  -3.182142e+02
   5.120823e+02   5.572924e+01
   3.900193e+02   2.786098e+02
  -9.014861e+01   2.972575e+02
  -3.495527e+02   1.153092e+02
  -2.318778e+02  -3.297193e+01
   3.230738e+01  -5.410236e+01
   7.556630e+01   1.016213e+02
  -1.106057e+02   1.168375e+02
  -2.624285e+02  -2.537984e+01
  -1.369238e+02  -2.189516e+02
   1.807500e+02  -2.493624e+02
   3.135735e+02  -1.053735e+02
   2.379898e+02   9.007014e+01
  -2.434309e+01   2.648664e+02
  -2.414661e+02   3.374695e+02
  -3.314466e+02   1.741098e+02
  -2.606728e+02  -1.347722e+02
  -5.364998e+01  -3.839844e+02
   5.175057e+01  -3.532088e+02
   5.443097e+01  -1.281453e+02
   2.103780e+01  -7.909062e+01
   8.646188e+01  -1.029839e+02
   2.246792e+02  -7.098983e+01
   2.486223e+02   7.902597e+01
   1.295412e+02   2.316246e+02
  -7.906713e+01   2.116590e+02
  -1.991377e+02  -1.922104e+01
  -1.574155e+02  -2.245414e+02
   5.276320e+01  -2.673825e+02
   2.412640e+02  -1.080459e+02
   3.305522e+02   1.575228e+02
   1.536207e+02   3.237187e+02
  -8.194223e+01   2.531028e+02
  -1.788800e+02   1.480400e+02
  -1.430316e+02   3.725029e+01
  -1.294734e+02   5.491985e+01
  -2.303941e+02   5.466311e+01
  -3.887098e+02  -6.760365e+01
  -3.184054e+02  -2.828847e+02
   2.007223e+01  -4.322442e+02
   3.335021e+02  -4.071565e+02
   4.447277e+02  -2.316284e+02
   2.865709e+02   9.029290e+01
   4.408766e+01   2.562074e+02
  -1.126544e+02   2.082890e+02
  -4.396083e+01   4.369492e+01
   1.014361e+02  -7.612199e+01
   1.481929e+02  -5.648327e-01
   1.456278e+01   1.635895e+02
  -1.186028e+02   1.290326e+02
  -1.463673e+02  -5.007048e+01
   1.920579e+01  -1.378824e+02
   1.716976e+02  -2.997348e+01
   1.501117e+02   2.221402e+02
  -2.220992e+00   3.320976e+02
  -2.464988e+02   2.076794e+02
  -3.288338e+02  -5.293995e+01
  -2.568785e+02  -2.244173e+02
  -8.083598e+01  -2.625050e+02
   1.221934e+02  -1.347022e+02
   1.436460e+02  -8.901087e+00
   4.060376e+01   2.155181e+01
  -5.724873e+01  -4.868926e+01
  -1.360574e+01  -1.106829e+02
   1.169680e+02  -8.187907e+01
   1.502086e+02   7.749524e+00
   3.228449e+01   6.304824e+01
  -7.215405e+01  -7.775275e-01
  -4.035636e+01  -7.668770e+01
   1.361372e+02  -8.158959e+01
   2.840381e+02   1.058915e+01
   2.515926e+02   1.462335e+02
   3.722210e+01   2.504029e+02
  -1.742007e+02   2.473054e+02
  -2.559183e+02   1.106252e+02
  -1.435493e+02  -4.080225e+01
   3.029109e+01  -9.128544e+01
   6.588310e+01   8.761034e-01
  -3.832066e+01   7.871689e+01
  -1.760132e+02   4.181901e+01
  -1.947654e+02  -1.034328e+02
  -6.390516e+01  -1.891478e+02
   9.198180e+01  -1.419867e+02
   1.252657e+02  -3.304265e+01
   5.339597e+01   4.160915e+01
  -3.895454e+01  -1.098937e+01
  -3.047351e+01  -9.268212e+01
   8.545434e+01  -1.179767e+02
   1.919172e+02  -2.556855e+01
   1.768108e+02   1.370908e+02
   9.508886e+00   1.977925e+02
  -1.551570e+02   1.446574e+02
  -1.664353e+02  -5.621794e+00
  -6.099480e+01  -9.135355e+01
   5.748440e+01  -1.029084e+02
   7.426020e+01  -2.962349e+01
   5.686910e+00   2.784435e+01
  -2.934668e+01   1.064914e+01
   1.000248e+01  -1.959239e+01
   7.712480e+01   2.672529e+00
   1.032650e+02   8.659446e+01
   1.007953e+01   1.638783e+02
  -1.380535e+02   1.459655e+02
  -2.193005e+02   2.657832e+01
  -1.839349e+02  -1.502918e+02
  -3.341157e+01  -2.251755e+02
   9.145263e+01  -1.557420e+02
   1.267119e+02  -3.012583e+01
   7.098076e+01   4.081304e+01
   3.074890e+01   2.919123e+01
   5.263151e+01  -1.046405e+01
   8.288308e+01  -6.044715e+00
   5.398067e+01   4.793594e+01
  -3.741254e+01   9.127443e+01
  -1.145740e+02   6.450048e+01
  -9.608612e+01  -4.306460e+01
   1.145235e+01  -1.155769e+02
   1.453041e+02  -8.702113e+01
   1.952208e+02   5.892648e+01
   1.031924e+02   1.983293e+02
  -1.108809e+02   2.132379e+02
  -2.595091e+02   8.275084e+01
  -2.476395e+02  -8.388743e+01
  -9.638640e+01  -1.651488e+02
   4.004834e+01  -1.316887e+02
   7.886458e+01  -7.987491e+01
   7.120249e+01  -7.054930e+01
   5.333893e+01  -9.038193e+01
   8.582465e+01  -7.379535e+01
   1.283848e+02   1.592384e+01
   1.025560e+02   1.556773e+02
   2.709052e+01   2.187572e+02
  -8.994808e+01   1.692241e+02
  -1.676325e+02   2.741867e+01
  -1.197805e+02  -1.123442e+02
  -2.358883e+01  -1.460285e+02
   6.433580e+01  -8.748801e+01
   6.238246e+01   1.232623e+01
  -3.541029e+00   4.844349e+01
  -2.137259e+01   3.651187e+01
   2.934372e+01   1.099575e+01
   8.195064e+01   2.463036e+01
   4.897582e+01   3.864386e+01
  -6.895066e+01   3.671781e+01
  -1.603733e+02  -5.286844e+00
  -1.384268e+02  -4.959585e+01
  -4.883019e+00  -8.476449e+01
   1.241360e+02  -7.323024e+01
   1.384823e+02  -1.855521e+01
   4.201655e+01   4.541838e+01
  -5.836706e+01   4.040738e+01
  -7.614654e+01  -1.761564e+01
  -1.737352e+01  -7.010831e+01
   4.406076e+01  -6.202617e+01
   6.307316e+01  -3.005636e+00
   4.846504e+01   5.414817e+01
   4.755906e+01   4.171892e+01
   5.441160e+01   7.660723e-01
   6.279013e+01   1.783338e+00
   4.007796e+01   6.819619e+01
  -3.549069e+01   1.440822e+02
  -1.214537e+02   1.441288e+02
  -1.677057e+02   3.856548e+01
  -1.201283e+02  -9.314948e+01
  -2.310648e+00  -1.213033e+02
   8.890435e+01  -6.898858e+01
   5.947890e+01   1.178340e+01
  -5.453051e+01   1.955086e+01
  -1.316854e+02  -4.036320e+01
  -7.506267e+01  -1.062274e+02
   7.183958e+01  -1.048497e+02
   1.882722e+02  -4.652091e+01
   1.480305e+02   3.860574e+01
   3.048917e+01   8.128372e+01
  -5.667433e+01   6.143477e+01
  -4.821523e+01   2.413602e+00
   3.861075e+01  -2.930736e+01
   9.008138e+01   1.724961e+01
   3.060653e+01   1.116925e+02
  -7.679501e+01   1.439138e+02
  -1.548946e+02   7.366431e+01
  -1.258916e+02  -9.272055e+01
  -7.352668e+00  -1.873675e+02
   9.158466e+01  -1.358644e+02
   9.796598e+01   9.912001e+00
   6.058277e+01   1.095036e+02
  -6.748223e+00   1.024800e+02
  -4.738552e+01   1.705349e+01
  -4.428071e+01  -3.532963e+01
  -1.790752e+01  -8.218059e+00
  -3.059316e+00   1.746083e+01
  -2.826920e+01  -1.715447e+01
  -6.029148e+01  -8.684268e+01
  -4.685859e+01  -1.012338e+02
   4.681804e+01  -3.870604e+01
   1.367568e+02   3.365886e+01
   1.164238e+02   6.817626e+01
   1.494822e+01   4.855610e+01
  -8.363216e+01   2.666383e+01
  -8.510077e+01   5.539286e+00
  -1.285376e+01  -8.834063e+00
   3.585870e+01  -1.876430e+01
   1.828715e+01  -1.559083e+01
  -1.639889e+01   1.996951e+00
   4.613231e+00   6.275235e+00
   6.581797e+01  -2.387752e-01
   8.981341e+01   2.183675e+01
   1.635023e+01   7.838913e+01
  -1.106110e+02   1.101812e+02
  -1.723482e+02   7.254791e+01
  -1.461340e+02  -5.087891e+01
  -2.620640e+01  -1.451285e+02
   7.361964e+01  -1.564560e+02
   1.121582e+02  -6.462005e+01
   7.702517e+01   2.063203e+01
   2.605215e+01   3.687876e+01
  -4.320402e-02   1.191760e+01
   1.285446e+01   6.934973e+00
   3.077407e+01   4.808194e+01
   2.018764e+01   8.428439e+01
  -2.852412e+01   6.984548e+01
  -7.912210e+01  -1.326356e+01
  -7.439079e+01  -9.749006e+01
  -1.538424e+01  -1.107071e+02
   7.484699e+01  -3.233735e+01
   1.012597e+02   6.348564e+01
   3.326596e+01   9.826328e+01
  -5.935964e+01   6.343425e+01
  -9.749182e+01  -8.964686e+00
  -4.148013e+01  -5.601622e+01
   3.168552e+01  -5.995603e+01
   3.367394e+01  -2.901090e+01
  -2.549982e+01   3.946470e+00
  -6.402873e+01   9.125876e+00
  -1.725816e+01  -2.491594e+01
   7.355144e+01  -6.784567e+01
   1.186779e+02  -5.187217e+01
   6.721434e+01   1.940112e+01
  -1.081957e+01   8.164551e+01
  -5.292748e+01   7.820138e+01
  -3.995873e+01   1.108198e+01
  -5.266088e+00  -5.092163e+01
   2.539587e+01  -4.419980e+01
   3.767454e+01   9.282516e+00
   2.943828e+01   5.239252e+01
  -2.456507e+00   3.374981e+01
  -3.134916e+01  -3.676077e+00
  -4.047970e+01  -2.219165e+01
  -1.964135e+01  -4.057601e+00
   1.804501e+00   1.763215e+01
   6.190961e+00   3.086925e+00
  -2.083969e+00  -3.132300e+01
   5.115780e+00  -4.746092e+01
   2.873349e+01  -1.556645e+01
   4.166490e+01   3.432875e+01
   7.935955e+00   5.784873e+01
  -3.999836e+01   2.228034e+01
  -5.791188e+01  -3.658805e+01
  -1.821698e+01  -6.013834e+01
   5.210228e+01  -3.455048e+01
   8.811000e+01   1.193422e+01
   4.887208e+01   4.299478e+01
  -2.922854e+01   4.076500e+01
  -6.300091e+01   2.590575e+01
  -2.699699e+01   5.772815e+00
   2.856242e+01  -3.066150e+00
   3.349210e+01   7.401191e+00
  -2.344171e+01   2.642411e+01
  -7.731805e+01   2.538264e+01
