
 $NMID
 id='ANONYMOUS ', fmtdat='(2E16.6)'
 volume=1.0
 tramp=1.0
 $END
   2.466186e+03  -2.929530e+02
   1.624468e+03   1.089018e+03
   2.878344e+02   1.399158e+03
  -8.163763e+02   9.717262e+02
  -8.062241e+02   3.052260e+02
   8.934589e+00  -1.391190e+02
   2.542058e+02   1.052123e+02
   1.059366e+02   3.743852e+02
  -2.789467e+02   4.628480e+02
  -4.237907e+02   1.701847e+02
  -3.309527e+02  -3.717527e+02
  -3.254916e-01  -5.037652e+02
   2.085636e+02  -1.291297e+02
   2.631112e+02   2.911863e+02
  -4.885214e+01   3.924931e+02
  -2.958275e+02   6.763586e+01
  -2.273524e+02  -3.346201e+02
   7.972912e+01  -4.758394e+02
   2.883037e+02  -2.243041e+02
   3.692238e+02   1.375105e+02
   1.011630e+02   2.499483e+02
  -8.041069e+01   1.818940e+02
  -4.160517e+01   7.472311e+01
   9.353240e+01   4.681900e+01
   1.173797e+02   2.006560e+02
   3.809209e+01   2.300143e+02
  -3.086231e+02   8.108029e+01
  -3.710944e+02  -1.028729e+02
  -2.179751e+02  -3.011494e+02
   2.434907e+02  -1.675898e+02
   3.997393e+02   6.607330e+01
   1.270418e+02   2.342370e+02
  -1.443835e+02   2.509693e+02
  -3.382596e+02   1.001376e+02
  -2.705268e+02  -1.358804e+02
  -9.361688e+01  -1.877881e+02
   3.542728e+01  -1.430564e+02
  -1.636468e+01   5.276108e+01
  -7.882128e+01   6.408556e+01
  -1.732490e+02  -2.363349e+01
  -9.825208e+01  -3.654631e+02
   2.049048e+02  -3.761601e+02
   1.875449e+02  -3.255797e+01
   6.335450e+01   1.336895e+02
  -3.849805e+01   5.626420e+01
  -1.391474e+02  -1.256156e+02
   8.291644e+01  -2.124592e+02
   3.227540e+02  -6.048683e+01
   3.309114e+02   2.141972e+02
   1.022450e+02   3.449030e+02
  -2.038886e+02   1.959084e+02
  -3.299266e+02   1.776817e+00
  -2.896801e+02  -1.992260e+02
   4.049238e+01  -1.863751e+02
   2.040759e+02  -5.400551e+01
   1.567917e+02   5.403911e+00
   1.800185e+01   2.894331e+01
  -3.222480e+01  -2.601620e+01
   6.175098e+01  -8.302261e+01
   1.497874e+02  -6.575610e+00
   1.051939e+02   1.045262e+02
  -8.228856e+01   1.800674e+02
  -2.404409e+02   9.844941e+01
  -2.061359e+02  -7.878303e+01
   1.408219e+01  -2.347923e+02
   2.039532e+02  -2.433214e+02
   2.509204e+02  -1.032524e+02
   1.344883e+02   9.452778e+01
   3.814410e+01   2.418063e+02
  -1.849572e+01   2.245139e+02
   3.958248e-01   1.394703e+02
  -3.271869e+01   6.228097e+01
  -8.804370e+01   7.408683e+01
  -1.751647e+02   1.370987e+01
  -1.675036e+02  -1.017958e+02
  -6.471907e+01  -1.832242e+02
   6.140744e+01  -1.485837e+02
   1.277290e+02   3.812471e+01
   1.033320e+02   1.746273e+02
  -2.355248e+01   1.668388e+02
  -1.846072e+02   4.770624e+01
  -2.290601e+02  -1.054506e+02
  -1.181618e+02  -2.040742e+02
   2.248621e+01  -2.050161e+02
   1.366715e+02  -1.135883e+02
   1.189692e+02  -4.895910e+01
   1.080719e+02  -4.495190e+01
   1.932973e+02  -1.880964e+01
   2.903113e+02   5.501290e+01
   2.295034e+02   2.181205e+02
  -3.594708e+01   3.264525e+02
  -2.732769e+02   2.696423e+02
  -3.431377e+02   1.045443e+02
  -2.149397e+02  -7.486602e+01
  -1.406932e+01  -1.964951e+02
   5.580529e+01  -1.463807e+02
   2.042406e+01  -2.442240e+01
  -7.855241e+01   3.280432e+01
  -9.909913e+01  -1.602672e+01
  -4.494633e+00  -8.976024e+01
   6.105727e+01  -7.150587e+01
   9.284664e+01   3.189448e+01
  -9.977572e+00   1.019218e+02
  -1.027586e+02   5.581638e+00
  -1.053020e+02  -1.529732e+02
   1.682632e+01  -2.527639e+02
   1.789737e+02  -1.436817e+02
   2.591539e+02   5.153784e+01
   1.985605e+02   1.752400e+02
   3.484379e+01   1.818421e+02
  -9.203480e+01   1.049790e+02
  -1.093945e+02   5.279378e+00
  -2.139211e+01  -4.035542e+00
   3.416059e+01   4.096408e+01
  -5.903204e+00   7.702074e+01
  -8.865717e+01   4.354817e+01
  -1.045322e+02  -1.532649e+01
  -2.067853e+01  -3.274028e+01
   5.927962e+01   1.558056e+01
   2.498437e+01   6.741772e+01
  -1.062593e+02   6.590902e+01
  -1.984098e+02  -1.334977e+01
  -1.912691e+02  -1.153655e+02
  -3.108120e+01  -1.892464e+02
   1.382923e+02  -1.671962e+02
   1.745503e+02  -6.369985e+01
   8.278689e+01   1.958335e+01
  -1.455257e+01   5.110277e+01
  -4.027968e+01  -5.354016e+00
   3.484959e+01  -5.432044e+01
   1.269097e+02  -1.169005e+01
   1.364040e+02   7.724641e+01
   4.434938e+01   1.377732e+02
  -5.797752e+01   9.015079e+01
  -8.337171e+01   1.625692e+01
  -2.561869e+01  -2.274424e+01
   3.246658e+01   1.851962e+01
   1.794675e+01   7.882087e+01
  -7.334494e+01   8.735874e+01
  -1.583123e+02   6.473093e+00
  -1.357966e+02  -1.046033e+02
  -2.830804e+00  -1.513042e+02
   9.695935e+01  -9.131990e+01
   1.117457e+02  -8.502431e+00
   3.595348e+01   6.109050e+01
  -4.450340e+01   6.058759e+01
  -4.828535e+01   1.731128e+01
  -1.593046e+00  -1.858307e+01
   2.486251e+01  -8.696782e+00
  -6.101445e+00   2.152738e+01
  -6.349010e+01   2.512871e+00
  -7.028395e+01  -6.355593e+01
  -1.144288e+01  -1.332989e+02
   1.027697e+02  -9.797346e+01
   1.604936e+02  -1.945966e+00
   1.367345e+02   1.122080e+02
   2.975820e+01   1.643176e+02
  -6.508195e+01   1.026925e+02
  -8.664266e+01   1.981459e+01
  -5.360474e+01  -3.092448e+01
  -2.492060e+01  -2.105559e+01
  -4.192780e+01   9.841638e+00
  -6.193045e+01   7.961102e+00
  -4.175397e+01  -4.155717e+01
   2.816750e+01  -7.950199e+01
   8.493753e+01  -5.276306e+01
   7.806459e+01   3.330771e+01
  -1.316713e+01   8.962734e+01
  -1.216320e+02   7.023772e+01
  -1.472906e+02  -4.999739e+01
  -5.384687e+01  -1.569373e+02
   8.416164e+01  -1.528636e+02
   1.834293e+02  -6.874238e+01
   1.734859e+02   6.638121e+01
   7.309556e+01   1.157192e+02
  -3.354506e+01   9.185186e+01
  -6.149494e+01   6.101817e+01
  -4.392203e+01   5.319813e+01
  -4.299007e+01   7.268583e+01
  -6.838869e+01   6.088728e+01
  -8.902876e+01  -1.027584e+01
  -9.459476e+01  -1.110187e+02
  -1.464569e+01  -1.665229e+02
   6.213936e+01  -1.135180e+02
   1.269563e+02  -7.781823e+00
   8.681817e+01   8.520596e+01
   7.906112e+00   1.087120e+02
  -5.463109e+01   5.358432e+01
  -4.225797e+01  -1.155265e+01
   4.650544e+00  -3.863471e+01
   2.177282e+01  -2.277058e+01
  -1.747846e+01  -6.541585e+00
  -5.958064e+01  -1.422409e+01
  -3.644036e+01  -2.720899e+01
   5.285959e+01  -2.826944e+01
   1.240938e+02   6.801185e+00
   1.046183e+02   5.373302e+01
   2.454323e-01   6.952571e+01
  -9.905525e+01   5.629877e+01
  -1.009697e+02  -3.580802e-01
  -3.029580e+01  -3.525048e+01
   4.429331e+01  -2.940780e+01
   5.320617e+01   9.375934e+00
   1.535425e+01   4.929117e+01
  -3.281779e+01   4.736505e+01
  -4.613783e+01   1.220806e-01
  -4.406120e+01  -3.635593e+01
  -2.844531e+01  -2.940260e+01
  -3.866317e+01  -9.016433e-01
  -4.125732e+01  -1.392025e+00
  -3.468136e+01  -5.354472e+01
   1.660571e+01  -1.027989e+02
   9.239575e+01  -1.132560e+02
   1.359918e+02  -2.524606e+01
   9.949888e+01   6.648192e+01
   2.976512e+00   8.699008e+01
  -6.679303e+01   4.876661e+01
  -4.532982e+01  -6.342437e+00
   4.444158e+01  -1.728699e+01
   9.229905e+01   2.604839e+01
   5.282678e+01   6.756961e+01
  -5.643420e+01   7.258060e+01
  -1.461963e+02   3.540351e+01
  -1.105147e+02  -2.771151e+01
  -2.414891e+01  -5.733330e+01
   4.672222e+01  -3.965878e+01
   3.488255e+01   4.607851e-01
  -2.810927e+01   2.098553e+01
  -5.964452e+01  -1.232718e+01
  -3.179221e+01  -7.825924e+01
   6.325414e+01  -1.180897e+02
   1.047065e+02  -4.681712e+01
   9.642548e+01   6.301692e+01
   1.944807e+01   1.277475e+02
  -4.782811e+01   9.938458e+01
  -6.907567e+01  -6.513465e+00
  -3.979606e+01  -8.224329e+01
   1.006444e+01  -7.335234e+01
   3.450199e+01  -1.124094e+01
   3.080350e+01   2.190274e+01
   1.130667e+01   4.064432e+00
   4.502935e+00  -1.295240e+01
   2.251941e+01   1.811374e+01
   3.887485e+01   6.080568e+01
   2.446702e+01   6.995485e+01
  -3.771665e+01   2.885704e+01
  -9.922048e+01  -2.522179e+01
  -8.080380e+01  -4.703064e+01
  -1.357612e+01  -3.900758e+01
   5.636190e+01  -1.649385e+01
   5.721123e+01  -1.365516e+00
   1.175983e+01   9.226400e+00
  -2.316605e+01   1.701363e+01
  -1.449420e+01   8.891891e+00
   1.058291e+01  -3.612588e+00
  -2.191951e+00  -4.234767e+00
  -5.010571e+01   2.853784e+00
  -6.431959e+01  -1.290744e+01
  -2.047370e+01  -6.193660e+01
   6.999303e+01  -8.227813e+01
   1.280999e+02  -4.503342e+01
   1.205073e+02   4.188426e+01
   1.844808e+01   1.098629e+02
  -5.312859e+01   1.201169e+02
  -8.331527e+01   4.613729e+01
  -5.681753e+01  -1.709765e+01
  -1.828794e+01  -2.650983e+01
  -2.450502e+00  -8.900526e+00
  -1.045802e+01  -6.208005e+00
  -2.229737e+01  -3.453737e+01
  -1.852917e+01  -6.264616e+01
   2.082956e+01  -5.589520e+01
   5.843476e+01   8.282864e+00
   5.493719e+01   7.193204e+01
   9.722531e+00   8.308655e+01
  -5.415029e+01   2.368072e+01
  -7.770958e+01  -3.495705e+01
  -3.003848e+01  -7.048234e+01
   4.994533e+01  -4.949535e+01
   7.097334e+01  -1.379617e+00
   3.506779e+01   3.998291e+01
  -2.663339e+01   4.550785e+01
  -2.631388e+01   1.896007e+01
   1.545162e+01  -5.388575e+00
   4.874349e+01  -9.215753e+00
   1.336930e+01   2.039155e+01
  -5.480836e+01   4.816271e+01
  -8.076541e+01   3.798998e+01
  -5.393986e+01  -1.173205e+01
   7.476954e+00  -6.382414e+01
   3.774818e+01  -5.779500e+01
   3.155965e+01  -8.803859e+00
   6.726229e+00   3.812233e+01
  -1.648921e+01   3.258671e+01
  -2.466413e+01  -5.085551e+00
  -2.442911e+01  -3.744783e+01
  -1.216159e+00  -3.015620e+01
   2.537709e+01   2.894728e+00
   3.096358e+01   2.042534e+01
   1.397628e+01   2.830057e+00
  -2.250947e+00  -1.281455e+01
  -3.170725e+00  -4.891881e+00
   8.980231e+00   2.060063e+01
   4.078389e+00   4.174797e+01
  -1.919276e+01   1.768332e+01
  -2.966310e+01  -2.143240e+01
  -1.571141e+01  -4.603409e+01
   2.916190e+01  -1.810191e+01
   4.519619e+01   2.211086e+01
   1.830067e+01   4.136473e+01
  -3.841233e+01   2.543405e+01
  -6.646906e+01  -6.564460e+00
  -3.707562e+01  -2.723772e+01
   1.915692e+01  -3.398155e+01
   4.727874e+01  -2.253865e+01
   1.781524e+01  -3.993727e+00
  -1.801527e+01   1.860293e+00
  -2.534929e+01  -2.427214e+00
   1.803627e+01  -2.305318e+01
   6.372611e+01  -1.880723e+01
