
 $NMID
 id='ANONYMOUS ', fmtdat='(2E16.6)'
 volume=1.0
 tramp=1.0
 $END
   2.725103e+03   3.058622e+02
   1.372814e+03   1.195381e+03
   1.674017e+01   1.464722e+03
  -1.070999e+03   8.689247e+02
  -6.499912e+02   2.365120e+02
  -8.516499e+01  -1.486557e+02
   3.223562e+02   1.409865e+02
   2.568225e+01   4.078567e+02
  -3.426780e+02   3.663846e+02
  -4.776166e+02   4.091755e+01
  -3.417590e+02  -4.158410e+02
  -2.754201e+01  -5.395414e+02
   2.370732e+02  -1.183473e+02
   1.681560e+02   3.251107e+02
  -1.079094e+02   4.044129e+02
  -2.613593e+02   4.824632e+01
  -2.481952e+02  -3.603592e+02
   9.723261e+01  -4.246572e+02
   3.072077e+02  -1.712401e+02
   3.539760e+02   1.374488e+02
   8.720313e+01   2.594706e+02
  -5.850798e+01   1.912475e+02
  -5.330780e+01   5.800543e+01
   1.213597e+02   6.224293e+01
   1.593731e+02   2.408115e+02
  -5.307109e+01   2.547149e+02
  -3.382877e+02   7.782137e+01
  -4.147127e+02  -2.236497e+02
  -1.937974e+02  -2.464076e+02
   2.303896e+02  -1.271940e+02
   4.071844e+02   7.298812e+01
   1.314859e+02   2.952326e+02
  -2.394740e+02   2.508281e+02
  -4.019205e+02   1.210449e+02
  -2.279770e+02  -1.383336e+02
  -3.838443e+01  -2.589709e+02
   5.242511e+01  -1.685631e+02
   4.082293e+00   6.535442e+01
  -1.420994e+02   7.600184e+01
  -1.240563e+02  -9.387030e+01
  -3.449632e+01  -4.430595e+02
   2.151231e+02  -3.852067e+02
   2.689207e+02   4.583297e+01
   8.487700e+01   1.942357e+02
  -1.127010e+02   8.622731e+01
  -5.374624e+01  -2.225262e+02
   8.970659e+01  -2.450035e+02
   3.643071e+02  -4.172931e+01
   3.200871e+02   2.731080e+02
   1.228223e+02   3.417569e+02
  -2.206236e+02   1.839500e+02
  -3.498060e+02  -7.974512e+01
  -2.428893e+02  -2.290035e+02
   2.137027e+01  -1.753498e+02
   2.173050e+02  -6.087328e+01
   1.575031e+02   2.990364e+00
   6.168755e+00  -4.654405e-01
  -1.522380e+01  -4.133183e+01
   8.436797e+01  -5.094651e+01
   1.490757e+02   5.786830e+01
   7.789819e+01   1.393417e+02
  -1.226011e+02   1.594650e+02
  -2.567363e+02   9.534598e+01
  -2.178195e+02  -7.523397e+01
   3.053996e+01  -2.321626e+02
   2.109100e+02  -2.625669e+02
   2.766351e+02  -9.599179e+01
   1.488280e+02   1.314171e+02
   3.398075e+01   2.625588e+02
  -5.691408e+01   2.407687e+02
  -2.142988e+01   1.345103e+02
  -3.369338e+01   9.511579e+01
  -9.617504e+01   9.723094e+01
  -1.883259e+02   2.082150e+01
  -1.786368e+02  -1.117106e+02
  -5.228261e+01  -1.980375e+02
   8.490542e+01  -1.510124e+02
   1.435247e+02   4.002057e+01
   1.243021e+02   1.850883e+02
  -5.027322e+01   1.923273e+02
  -1.888413e+02   4.506408e+01
  -2.179527e+02  -1.349881e+02
  -1.312175e+02  -2.228300e+02
   2.854117e+01  -1.805152e+02
   1.390258e+02  -1.156622e+02
   1.023586e+02  -5.133578e+01
   1.155895e+02  -5.538303e+01
   2.157277e+02  -3.317456e+01
   3.137042e+02   1.018049e+02
   2.372051e+02   2.364670e+02
  -2.790298e+01   3.435723e+02
  -3.026946e+02   2.909219e+02
  -3.435412e+02   1.292972e+02
  -2.219163e+02  -8.434713e+01
  -3.995217e+00  -1.846730e+02
   7.902741e+01  -1.246846e+02
   4.323004e+00  -2.430484e+01
  -8.230575e+01   2.572426e+01
  -9.736080e+01  -3.563044e+01
   4.657732e-01  -1.038179e+02
   9.515415e+01  -6.822324e+01
   7.050377e+01   4.197501e+01
  -4.323628e+01   1.080699e+02
  -1.176036e+02   1.465496e+00
  -9.867501e+01  -1.679004e+02
   1.681605e+01  -2.803197e+02
   1.739100e+02  -1.606206e+02
   2.697639e+02   4.466249e+01
   2.142465e+02   1.912193e+02
   3.347419e+01   1.941723e+02
  -9.770694e+01   1.132879e+02
  -1.104642e+02  -3.574179e+00
  -1.235514e+01  -4.799200e+00
   3.805088e+01   5.578407e+01
  -4.787284e+00   8.630852e+01
  -1.027027e+02   4.124476e+01
  -1.076729e+02  -2.681867e+01
  -2.072436e+01  -4.136660e+01
   6.579985e+01   1.370547e+01
   2.347020e+01   7.536174e+01
  -1.193396e+02   6.692766e+01
  -2.212045e+02  -2.898371e+01
  -1.941443e+02  -1.448460e+02
  -3.827376e+00  -2.159928e+02
   1.673667e+02  -1.846004e+02
   1.849695e+02  -6.169523e+01
   8.376827e+01   4.005868e+01
  -3.227005e+01   4.724247e+01
  -4.579676e+01  -4.807687e-01
   4.635461e+01  -6.184912e+01
   1.400621e+02  -2.488398e+01
   1.475147e+02   9.233118e+01
   4.702635e+01   1.510372e+02
  -7.036908e+01   9.458543e+01
  -9.479121e+01   4.937164e+00
  -2.332715e+01  -2.340492e+01
   3.417428e+01   1.569220e+01
   1.938947e+01   8.918779e+01
  -7.952228e+01   8.793316e+01
  -1.629843e+02   1.039572e+01
  -1.386571e+02  -1.034480e+02
  -3.967836e+00  -1.625302e+02
   1.091523e+02  -1.005078e+02
   1.217714e+02  -8.049615e+00
   3.859936e+01   6.307190e+01
  -4.433265e+01   6.674531e+01
  -5.629358e+01   1.451212e+01
   1.380067e+00  -2.039670e+01
   3.112767e+01  -1.025599e+01
  -7.702935e+00   2.172251e+01
  -7.195460e+01   2.797772e+00
  -7.433196e+01  -7.031255e+01
   2.137868e+00  -1.414704e+02
   1.043575e+02  -1.115992e+02
   1.769495e+02  -3.807712e+00
   1.487813e+02   1.145454e+02
   2.059217e+01   1.786761e+02
  -7.173313e+01   1.118341e+02
  -8.697653e+01   1.842558e+01
  -5.222596e+01  -3.144094e+01
  -2.411678e+01  -2.141628e+01
  -4.423382e+01   1.199709e+01
  -6.451162e+01   3.762018e+00
  -4.684612e+01  -4.371620e+01
   3.491098e+01  -7.854667e+01
   9.882995e+01  -5.090545e+01
   8.128208e+01   3.554705e+01
  -1.625985e+01   9.456314e+01
  -1.375209e+02   6.705397e+01
  -1.596801e+02  -5.647025e+01
  -5.827249e+01  -1.646600e+02
   9.498187e+01  -1.638521e+02
   2.042258e+02  -4.244506e+01
   1.718597e+02   8.444069e+01
   7.646191e+01   1.290573e+02
  -2.416839e+01   9.985497e+01
  -7.105270e+01   5.752029e+01
  -5.106655e+01   4.576281e+01
  -4.733636e+01   7.707963e+01
  -7.283768e+01   6.259095e+01
  -8.959741e+01  -1.745290e+01
  -8.837586e+01  -1.142366e+02
  -1.592612e+01  -1.734416e+02
   7.822818e+01  -1.137280e+02
   1.267126e+02  -3.852418e+00
   8.960097e+01   9.710765e+01
   2.519684e+00   1.170011e+02
  -5.573426e+01   5.599408e+01
  -4.869902e+01  -1.588183e+01
   6.425178e+00  -4.489381e+01
   2.336033e+01  -2.533664e+01
  -1.633604e+01  -7.798278e+00
  -6.413593e+01  -1.201121e+01
  -3.614701e+01  -3.141862e+01
   5.790948e+01  -2.872163e+01
   1.365854e+02   1.645233e+00
   1.153636e+02   5.307377e+01
  -2.386699e+00   7.735529e+01
  -1.055313e+02   5.327286e+01
  -1.090554e+02   7.554012e+00
  -2.952413e+01  -4.004295e+01
   4.391223e+01  -3.204404e+01
   5.860274e+01   1.376187e+01
   1.945167e+01   5.764487e+01
  -3.213284e+01   4.962077e+01
  -5.003372e+01   1.968127e+00
  -4.375954e+01  -3.766724e+01
  -3.341276e+01  -2.887203e+01
  -4.013846e+01  -3.387852e+00
  -4.819511e+01   3.572374e-01
  -3.100852e+01  -5.813698e+01
   2.088583e+01  -1.101623e+02
   1.041968e+02  -1.091600e+02
   1.431136e+02  -2.199468e+01
   9.893916e+01   7.892524e+01
  -2.061388e+00   9.915137e+01
  -7.215439e+01   5.027511e+01
  -4.541479e+01  -7.319326e+00
   4.634868e+01  -1.614651e+01
   9.709732e+01   3.321415e+01
   4.693680e+01   7.937104e+01
  -6.590870e+01   7.482692e+01
  -1.516192e+02   3.091080e+01
  -1.137962e+02  -3.874907e+01
  -2.134909e+01  -6.416837e+01
   5.003142e+01  -4.449868e+01
   3.620196e+01   3.053572e+00
  -2.981533e+01   2.179583e+01
  -6.406466e+01  -1.595491e+01
  -2.957814e+01  -8.213283e+01
   5.799274e+01  -1.260826e+02
   1.087225e+02  -5.432606e+01
   9.496953e+01   7.664115e+01
   2.799158e+00   1.379283e+02
  -6.630201e+01   9.318181e+01
  -7.203971e+01  -1.178669e+01
  -3.500400e+01  -9.000584e+01
   1.191365e+01  -7.970426e+01
   3.871221e+01  -7.756700e+00
   3.360126e+01   2.417469e+01
   1.167236e+01   6.320930e+00
   5.006492e+00  -1.533017e+01
   2.681961e+01   1.661589e+01
   3.984205e+01   6.671926e+01
   1.689518e+01   7.528317e+01
  -4.260085e+01   2.956452e+01
  -1.017609e+02  -3.162259e+01
  -9.039295e+01  -5.213889e+01
  -1.367993e+01  -3.950287e+01
   5.975226e+01  -1.912798e+01
   6.187983e+01  -5.656531e+00
   1.316014e+01   1.037872e+01
  -2.461392e+01   1.348246e+01
  -1.648877e+01   9.223544e+00
   8.923446e+00  -3.035948e+00
  -2.365167e+00  -3.128645e+00
  -4.942851e+01   1.177106e+00
  -6.910924e+01  -1.842905e+01
  -1.759485e+01  -6.171449e+01
   8.877709e+01  -8.840389e+01
   1.367393e+02  -4.611248e+01
   1.201251e+02   5.278441e+01
   3.107905e+01   1.227943e+02
  -6.121044e+01   1.235916e+02
  -8.695168e+01   4.477978e+01
  -6.362077e+01  -1.317699e+01
  -1.799010e+01  -2.759263e+01
  -3.096988e+00  -1.033268e+01
  -1.185738e+01  -7.018357e+00
  -2.210835e+01  -3.685883e+01
  -1.018060e+01  -6.821835e+01
   2.456648e+01  -5.694821e+01
   5.583627e+01   1.529349e+01
   6.114572e+01   7.350258e+01
   7.818837e+00   8.658423e+01
  -5.253450e+01   2.233998e+01
  -7.868803e+01  -5.407385e+01
  -3.280495e+01  -7.862204e+01
   5.284868e+01  -5.306851e+01
   7.418165e+01   1.052131e+01
   3.511617e+01   4.585116e+01
  -2.533010e+01   4.982810e+01
  -3.169072e+01   2.107555e+01
   1.850181e+01  -4.057957e+00
   5.177575e+01  -6.691502e+00
   1.362385e+01   1.989415e+01
  -6.139440e+01   5.021861e+01
  -8.836140e+01   3.558427e+01
  -5.593232e+01  -1.312238e+01
   1.375846e+01  -6.427201e+01
   4.418497e+01  -5.869889e+01
   3.598854e+01  -1.274744e+01
   7.815650e+00   3.980515e+01
  -1.677546e+01   3.594379e+01
  -2.670224e+01  -4.368549e+00
  -1.762496e+01  -4.119783e+01
  -5.608433e-01  -3.278084e+01
   2.473199e+01   3.278466e+00
   3.385308e+01   2.092589e+01
   1.617327e+01   5.157306e+00
  -3.262001e+00  -1.405031e+01
  -4.439649e+00  -8.554472e+00
   5.037830e+00   2.322124e+01
   4.190600e+00   3.851145e+01
  -2.129583e+01   1.637241e+01
  -3.117541e+01  -2.515687e+01
  -1.040250e+01  -4.330834e+01
   2.897618e+01  -1.824645e+01
   4.886228e+01   2.725536e+01
   1.501582e+01   4.399494e+01
  -4.139150e+01   2.611208e+01
  -6.901658e+01  -1.021057e+01
  -3.846723e+01  -3.241743e+01
   2.245133e+01  -3.447389e+01
   5.134625e+01  -2.205344e+01
   1.991343e+01  -4.512128e+00
  -1.772847e+01   3.629837e+00
  -2.419054e+01  -4.552859e+00
   1.880455e+01  -1.930095e+01
   6.303213e+01  -1.110649e+01
