
 $NMID
 id='ANONYMOUS ', fmtdat='(2E16.6)'
 volume=1.0
 tramp=1.0
 $END
   3.477136e+03   7.591875e+01
   1.868945e+03   1.735422e+03
  -9.301235e+01   2.083002e+03
  -1.574196e+03   9.928597e+02
  -7.938039e+02   2.811655e+01
   3.538056e+01  -3.924449e+02
   5.865052e+02   2.130588e+02
   4.236072e+00   6.529423e+02
  -5.640843e+02   5.609752e+02
  -6.221017e+02   3.326060e+01
  -4.144177e+02  -5.185700e+02
   1.336143e+01  -5.966570e+02
   3.410421e+02  -1.490129e+02
   2.261845e+02   4.458737e+02
  -1.157191e+02   5.240280e+02
  -3.952465e+02   7.287312e+01
  -2.743155e+02  -4.318968e+02
   2.251719e+02  -5.134636e+02
   4.182075e+02  -1.431672e+02
   3.403433e+02   2.320219e+02
   7.989955e+01   3.499405e+02
  -1.470923e+02   2.462112e+02
  -8.095548e+01   5.446859e+01
   1.115096e+02  -1.580008e+01
   2.708581e+02   1.761790e+02
   4.567321e+01   3.427962e+02
  -3.977156e+02   1.528263e+02
  -5.134506e+02  -1.318034e+02
  -2.939903e+02  -3.531488e+02
   2.689919e+02  -2.129614e+02
   5.104572e+02   6.204256e+01
   1.835812e+02   3.336516e+02
  -2.333592e+02   3.509046e+02
  -4.433294e+02   1.521689e+02
  -2.828651e+02  -1.526508e+02
  -7.212575e+01  -2.889035e+02
   8.730962e+01  -2.439964e+02
   6.991567e+01   1.141572e+02
  -1.422424e+02   1.411135e+02
  -2.492897e+02  -4.320305e+01
  -8.400866e+01  -5.091331e+02
   2.368961e+02  -4.706259e+02
   3.499085e+02  -6.347785e+00
   1.450603e+02   3.343670e+02
  -1.741037e+02   1.811493e+02
  -2.138330e+02  -2.580627e+02
   8.867991e+01  -3.584820e+02
   4.174820e+02  -7.825348e+01
   4.037753e+02   3.275258e+02
   1.082049e+02   3.827729e+02
  -2.724331e+02   2.617502e+02
  -4.614088e+02  -4.554731e+01
  -3.363482e+02  -2.968094e+02
   7.499891e+01  -2.183944e+02
   2.888394e+02  -7.958361e+01
   2.091658e+02   8.564394e+01
  -2.485116e+01   4.055047e+01
  -8.925874e+01  -6.342353e+01
   1.011764e+02  -1.133597e+02
   2.587646e+02   4.334501e+01
   1.142347e+02   1.911571e+02
  -1.220523e+02   2.083568e+02
  -2.955019e+02   1.075498e+02
  -2.314896e+02  -7.744016e+01
   2.008273e+01  -2.386075e+02
   2.366578e+02  -2.860278e+02
   2.890603e+02  -1.623026e+02
   1.957956e+02   1.312893e+02
   5.825455e+01   3.316036e+02
  -5.388235e+01   2.855055e+02
  -3.447613e+01   1.343923e+02
  -3.188437e+01   3.237059e+01
  -8.179788e+01   8.066007e+01
  -1.904720e+02   3.525148e+01
  -2.306355e+02  -9.808458e+01
  -9.866349e+01  -2.165088e+02
   8.451228e+01  -1.813387e+02
   1.563373e+02   4.239889e+01
   1.506749e+02   2.021723e+02
  -2.666759e+01   2.018339e+02
  -1.998392e+02   6.114460e+01
  -2.888753e+02  -1.336432e+02
  -1.459217e+02  -2.619911e+02
   5.484119e+01  -2.277307e+02
   1.729096e+02  -1.262314e+02
   1.245471e+02  -3.021905e+01
   1.154490e+02  -5.049002e+01
   2.266539e+02  -5.093355e+01
   3.389483e+02   8.634079e+01
   2.776664e+02   2.663157e+02
  -1.668206e+01   3.797690e+02
  -2.849125e+02   3.143772e+02
  -3.887875e+02   1.435748e+02
  -2.484883e+02  -9.213675e+01
  -1.599664e+01  -2.275687e+02
   8.220662e+01  -1.800545e+02
   4.447223e+01  -2.390351e+01
  -1.005817e+02   7.223677e+01
  -1.517866e+02  -1.320847e+01
  -1.984843e+01  -1.298130e+02
   1.140314e+02  -1.130261e+02
   1.140969e+02   4.845413e+01
  -2.347366e+01   1.335601e+02
  -1.434854e+02   1.200286e+01
  -1.245960e+02  -1.986854e+02
   2.549778e+01  -3.070665e+02
   1.914435e+02  -1.587438e+02
   3.061924e+02   5.284726e+01
   2.332361e+02   2.144491e+02
   6.001620e+01   2.062790e+02
  -9.135604e+01   1.215097e+02
  -1.318624e+02   1.399561e+01
  -3.262212e+01  -1.494518e+01
   4.909827e+01   4.740948e+01
   1.050925e+01   1.050674e+02
  -1.048636e+02   6.104819e+01
  -1.364033e+02  -1.222668e+01
  -2.459304e+01  -4.728145e+01
   7.498191e+01   4.796286e+00
   3.769144e+01   7.054301e+01
  -1.208329e+02   7.658599e+01
  -2.601364e+02  -1.138857e+01
  -2.196677e+02  -1.273991e+02
  -3.437528e+01  -2.215734e+02
   1.845245e+02  -2.204348e+02
   2.224309e+02  -9.238701e+01
   1.206456e+02   4.286829e+01
  -2.440236e+01   6.665395e+01
  -5.496567e+01   7.259123e-01
   3.815602e+01  -7.591845e+01
   1.553362e+02  -3.141189e+01
   1.591812e+02   9.745511e+01
   4.947958e+01   1.650928e+02
  -7.043475e+01   1.161412e+02
  -1.159362e+02   1.826086e+01
  -3.613368e+01  -2.623322e+01
   3.061802e+01   1.236153e+01
   2.481705e+01   8.389720e+01
  -7.864481e+01   9.275200e+01
  -1.711898e+02   1.793603e+01
  -1.583433e+02  -9.991811e+01
  -1.221656e+01  -1.797137e+02
   1.279356e+02  -1.110487e+02
   1.477540e+02  -1.800384e+01
   5.218813e+01   8.910400e+01
  -5.068501e+01   8.204453e+01
  -6.433149e+01   2.141416e+01
  -5.703990e+00  -2.167383e+01
   2.037044e+01  -1.360827e+01
  -6.581381e+00   1.947568e+01
  -7.368040e+01   2.131005e+00
  -8.227070e+01  -7.354517e+01
  -8.219507e+00  -1.442906e+02
   1.110444e+02  -1.234349e+02
   1.975454e+02  -1.561461e+01
   1.827640e+02   1.303298e+02
   3.703828e+01   1.950270e+02
  -8.626584e+01   1.451920e+02
  -9.885431e+01   2.134052e+01
  -6.297632e+01  -4.119060e+01
  -2.599527e+01  -2.513881e+01
  -4.542734e+01   1.282678e+01
  -7.250899e+01   7.711555e+00
  -4.407540e+01  -4.804740e+01
   3.987529e+01  -8.379572e+01
   9.821576e+01  -5.086703e+01
   8.391533e+01   3.783537e+01
  -1.888040e+01   1.061401e+02
  -1.360065e+02   7.518977e+01
  -1.785747e+02  -5.617008e+01
  -7.554109e+01  -1.759936e+02
   9.768496e+01  -1.858017e+02
   2.227938e+02  -6.866832e+01
   1.978636e+02   7.646728e+01
   9.111603e+01   1.426326e+02
  -3.296487e+01   1.236122e+02
  -7.970328e+01   6.889759e+01
  -5.825174e+01   5.367717e+01
  -4.910042e+01   8.345456e+01
  -8.421140e+01   7.389057e+01
  -1.025415e+02  -1.520877e+01
  -1.002328e+02  -1.224141e+02
  -2.295792e+01  -1.940032e+02
   7.931719e+01  -1.347817e+02
   1.443637e+02  -1.043609e+01
   1.044603e+02   9.792877e+01
   1.498675e+01   1.288160e+02
  -6.315640e+01   7.457499e+01
  -5.019253e+01  -7.302399e+00
   9.860457e-01  -4.243605e+01
   2.020612e+01  -2.923944e+01
  -2.194329e+01  -9.039042e+00
  -6.827651e+01  -1.613353e+01
  -3.855181e+01  -3.421330e+01
   5.701970e+01  -2.932825e+01
   1.444546e+02   1.799466e+00
   1.340593e+02   4.814655e+01
   5.866618e+00   8.227259e+01
  -1.142309e+02   6.278457e+01
  -1.159627e+02   6.369727e+00
  -3.785087e+01  -4.279979e+01
   5.115020e+01  -3.188093e+01
   6.347771e+01   1.468940e+01
   1.539560e+01   6.386023e+01
  -3.535648e+01   5.097508e+01
  -5.339219e+01   2.504306e+00
  -4.676870e+01  -4.396310e+01
  -3.765407e+01  -3.674443e+01
  -4.805571e+01  -1.785107e+00
  -5.634717e+01   2.465210e+00
  -3.418964e+01  -5.983433e+01
   3.084594e+01  -1.330551e+02
   1.076119e+02  -1.132093e+02
   1.552991e+02  -2.399846e+01
   1.111060e+02   7.973086e+01
   3.876094e+00   1.090498e+02
  -7.861577e+01   5.331910e+01
  -5.070171e+01  -9.818036e+00
   5.201253e+01  -1.989294e+01
   1.080519e+02   3.151013e+01
   5.356021e+01   8.663630e+01
  -7.092619e+01   9.283477e+01
  -1.671439e+02   3.967000e+01
  -1.331226e+02  -3.297346e+01
  -2.666289e+01  -7.090846e+01
   5.260230e+01  -5.338600e+01
   4.083742e+01  -2.247408e-02
  -3.448852e+01   2.446509e+01
  -7.628182e+01  -1.795310e+01
  -3.689563e+01  -9.798317e+01
   6.839481e+01  -1.325671e+02
   1.383924e+02  -5.537135e+01
   1.079989e+02   7.785956e+01
   1.752977e+01   1.493291e+02
  -7.342384e+01   1.058119e+02
  -8.880386e+01  -9.360762e+00
  -4.804783e+01  -1.004602e+02
   1.231814e+01  -9.109425e+01
   3.869330e+01  -1.343662e+01
   3.885868e+01   2.606353e+01
   1.409756e+01   5.741040e+00
   4.506405e+00  -1.748460e+01
   2.404312e+01   1.696394e+01
   4.718275e+01   7.139104e+01
   3.476757e+01   9.231816e+01
  -4.152335e+01   3.716739e+01
  -1.164235e+02  -3.344869e+01
  -1.013064e+02  -5.386938e+01
  -1.721823e+01  -4.458252e+01
   6.842502e+01  -2.059738e+01
   6.729473e+01  -6.760817e+00
   1.303507e+01   8.811737e+00
  -2.790565e+01   1.615581e+01
  -1.522396e+01   1.193760e+01
   1.360634e+01  -2.986881e+00
  -2.947316e+00  -5.531185e+00
  -5.604932e+01  -1.923910e+00
  -7.517606e+01  -1.743500e+01
  -1.583095e+01  -6.404593e+01
   9.527033e+01  -9.997894e+01
   1.591328e+02  -5.093699e+01
   1.247442e+02   4.919962e+01
   2.879152e+01   1.364517e+02
  -7.025843e+01   1.363214e+02
  -9.552145e+01   5.122594e+01
  -6.807205e+01  -1.488794e+01
  -2.169995e+01  -2.981293e+01
  -7.482397e-01  -9.480450e+00
  -1.088813e+01  -5.875970e+00
  -2.884982e+01  -4.197729e+01
  -1.849967e+01  -8.289204e+01
   2.176755e+01  -5.669458e+01
   6.828461e+01   1.092916e+01
   7.327171e+01   8.464714e+01
   8.731165e+00   9.142570e+01
  -6.026380e+01   2.364662e+01
  -8.933676e+01  -5.679640e+01
  -3.834602e+01  -8.950941e+01
   5.555437e+01  -5.210473e+01
   8.117195e+01   6.597004e+00
   3.681833e+01   4.395835e+01
  -2.977944e+01   4.896588e+01
  -3.121517e+01   2.484466e+01
   2.006940e+01  -5.625464e+00
   5.914090e+01  -7.225276e+00
   1.489991e+01   2.198981e+01
  -6.885061e+01   5.466542e+01
  -9.217479e+01   4.741798e+01
  -5.758517e+01  -1.099666e+01
   9.131306e+00  -7.341003e+01
   4.450408e+01  -6.720400e+01
   3.655862e+01  -9.975710e+00
   6.770654e+00   4.561436e+01
  -1.706643e+01   3.841482e+01
  -2.886867e+01  -9.578108e+00
  -2.268813e+01  -4.575575e+01
   1.585012e+00  -3.361807e+01
   2.702753e+01   3.796709e+00
   3.415400e+01   2.088438e+01
   1.825246e+01   3.497675e+00
  -1.363998e+00  -1.461363e+01
  -4.427529e+00  -3.875072e+00
   3.243426e+00   2.753604e+01
  -4.588758e+00   4.163147e+01
  -2.636212e+01   1.679969e+01
  -3.167487e+01  -3.326048e+01
  -9.302509e+00  -5.057229e+01
   3.628000e+01  -2.108705e+01
   5.046619e+01   2.854125e+01
   1.653904e+01   5.348514e+01
  -4.647016e+01   2.946742e+01
  -7.760819e+01  -7.769725e+00
  -4.242471e+01  -3.680914e+01
   2.237279e+01  -3.711352e+01
   5.674042e+01  -2.305512e+01
   2.082428e+01  -4.987530e+00
  -2.655579e+01   2.228300e+00
  -2.698678e+01  -7.301790e+00
   2.235613e+01  -2.335647e+01
   7.004661e+01  -2.045119e+01
