
 $NMID
 id='ANONYMOUS ', fmtdat='(2E16.6)'
 volume=1.0
 tramp=1.0
 $END
   5.639908e+07   1.777684e+06
   3.262971e+07   3.594937e+07
  -8.735297e+06   3.778787e+07
  -2.790867e+07   1.369595e+07
  -1.606817e+07  -7.487836e+06
   3.605633e+06  -9.138285e+06
   9.664155e+06   1.520446e+06
   2.439456e+06   9.747475e+06
  -6.381165e+06   9.058779e+06
  -9.615746e+06   1.699111e+06
  -6.824043e+06  -6.376988e+06
  -6.171131e+05  -8.618243e+06
   4.082252e+06  -2.656452e+06
   2.552545e+06   5.475249e+06
  -3.869686e+06   6.409153e+06
  -7.782832e+06  -1.559975e+06
  -4.138538e+06  -1.029755e+07
   4.110147e+06  -1.165827e+07
   1.028066e+07  -5.611559e+06
   1.078484e+07   2.379375e+06
   6.418764e+06   7.741259e+06
   3.832904e+05   8.725583e+06
  -3.171280e+06   5.929409e+06
  -1.933112e+06   2.509237e+06
   1.151650e+06   2.084311e+06
   2.517598e+05   4.204579e+06
  -5.498629e+06   4.363053e+06
  -9.726282e+06   3.339390e+05
  -6.991370e+06  -4.309460e+06
  -1.362723e+05  -5.147371e+06
   3.824080e+06  -2.570399e+06
   2.567184e+06   3.001037e+04
  -5.414498e+05   1.018758e+06
  -2.294776e+06   5.639834e+05
  -2.259243e+06  -1.442630e+06
  -6.801572e+05  -4.003780e+06
   1.919625e+06  -3.852078e+06
   3.301295e+06   2.309497e+05
   1.622255e+06   3.755721e+06
  -9.088657e+05   1.921700e+06
  -3.685315e+05  -2.501738e+06
   2.479105e+06  -2.264600e+06
   2.342548e+06   3.242380e+06
  -2.612547e+06   6.008955e+06
  -6.970573e+06   7.416179e+05
  -4.886917e+06  -7.102259e+06
   2.187102e+06  -8.449336e+06
   7.501779e+06  -2.199751e+06
   6.829159e+06   4.597696e+06
   1.707975e+06   6.031262e+06
  -3.503686e+06   2.622245e+06
  -5.186831e+06  -1.613084e+06
  -2.327997e+06  -3.498032e+06
   2.460667e+06  -2.106853e+06
   4.481723e+06   1.042799e+06
   1.862098e+06   2.757378e+06
  -1.753538e+06   1.317633e+06
  -1.709251e+06  -1.049313e+06
   1.318011e+06  -8.440098e+05
   2.363744e+06   1.818279e+06
  -7.615437e+05   3.360138e+06
  -4.670246e+06   1.708256e+06
  -5.216950e+06  -1.514028e+06
  -2.184368e+06  -4.023618e+06
   1.930782e+06  -5.238683e+06
   5.126475e+06  -4.775028e+06
   6.264923e+06  -1.627003e+06
   4.543133e+06   3.288591e+06
   8.189771e+05   6.219321e+06
  -1.951776e+06   4.711690e+06
  -1.743944e+06   1.157548e+06
  -1.001867e+05  -2.293039e+05
   3.361115e+04   1.059220e+06
  -1.671072e+06   1.835594e+06
  -2.889219e+06   2.188140e+05
  -2.065467e+06  -1.985924e+06
  -2.556870e+04  -2.195892e+06
   1.572929e+06  -2.283742e+05
   1.689793e+06   2.091873e+06
  -2.367454e+04   2.962899e+06
  -2.825011e+06   1.632405e+06
  -4.497814e+06  -1.288038e+06
  -3.162325e+06  -3.866772e+06
   1.525304e+05  -4.257195e+06
   2.369042e+06  -2.664084e+06
   2.265945e+06  -1.068621e+06
   1.836124e+06  -6.375585e+05
   2.947277e+06  -4.329739e+05
   4.349187e+06   8.297218e+05
   3.461073e+06   2.829122e+06
   7.653274e+04   4.152185e+06
  -3.278044e+06   3.891765e+06
  -4.243700e+06   2.097246e+06
  -2.695275e+06  -4.584939e+05
  -2.624493e+05  -2.279981e+06
   1.140929e+06  -1.957362e+06
   5.770798e+05   4.419168e+04
  -1.116702e+06   1.315247e+06
  -1.933081e+06   3.722738e+05
  -9.128037e+05  -1.240215e+06
   5.338918e+05  -1.125351e+06
   4.206650e+05   3.847891e+05
  -1.067542e+06   6.598041e+05
  -1.801301e+06  -1.337305e+06
  -5.543395e+05  -3.485340e+06
   1.644510e+06  -3.345529e+06
   3.125441e+06  -1.037458e+06
   3.267857e+06   1.483218e+06
   2.249627e+06   2.772355e+06
   4.368061e+05   2.619397e+06
  -1.265625e+06   1.467137e+06
  -1.598947e+06   2.169118e+05
  -4.971435e+05  -5.273864e+04
   3.508342e+05   7.646635e+05
  -4.457618e+05   1.347187e+06
  -1.943042e+06   5.472230e+05
  -2.035715e+06  -9.374695e+05
  -3.574674e+05  -1.437227e+06
   1.191904e+06  -5.556061e+05
   8.852604e+05   4.656507e+05
  -8.556699e+05   4.972468e+05
  -2.172472e+06  -3.552061e+05
  -1.726667e+06  -1.373738e+06
   2.726925e+05  -1.965555e+06
   2.342617e+06  -1.632399e+06
   2.801961e+06  -2.369366e+05
   1.208225e+06   1.302084e+06
  -9.625623e+05   1.508628e+06
  -1.590558e+06   1.612423e+05
  -1.868584e+05  -1.105988e+06
   1.548990e+06  -7.235348e+05
   1.721503e+06   8.194135e+05
   3.074761e+05   1.668609e+06
  -1.117047e+06   9.554330e+05
  -1.253243e+06  -3.427305e+05
  -2.246245e+05  -7.898838e+05
   8.110136e+05  -3.636061e+04
   7.318669e+05   1.081367e+06
  -6.023690e+05   1.438688e+06
  -2.043348e+06   5.262187e+05
  -2.050439e+06  -1.091785e+06
  -3.578100e+05  -2.108117e+06
   1.485678e+06  -1.639160e+06
   1.748662e+06  -1.819076e+05
   4.891346e+05   8.853656e+05
  -6.786716e+05   7.986846e+05
  -6.373036e+05   7.415322e+04
   1.203538e+05  -3.485136e+05
   4.820146e+05  -2.013895e+05
   1.092814e+05   4.908061e+04
  -4.468161e+05  -1.070098e+05
  -4.974344e+05  -6.943778e+05
   2.370308e+05  -1.191972e+06
   1.412878e+06  -8.805672e+05
   2.099543e+06   4.506466e+05
   1.455580e+06   1.989115e+06
  -2.503346e+05   2.444781e+06
  -1.644759e+06   1.399707e+06
  -1.693241e+06  -1.500137e+05
  -8.494477e+05  -8.996394e+05
  -3.252477e+05  -6.416133e+05
  -4.999696e+05  -2.260870e+05
  -6.374732e+05  -3.407493e+05
  -7.586116e+04  -7.835497e+05
   9.008891e+05  -8.930462e+05
   1.460879e+06  -3.034759e+05
   1.044132e+06   7.348005e+05
  -2.702865e+05   1.456922e+06
  -1.748657e+06   1.054060e+06
  -2.260789e+06  -5.186004e+05
  -1.109385e+06  -2.136760e+06
   1.064833e+06  -2.371328e+06
   2.587586e+06  -9.942972e+05
   2.354511e+06   7.062336e+05
   9.327947e+05   1.355102e+06
  -2.187201e+05   9.339548e+05
  -3.815990e+05   5.067923e+05
  -7.423764e+04   7.766098e+05
  -1.227490e+05   1.337944e+06
  -7.048948e+05   1.299850e+06
  -1.320511e+06   3.033455e+05
  -1.342858e+06  -1.111424e+06
  -5.408645e+05  -1.924515e+06
   6.461218e+05  -1.447385e+06
   1.297607e+06   2.053700e+04
   7.972663e+05   1.311844e+06
  -4.228853e+05   1.401007e+06
  -1.183119e+06   3.765210e+05
  -7.996542e+05  -7.327424e+05
   1.568450e+05  -1.086302e+06
   5.653476e+05  -7.710177e+05
   9.274709e+04  -4.095321e+05
  -4.393788e+05  -3.440373e+05
  -5.865504e+04  -3.885880e+05
   1.168358e+06  -1.918124e+05
   2.087764e+06   3.712894e+05
   1.619070e+06   1.074951e+06
  -7.122274e+04   1.451403e+06
  -1.635846e+06   1.128666e+06
  -1.855637e+06   2.474189e+05
  -8.243457e+05  -5.208210e+05
   2.807360e+05  -5.746468e+05
   5.177608e+05  -1.983533e+04
   2.443957e+04   4.372066e+05
  -4.484667e+05   2.618811e+05
  -4.854006e+05  -3.524188e+05
  -2.611602e+05  -7.384067e+05
  -1.025396e+05  -4.918345e+05
  -1.340582e+05   8.743089e+04
  -2.716170e+05   2.883995e+05
  -2.729775e+05  -2.383219e+05
   1.463276e+05  -9.961616e+05
   9.240917e+05  -1.070655e+06
   1.399024e+06  -1.620646e+05
   8.670515e+05   9.426456e+05
  -4.390309e+05   1.160403e+06
  -1.292045e+06   3.356970e+05
  -7.411058e+05  -5.846995e+05
   7.200634e+05  -6.437106e+05
   1.596296e+06   1.202530e+05
   9.874489e+05   8.797908e+05
  -5.094061e+05   9.765752e+05
  -1.508428e+06   4.483997e+05
  -1.227079e+06  -2.121506e+05
  -1.237849e+05  -5.147024e+05
   6.589530e+05  -2.567848e+05
   3.886554e+05   3.092019e+05
  -5.934956e+05   5.348299e+05
  -1.205012e+06  -8.054463e+04
  -6.888976e+05  -1.202363e+06
   5.948438e+05  -1.735675e+06
   1.506224e+06  -9.026356e+05
   1.270912e+06   7.702682e+05
   1.959188e+05   1.813429e+06
  -7.562218e+05   1.294920e+06
  -9.272653e+05  -1.976547e+05
  -4.124901e+05  -1.207599e+06
   2.445920e+05  -9.631898e+05
   5.725198e+05  -7.081143e+04
   4.567643e+05   3.785310e+05
   1.513643e+05   1.306286e+05
   5.414307e+04  -8.949058e+04
   2.989750e+05   3.191745e+05
   5.151834e+05   9.900185e+05
   1.672585e+05   1.083912e+06
  -7.471306e+05   3.834946e+05
  -1.487250e+06  -4.804531e+05
  -1.271848e+06  -8.511429e+05
  -1.785834e+05  -7.121317e+05
   8.512346e+05  -4.263164e+05
   9.898785e+05  -1.733328e+05
   3.763702e+05   7.102129e+04
  -1.426311e+05   2.317661e+05
  -5.506967e+04   1.908024e+05
   2.491403e+05   7.804144e+04
   6.017159e+04   1.365447e+05
  -6.498406e+05   2.531542e+05
  -1.067208e+06  -8.754213e+03
  -4.709376e+05  -7.180190e+05
   8.387129e+05  -1.214336e+06
   1.748875e+06  -7.769215e+05
   1.466220e+06   4.354591e+05
   2.876797e+05   1.426577e+06
  -7.905342e+05   1.401754e+06
  -1.071947e+06   5.619547e+05
  -6.654479e+05  -2.215507e+05
  -1.463812e+05  -3.676035e+05
   5.339207e+04  -8.863951e+04
  -8.611792e+04  -2.885475e+03
  -2.902740e+05  -3.786499e+05
  -2.391905e+05  -8.186371e+05
   1.786424e+05  -6.969269e+05
   6.913809e+05   1.032334e+05
   7.719368e+05   9.521922e+05
   1.479236e+05   1.058328e+06
  -7.546451e+05   2.833311e+05
  -1.067589e+06  -7.077984e+05
  -3.735519e+05  -1.112326e+06
   7.238513e+05  -7.111926e+05
   1.152271e+06   6.922268e+04
   5.523011e+05   6.440196e+05
  -2.984505e+05   7.142164e+05
  -4.090093e+05   3.749367e+05
   2.285918e+05  -6.917100e+03
   6.542527e+05  -4.682309e+04
   1.571787e+05   3.197460e+05
  -8.370125e+05   6.874057e+05
  -1.296201e+06   5.261835e+05
  -7.956963e+05  -2.052737e+05
   9.637327e+04  -8.943896e+05
   5.845887e+05  -8.764062e+05
   4.624679e+05  -1.783193e+05
   7.223427e+04   4.791943e+05
  -2.401444e+05   4.586191e+05
  -3.621550e+05  -1.245364e+05
  -2.641048e+05  -5.859271e+05
   5.059559e+04  -4.577587e+05
   4.009991e+05   3.366832e+04
   4.890470e+05   3.023295e+05
   2.436860e+05   1.123401e+05
  -4.340606e+04  -1.741055e+05
  -7.593939e+04  -8.307096e+04
   5.072498e+04   3.510820e+05
  -6.291040e+03   5.968481e+05
  -3.176366e+05   2.716798e+05
  -5.066973e+05  -3.612824e+05
  -2.071867e+05  -6.634235e+05
   4.035302e+05  -3.369420e+05
   6.973190e+05   2.676766e+05
   2.762055e+05   5.744411e+05
  -5.225595e+05   3.763893e+05
  -9.154142e+05  -6.391511e+04
  -4.968992e+05  -3.824710e+05
   3.006174e+05  -4.277915e+05
   6.605285e+05  -2.575705e+05
   2.756356e+05  -1.993694e+04
  -3.276953e+05   9.829348e+04
  -4.097812e+05  -3.107163e+04
   1.422769e+05  -2.846863e+05
   7.160968e+05  -2.896545e+05
