
 $NMID
 id='ANONYMOUS ', fmtdat='(2E16.6)'
 volume=1.0
 tramp=1.0
 $END
   2.678370e+07   7.323658e+04
   1.707929e+07   1.432623e+07
  -1.568856e+06   1.744045e+07
  -1.222692e+07   9.413289e+06
  -8.909258e+06  -7.616824e+05
   3.094089e+05  -4.649383e+06
   5.098858e+06  -1.164672e+06
   2.935401e+06   4.430326e+06
  -1.951496e+06   6.151190e+06
  -4.836764e+06   2.325327e+06
  -3.938690e+06  -3.257868e+06
  -4.972582e+05  -5.003838e+06
   2.316414e+06  -1.238967e+06
   1.757110e+06   3.805329e+06
  -1.649417e+06   4.515421e+06
  -4.191476e+06   3.955290e+04
  -2.843393e+06  -5.110573e+06
   1.458440e+06  -6.258985e+06
   5.015291e+06  -3.037677e+06
   5.210986e+06   1.326454e+06
   2.608024e+06   3.708580e+06
  -1.111389e+05   3.456488e+06
  -6.687804e+05   2.121950e+06
   7.849869e+05   1.688218e+06
   1.673465e+06   2.664907e+06
  -3.455840e+05   3.524129e+06
  -4.266103e+06   2.405318e+06
  -6.192662e+06  -4.878096e+05
  -3.743041e+06  -2.831775e+06
   8.311739e+05  -2.749298e+06
   3.080884e+06  -7.468409e+05
   1.394836e+06   1.159297e+06
  -1.678773e+06   1.466389e+06
  -2.885174e+06   3.408782e+04
  -1.609396e+06  -2.093009e+06
   4.237524e+05  -3.118256e+06
   1.459785e+06  -1.782963e+06
   1.054704e+06   8.533793e+05
  -1.992648e+04   1.867893e+06
  -4.763818e+05  -5.311583e+04
   3.765297e+05  -2.399843e+06
   1.668237e+06  -1.760300e+06
   1.593310e+06   1.434428e+06
  -4.169587e+05   3.098416e+06
  -2.551539e+06   8.035464e+05
  -2.348286e+06  -2.972066e+06
   5.163816e+05  -3.979372e+06
   3.664247e+06  -1.254187e+06
   4.276746e+06   2.301369e+06
   1.717318e+06   3.580159e+06
  -1.918315e+06   2.116047e+06
  -3.621728e+06  -3.591741e+05
  -2.116285e+06  -1.845486e+06
   9.291136e+05  -1.450638e+06
   2.493426e+06   1.408370e+05
   1.321076e+06   1.242040e+06
  -8.069107e+05   7.843073e+05
  -1.291940e+06  -4.933739e+05
   1.716745e+05  -9.388456e+05
   1.419492e+06  -1.799895e+04
   6.367007e+05   1.145452e+06
  -1.478103e+06   1.228531e+06
  -2.647032e+06   2.251079e+04
  -1.512651e+06  -1.730838e+06
   1.178643e+06  -3.000991e+06
   3.470714e+06  -2.784105e+06
   3.861634e+06  -6.952841e+05
   2.359928e+06   2.186043e+06
   3.278830e+05   3.786781e+06
  -7.735060e+05   3.115642e+06
  -7.125109e+05   1.434404e+06
  -5.025688e+05   6.440414e+05
  -1.030608e+06   8.953983e+05
  -1.950393e+06   7.060389e+05
  -2.161420e+06  -6.826875e+05
  -1.134649e+06  -2.087212e+06
   5.275962e+05  -1.875739e+06
   1.660650e+06  -1.096246e+04
   1.408708e+06   1.893447e+06
  -1.880296e+05   2.242026e+06
  -2.051183e+06   8.356467e+05
  -2.704717e+06  -1.173624e+06
  -1.600242e+06  -2.364681e+06
   1.996004e+05  -2.190687e+06
   1.139363e+06  -1.297682e+06
   9.929148e+05  -7.172197e+05
   1.003391e+06  -7.177084e+05
   2.017982e+06  -5.995648e+05
   3.102194e+06   3.432352e+05
   2.573969e+06   1.891495e+06
   1.624171e+05   3.039732e+06
  -2.440035e+06   2.889092e+06
  -3.248835e+06   1.369855e+06
  -1.901635e+06  -6.303027e+05
   1.433100e+05  -1.767597e+06
   1.083379e+06  -1.284290e+06
   3.830542e+05   1.437057e+05
  -9.080484e+05   9.176287e+05
  -1.331877e+06   2.569382e+05
  -5.244043e+05  -8.366955e+05
   4.925464e+05  -8.425755e+05
   5.247708e+05   2.486633e+05
  -4.641375e+05   8.433889e+05
  -1.371714e+06  -2.051204e+05
  -1.139657e+06  -2.071303e+06
   2.857104e+05  -2.859344e+06
   2.005971e+06  -1.680712e+06
   2.870511e+06   5.449570e+05
   2.241336e+06   2.149043e+06
   5.132425e+05   2.213718e+06
  -1.027157e+06   1.141316e+06
  -1.257408e+06   1.028409e+05
  -3.730605e+05  -3.377969e+04
   2.811535e+05   5.559761e+05
  -2.250669e+05   9.233078e+05
  -1.269855e+06   4.321517e+05
  -1.455000e+06  -5.097311e+05
  -3.733664e+05  -9.459183e+05
   8.353650e+05  -4.825475e+05
   7.928842e+05   3.184147e+05
  -5.457526e+05   5.985849e+05
  -1.816066e+06   2.494760e+04
  -1.637871e+06  -1.003691e+06
   1.349416e+04  -1.698703e+06
   1.764491e+06  -1.431450e+06
   2.128367e+06  -2.755099e+05
   9.092845e+05   8.734869e+05
  -6.295075e+05   1.016962e+06
  -1.033612e+06   1.208027e+05
  -8.097713e+04  -7.365990e+05
   1.109181e+06  -5.351148e+05
   1.312310e+06   5.101782e+05
   3.930027e+05   1.227052e+06
  -7.087229e+05   8.732859e+05
  -9.877958e+05  -6.749070e+04
  -3.077865e+05  -5.332004e+05
   5.225685e+05  -6.971094e+04
   5.261060e+05   7.689186e+05
  -4.627279e+05   1.052612e+06
  -1.525193e+06   3.708792e+05
  -1.515856e+06  -8.073257e+05
  -2.981420e+05  -1.541921e+06
   1.028062e+06  -1.245514e+06
   1.280610e+06  -2.205944e+05
   4.383322e+05   6.232023e+05
  -4.620385e+05   6.453059e+05
  -5.517546e+05   5.584835e+04
   2.377467e+04  -4.043345e+05
   4.756308e+05  -2.986893e+05
   3.087349e+05   8.325913e+04
  -2.275422e+05   1.301874e+05
  -4.603174e+05  -3.535183e+05
   4.047220e+04  -8.727636e+05
   9.999859e+05  -7.165787e+05
   1.577134e+06   2.796671e+05
   1.112920e+06   1.454830e+06
  -1.530554e+05   1.867820e+06
  -1.235251e+06   1.182326e+06
  -1.385158e+06  -7.026569e+03
  -8.107732e+05  -7.675683e+05
  -2.961696e+05  -7.218987e+05
  -2.466176e+05  -3.070157e+05
  -3.344214e+05  -1.833233e+05
  -5.201140e+04  -4.867699e+05
   6.136917e+05  -7.167323e+05
   1.127664e+06  -3.347101e+05
   9.109402e+05   5.685128e+05
  -1.098387e+05   1.233120e+06
  -1.316773e+06   9.151258e+05
  -1.763890e+06  -3.288900e+05
  -9.468586e+05  -1.566637e+06
   6.432867e+05  -1.796517e+06
   1.843606e+06  -8.794201e+05
   1.848069e+06   3.658529e+05
   9.039783e+05   1.005420e+06
  -5.830957e+04   8.634036e+05
  -3.930485e+05   5.243010e+05
  -2.404836e+05   5.595379e+05
  -1.642734e+05   8.822608e+05
  -4.730429e+05   8.977123e+05
  -9.248489e+05   2.198848e+05
  -9.959213e+05  -8.289440e+05
  -4.171694e+05  -1.448438e+06
   4.844772e+05  -1.098024e+06
   9.912804e+05  -2.815259e+04
   6.570021e+05   9.186889e+05
  -2.017198e+05   1.055134e+06
  -7.791973e+05   4.191717e+05
  -6.068091e+05  -3.648230e+05
  -2.281703e+04  -7.276070e+05
   2.626350e+05  -6.162735e+05
   4.237221e+03  -3.741316e+05
  -3.056470e+05  -2.858167e+05
  -3.010656e+04  -3.053189e+05
   8.246247e+05  -1.835080e+05
   1.503752e+06   2.150021e+05
   1.235030e+06   7.333908e+05
   6.386114e+04   1.025781e+06
  -1.102950e+06   8.452614e+05
  -1.356048e+06   2.835877e+05
  -6.684721e+05  -2.555644e+05
   1.505329e+05  -3.797045e+05
   3.579726e+05  -7.540551e+04
  -1.121293e+04   2.517088e+05
  -3.745497e+05   1.783657e+05
  -3.545625e+05  -2.617296e+05
  -1.101055e+05  -5.762575e+05
   5.633009e+03  -3.718523e+05
  -1.137720e+05   1.321025e+05
  -2.775722e+05   2.979302e+05
  -2.274848e+05  -1.669569e+05
   1.467668e+05  -7.833211e+05
   6.790438e+05  -8.001212e+05
   9.395341e+05  -8.001814e+04
   5.531259e+05   6.998789e+05
  -3.146529e+05   7.912122e+05
  -9.026521e+05   1.785189e+05
  -5.489334e+05  -4.632564e+05
   5.122636e+05  -5.149396e+05
   1.252315e+06   1.967473e+04
   8.855382e+05   6.334299e+05
  -2.831968e+05   8.287385e+05
  -1.167979e+06   4.917847e+05
  -1.021642e+06  -7.860380e+04
  -1.486608e+05  -4.133605e+05
   4.864791e+05  -2.489316e+05
   2.680317e+05   1.980127e+05
  -4.865789e+05   3.614641e+05
  -8.996527e+05  -1.217923e+05
  -4.419221e+05  -9.374012e+05
   5.390161e+05  -1.276773e+06
   1.181970e+06  -6.262160e+05
   9.630664e+05   6.136579e+05
   1.457046e+05   1.400464e+06
  -5.720169e+05   1.043131e+06
  -7.299758e+05  -8.458066e+04
  -3.878769e+05  -9.134301e+05
   1.011775e+05  -7.876044e+05
   4.141969e+05  -9.432691e+04
   4.099482e+05   3.028543e+05
   1.808250e+05   1.235134e+05
   1.656293e+04  -9.064684e+04
   1.387702e+05   1.908737e+05
   3.657947e+05   7.306484e+05
   2.141653e+05   8.460519e+05
  -4.775025e+05   3.181256e+05
  -1.152508e+06  -3.604449e+05
  -1.052674e+06  -6.461492e+05
  -1.512240e+05  -5.273061e+05
   7.130122e+05  -3.187657e+05
   7.812463e+05  -1.618366e+05
   2.344623e+05   9.346388e+03
  -1.331424e+05   1.689011e+05
   3.441174e+04   1.895591e+05
   2.704382e+05   1.088212e+05
   1.317788e+04   1.071690e+05
  -5.818846e+05   1.558206e+05
  -7.998066e+05  -3.214539e+04
  -2.362651e+05  -5.253003e+05
   7.155838e+05  -8.668964e+05
   1.271126e+06  -5.291550e+05
   1.007711e+06   3.755415e+05
   1.808786e+05   1.097435e+06
  -5.810374e+05   1.036589e+06
  -8.110957e+05   3.672352e+05
  -5.138498e+05  -2.175749e+05
  -7.425125e+04  -2.761883e+05
   1.090857e+05  -1.409973e+04
  -4.230231e+04   5.487810e+04
  -2.591025e+05  -2.660851e+05
  -2.118530e+05  -6.241471e+05
   1.542591e+05  -5.097177e+05
   5.369460e+05   1.379404e+05
   5.290789e+05   7.779728e+05
   1.769830e+04   7.897768e+05
  -6.179694e+05   1.305120e+05
  -7.753323e+05  -6.141540e+05
  -2.243996e+05  -8.391372e+05
   5.633652e+05  -4.756015e+05
   8.335246e+05   8.085920e+04
   3.731121e+05   4.361137e+05
  -2.215952e+05   4.688008e+05
  -2.475292e+05   2.686749e+05
   2.425025e+05   2.805141e+04
   5.147843e+05  -1.825920e+04
   9.331658e+04   2.284427e+05
  -6.402547e+05   5.259212e+05
  -9.295152e+05   4.479665e+05
  -5.349466e+05  -1.008585e+05
   8.403488e+04  -6.491125e+05
   3.857813e+05  -6.354257e+05
   2.781812e+05  -8.478602e+04
   1.157788e+04   3.910827e+05
  -1.969513e+05   3.065449e+05
  -2.738255e+05  -1.610227e+05
  -1.851082e+05  -4.484834e+05
   5.595047e+04  -2.874229e+05
   2.992857e+05   5.692337e+04
   3.486117e+05   1.875552e+05
   1.856354e+05   4.729256e+04
  -2.163586e+03  -8.032104e+04
  -6.216705e+04   4.016816e+04
  -5.616455e+04   3.024267e+05
  -1.322512e+05   3.743800e+05
  -2.767309e+05   8.346812e+04
  -2.906795e+05  -3.500763e+05
  -3.584076e+04  -5.082311e+05
   3.401794e+05  -2.173880e+05
   4.801523e+05   2.504785e+05
   1.685653e+05   4.623962e+05
  -3.801682e+05   2.714318e+05
  -6.530821e+05  -8.501546e+04
  -3.531365e+05  -2.957119e+05
   2.295473e+05  -2.724644e+05
   4.823363e+05  -1.295334e+05
   1.577825e+05  -4.856165e+03
  -3.172347e+05   1.424215e+04
  -3.336506e+05  -1.022900e+05
   1.719178e+05  -2.537806e+05
   6.414518e+05  -2.027477e+05
