
 $NMID
 id='ANONYMOUS ', fmtdat='(2E16.6)'
 volume=1.0
 tramp=1.0
 $END
  -1.746833e+07   2.352715e+06
  -1.327355e+07  -6.775686e+06
  -1.702626e+06  -1.145865e+07
   6.979477e+06  -8.656048e+06
   6.807767e+06  -1.524510e+06
   9.032186e+05   3.297377e+06
  -3.610884e+06   2.047410e+06
  -3.148425e+06  -2.690222e+06
   4.135819e+05  -5.146670e+06
   3.223882e+06  -2.626876e+06
   3.140603e+06   1.952030e+06
   7.625948e+05   3.658201e+06
  -1.540282e+06   9.512072e+05
  -1.551454e+06  -2.954513e+06
   7.876817e+05  -3.796014e+06
   3.055208e+06  -6.879808e+05
   2.673323e+06   3.321235e+06
  -2.911431e+05   4.643234e+06
  -3.157678e+06   2.583359e+06
  -3.552402e+06  -5.490773e+05
  -1.784848e+06  -2.181295e+06
  -1.399375e+05  -1.884291e+06
  -2.490380e+05  -1.188011e+06
  -1.463905e+06  -1.508985e+06
  -1.672285e+06  -2.607537e+06
   3.785840e+05  -3.038984e+06
   3.462971e+06  -1.851056e+06
   4.756459e+06   3.493275e+05
   2.753337e+06   1.958505e+06
  -7.943423e+05   1.850436e+06
  -2.480875e+06   3.160933e+05
  -9.245908e+05  -1.235013e+06
   1.807577e+06  -1.405529e+06
   2.757960e+06   7.443828e+04
   1.352999e+06   2.005150e+06
  -5.086146e+05   2.604653e+06
  -1.066782e+06   1.217373e+06
  -4.159741e+05  -7.597002e+05
   2.689436e+05  -1.150097e+06
   2.257469e+05   4.962500e+05
  -4.793152e+05   2.139498e+06
  -1.282505e+06   1.570377e+06
  -1.403578e+06  -7.924517e+05
  -3.534028e+05  -2.240143e+06
   1.255132e+06  -1.017648e+06
   1.785782e+06   1.551692e+06
   2.096565e+05   2.654852e+06
  -2.365204e+06   1.171229e+06
  -3.451811e+06  -1.358722e+06
  -1.763237e+06  -2.660810e+06
   1.296176e+06  -1.928629e+06
   3.000662e+06  -1.271025e+05
   2.025450e+06   1.217495e+06
  -3.800015e+05   1.248209e+06
  -1.826530e+06   2.521399e+05
  -1.188866e+06  -6.832662e+05
   4.449796e+05  -6.362654e+05
   1.114021e+06   2.553587e+05
   1.482386e+05   9.252338e+05
  -1.148966e+06   5.434184e+05
  -1.051650e+06  -5.487887e+05
   5.355581e+05  -1.189598e+06
   1.889482e+06  -5.782787e+05
   1.380924e+06   9.731158e+05
  -7.325197e+05   2.293642e+06
  -2.643176e+06   2.244808e+06
  -2.914350e+06   6.155880e+05
  -1.745304e+06  -1.583572e+06
  -3.923943e+05  -2.854819e+06
   2.659844e+05  -2.555740e+06
   3.833710e+05  -1.474112e+06
   6.038400e+05  -8.165654e+05
   1.200346e+06  -7.482890e+05
   1.795287e+06  -3.760396e+05
   1.762682e+06   7.811604e+05
   8.363936e+05   1.860595e+06
  -5.616578e+05   1.604901e+06
  -1.513172e+06  -2.126419e+04
  -1.255487e+06  -1.634993e+06
   1.294286e+05  -1.862939e+06
   1.626496e+06  -6.497673e+05
   2.074340e+06   9.002314e+05
   1.222853e+06   1.694016e+06
  -3.828925e+04   1.519774e+06
  -6.567368e+05   9.592119e+05
  -5.825952e+05   6.688051e+05
  -7.198417e+05   7.413866e+05
  -1.632191e+06   6.674316e+05
  -2.584022e+06  -8.792563e+04
  -2.233140e+06  -1.423647e+06
  -2.756770e+05  -2.521637e+06
   1.941592e+06  -2.492092e+06
   2.677419e+06  -1.190523e+06
   1.546149e+06   5.380608e+05
  -1.722244e+05   1.470103e+06
  -9.073347e+05   1.035447e+06
  -2.877120e+05  -1.298519e+05
   7.404001e+05  -7.599932e+05
   1.048173e+06  -2.609525e+05
   4.177524e+05   6.273655e+05
  -3.955477e+05   7.011752e+05
  -4.976298e+05  -1.895738e+05
   2.785496e+05  -8.393262e+05
   1.206799e+06  -1.136497e+05
   1.288130e+06   1.573309e+06
   1.399511e+05   2.574832e+06
  -1.575555e+06   1.785402e+06
  -2.601239e+06  -2.007184e+05
  -2.128371e+06  -1.777288e+06
  -5.489406e+05  -1.927642e+06
   8.481478e+05  -1.003533e+06
   1.061523e+06  -1.134366e+05
   3.148297e+05   9.156878e+03
  -2.552749e+05  -4.483965e+05
   1.190154e+05  -7.504831e+05
   9.811910e+05  -4.174034e+05
   1.210108e+06   3.052188e+05
   3.800688e+05   7.262806e+05
  -6.593062e+05   4.394359e+05
  -6.987506e+05  -2.429839e+05
   4.358541e+05  -5.876320e+05
   1.601097e+06  -1.483793e+05
   1.509820e+06   8.058788e+05
   8.619775e+04   1.504045e+06
  -1.443956e+06   1.319761e+06
  -1.782464e+06   3.355177e+05
  -7.978802e+05  -6.583601e+05
   4.480118e+05  -8.360512e+05
   8.005956e+05  -1.502144e+05
   7.716189e+04   5.703140e+05
  -8.869175e+05   4.797246e+05
  -1.121198e+06  -3.479778e+05
  -4.224763e+05  -1.006555e+06
   5.244357e+05  -8.044493e+05
   8.432229e+05  -3.493138e+04
   3.141948e+05   4.138598e+05
  -4.091688e+05   7.833411e+04
  -4.499886e+05  -6.212062e+05
   3.670754e+05  -8.860717e+05
   1.266574e+06  -3.470534e+05
   1.288774e+06   6.238512e+05
   3.126371e+05   1.268227e+06
  -7.875704e+05   1.086620e+06
  -1.052785e+06   2.629303e+05
  -4.104988e+05  -4.857508e+05
   3.469753e+05  -5.626961e+05
   4.706102e+05  -5.929784e+04
  -6.639197e+03   3.803122e+05
  -4.374244e+05   2.930242e+05
  -3.225201e+05  -9.660600e+04
   1.779030e+05  -1.884187e+05
   4.419334e+05   2.426863e+05
   3.632931e+04   7.434193e+05
  -8.060436e+05   6.573832e+05
  -1.339301e+06  -1.669288e+05
  -9.915228e+05  -1.174796e+06
   5.343145e+04  -1.583597e+06
   9.987864e+05  -1.074379e+06
   1.201894e+06  -7.127042e+04
   7.585734e+05   6.480479e+05
   2.820206e+05   6.674520e+05
   1.763129e+05   2.837572e+05
   2.525141e+05   1.175800e+05
   6.714648e+04   3.853104e+05
  -4.793899e+05   6.490009e+05
  -9.625242e+05   3.514376e+05
  -8.303178e+05  -4.655144e+05
   3.219226e+04  -1.094389e+06
   1.090821e+06  -8.519476e+05
   1.518988e+06   2.049816e+05
   8.806170e+05   1.279515e+06
  -4.371531e+05   1.540414e+06
  -1.494178e+06   8.429528e+05
  -1.592522e+06  -1.984674e+05
  -8.517585e+05  -8.166417e+05
  -3.169268e+03  -7.777159e+05
   3.500861e+05  -4.900456e+05
   2.340252e+05  -4.617855e+05
   1.199193e+05  -7.067203e+05
   3.438572e+05  -7.497666e+05
   7.480995e+05  -2.176631e+05
   8.603626e+05   6.585346e+05
   4.022064e+05   1.201226e+06
  -3.684130e+05   9.392091e+05
  -8.353982e+05   6.766654e+04
  -6.007359e+05  -7.326215e+05
   1.006336e+05  -8.980667e+05
   6.150240e+05  -4.208913e+05
   5.324289e+05   2.350734e+05
   8.676956e+04   5.924389e+05
  -1.572623e+05   5.429430e+05
   2.552497e+04   3.340125e+05
   2.624460e+05   2.367202e+05
   3.331277e+04   2.616812e+05
  -6.768185e+05   1.978356e+05
  -1.260330e+06  -1.093605e+05
  -1.071326e+06  -5.554134e+05
  -1.206563e+05  -8.461371e+05
   8.638584e+05  -7.513479e+05
   1.120572e+06  -3.135021e+05
   5.873272e+05   1.561770e+05
  -9.491596e+04   3.136577e+05
  -2.934499e+05   9.402459e+04
   2.267417e+03  -1.930247e+05
   3.165415e+05  -1.614710e+05
   3.073953e+05   2.041424e+05
   9.264882e+04   4.837045e+05
  -1.224590e+04   3.099534e+05
   9.843179e+04  -1.342348e+05
   2.491660e+05  -2.781179e+05
   2.066120e+05   1.359609e+05
  -1.087382e+05   6.777100e+05
  -5.442862e+05   6.969704e+05
  -7.605544e+05   9.039274e+04
  -4.648099e+05  -5.658019e+05
   2.310210e+05  -6.569343e+05
   7.336933e+05  -1.664145e+05
   4.767456e+05   3.754486e+05
  -4.051325e+05   4.621701e+05
  -1.071380e+06   4.712335e+04
  -8.081833e+05  -4.991261e+05
   1.850340e+05  -7.378880e+05
   9.801796e+05  -4.959791e+05
   8.916122e+05   1.252723e+04
   1.532265e+05   3.511967e+05
  -3.992205e+05   2.401462e+05
  -2.253479e+05  -1.477872e+05
   4.067387e+05  -3.079593e+05
   7.566518e+05   8.749302e+04
   3.837343e+05   7.786511e+05
  -4.294340e+05   1.082717e+06
  -9.816840e+05   5.553923e+05
  -8.338355e+05  -4.890712e+05
  -1.731069e+05  -1.182304e+06
   4.464217e+05  -9.166353e+05
   6.282317e+05   2.984916e+04
   3.782310e+05   7.593090e+05
  -3.973119e+04   6.846621e+05
  -3.433562e+05   1.035070e+05
  -3.712779e+05  -2.481127e+05
  -1.713647e+05  -1.063284e+05
  -4.476017e+03   8.320158e+04
  -1.027653e+05  -1.407045e+05
  -3.282847e+05  -5.965633e+05
  -2.318414e+05  -7.132189e+05
   3.693279e+05  -2.945561e+05
   9.908913e+05   2.617745e+05
   9.334242e+05   5.098847e+05
   1.512367e+05   4.375722e+05
  -6.067752e+05   2.921623e+05
  -6.620940e+05   1.712862e+05
  -1.872993e+05   1.324643e+04
   1.111707e+05  -1.444289e+05
  -5.464199e+04  -1.726508e+05
  -2.507995e+05  -9.862672e+04
  -5.390322e+03  -9.106012e+04
   5.074237e+05  -1.400579e+05
   6.724528e+05   5.625558e+03
   1.881507e+05   4.262465e+05
  -5.903355e+05   7.404687e+05
  -1.037281e+06   4.787077e+05
  -8.366223e+05  -2.884277e+05
  -1.825212e+05  -9.224281e+05
   4.485742e+05  -8.898496e+05
   6.702285e+05  -3.235864e+05
   4.420143e+05   1.793486e+05
   6.218852e+04   2.293278e+05
  -1.076021e+05   1.028183e+02
   3.004721e+04  -6.277715e+04
   2.380710e+05   2.117961e+05
   2.070623e+05   5.205841e+05
  -1.167403e+05   4.287609e+05
  -4.581530e+05  -1.135692e+05
  -4.570663e+05  -6.490225e+05
  -2.010383e+04  -6.584342e+05
   5.245964e+05  -1.098342e+05
   6.650111e+05   5.078157e+05
   2.052407e+05   6.968894e+05
  -4.599909e+05   4.054951e+05
  -6.956130e+05  -4.456999e+04
  -3.201763e+05  -3.411483e+05
   1.680274e+05  -3.855329e+05
   1.839261e+05  -2.322899e+05
  -2.220965e+05  -2.417605e+04
  -4.384276e+05   2.910591e+04
  -8.129774e+04  -1.854189e+05
   5.224657e+05  -4.675245e+05
   7.558932e+05  -4.248348e+05
   4.395077e+05   4.994257e+04
  -4.905911e+04   5.426717e+05
  -2.873226e+05   5.444824e+05
  -2.125312e+05   7.147733e+04
  -1.267702e+04  -3.351954e+05
   1.577058e+05  -2.554597e+05
   2.349462e+05   1.422425e+05
   1.685059e+05   3.723519e+05
  -3.940606e+04   2.292850e+05
  -2.521432e+05  -4.479700e+04
  -2.963387e+05  -1.344963e+05
  -1.597713e+05  -2.366343e+04
  -1.626112e+03   5.401464e+04
   5.514032e+04  -6.145820e+04
   6.094700e+04  -2.630715e+05
   1.269954e+05  -2.973456e+05
   2.353777e+05  -4.927792e+04
   2.325341e+05   3.005556e+05
   1.865004e+04   4.251489e+05
  -2.865704e+05   1.853889e+05
  -4.009373e+05  -2.044506e+05
  -1.478893e+05  -3.897720e+05
   3.068697e+05  -2.397373e+05
   5.427991e+05   5.624287e+04
   3.023464e+05   2.374124e+05
  -1.824726e+05   2.249371e+05
  -3.951128e+05   1.110249e+05
  -1.198735e+05   9.391673e+03
   2.815807e+05  -6.085639e+03
   2.878002e+05   9.406424e+04
  -1.526832e+05   2.271190e+05
  -5.570572e+05   1.868414e+05
