
 $NMID
 id='ANONYMOUS ', fmtdat='(2E16.6)'
 volume=1.0
 tramp=1.0
 $END
   4.224195e+07   1.077808e+06
   2.537668e+07   2.522813e+07
  -4.965804e+06   2.794548e+07
  -2.031046e+07   1.211586e+07
  -1.290291e+07  -3.804907e+06
   1.803611e+06  -7.066567e+06
   7.615855e+06  -9.826247e+04
   3.000383e+06   7.208302e+06
  -4.115225e+06   8.040809e+06
  -7.421316e+06   2.258940e+06
  -5.553427e+06  -4.986154e+06
  -5.381237e+05  -7.091263e+06
   3.340554e+06  -1.945813e+06
   2.248561e+06   4.953870e+06
  -2.819029e+06   5.795097e+06
  -6.169095e+06  -6.794998e+05
  -3.642685e+06  -7.891732e+06
   2.809574e+06  -9.201483e+06
   7.818920e+06  -4.393855e+06
   8.115883e+06   1.976558e+06
   4.460374e+06   5.846385e+06
   4.677594e+04   6.061511e+06
  -1.828445e+06   3.956927e+06
  -3.054724e+05   2.222671e+06
   1.603291e+06   2.718869e+06
  -1.644058e+05   4.188637e+06
  -5.274695e+06   3.453544e+06
  -8.360153e+06  -2.572702e+05
  -5.499536e+06  -3.811565e+06
   5.433758e+05  -4.064869e+06
   3.745960e+06  -1.573066e+06
   2.035970e+06   8.218826e+05
  -1.393688e+06   1.418834e+06
  -2.945806e+06   2.303356e+05
  -2.029190e+06  -2.061881e+06
   4.362618e+04  -3.823481e+06
   1.835186e+06  -2.831294e+06
   2.110864e+06   6.988896e+05
   6.529970e+05   2.873506e+06
  -7.103589e+05   7.746672e+05
   1.266569e+05  -2.697771e+06
   2.209879e+06  -2.144754e+06
   2.067761e+06   2.376978e+06
  -1.425284e+06   4.667906e+06
  -4.711581e+06   8.404883e+05
  -3.652866e+06  -5.069169e+06
   1.317051e+06  -6.301938e+06
   5.699636e+06  -1.755656e+06
   5.799190e+06   3.566469e+06
   1.861505e+06   5.024662e+06
  -2.823654e+06   2.540139e+06
  -4.675665e+06  -9.700528e+05
  -2.411843e+06  -2.774235e+06
   1.702646e+06  -1.880685e+06
   3.610755e+06   5.675203e+05
   1.679448e+06   2.040674e+06
  -1.308386e+06   1.090745e+06
  -1.604890e+06  -7.998016e+05
   6.900166e+05  -1.003010e+06
   1.978471e+06   7.757934e+05
   1.022230e+05   2.221979e+06
  -3.005320e+06   1.552851e+06
  -4.023321e+06  -6.557921e+05
  -1.941810e+06  -2.906201e+06
   1.656039e+06  -4.256886e+06
   4.574167e+06  -3.886637e+06
   5.301707e+06  -1.122591e+06
   3.514812e+06   2.913927e+06
   5.282884e+05   5.230195e+06
  -1.394194e+06   4.119242e+06
  -1.245216e+06   1.459291e+06
  -3.916303e+05   3.314551e+05
  -6.952423e+05   1.048254e+06
  -2.046511e+06   1.243400e+06
  -2.696504e+06  -3.940190e+05
  -1.631253e+06  -2.282498e+06
   3.708593e+05  -2.211207e+06
   1.805994e+06  -8.721125e+04
   1.661727e+06   2.199326e+06
  -1.634982e+05   2.790010e+06
  -2.611340e+06   1.242088e+06
  -3.744164e+06  -1.378504e+06
  -2.408020e+06  -3.273945e+06
   2.259338e+05  -3.299747e+06
   1.796934e+06  -2.002528e+06
   1.645837e+06  -9.308992e+05
   1.470928e+06  -7.497885e+05
   2.634608e+06  -5.730859e+05
   3.960003e+06   6.179366e+05
   3.206394e+06   2.519356e+06
   1.119577e+05   3.840636e+06
  -3.087469e+06   3.599699e+06
  -4.035319e+06   1.790921e+06
  -2.437930e+06  -6.467437e+05
   5.297054e+03  -2.175222e+06
   1.240946e+06  -1.697001e+06
   5.079402e+05   1.225888e+05
  -1.104956e+06   1.177895e+06
  -1.736593e+06   3.199524e+05
  -7.380154e+05  -1.106017e+06
   5.752170e+05  -1.050993e+06
   5.384868e+05   3.390196e+05
  -7.784367e+05   8.550794e+05
  -1.701819e+06  -7.186511e+05
  -9.937649e+05  -2.906105e+06
   9.236220e+05  -3.372325e+06
   2.715230e+06  -1.568355e+06
   3.341572e+06   1.033296e+06
   2.462186e+06   2.670130e+06
   5.121557e+05   2.629764e+06
  -1.251148e+06   1.390367e+06
  -1.539168e+06   1.474685e+05
  -4.653801e+05  -5.031808e+04
   3.363484e+05   7.078169e+05
  -3.518011e+05   1.202051e+06
  -1.698194e+06   5.158436e+05
  -1.855846e+06  -7.620484e+05
  -3.987160e+05  -1.263537e+06
   1.083190e+06  -5.604323e+05
   9.178004e+05   4.224223e+05
  -7.393851e+05   6.162717e+05
  -2.162599e+06  -1.500407e+05
  -1.842536e+06  -1.284884e+06
   1.417551e+05  -1.995327e+06
   2.215030e+06  -1.652998e+06
   2.647195e+06  -2.658085e+05
   1.125178e+06   1.160659e+06
  -8.504009e+05   1.329751e+06
  -1.384275e+06   1.397531e+05
  -1.276879e+05  -9.752161e+05
   1.421807e+06  -6.624795e+05
   1.623565e+06   7.104554e+05
   3.866615e+05   1.552751e+06
  -9.690722e+05   9.968295e+05
  -1.208995e+06  -2.017982e+05
  -3.023157e+05  -7.051558e+05
   7.019065e+05  -6.107608e+04
   6.641552e+05   9.874450e+05
  -5.800744e+05   1.324841e+06
  -1.911594e+06   4.621022e+05
  -1.897416e+06  -1.029867e+06
  -3.396532e+05  -1.951530e+06
   1.346742e+06  -1.536229e+06
   1.620955e+06  -2.134556e+05
   5.013895e+05   8.086468e+05
  -6.114957e+05   7.773066e+05
  -6.505676e+05   6.419124e+04
   6.916936e+04  -4.256351e+05
   5.320670e+05  -2.869030e+05
   2.579588e+05   7.967874e+04
  -3.442004e+05   4.171435e+04
  -5.208434e+05  -5.391768e+05
   1.365563e+05  -1.099954e+06
   1.288668e+06  -8.523308e+05
   1.964520e+06   3.980230e+05
   1.362416e+06   1.848764e+06
  -2.310277e+05   2.311716e+06
  -1.555409e+06   1.388757e+06
  -1.665398e+06  -8.394019e+04
  -9.055041e+05  -9.166834e+05
  -3.308137e+05  -7.703515e+05
  -3.752710e+05  -3.083998e+05
  -4.954721e+05  -2.716579e+05
  -6.214391e+04  -6.631772e+05
   8.079819e+05  -8.603702e+05
   1.391561e+06  -3.451984e+05
   1.057638e+06   7.088677e+05
  -2.025146e+05   1.458253e+06
  -1.649600e+06   1.058180e+06
  -2.159959e+06  -4.626782e+05
  -1.102033e+06  -1.986302e+06
   9.086146e+05  -2.227233e+06
   2.366344e+06  -1.004455e+06
   2.258922e+06   5.687176e+05
   1.004039e+06   1.272528e+06
  -1.417599e+05   9.870171e+05
  -4.371800e+05   5.693581e+05
  -2.029920e+05   7.081752e+05
  -1.741201e+05   1.167461e+06
  -6.314405e+05   1.159308e+06
  -1.193938e+06   2.691851e+05
  -1.241151e+06  -1.048348e+06
  -4.991571e+05  -1.810563e+06
   6.168913e+05  -1.359359e+06
   1.228630e+06  -5.529288e+02
   7.782923e+05   1.190689e+06
  -3.274876e+05   1.313568e+06
  -1.038347e+06   4.395705e+05
  -7.506530e+05  -5.647094e+05
   5.696891e+04  -9.578118e+05
   4.242665e+05  -7.465026e+05
   4.615899e+04  -4.304705e+05
  -3.909383e+05  -3.444632e+05
  -4.154117e+04  -3.731345e+05
   1.059831e+06  -1.980324e+05
   1.909066e+06   3.193862e+05
   1.522896e+06   9.691851e+05
   4.542644e+03   1.316991e+06
  -1.454756e+06   1.045125e+06
  -1.716950e+06   2.852622e+05
  -8.051247e+05  -4.016185e+05
   2.250615e+05  -5.010500e+05
   4.646965e+05  -5.671530e+04
  -5.753172e+02   3.557166e+05
  -4.485883e+05   2.274792e+05
  -4.445784e+05  -3.324504e+05
  -1.778991e+05  -7.075529e+05
  -3.437952e+04  -4.620999e+05
  -1.362879e+05   1.263032e+05
  -3.085705e+05   3.233511e+05
  -2.689337e+05  -2.164378e+05
   1.711689e+05  -9.547742e+05
   8.630301e+05  -9.928943e+05
   1.233366e+06  -1.139198e+05
   7.365884e+05   8.825358e+05
  -4.087623e+05   1.027937e+06
  -1.164788e+06   2.537327e+05
  -6.835609e+05  -5.707205e+05
   6.609152e+05  -6.192950e+05
   1.532903e+06   7.814800e+04
   1.018025e+06   8.160162e+05
  -4.181598e+05   9.783366e+05
  -1.444008e+06   5.145460e+05
  -1.218815e+06  -1.544465e+05
  -1.500164e+05  -5.028978e+05
   6.147967e+05  -2.746091e+05
   3.460333e+05   2.685643e+05
  -5.879152e+05   4.678375e+05
  -1.123725e+06  -1.276199e+05
  -5.826192e+05  -1.154866e+06
   6.355875e+05  -1.601179e+06
   1.453392e+06  -7.961801e+05
   1.189639e+06   7.572040e+05
   1.665129e+05   1.727579e+06
  -7.234814e+05   1.255958e+06
  -8.915779e+05  -1.489816e+05
  -4.308419e+05  -1.140635e+06
   1.804549e+05  -9.467052e+05
   5.265240e+05  -9.086799e+04
   4.712381e+05   3.723216e+05
   1.873206e+05   1.424645e+05
   3.526546e+04  -1.002449e+05
   2.187437e+05   2.658910e+05
   4.601864e+05   9.226694e+05
   2.089037e+05   1.041173e+06
  -6.456140e+05   3.757293e+05
  -1.414379e+06  -4.630262e+05
  -1.252348e+06  -8.147085e+05
  -1.733676e+05  -6.636171e+05
   8.524550e+05  -3.898593e+05
   9.557823e+05  -1.755294e+05
   3.191583e+05   3.814728e+04
  -1.538171e+05   2.119823e+05
  -1.465232e+03   2.118717e+05
   2.899184e+05   1.113802e+05
   3.309847e+04   1.308049e+05
  -6.755234e+05   2.062534e+05
  -9.982241e+05  -3.462851e+04
  -3.537869e+05  -6.647602e+05
   8.548772e+05  -1.097923e+06
   1.614649e+06  -6.763217e+05
   1.304047e+06   4.523428e+05
   2.326246e+05   1.356444e+06
  -7.430082e+05   1.295634e+06
  -1.011931e+06   4.794173e+05
  -6.305064e+05  -2.487208e+05
  -1.094642e+05  -3.448881e+05
   9.775448e+04  -4.483595e+04
  -6.605176e+04   3.673616e+04
  -2.978741e+05  -3.450473e+05
  -2.398955e+05  -7.760902e+05
   1.867397e+05  -6.418712e+05
   6.583521e+05   1.446357e+05
   6.791789e+05   9.415130e+05
   6.482349e+04   9.878057e+05
  -7.437648e+05   2.009320e+05
  -9.744877e+05  -7.292410e+05
  -3.014827e+05  -1.046892e+06
   6.967729e+05  -6.191042e+05
   1.056203e+06   9.389126e+04
   4.840135e+05   5.738686e+05
  -2.822905e+05   6.195933e+05
  -3.443368e+05   3.402244e+05
   2.629481e+05   2.012896e+04
   6.292655e+05  -2.619223e+04
   1.275056e+05   2.922242e+05
  -7.982868e+05   6.436514e+05
  -1.189225e+06   5.198882e+05
  -7.011373e+05  -1.606773e+05
   1.055056e+05  -8.213004e+05
   5.174885e+05  -8.013647e+05
   3.855990e+05  -1.301805e+05
   3.328754e+04   4.705232e+05
  -2.396694e+05   4.008868e+05
  -3.382532e+05  -1.668392e+05
  -2.331660e+05  -5.567975e+05
   6.269823e+04  -3.888149e+05
   3.735927e+05   5.692052e+04
   4.434483e+05   2.594786e+05
   2.298738e+05   8.151852e+04
  -1.898086e+04  -1.277414e+05
  -7.594512e+04  -7.031664e+03
  -2.184641e+04   3.546923e+05
  -9.848562e+04   5.053156e+05
  -3.243260e+05   1.670679e+05
  -4.075989e+05  -3.960397e+05
  -1.048455e+05  -6.280597e+05
   4.060962e+05  -2.867380e+05
   6.197699e+05   2.902569e+05
   2.263303e+05   5.613276e+05
  -4.838987e+05   3.406725e+05
  -8.324570e+05  -9.263774e+04
  -4.482805e+05  -3.680262e+05
   2.869895e+05  -3.642590e+05
   6.103743e+05  -1.915053e+05
   2.239305e+05  -1.011638e+04
  -3.564873e+05   4.659590e+04
  -4.004197e+05  -8.812232e+04
   1.818093e+05  -2.923505e+05
   7.454717e+05  -2.532453e+05
