
 $NMID
 id='ANONYMOUS ', fmtdat='(2E16.6)'
 volume=1.0
 tramp=1.0
 $END
  -4.167042e+07  -2.193557e+06
  -2.423580e+07  -2.536883e+07
   5.591201e+06  -2.724380e+07
   2.010551e+07  -1.147838e+07
   1.247346e+07   3.858575e+06
  -1.872390e+06   6.821445e+06
  -7.383131e+06   2.391767e+04
  -2.835218e+06  -7.037720e+06
   4.071176e+06  -7.826569e+06
   7.275023e+06  -2.128309e+06
   5.408232e+06   5.025365e+06
   4.335732e+05   7.047293e+06
  -3.368444e+06   1.866029e+06
  -2.214597e+06  -4.965055e+06
   2.809098e+06  -5.704679e+06
   6.037660e+06   7.596046e+05
   3.449990e+06   7.839063e+06
  -2.941638e+06   9.020307e+06
  -7.828448e+06   4.167825e+06
  -7.997801e+06  -2.175019e+06
  -4.235880e+06  -5.943200e+06
   1.913225e+05  -5.987744e+06
   1.932506e+06  -3.757457e+06
   2.328812e+05  -2.069986e+06
  -1.711991e+06  -2.721530e+06
   1.703183e+05  -4.253518e+06
   5.363619e+06  -3.427118e+06
   8.389276e+06   3.801653e+05
   5.418554e+06   3.916739e+06
  -6.644309e+05   4.089255e+06
  -3.843992e+06   1.534715e+06
  -2.094060e+06  -9.088699e+05
   1.402023e+06  -1.534526e+06
   3.028370e+06  -2.915407e+05
   2.103132e+06   2.116047e+06
  -7.301406e+04   3.905391e+06
  -1.920293e+06   2.798726e+06
  -2.107855e+06  -8.253478e+05
  -5.362911e+05  -2.929120e+06
   8.094579e+05  -7.021519e+05
  -1.217993e+05   2.771746e+06
  -2.209803e+06   2.137656e+06
  -1.994044e+06  -2.357620e+06
   1.476435e+06  -4.514243e+06
   4.604621e+06  -6.561205e+05
   3.435742e+06   5.091210e+06
  -1.456606e+06   6.147261e+06
  -5.672104e+06   1.596171e+06
  -5.696085e+06  -3.604341e+06
  -1.808864e+06  -4.976640e+06
   2.796837e+06  -2.498157e+06
   4.616696e+06   9.662230e+05
   2.376550e+06   2.726735e+06
  -1.678879e+06   1.810618e+06
  -3.537680e+06  -6.097238e+05
  -1.620517e+06  -2.017311e+06
   1.305658e+06  -1.045135e+06
   1.586903e+06   7.906495e+05
  -6.386200e+05   9.565807e+05
  -1.870013e+06  -7.512319e+05
  -4.878839e+04  -2.086907e+06
   2.941587e+06  -1.407048e+06
   3.904599e+06   7.069494e+05
   1.848857e+06   2.877112e+06
  -1.723181e+06   4.215239e+06
  -4.638116e+06   3.836893e+06
  -5.326122e+06   1.038951e+06
  -3.461503e+06  -2.991513e+06
  -4.501495e+05  -5.232945e+06
   1.405050e+06  -4.065976e+06
   1.186872e+06  -1.445921e+06
   3.545092e+05  -3.979916e+05
   7.372386e+05  -1.129014e+06
   2.131651e+06  -1.263239e+06
   2.762276e+06   4.363239e+05
   1.655671e+06   2.344283e+06
  -3.814616e+05   2.261928e+06
  -1.839414e+06   1.102706e+05
  -1.689003e+06  -2.210768e+06
   1.741495e+05  -2.809169e+06
   2.644826e+06  -1.220727e+06
   3.741499e+06   1.443674e+06
   2.343587e+06   3.320928e+06
  -3.043983e+05   3.277268e+06
  -1.830106e+06   1.935738e+06
  -1.632013e+06   8.802537e+05
  -1.446864e+06   7.334954e+05
  -2.618690e+06   5.666751e+05
  -3.947337e+06  -6.287069e+05
  -3.195896e+06  -2.526771e+06
  -1.033013e+05  -3.843204e+06
   3.106880e+06  -3.602956e+06
   4.068407e+06  -1.785803e+06
   2.458401e+06   6.723204e+05
  -1.913278e+04   2.206951e+06
  -1.267855e+06   1.708074e+06
  -5.128196e+05  -1.308224e+05
   1.117883e+06  -1.179884e+06
   1.737181e+06  -3.079377e+05
   7.243940e+05   1.116681e+06
  -5.807529e+05   1.057196e+06
  -5.421061e+05  -3.252297e+05
   7.459971e+05  -8.441848e+05
   1.650194e+06   6.940729e+05
   9.811762e+05   2.846345e+06
  -8.715126e+05   3.328433e+06
  -2.651119e+06   1.579733e+06
  -3.328260e+06  -9.909083e+05
  -2.492396e+06  -2.646909e+06
  -5.335178e+05  -2.636157e+06
   1.257989e+06  -1.400272e+06
   1.550480e+06  -1.476740e+05
   4.664326e+05   5.047838e+04
  -3.346048e+05  -7.085788e+05
   3.577932e+05  -1.192962e+06
   1.694885e+06  -5.006936e+05
   1.841791e+06   7.652973e+05
   3.909370e+05   1.253596e+06
  -1.080098e+06   5.558058e+05
  -9.202518e+05  -4.165646e+05
   7.259250e+05  -6.178239e+05
   2.157105e+06   1.324329e+05
   1.856823e+06   1.268917e+06
  -1.239777e+05   1.996782e+06
  -2.211410e+06   1.662063e+06
  -2.649853e+06   2.674634e+05
  -1.119135e+06  -1.161156e+06
   8.593507e+05  -1.320420e+06
   1.381414e+06  -1.265603e+05
   1.166847e+05   9.778340e+05
  -1.425574e+06   6.567058e+05
  -1.619754e+06  -7.102953e+05
  -3.889892e+05  -1.544879e+06
   9.572644e+05  -9.937327e+05
   1.199177e+06   1.943845e+05
   3.014579e+05   6.944916e+05
  -6.982627e+05   5.306521e+04
  -6.590804e+05  -9.937647e+05
   5.889041e+05  -1.327906e+06
   1.921302e+06  -4.573885e+05
   1.899884e+06   1.038812e+06
   3.350710e+05   1.954782e+06
  -1.349157e+06   1.532845e+06
  -1.618395e+06   2.127193e+05
  -5.005928e+05  -8.039521e+05
   6.094048e+05  -7.754270e+05
   6.538774e+05  -6.775338e+04
  -5.962798e+04   4.268492e+05
  -5.292995e+05   2.987990e+05
  -2.697942e+05  -6.768578e+04
   3.283111e+05  -4.180195e+04
   5.142600e+05   5.306368e+05
  -1.357454e+05   1.094298e+06
  -1.289534e+06   8.510623e+05
  -1.967045e+06  -4.013471e+05
  -1.361786e+06  -1.855330e+06
   2.322286e+05  -2.317944e+06
   1.553425e+06  -1.395496e+06
   1.667490e+06   7.479103e+04
   9.203889e+05   9.116853e+05
   3.503527e+05   7.780411e+05
   3.818654e+05   3.242325e+05
   4.871707e+05   2.817381e+05
   5.437329e+04   6.635786e+05
  -8.073676e+05   8.605742e+05
  -1.392369e+06   3.504505e+05
  -1.067359e+06  -7.057409e+05
   1.927797e+05  -1.462768e+06
   1.649962e+06  -1.064128e+06
   2.165511e+06   4.618246e+05
   1.103186e+06   1.986285e+06
  -9.098891e+05   2.222607e+06
  -2.363519e+06   1.000858e+06
  -2.256442e+06  -5.632852e+05
  -1.011197e+06  -1.263480e+06
   1.288480e+05  -9.880874e+05
   4.331683e+05  -5.831879e+05
   2.129366e+05  -7.226846e+05
   1.877755e+05  -1.172084e+06
   6.391432e+05  -1.155451e+06
   1.196772e+06  -2.629299e+05
   1.242671e+06   1.054915e+06
   4.980915e+05   1.816968e+06
  -6.206579e+05   1.363016e+06
  -1.230089e+06   7.029070e+02
  -7.757879e+05  -1.189967e+06
   3.269833e+05  -1.309284e+06
   1.029379e+06  -4.357454e+05
   7.392277e+05   5.616733e+05
  -6.070059e+04   9.481939e+05
  -4.193558e+05   7.378223e+05
  -4.006145e+04   4.291179e+05
   3.934810e+05   3.490460e+05
   4.190474e+04   3.763985e+05
  -1.059868e+06   1.947058e+05
  -1.909390e+06  -3.265303e+05
  -1.521998e+06  -9.718352e+05
  -8.526164e+02  -1.311184e+06
   1.458186e+06  -1.036971e+06
   1.714998e+06  -2.836075e+05
   7.987586e+05   3.965804e+05
  -2.285884e+05   4.966049e+05
  -4.612748e+05   5.590030e+04
   7.133775e+03  -3.570837e+05
   4.527936e+05  -2.303690e+05
   4.454487e+05   3.346627e+05
   1.768004e+05   7.173768e+05
   3.155610e+04   4.698499e+05
   1.327248e+05  -1.298662e+05
   3.071510e+05  -3.318397e+05
   2.699680e+05   2.164560e+05
  -1.720852e+05   9.626745e+05
  -8.684946e+05   9.941468e+05
  -1.238432e+06   1.025593e+05
  -7.343927e+05  -8.942722e+05
   4.175336e+05  -1.027690e+06
   1.172988e+06  -2.457752e+05
   6.868789e+05   5.751023e+05
  -6.610196e+05   6.195790e+05
  -1.534973e+06  -7.451518e+04
  -1.023134e+06  -8.092929e+05
   4.111313e+05  -9.772054e+05
   1.439987e+06  -5.215720e+05
   1.220285e+06   1.472962e+05
   1.533675e+05   5.017267e+05
  -6.130850e+05   2.754634e+05
  -3.433692e+05  -2.709703e+05
   5.952210e+05  -4.702046e+05
   1.131913e+06   1.323663e+05
   5.830629e+05   1.166601e+06
  -6.450594e+05   1.611951e+06
  -1.465102e+06   7.991414e+05
  -1.195719e+06  -7.620312e+05
  -1.674230e+05  -1.735392e+06
   7.229982e+05  -1.261916e+06
   8.910221e+05   1.466309e+05
   4.333173e+05   1.140129e+06
  -1.757966e+05   9.457232e+05
  -5.253348e+05   9.018954e+04
  -4.756085e+05  -3.702813e+05
  -1.914061e+05  -1.391862e+05
  -3.302691e+04   9.939859e+04
  -2.129796e+05  -2.721550e+05
  -4.587393e+05  -9.278799e+05
  -2.128710e+05  -1.039555e+06
   6.438914e+05  -3.707437e+05
   1.419782e+06   4.642374e+05
   1.259041e+06   8.126661e+05
   1.729922e+05   6.649841e+05
  -8.584191e+05   3.954713e+05
  -9.583921e+05   1.783930e+05
  -3.157375e+05  -4.104514e+04
   1.556935e+05  -2.142105e+05
  -3.953997e+03  -2.084477e+05
  -2.969328e+05  -1.078025e+05
  -3.227241e+04  -1.340360e+05
   6.837206e+05  -2.118232e+05
   1.003686e+06   3.734469e+04
   3.496002e+05   6.760233e+05
  -8.654862e+05   1.105554e+06
  -1.624393e+06   6.716192e+05
  -1.309101e+06  -4.642548e+05
  -2.323277e+05  -1.365205e+06
   7.487387e+05  -1.297981e+06
   1.020848e+06  -4.784212e+05
   6.366500e+05   2.512916e+05
   1.081516e+05   3.491045e+05
  -1.041171e+05   4.837694e+04
   6.156542e+04  -3.677387e+04
   2.982300e+05   3.433544e+05
   2.409553e+05   7.772626e+05
  -1.901687e+05   6.448422e+05
  -6.653841e+05  -1.468338e+05
  -6.831687e+05  -9.515496e+05
  -6.044142e+04  -9.981224e+05
   7.542243e+05  -2.018934e+05
   9.822198e+05   7.376773e+05
   2.996807e+05   1.055454e+06
  -7.051972e+05   6.201395e+05
  -1.061251e+06  -9.910739e+04
  -4.801841e+05  -5.786117e+05
   2.893840e+05  -6.193702e+05
   3.455356e+05  -3.360335e+05
  -2.683751e+05  -1.618280e+04
  -6.336468e+05   2.657496e+04
  -1.260191e+05  -2.950259e+05
   8.018309e+05  -6.458966e+05
   1.189257e+06  -5.181920e+05
   6.977633e+05   1.654147e+05
  -1.091279e+05   8.243262e+05
  -5.207873e+05   7.989698e+05
  -3.889244e+05   1.236307e+05
  -3.381821e+04  -4.763504e+05
   2.444465e+05  -4.022084e+05
   3.443066e+05   1.697255e+05
   2.334255e+05   5.604454e+05
  -6.818301e+04   3.898915e+05
  -3.771221e+05  -5.874205e+04
  -4.412127e+05  -2.613571e+05
  -2.279592e+05  -8.089944e+04
   1.424120e+04   1.290642e+05
   6.880975e+04   3.896331e+03
   2.230152e+04  -3.639731e+05
   1.086443e+05  -5.142966e+05
   3.356884e+05  -1.666047e+05
   4.117456e+05   4.069287e+05
   1.016368e+05   6.396377e+05
  -4.117299e+05   2.889205e+05
  -6.240641e+05  -2.969092e+05
  -2.274766e+05  -5.675468e+05
   4.867427e+05  -3.399774e+05
   8.371547e+05   9.788209e+04
   4.493971e+05   3.717974e+05
  -2.922914e+05   3.640095e+05
  -6.171565e+05   1.884456e+05
  -2.240953e+05   5.987305e+03
   3.641843e+05  -4.968271e+04
   4.082017e+05   8.936820e+04
  -1.818319e+05   2.989765e+05
  -7.525688e+05   2.601906e+05
