
 $NMID
 id='ANONYMOUS ', fmtdat='(2E16.6)'
 volume=1.0
 tramp=1.0
 $END
  -9.291579e+05  -8.154306e+05
   7.539948e+04  -1.061498e+06
   7.462941e+05  -4.372726e+05
   5.672278e+05   2.496843e+05
   2.553219e+04   3.536340e+05
  -2.063384e+05   4.190578e+04
  -5.510534e+04  -1.765664e+05
   1.370148e+05  -1.301950e+05
   1.769078e+05   1.511617e+04
   1.187078e+05   1.222055e+05
   2.709702e+04   1.699531e+05
  -7.216425e+04   1.311019e+05
  -1.020169e+05   6.851036e+03
  -1.254048e+04  -8.244127e+04
   9.355867e+04  -2.051633e+04
   6.941851e+04   1.277458e+05
  -7.696573e+04   1.920226e+05
  -2.084683e+05   1.091106e+05
  -2.354599e+05  -4.505532e+04
  -1.616871e+05  -1.805728e+05
  -1.666952e+04  -2.414701e+05
   1.373057e+05  -1.850511e+05
   1.855658e+05  -3.687846e+04
   8.188844e+04   7.058273e+04
  -4.359653e+04   3.475280e+04
  -2.608140e+04  -6.573650e+04
   1.059470e+05  -6.929823e+04
   1.713013e+05   4.264723e+04
   8.998453e+04   1.364948e+05
  -3.648503e+04   1.269310e+05
  -9.821741e+04   5.969357e+04
  -9.297640e+04  -4.104036e+03
  -5.068549e+04  -5.390178e+04
   2.020344e+04  -6.419247e+04
   7.075698e+04   1.799572e+03
   2.678902e+04   8.614690e+04
  -7.664117e+04   6.569214e+04
  -9.820820e+04  -5.717675e+04
   2.848208e+03  -1.219551e+05
   8.466474e+04  -4.378430e+04
   3.856554e+04   4.796990e+04
  -3.274952e+04   1.328614e+04
   1.846650e+04  -6.975799e+04
   1.342764e+05  -2.795884e+04
   1.282469e+05   1.254182e+05
  -2.915069e+04   1.984733e+05
  -1.653665e+05   9.596055e+04
  -1.497649e+05  -6.303159e+04
  -4.080220e+04  -1.243325e+05
   3.917596e+04  -7.293511e+04
   5.302106e+04   8.929419e+03
   2.619634e+04   5.584935e+04
  -2.094060e+04   4.411985e+04
  -5.807906e+04  -1.695782e+04
  -4.117376e+04  -7.123060e+04
   1.798029e+04  -5.640348e+04
   4.299029e+04   5.169144e+03
   5.169374e+03   2.077854e+04
  -2.081162e+04  -3.464345e+04
   2.886104e+04  -6.992504e+04
   1.007500e+05  -1.403054e+04
   1.022099e+05   7.543812e+04
   3.359762e+04   1.057874e+05
  -3.488915e+04   8.250044e+04
  -7.609901e+04   6.565805e+04
  -1.087674e+05   4.882871e+04
  -1.158799e+05  -1.540998e+04
  -5.814722e+04  -9.684344e+04
   3.204817e+04  -1.047628e+05
   6.256475e+04  -2.979415e+04
   8.924886e+03   2.835160e+04
  -4.557225e+04   1.556111e+03
  -2.675012e+04  -5.787038e+04
   3.702823e+04  -6.555157e+04
   7.253585e+04  -1.696186e+04
   5.744159e+04   3.204905e+04
   1.904419e+04   4.576679e+04
  -1.619040e+04   2.555773e+04
  -2.881379e+04  -1.379380e+04
  -1.903359e+02  -4.203908e+04
   5.419049e+04  -2.058172e+04
   7.423336e+04   4.646372e+04
   2.396858e+04   9.494908e+04
  -5.048389e+04   7.416611e+04
  -7.567266e+04   1.393872e+04
  -4.608474e+04  -2.054482e+04
  -1.906964e+04  -1.670697e+04
  -2.648571e+04  -1.283545e+04
  -4.037679e+04  -2.779755e+04
  -2.686498e+04  -4.290081e+04
   9.699304e+03  -4.538010e+04
   4.453946e+04  -4.123079e+04
   5.976414e+04  -2.640096e+04
   4.639673e+04   8.301835e+03
   9.935197e+03   4.120498e+04
  -1.959461e+04   3.537621e+04
  -1.297344e+04  -1.568889e+03
   1.655638e+04  -1.884623e+04
   2.701641e+04   3.092085e+03
   8.263803e+03   2.521576e+04
  -6.392865e+03   1.679389e+04
   1.270335e+03   3.225202e+03
   4.884796e+03   1.561157e+04
  -1.644923e+04   3.347784e+04
  -3.736570e+04   2.028395e+04
  -2.777420e+04  -1.291711e+04
  -4.334962e+03  -2.602847e+04
  -1.605083e+03  -1.452025e+04
  -1.393061e+04  -8.752334e+03
  -9.084978e+03  -1.741328e+04
   1.298873e+04  -1.801248e+04
   2.030112e+04  -4.207998e+03
   5.375155e+03   1.454220e+03
  -2.110949e+03  -9.066436e+03
   1.311624e+04  -1.240477e+04
   2.664931e+04   4.787749e+03
   1.577757e+04   2.109359e+04
  -5.784830e+03   1.585925e+04
  -1.335673e+04   1.375058e+03
  -6.228638e+03  -1.499833e+03
   2.205105e+03   3.850666e+03
   7.964507e+03   4.143726e+03
   1.024726e+04   3.187672e+03
   5.793499e+02   9.394846e+03
  -1.990797e+04   1.220330e+04
  -2.807236e+04  -1.688744e+03
  -7.694254e+03  -1.896775e+04
   2.044562e+04  -1.476421e+04
   2.234352e+04   7.434879e+03
  -2.134937e+03   1.806126e+04
  -2.065128e+04   4.455932e+03
  -1.412638e+04  -1.310115e+04
   3.088602e+03  -1.336366e+04
   1.025445e+04  -8.024305e+02
   5.050383e+03   7.601366e+03
  -3.842734e+03   4.971166e+03
  -9.674964e+03  -4.845099e+03
  -6.282628e+03  -1.527415e+04
   9.357610e+03  -1.730679e+04
   2.559771e+04  -4.126519e+03
   2.260367e+04   1.633926e+04
  -7.806026e+02   2.456422e+04
  -2.056204e+04   1.306629e+04
  -1.760871e+04  -3.455618e+03
  -1.186687e+03  -8.978028e+03
   8.121239e+03  -5.622293e+03
   6.325625e+03  -3.254876e+03
   3.399068e+03  -1.682813e+03
   3.103028e+03   4.146771e+03
   1.186715e+03   1.055743e+04
  -2.393661e+03   1.084574e+04
  -4.433611e+03   7.974388e+03
  -7.828243e+03   7.692216e+03
  -1.601591e+04   4.731647e+03
  -2.116551e+04  -8.738139e+03
  -1.245030e+04  -2.462077e+04
   5.152528e+03  -2.581423e+04
   1.501048e+04  -1.148566e+04
   1.235847e+04   1.025830e+03
   9.036502e+03   1.928802e+03
   1.234324e+04   5.038180e+02
   1.416258e+04   5.962777e+03
   6.717030e+03   1.239651e+04
  -4.387444e+03   1.120989e+04
  -1.048431e+04   5.358022e+03
  -1.153629e+04   1.056279e+03
  -9.170070e+03  -3.429481e+03
   4.326754e+02  -9.318215e+03
   1.566094e+04  -7.815550e+03
   2.146164e+04   6.822012e+03
   6.440801e+03   2.180203e+04
  -1.757980e+04   1.912252e+04
  -2.740874e+04   1.409806e+03
  -1.761465e+04  -1.089765e+04
  -4.470179e+03  -8.184395e+03
  -1.301232e+03  -2.589131e+03
  -3.518459e+03  -7.137163e+03
  -9.815232e+02  -1.751748e+04
   6.961173e+03  -2.103952e+04
   1.436422e+04  -1.335155e+04
   1.740399e+04   8.268555e+02
   1.427494e+04   1.514695e+04
   3.925859e+03   2.243619e+04
  -8.761721e+03   1.580510e+04
  -1.284539e+04  -1.901942e+03
  -3.648631e+03  -1.496127e+04
   8.788109e+03  -1.062167e+04
   1.043256e+04   4.571600e+03
   1.728189e+02   1.289965e+04
  -9.789433e+03   8.041730e+03
  -9.102912e+03   4.795507e+02
  -2.952185e+01   4.503149e+02
   6.278262e+03   4.925309e+03
   1.085935e+03   4.782457e+03
  -1.297349e+04  -2.265666e+03
  -2.212433e+04  -1.073760e+04
  -1.388192e+04  -1.495101e+04
   7.618922e+03  -1.296465e+04
   2.288836e+04  -5.780983e+03
   1.833146e+04   2.963621e+03
   2.076655e+03   7.633924e+03
  -7.380851e+03   4.718966e+03
  -3.962708e+03  -2.946390e+03
   3.013408e+03  -7.791836e+03
   5.494496e+03  -4.352920e+03
   5.160418e+03   5.159454e+03
   4.737202e+03   1.205830e+04
   2.337499e+03   9.322318e+03
  -1.560999e+03  -3.939716e+01
  -1.628245e+03  -4.633281e+03
   1.890017e+03   2.130541e+03
  -4.559602e+02   1.206988e+04
  -1.222562e+04   1.076205e+04
  -2.030693e+04  -3.593923e+03
  -1.054876e+04  -1.622299e+04
   1.015422e+04  -1.383077e+04
   1.979522e+04  -8.956809e+02
   9.007618e+03   7.462326e+03
  -8.285771e+03   4.652308e+03
  -1.408465e+04  -2.438173e+03
  -6.212889e+03  -5.614564e+03
   4.907312e+03  -4.373014e+03
   1.048522e+04  -1.759556e+03
   8.392986e+03   1.176600e+03
   8.606569e+02   3.143601e+03
  -5.694956e+03   7.253191e+02
  -3.189590e+03  -5.755302e+03
   8.377924e+03  -8.099985e+03
   1.660010e+04   1.319438e+03
   9.541983e+03   1.726305e+04
  -8.251153e+03   2.382583e+04
  -1.966745e+04   1.179582e+04
  -1.504150e+04  -9.354278e+03
  -1.743531e+03  -2.041454e+04
   7.138655e+03  -1.276936e+04
   7.025304e+03   3.197755e+03
   2.070660e+03   1.090963e+04
  -2.800117e+03   6.022475e+03
  -5.224081e+03  -1.299594e+03
  -4.321135e+03  -1.633524e+03
  -1.386959e+03   1.699418e+03
  -2.322586e+02  -5.370918e+02
  -2.703484e+03  -8.696515e+03
  -4.644088e+03  -1.322601e+04
  -2.355740e+02  -8.300236e+03
   9.467991e+03   6.521309e+02
   1.585438e+04   5.816099e+03
   1.199304e+04   7.006007e+03
   5.480780e+02   7.806949e+03
  -8.898492e+03   7.070618e+03
  -9.494618e+03   1.815670e+03
  -3.310583e+03  -4.206455e+03
   1.658998e+03  -3.717397e+03
   4.132499e+02   2.069241e+03
  -3.297843e+03   3.428182e+03
  -1.422797e+03  -2.911327e+03
   7.372340e+03  -6.886303e+03
   1.344579e+04   9.037632e+02
   6.329995e+03   1.415912e+04
  -1.136004e+04   1.759032e+04
  -2.427241e+04   6.137065e+03
  -2.031187e+04  -9.811706e+03
  -3.434887e+03  -1.776252e+04
   1.168864e+04  -1.499448e+04
   1.522556e+04  -6.593238e+03
   9.347077e+03   1.675651e+03
   2.012715e+03   5.936258e+03
  -1.586260e+03   4.983522e+03
  -1.023185e+03   2.229267e+03
   1.313031e+03   3.296137e+03
   1.585416e+03   8.175992e+03
  -3.072783e+03   9.010293e+03
  -1.013472e+04  -2.845153e+01
  -1.150800e+04  -1.284962e+04
  -2.076368e+03  -1.651667e+04
   1.157153e+04  -6.195597e+03
   1.553263e+04   8.940888e+03
   4.252242e+03   1.559811e+04
  -1.129860e+04   9.341671e+03
  -1.506679e+04  -2.941501e+03
  -4.416349e+03  -1.079243e+04
   7.202393e+03  -9.130020e+03
   6.895769e+03  -1.579947e+03
  -2.634789e+03   3.480234e+03
  -7.835285e+03   1.110824e+03
  -1.415649e+03  -5.151914e+03
   9.828700e+03  -7.234973e+03
   1.419016e+04  -1.588629e+03
   7.885486e+03   7.068310e+03
  -2.926999e+03   1.115027e+04
  -9.820115e+03   7.571000e+03
  -9.010375e+03  -4.854756e+02
  -2.439789e+03  -6.809988e+03
   4.598572e+03  -6.455045e+03
   6.870882e+03   4.467629e+02
   2.970348e+03   7.463700e+03
  -3.187073e+03   7.103021e+03
  -5.981796e+03  -3.224231e+02
  -3.958559e+03  -5.661594e+03
  -1.026746e+03  -2.213655e+03
  -1.255904e+03   4.368474e+03
  -3.720197e+03   2.866102e+03
  -3.698378e+03  -7.383156e+03
   1.424544e+03  -1.380624e+04
   8.398999e+03  -6.774912e+03
   1.056419e+04   7.062612e+03
   4.399780e+03   1.282444e+04
  -5.837526e+03   5.698998e+03
  -1.069700e+04  -4.791599e+03
  -4.606415e+03  -7.990844e+03
   7.187230e+03  -3.415622e+03
   1.274710e+04   2.559362e+03
   6.037845e+03   5.694435e+03
  -6.001773e+03   5.710278e+03
  -1.094758e+04   2.853047e+03
  -4.606786e+03  -2.026667e+03
   5.060222e+03  -4.977840e+03
   7.570286e+03  -1.814217e+03
   1.015110e+03   5.122035e+03
  -7.191718e+03   7.220202e+03
