
 $NMID
 id='ANONYMOUS ', fmtdat='(2E16.6)'
 volume=1.0
 tramp=1.0
 $END
   5.579492e+07  -2.210552e+06
   3.502430e+07   3.298397e+07
  -5.672973e+06   3.797652e+07
  -2.665435e+07   1.584676e+07
  -1.670404e+07  -6.026573e+06
   2.780249e+06  -9.393266e+06
   9.827159e+06   6.391543e+05
   3.306656e+06   9.542626e+06
  -5.664946e+06   9.673091e+06
  -9.503209e+06   2.503326e+06
  -7.237115e+06  -5.898106e+06
  -1.161353e+06  -8.583858e+06
   3.890725e+06  -2.870370e+06
   2.879519e+06   5.411702e+06
  -3.452715e+06   6.780927e+06
  -7.895756e+06  -9.419346e+05
  -4.880386e+06  -9.957126e+06
   3.241629e+06  -1.189950e+07
   9.794076e+06  -6.274257e+06
   1.079517e+07   1.637739e+06
   6.803385e+06   7.168278e+06
   9.856737e+05   8.473969e+06
  -2.571863e+06   6.034943e+06
  -1.558362e+06   2.781252e+06
   1.305377e+06   2.257294e+06
   3.775579e+05   4.286228e+06
  -5.349792e+06   4.610754e+06
  -9.720603e+06   8.110857e+05
  -7.190284e+06  -3.897183e+06
  -3.553896e+05  -5.046225e+06
   3.721041e+06  -2.654493e+06
   2.479727e+06   6.962666e+03
  -7.051948e+05   1.068030e+06
  -2.429728e+06   5.643460e+05
  -2.297404e+06  -1.477093e+06
  -7.702963e+05  -4.000865e+06
   1.693800e+06  -3.886756e+06
   3.157960e+06   5.973759e+04
   1.753883e+06   3.550641e+06
  -7.054206e+05   1.835682e+06
  -3.859474e+05  -2.554214e+06
   2.395606e+06  -2.454543e+06
   2.598576e+06   3.056864e+06
  -2.079423e+06   6.191273e+06
  -6.760620e+06   1.316257e+06
  -5.337662e+06  -6.621708e+06
   1.510023e+06  -8.514156e+06
   7.273819e+06  -2.703501e+06
   7.170089e+06   4.149247e+06
   2.161781e+06   5.979724e+06
  -3.365763e+06   2.916572e+06
  -5.396164e+06  -1.263026e+06
  -2.647003e+06  -3.381377e+06
   2.284560e+06  -2.318439e+06
   4.561015e+06   7.026149e+05
   2.083279e+06   2.613910e+06
  -1.647412e+06   1.441453e+06
  -1.817208e+06  -9.498897e+05
   1.222864e+06  -1.020106e+06
   2.552156e+06   1.542929e+06
  -3.674649e+05   3.378585e+06
  -4.425682e+06   2.106464e+06
  -5.319187e+06  -1.055570e+06
  -2.500549e+06  -3.827847e+06
   1.611133e+06  -5.343577e+06
   4.889621e+06  -5.053968e+06
   6.170094e+06  -1.965050e+06
   4.688557e+06   3.021828e+06
   1.170285e+06   6.175538e+06
  -1.642324e+06   4.898372e+06
  -1.685747e+06   1.376813e+06
  -2.204108e+05  -1.580382e+05
  -4.844644e+04   1.020388e+06
  -1.653059e+06   1.827651e+06
  -2.879097e+06   2.646816e+05
  -2.115699e+06  -1.968334e+06
  -5.322653e+04  -2.230747e+06
   1.642171e+06  -2.598489e+05
   1.824549e+06   2.099072e+06
   1.018509e+05   3.014961e+06
  -2.765812e+06   1.763440e+06
  -4.556284e+06  -1.069271e+06
  -3.360098e+06  -3.668059e+06
  -1.143211e+05  -4.220733e+06
   2.157311e+06  -2.792304e+06
   2.164710e+06  -1.240308e+06
   1.810669e+06  -7.969109e+05
   2.979131e+06  -6.364737e+05
   4.476764e+06   5.827638e+05
   3.684947e+06   2.682158e+06
   3.044122e+05   4.229447e+06
  -3.143974e+06   4.131862e+06
  -4.218072e+06   2.322639e+06
  -2.738592e+06  -3.600306e+05
  -3.362907e+05  -2.297111e+06
   1.081883e+06  -2.015899e+06
   5.777801e+05   2.683395e+04
  -1.077457e+06   1.384830e+06
  -1.937801e+06   4.817867e+05
  -9.799479e+05  -1.197562e+06
   5.000997e+05  -1.168730e+06
   4.775532e+05   3.807239e+05
  -1.037786e+06   7.927089e+05
  -1.961009e+06  -1.176379e+06
  -8.660534e+05  -3.509031e+06
   1.416530e+06  -3.601918e+06
   3.154920e+06  -1.348931e+06
   3.497185e+06   1.307379e+06
   2.497063e+06   2.760932e+06
   5.830683e+05   2.693083e+06
  -1.229691e+06   1.559644e+06
  -1.623270e+06   2.899200e+05
  -5.100963e+05  -2.831503e+04
   3.998235e+05   7.615811e+05
  -3.677576e+05   1.393522e+06
  -1.933254e+06   6.711399e+05
  -2.128199e+06  -8.257732e+05
  -4.587104e+05  -1.439592e+06
   1.185568e+06  -6.391748e+05
   9.450326e+05   4.353752e+05
  -8.507099e+05   5.848539e+05
  -2.276364e+06  -2.294133e+05
  -1.874479e+06  -1.334147e+06
   1.708715e+05  -2.059229e+06
   2.322521e+06  -1.807794e+06
   2.856240e+06  -3.923696e+05
   1.305038e+06   1.255403e+06
  -8.873842e+05   1.579435e+06
  -1.595037e+06   2.547755e+05
  -2.450925e+05  -1.103740e+06
   1.537006e+06  -8.185718e+05
   1.807012e+06   7.381661e+05
   4.189909e+05   1.694893e+06
  -1.086482e+06   1.058870e+06
  -1.314671e+06  -2.666953e+05
  -2.901736e+05  -7.970194e+05
   8.178962e+05  -8.937905e+04
   8.013201e+05   1.059289e+06
  -5.413268e+05   1.493898e+06
  -2.055198e+06   6.371938e+05
  -2.144444e+06  -1.007712e+06
  -4.770968e+05  -2.129648e+06
   1.423828e+06  -1.754358e+06
   1.776646e+06  -2.854698e+05
   5.549324e+05   8.788193e+05
  -6.498073e+05   8.579592e+05
  -6.559322e+05   1.026572e+05
   1.063008e+05  -3.840110e+05
   5.054978e+05  -2.406143e+05
   1.390816e+05   6.530490e+04
  -4.615919e+05  -5.342146e+04
  -5.640746e+05  -6.681866e+05
   1.634060e+05  -1.234047e+06
   1.393091e+06  -9.800188e+05
   2.168286e+06   3.470979e+05
   1.589636e+06   1.952594e+06
  -1.307800e+05   2.512785e+06
  -1.616738e+06   1.526437e+06
  -1.755992e+06  -6.296455e+04
  -9.265387e+05  -8.983990e+05
  -3.538547e+05  -6.714904e+05
  -4.959435e+05  -2.137783e+05
  -6.542819e+05  -2.966995e+05
  -1.228806e+05  -7.822306e+05
   8.693408e+05  -9.657941e+05
   1.485580e+06  -3.939486e+05
   1.116211e+06   7.075589e+05
  -2.004500e+05   1.522941e+06
  -1.739444e+06   1.177904e+06
  -2.344369e+06  -4.125464e+05
  -1.255561e+06  -2.127060e+06
   9.489702e+05  -2.485015e+06
   2.586479e+06  -1.167238e+06
   2.458394e+06   5.875424e+05
   1.045532e+06   1.348017e+06
  -1.741895e+05   9.910247e+05
  -3.868368e+05   5.466834e+05
  -5.815069e+04   7.804456e+05
  -5.888125e+04   1.350893e+06
  -6.416924e+05   1.355384e+06
  -1.323056e+06   3.791538e+05
  -1.424395e+06  -1.064946e+06
  -6.493344e+05  -1.937300e+06
   5.872877e+05  -1.510356e+06
   1.329873e+06  -4.838212e+04
   8.908636e+05   1.293977e+06
  -3.469898e+05   1.458651e+06
  -1.183754e+06   4.678180e+05
  -8.658635e+05  -6.847174e+05
   8.203594e+04  -1.114592e+06
   5.204286e+05  -8.305685e+05
   7.054173e+04  -4.352086e+05
  -4.604072e+05  -3.306369e+05
  -7.659756e+04  -3.940525e+05
   1.178197e+06  -2.626698e+05
   2.144507e+06   2.617416e+05
   1.712878e+06   1.007465e+06
   1.918666e+04   1.484190e+06
  -1.596320e+06   1.241644e+06
  -1.882609e+06   3.600856e+05
  -8.824929e+05  -4.764984e+05
   2.465108e+05  -5.978769e+05
   5.274080e+05  -5.581228e+04
   4.829283e+04   4.330516e+05
  -4.478212e+05   2.845470e+05
  -5.116365e+05  -3.341897e+05
  -2.910411e+05  -7.369033e+05
  -1.186962e+05  -4.912130e+05
  -1.384917e+05   1.032272e+05
  -2.772504e+05   3.129521e+05
  -2.939473e+05  -2.292323e+05
   1.062738e+05  -1.025129e+06
   8.866499e+05  -1.138960e+06
   1.402098e+06  -2.379558e+05
   9.199693e+05   9.102927e+05
  -3.822711e+05   1.196650e+06
  -1.287581e+06   4.025655e+05
  -7.825776e+05  -5.618132e+05
   7.008952e+05  -6.985068e+05
   1.645806e+06   3.765941e+04
   1.071079e+06   8.544467e+05
  -4.648735e+05   1.040306e+06
  -1.531221e+06   5.498310e+05
  -1.280336e+06  -1.517304e+05
  -1.571611e+05  -5.260049e+05
   6.621508e+05  -3.025648e+05
   4.113850e+05   2.900202e+05
  -5.809206e+05   5.675082e+05
  -1.228367e+06  -2.906148e+04
  -7.511501e+05  -1.191101e+06
   5.295956e+05  -1.790579e+06
   1.494057e+06  -9.861432e+05
   1.333576e+06   7.271252e+05
   2.877443e+05   1.844694e+06
  -7.119337e+05   1.367266e+06
  -9.643315e+05  -1.495031e+05
  -4.905718e+05  -1.217322e+06
   1.953023e+05  -1.008496e+06
   5.812852e+05  -1.072016e+05
   4.920069e+05   3.701418e+05
   1.676457e+05   1.334707e+05
   4.937926e+04  -9.859659e+04
   3.136058e+05   2.985779e+05
   5.733471e+05   9.810432e+05
   2.337549e+05   1.107437e+06
  -7.345454e+05   4.381350e+05
  -1.545611e+06  -4.180594e+05
  -1.351673e+06  -8.121292e+05
  -2.204662e+05  -7.176702e+05
   8.560813e+05  -4.721885e+05
   1.007952e+06  -2.277196e+05
   3.844498e+05   4.476961e+04
  -1.368325e+05   2.411183e+05
  -4.036488e+04   2.083764e+05
   2.650255e+05   7.910453e+04
   6.394531e+04   1.346051e+05
  -6.595431e+05   2.800237e+05
  -1.087083e+06   4.145426e+04
  -5.026028e+05  -6.989934e+05
   8.023698e+05  -1.269134e+06
   1.736011e+06  -8.761652e+05
   1.502351e+06   3.704217e+05
   3.586578e+05   1.441592e+06
  -7.334619e+05   1.468268e+06
  -1.062232e+06   6.196421e+05
  -6.881260e+05  -1.999982e+05
  -1.632958e+05  -3.651776e+05
   5.502454e+04  -8.178039e+04
  -8.910874e+04   1.005414e+04
  -3.214766e+05  -3.722297e+05
  -2.884160e+05  -8.264768e+05
   1.488855e+05  -7.168023e+05
   7.085081e+05   7.943654e+04
   8.244540e+05   9.370380e+05
   1.925208e+05   1.065106e+06
  -7.563587e+05   3.129537e+05
  -1.115422e+06  -6.770822e+05
  -4.294253e+05  -1.112521e+06
   7.011845e+05  -7.529871e+05
   1.172841e+06   1.432235e+04
   5.936987e+05   6.204146e+05
  -2.636479e+05   7.351929e+05
  -3.900564e+05   4.054775e+05
   2.393846e+05  -9.411716e+03
   6.667651e+05  -7.678527e+04
   1.740351e+05   3.151023e+05
  -8.215123e+05   7.434993e+05
  -1.293992e+06   6.112730e+05
  -8.177554e+05  -1.585662e+05
   5.344591e+04  -9.135207e+05
   5.441946e+05  -9.240579e+05
   4.507448e+05  -2.036539e+05
   9.016158e+04   4.861405e+05
  -2.214558e+05   4.739285e+05
  -3.712089e+05  -1.174892e+05
  -2.964879e+05  -5.845901e+05
   2.705362e+04  -4.611643e+05
   4.083140e+05   1.810699e+04
   5.143788e+05   2.776793e+05
   2.570752e+05   9.793531e+04
  -5.266981e+04  -1.670046e+05
  -8.934235e+04  -6.844006e+04
   5.483262e+04   3.539389e+05
   1.257157e+04   5.910760e+05
  -3.068752e+05   2.752764e+05
  -5.182432e+05  -3.468344e+05
  -2.288504e+05  -6.593342e+05
   3.969354e+05  -3.568618e+05
   7.158191e+05   2.413159e+05
   3.034965e+05   5.733144e+05
  -5.118643e+05   4.095333e+05
  -9.300978e+05  -2.162324e+04
  -5.229175e+05  -3.649423e+05
   2.823418e+05  -4.450490e+05
   6.547646e+05  -2.887347e+05
   2.732967e+05  -3.624091e+04
  -3.341722e+05   1.043068e+05
  -4.173692e+05  -2.287583e+04
   1.417966e+05  -2.980556e+05
   7.279377e+05  -3.223077e+05
