
 $NMID
 id='ANONYMOUS ', fmtdat='(2E16.6)'
 volume=1.0
 tramp=1.0
 $END
  -4.189682e+07  -1.848254e+06
  -2.430776e+07  -2.560646e+07
   5.736537e+06  -2.744254e+07
   2.013866e+07  -1.127353e+07
   1.227986e+07   4.131839e+06
  -2.014638e+06   6.779439e+06
  -7.272003e+06  -1.707765e+05
  -2.642817e+06  -7.008726e+06
   4.105114e+06  -7.582964e+06
   7.190945e+06  -1.993283e+06
   5.394215e+06   4.928205e+06
   5.192299e+05   6.929290e+06
  -3.306446e+06   1.933346e+06
  -2.242916e+06  -4.754981e+06
   2.733540e+06  -5.527855e+06
   5.971951e+06   7.996089e+05
   3.428158e+06   7.775004e+06
  -2.905657e+06   8.971089e+06
  -7.789136e+06   4.226790e+06
  -8.060532e+06  -2.060672e+06
  -4.398878e+06  -5.938888e+06
   1.026344e+05  -6.143283e+06
   2.058845e+06  -3.879507e+06
   4.622677e+05  -1.941811e+06
  -1.636383e+06  -2.408906e+06
  -8.611132e+03  -4.053809e+06
   5.078497e+06  -3.516730e+06
   8.214288e+06   1.240067e+05
   5.456075e+06   3.735260e+06
  -4.669395e+05   4.104635e+06
  -3.664181e+06   1.710287e+06
  -2.131024e+06  -7.011839e+05
   1.129577e+06  -1.456311e+06
   2.765521e+06  -4.322582e+05
   2.106754e+06   1.860207e+06
   1.356289e+05   3.762943e+06
  -1.813591e+06   2.864401e+06
  -2.238544e+06  -7.067381e+05
  -7.017653e+05  -2.955334e+06
   8.348249e+05  -8.703303e+05
   4.230627e+04   2.616717e+06
  -2.093943e+06   2.084525e+06
  -1.952086e+06  -2.346406e+06
   1.554079e+06  -4.486444e+06
   4.725964e+06  -6.127474e+05
   3.493910e+06   5.142194e+06
  -1.478028e+06   6.183504e+06
  -5.660982e+06   1.640740e+06
  -5.609251e+06  -3.501255e+06
  -1.759053e+06  -4.835751e+06
   2.710495e+06  -2.415552e+06
   4.454234e+06   9.395558e+05
   2.267781e+06   2.647444e+06
  -1.688209e+06   1.759800e+06
  -3.493066e+06  -6.147064e+05
  -1.581145e+06  -2.004108e+06
   1.298804e+06  -1.039929e+06
   1.528473e+06   7.594673e+05
  -6.829057e+05   8.668943e+05
  -1.808899e+06  -8.624887e+05
   1.020253e+05  -2.131879e+06
   3.043346e+06  -1.354755e+06
   3.879720e+06   7.772763e+05
   1.810019e+06   2.882563e+06
  -1.623630e+06   4.186734e+06
  -4.436026e+06   3.868211e+06
  -5.205891e+06   1.151335e+06
  -3.506299e+06  -2.861632e+06
  -5.537498e+05  -5.126820e+06
   1.357531e+06  -3.959678e+06
   1.162227e+06  -1.322976e+06
   2.517558e+05  -3.017724e+05
   5.476323e+05  -1.120431e+06
   1.951364e+06  -1.364163e+06
   2.686552e+06   2.525554e+05
   1.710204e+06   2.150721e+06
  -2.405691e+05   2.166777e+06
  -1.706843e+06   1.818193e+05
  -1.661271e+06  -2.037884e+06
   8.338186e+04  -2.700771e+06
   2.530456e+06  -1.274932e+06
   3.709575e+06   1.298110e+06
   2.398932e+06   3.224839e+06
  -2.418961e+05   3.276908e+06
  -1.814568e+06   1.962889e+06
  -1.636377e+06   8.674578e+05
  -1.410088e+06   6.931924e+05
  -2.513733e+06   5.604548e+05
  -3.809864e+06  -5.561452e+05
  -3.115414e+06  -2.382245e+06
  -1.679949e+05  -3.688994e+06
   2.903469e+06  -3.526346e+06
   3.860566e+06  -1.829267e+06
   2.396494e+06   5.589313e+05
   7.435758e+04   2.120647e+06
  -1.155919e+06   1.696145e+06
  -5.044693e+05  -1.019561e+05
   1.039459e+06  -1.166879e+06
   1.674479e+06  -3.325101e+05
   7.361590e+05   1.071714e+06
  -5.221802e+05   1.029824e+06
  -4.996742e+05  -2.980144e+05
   7.272588e+05  -7.716151e+05
   1.569106e+06   7.278362e+05
   8.957452e+05   2.751906e+06
  -8.690839e+05   3.136628e+06
  -2.520322e+06   1.449877e+06
  -3.142820e+06  -9.341192e+05
  -2.381607e+06  -2.456879e+06
  -5.545203e+05  -2.479217e+06
   1.164605e+06  -1.367861e+06
   1.478340e+06  -1.850146e+05
   4.482109e+05   3.887659e+04
  -3.336361e+05  -6.736949e+05
   3.332588e+05  -1.159104e+06
   1.636861e+06  -5.086260e+05
   1.785663e+06   7.197059e+05
   3.851535e+05   1.206487e+06
  -1.028575e+06   5.466694e+05
  -8.745456e+05  -3.787791e+05
   6.871081e+05  -5.771236e+05
   2.038687e+06   1.098148e+05
   1.764916e+06   1.168182e+06
  -9.148255e+04   1.883366e+06
  -2.076434e+06   1.616887e+06
  -2.528694e+06   3.034259e+05
  -1.095019e+06  -1.101614e+06
   8.102384e+05  -1.296369e+06
   1.341755e+06  -1.466115e+05
   1.377735e+05   9.485765e+05
  -1.359360e+06   6.603213e+05
  -1.562847e+06  -6.577989e+05
  -3.860284e+05  -1.470660e+06
   9.070368e+05  -9.503316e+05
   1.142105e+06   1.819955e+05
   2.851613e+05   6.621272e+05
  -6.775994e+05   5.815995e+04
  -6.552421e+05  -9.443989e+05
   5.350582e+05  -1.289876e+06
   1.834018e+06  -4.834825e+05
   1.847033e+06   9.565799e+05
   3.592833e+05   1.871068e+06
  -1.270286e+06   1.494769e+06
  -1.548425e+06   2.281140e+05
  -4.875651e+05  -7.626805e+05
   5.716188e+05  -7.497278e+05
   6.163474e+05  -8.178205e+04
  -5.138139e+04   3.906163e+05
  -4.819429e+05   2.834745e+05
  -2.334604e+05  -4.579459e+04
   3.204489e+05  -1.755387e+04
   4.884618e+05   5.155680e+05
  -1.239633e+05   1.050511e+06
  -1.223518e+06   8.354712e+05
  -1.892879e+06  -3.488758e+05
  -1.342755e+06  -1.753181e+06
   1.749985e+05  -2.222522e+06
   1.454492e+06  -1.355927e+06
   1.582950e+06   4.446010e+04
   8.841000e+05   8.368836e+05
   3.544301e+05   7.068328e+05
   3.937429e+05   2.896729e+05
   4.888332e+05   2.731746e+05
   6.396924e+04   6.478683e+05
  -7.615680e+05   8.350902e+05
  -1.320069e+06   3.542843e+05
  -1.023674e+06  -6.470710e+05
   1.597779e+05  -1.386463e+06
   1.554172e+06  -1.041300e+06
   2.076289e+06   4.005942e+05
   1.086048e+06   1.881230e+06
  -8.424497e+05   2.144010e+06
  -2.252211e+06   9.918802e+05
  -2.160627e+06  -5.082816e+05
  -9.716908e+05  -1.184087e+06
   1.096752e+05  -9.266537e+05
   3.845974e+05  -5.543282e+05
   1.661139e+05  -7.065852e+05
   1.493185e+05  -1.145528e+06
   5.969732e+05  -1.129839e+06
   1.150267e+06  -2.772225e+05
   1.216068e+06   9.852683e+05
   5.162775e+05   1.730439e+06
  -5.648490e+05   1.319140e+06
  -1.175898e+06   2.287297e+04
  -7.605945e+05  -1.130246e+06
   2.990137e+05  -1.258396e+06
   9.865108e+05  -4.199240e+05
   7.142806e+05   5.451124e+05
  -5.770006e+04   9.168266e+05
  -4.047432e+05   7.067260e+05
  -3.490769e+04   4.019275e+05
   3.888672e+05   3.234365e+05
   5.060717e+04   3.587737e+05
  -1.017221e+06   2.033403e+05
  -1.843810e+06  -2.811645e+05
  -1.475885e+06  -9.069055e+05
  -1.297450e+04  -1.261278e+06
   1.390998e+06  -1.022498e+06
   1.639595e+06  -2.962808e+05
   7.640140e+05   3.778853e+05
  -2.174490e+05   4.856403e+05
  -4.429037e+05   5.520922e+04
  -2.149811e+03  -3.530402e+05
   4.250304e+05  -2.343583e+05
   4.356205e+05   3.117988e+05
   1.966752e+05   6.841025e+05
   5.092487e+04   4.522219e+05
   1.206143e+05  -1.196123e+05
   2.754050e+05  -3.172226e+05
   2.603892e+05   2.023873e+05
  -1.381486e+05   9.236514e+05
  -8.128758e+05   9.722641e+05
  -1.200327e+06   1.270537e+05
  -7.356942e+05  -8.455302e+05
   3.822643e+05  -1.004008e+06
   1.130111e+06  -2.683388e+05
   6.729834e+05   5.335897e+05
  -6.226972e+05   6.037585e+05
  -1.464469e+06  -4.472307e+04
  -9.800363e+05  -7.521581e+05
   3.819401e+05  -9.309225e+05
   1.359792e+06  -5.136588e+05
   1.158204e+06   1.211442e+05
   1.520502e+05   4.725402e+05
  -5.809775e+05   2.703657e+05
  -3.370182e+05  -2.572801e+05
   5.566199e+05  -4.702480e+05
   1.090881e+06   9.460167e+04
   5.951900e+05   1.103956e+06
  -5.724957e+05   1.566115e+06
  -1.382620e+06   8.065289e+05
  -1.163338e+06  -6.997313e+05
  -2.001197e+05  -1.655535e+06
   6.626699e+05  -1.217225e+06
   8.512909e+05   1.278323e+05
   4.310550e+05   1.080284e+06
  -1.558958e+05   8.999529e+05
  -5.023162e+05   9.239094e+04
  -4.564650e+05  -3.400729e+05
  -1.790861e+05  -1.238788e+05
  -3.169865e+04   9.233652e+04
  -2.192246e+05  -2.651435e+05
  -4.624470e+05  -8.818789e+05
  -2.170320e+05  -9.851869e+05
   6.186098e+05  -3.631487e+05
   1.367109e+06   4.127916e+05
   1.213199e+06   7.474682e+05
   1.781107e+05   6.341757e+05
  -8.052895e+05   4.006561e+05
  -9.092772e+05   1.894276e+05
  -3.081726e+05  -3.946230e+04
   1.415132e+05  -2.103160e+05
  -4.925506e+02  -1.915540e+05
  -2.783800e+05  -8.786759e+04
  -3.800442e+04  -1.282798e+05
   6.403978e+05  -2.254655e+05
   9.642254e+05   1.062920e+04
   3.641718e+05   6.460958e+05
  -7.964004e+05   1.087473e+06
  -1.549787e+06   6.850200e+05
  -1.278596e+06  -4.134267e+05
  -2.579865e+05  -1.301817e+06
   6.914899e+05  -1.262577e+06
   9.693511e+05  -4.881486e+05
   6.158865e+05   2.201392e+05
   1.157965e+05   3.335063e+05
  -9.193279e+04   5.744862e+04
   5.912160e+04  -2.879772e+04
   2.877922e+05   3.235769e+05
   2.444280e+05   7.377362e+05
  -1.661139e+05   6.248249e+05
  -6.409979e+05  -1.180803e+05
  -6.843101e+05  -8.912150e+05
  -9.131834e+04  -9.593964e+05
   7.150855e+05  -2.220556e+05
   9.639949e+05   6.763396e+05
   3.176295e+05   1.006794e+06
  -6.620111e+05   6.180145e+05
  -1.024634e+06  -6.917094e+04
  -4.767294e+05  -5.515035e+05
   2.663973e+05  -6.085221e+05
   3.317398e+05  -3.294254e+05
  -2.499960e+05  -3.164169e+03
  -6.046243e+05   4.227152e+04
  -1.299960e+05  -2.823760e+05
   7.528576e+05  -6.361122e+05
   1.132616e+06  -5.150016e+05
   6.786879e+05   1.519417e+05
  -8.581162e+04   7.959731e+05
  -4.891411e+05   7.785937e+05
  -3.803906e+05   1.309064e+05
  -4.921546e+04  -4.535310e+05
   2.247325e+05  -3.962668e+05
   3.358556e+05   1.467384e+05
   2.380525e+05   5.316292e+05
  -5.643498e+04   3.829204e+05
  -3.641600e+05  -4.416976e+04
  -4.298086e+05  -2.464121e+05
  -2.188073e+05  -7.707230e+04
   1.860673e+04   1.306942e+05
   6.204933e+04   1.477684e+04
   4.129518e+02  -3.477721e+05
   7.947739e+04  -5.088722e+05
   3.174391e+05  -1.833392e+05
   4.174787e+05   3.743140e+05
   1.266964e+05   6.137729e+05
  -3.849979e+05   2.917196e+05
  -6.119248e+05  -2.662694e+05
  -2.364244e+05  -5.366158e+05
   4.611245e+05  -3.376662e+05
   8.103241e+05   7.199352e+04
   4.418315e+05   3.462202e+05
  -2.733926e+05   3.616279e+05
  -5.914122e+05   2.017311e+05
  -2.211808e+05   1.030192e+04
   3.412319e+05  -6.537823e+04
   3.927472e+05   6.606507e+04
  -1.583825e+05   2.878464e+05
  -7.034917e+05   2.712686e+05
