
 $NMID
 id='ANONYMOUS ', fmtdat='(2E16.6)'
 volume=1.0
 tramp=1.0
 $END
  -3.941765e+07  -1.350119e+06
  -2.390067e+07  -2.269288e+07
   3.956597e+06  -2.570142e+07
   1.859677e+07  -1.225176e+07
   1.245619e+07   2.460190e+06
  -1.155905e+06   6.650027e+06
  -7.265017e+06   8.287643e+05
  -3.469282e+06  -6.621487e+06
   3.419918e+06  -8.224400e+06
   7.028405e+06  -2.678425e+06
   5.427049e+06   4.818769e+06
   5.178862e+05   7.027929e+06
  -3.316044e+06   1.768488e+06
  -2.306327e+06  -5.178042e+06
   2.587473e+06  -6.016036e+06
   5.943920e+06   3.669776e+05
   3.677970e+06   7.497270e+06
  -2.523596e+06   8.859078e+06
  -7.421800e+06   4.155702e+06
  -7.601022e+06  -2.058873e+06
  -3.880349e+06  -5.564851e+06
   2.094284e+05  -5.368369e+06
   1.422330e+06  -3.326177e+06
  -4.610957e+05  -2.230852e+06
  -2.021884e+06  -3.274436e+06
   3.725175e+05  -4.611544e+06
   5.711254e+06  -3.351247e+06
   8.531751e+06   6.055787e+05
   5.292104e+06   3.981745e+06
  -9.616190e+05   3.953645e+06
  -4.104444e+06   1.241856e+06
  -2.007804e+06  -1.305684e+06
   1.923177e+06  -1.794939e+06
   3.567273e+06  -1.317963e+05
   2.158739e+06   2.566401e+06
  -3.855896e+05   4.143617e+06
  -2.004465e+06   2.618095e+06
  -1.759670e+06  -1.035648e+06
  -2.140680e+05  -2.760902e+06
   7.329094e+05  -2.820018e+05
  -3.625581e+05   3.080948e+06
  -2.293103e+06   2.293669e+06
  -2.104002e+06  -2.187032e+06
   1.030586e+06  -4.414189e+06
   4.058989e+06  -8.803684e+05
   3.325417e+06   4.615778e+06
  -1.103205e+06   5.831470e+06
  -5.391949e+06   1.644025e+06
  -5.825948e+06  -3.440979e+06
  -2.089672e+06  -5.010248e+06
   2.758487e+06  -2.725342e+06
   4.853494e+06   7.557029e+05
   2.667954e+06   2.671791e+06
  -1.493796e+06   1.918406e+06
  -3.510798e+06  -4.159344e+05
  -1.728130e+06  -1.883305e+06
   1.220809e+06  -1.065355e+06
   1.699693e+06   7.512812e+05
  -4.364008e+05   1.146524e+06
  -1.932757e+06  -3.513401e+05
  -4.870515e+05  -1.835735e+06
   2.486675e+06  -1.558905e+06
   3.795863e+06   3.394760e+05
   1.973213e+06   2.648129e+06
  -1.713318e+06   4.191897e+06
  -4.780659e+06   3.830305e+06
  -5.371922e+06   9.634460e+05
  -3.352168e+06  -3.050592e+06
  -4.148477e+05  -5.269615e+06
   1.265145e+06  -4.212841e+06
   1.099818e+06  -1.736268e+06
   5.460576e+05  -6.601610e+05
   1.121326e+06  -1.184657e+06
   2.457252e+06  -1.097382e+06
   2.895568e+06   7.347986e+05
   1.598318e+06   2.664056e+06
  -5.917743e+05   2.451063e+06
  -2.099258e+06   4.266216e+04
  -1.820776e+06  -2.460027e+06
   2.450140e+05  -2.982658e+06
   2.773837e+06  -1.171880e+06
   3.751403e+06   1.577488e+06
   2.262029e+06   3.329836e+06
  -3.138873e+05   3.160245e+06
  -1.716394e+06   1.858360e+06
  -1.508227e+06   9.350167e+05
  -1.430104e+06   8.676960e+05
  -2.733094e+06   6.920691e+05
  -4.152485e+06  -5.799131e+05
  -3.392360e+06  -2.615752e+06
  -1.390148e+05  -4.062966e+06
   3.299025e+06  -3.812354e+06
   4.336418e+06  -1.822219e+06
   2.560024e+06   8.041069e+05
  -1.341331e+05   2.347888e+06
  -1.414202e+06   1.744084e+06
  -5.244427e+05  -1.730603e+05
   1.209044e+06  -1.226743e+06
   1.808095e+06  -3.217285e+05
   7.208389e+05   1.151569e+06
  -6.484420e+05   1.117721e+06
  -6.434997e+05  -3.429728e+05
   7.026538e+05  -1.020024e+06
   1.792309e+06   4.890972e+05
   1.288347e+06   2.884505e+06
  -6.480233e+05   3.684311e+06
  -2.750419e+06   1.971892e+06
  -3.689156e+06  -8.976235e+05
  -2.813641e+06  -2.861486e+06
  -6.096378e+05  -2.887186e+06
   1.364917e+06  -1.494263e+06
   1.662781e+06  -1.323648e+05
   4.955267e+05   5.280931e+04
  -3.606851e+05  -7.485673e+05
   3.440120e+05  -1.243908e+06
   1.743194e+06  -5.436802e+05
   1.940798e+06   7.524648e+05
   4.518194e+05   1.295670e+06
  -1.132965e+06   6.121265e+05
  -1.019267e+06  -4.398763e+05
   7.510276e+05  -7.305503e+05
   2.362041e+06   6.018276e+04
   2.079239e+06   1.357111e+06
  -8.449380e+04   2.199553e+06
  -2.362961e+06   1.826276e+06
  -2.827592e+06   3.087404e+05
  -1.191794e+06  -1.203240e+06
   8.813915e+05  -1.368796e+06
   1.417466e+06  -1.384398e+05
   1.074692e+05   1.007300e+06
  -1.498630e+06   6.949123e+05
  -1.730378e+06  -7.255023e+05
  -4.625079e+05  -1.641077e+06
   9.848639e+05  -1.108814e+06
   1.296900e+06   1.510633e+05
   3.655892e+05   7.259386e+05
  -7.166771e+05   7.270184e+04
  -6.932812e+05  -1.042131e+06
   6.297392e+05  -1.400614e+06
   2.037896e+06  -4.754048e+05
   2.009536e+06   1.102041e+06
   3.633788e+05   2.065710e+06
  -1.409377e+06   1.634296e+06
  -1.713292e+06   2.505377e+05
  -5.544686e+05  -8.454185e+05
   6.361146e+05  -8.393723e+05
   7.183148e+05  -6.763022e+04
  -4.889171e+04   5.015449e+05
  -6.049586e+05   3.585208e+05
  -3.562627e+05  -9.649779e+04
   3.234220e+05  -1.149130e+05
   5.797217e+05   5.151075e+05
  -1.017501e+05   1.160847e+06
  -1.354390e+06   9.217734e+05
  -2.091519e+06  -4.113707e+05
  -1.451170e+06  -1.962015e+06
   2.414846e+05  -2.473566e+06
   1.658724e+06  -1.520912e+06
   1.811686e+06   5.430921e+04
   1.026404e+06   1.006876e+06
   3.764969e+05   9.052477e+05
   3.583047e+05   3.828376e+05
   4.744803e+05   2.708691e+05
   5.932596e+04   6.724038e+05
  -8.412075e+05   9.296793e+05
  -1.493629e+06   4.021152e+05
  -1.171605e+06  -7.621377e+05
   1.839912e+05  -1.601182e+06
   1.760933e+06  -1.166207e+06
   2.322990e+06   4.782415e+05
   1.205921e+06   2.105036e+06
  -9.219573e+05   2.371296e+06
  -2.487071e+06   1.105126e+06
  -2.428498e+06  -5.542097e+05
  -1.136674e+06  -1.349221e+06
   1.123155e+05  -1.105261e+06
   5.011325e+05  -6.594881e+05
   2.849182e+05  -7.518189e+05
   2.192129e+05  -1.202957e+06
   6.600278e+05  -1.203931e+06
   1.250440e+06  -2.774601e+05
   1.314460e+06   1.120686e+06
   5.290783e+05   1.932703e+06
  -6.621957e+05   1.450416e+06
  -1.314078e+06   1.151463e+04
  -8.432996e+05  -1.247137e+06
   3.133318e+05  -1.396317e+06
   1.065779e+06  -5.089101e+05
   7.943413e+05   5.396626e+05
  -1.792254e+04   9.854260e+05
  -3.972632e+05   8.019348e+05
  -2.563883e+04   4.797553e+05
   4.083260e+05   3.790987e+05
   3.876675e+04   4.034647e+05
  -1.111177e+06   2.195978e+05
  -2.010121e+06  -3.273893e+05
  -1.624316e+06  -1.012668e+06
  -3.849188e+04  -1.377783e+06
   1.511158e+06  -1.103676e+06
   1.814916e+06  -3.306147e+05
   8.694401e+05   3.821067e+05
  -2.223982e+05   5.133273e+05
  -4.829692e+05   7.900734e+04
   1.433022e+04  -3.536380e+05
   4.925937e+05  -2.362297e+05
   4.694270e+05   3.550430e+05
   1.581489e+05   7.654347e+05
   6.307326e+03   4.963259e+05
   1.482464e+05  -1.581027e+05
   3.536740e+05  -3.745012e+05
   2.939632e+05   2.274020e+05
  -1.977408e+05   1.031642e+06
  -9.193667e+05   1.053863e+06
  -1.278621e+06   9.845141e+04
  -7.477630e+05  -9.444000e+05
   4.371240e+05  -1.066142e+06
   1.221781e+06  -2.385144e+05
   7.250264e+05   6.195507e+05
  -6.957592e+05   6.680888e+05
  -1.650450e+06  -6.215068e+04
  -1.132042e+06  -8.593500e+05
   4.113594e+05  -1.071782e+06
   1.548619e+06  -5.988194e+05
   1.331267e+06   1.376353e+05
   1.784237e+05   5.442309e+05
  -6.516584e+05   3.096346e+05
  -3.582788e+05  -2.766126e+05
   6.443255e+05  -4.838832e+05
   1.197808e+06   1.619049e+05
   5.917582e+05   1.247955e+06
  -7.164062e+05   1.698573e+06
  -1.571719e+06   8.274426e+05
  -1.269865e+06  -8.233640e+05
  -1.723039e+05  -1.855949e+06
   7.748835e+05  -1.361303e+06
   9.596987e+05   1.387104e+05
   4.826118e+05   1.217476e+06
  -1.651925e+05   1.028343e+06
  -5.550324e+05   1.086113e+05
  -5.249456e+05  -4.030726e+05
  -2.232677e+05  -1.592547e+05
  -2.870880e+04   1.140308e+05
  -2.007354e+05  -2.702250e+05
  -4.794360e+05  -9.815724e+05
  -2.507790e+05  -1.118851e+06
   6.595719e+05  -4.058746e+05
   1.518625e+06   4.973639e+05
   1.366488e+06   8.722353e+05
   1.882403e+05   7.050782e+05
  -9.359422e+05   4.147044e+05
  -1.031816e+06   1.960202e+05
  -3.219828e+05  -2.811741e+04
   1.738635e+05  -2.244654e+05
  -2.572436e+04  -2.394460e+05
  -3.394185e+05  -1.346490e+05
  -2.373044e+04  -1.424564e+05
   7.549028e+05  -2.086871e+05
   1.064477e+06   4.958831e+04
   3.334948e+05   7.091612e+05
  -9.466928e+05   1.154669e+06
  -1.711046e+06   6.949923e+05
  -1.357953e+06  -5.069110e+05
  -2.318638e+05  -1.457361e+06
   7.930889e+05  -1.372821e+06
   1.084784e+06  -4.886566e+05
   6.780266e+05   2.849601e+05
   1.029530e+05   3.694881e+05
  -1.302125e+05   3.150872e+04
   6.090248e+04  -5.802523e+04
   3.300089e+05   3.613213e+05
   2.643237e+05   8.305442e+05
  -2.089960e+05   6.794691e+05
  -7.095215e+05  -1.771582e+05
  -7.050884e+05  -1.029830e+06
  -3.290181e+04  -1.054694e+06
   8.141965e+05  -1.846582e+05
   1.029929e+06   8.105368e+05
   2.983440e+05   1.120462e+06
  -7.539572e+05   6.379729e+05
  -1.115768e+06  -1.150329e+05
  -4.979095e+05  -5.986095e+05
   3.047369e+05  -6.360874e+05
   3.482012e+05  -3.549110e+05
  -3.060132e+05  -3.143273e+04
  -6.798144e+05   2.061656e+04
  -1.259724e+05  -3.088223e+05
   8.571433e+05  -6.871366e+05
   1.252751e+06  -5.668824e+05
   7.234192e+05   1.573802e+05
  -1.202127e+05   8.677896e+05
  -5.368648e+05   8.428793e+05
  -3.892632e+05   1.180760e+05
  -2.008112e+04  -5.140698e+05
   2.640121e+05  -4.140258e+05
   3.629922e+05   2.024429e+05
   2.423125e+05   5.978834e+05
  -7.636218e+04   3.953721e+05
  -3.985051e+05  -7.307730e+04
  -4.640359e+05  -2.651371e+05
  -2.444773e+05  -7.474324e+04
   7.485033e+03   1.197858e+05
   7.928239e+04  -2.801751e+04
   5.600279e+04  -3.947009e+05
   1.535563e+05  -5.170273e+05
   3.636641e+05  -1.363984e+05
   4.046072e+05   4.540440e+05
   6.831422e+04   6.775059e+05
  -4.481060e+05   2.931599e+05
  -6.463457e+05  -3.303333e+05
  -2.268566e+05  -6.114133e+05
   5.133048e+05  -3.572002e+05
   8.765504e+05   1.157825e+05
   4.699472e+05   3.976134e+05
  -3.102308e+05   3.704831e+05
  -6.487787e+05   1.793380e+05
  -2.220047e+05   4.889959e+03
   4.068922e+05  -3.003064e+04
   4.381724e+05   1.219223e+05
  -2.161507e+05   3.270485e+05
  -8.321690e+05   2.656511e+05
