
 $NMID
 id='ANONYMOUS ', fmtdat='(2E16.6)'
 volume=1.0
 tramp=1.0
 $END
  -5.800051e+07   2.535681e+05
  -3.497705e+07  -3.600308e+07
   7.678331e+06  -3.938599e+07
   2.847067e+07  -1.499255e+07
   1.694609e+07   7.406706e+06
  -3.478213e+06   9.634143e+06
  -1.011185e+07  -1.369526e+06
  -2.767407e+06  -1.008670e+07
   6.448799e+06  -9.505594e+06
   9.924989e+06  -1.975696e+06
   7.179480e+06   6.334354e+06
   8.653735e+05   8.780398e+06
  -4.062319e+06   2.857254e+06
  -2.682843e+06  -5.477473e+06
   3.874181e+06  -6.630474e+06
   8.080287e+06   1.411106e+06
   4.546870e+06   1.047750e+07
  -3.889746e+06   1.211008e+07
  -1.037088e+07   6.101035e+06
  -1.113481e+07  -2.035480e+06
  -6.907680e+06  -7.663197e+06
  -8.069574e+05  -8.966562e+06
   3.031545e+06  -6.337741e+06
   2.069359e+06  -2.772086e+06
  -1.013579e+06  -2.073100e+06
  -3.097329e+05  -4.142690e+06
   5.379121e+06  -4.505188e+06
   9.787706e+06  -6.176334e+05
   7.238872e+06   4.133999e+06
   3.834082e+05   5.174530e+06
  -3.682907e+06   2.709480e+06
  -2.517474e+06   1.420533e+05
   4.986896e+05  -8.592807e+05
   2.176257e+06  -5.150540e+05
   2.201468e+06   1.344834e+06
   7.892148e+05   3.928790e+06
  -1.784557e+06   3.980458e+06
  -3.371632e+06  -1.008368e+04
  -1.861776e+06  -3.714399e+06
   7.657676e+05  -2.075338e+06
   4.014218e+05   2.409453e+06
  -2.486224e+06   2.318222e+06
  -2.502974e+06  -3.291908e+06
   2.534661e+06  -6.322230e+06
   7.221145e+06  -1.062443e+06
   5.318008e+06   7.130613e+06
  -1.958812e+06   8.798245e+06
  -7.622449e+06   2.514283e+06
  -7.088985e+06  -4.544377e+06
  -1.844799e+06  -6.153327e+06
   3.556968e+06  -2.736251e+06
   5.334783e+06   1.595666e+06
   2.432085e+06   3.585128e+06
  -2.501750e+06   2.251050e+06
  -4.646262e+06  -9.561374e+05
  -1.995074e+06  -2.806231e+06
   1.762927e+06  -1.413279e+06
   1.760987e+06   1.056062e+06
  -1.401078e+06   9.210808e+05
  -2.555815e+06  -1.866734e+06
   6.820845e+05  -3.602703e+06
   4.819217e+06  -1.967325e+06
   5.467269e+06   1.428691e+06
   2.373733e+06   4.104740e+06
  -1.815554e+06   5.383622e+06
  -5.054103e+06   4.953837e+06
  -6.293700e+06   1.825784e+06
  -4.711236e+06  -3.176622e+06
  -1.001269e+06  -6.284393e+06
   1.920174e+06  -4.859659e+06
   1.841961e+06  -1.199318e+06
   1.527282e+05   3.332130e+05
  -1.159745e+05  -9.535392e+05
   1.538884e+06  -1.848554e+06
   2.820273e+06  -3.206269e+05
   2.077098e+06   1.885685e+06
   7.518411e+04   2.139823e+06
  -1.526611e+06   2.190929e+05
  -1.685320e+06  -2.069134e+06
  -2.521618e+04  -2.962334e+06
   2.788823e+06  -1.712527e+06
   4.568997e+06   1.162696e+06
   3.333753e+06   3.819492e+06
  -3.721375e+03   4.350537e+06
  -2.334681e+06   2.818199e+06
  -2.312502e+06   1.171843e+06
  -1.889119e+06   6.780860e+05
  -2.996411e+06   4.664264e+05
  -4.417985e+06  -7.896076e+05
  -3.534877e+06  -2.818557e+06
  -1.255680e+05  -4.187312e+06
   3.246699e+06  -3.953528e+06
   4.216854e+06  -2.168055e+06
   2.698306e+06   3.942831e+05
   3.129689e+05   2.252447e+06
  -1.088811e+06   1.976498e+06
  -5.758182e+05  -2.193831e+04
   1.092718e+06  -1.335095e+06
   1.945319e+06  -4.134010e+05
   9.557279e+05   1.226906e+06
  -5.135933e+05   1.132305e+06
  -4.159156e+05  -4.005838e+05
   1.119796e+06  -6.806918e+05
   1.896555e+06   1.382751e+06
   5.944295e+05   3.603953e+06
  -1.716129e+06   3.444762e+06
  -3.238414e+06   1.043557e+06
  -3.324387e+06  -1.535069e+06
  -2.246816e+06  -2.807406e+06
  -4.330219e+05  -2.626372e+06
   1.253555e+06  -1.479359e+06
   1.595964e+06  -2.364596e+05
   5.016749e+05   4.774781e+04
  -3.626184e+05  -7.662711e+05
   4.302343e+05  -1.375612e+06
   1.961216e+06  -5.906811e+05
   2.081764e+06   9.229726e+05
   3.841976e+05   1.458781e+06
  -1.198581e+06   5.750100e+05
  -8.877630e+05  -4.682048e+05
   8.802721e+05  -4.992543e+05
   2.198094e+06   3.708063e+05
   1.727280e+06   1.392837e+06
  -2.853700e+05   1.978593e+06
  -2.353048e+06   1.652485e+06
  -2.821072e+06   2.625644e+05
  -1.240979e+06  -1.302226e+06
   9.446014e+05  -1.546354e+06
   1.609340e+06  -1.976657e+05
   2.159686e+05   1.110329e+06
  -1.550190e+06   7.523144e+05
  -1.748682e+06  -8.113121e+05
  -3.209480e+05  -1.690144e+06
   1.133944e+06  -9.755110e+05
   1.277970e+06   3.456223e+05
   2.326475e+05   8.068602e+05
  -8.218845e+05   5.139391e+04
  -7.522251e+05  -1.076821e+06
   5.846006e+05  -1.451537e+06
   2.044195e+06  -5.545470e+05
   2.075682e+06   1.071430e+06
   3.865082e+05   2.119997e+06
  -1.481344e+06   1.672803e+06
  -1.766674e+06   2.015845e+05
  -5.030264e+05  -8.932576e+05
   6.783979e+05  -8.129230e+05
   6.339757e+05  -7.765773e+04
  -1.333533e+05   3.449719e+05
  -4.848671e+05   1.859283e+05
  -8.773510e+04  -6.413609e+04
   4.774723e+05   1.102450e+05
   5.153715e+05   7.136363e+05
  -2.340276e+05   1.214289e+06
  -1.419515e+06   9.015805e+05
  -2.119856e+06  -4.334202e+05
  -1.487522e+06  -1.986811e+06
   2.286049e+05  -2.461266e+06
   1.648788e+06  -1.417121e+06
   1.705589e+06   1.489856e+05
   8.442777e+05   9.042351e+05
   3.094356e+05   6.295442e+05
   5.019661e+05   2.007966e+05
   6.606978e+05   3.282297e+05
   9.306100e+04   7.939994e+05
  -9.055021e+05   9.092419e+05
  -1.472337e+06   3.090229e+05
  -1.045681e+06  -7.383200e+05
   2.757457e+05  -1.465148e+06
   1.756452e+06  -1.068563e+06
   2.278071e+06   5.061781e+05
   1.134459e+06   2.146952e+06
  -1.054999e+06   2.407657e+06
  -2.607652e+06   1.028679e+06
  -2.383659e+06  -7.009479e+05
  -9.402155e+05  -1.369821e+06
   2.306924e+05  -9.389334e+05
   3.827633e+05  -4.940393e+05
   5.032222e+04  -7.669511e+05
   9.188111e+04  -1.348982e+06
   6.905425e+05  -1.325546e+06
   1.327819e+06  -3.267638e+05
   1.364029e+06   1.100696e+06
   5.650842e+05   1.928601e+06
  -6.332630e+05   1.461610e+06
  -1.306721e+06  -9.727371e+03
  -8.180840e+05  -1.318691e+06
   4.171687e+05  -1.422806e+06
   1.204104e+06  -3.919489e+05
   8.275007e+05   7.409153e+05
  -1.475404e+05   1.111847e+06
  -5.737344e+05   7.925177e+05
  -9.853836e+04   4.138132e+05
   4.447491e+05   3.374263e+05
   6.262452e+04   3.880785e+05
  -1.179539e+06   2.073001e+05
  -2.112356e+06  -3.490891e+05
  -1.644307e+06  -1.068681e+06
   5.752065e+04  -1.473498e+06
   1.639518e+06  -1.163851e+06
   1.873233e+06  -2.667887e+05
   8.427138e+05   5.273021e+05
  -2.755771e+05   5.895015e+05
  -5.275674e+05   2.403469e+04
  -3.752631e+04  -4.425795e+05
   4.445410e+05  -2.666451e+05
   4.932494e+05   3.485994e+05
   2.748663e+05   7.311650e+05
   1.142126e+05   4.863602e+05
   1.388109e+05  -8.343423e+04
   2.713035e+05  -2.804880e+05
   2.754139e+05   2.397045e+05
  -1.373077e+05   9.970537e+05
  -9.175247e+05   1.087130e+06
  -1.407952e+06   1.901744e+05
  -8.891553e+05  -9.301200e+05
   4.226635e+05  -1.177913e+06
   1.293657e+06  -3.625123e+05
   7.502079e+05   5.773514e+05
  -7.214260e+05   6.556152e+05
  -1.608678e+06  -1.123182e+05
  -9.949666e+05  -8.875114e+05
   5.162211e+05  -9.893722e+05
   1.522027e+06  -4.541158e+05
   1.235691e+06   2.133526e+05
   1.242315e+05   5.187735e+05
  -6.644633e+05   2.626100e+05
  -3.985702e+05  -3.063709e+05
   5.841197e+05  -5.434745e+05
   1.207229e+06   6.254482e+04
   7.084462e+05   1.192127e+06
  -5.697767e+05   1.745892e+06
  -1.496463e+06   9.239559e+05
  -1.283145e+06  -7.584273e+05
  -2.143861e+05  -1.818374e+06
   7.512596e+05  -1.305253e+06
   9.373232e+05   1.954141e+05
   4.223369e+05   1.215166e+06
  -2.457658e+05   9.731014e+05
  -5.788540e+05   7.597583e+04
  -4.571620e+05  -3.794328e+05
  -1.469540e+05  -1.331283e+05
  -5.690887e+04   9.112204e+04
  -3.139142e+05  -3.136307e+05
  -5.317383e+05  -9.884219e+05
  -1.720795e+05  -1.092805e+06
   7.547675e+05  -3.988908e+05
   1.498324e+06   4.690373e+05
   1.281108e+06   8.488343e+05
   1.868647e+05   7.158623e+05
  -8.460075e+05   4.322467e+05
  -9.932131e+05   1.801466e+05
  -3.860138e+05  -6.627629e+04
   1.385350e+05  -2.330368e+05
   6.218689e+04  -1.957228e+05
  -2.413122e+05  -7.904035e+04
  -6.359349e+04  -1.333972e+05
   6.411905e+05  -2.562901e+05
   1.070773e+06  -5.165639e+03
   4.905809e+05   7.077710e+05
  -8.198737e+05   1.226357e+06
  -1.747783e+06   8.079829e+05
  -1.481298e+06  -4.103938e+05
  -3.054778e+05  -1.426315e+06
   7.785303e+05  -1.420029e+06
   1.066260e+06  -5.799696e+05
   6.660433e+05   2.128901e+05
   1.535669e+05   3.647319e+05
  -4.366713e+04   8.750474e+04
   9.277618e+04   4.007706e+03
   2.946824e+05   3.818839e+05
   2.467953e+05   8.219837e+05
  -1.689598e+05   7.017786e+05
  -6.898620e+05  -9.313572e+04
  -7.851599e+05  -9.398824e+05
  -1.675687e+05  -1.054985e+06
   7.452770e+05  -2.948741e+05
   1.076408e+06   6.917398e+05
   3.915721e+05   1.109233e+06
  -7.136212e+05   7.254311e+05
  -1.158860e+06  -5.211994e+04
  -5.689911e+05  -6.409107e+05
   2.866340e+05  -7.258829e+05
   4.096670e+05  -3.871287e+05
  -2.224596e+05   5.928941e+03
  -6.542433e+05   5.355209e+04
  -1.641743e+05  -3.185074e+05
   8.336730e+05  -6.989484e+05
   1.304352e+06  -5.436975e+05
   8.108368e+05   1.958598e+05
  -8.409759e+04   9.008586e+05
  -5.795442e+05   8.935442e+05
  -4.636110e+05   1.933401e+05
  -7.833055e+04  -4.754217e+05
   2.321256e+05  -4.649310e+05
   3.599060e+05   1.167877e+05
   2.723037e+05   5.844295e+05
  -3.992861e+04   4.630929e+05
  -4.010780e+05  -2.699497e+04
  -4.995600e+05  -2.995104e+05
  -2.491220e+05  -1.129184e+05
   5.174114e+04   1.754047e+05
   8.526261e+04   8.995451e+04
  -5.818139e+04  -3.421143e+05
  -1.500277e+04  -5.947449e+05
   3.039465e+05  -2.817603e+05
   5.131682e+05   3.449118e+05
   2.230030e+05   6.542534e+05
  -3.965145e+05   3.426437e+05
  -7.029234e+05  -2.544234e+05
  -2.841823e+05  -5.691218e+05
   5.210072e+05  -3.859763e+05
   9.202601e+05   4.864856e+04
   5.045208e+05   3.766633e+05
  -2.931134e+05   4.364712e+05
  -6.568828e+05   2.719107e+05
  -2.794796e+05   2.784433e+04
   3.186346e+05  -1.008767e+05
   4.042242e+05   2.328701e+04
  -1.385793e+05   2.798652e+05
  -7.084331e+05   2.919585e+05
