
 $NMID
 id='ANONYMOUS ', fmtdat='(2E16.6)'
 volume=1.0
 tramp=1.0
 $END
   1.341027e+07  -2.794832e+06
   9.035715e+06   8.490275e+06
  -1.711112e+06   1.015391e+07
  -7.031436e+06   2.932600e+06
  -3.688129e+06  -3.349487e+06
   1.601064e+06  -2.982972e+06
   2.698895e+06   7.913515e+05
   3.234279e+05   2.731332e+06
  -1.876064e+06   1.858438e+06
  -2.413989e+06   3.759624e+04
  -1.703775e+06  -1.417490e+06
  -2.333706e+05  -1.897501e+06
   1.087656e+06  -9.613837e+05
   9.192776e+05   6.147127e+05
  -6.330825e+05   9.626048e+05
  -1.627185e+06  -4.762044e+05
  -7.977693e+05  -2.047866e+06
   9.133391e+05  -2.185229e+06
   2.063670e+06  -1.156321e+06
   2.390208e+06   1.539449e+05
   2.006551e+06   1.520572e+06
   6.401615e+05   2.512977e+06
  -1.191994e+06   2.068672e+06
  -1.808509e+06   2.517115e+05
  -5.796115e+05  -9.756126e+05
   7.192249e+05  -2.176412e+05
   2.322362e+05   1.231508e+06
  -1.336742e+06   1.219355e+06
  -1.920295e+06  -2.629335e+05
  -1.029797e+06  -1.474704e+06
   1.199410e+05  -1.541234e+06
   7.351456e+05  -1.011819e+06
   9.733886e+05  -3.594096e+05
   7.945940e+05   3.515538e+05
   4.301692e+04   5.968018e+05
  -5.035208e+05  -9.813780e+04
   1.119046e+05  -8.683004e+05
   1.217722e+06  -3.926432e+05
   1.169042e+06   8.998271e+05
  -3.826033e+04   1.235457e+06
  -6.189303e+05   3.257659e+05
   9.016553e+04  -8.478190e+04
   4.596012e+05   8.677867e+05
  -7.385425e+05   1.569441e+06
  -2.147931e+06   4.241854e+05
  -1.763331e+06  -1.547207e+06
   1.194401e+05  -2.122924e+06
   1.440814e+06  -9.291702e+05
   1.170801e+06   4.465884e+05
   1.222135e+05   7.945078e+05
  -6.016028e+05   3.039351e+05
  -6.272915e+05  -3.962770e+05
  -7.509306e+03  -8.666770e+05
   8.694382e+05  -6.716465e+05
   1.152893e+06   2.231421e+05
   4.086710e+05   9.181087e+05
  -4.596590e+05   5.503081e+05
  -2.544178e+05  -2.682450e+05
   6.442230e+05  -1.522529e+05
   6.856144e+05   9.068945e+05
  -4.967507e+05   1.396010e+06
  -1.487790e+06   5.386853e+05
  -1.219664e+06  -6.272555e+05
  -3.714876e+05  -9.642749e+05
   2.777436e+04  -7.659678e+05
   1.678233e+05  -7.515224e+05
   6.320292e+05  -6.469936e+05
   9.838540e+05   8.135469e+04
   4.529147e+05   8.464229e+05
  -5.078399e+05   6.070652e+05
  -6.504761e+05  -4.107299e+05
   2.235395e+05  -8.781443e+05
   9.723355e+05  -2.261495e+05
   7.434288e+05   6.893343e+05
  -4.902448e+04   9.098695e+05
  -5.622367e+05   4.720509e+05
  -5.335073e+05  -4.339790e+04
  -1.861654e+05  -2.933622e+05
   1.958199e+05  -1.951671e+05
   2.888154e+05   2.026371e+05
  -1.223312e+05   5.342607e+05
  -7.112753e+05   3.096980e+05
  -7.912759e+05  -3.887065e+05
  -2.029232e+05  -8.420330e+05
   4.158210e+05  -6.131179e+05
   5.015631e+05  -1.017669e+05
   2.502572e+05   1.076711e+05
   1.331012e+05   1.459791e+04
   1.920511e+05  -3.505695e+04
   2.081620e+05   4.904880e+04
   1.746309e+05   1.518091e+05
   1.613133e+05   2.793671e+05
   2.884243e+04   4.134216e+05
  -2.735759e+05   3.207488e+05
  -4.100682e+05  -6.238244e+04
  -1.325597e+05  -3.207817e+05
   2.005124e+05  -1.035396e+05
   1.022974e+05   2.615736e+05
  -2.541108e+05   2.215145e+05
  -3.096788e+05  -1.304309e+05
  -4.223719e+04  -2.415407e+05
   4.599049e+04  -4.745108e+04
  -1.503306e+05  -4.171177e+04
  -1.416189e+05  -3.475821e+05
   2.651013e+05  -4.350579e+05
   5.500204e+05  -1.392737e+04
   2.948752e+05   4.245472e+05
  -1.446460e+05   3.537901e+05
  -2.194665e+05  -5.123035e+03
  -2.806909e+03  -1.180698e+05
   7.225562e+04   3.260895e+04
  -3.464995e+04   8.154511e+04
  -2.883142e+04  -1.839345e+04
   9.739620e+04   1.022537e+04
   5.316790e+04   1.856882e+05
  -1.872010e+05   2.056939e+05
  -3.031374e+05  -1.946367e+04
  -1.535334e+05  -2.194081e+05
   3.509464e+04  -2.139683e+05
   8.366092e+04  -1.292745e+05
   8.869276e+04  -8.214546e+04
   1.304458e+05  -4.297802e+03
   1.035085e+05   1.059506e+05
  -1.407959e+04   9.089749e+04
  -3.785977e+04  -5.525999e+04
   9.483450e+04  -8.487963e+04
   1.513236e+05   1.070190e+05
  -2.904809e+04   2.552277e+05
  -2.322302e+05   1.157052e+05
  -1.783267e+05  -1.425939e+05
   5.119676e+04  -1.909903e+05
   1.536281e+05  -1.609165e+04
   4.412379e+04   1.220473e+05
  -9.776762e+04   9.012228e+04
  -1.351040e+05  -1.804687e+04
  -8.647067e+04  -1.067924e+05
   1.412703e+04  -1.568598e+05
   1.407133e+05  -1.189353e+05
   1.851591e+05   3.639350e+04
   5.977479e+04   1.741315e+05
  -1.145708e+05   1.187844e+05
  -1.231907e+05  -6.962124e+04
   3.422203e+04  -1.470554e+05
   1.433317e+05  -3.005822e+04
   9.365523e+04   1.121263e+05
  -4.955602e+03   1.387131e+05
  -5.349959e+04   1.009899e+05
  -9.621328e+04   6.713341e+04
  -1.529134e+05  -4.925652e+03
  -1.279314e+05  -1.191556e+05
   2.303774e+03  -1.551681e+05
   9.088012e+04  -6.066271e+04
   4.168261e+04   2.682361e+04
  -2.665607e+04  -9.971303e+03
   1.768605e+04  -7.629702e+04
   9.740785e+04  -3.665064e+04
   7.345551e+04   5.022121e+04
  -7.330989e+03   4.637800e+04
  -5.916258e+03  -1.653925e+04
   5.553671e+04  -3.671525e+03
   4.353944e+04   7.281295e+04
  -3.443556e+04   7.992358e+04
  -4.509557e+04   1.201488e+04
   1.661754e+04  -8.574494e+02
   9.484399e+03   5.903977e+04
  -9.009210e+04   5.418695e+04
  -1.224213e+05  -5.387770e+04
  -1.535066e+04  -1.111539e+05
   7.740366e+04  -2.445724e+04
   2.216857e+04   7.121860e+04
  -7.841027e+04   2.653397e+04
  -6.027516e+04  -8.579634e+04
   4.081263e+04  -1.009162e+05
   7.030379e+04  -2.266171e+04
   1.239356e+04   1.263321e+04
  -8.473329e+03  -2.822615e+04
   5.303452e+04  -4.332945e+04
   1.047811e+05   1.797450e+04
   7.864422e+04   8.556317e+04
   1.332448e+04   9.712956e+04
  -4.125465e+04   7.293662e+04
  -8.427638e+04   3.956049e+04
  -1.029382e+05  -1.324852e+04
  -5.829518e+04  -6.770655e+04
   2.875367e+04  -6.505881e+04
   6.792169e+04   2.883526e+02
   2.119646e+04   5.017827e+04
  -4.029218e+04   2.848773e+04
  -4.349133e+04  -2.592468e+04
  -8.327821e+03  -4.913004e+04
   9.687931e+03  -3.483250e+04
   6.553174e+03  -1.034305e+04
   6.866040e+03   1.165467e+04
   8.770208e+03   1.795729e+04
   6.383834e+03  -1.198225e+04
   2.073627e+04  -5.531840e+04
   5.470875e+04  -4.462194e+04
   6.062716e+04   3.374692e+04
   9.547891e+03   9.505331e+04
  -4.686763e+04   6.758343e+04
  -4.492047e+04  -2.521673e+03
  -4.583168e+03  -2.506427e+04
   8.958038e+03   1.469967e+03
  -1.074402e+04   1.113266e+04
  -1.897464e+04  -9.684377e+03
  -9.192642e+03  -1.555979e+04
  -1.362760e+04  -1.765368e+02
  -2.392765e+04  -5.587527e+03
   2.246265e+03  -2.921450e+04
   4.865626e+04  -1.578507e+04
   4.264296e+04   3.584626e+04
  -2.504127e+04   4.808021e+04
  -6.616932e+04  -1.255656e+04
  -2.342338e+04  -6.827683e+04
   4.112617e+04  -4.258695e+04
   4.290481e+04   2.534668e+04
  -1.504094e+03   4.608869e+04
  -1.724433e+04   1.043489e+04
   7.289560e+03  -1.887938e+04
   1.999055e+04  -1.319038e+04
   2.094130e+03   6.407063e+01
  -1.195457e+04   5.037719e+03
  -6.170153e+03   1.416788e+04
  -3.804342e+03   2.006126e+04
  -9.925416e+03  -1.213250e+03
   2.528726e+03  -3.166878e+04
   3.261287e+04  -2.024192e+04
   3.469302e+04   3.290905e+04
  -1.109810e+04   5.975686e+04
  -5.765278e+04   1.930958e+04
  -5.205272e+04  -4.093418e+04
  -4.203737e+03  -5.273175e+04
   3.567702e+04  -1.582653e+04
   4.060139e+04   1.943505e+04
   1.911322e+04   2.648361e+04
  -1.167041e+04   1.739802e+04
  -3.480357e+04   4.166657e+03
  -3.309039e+04  -1.249665e+04
  -8.509849e+03  -2.421841e+04
   1.118284e+04  -2.042498e+04
   8.959803e+03  -9.866610e+03
   5.545800e+03  -8.938869e+03
   2.423263e+04  -1.245798e+04
   4.634760e+04  -1.875811e+03
   3.529667e+04   2.128956e+04
  -5.676109e+03   3.575867e+04
  -3.562492e+04   3.174314e+04
  -3.266905e+04   1.794607e+04
  -1.468952e+04   8.257698e+02
  -2.453779e+03  -1.754395e+04
   4.133959e+03  -2.428962e+04
   6.950513e+03  -8.079538e+03
  -4.837735e+02   1.295129e+04
  -1.234185e+04   7.980452e+03
  -8.693848e+03  -1.640315e+04
   1.063852e+04  -1.787263e+04
   1.651697e+04   1.639391e+04
  -7.136707e+03   4.119772e+04
  -3.432164e+04   1.457961e+04
  -3.127913e+04  -4.017545e+04
  -1.130213e+03  -6.476640e+04
   2.738707e+04  -3.992409e+04
   3.910474e+04   2.544766e+03
   3.689277e+04   2.984598e+04
   2.192121e+04   3.707115e+04
  -2.967305e+03   3.033910e+04
  -1.979316e+04   1.398969e+04
  -1.422281e+04  -6.491868e+02
  -2.981400e+03  -3.596734e+02
  -1.328912e+04   8.111191e+03
  -3.618790e+04   2.640792e+03
  -3.232491e+04  -1.997511e+04
   8.947460e+03  -3.415819e+04
   4.683945e+04  -1.984010e+04
   4.067680e+04   1.034419e+04
   4.324224e+02   2.869291e+04
  -3.228111e+04   2.294582e+04
  -3.492686e+04  -8.021158e+00
  -1.602408e+04  -2.561291e+04
   8.394867e+03  -3.608582e+04
   2.714977e+04  -1.931813e+04
   3.052303e+04   1.221667e+04
   1.670567e+04   2.549117e+04
   5.051626e+02   6.853224e+03
  -1.185178e+03  -1.439865e+04
   7.785631e+03  -2.829203e+03
   8.557201e+03   3.202984e+04
  -5.406473e+03   4.616313e+04
  -2.089966e+04   2.030173e+04
  -2.463347e+04  -1.682648e+04
  -1.647221e+04  -2.947890e+04
  -2.675842e+03  -1.620133e+04
   9.933766e+03   6.332809e+02
   1.184689e+04   7.674520e+03
  -1.744068e+03   7.100297e+03
  -1.777091e+04   2.223327e+03
  -1.512246e+04  -5.985229e+03
   5.863457e+03  -1.211831e+04
   1.908622e+04  -9.928951e+03
   7.719138e+03  -2.367658e+03
  -1.078525e+04   1.456555e+03
  -9.142454e+03  -7.660111e+02
   1.083279e+04  -2.059415e+03
   2.159942e+04   3.130817e+03
   8.271903e+03   1.134136e+04
  -1.358127e+04   1.371634e+04
  -2.040573e+04   4.604023e+03
  -7.638061e+03  -1.143765e+04
   1.013261e+04  -1.950928e+04
   1.668320e+04  -7.212766e+03
   7.339132e+03   1.754156e+04
  -9.002942e+03   2.874943e+04
  -1.746441e+04   1.138138e+04
  -1.104055e+04  -1.694477e+04
   1.663835e+03  -2.497779e+04
   6.412455e+03  -6.363098e+03
   2.488483e+02   1.365559e+04
  -7.071179e+03   1.139399e+04
  -6.929153e+03  -8.022152e+03
   5.923472e+02  -2.140039e+04
