
 $NMID
 id='ANONYMOUS ', fmtdat='(2E16.6)'
 volume=1.0
 tramp=1.0
 $END
   6.021574e+07  -1.252589e+06
   3.659447e+07   3.729800e+07
  -7.811434e+06   4.110118e+07
  -2.942019e+07   1.541178e+07
  -1.734860e+07  -7.979288e+06
   3.753858e+06  -9.944836e+06
   1.034903e+07   1.671049e+06
   2.633815e+06   1.041703e+07
  -6.718886e+06   9.516917e+06
  -1.015519e+07   1.887780e+06
  -7.413022e+06  -6.354122e+06
  -1.049135e+06  -8.864268e+06
   4.064254e+06  -3.055805e+06
   2.790500e+06   5.331059e+06
  -3.896579e+06   6.603205e+06
  -8.278228e+06  -1.474711e+06
  -4.733006e+06  -1.070768e+07
   3.881829e+06  -1.246786e+07
   1.059419e+07  -6.467756e+06
   1.158655e+07   1.828444e+06
   7.438655e+06   7.816715e+06
   1.073806e+06   9.466131e+06
  -3.237103e+06   6.782865e+06
  -2.481082e+06   2.749584e+06
   8.786663e+05   1.698292e+06
   5.620423e+05   3.945939e+06
  -5.091559e+06   4.755766e+06
  -9.792643e+06   1.036188e+06
  -7.514835e+06  -3.947837e+06
  -7.180408e+05  -5.312774e+06
   3.482416e+06  -3.028889e+06
   2.599604e+06  -4.733826e+05
  -1.328236e+05   7.071929e+05
  -1.824662e+06   6.883685e+05
  -2.225984e+06  -9.912065e+05
  -1.118622e+06  -3.785604e+06
   1.635063e+06  -4.194961e+06
   3.640585e+06  -2.247150e+05
   2.198168e+06   3.819724e+06
  -7.711511e+05   2.403748e+06
  -6.336321e+05  -2.219630e+06
   2.395783e+06  -2.309719e+06
   2.544417e+06   3.377927e+06
  -2.698706e+06   6.534521e+06
  -7.649442e+06   1.117931e+06
  -5.649091e+06  -7.397880e+06
   1.984905e+06  -9.175054e+06
   7.838412e+06  -2.719457e+06
   7.212357e+06   4.519853e+06
   1.844492e+06   6.155595e+06
  -3.552447e+06   2.709247e+06
  -5.280856e+06  -1.614748e+06
  -2.356764e+06  -3.595694e+06
   2.599367e+06  -2.264772e+06
   4.743040e+06   9.781099e+05
   2.015087e+06   2.874727e+06
  -1.806490e+06   1.459510e+06
  -1.731143e+06  -1.048882e+06
   1.533387e+06  -8.383194e+05
   2.592650e+06   2.093655e+06
  -8.942499e+05   3.834710e+06
  -5.133597e+06   2.018346e+06
  -5.643956e+06  -1.545101e+06
  -2.429921e+06  -4.243182e+06
   1.693776e+06  -5.514419e+06
   4.879754e+06  -5.158236e+06
   6.287627e+06  -2.072539e+06
   4.928453e+06   3.045010e+06
   1.208087e+06   6.305230e+06
  -1.903883e+06   4.867244e+06
  -1.885024e+06   1.065914e+06
  -2.875920e+04  -5.073729e+05
   4.032052e+05   9.292846e+05
  -1.291473e+06   2.026975e+06
  -2.758678e+06   6.008513e+05
  -2.190576e+06  -1.638468e+06
  -2.727435e+05  -2.034997e+06
   1.364438e+06  -3.052842e+05
   1.670416e+06   1.882371e+06
   1.512738e+05   2.879307e+06
  -2.689133e+06   1.839803e+06
  -4.647861e+06  -9.623283e+05
  -3.532432e+06  -3.766805e+06
  -1.223512e+05  -4.480362e+06
   2.360337e+06  -2.968388e+06
   2.389819e+06  -1.213786e+06
   1.904218e+06  -6.488047e+05
   2.943981e+06  -4.704231e+05
   4.356418e+06   7.102425e+05
   3.523064e+06   2.695537e+06
   2.170776e+05   4.087297e+06
  -3.049167e+06   3.950236e+06
  -4.027936e+06   2.284549e+06
  -2.671884e+06  -2.383447e+05
  -4.539884e+05  -2.176308e+06
   9.498198e+05  -2.002955e+06
   5.737223e+05  -1.922754e+04
  -1.010527e+06   1.348329e+06
  -1.909983e+06   4.585278e+05
  -1.000446e+06  -1.193207e+06
   4.459968e+05  -1.115844e+06
   3.629593e+05   3.860123e+05
  -1.147478e+06   6.012744e+05
  -1.864398e+06  -1.488227e+06
  -4.930927e+05  -3.606996e+06
   1.794938e+06  -3.292912e+06
   3.182761e+06  -8.799836e+05
   3.162398e+06   1.524693e+06
   2.133072e+06   2.634269e+06
   4.585822e+05   2.476955e+06
  -1.155306e+06   1.468170e+06
  -1.531754e+06   2.928712e+05
  -4.885870e+05  -3.286441e+04
   3.697279e+05   7.399255e+05
  -4.092015e+05   1.370321e+06
  -1.937901e+06   6.206518e+05
  -2.064487e+06  -8.891575e+05
  -3.840580e+05  -1.439102e+06
   1.165368e+06  -5.748097e+05
   8.453599e+05   4.377523e+05
  -8.626434e+05   4.561214e+05
  -2.099685e+06  -3.637709e+05
  -1.637570e+06  -1.304581e+06
   2.621674e+05  -1.874910e+06
   2.235304e+06  -1.625890e+06
   2.727866e+06  -3.139111e+05
   1.240853e+06   1.256068e+06
  -9.003306e+05   1.556998e+06
  -1.598667e+06   2.340916e+05
  -2.531748e+05  -1.098715e+06
   1.500715e+06  -7.768058e+05
   1.717021e+06   7.649462e+05
   3.192948e+05   1.637451e+06
  -1.104413e+06   9.389810e+05
  -1.236908e+06  -3.470068e+05
  -2.116950e+05  -7.910894e+05
   8.214917e+05  -6.082044e+04
   7.697240e+05   1.039290e+06
  -5.249900e+05   1.438906e+06
  -1.977056e+06   6.061715e+05
  -2.057266e+06  -9.855426e+05
  -4.295970e+05  -2.060849e+06
   1.413576e+06  -1.664393e+06
   1.717598e+06  -2.252686e+05
   4.946514e+05   8.630548e+05
  -6.486674e+05   7.969914e+05
  -5.963131e+05   9.344307e+04
   1.346752e+05  -3.047247e+05
   4.371450e+05  -1.616404e+05
   3.355731e+04   4.468225e+04
  -4.902402e+05  -1.456027e+05
  -4.989353e+05  -7.178022e+05
   2.249918e+05  -1.191611e+06
   1.368275e+06  -9.053167e+05
   2.074628e+06   3.732073e+05
   1.500648e+06   1.898367e+06
  -1.576877e+05   2.392152e+06
  -1.559137e+06   1.393916e+06
  -1.632383e+06  -1.184361e+05
  -8.061155e+05  -8.270674e+05
  -3.114003e+05  -5.410943e+05
  -5.295530e+05  -1.480869e+05
  -6.879906e+05  -3.201761e+05
  -1.149160e+05  -7.949537e+05
   8.672239e+05  -8.997928e+05
   1.413485e+06  -3.205559e+05
   1.009563e+06   6.790684e+05
  -2.436647e+05   1.397679e+06
  -1.673628e+06   1.062555e+06
  -2.214348e+06  -4.381118e+05
  -1.138343e+06  -2.063031e+06
   9.944575e+05  -2.367165e+06
   2.529177e+06  -1.042552e+06
   2.316178e+06   6.514859e+05
   9.034673e+05   1.304062e+06
  -2.202836e+05   8.776156e+05
  -3.282615e+05   4.580423e+05
   1.960874e+04   7.569688e+05
  -3.375258e+04   1.346744e+06
  -6.481501e+05   1.328200e+06
  -1.298940e+06   3.577434e+05
  -1.362473e+06  -1.032233e+06
  -6.038191e+05  -1.858620e+06
   5.731851e+05  -1.437681e+06
   1.266744e+06  -1.806805e+04
   8.190324e+05   1.274695e+06
  -3.929537e+05   1.393696e+06
  -1.185083e+06   3.806148e+05
  -8.223682e+05  -7.428647e+05
   1.474615e+05  -1.105918e+06
   5.750729e+05  -7.760129e+05
   9.920080e+04  -3.873539e+05
  -4.495393e+05  -3.078897e+05
  -7.682976e+04  -3.722649e+05
   1.153736e+06  -2.265080e+05
   2.080806e+06   2.932699e+05
   1.625601e+06   1.009189e+06
  -4.314841e+04   1.450025e+06
  -1.592494e+06   1.179572e+06
  -1.822195e+06   2.893755e+05
  -8.206015e+05  -5.217762e+05
   2.664885e+05  -5.938495e+05
   5.192647e+05  -2.348970e+04
   5.655830e+04   4.487978e+05
  -4.143090e+05   2.777543e+05
  -4.923637e+05  -3.247567e+05
  -3.115588e+05  -6.982835e+05
  -1.465778e+05  -4.700978e+05
  -1.278608e+05   6.897218e+04
  -2.359034e+05   2.620923e+05
  -2.703536e+05  -2.272907e+05
   9.289394e+04  -9.661609e+05
   8.640113e+05  -1.086720e+06
   1.393508e+06  -2.365553e+05
   9.179471e+05   8.817889e+05
  -3.809022e+05   1.178868e+06
  -1.265728e+06   4.092082e+05
  -7.492163e+05  -5.328954e+05
   6.886299e+05  -6.506964e+05
   1.553067e+06   7.813486e+04
   9.573677e+05   8.379703e+05
  -4.959840e+05   9.519520e+05
  -1.455445e+06   4.484442e+05
  -1.181773e+06  -1.895803e+05
  -1.225377e+05  -4.932807e+05
   6.400452e+05  -2.606955e+05
   4.024459e+05   2.955738e+05
  -5.424634e+05   5.570940e+05
  -1.178651e+06  -9.455130e+03
  -7.443579e+05  -1.130895e+06
   4.789874e+05  -1.723177e+06
   1.415515e+06  -9.571230e+05
   1.268756e+06   6.900973e+05
   2.637832e+05   1.752135e+06
  -6.895482e+05   1.274002e+06
  -9.081404e+05  -1.777991e+05
  -4.273937e+05  -1.166729e+06
   2.302874e+05  -9.366549e+05
   5.645714e+05  -8.061628e+04
   4.393889e+05   3.499362e+05
   1.301430e+05   1.179602e+05
   5.850295e+04  -8.385620e+04
   3.359686e+05   3.094460e+05
   5.517723e+05   9.492091e+05
   1.775523e+05   1.048400e+06
  -7.432347e+05   4.015832e+05
  -1.462122e+06  -4.111253e+05
  -1.246568e+06  -7.841960e+05
  -1.988493e+05  -6.923405e+05
   7.909677e+05  -4.470910e+05
   9.505639e+05  -1.973779e+05
   3.891730e+05   6.471811e+04
  -1.212296e+05   2.322578e+05
  -7.326341e+04   1.791857e+05
   2.167502e+05   5.577600e+04
   7.426678e+04   1.273830e+05
  -5.925944e+05   2.786437e+05
  -1.042306e+06   4.346165e+04
  -5.281439e+05  -6.789715e+05
   7.395939e+05  -1.229903e+06
   1.687360e+06  -8.513620e+05
   1.477538e+06   3.436589e+05
   3.491760e+05   1.371938e+06
  -7.181731e+05   1.408625e+06
  -1.019118e+06   6.103080e+05
  -6.515668e+05  -1.739456e+05
  -1.694936e+05  -3.508720e+05
   2.301096e+04  -1.008512e+05
  -9.531791e+04  -1.594543e+04
  -2.874002e+05  -3.668525e+05
  -2.564395e+05  -7.895879e+05
   1.387089e+05  -6.915012e+05
   6.702492e+05   5.452595e+04
   8.054352e+05   8.755642e+05
   2.181234e+05   1.023628e+06
  -7.040652e+05   3.306460e+05
  -1.075374e+06  -6.199019e+05
  -4.284215e+05  -1.066911e+06
   6.680891e+05  -7.421832e+05
   1.137344e+06   9.028237e+03
   5.827852e+05   6.191978e+05
  -2.586713e+05   7.320850e+05
  -4.025650e+05   3.914051e+05
   1.983280e+05  -2.195230e+04
   6.289893e+05  -7.640865e+04
   1.754442e+05   3.081451e+05
  -7.868834e+05   7.023796e+05
  -1.262992e+06   5.536644e+05
  -8.097775e+05  -1.807228e+05
   5.224139e+04  -8.845843e+05
   5.508775e+05  -8.915255e+05
   4.634379e+05  -2.136508e+05
   1.017594e+05   4.525866e+05
  -2.080503e+05   4.690978e+05
  -3.539353e+05  -8.547368e+04
  -2.858432e+05  -5.582972e+05
   2.111530e+04  -4.662677e+05
   3.917806e+05   6.240778e+03
   4.990630e+05   2.867659e+05
   2.444935e+05   1.118016e+05
  -6.269673e+04  -1.824098e+05
  -8.297386e+04  -1.111270e+05
   9.140059e+04   3.223152e+05
   6.402725e+04   5.985248e+05
  -2.789496e+05   3.144371e+05
  -5.333953e+05  -3.011240e+05
  -2.672454e+05  -6.286418e+05
   3.663545e+05  -3.547555e+05
   7.031150e+05   2.143101e+05
   3.038338e+05   5.376524e+05
  -4.984998e+05   3.937699e+05
  -9.058604e+05  -1.077968e+04
  -5.072029e+05  -3.493987e+05
   2.717586e+05  -4.457819e+05
   6.350881e+05  -3.001783e+05
   2.836074e+05  -3.738930e+04
  -2.895281e+05   1.236670e+05
  -3.881752e+05   9.861426e+03
   1.093617e+05  -2.669205e+05
   6.540078e+05  -3.101680e+05
