
 $NMID
 id='ANONYMOUS ', fmtdat='(2E16.6)'
 volume=1.0
 tramp=1.0
 $END
   1.997452e+07   4.729955e+05
   1.326851e+07   9.343004e+06
  -7.984741e+03   1.255116e+07
  -8.673594e+06   8.611525e+06
  -7.458879e+06   1.100482e+06
  -6.133312e+05  -3.665109e+06
   4.150028e+06  -2.054054e+06
   3.294166e+06   3.213834e+06
  -8.448388e+05   5.802750e+06
  -3.842229e+06   2.651741e+06
  -3.344273e+06  -2.718199e+06
  -3.774912e+05  -4.411067e+06
   2.051692e+06  -8.619638e+05
   1.618853e+06   3.724181e+06
  -1.203982e+06   4.341203e+06
  -3.455341e+06   4.407838e+05
  -2.557074e+06  -4.053134e+06
   9.658285e+05  -5.115743e+06
   3.959243e+06  -2.343094e+06
   3.923751e+06   1.331825e+06
   1.505904e+06   2.916368e+06
  -4.404656e+05   2.116281e+06
  -2.151557e+04   1.056817e+06
   1.719018e+06   1.587277e+06
   1.984564e+06   3.183651e+06
  -6.604037e+05   3.696754e+06
  -4.411699e+06   1.931512e+06
  -5.731125e+06  -9.764426e+05
  -3.033202e+06  -2.778921e+06
   1.315500e+06  -2.278195e+06
   3.220966e+06  -1.788421e+05
   1.166420e+06   1.698749e+06
  -2.262828e+06   1.769300e+06
  -3.420251e+06  -1.842746e+05
  -1.549171e+06  -2.601912e+06
   9.178642e+05  -3.206696e+06
   1.553489e+06  -1.271591e+06
   4.366638e+05   1.216839e+06
  -6.243127e+05   1.485186e+06
  -4.155996e+05  -7.290063e+05
   7.132990e+05  -2.643366e+06
   1.633519e+06  -1.746438e+06
   1.478614e+06   1.042133e+06
   1.684516e+05   2.444150e+06
  -1.386005e+06   8.020562e+05
  -1.654345e+06  -2.014716e+06
   1.604356e+05  -2.904305e+06
   2.840337e+06  -9.529627e+05
   3.833354e+06   1.917190e+06
   1.810016e+06   3.205975e+06
  -1.657534e+06   2.134907e+06
  -3.492988e+06  -7.228932e+04
  -2.237122e+06  -1.559360e+06
   5.578941e+05  -1.374675e+06
   2.108484e+06  -7.540550e+04
   1.260269e+06   9.184445e+05
  -6.015112e+05   6.771763e+05
  -1.290391e+06  -3.939460e+05
  -1.808210e+05  -1.064370e+06
   1.244659e+06  -5.959047e+05
   1.129565e+06   5.303317e+05
  -6.122634e+05   1.133549e+06
  -2.074953e+06   4.435648e+05
  -1.393026e+06  -1.208812e+06
   1.164488e+06  -2.564111e+06
   3.410948e+06  -2.341923e+06
   3.535272e+06  -3.475415e+05
   1.844301e+06   2.153368e+06
   9.071888e+04   3.431609e+06
  -5.594786e+05   2.916282e+06
  -4.855376e+05   1.663858e+06
  -7.034495e+05   9.984508e+05
  -1.522548e+06   9.300891e+05
  -2.288875e+06   3.740880e+05
  -2.161651e+06  -1.109161e+06
  -9.201102e+05  -2.391176e+06
   8.056060e+05  -1.984644e+06
   1.882020e+06   8.298508e+04
   1.442357e+06   2.070789e+06
  -3.132062e+05   2.260018e+06
  -2.056711e+06   6.193932e+05
  -2.396231e+06  -1.349755e+06
  -1.195736e+06  -2.195665e+06
   3.158556e+05  -1.754861e+06
   9.129200e+05  -9.494615e+05
   7.072510e+05  -6.391258e+05
   8.548833e+05  -7.902615e+05
   1.945831e+06  -6.669970e+05
   3.023563e+06   3.033397e+05
   2.519078e+06   1.861134e+06
   1.332346e+05   3.016736e+06
  -2.510508e+06   2.821858e+06
  -3.327203e+06   1.206165e+06
  -1.848345e+06  -8.051937e+05
   3.331130e+05  -1.802526e+06
   1.222798e+06  -1.191333e+06
   3.651624e+05   1.981465e+05
  -9.614082e+05   8.718956e+05
  -1.290824e+06   2.200643e+05
  -4.382713e+05  -8.125785e+05
   5.505240e+05  -8.417540e+05
   6.136795e+05   2.323148e+05
  -3.228571e+05   9.814025e+05
  -1.357324e+06   1.189516e+05
  -1.400691e+06  -1.847676e+06
  -7.245162e+04  -2.997405e+06
   1.883898e+06  -2.029377e+06
   3.041578e+06   3.599076e+05
   2.444249e+06   2.232921e+06
   5.478022e+05   2.340287e+06
  -1.094327e+06   1.139264e+06
  -1.293969e+06   4.740259e+04
  -3.751465e+05  -4.104577e+04
   2.773216e+05   5.541241e+05
  -1.979251e+05   8.787247e+05
  -1.198086e+06   4.114998e+05
  -1.413466e+06  -4.568639e+05
  -4.024578e+05  -8.948037e+05
   8.154442e+05  -4.956585e+05
   8.427109e+05   3.146753e+05
  -5.100479e+05   6.793394e+05
  -1.892765e+06   1.129173e+05
  -1.767067e+06  -1.025133e+06
  -3.547170e+04  -1.796658e+06
   1.802404e+06  -1.484720e+06
   2.152814e+06  -2.696960e+05
   8.933895e+05   8.526535e+05
  -6.155920e+05   9.547656e+05
  -9.706077e+05   9.600325e+04
  -3.889227e+04  -6.999159e+05
   1.099878e+06  -5.075514e+05
   1.312127e+06   4.939804e+05
   4.396974e+05   1.225766e+06
  -6.682472e+05   9.289324e+05
  -1.006946e+06  -1.283740e+03
  -3.614793e+05  -5.094681e+05
   4.800415e+05  -7.512101e+04
   4.938454e+05   7.607894e+05
  -4.944414e+05   1.027327e+06
  -1.532682e+06   3.212909e+05
  -1.488596e+06  -8.418359e+05
  -2.741572e+05  -1.535333e+06
   1.022652e+06  -1.230969e+06
   1.276963e+06  -2.291985e+05
   4.603948e+05   6.153554e+05
  -4.532019e+05   6.581390e+05
  -5.873902e+05   4.934194e+04
  -2.771823e+03  -4.623765e+05
   5.267299e+05  -3.549555e+05
   4.065329e+05   1.034436e+05
  -1.777394e+05   2.112872e+05
  -4.839387e+05  -2.917538e+05
   5.144044e+03  -8.598506e+05
   9.933746e+05  -7.141648e+05
   1.572684e+06   2.953230e+05
   1.086841e+06   1.470102e+06
  -1.842132e+05   1.885023e+06
  -1.266389e+06   1.216044e+06
  -1.439759e+06   8.606017e+03
  -8.765159e+05  -8.294959e+05
  -3.101545e+05  -8.409803e+05
  -1.854796e+05  -3.816779e+05
  -2.620334e+05  -1.658486e+05
  -3.086269e+04  -4.452034e+05
   6.081560e+05  -7.202735e+05
   1.151200e+06  -3.510023e+05
   9.538787e+05   6.010745e+05
  -9.929019e+04   1.293268e+06
  -1.343400e+06   9.368309e+05
  -1.788219e+06  -3.473712e+05
  -9.597197e+05  -1.574436e+06
   6.193734e+05  -1.787471e+06
   1.822754e+06  -8.928372e+05
   1.876957e+06   3.363612e+05
   9.743372e+05   1.019621e+06
  -2.690649e+04   9.347401e+05
  -4.512460e+05   5.844755e+05
  -3.397200e+05   5.512031e+05
  -2.237452e+05   8.294164e+05
  -4.747936e+05   8.526443e+05
  -9.041107e+05   1.917829e+05
  -9.730160e+05  -8.548965e+05
  -3.876508e+05  -1.465225e+06
   5.125748e+05  -1.095154e+06
   1.001180e+06  -2.441848e+04
   6.601058e+05   9.058815e+05
  -1.764239e+05   1.051134e+06
  -7.378902e+05   4.588809e+05
  -5.953367e+05  -2.974232e+05
  -6.463135e+04  -6.854703e+05
   2.040098e+05  -6.222540e+05
  -1.899554e+04  -4.036447e+05
  -2.890621e+05  -3.096205e+05
  -1.522953e+04  -3.145743e+05
   8.076792e+05  -1.775307e+05
   1.471747e+06   2.297307e+05
   1.226082e+06   7.335711e+05
   8.901093e+04   9.962389e+05
  -1.071196e+06   8.137967e+05
  -1.347701e+06   2.938737e+05
  -6.818561e+05  -2.092275e+05
   1.358991e+05  -3.512028e+05
   3.450214e+05  -9.229585e+04
  -3.562351e+04   2.199025e+05
  -4.006127e+05   1.629924e+05
  -3.453371e+05  -2.722070e+05
  -5.683666e+04  -5.963398e+05
   5.284654e+04  -3.783930e+05
  -1.216304e+05   1.599282e+05
  -3.161370e+05   3.306938e+05
  -2.313215e+05  -1.681610e+05
   1.854711e+05  -7.993629e+05
   6.960812e+05  -7.809278e+05
   8.949815e+05  -3.045744e+04
   4.909127e+05   7.177709e+05
  -3.334972e+05   7.483221e+05
  -8.836537e+05   1.185232e+05
  -5.368930e+05  -4.915201e+05
   5.141114e+05  -5.172534e+05
   1.279425e+06   1.827509e+04
   9.373525e+05   6.413632e+05
  -2.573760e+05   8.644616e+05
  -1.195629e+06   5.354995e+05
  -1.066007e+06  -6.452358e+04
  -1.652106e+05  -4.287745e+05
   4.881480e+05  -2.629620e+05
   2.513956e+05   1.903535e+05
  -5.179060e+05   3.332199e+05
  -8.999703e+05  -1.737635e+05
  -3.863671e+05  -9.717620e+05
   6.180847e+05  -1.260445e+06
   1.229601e+06  -5.770582e+05
   9.573960e+05   6.575963e+05
   1.108170e+05   1.428833e+06
  -6.007514e+05   1.065477e+06
  -7.433200e+05  -7.339880e+04
  -4.015154e+05  -9.266658e+05
   8.111516e+04  -8.133020e+05
   4.085827e+05  -1.016932e+05
   4.349129e+05   3.199452e+05
   2.103116e+05   1.367547e+05
   6.724359e+03  -1.005998e+05
   9.259856e+04   1.766234e+05
   3.383354e+05   7.381826e+05
   2.358019e+05   8.658858e+05
  -4.478866e+05   3.172139e+05
  -1.164790e+06  -3.901653e+05
  -1.085673e+06  -6.752589e+05
  -1.452281e+05  -5.294668e+05
   7.588307e+05  -3.042904e+05
   8.048595e+05  -1.583137e+05
   2.110080e+05  -2.215540e+03
  -1.502579e+05   1.654729e+05
   6.641688e+04   2.094608e+05
   3.088145e+05   1.354710e+05
  -4.528253e+03   1.110350e+05
  -6.330741e+05   1.295190e+05
  -8.024707e+05  -6.494197e+04
  -1.688594e+05  -5.327549e+05
   7.827615e+05  -8.354628e+05
   1.273705e+06  -4.713831e+05
   9.617427e+05   4.305049e+05
   1.378126e+05   1.120777e+06
  -6.058887e+05   1.017476e+06
  -8.293447e+05   3.221256e+05
  -5.186680e+05  -2.548041e+05
  -5.066159e+04  -2.805505e+05
   1.439855e+05   9.803156e+03
  -3.094003e+04   7.906323e+04
  -2.710505e+05  -2.635005e+05
  -2.117856e+05  -6.345970e+05
   1.775494e+05  -5.023044e+05
   5.462442e+05   1.790892e+05
   4.909433e+05   8.260116e+05
  -4.566951e+04   7.958504e+05
  -6.515846e+05   7.981652e+04
  -7.546925e+05  -6.763614e+05
  -1.777662e+05  -8.532526e+05
   5.903116e+05  -4.368794e+05
   8.216065e+05   1.180168e+05
   3.414929e+05   4.277007e+05
  -2.368853e+05   4.333129e+05
  -2.282990e+05   2.543098e+05
   2.774660e+05   4.662735e+04
   5.291277e+05   2.099888e+03
   7.566339e+04   2.278375e+05
  -6.617224e+05   5.165845e+05
  -9.225384e+05   4.479381e+05
  -5.034038e+05  -9.376755e+04
   1.077198e+05  -6.400953e+05
   3.807585e+05  -6.151549e+05
   2.522648e+05  -5.177624e+04
  -1.683118e+04   4.096759e+05
  -2.154886e+05   2.860286e+05
  -2.749796e+05  -2.000424e+05
  -1.684436e+05  -4.598838e+05
   7.474726e+04  -2.621543e+05
   2.998215e+05   7.957471e+04
   3.348379e+05   1.801495e+05
   1.847239e+05   3.523237e+04
   1.637670e+04  -5.886593e+04
  -6.091300e+04   8.620627e+04
  -1.057903e+05   3.246947e+05
  -2.048866e+05   3.448279e+05
  -3.036486e+05   2.302060e+04
  -2.453471e+05  -3.998890e+05
   3.200122e+04  -5.218965e+05
   3.662749e+05  -1.947562e+05
   4.579885e+05   2.891606e+05
   1.406457e+05   4.849747e+05
  -3.838724e+05   2.567713e+05
  -6.396073e+05  -1.212242e+05
  -3.381553e+05  -3.110764e+05
   2.416899e+05  -2.454606e+05
   4.846897e+05  -8.761199e+04
   1.366922e+05   6.270804e+03
  -3.544969e+05  -1.771169e+04
  -3.483438e+05  -1.463365e+05
   2.071208e+05  -2.720263e+05
   6.979989e+05  -1.852631e+05
