
 $NMID
 id='ANONYMOUS ', fmtdat='(2E16.6)'
 volume=1.0
 tramp=1.0
 $END
  -5.629429e+07  -1.717628e+06
  -3.274250e+07  -3.677341e+07
   9.180226e+06  -3.833801e+07
   2.861956e+07  -1.309979e+07
   1.621973e+07   8.484412e+06
  -4.031750e+06   9.308128e+06
  -9.860570e+06  -2.144186e+06
  -1.977183e+06  -1.011645e+07
   7.016155e+06  -8.707585e+06
   9.792850e+06  -1.221515e+06
   6.563103e+06   6.385457e+06
   4.073276e+05   8.337497e+06
  -3.928062e+06   2.592820e+06
  -2.151026e+06  -5.181333e+06
   4.181483e+06  -5.988455e+06
   7.764374e+06   1.853208e+06
   3.858220e+06   1.034207e+07
  -4.330831e+06   1.150612e+07
  -1.023938e+07   5.496642e+06
  -1.067726e+07  -2.271093e+06
  -6.554862e+06  -7.569627e+06
  -6.582748e+05  -8.829558e+06
   3.235785e+06  -6.302110e+06
   2.531847e+06  -2.710258e+06
  -4.658425e+05  -1.793415e+06
  -9.565690e+04  -3.621599e+06
   5.015636e+06  -3.924055e+06
   9.063670e+06  -2.511775e+05
   6.686877e+06   4.101300e+06
   3.711972e+05   4.841599e+06
  -3.308254e+06   2.457947e+06
  -2.262773e+06   2.951227e+05
   3.053787e+05  -4.218473e+05
   1.685972e+06  -2.709155e+05
   1.800359e+06   1.107033e+06
   6.723742e+05   3.455483e+06
  -1.713800e+06   3.743843e+06
  -3.287971e+06   1.205566e+05
  -1.856533e+06  -3.538893e+06
   6.803066e+05  -2.201426e+06
   2.953435e+05   2.004398e+06
  -2.448651e+06   1.955984e+06
  -2.223246e+06  -3.346364e+06
   2.870952e+06  -6.089418e+06
   7.257553e+06  -7.935673e+05
   4.973752e+06   7.170708e+06
  -2.286093e+06   8.537999e+06
  -7.466982e+06   2.142013e+06
  -6.480220e+06  -4.719946e+06
  -1.305746e+06  -5.963889e+06
   3.576662e+06  -2.309347e+06
   4.901672e+06   1.943388e+06
   1.988883e+06   3.622635e+06
  -2.603710e+06   2.021379e+06
  -4.427235e+06  -1.198510e+06
  -1.748157e+06  -2.845073e+06
   1.778774e+06  -1.276818e+06
   1.560991e+06   1.136540e+06
  -1.557111e+06   7.768409e+05
  -2.453936e+06  -2.127262e+06
   9.511773e+05  -3.691649e+06
   4.950722e+06  -1.750203e+06
   5.301898e+06   1.740888e+06
   2.087125e+06   4.146540e+06
  -1.921802e+06   5.013012e+06
  -4.869623e+06   4.405982e+06
  -5.940762e+06   1.490482e+06
  -4.346714e+06  -3.101678e+06
  -6.923034e+05  -5.918771e+06
   2.147103e+06  -4.463573e+06
   1.948346e+06  -9.161319e+05
   1.190176e+05   5.507197e+05
  -2.752504e+05  -7.172327e+05
   1.267594e+06  -1.644866e+06
   2.470395e+06  -3.073734e+05
   1.780732e+06   1.649586e+06
   2.771494e+04   1.819180e+06
  -1.265577e+06   7.486828e+04
  -1.320448e+06  -1.925132e+06
   1.282206e+05  -2.657617e+06
   2.599500e+06  -1.472911e+06
   4.192717e+06   1.206064e+06
   3.027089e+06   3.691595e+06
  -1.263812e+05   4.159619e+06
  -2.346420e+06   2.650623e+06
  -2.318564e+06   1.028702e+06
  -1.870400e+06   4.903430e+05
  -2.824736e+06   1.973990e+05
  -4.027682e+06  -1.034695e+06
  -3.061882e+06  -2.824593e+06
   1.631437e+05  -3.833048e+06
   3.190195e+06  -3.389314e+06
   3.914927e+06  -1.738543e+06
   2.409487e+06   4.461899e+05
   2.118839e+05   2.003410e+06
  -1.034167e+06   1.733090e+06
  -5.155302e+05  -2.626199e+04
   1.050560e+06  -1.146634e+06
   1.812244e+06  -2.697738e+05
   8.353718e+05   1.172878e+06
  -5.166743e+05   9.788424e+05
  -3.076130e+05  -4.283370e+05
   1.182365e+06  -5.093503e+05
   1.731545e+06   1.560168e+06
   2.161082e+05   3.521303e+06
  -2.034334e+06   3.053954e+06
  -3.193275e+06   5.783718e+05
  -2.891643e+06  -1.781920e+06
  -1.723019e+06  -2.737939e+06
  -1.534096e+05  -2.373025e+06
   1.214796e+06  -1.242744e+06
   1.438478e+06  -1.206389e+05
   4.515182e+05   7.568198e+04
  -2.779579e+05  -7.242983e+05
   4.917440e+05  -1.253724e+06
   1.860954e+06  -4.296872e+05
   1.868354e+06   1.004443e+06
   2.461102e+05   1.390353e+06
  -1.146749e+06   4.360609e+05
  -7.494581e+05  -5.069093e+05
   8.822647e+05  -3.598023e+05
   1.965492e+06   5.646820e+05
   1.403339e+06   1.421609e+06
  -4.558882e+05   1.748691e+06
  -2.261055e+06   1.301139e+06
  -2.578287e+06   3.464099e+04
  -1.053823e+06  -1.281611e+06
   9.601772e+05  -1.378804e+06
   1.506395e+06  -9.724603e+04
   1.498846e+05   1.033607e+06
  -1.463908e+06   5.918172e+05
  -1.541476e+06  -8.727311e+05
  -1.488846e+05  -1.577896e+06
   1.139662e+06  -7.915612e+05
   1.148995e+06   4.453728e+05
   1.332427e+05   7.784393e+05
  -7.760587e+05  -4.558262e+03
  -6.262317e+05  -1.032105e+06
   6.154634e+05  -1.285728e+06
   1.887321e+06  -3.817893e+05
   1.821101e+06   1.101011e+06
   2.153212e+05   1.958213e+06
  -1.469078e+06   1.429575e+06
  -1.630051e+06   5.556765e+04
  -3.863087e+05  -8.595200e+05
   6.840579e+05  -6.880470e+05
   5.621088e+05  -1.888934e+04
  -1.780711e+05   2.815971e+05
  -4.459164e+05   8.957855e+04
  -1.828028e+04  -8.360154e+04
   4.783888e+05   1.624898e+05
   4.255815e+05   7.280121e+05
  -3.155730e+05   1.109279e+06
  -1.363665e+06   7.243758e+05
  -1.901674e+06  -5.384852e+05
  -1.224346e+06  -1.904638e+06
   3.731850e+05  -2.212117e+06
   1.599033e+06  -1.149396e+06
   1.522333e+06   2.809355e+05
   6.552771e+05   8.719269e+05
   1.972493e+05   5.392031e+05
   4.546026e+05   1.635812e+05
   6.221921e+05   3.360439e+05
   5.086124e+04   7.480424e+05
  -8.963676e+05   7.658408e+05
  -1.360118e+06   1.613236e+05
  -8.710907e+05  -7.455075e+05
   3.797282e+05  -1.290585e+06
   1.673235e+06  -8.307022e+05
   2.025446e+06   6.230186e+05
   8.722981e+05   2.040297e+06
  -1.145303e+06   2.132720e+06
  -2.467724e+06   7.508495e+05
  -2.118236e+06  -8.333818e+05
  -7.195643e+05  -1.329474e+06
   3.140870e+05  -8.121557e+05
   3.715936e+05  -3.759176e+05
   4.700863e+04  -6.726264e+05
   1.343667e+05  -1.235077e+06
   7.111243e+05  -1.183153e+06
   1.237823e+06  -2.236359e+05
   1.170475e+06   1.082087e+06
   3.881536e+05   1.783190e+06
  -6.669631e+05   1.281796e+06
  -1.185183e+06  -1.033984e+05
  -6.538501e+05  -1.269433e+06
   4.945744e+05  -1.277598e+06
   1.159408e+06  -2.622622e+05
   7.269110e+05   7.674005e+05
  -2.243318e+05   1.037740e+06
  -6.126380e+05   6.952140e+05
  -1.396960e+05   3.615412e+05
   3.841716e+05   3.230375e+05
   3.463077e+04   3.501900e+05
  -1.098998e+06   1.126508e+05
  -1.915876e+06  -4.536694e+05
  -1.428594e+06  -1.090717e+06
   1.633574e+05  -1.362751e+06
   1.587472e+06  -9.696478e+05
   1.735496e+06  -1.063388e+05
   7.369226e+05   5.693142e+05
  -2.935022e+05   5.372998e+05
  -4.948206e+05  -2.105151e+04
  -2.441097e+04  -4.169632e+05
   4.069647e+05  -2.130194e+05
   4.275688e+05   3.452790e+05
   2.211961e+05   6.620146e+05
   9.246426e+04   4.356072e+05
   1.365301e+05  -4.969820e+04
   2.570584e+05  -2.084840e+05
   2.319956e+05   2.398679e+05
  -1.814695e+05   8.817840e+05
  -9.018732e+05   9.316218e+05
  -1.308665e+06   1.102750e+05
  -7.724116e+05  -8.864498e+05
   4.486913e+05  -1.062077e+06
   1.200302e+06  -2.748834e+05
   6.420846e+05   5.625505e+05
  -7.049993e+05   5.452246e+05
  -1.446594e+06  -2.256499e+05
  -8.155102e+05  -8.914868e+05
   5.653271e+05  -8.547683e+05
   1.419369e+06  -2.751117e+05
   1.093217e+06   3.028908e+05
   6.330630e+04   4.788338e+05
  -6.280594e+05   1.841124e+05
  -3.523233e+05  -3.075874e+05
   5.479700e+05  -4.600948e+05
   1.082708e+06   1.165916e+05
   5.807660e+05   1.105454e+06
  -5.990067e+05   1.539479e+06
  -1.393408e+06   7.490212e+05
  -1.107880e+06  -7.593111e+05
  -7.619730e+04  -1.650561e+06
   7.701557e+05  -1.117990e+06
   8.375904e+05   2.550604e+05
   2.875137e+05   1.136162e+06
  -3.118036e+05   8.623623e+05
  -5.387684e+05   2.526353e+04
  -3.721080e+05  -3.770278e+05
  -1.052790e+05  -1.331166e+05
  -6.622577e+04   7.653818e+04
  -2.920703e+05  -3.036087e+05
  -4.267875e+05  -9.285848e+05
  -6.202881e+04  -1.004962e+06
   7.326259e+05  -3.185073e+05
   1.319273e+06   5.230174e+05
   1.083189e+06   8.601464e+05
   1.218427e+05   6.640934e+05
  -7.751077e+05   3.291225e+05
  -9.060521e+05   8.867696e+04
  -3.631030e+05  -8.783726e+04
   1.330381e+05  -1.998988e+05
   9.288272e+04  -1.725568e+05
  -1.870627e+05  -8.610079e+04
  -5.649694e+04  -1.195444e+05
   5.695972e+05  -1.877244e+05
   9.672021e+05   5.562234e+04
   4.303600e+05   6.587976e+05
  -7.921702e+05   1.058664e+06
  -1.635857e+06   6.418909e+05
  -1.331775e+06  -4.392267e+05
  -1.929187e+05  -1.299693e+06
   7.941550e+05  -1.243542e+06
   9.929589e+05  -4.715123e+05
   5.798648e+05   2.239710e+05
   1.250303e+05   3.352014e+05
  -2.133040e+04   7.970534e+04
   9.699492e+04   1.992543e+04
   2.359304e+05   3.743305e+05
   1.633445e+05   7.622836e+05
  -1.902534e+05   6.256967e+05
  -6.066392e+05  -1.154440e+05
  -6.560372e+05  -8.782744e+05
  -1.090533e+05  -9.542408e+05
   6.697152e+05  -2.332466e+05
   9.267446e+05   6.700183e+05
   2.986245e+05   1.020291e+06
  -6.785875e+05   6.240048e+05
  -1.050097e+06  -1.078865e+05
  -4.921920e+05  -6.216219e+05
   2.960720e+05  -6.563926e+05
   4.078674e+05  -3.365585e+05
  -1.801126e+05  -1.014795e+04
  -5.879524e+05   8.778681e+03
  -1.364998e+05  -2.980216e+05
   7.970656e+05  -5.772409e+05
   1.232990e+06  -4.046751e+05
   7.445114e+05   2.319420e+05
  -1.263166e+05   8.144147e+05
  -5.900483e+05   7.860334e+05
  -4.416776e+05   1.676758e+05
  -4.735342e+04  -4.220352e+05
   2.298647e+05  -4.134919e+05
   3.089347e+05   1.121530e+05
   2.123244e+05   5.423814e+05
  -5.285490e+04   4.279766e+05
  -3.576391e+05  -4.158026e+04
  -4.437123e+05  -3.092492e+05
  -2.230641e+05  -1.269770e+05
   5.020854e+04   1.700238e+05
   8.455019e+04   1.120819e+05
  -4.864653e+04  -2.911605e+05
  -1.737569e+04  -5.396547e+05
   2.669532e+05  -2.598970e+05
   4.539615e+05   3.129753e+05
   1.886555e+05   5.874573e+05
  -3.665702e+05   2.891382e+05
  -6.244738e+05  -2.562139e+05
  -2.271113e+05  -5.203481e+05
   4.972641e+05  -3.216393e+05
   8.336358e+05   8.764439e+04
   4.371521e+05   3.677391e+05
  -2.850061e+05   3.882249e+05
  -6.062759e+05   2.225553e+05
  -2.651486e+05   1.707037e+04
   2.696249e+05  -7.588801e+04
   3.474667e+05   3.096314e+04
  -1.329239e+05   2.262446e+05
  -6.328895e+05   2.095229e+05
