
 $NMID
 id='ANONYMOUS ', fmtdat='(2E16.6)'
 volume=1.0
 tramp=1.0
 $END
   2.435353e+07  -3.153602e+05
   1.348781e+07   1.711927e+07
  -5.560781e+06   1.712424e+07
  -1.311879e+07   3.847433e+06
  -6.035315e+06  -6.135137e+06
   3.143219e+06  -4.860817e+06
   4.612945e+06   1.569135e+06
   3.084750e+05   4.805925e+06
  -3.524639e+06   3.293991e+06
  -4.369761e+06  -1.804539e+05
  -2.801209e+06  -3.122639e+06
   1.054479e+05  -3.757279e+06
   2.303179e+06  -1.386902e+06
   1.528989e+06   1.743592e+06
  -1.437908e+06   1.956987e+06
  -2.908931e+06  -1.163134e+06
  -9.726708e+05  -4.051577e+06
   2.312559e+06  -3.885240e+06
   4.221513e+06  -1.464545e+06
   4.249833e+06   1.227564e+06
   2.850063e+06   3.410215e+06
   1.849281e+05   4.393292e+06
  -2.449975e+06   3.061231e+06
  -2.684248e+06   1.963653e+05
  -4.422883e+05  -1.157387e+06
   1.004513e+06   3.685248e+05
  -6.280464e+05   2.176562e+06
  -3.228017e+06   1.327168e+06
  -3.369658e+06  -1.355870e+06
  -1.049292e+06  -2.915722e+06
   1.046622e+06  -2.409895e+06
   1.574262e+06  -1.144024e+06
   1.256160e+06  -6.375399e+04
   6.199231e+05   6.655599e+05
  -2.883844e+05   4.575469e+05
  -5.316622e+05  -8.264761e+05
   7.200758e+05  -1.502882e+06
   2.088829e+06  -7.028689e+04
   1.475620e+06   1.936057e+06
  -4.355879e+05   1.784461e+06
  -8.920497e+05  -4.126435e+04
   4.486477e+05  -3.242477e+05
   7.094721e+05   1.651317e+06
  -1.543453e+06   2.586118e+06
  -3.626592e+06   1.830359e+05
  -2.515151e+06  -3.147011e+06
   8.104908e+05  -3.625393e+06
   2.881337e+06  -1.128063e+06
   2.198170e+06   1.333991e+06
   1.849551e+05   1.759454e+06
  -1.285722e+06   6.228413e+05
  -1.394125e+06  -8.307532e+05
  -1.302550e+05  -1.644379e+06
   1.596076e+06  -1.072730e+06
   2.061637e+06   6.303022e+05
   6.213229e+05   1.700014e+06
  -9.279915e+05   8.593311e+05
  -5.378034e+05  -5.522969e+05
   9.893367e+05  -2.561818e+05
   1.027451e+06   1.480144e+06
  -9.298163e+05   2.109533e+06
  -2.524157e+06   5.931167e+05
  -2.037819e+06  -1.272278e+06
  -4.951716e+05  -1.801592e+06
   5.094866e+05  -1.524694e+06
   1.055835e+06  -1.370383e+06
   1.695615e+06  -7.849337e+05
   1.724784e+06   7.667525e+05
   4.155404e+05   1.967235e+06
  -1.101350e+06   1.258412e+06
  -1.042143e+06  -5.525093e+05
   4.082020e+05  -1.180246e+06
   1.308291e+06  -1.898560e+04
   6.462999e+05   1.255432e+06
  -5.965353e+05   1.198480e+06
  -1.101424e+06   2.215820e+05
  -6.847051e+05  -5.020226e+05
   6.565569e+04  -4.884291e+05
   5.550282e+05   6.684270e+04
   3.249532e+05   7.309331e+05
  -6.492323e+05   8.633801e+05
  -1.522203e+06   3.848966e+04
  -1.253242e+06  -1.183025e+06
   1.022411e+04  -1.623087e+06
   9.852764e+05  -9.501503e+05
   9.379507e+05  -8.423558e+04
   5.030457e+05   1.484192e+05
   4.908204e+05   9.675052e+03
   7.300872e+05   1.154345e+05
   6.336767e+05   4.642067e+05
   1.889907e+05   7.219741e+05
  -2.497268e+05   8.285645e+05
  -5.859909e+05   7.596324e+05
  -7.793767e+05   2.797772e+05
  -5.461218e+05  -4.673220e+05
   8.435364e+04  -7.097125e+05
   4.045206e+05  -9.370980e+04
  -5.050564e+04   5.516495e+05
  -6.454555e+05   3.126041e+05
  -5.153339e+05  -4.049850e+05
   7.381871e+04  -5.288404e+05
   1.751985e+05  -5.056762e+04
  -2.544164e+05   2.973742e+04
  -2.973019e+05  -5.620547e+05
   3.597804e+05  -8.848848e+05
   8.866833e+05  -3.184294e+05
   6.503085e+05   4.707708e+05
   1.296808e+05   6.290097e+05
  -1.044675e+04   3.206462e+05
   6.316473e+04   1.754362e+05
  -9.100122e+04   2.162507e+05
  -2.807955e+05   1.005295e+05
  -1.019448e+05  -5.161834e+04
   1.828877e+05   1.183227e+05
   2.958132e+03   4.202635e+05
  -5.147523e+05   3.184379e+05
  -6.698448e+05  -1.791281e+05
  -2.511569e+05  -5.060747e+05
   2.092777e+05  -3.947460e+05
   2.748746e+05  -1.488246e+05
   9.166044e+04  -3.819593e+04
  -5.131683e+04   6.131069e+03
  -9.811288e+04   1.914720e+04
  -2.314121e+04  -1.179542e+05
   2.428166e+05  -2.801761e+05
   4.962456e+05  -1.111505e+05
   3.346808e+05   3.471722e+05
  -2.121533e+05   5.255745e+05
  -5.390855e+05   1.268459e+05
  -2.453118e+05  -3.662620e+05
   2.894856e+05  -3.441567e+05
   4.287339e+05   9.969122e+04
   9.474343e+04   3.855565e+05
  -2.739446e+05   2.518042e+05
  -3.525541e+05  -5.814441e+04
  -1.710293e+05  -2.517401e+05
   1.046865e+05  -2.428369e+05
   2.879115e+05  -4.634186e+04
   1.859683e+05   2.221236e+05
  -1.713061e+05   2.897756e+05
  -4.016980e+05   1.408103e+03
  -1.840329e+05  -3.685169e+05
   2.635052e+05  -3.851440e+05
   4.314548e+05  -2.925551e+04
   1.928696e+05   2.921863e+05
  -1.046534e+05   3.115380e+05
  -1.958099e+05   1.603418e+05
  -1.756050e+05   3.016432e+04
  -1.727239e+05  -8.704079e+04
  -1.185043e+05  -2.103552e+05
   2.223720e+04  -2.317134e+05
   1.095998e+05  -1.293825e+05
   9.013949e+04  -6.381026e+04
   1.235356e+05  -9.203259e+04
   2.635083e+05  -2.983110e+04
   2.806851e+05   2.089151e+05
   3.216395e+04   3.746212e+05
  -2.347182e+05   2.315418e+05
  -2.240592e+05  -5.070432e+04
  -4.147506e+04  -1.386616e+05
   5.205790e+03  -2.377235e+04
  -9.357852e+04   3.536713e+04
  -9.146367e+04  -3.611785e+04
   5.265388e+04  -6.476871e+04
   1.176533e+05   1.251017e+04
   2.315872e+04   5.255295e+04
  -5.739163e+04   6.352640e+03
  -4.609661e+04   8.202955e+03
  -9.215941e+04   7.720299e+04
  -2.328936e+05   2.003976e+04
  -2.309266e+05  -2.219450e+05
   5.277461e+04  -3.834850e+05
   3.651710e+05  -2.347673e+05
   3.801443e+05   6.207655e+04
   1.479856e+05   1.822208e+05
  -1.574513e+04   9.157079e+04
   1.698030e+04   3.454438e+04
   8.517183e+04   1.406876e+05
   3.647772e+04   2.740504e+05
  -9.796561e+04   2.656472e+05
  -2.196348e+05   1.059041e+05
  -2.647932e+05  -1.099609e+05
  -1.817070e+05  -2.717976e+05
   2.489715e+04  -2.718071e+05
   2.053039e+05  -8.036086e+04
   1.787062e+05   1.575250e+05
  -2.469606e+04   2.259098e+05
  -1.725900e+05   8.227412e+04
  -1.250729e+05  -1.008775e+05
   8.189945e+03  -1.646644e+05
   5.641651e+04  -1.250347e+05
   8.350390e+03  -7.428921e+04
  -2.730457e+04  -4.313846e+04
   1.949392e+04  -2.194387e+04
   1.344329e+05  -1.478764e+04
   2.482258e+05   7.468459e+02
   2.518300e+05   7.928893e+04
   7.526554e+04   1.986429e+05
  -1.802353e+05   2.305264e+05
  -2.869973e+05   1.085638e+05
  -1.561297e+05  -4.817706e+04
   3.170526e+04  -7.999378e+04
   6.062466e+04   1.188655e+03
  -4.472720e+04   5.013412e+04
  -1.031146e+05  -1.144226e+03
  -5.744534e+04  -8.165494e+04
  -9.700223e+03  -1.105131e+05
  -1.357328e+04  -8.121070e+04
  -8.577543e+03  -2.105340e+04
   2.919802e+04   3.576596e+04
   3.662057e+04   3.355377e+04
   6.175508e+03  -4.932385e+04
   2.606036e+04  -1.236591e+05
   1.081483e+05  -7.121640e+04
   1.178219e+05   7.594690e+04
  -1.936750e+04   1.446497e+05
  -1.555069e+05   5.076676e+04
  -1.000942e+05  -8.138766e+04
   1.046700e+05  -9.179877e+04
   2.258870e+05   1.300904e+04
   1.331213e+05   1.081884e+05
  -6.866521e+04   1.244631e+05
  -1.947676e+05   8.144267e+04
  -1.664229e+05   7.242151e+03
  -3.521803e+04  -6.864256e+04
   8.325982e+04  -7.902681e+04
   8.219629e+04   9.283244e+03
  -4.619681e+04   9.621551e+04
  -1.675565e+05   3.621024e+04
  -1.257431e+05  -1.513370e+05
   6.561685e+04  -2.608346e+05
   2.196863e+05  -1.412297e+05
   1.937139e+05   1.123203e+05
   4.087677e+04   2.649935e+05
  -8.962889e+04   1.967533e+05
  -1.270072e+05   4.470895e+02
  -9.556632e+04  -1.430972e+05
  -2.838666e+04  -1.396768e+05
   4.837915e+04  -4.332925e+04
   8.452378e+04   2.285158e+04
   5.185005e+04   4.466550e+03
   9.465291e+03  -2.749485e+04
   3.740271e+04   2.219029e+04
   1.018605e+05   1.300650e+05
   7.442111e+04   1.701741e+05
  -8.366168e+04   8.254496e+04
  -2.327079e+05  -4.507633e+04
  -2.095740e+05  -1.006438e+05
  -2.943722e+04  -8.442923e+04
   1.306622e+05  -6.245255e+04
   1.375055e+05  -4.533538e+04
   3.580748e+04  -1.558251e+03
  -3.328712e+04   4.568961e+04
  -6.254436e+03   3.835112e+04
   4.344411e+04  -5.918111e+03
   1.370414e+04  -6.228437e+03
  -8.809511e+04   3.983731e+04
  -1.424977e+05   2.888123e+04
  -5.766430e+04  -8.451027e+04
   1.137886e+05  -1.837707e+05
   2.241168e+05  -1.289090e+05
   1.864021e+05   5.241589e+04
   5.054524e+04   1.941062e+05
  -7.170202e+04   1.886924e+05
  -1.159039e+05   8.380015e+04
  -8.880033e+04  -8.077466e+03
  -3.054574e+04  -2.959358e+04
   1.067177e+04  -3.254241e+03
  -2.513166e+03   1.055398e+04
  -5.607340e+04  -3.075983e+04
  -7.537713e+04  -1.009355e+05
  -3.855938e+03  -1.107466e+05
   1.074101e+05  -8.497118e+03
   1.347752e+05   1.281588e+05
   2.633176e+04   1.571646e+05
  -1.216025e+05   4.095140e+04
  -1.615051e+05  -1.045506e+05
  -5.437629e+04  -1.508760e+05
   9.237526e+04  -9.188045e+04
   1.439664e+05  -6.765331e+03
   7.628423e+04   5.205534e+04
  -1.192818e+04   7.846687e+04
  -1.725927e+04   6.620959e+04
   5.106644e+04   1.927514e+04
   8.580834e+04  -8.561487e+03
   1.419091e+04   3.706780e+04
  -1.085005e+05   1.147121e+05
  -1.615843e+05   1.117199e+05
  -1.001886e+05  -5.836839e+03
   2.964063e+03  -1.267828e+05
   5.552273e+04  -1.243439e+05
   4.131951e+04  -1.354831e+04
   2.247368e+03   7.353703e+04
  -3.084347e+04   5.149348e+04
  -4.995999e+04  -3.250449e+04
  -4.109125e+04  -7.780118e+04
   5.365934e+03  -4.902729e+04
   5.955673e+04   5.063924e+03
   7.174717e+04   2.500545e+04
   3.527002e+04   5.806442e+03
  -4.134358e+03  -8.764392e+03
  -1.246543e+04   1.621732e+04
  -9.072891e+03   6.110151e+04
  -2.662028e+04   6.872348e+04
  -5.572523e+04   1.148062e+04
  -5.506110e+04  -6.719822e+04
  -6.178748e+03  -9.306153e+04
   5.956855e+04  -4.125934e+04
   8.520676e+04   3.842080e+04
   3.642139e+04   7.761828e+04
  -5.885532e+04   5.454645e+04
  -1.168126e+05  -7.709439e+02
  -7.244080e+04  -4.606948e+04
   3.668620e+04  -5.695144e+04
   9.228808e+04  -3.282708e+04
   3.082774e+04   3.515852e+03
  -6.873527e+04   1.503324e+04
  -7.551958e+04  -1.713200e+04
   2.862936e+04  -6.154260e+04
   1.264556e+05  -5.557202e+04
