
 $NMID
 id='ANONYMOUS ', fmtdat='(2E16.6)'
 volume=1.0
 tramp=1.0
 $END
  -8.647361e+06  -1.554870e+06
  -4.752583e+06  -5.504481e+06
   1.430650e+06  -5.528247e+06
   4.489903e+06  -2.454528e+06
   2.905680e+06   6.787816e+05
  -3.398851e+05   1.555507e+06
  -1.794012e+06   1.881856e+05
  -8.023568e+05  -1.628837e+06
   9.544497e+05  -2.011032e+06
   1.745346e+06  -5.466579e+05
   1.124523e+06   1.338373e+06
  -1.542382e+05   1.732411e+06
  -8.875601e+05   2.606868e+05
  -3.997103e+05  -1.425735e+06
   7.872279e+05  -1.456558e+06
   1.381655e+06   1.975740e+05
   6.448107e+05   1.827301e+06
  -8.359918e+05   1.941035e+06
  -1.805054e+06   6.580452e+05
  -1.585151e+06  -7.772478e+05
  -5.735135e+05  -1.361889e+06
   2.756051e+05  -1.072272e+06
   3.193910e+05  -6.016240e+05
  -2.205438e+05  -5.972804e+05
  -4.358963e+05  -1.022568e+06
   3.313095e+05  -1.190802e+06
   1.599535e+06  -5.569643e+05
   2.071142e+06   5.482426e+05
   1.087412e+06   1.199304e+06
  -4.800362e+05   8.982579e+05
  -1.134211e+06   6.472642e+04
  -4.168684e+05  -5.153889e+05
   6.970324e+05  -4.364814e+05
   1.024342e+06   1.715243e+05
   4.035657e+05   8.545584e+05
  -3.914758e+05   1.047076e+06
  -6.266611e+05   4.696936e+05
  -2.677670e+05  -4.029728e+05
   1.609048e+05  -6.240636e+05
   1.558338e+05   9.151977e+04
  -2.881370e+05   8.149531e+05
  -6.637771e+05   4.975682e+05
  -4.552005e+05  -5.652028e+05
   2.702748e+05  -9.995432e+05
   8.335993e+05  -1.387627e+05
   5.983479e+05   1.072592e+06
  -3.564985e+05   1.251661e+06
  -1.254088e+06   2.077812e+05
  -1.301016e+06  -9.887093e+05
  -3.910955e+05  -1.290222e+06
   7.655031e+05  -6.209143e+05
   1.216091e+06   3.108729e+05
   6.192139e+05   7.520673e+05
  -3.969069e+05   4.597570e+05
  -8.377814e+05  -1.780867e+05
  -3.793332e+05  -5.029654e+05
   3.174322e+05  -2.316466e+05
   4.213584e+05   2.455122e+05
  -9.402721e+04   3.384620e+05
  -4.893357e+05  -3.476885e+04
  -1.986902e+05  -4.018538e+05
   5.097466e+05  -3.391953e+05
   8.621916e+05   1.167427e+05
   4.046129e+05   6.387294e+05
  -5.740226e+05   9.075987e+05
  -1.332590e+06   6.979716e+05
  -1.323012e+06  -1.806613e+04
  -6.331596e+05  -8.782252e+05
   1.326819e+05  -1.285434e+06
   4.419418e+05  -1.001756e+06
   3.218226e+05  -4.497327e+05
   2.217137e+05  -1.942521e+05
   4.231352e+05  -2.391716e+05
   7.165218e+05  -1.143055e+05
   6.987410e+05   3.755531e+05
   2.603825e+05   8.008632e+05
  -3.070667e+05   6.296120e+05
  -5.942122e+05  -9.172510e+04
  -3.849231e+05  -7.449446e+05
   2.019571e+05  -7.644151e+05
   7.537839e+05  -1.547851e+05
   8.327883e+05   5.712491e+05
   3.730162e+05   8.879897e+05
  -2.091687e+05   6.993018e+05
  -4.465080e+05   3.414799e+05
  -3.541321e+05   1.719633e+05
  -3.666249e+05   1.886002e+05
  -7.096007e+05   9.648273e+04
  -1.022836e+06  -2.862811e+05
  -7.596646e+05  -7.853116e+05
   1.170539e+05  -1.040717e+06
   9.941655e+05  -8.383858e+05
   1.189866e+06  -2.680405e+05
   6.143930e+05   3.384112e+05
  -1.612032e+05   6.014043e+05
  -4.616711e+05   3.729827e+05
  -1.324949e+05  -7.767081e+04
   3.660116e+05  -2.667407e+05
   4.767880e+05  -1.393531e+04
   1.311171e+05   3.206503e+05
  -2.281508e+05   2.719707e+05
  -1.851251e+05  -1.102983e+05
   1.896864e+05  -2.823766e+05
   4.578718e+05   1.102723e+05
   2.936715e+05   7.499287e+05
  -2.328907e+05   9.717857e+05
  -7.686679e+05   4.857846e+05
  -9.551349e+05  -3.392064e+05
  -6.522589e+05  -8.697672e+05
  -5.039519e+04  -7.919399e+05
   4.204645e+05  -3.259485e+05
   4.390366e+05   4.525020e+04
   1.254664e+05   3.649020e+04
  -6.861785e+04  -2.054878e+05
   1.223135e+05  -3.038191e+05
   4.548577e+05  -8.075045e+04
   4.746049e+05   2.514532e+05
   8.490792e+04   3.493968e+05
  -3.120591e+05   1.322658e+05
  -2.673572e+05  -1.455521e+05
   2.045195e+05  -1.828220e+05
   6.201128e+05   7.830524e+04
   5.129293e+05   4.299351e+05
  -9.243995e+04   5.851509e+05
  -6.835571e+05   3.938625e+05
  -7.451508e+05  -2.814978e+04
  -2.613933e+05  -3.527499e+05
   2.735502e+05  -3.113978e+05
   3.606004e+05   1.895251e+04
  -1.282258e+04   2.580299e+05
  -4.090286e+05   1.233820e+05
  -4.237609e+05  -2.461797e+05
  -7.142138e+04  -4.462027e+05
   2.910940e+05  -2.696802e+05
   3.434817e+05   7.093071e+04
   8.846740e+04   2.033191e+05
  -1.753938e+05   6.770862e+03
  -1.388414e+05  -2.804999e+05
   2.093483e+05  -3.275749e+05
   5.336164e+05  -4.014907e+04
   4.673171e+05   3.591300e+05
   1.387046e+04   5.413875e+05
  -4.218760e+05   3.665375e+05
  -4.540620e+05   1.092408e+03
  -1.206501e+05  -2.441506e+05
   1.944580e+05  -2.032744e+05
   2.019667e+05   9.005476e+03
  -1.885516e+04   1.441387e+05
  -1.778185e+05   8.666275e+04
  -1.114843e+05  -4.096519e+04
   7.245849e+04  -3.699130e+04
   1.326404e+05   1.360476e+05
  -5.913458e+04   2.864131e+05
  -3.744654e+05   1.839090e+05
  -5.155465e+05  -1.831710e+05
  -2.920987e+05  -5.552955e+05
   1.620785e+05  -6.270317e+05
   4.925156e+05  -3.353325e+05
   4.769542e+05   8.214854e+04
   2.358038e+05   3.185376e+05
   5.584081e+04   2.783511e+05
   5.486304e+04   1.260501e+05
   9.096034e+04   7.560473e+04
  -1.527574e+04   1.572736e+05
  -2.462616e+05   2.016388e+05
  -3.958711e+05   4.774938e+04
  -2.732590e+05  -2.451225e+05
   1.065737e+05  -4.121821e+05
   4.954088e+05  -2.348952e+05
   5.782421e+05   2.114047e+05
   2.363722e+05   5.830714e+05
  -3.124634e+05   5.730386e+05
  -6.718828e+05   1.987822e+05
  -6.124548e+05  -2.244931e+05
  -2.604033e+05  -3.962659e+05
   6.502633e+04  -3.000533e+05
   1.711504e+05  -1.622399e+05
   1.260166e+05  -1.734352e+05
   1.131361e+05  -2.826936e+05
   2.112639e+05  -2.725740e+05
   3.232448e+05  -1.966468e+04
   2.884953e+05   3.399100e+05
   5.722149e+04   5.168991e+05
  -2.292393e+05   3.459957e+05
  -3.402934e+05  -4.472960e+04
  -1.736552e+05  -3.457626e+05
   1.230953e+05  -3.470075e+05
   2.823272e+05  -1.062722e+05
   1.849061e+05   1.464734e+05
  -2.521000e+04   2.421444e+05
  -1.135276e+05   1.970668e+05
  -1.977468e+04   1.328210e+05
   8.189554e+04   1.172534e+05
  -1.114983e+04   1.043832e+05
  -2.849216e+05   1.386985e+04
  -4.887721e+05  -1.579209e+05
  -3.758329e+05  -3.157044e+05
   2.821406e+04  -3.468584e+05
   4.136619e+05  -2.218610e+05
   4.757191e+05  -2.316288e+04
   2.171366e+05   1.165657e+05
  -6.904511e+04   1.153912e+05
  -1.231063e+05   8.115591e+03
   2.360228e+04  -7.740771e+04
   1.424314e+05  -3.331488e+04
   1.022230e+05   1.118003e+05
  -6.834415e+03   2.031674e+05
  -3.164980e+04   1.257338e+05
   4.745037e+04  -4.120587e+04
   1.153773e+05  -8.965943e+04
   6.511311e+04   6.608936e+04
  -1.002298e+05   2.540601e+05
  -2.729621e+05   2.275464e+05
  -3.097047e+05  -3.102271e+04
  -1.360812e+05  -2.670909e+05
   1.517261e+05  -2.412164e+05
   3.094096e+05   7.437184e+02
   1.559938e+05   1.926210e+05
  -2.034117e+05   1.451067e+05
  -4.272138e+05  -7.900493e+04
  -2.715927e+05  -2.672378e+05
   1.398082e+05  -2.703119e+05
   4.286725e+05  -1.068650e+05
   3.490633e+05   8.242901e+04
   2.975258e+04   1.514557e+05
  -1.795010e+05   6.064986e+04
  -7.825331e+04  -7.925859e+04
   1.883302e+05  -8.988369e+04
   2.961789e+05   9.953853e+04
   8.664091e+04   3.461308e+05
  -2.679887e+05   3.967307e+05
  -4.429420e+05   1.347206e+05
  -2.888937e+05  -2.705414e+05
   3.743612e+04  -4.864612e+05
   2.583296e+05  -3.237534e+05
   2.447469e+05   6.770887e+04
   8.261712e+04   3.330091e+05
  -7.395854e+04   2.663118e+05
  -1.435981e+05   1.135252e+04
  -1.262200e+05  -1.284167e+05
  -6.023377e+04  -5.491944e+04
  -9.647515e+03   3.236251e+04
  -2.851741e+04  -6.767050e+04
  -7.828728e+04  -2.684797e+05
  -2.911482e+04  -3.037666e+05
   1.739953e+05  -8.238994e+04
   3.716285e+05   1.927393e+05
   3.252864e+05   2.843656e+05
   2.010713e+04   1.865543e+05
  -2.673943e+05   6.306041e+04
  -2.775793e+05   9.539140e+03
  -7.442804e+04  -1.329279e+04
   5.828243e+04  -4.887973e+04
  -5.577788e+03  -7.096388e+04
  -9.151479e+04  -5.730409e+04
   4.356798e+03  -3.602047e+04
   2.136044e+05  -1.351859e+04
   2.680989e+05   6.103579e+04
   3.779025e+04   1.897168e+05
  -3.022991e+05   2.454241e+05
  -4.582777e+05   9.713375e+04
  -3.090057e+05  -1.923579e+05
   9.371247e+03  -3.840996e+05
   2.578727e+05  -3.132181e+05
   2.956734e+05  -6.992841e+04
   1.610230e+05   1.084916e+05
   5.760046e+03   9.680835e+04
  -4.301263e+04  -7.042893e+03
   1.589123e+04  -2.117325e+04
   7.536614e+04   1.039001e+05
   3.752944e+04   2.247870e+05
  -8.399315e+04   1.624510e+05
  -1.747492e+05  -8.381918e+04
  -1.276174e+05  -3.005815e+05
   5.018222e+04  -2.677694e+05
   2.214882e+05   1.067876e+03
   2.221065e+05   2.626077e+05
   1.946565e+04   2.975276e+05
  -2.208314e+05   1.208261e+05
  -2.734875e+05  -8.029986e+04
  -9.628943e+04  -1.648065e+05
   1.018724e+05  -1.386042e+05
   9.373434e+04  -7.575647e+04
  -8.651214e+04  -2.871351e+04
  -1.767501e+05  -2.714356e+04
  -1.515527e+04  -8.157647e+04
   2.499033e+05  -1.397968e+05
   3.383418e+05  -1.002357e+05
   1.696522e+05   6.155654e+04
  -6.901338e+04   2.126438e+05
  -1.643326e+05   1.897483e+05
  -9.238936e+04   7.513796e+03
   2.435756e+04  -1.354934e+05
   8.653597e+04  -8.776113e+04
   8.224200e+04   7.755936e+04
   3.389371e+04   1.636108e+05
  -3.768279e+04   8.846020e+04
  -9.753238e+04  -4.036754e+04
  -1.053054e+05  -8.102714e+04
  -6.040649e+04  -2.413195e+04
  -6.361339e+03   2.235452e+04
   2.480330e+04  -1.915964e+04
   4.632903e+04  -1.018009e+05
   7.879744e+04  -1.109426e+05
   1.014822e+05   8.010296e+01
   6.813448e+04   1.428789e+05
  -3.008801e+04   1.740896e+05
  -1.314109e+05   4.905816e+04
  -1.425105e+05  -1.181708e+05
  -2.494877e+04  -1.689483e+05
   1.437283e+05  -6.756692e+04
   2.121870e+05   7.156751e+04
   9.964188e+04   1.221598e+05
  -9.429019e+04   7.391914e+04
  -1.697070e+05   8.740569e+03
  -4.930914e+04  -8.921501e+03
   1.145861e+05   2.009035e+04
   1.089008e+05   6.245028e+04
  -7.985183e+04   7.895186e+04
  -2.390552e+05   2.753983e+04
