
 $NMID
 id='ANONYMOUS ', fmtdat='(2E16.6)'
 volume=1.0
 tramp=1.0
 $END
   3.184755e+07   1.262769e+05
   2.094218e+07   1.677485e+07
  -1.334451e+06   2.098899e+07
  -1.483528e+07   1.187949e+07
  -1.132643e+07  -5.765241e+05
   1.262365e+05  -5.819735e+06
   6.473322e+06  -1.676141e+06
   3.870681e+06   5.522193e+06
  -2.429037e+06   7.857775e+06
  -6.063305e+06   3.009485e+06
  -4.763640e+06  -4.050225e+06
  -4.542074e+05  -6.166754e+06
   2.823744e+06  -1.394919e+06
   1.965412e+06   4.861683e+06
  -2.197658e+06   5.682888e+06
  -5.208754e+06   9.803158e+04
  -3.481868e+06  -6.281233e+06
   1.801804e+06  -7.655944e+06
   6.072507e+06  -3.623408e+06
   6.160297e+06   1.672446e+06
   2.965994e+06   4.349877e+06
  -9.921441e+04   3.899351e+06
  -5.048576e+05   2.511964e+06
   1.196056e+06   2.420905e+06
   1.906056e+06   3.734551e+06
  -8.079822e+05   4.417588e+06
  -5.483609e+06   2.594653e+06
  -7.552477e+06  -1.035223e+06
  -4.369628e+06  -3.614480e+06
   1.237535e+06  -3.153142e+06
   3.830862e+06  -5.425422e+05
   1.476767e+06   1.653966e+06
  -2.476360e+06   1.685064e+06
  -3.766170e+06  -3.467841e+05
  -1.767366e+06  -2.895482e+06
   8.945024e+05  -3.833809e+06
   1.855878e+06  -2.004652e+06
   1.009767e+06   1.084872e+06
  -2.175972e+05   2.090458e+06
  -4.031062e+05  -2.836073e+05
   7.963794e+05  -3.004538e+06
   2.218580e+06  -2.134429e+06
   2.003066e+06   1.769700e+06
  -3.785330e+05   3.859536e+06
  -2.939351e+06   1.161815e+06
  -2.829926e+06  -3.451382e+06
   5.262852e+05  -4.786315e+06
   4.406030e+06  -1.480489e+06
   5.245703e+06   2.965537e+06
   2.076143e+06   4.566806e+06
  -2.491944e+06   2.637462e+06
  -4.608078e+06  -5.641297e+05
  -2.687783e+06  -2.417330e+06
   1.126375e+06  -1.854706e+06
   3.090532e+06   1.645935e+05
   1.670338e+06   1.537062e+06
  -9.756164e+05   9.627651e+05
  -1.633384e+06  -6.724321e+05
   1.987316e+05  -1.306043e+06
   1.897967e+06  -1.552601e+05
   1.045120e+06   1.431979e+06
  -1.669600e+06   1.661253e+06
  -3.303593e+06   1.376694e+05
  -1.913481e+06  -2.107427e+06
   1.571195e+06  -3.614280e+06
   4.455423e+06  -3.202958e+06
   4.762614e+06  -6.200045e+05
   2.714632e+06   2.781189e+06
   2.023409e+05   4.661116e+06
  -1.058829e+06   3.907204e+06
  -9.879988e+05   1.912599e+06
  -8.385925e+05   8.457247e+05
  -1.528916e+06   9.505951e+05
  -2.536160e+06   5.764398e+05
  -2.583708e+06  -1.135640e+06
  -1.159981e+06  -2.752291e+06
   8.979733e+05  -2.301166e+06
   2.143625e+06   1.782581e+05
   1.627713e+06   2.550055e+06
  -4.212383e+05   2.802513e+06
  -2.598161e+06   8.644066e+05
  -3.220572e+06  -1.631594e+06
  -1.808299e+06  -2.947235e+06
   3.106804e+05  -2.611009e+06
   1.371957e+06  -1.534848e+06
   1.204726e+06  -9.020607e+05
   1.297621e+06  -9.078993e+05
   2.598249e+06  -6.685089e+05
   3.905102e+06   6.053822e+05
   3.139075e+06   2.544769e+06
   7.341920e+03   3.854433e+06
  -3.288297e+06   3.471439e+06
  -4.192109e+06   1.461909e+06
  -2.309557e+06  -9.570732e+05
   3.603045e+05  -2.192242e+06
   1.469699e+06  -1.497113e+06
   4.536805e+05   2.144048e+05
  -1.212610e+06   1.075588e+06
  -1.679520e+06   2.417794e+05
  -5.923240e+05  -1.061197e+06
   6.898262e+05  -1.019484e+06
   6.748780e+05   3.655864e+05
  -6.371532e+05   1.113419e+06
  -1.804808e+06  -2.525151e+05
  -1.448122e+06  -2.705290e+06
   4.752351e+05  -3.745274e+06
   2.709915e+06  -2.139802e+06
   3.711060e+06   8.654450e+05
   2.747906e+06   2.949411e+06
   4.867123e+05   2.890027e+06
  -1.397075e+06   1.366312e+06
  -1.599169e+06   2.618177e+04
  -4.708115e+05  -6.822024e+04
   3.188889e+05   7.208758e+05
  -3.254471e+05   1.148254e+06
  -1.609798e+06   4.780722e+05
  -1.811449e+06  -7.111456e+05
  -4.343864e+05  -1.211099e+06
   1.084630e+06  -5.631046e+05
   9.954725e+05   4.670242e+05
  -7.456657e+05   7.535734e+05
  -2.352433e+06  -8.397301e+04
  -2.044757e+06  -1.421335e+06
   1.392290e+05  -2.196070e+06
   2.356701e+06  -1.708314e+06
   2.724058e+06  -2.060741e+05
   1.099330e+06   1.154050e+06
  -8.413759e+05   1.234292e+06
  -1.291947e+06   9.782319e+04
  -5.238903e+04  -9.150235e+05
   1.430020e+06  -6.004886e+05
   1.634859e+06   7.257215e+05
   4.344849e+05   1.591440e+06
  -9.550025e+05   1.087895e+06
  -1.268316e+06  -1.332541e+05
  -3.764633e+05  -6.989447e+05
   6.547980e+05  -6.236226e+04
   6.062825e+05   1.001370e+06
  -6.621387e+05   1.289014e+06
  -1.950616e+06   3.529067e+05
  -1.854441e+06  -1.126891e+06
  -2.735613e+05  -1.967657e+06
   1.378328e+06  -1.511853e+06
   1.639184e+06  -2.035956e+05
   5.250251e+05   8.185018e+05
  -6.259978e+05   7.925940e+05
  -7.087347e+05   2.479201e+04
   6.656178e+04  -5.320929e+05
   6.528404e+05  -3.476730e+05
   4.071962e+05   1.588017e+05
  -3.072449e+05   1.858997e+05
  -5.857011e+05  -4.698239e+05
   9.589286e+04  -1.113196e+06
   1.315797e+06  -8.461387e+05
   1.979833e+06   4.619292e+05
   1.307408e+06   1.917903e+06
  -3.276081e+05   2.358944e+06
  -1.660893e+06   1.423827e+06
  -1.778073e+06  -1.062579e+05
  -9.852929e+05  -1.059973e+06
  -3.059369e+05  -9.730232e+05
  -2.586535e+05  -4.125423e+05
  -3.974511e+05  -2.332855e+05
  -3.887997e+04  -6.073730e+05
   8.273071e+05  -8.751623e+05
   1.468336e+06  -3.502565e+05
   1.126287e+06   8.039888e+05
  -2.327558e+05   1.581075e+06
  -1.747238e+06   1.076215e+06
  -2.221782e+06  -5.446431e+05
  -1.101292e+06  -2.056313e+06
   9.251783e+05  -2.241664e+06
   2.394767e+06  -1.005390e+06
   2.337368e+06   5.823780e+05
   1.098825e+06   1.355313e+06
  -1.384756e+05   1.119777e+06
  -5.641063e+05   6.429982e+05
  -3.671901e+05   6.684150e+05
  -2.688508e+05   1.080307e+06
  -6.476715e+05   1.096208e+06
  -1.175601e+06   2.165411e+05
  -1.197856e+06  -1.118480e+06
  -4.233136e+05  -1.863049e+06
   6.930431e+05  -1.354450e+06
   1.261312e+06   3.228433e+04
   7.778166e+05   1.206093e+06
  -3.166291e+05   1.331194e+06
  -1.014390e+06   5.020745e+05
  -7.595459e+05  -4.817080e+05
  -2.954863e+03  -9.237248e+05
   3.591154e+05  -7.804394e+05
   2.985747e+04  -4.879255e+05
  -3.604127e+05  -3.859418e+05
  -1.240429e+04  -3.897797e+05
   1.054122e+06  -1.820335e+05
   1.884438e+06   3.680502e+05
   1.517826e+06   1.009955e+06
   2.719322e+04   1.303907e+06
  -1.439559e+06   9.997778e+05
  -1.739579e+06   2.768508e+05
  -8.459809e+05  -3.581644e+05
   2.053594e+05  -4.682905e+05
   4.602669e+05  -8.010911e+04
  -2.913315e+04   3.058088e+05
  -4.907145e+05   1.935364e+05
  -4.293321e+05  -3.556945e+05
  -8.438861e+04  -7.326035e+05
   4.506215e+04  -4.627703e+05
  -1.621861e+05   1.664912e+05
  -3.907524e+05   3.595920e+05
  -2.791248e+05  -2.300881e+05
   2.525237e+05  -9.822262e+05
   9.163090e+05  -9.625172e+05
   1.176023e+06  -3.603211e+04
   6.360414e+05   9.161642e+05
  -4.468111e+05   9.687003e+05
  -1.139684e+06   1.564899e+05
  -6.578446e+05  -6.287452e+05
   6.848883e+05  -6.213923e+05
   1.597136e+06   1.115483e+05
   1.096068e+06   8.760703e+05
  -4.146689e+05   1.050206e+06
  -1.532871e+06   5.543354e+05
  -1.307452e+06  -1.727316e+05
  -1.627956e+05  -5.424142e+05
   6.372133e+05  -2.874815e+05
   3.241195e+05   2.630528e+05
  -6.435767e+05   4.122207e+05
  -1.122521e+06  -2.274128e+05
  -4.775533e+05  -1.215600e+06
   7.844432e+05  -1.564205e+06
   1.543014e+06  -6.951903e+05
   1.172148e+06   8.517886e+05
   7.897919e+04   1.787730e+06
  -8.067252e+05   1.287231e+06
  -9.276608e+05  -1.550172e+05
  -4.335544e+05  -1.191898e+06
   1.806813e+05  -1.004518e+06
   5.324362e+05  -9.542599e+04
   5.032790e+05   4.216093e+05
   2.259447e+05   1.786255e+05
   2.627959e+04  -1.188132e+05
   1.546323e+05   2.374173e+05
   4.079633e+05   9.471703e+05
   2.183044e+05   1.097843e+06
  -6.188536e+05   3.791793e+05
  -1.436666e+06  -5.429051e+05
  -1.297068e+06  -9.038569e+05
  -1.557423e+05  -6.789901e+05
   9.350655e+05  -3.447524e+05
   1.008124e+06  -1.485611e+05
   2.937117e+05   1.892617e+04
  -1.834206e+05   2.011417e+05
   3.565713e+04   2.555060e+05
   3.403273e+05   1.717404e+05
   3.749809e+03   1.342716e+05
  -7.569032e+05   1.415600e+05
  -1.006830e+06  -1.023204e+05
  -2.464280e+05  -6.694447e+05
   9.755405e+05  -1.031085e+06
   1.636351e+06  -5.736551e+05
   1.231215e+06   5.465840e+05
   1.419497e+05   1.402112e+06
  -8.078953e+05   1.268139e+06
  -1.049035e+06   3.974160e+05
  -6.312366e+05  -3.209973e+05
  -6.873655e+04  -3.515839e+05
   1.434362e+05   3.340547e+03
  -5.976542e+04   7.576643e+04
  -3.152424e+05  -3.568803e+05
  -2.256656e+05  -8.089194e+05
   2.335847e+05  -6.296360e+05
   6.657808e+05   2.231742e+05
   6.002883e+05   1.026200e+06
  -4.671440e+04   9.913192e+05
  -7.905697e+05   1.049127e+05
  -9.254920e+05  -8.418209e+05
  -2.151775e+05  -1.073600e+06
   7.449090e+05  -5.513273e+05
   1.041982e+06   1.641473e+05
   4.388079e+05   5.691525e+05
  -3.084370e+05   5.681475e+05
  -3.237221e+05   3.251342e+05
   3.113747e+05   6.366786e+04
   6.543742e+05   1.883098e+04
   9.924490e+04   2.922406e+05
  -8.507131e+05   6.190324e+05
  -1.207559e+06   5.099210e+05
  -6.660970e+05  -1.539701e+05
   1.529865e+05  -8.111740e+05
   5.254053e+05  -7.776845e+05
   3.448676e+05  -8.672066e+04
  -2.214795e+04   4.960476e+05
  -2.704398e+05   3.671423e+05
  -3.290772e+05  -2.326983e+05
  -1.990583e+05  -5.809014e+05
   8.908082e+04  -3.506536e+05
   3.714371e+05   9.772915e+04
   4.284891e+05   2.557962e+05
   2.351392e+05   6.873419e+04
   2.669984e+03  -9.244272e+04
  -9.135169e+04   5.924458e+04
  -1.088116e+05   3.752111e+05
  -2.046284e+05   4.431081e+05
  -3.504905e+05   6.641251e+04
  -3.236350e+05  -4.663768e+05
   8.167478e+03  -6.363817e+05
   4.479981e+05  -2.423340e+05
   5.792272e+05   3.545803e+05
   1.716845e+05   5.979934e+05
  -4.982624e+05   3.153108e+05
  -8.123165e+05  -1.569753e+05
  -4.218722e+05  -3.991650e+05
   3.063462e+05  -3.212900e+05
   6.121556e+05  -1.217608e+05
   1.927668e+05   2.155489e+03
  -4.062049e+05  -1.913364e+04
  -4.110130e+05  -1.661466e+05
   2.479108e+05  -3.079286e+05
   8.384584e+05  -1.987411e+05
