
 $NMID
 id='ANONYMOUS ', fmtdat='(2E16.6)'
 volume=1.0
 tramp=1.0
 $END
  -5.496145e+07   1.003866e+06
  -3.394343e+07  -3.345223e+07
   6.445045e+06  -3.750502e+07
   2.687392e+07  -1.496581e+07
   1.650246e+07   6.559139e+06
  -3.037410e+06   9.298285e+06
  -9.804488e+06  -9.939268e+05
  -2.968378e+06  -9.637137e+06
   6.015945e+06  -9.387865e+06
   9.527317e+06  -2.148578e+06
   6.928195e+06   5.997684e+06
   8.650943e+05   8.423435e+06
  -3.854375e+06   2.706328e+06
  -2.564322e+06  -5.356675e+06
   3.691139e+06  -6.523102e+06
   7.790456e+06   1.182797e+06
   4.520832e+06   9.960548e+06
  -3.528501e+06   1.163751e+07
  -9.782379e+06   5.935209e+06
  -1.055289e+07  -1.822522e+06
  -6.567692e+06  -7.135169e+06
  -8.873200e+05  -8.361246e+06
   2.629206e+06  -6.008279e+06
   1.742304e+06  -2.845957e+06
  -9.977961e+05  -2.257267e+06
  -1.576311e+05  -4.079064e+06
   5.282858e+06  -4.234667e+06
   9.406806e+06  -4.813273e+05
   6.882031e+06   3.968479e+06
   2.724854e+05   4.855266e+06
  -3.583118e+06   2.433740e+06
  -2.308723e+06  -3.860726e+03
   7.271441e+05  -8.298564e+05
   2.265131e+06  -3.374828e+05
   2.052841e+06   1.465556e+06
   6.000692e+05   3.796943e+06
  -1.703672e+06   3.733988e+06
  -3.058565e+06  -2.307939e+04
  -1.692837e+06  -3.438732e+06
   6.290143e+05  -1.844855e+06
   2.384935e+05   2.387403e+06
  -2.443557e+06   2.272461e+06
  -2.473810e+06  -3.111609e+06
   2.243930e+06  -6.111718e+06
   6.763783e+06  -1.207073e+06
   5.151685e+06   6.643045e+06
  -1.684688e+06   8.393034e+06
  -7.218810e+06   2.487405e+06
  -6.887999e+06  -4.320621e+06
  -1.875832e+06  -5.968985e+06
   3.439302e+06  -2.719269e+06
   5.248087e+06   1.492651e+06
   2.453127e+06   3.467373e+06
  -2.351497e+06   2.228752e+06
  -4.481510e+06  -8.409032e+05
  -1.975080e+06  -2.658517e+06
   1.665296e+06  -1.375920e+06
   1.737654e+06   1.018863e+06
  -1.304774e+06   9.905324e+05
  -2.548324e+06  -1.652094e+06
   4.449259e+05  -3.441928e+06
   4.480214e+06  -2.030731e+06
   5.272008e+06   1.207062e+06
   2.370072e+06   3.872003e+06
  -1.727019e+06   5.162103e+06
  -4.896505e+06   4.732660e+06
  -6.041844e+06   1.722271e+06
  -4.471875e+06  -3.046433e+06
  -9.455504e+05  -6.035754e+06
   1.810835e+06  -4.743227e+06
   1.781323e+06  -1.277377e+06
   2.623197e+05   2.515903e+05
   4.429537e+04  -8.714665e+05
   1.573824e+06  -1.655081e+06
   2.706281e+06  -1.699015e+05
   1.913613e+06   1.922199e+06
  -4.403703e+04   2.086872e+06
  -1.552611e+06   1.351726e+05
  -1.621779e+06  -2.105814e+06
   3.452523e+04  -2.895594e+06
   2.716060e+06  -1.601623e+06
   4.364538e+06   1.165637e+06
   3.169339e+06   3.650148e+06
   1.849838e+04   4.127599e+06
  -2.178903e+06   2.698114e+06
  -2.179259e+06   1.171531e+06
  -1.830080e+06   7.081003e+05
  -2.943227e+06   4.783781e+05
  -4.330079e+06  -7.716639e+05
  -3.455091e+06  -2.771452e+06
  -9.758292e+04  -4.110332e+06
   3.225070e+06  -3.843953e+06
   4.154691e+06  -2.049539e+06
   2.603942e+06   4.466654e+05
   2.310674e+05   2.194880e+06
  -1.106267e+06   1.882546e+06
  -5.477058e+05  -4.135078e+04
   1.093351e+06  -1.282607e+06
   1.896515e+06  -3.873951e+05
   9.080773e+05   1.190423e+06
  -5.313005e+05   1.094896e+06
  -4.344453e+05  -4.128897e+05
   1.092748e+06  -7.295515e+05
   1.915622e+06   1.275213e+06
   6.842188e+05   3.530153e+06
  -1.624562e+06   3.483885e+06
  -3.216957e+06   1.136109e+06
  -3.346307e+06  -1.499260e+06
  -2.242014e+06  -2.831935e+06
  -4.014100e+05  -2.630173e+06
   1.259019e+06  -1.437634e+06
   1.570564e+06  -2.018163e+05
   4.914850e+05   5.136517e+04
  -3.508012e+05  -7.563352e+05
   4.176726e+05  -1.343224e+06
   1.909662e+06  -5.745852e+05
   2.038112e+06   9.001292e+05
   3.822645e+05   1.428258e+06
  -1.183669e+06   5.629642e+05
  -8.867689e+05  -4.790966e+05
   8.767121e+05  -5.210122e+05
   2.204386e+06   3.634575e+05
   1.729313e+06   1.410898e+06
  -2.946118e+05   1.985219e+06
  -2.345837e+06   1.623261e+06
  -2.782616e+06   2.370159e+05
  -1.210765e+06  -1.278387e+06
   9.237996e+05  -1.498313e+06
   1.559977e+06  -1.873213e+05
   1.975227e+05   1.075736e+06
  -1.523556e+06   7.236054e+05
  -1.718229e+06  -8.047863e+05
  -3.181728e+05  -1.672443e+06
   1.120756e+06  -9.746216e+05
   1.271956e+06   3.344792e+05
   2.403548e+05   7.996727e+05
  -8.026377e+05   5.369269e+04
  -7.290336e+05  -1.060103e+06
   5.892439e+05  -1.416763e+06
   2.011253e+06  -5.208300e+05
   2.024710e+06   1.071165e+06
   3.630973e+05   2.082545e+06
  -1.462360e+06   1.634051e+06
  -1.737717e+06   1.908768e+05
  -4.942824e+05  -8.831086e+05
   6.743243e+05  -7.992704e+05
   6.331900e+05  -6.097419e+04
  -1.389609e+05   3.638064e+05
  -5.073225e+05   1.883738e+05
  -1.132833e+05  -8.968453e+04
   4.704565e+05   7.451968e+04
   5.249731e+05   6.897102e+05
  -2.211870e+05   1.198390e+06
  -1.399339e+06   8.834577e+05
  -2.081991e+06  -4.399046e+05
  -1.445332e+06  -1.962840e+06
   2.488684e+05  -2.420224e+06
   1.644404e+06  -1.389697e+06
   1.695390e+06   1.602130e+05
   8.329776e+05   9.219377e+05
   2.833166e+05   6.556165e+05
   4.625455e+05   2.086885e+05
   6.332354e+05   3.068846e+05
   9.249896e+04   7.662264e+05
  -8.923923e+05   8.951380e+05
  -1.461135e+06   3.015082e+05
  -1.035260e+06  -7.467866e+05
   2.839275e+05  -1.461644e+06
   1.745915e+06  -1.047832e+06
   2.245248e+06   5.179272e+05
   1.109156e+06   2.124861e+06
  -1.042747e+06   2.368150e+06
  -2.569447e+06   1.007458e+06
  -2.356387e+06  -6.994581e+05
  -9.351429e+05  -1.370549e+06
   2.367335e+05  -9.491878e+05
   4.069168e+05  -4.904700e+05
   7.944904e+04  -7.334069e+05
   1.035560e+05  -1.300782e+06
   6.780426e+05  -1.288051e+06
   1.297528e+06  -3.110946e+05
   1.325960e+06   1.093328e+06
   5.349902e+05   1.900662e+06
  -6.384844e+05   1.429333e+06
  -1.288826e+06  -1.978869e+04
  -8.022667e+05  -1.300005e+06
   4.101537e+05  -1.402626e+06
   1.184117e+06  -3.988822e+05
   8.215602e+05   7.127686e+05
  -1.308076e+05   1.090864e+06
  -5.542934e+05   7.909932e+05
  -9.885680e+04   4.191960e+05
   4.276293e+05   3.365641e+05
   5.503191e+04   3.817336e+05
  -1.156319e+06   2.013572e+05
  -2.067394e+06  -3.502663e+05
  -1.611987e+06  -1.058572e+06
   5.152533e+04  -1.448522e+06
   1.605670e+06  -1.136061e+06
   1.845353e+06  -2.573876e+05
   8.397792e+05   5.139607e+05
  -2.642461e+05   5.744744e+05
  -5.193978e+05   2.870974e+04
  -3.579524e+04  -4.217986e+05
   4.413437e+05  -2.511068e+05
   4.790408e+05   3.455231e+05
   2.494253e+05   7.149040e+05
   9.624799e+04   4.712110e+05
   1.443105e+05  -8.797579e+04
   2.859923e+05  -2.769245e+05
   2.729102e+05   2.380356e+05
  -1.518147e+05   9.787063e+05
  -9.095011e+05   1.059392e+06
  -1.366706e+06   1.774840e+05
  -8.518253e+05  -9.122649e+05
   4.178034e+05  -1.143159e+06
   1.258072e+06  -3.393758e+05
   7.270175e+05   5.765183e+05
  -7.137855e+05   6.422884e+05
  -1.590277e+06  -1.226824e+05
  -9.878863e+05  -8.904674e+05
   5.125155e+05  -9.864166e+05
   1.516609e+06  -4.463912e+05
   1.230510e+06   2.209688e+05
   1.211138e+05   5.188639e+05
  -6.591505e+05   2.584882e+05
  -3.881716e+05  -2.987853e+05
   5.807498e+05  -5.187857e+05
   1.178237e+06   8.134649e+04
   6.702223e+05   1.175001e+06
  -5.866043e+05   1.695576e+06
  -1.479680e+06   8.798563e+05
  -1.248927e+06  -7.627146e+05
  -1.877694e+05  -1.791124e+06
   7.576472e+05  -1.281550e+06
   9.279291e+05   1.964601e+05
   4.112090e+05   1.205004e+06
  -2.469137e+05   9.684117e+05
  -5.709927e+05   7.535560e+04
  -4.516531e+05  -3.857374e+05
  -1.489976e+05  -1.417855e+05
  -5.598983e+04   9.381647e+04
  -2.985861e+05  -2.972071e+05
  -5.099287e+05  -9.721524e+05
  -1.653691e+05  -1.086413e+06
   7.372441e+05  -3.949343e+05
   1.469873e+06   4.791831e+05
   1.259924e+06   8.560962e+05
   1.789498e+05   7.050123e+05
  -8.436548e+05   4.084632e+05
  -9.842007e+05   1.670189e+05
  -3.761330e+05  -5.901332e+04
   1.412245e+05  -2.240004e+05
   5.774044e+04  -2.039485e+05
  -2.421325e+05  -9.402521e+04
  -5.683101e+04  -1.294781e+05
   6.405969e+05  -2.321426e+05
   1.048534e+06   9.145812e+03
   4.606930e+05   6.872292e+05
  -8.240284e+05   1.181392e+06
  -1.713317e+06   7.717776e+05
  -1.433217e+06  -4.155254e+05
  -2.782551e+05  -1.402869e+06
   7.755866e+05  -1.384826e+06
   1.048266e+06  -5.509571e+05
   6.487938e+05   2.235496e+05
   1.425932e+05   3.565149e+05
  -4.764331e+04   7.263364e+04
   9.344305e+04  -4.360778e+03
   2.921835e+05   3.793988e+05
   2.368123e+05   8.136609e+05
  -1.746517e+05   6.835404e+05
  -6.729391e+05  -1.079642e+05
  -7.485538e+05  -9.340086e+05
  -1.420534e+05  -1.027848e+06
   7.332978e+05  -2.664722e+05
   1.038126e+06   6.979625e+05
   3.653767e+05   1.087864e+06
  -7.048683e+05   6.953973e+05
  -1.130169e+06  -6.377438e+04
  -5.510984e+05  -6.251788e+05
   2.822770e+05  -7.014164e+05
   3.976509e+05  -3.796933e+05
  -2.239452e+05  -7.102062e+03
  -6.439653e+05   4.162919e+04
  -1.558567e+05  -3.104619e+05
   8.277588e+05  -6.773484e+05
   1.285093e+06  -5.306011e+05
   7.907182e+05   1.882012e+05
  -9.133097e+04   8.792243e+05
  -5.692424e+05   8.729045e+05
  -4.437475e+05   1.852342e+05
  -6.375056e+04  -4.672597e+05
   2.311176e+05  -4.476146e+05
   3.459456e+05   1.268814e+05
   2.587455e+05   5.761721e+05
  -4.101246e+04   4.453390e+05
  -3.901489e+05  -3.448519e+04
  -4.884082e+05  -2.924977e+05
  -2.470140e+05  -1.089818e+05
   4.981579e+04   1.636140e+05
   9.285517e+04   7.683490e+04
  -3.815019e+04  -3.324732e+05
   5.836423e+02  -5.627503e+05
   2.947875e+05  -2.547067e+05
   4.814549e+05   3.453244e+05
   1.961764e+05   6.345062e+05
  -3.939816e+05   3.242767e+05
  -6.771941e+05  -2.590710e+05
  -2.653296e+05  -5.617487e+05
   5.127127e+05  -3.731642e+05
   8.949184e+05   5.873010e+04
   4.879084e+05   3.741175e+05
  -2.881981e+05   4.187993e+05
  -6.398172e+05   2.531923e+05
  -2.673485e+05   2.768918e+04
   3.172020e+05  -8.153534e+04
   3.923175e+05   3.943403e+04
  -1.508409e+05   2.721610e+05
  -7.098687e+05   2.676257e+05
