
 $NMID
 id='ANONYMOUS ', fmtdat='(2E16.6)'
 volume=1.0
 tramp=1.0
 $END
   5.141877e+07  -1.812276e+06
   3.212269e+07   3.052075e+07
  -5.382269e+06   3.495181e+07
  -2.460293e+07   1.449047e+07
  -1.534810e+07  -5.608178e+06
   2.597418e+06  -8.634657e+06
   9.040827e+06   6.227915e+05
   3.009377e+06   8.794225e+06
  -5.244879e+06   8.885929e+06
  -8.756853e+06   2.272128e+06
  -6.647279e+06  -5.460438e+06
  -1.041320e+06  -7.914751e+06
   3.598553e+06  -2.631148e+06
   2.641533e+06   4.997462e+06
  -3.197980e+06   6.235938e+06
  -7.266906e+06  -8.950475e+05
  -4.459755e+06  -9.188555e+06
   3.028822e+06  -1.094867e+07
   9.047106e+06  -5.742860e+06
   9.941753e+06   1.552620e+06
   6.239213e+06   6.636209e+06
   8.679054e+05   7.813538e+06
  -2.398686e+06   5.542725e+06
  -1.440831e+06   2.543529e+06
   1.208757e+06   2.078825e+06
   3.418922e+05   3.957418e+06
  -4.948785e+06   4.240766e+06
  -8.968820e+06   7.188491e+05
  -6.616738e+06  -3.619333e+06
  -3.070128e+05  -4.659658e+06
   3.446502e+06  -2.439939e+06
   2.294597e+06   1.743134e+04
  -6.489880e+05   9.940829e+05
  -2.245840e+06   5.236512e+05
  -2.122117e+06  -1.368306e+06
  -7.011605e+05  -3.696933e+06
   1.577835e+06  -3.578166e+06
   2.914261e+06   7.350987e+04
   1.600813e+06   3.285496e+06
  -6.650933e+05   1.687588e+06
  -3.538142e+05  -2.361473e+06
   2.212785e+06  -2.256949e+06
   2.381887e+06   2.823860e+06
  -1.938282e+06   5.691245e+06
  -6.230824e+06   1.180519e+06
  -4.889200e+06  -6.122957e+06
   1.425085e+06  -7.836050e+06
   6.712407e+06  -2.463258e+06
   6.593309e+06   3.844688e+06
   1.974874e+06   5.513230e+06
  -3.107383e+06   2.677247e+06
  -4.966269e+06  -1.176444e+06
  -2.427921e+06  -3.119467e+06
   2.111728e+06  -2.125986e+06
   4.198339e+06   6.631311e+05
   1.908813e+06   2.414302e+06
  -1.523283e+06   1.321758e+06
  -1.671371e+06  -8.793697e+05
   1.126675e+06  -9.326150e+05
   2.339498e+06   1.428867e+06
  -3.544203e+05   3.104064e+06
  -4.082626e+06   1.918354e+06
  -4.891795e+06  -9.918736e+05
  -2.288012e+06  -3.533464e+06
   1.502458e+06  -4.920029e+06
   4.523359e+06  -4.645916e+06
   5.695301e+06  -1.792519e+06
   4.313195e+06   2.802850e+06
   1.059477e+06   5.697064e+06
  -1.526502e+06   4.507005e+06
  -1.551922e+06   1.261811e+06
  -1.968792e+05  -1.422444e+05
  -4.689202e+04   9.489129e+05
  -1.533721e+06   1.686605e+06
  -2.661724e+06   2.373059e+05
  -1.950823e+06  -1.823215e+06
  -4.534024e+04  -2.061560e+06
   1.516843e+06  -2.395835e+05
   1.680785e+06   1.938745e+06
   8.759541e+04   2.781534e+06
  -2.556662e+06   1.619290e+06
  -4.199423e+06  -1.000366e+06
  -3.085474e+06  -3.393680e+06
  -8.928830e+04  -3.890861e+06
   1.998836e+06  -2.564303e+06
   1.997752e+06  -1.133748e+06
   1.668564e+06  -7.287148e+05
   2.745674e+06  -5.800256e+05
   4.124116e+06   5.467814e+05
   3.390462e+06   2.480006e+06
   2.719466e+05   3.899363e+06
  -2.907056e+06   3.803326e+06
  -3.895337e+06   2.133326e+06
  -2.526376e+06  -3.388795e+05
  -3.054040e+05  -2.121423e+06
   1.003482e+06  -1.857889e+06
   5.335952e+05   2.671196e+04
  -9.970076e+05   1.275300e+06
  -1.787980e+06   4.393019e+05
  -9.001949e+05  -1.107480e+06
   4.639936e+05  -1.077370e+06
   4.398775e+05   3.505912e+05
  -9.554785e+05   7.271249e+05
  -1.800140e+06  -1.087100e+06
  -7.886194e+05  -3.230949e+06
   1.309372e+06  -3.311679e+06
   2.904355e+06  -1.236225e+06
   3.218026e+06   1.208444e+06
   2.297974e+06   2.546534e+06
   5.343627e+05   2.483150e+06
  -1.136626e+06   1.436122e+06
  -1.497738e+06   2.643027e+05
  -4.701555e+05  -2.717785e+04
   3.671107e+05   7.029330e+05
  -3.423737e+05   1.283390e+06
  -1.783624e+06   6.136609e+05
  -1.959285e+06  -7.660960e+05
  -4.192097e+05  -1.327657e+06
   1.094145e+06  -5.868725e+05
   8.708066e+05   4.023886e+05
  -7.835455e+05   5.374884e+05
  -2.096567e+06  -2.139401e+05
  -1.726114e+06  -1.231152e+06
   1.595963e+05  -1.897294e+06
   2.143485e+06  -1.662632e+06
   2.633635e+06  -3.563623e+05
   1.199949e+06   1.160088e+06
  -8.222170e+05   1.453711e+06
  -1.471079e+06   2.304188e+05
  -2.229867e+05  -1.018672e+06
   1.418921e+06  -7.513682e+05
   1.664013e+06   6.839959e+05
   3.829379e+05   1.562503e+06
  -1.002744e+06   9.734855e+05
  -1.210518e+06  -2.480253e+05
  -2.657771e+05  -7.346413e+05
   7.540493e+05  -8.050817e+04
   7.367143e+05   9.783050e+05
  -5.020377e+05   1.376538e+06
  -1.896312e+06   5.835699e+05
  -1.975176e+06  -9.334325e+05
  -4.354453e+05  -1.964281e+06
   1.316110e+06  -1.614106e+06
   1.638067e+06  -2.594074e+05
   5.096460e+05   8.110533e+05
  -6.006330e+05   7.896233e+05
  -6.053253e+05   9.380460e+04
   9.748449e+04  -3.538332e+05
   4.656731e+05  -2.221598e+05
   1.289745e+05   5.880583e+04
  -4.235855e+05  -5.051716e+04
  -5.176363e+05  -6.160823e+05
   1.528974e+05  -1.136319e+06
   1.285714e+06  -9.005293e+05
   1.998035e+06   3.240746e+05
   1.461598e+06   1.803144e+06
  -1.252651e+05   2.316302e+06
  -1.492758e+06   1.404346e+06
  -1.618286e+06  -6.060960e+04
  -8.532724e+05  -8.290997e+05
  -3.265651e+05  -6.197972e+05
  -4.575215e+05  -1.991345e+05
  -6.018879e+05  -2.756055e+05
  -1.110817e+05  -7.211341e+05
   8.028088e+05  -8.882654e+05
   1.369515e+06  -3.607848e+05
   1.027973e+06   6.534509e+05
  -1.865364e+05   1.403167e+06
  -1.605006e+06   1.082883e+06
  -2.160317e+06  -3.842805e+05
  -1.153453e+06  -1.962723e+06
   8.793923e+05  -2.288322e+06
   2.385947e+06  -1.070683e+06
   2.264499e+06   5.457482e+05
   9.615787e+05   1.243548e+06
  -1.612611e+05   9.129398e+05
  -3.569163e+05   5.042484e+05
  -5.563001e+04   7.206682e+05
  -5.794014e+04   1.245666e+06
  -5.947694e+05   1.247856e+06
  -1.220541e+06   3.465006e+05
  -1.311137e+06  -9.847534e+05
  -5.949243e+05  -1.787407e+06
   5.443898e+05  -1.391428e+06
   1.226019e+06  -4.219881e+04
   8.185238e+05   1.194282e+06
  -3.225553e+05   1.343421e+06
  -1.091227e+06   4.285347e+05
  -7.957541e+05  -6.325928e+05
   7.813285e+04  -1.026375e+06
   4.808962e+05  -7.637774e+05
   6.536191e+04  -4.008248e+05
  -4.239156e+05  -3.059029e+05
  -6.991095e+04  -3.634998e+05
   1.086349e+06  -2.395928e+05
   1.976065e+06   2.457529e+05
   1.576830e+06   9.319179e+05
   1.463809e+04   1.367583e+06
  -1.473976e+06   1.140856e+06
  -1.735764e+06   3.282210e+05
  -8.119476e+05  -4.404978e+05
   2.286580e+05  -5.502373e+05
   4.858862e+05  -5.034135e+04
   4.309371e+04   3.993158e+05
  -4.136035e+05   2.615747e+05
  -4.709489e+05  -3.091858e+05
  -2.668015e+05  -6.805174e+05
  -1.082966e+05  -4.536408e+05
  -1.274409e+05   9.509225e+04
  -2.557938e+05   2.886715e+05
  -2.705304e+05  -2.116149e+05
   9.974252e+04  -9.451386e+05
   8.195746e+05  -1.048282e+06
   1.293149e+06  -2.159495e+05
   8.461650e+05   8.416132e+05
  -3.552289e+05   1.102255e+06
  -1.188183e+06   3.680440e+05
  -7.205072e+05  -5.195964e+05
   6.473118e+05  -6.424639e+05
   1.516909e+06   3.750336e+04
   9.858892e+05   7.888781e+05
  -4.298278e+05   9.577169e+05
  -1.411863e+06   5.044310e+05
  -1.179802e+06  -1.415934e+05
  -1.441464e+05  -4.849681e+05
   6.107271e+05  -2.777317e+05
   3.784910e+05   2.682852e+05
  -5.370258e+05   5.222941e+05
  -1.132848e+06  -2.934217e+04
  -6.902640e+05  -1.100172e+06
   4.921572e+05  -1.650314e+06
   1.379827e+06  -9.064211e+05
   1.228274e+06   6.730393e+05
   2.618652e+05   1.701363e+06
  -6.586284e+05   1.259311e+06
  -8.884414e+05  -1.393798e+05
  -4.501142e+05  -1.122800e+06
   1.814414e+05  -9.290531e+05
   5.358391e+05  -9.772262e+04
   4.531628e+05   3.418311e+05
   1.546258e+05   1.230293e+05
   4.554223e+04  -9.070325e+04
   2.880761e+05   2.763190e+05
   5.265531e+05   9.057294e+05
   2.137064e+05   1.021017e+06
  -6.777322e+05   4.020479e+05
  -1.424233e+06  -3.882698e+05
  -1.244822e+06  -7.508219e+05
  -2.018389e+05  -6.619504e+05
   7.903501e+05  -4.340852e+05
   9.296108e+05  -2.082647e+05
   3.539742e+05   4.222968e+04
  -1.267374e+05   2.221746e+05
  -3.719686e+04   1.916473e+05
   2.446869e+05   7.301792e+04
   5.868679e+04   1.244228e+05
  -6.090134e+05   2.573935e+05
  -1.002488e+06   3.603438e+04
  -4.616753e+05  -6.461201e+05
   7.427135e+05  -1.168939e+06
   1.602493e+06  -8.039891e+05
   1.384455e+06   3.451430e+05
   3.279131e+05   1.330044e+06
  -6.791521e+05   1.352118e+06
  -9.808744e+05   5.691381e+05
  -6.343860e+05  -1.857358e+05
  -1.497881e+05  -3.372149e+05
   5.135146e+04  -7.561348e+04
  -8.177043e+04   9.080590e+03
  -2.956431e+05  -3.435110e+05
  -2.644327e+05  -7.623781e+05
   1.388019e+05  -6.606934e+05
   6.534933e+05   7.463839e+04
   7.585627e+05   8.659919e+05
   1.751604e+05   9.829365e+05
  -6.985700e+05   2.871722e+05
  -1.027480e+06  -6.267825e+05
  -3.936182e+05  -1.026885e+06
   6.483329e+05  -6.928300e+05
   1.081380e+06   1.575520e+04
   5.457796e+05   5.732994e+05
  -2.449004e+05   6.771456e+05
  -3.603601e+05   3.727015e+05
   2.210565e+05  -8.551264e+03
   6.150160e+05  -6.959383e+04
   1.597043e+05   2.909680e+05
  -7.588285e+05   6.839456e+05
  -1.193792e+06   5.608633e+05
  -7.531576e+05  -1.480727e+05
   5.124432e+04  -8.421426e+05
   5.035653e+05  -8.504888e+05
   4.161072e+05  -1.863438e+05
   8.226155e+04   4.486962e+05
  -2.053636e+05   4.365166e+05
  -3.424126e+05  -1.091835e+05
  -2.722194e+05  -5.396427e+05
   2.623102e+04  -4.251039e+05
   3.766025e+05   1.758039e+04
   4.734070e+05   2.570536e+05
   2.365932e+05   9.070406e+04
  -4.786292e+04  -1.541527e+05
  -8.162209e+04  -6.302232e+04
   4.988763e+04   3.270833e+05
   9.696870e+03   5.455849e+05
  -2.842847e+05   2.531532e+05
  -4.773934e+05  -3.215057e+05
  -2.094905e+05  -6.090719e+05
   3.669502e+05  -3.283749e+05
   6.596785e+05   2.242560e+05
   2.787903e+05   5.294621e+05
  -4.727549e+05   3.764654e+05
  -8.576144e+05  -2.205049e+04
  -4.813973e+05  -3.376304e+05
   2.614930e+05  -4.096787e+05
   6.045979e+05  -2.646822e+05
   2.519884e+05  -3.254073e+04
  -3.088283e+05   9.581356e+04
  -3.852940e+05  -2.193666e+04
   1.312213e+05  -2.750055e+05
   6.720822e+05  -2.963165e+05
