
 $NMID
 id='ANONYMOUS ', fmtdat='(2E16.6)'
 volume=1.0
 tramp=1.0
 $END
   3.899211e+07   2.000709e+06
   2.279991e+07   2.388379e+07
  -5.256199e+06   2.565547e+07
  -1.899577e+07   1.069660e+07
  -1.178064e+07  -3.790335e+06
   1.821797e+06  -6.450967e+06
   6.995620e+06   8.440004e+04
   2.592612e+06   6.693396e+06
  -3.957468e+06   7.303829e+06
  -6.877687e+06   1.914976e+06
  -5.015312e+06  -4.718488e+06
  -3.509103e+05  -6.553593e+06
   3.124159e+06  -1.725785e+06
   1.975908e+06   4.614693e+06
  -2.716624e+06   5.280177e+06
  -5.670097e+06  -7.651121e+05
  -3.185462e+06  -7.363276e+06
   2.797816e+06  -8.432629e+06
   7.322611e+06  -3.885472e+06
   7.460366e+06   2.011413e+06
   3.988587e+06   5.514196e+06
  -1.088387e+05   5.607842e+06
  -1.791939e+06   3.599814e+06
  -3.227024e+05   2.019937e+06
   1.447323e+06   2.534222e+06
  -2.264014e+05   3.875278e+06
  -4.950400e+06   3.092363e+06
  -7.726080e+06  -4.094890e+05
  -5.000419e+06  -3.640134e+06
   5.921583e+05  -3.750510e+06
   3.500835e+06  -1.381592e+06
   1.877095e+06   8.042795e+05
  -1.304466e+06   1.300716e+06
  -2.731393e+06   1.749418e+05
  -1.854842e+06  -1.941305e+06
   1.030262e+05  -3.544419e+06
   1.759450e+06  -2.585760e+06
   1.946548e+06   6.996215e+05
   5.376206e+05   2.681280e+06
  -6.913747e+05   6.993573e+05
   1.600278e+05  -2.499236e+06
   2.081341e+06  -1.939310e+06
   1.852112e+06   2.234338e+06
  -1.424566e+06   4.262509e+06
  -4.365425e+06   6.498834e+05
  -3.245111e+06  -4.771241e+06
   1.370803e+06  -5.782688e+06
   5.306032e+06  -1.487091e+06
   5.275114e+06   3.417167e+06
   1.613007e+06   4.671479e+06
  -2.652256e+06   2.283225e+06
  -4.288202e+06  -9.864201e+05
  -2.167148e+06  -2.598482e+06
   1.605380e+06  -1.688606e+06
   3.312249e+06   6.029507e+05
   1.501443e+06   1.912448e+06
  -1.229709e+06   9.728973e+05
  -1.462100e+06  -7.666007e+05
   6.506505e+05  -8.987868e+05
   1.791147e+06   7.583246e+05
   3.166991e+04   2.034535e+06
  -2.806960e+06   1.348647e+06
  -3.689305e+06  -6.975225e+05
  -1.723111e+06  -2.723103e+06
   1.621540e+06  -3.902126e+06
   4.310517e+06  -3.505357e+06
   4.928662e+06  -9.292532e+05
   3.191576e+06   2.771998e+06
   3.811225e+05   4.846089e+06
  -1.367357e+06   3.770927e+06
  -1.167068e+06   1.319814e+06
  -3.566564e+05   3.092225e+05
  -6.631809e+05   9.723458e+05
  -1.925883e+06   1.119009e+06
  -2.495885e+06  -4.163059e+05
  -1.471639e+06  -2.144487e+06
   3.805104e+05  -2.041387e+06
   1.670299e+06  -5.252507e+04
   1.497054e+06   2.059797e+06
  -2.024150e+05   2.575373e+06
  -2.440027e+06   1.097776e+06
  -3.436877e+06  -1.351637e+06
  -2.158468e+06  -3.079904e+06
   2.823560e+05  -3.046834e+06
   1.707121e+06  -1.810253e+06
   1.540062e+06  -8.218150e+05
   1.370796e+06  -6.611152e+05
   2.442594e+06  -4.775328e+05
   3.645506e+06   6.475503e+05
   2.913889e+06   2.388410e+06
   3.057020e+04   3.549921e+06
  -2.921411e+06   3.269042e+06
  -3.764868e+06   1.581208e+06
  -2.243417e+06  -6.440076e+05
   4.487431e+04  -2.013623e+06
   1.178885e+06  -1.547378e+06
   4.663457e+05   1.228780e+05
  -1.043764e+06   1.067072e+06
  -1.608698e+06   2.607326e+05
  -6.588302e+05  -1.036484e+06
   5.495141e+05  -9.591354e+05
   4.879713e+05   3.210462e+05
  -7.316330e+05   7.687408e+05
  -1.547519e+06  -6.982205e+05
  -8.558568e+05  -2.694606e+06
   9.115391e+05  -3.084969e+06
   2.525834e+06  -1.393587e+06
   3.061347e+06   1.010321e+06
   2.227137e+06   2.504451e+06
   4.280460e+05   2.436964e+06
  -1.181157e+06   1.263396e+06
  -1.425327e+06   1.094022e+05
  -4.289554e+05  -5.450447e+04
   2.964705e+05   6.600176e+05
  -3.496094e+05   1.101661e+06
  -1.577935e+06   4.410620e+05
  -1.695865e+06  -7.399170e+05
  -3.412084e+05  -1.171659e+06
   1.010186e+06  -4.940755e+05
   8.375268e+05   4.071723e+05
  -6.940651e+05   5.536372e+05
  -1.992573e+06  -1.781852e+05
  -1.677785e+06  -1.218046e+06
   1.659671e+05  -1.838417e+06
   2.074902e+06  -1.485820e+06
   2.449108e+06  -1.968927e+05
   1.016179e+06   1.092376e+06
  -8.116723e+05   1.210598e+06
  -1.280498e+06   1.010764e+05
  -9.766654e+04  -9.033379e+05
   1.325950e+06  -5.837866e+05
   1.484438e+06   6.865926e+05
   3.272785e+05   1.438561e+06
  -9.112694e+05   8.996081e+05
  -1.108923e+06  -2.090046e+05
  -2.634102e+05  -6.541703e+05
   6.498877e+05  -3.980858e+04
   5.937192e+05   9.272158e+05
  -5.630009e+05   1.214179e+06
  -1.776771e+06   3.906181e+05
  -1.734217e+06  -9.880606e+05
  -2.767104e+05  -1.809229e+06
   1.272507e+06  -1.392935e+06
   1.499496e+06  -1.670179e+05
   4.466410e+05   7.540944e+05
  -5.786909e+05   7.045038e+05
  -6.007291e+05   4.745598e+04
   7.187957e+04  -3.904441e+05
   4.959153e+05  -2.552808e+05
   2.367701e+05   7.654241e+04
  -3.176372e+05   3.075147e+04
  -4.700898e+05  -5.078407e+05
   1.472100e+05  -1.013445e+06
   1.207054e+06  -7.634538e+05
   1.808140e+06   4.047827e+05
   1.224537e+06   1.734213e+06
  -2.556475e+05   2.131633e+06
  -1.460750e+06   1.254270e+06
  -1.535511e+06  -1.065028e+05
  -8.212038e+05  -8.601590e+05
  -2.956443e+05  -7.158269e+05
  -3.443555e+05  -2.932689e+05
  -4.532416e+05  -2.630773e+05
  -4.449297e+04  -6.156565e+05
   7.624943e+05  -7.806840e+05
   1.292493e+06  -2.942607e+05
   9.658898e+05   6.733583e+05
  -2.122764e+05   1.343564e+06
  -1.543559e+06   9.479326e+05
  -1.987535e+06  -4.671151e+05
  -9.805357e+05  -1.855254e+06
   8.820927e+05  -2.039346e+06
   2.204284e+06  -8.822444e+05
   2.074142e+06   5.669553e+05
   9.030483e+05   1.191421e+06
  -1.474193e+05   9.071194e+05
  -4.119067e+05   5.191109e+05
  -2.000149e+05   6.537000e+05
  -1.836995e+05   1.077433e+06
  -6.062632e+05   1.059332e+06
  -1.108879e+06   2.257796e+05
  -1.127700e+06  -9.920870e+05
  -4.277491e+05  -1.682389e+06
   5.951503e+05  -1.244669e+06
   1.134638e+06   2.252127e+04
   6.957851e+05   1.114582e+06
  -3.276922e+05   1.206228e+06
  -9.665296e+05   3.844323e+05
  -6.806505e+05  -5.371150e+05
   7.267971e+04  -8.828416e+05
   4.067106e+05  -6.793781e+05
   4.999125e+04  -3.953206e+05
  -3.561513e+05  -3.256999e+05
  -3.223947e+04  -3.461212e+05
   9.834445e+05  -1.628663e+05
   1.758964e+06   3.317672e+05
   1.388689e+06   9.243933e+05
  -2.240391e+04   1.216221e+06
  -1.365189e+06   9.372282e+05
  -1.590794e+06   2.306271e+05
  -7.340577e+05  -3.863984e+05
   2.185068e+05  -4.586376e+05
   4.300411e+05  -4.305507e+04
  -7.438829e+03   3.301274e+05
  -4.183972e+05   2.033611e+05
  -4.051656e+05  -3.152264e+05
  -1.530708e+05  -6.584060e+05
  -2.424783e+04  -4.289559e+05
  -1.272380e+05   1.142206e+05
  -2.897894e+05   2.937541e+05
  -2.449558e+05  -2.053990e+05
   1.747956e+05  -8.806380e+05
   8.169068e+05  -9.022377e+05
   1.144631e+06  -8.114961e+04
   6.657328e+05   8.312612e+05
  -3.982107e+05   9.434840e+05
  -1.083327e+06   2.130917e+05
  -6.220961e+05  -5.398227e+05
   6.218494e+05  -5.598405e+05
   1.414034e+06   9.969276e+04
   9.247035e+05   7.708251e+05
  -4.036168e+05   8.945677e+05
  -1.341540e+06   4.486106e+05
  -1.121773e+06  -1.642447e+05
  -1.293670e+05  -4.664951e+05
   5.725154e+05  -2.417254e+05
   3.144158e+05   2.554754e+05
  -5.525102e+05   4.226409e+05
  -1.037469e+06  -1.382185e+05
  -5.186884e+05  -1.079096e+06
   6.161591e+05  -1.470213e+06
   1.358163e+06  -7.109399e+05
   1.086416e+06   7.209125e+05
   1.232946e+05   1.599579e+06
  -6.904333e+05   1.147271e+06
  -8.202065e+05  -1.541024e+05
  -3.767431e+05  -1.061118e+06
   1.841944e+05  -8.699244e+05
   4.881290e+05  -7.354519e+04
   4.283820e+05   3.517244e+05
   1.700917e+05   1.338910e+05
   3.421911e+04  -9.130650e+04
   1.974339e+05   2.517384e+05
   4.084727e+05   8.617278e+05
   1.736017e+05   9.643460e+05
  -6.040320e+05   3.338201e+05
  -1.298564e+06  -4.531539e+05
  -1.141940e+06  -7.742576e+05
  -1.479757e+05  -6.165276e+05
   7.943120e+05  -3.461882e+05
   8.858666e+05  -1.451486e+05
   2.942362e+05   4.229254e+04
  -1.457217e+05   1.935331e+05
  -5.121876e+03   1.941198e+05
   2.659478e+05   1.065832e+05
   2.851895e+04   1.222121e+05
  -6.279148e+05   1.802245e+05
  -9.226088e+05  -5.009510e+04
  -3.159550e+05  -6.230266e+05
   8.100236e+05  -1.001153e+06
   1.506217e+06  -5.957127e+05
   1.199105e+06   4.427983e+05
   1.912148e+05   1.258487e+06
  -7.109519e+05   1.184299e+06
  -9.452209e+05   4.254434e+05
  -5.790680e+05  -2.408336e+05
  -9.517530e+04  -3.215521e+05
   9.136468e+04  -4.132607e+04
  -6.110388e+04   3.179607e+04
  -2.683198e+05  -3.240508e+05
  -2.072253e+05  -7.212562e+05
   1.844912e+05  -5.902771e+05
   6.066558e+05   1.449613e+05
   6.120598e+05   8.828555e+05
   4.282911e+04   9.157411e+05
  -6.918602e+05   1.738830e+05
  -8.891218e+05  -6.913081e+05
  -2.603633e+05  -9.740997e+05
   6.561099e+05  -5.606512e+05
   9.755720e+05   1.062504e+05
   4.366834e+05   5.406626e+05
  -2.735146e+05   5.684128e+05
  -3.255435e+05   3.073103e+05
   2.424464e+05   2.172605e+04
   5.822910e+05  -1.336414e+04
   1.127046e+05   2.730116e+05
  -7.493642e+05   5.805320e+05
  -1.108429e+06   4.576213e+05
  -6.450548e+05  -1.628585e+05
   1.126839e+05  -7.576871e+05
   4.939022e+05  -7.307970e+05
   3.604254e+05  -1.128265e+05
   2.324266e+04   4.359036e+05
  -2.292694e+05   3.669856e+05
  -3.107499e+05  -1.595554e+05
  -2.057159e+05  -5.190887e+05
   6.572575e+04  -3.592248e+05
   3.448141e+05   5.909304e+04
   4.047540e+05   2.486664e+05
   2.104047e+05   7.988247e+04
  -1.472417e+04  -1.195064e+05
  -6.837484e+04  -8.963027e+03
  -2.497436e+04   3.285326e+05
  -9.994747e+04   4.681803e+05
  -3.043023e+05   1.505329e+05
  -3.718617e+05  -3.740257e+05
  -8.704123e+04  -5.842992e+05
   3.807807e+05  -2.587083e+05
   5.689825e+05   2.797398e+05
   1.999590e+05   5.233486e+05
  -4.538879e+05   3.060787e+05
  -7.688609e+05  -1.009415e+05
  -4.080447e+05  -3.485995e+05
   2.726530e+05  -3.320734e+05
   5.688282e+05  -1.664148e+05
   2.078668e+05  -4.684229e+03
  -3.304702e+05   3.830933e+04
  -3.694212e+05  -8.742914e+04
   1.720252e+05  -2.674493e+05
   6.927424e+05  -2.223159e+05
