
 $NMID
 id='ANONYMOUS ', fmtdat='(2E16.6)'
 volume=1.0
 tramp=1.0
 $END
  -3.390255e+07   2.991249e+04
  -2.187907e+07  -1.756613e+07
   1.493140e+06  -2.192572e+07
   1.523029e+07  -1.247978e+07
   1.148622e+07   3.811432e+05
  -1.130360e+05   5.929968e+06
  -6.537033e+06   1.868001e+06
  -4.077179e+06  -5.545709e+06
   2.225440e+06  -8.155516e+06
   6.159741e+06  -3.256182e+06
   5.130489e+06   4.173375e+06
   6.741708e+05   6.527163e+06
  -3.022763e+06   1.564053e+06
  -2.359972e+06  -5.069040e+06
   2.027467e+06  -6.021449e+06
   5.394576e+06  -2.156074e+05
   3.777142e+06   6.501680e+06
  -1.739815e+06   8.056049e+06
  -6.371167e+06   3.910964e+06
  -6.612158e+06  -1.730020e+06
  -3.200538e+06  -4.714991e+06
   2.244432e+05  -4.237887e+06
   6.934983e+05  -2.521317e+06
  -1.353401e+06  -2.201681e+06
  -2.384697e+06  -3.697238e+06
   5.053486e+05  -4.789122e+06
   5.743133e+06  -3.146077e+06
   8.185725e+06   7.290750e+05
   4.842090e+06   3.752494e+06
  -1.241016e+06   3.569890e+06
  -4.183322e+06   8.715519e+05
  -1.829431e+06  -1.706665e+06
   2.403381e+06  -2.090288e+06
   4.031043e+06  -2.726628e+04
   2.170431e+06   2.934557e+06
  -6.776407e+05   4.213754e+06
  -1.968499e+06   2.252013e+06
  -1.241299e+06  -1.252595e+06
   1.926907e+05  -2.402035e+06
   6.330919e+05   2.672688e+05
  -5.694214e+05   3.301756e+06
  -2.201612e+06   2.377942e+06
  -2.112193e+06  -1.789620e+06
   3.564941e+05  -3.959506e+06
   3.066249e+06  -1.093190e+06
   2.969973e+06   3.683547e+06
  -5.483824e+05   5.022301e+06
  -4.657986e+06   1.630788e+06
  -5.631211e+06  -2.921696e+06
  -2.372971e+06  -4.665694e+06
   2.469397e+06  -2.863306e+06
   4.819458e+06   3.530114e+05
   2.887624e+06   2.361093e+06
  -1.126236e+06   1.926400e+06
  -3.229695e+06  -1.035950e+05
  -1.758640e+06  -1.557271e+06
   1.018199e+06  -1.026689e+06
   1.735643e+06   6.184937e+05
  -1.162296e+05   1.293837e+06
  -1.843759e+06   2.081848e+05
  -1.002931e+06  -1.341614e+06
   1.711714e+06  -1.626837e+06
   3.371054e+06  -1.812767e+05
   2.006908e+06   2.146310e+06
  -1.539666e+06   3.906796e+06
  -4.600657e+06   3.645283e+06
  -5.073889e+06   8.758559e+05
  -3.038073e+06  -2.896480e+06
  -4.117854e+05  -4.969131e+06
   9.369042e+05  -4.121379e+06
   8.631327e+05  -1.992446e+06
   7.140180e+05  -9.764692e+05
   1.511861e+06  -1.235038e+06
   2.712763e+06  -8.836762e+05
   2.917413e+06   1.012526e+06
   1.490800e+06   2.880314e+06
  -7.666938e+05   2.561058e+06
  -2.297381e+06   1.042934e+04
  -1.927101e+06  -2.576066e+06
   2.617562e+05  -3.017562e+06
   2.746177e+06  -1.082324e+06
   3.552548e+06   1.595879e+06
   2.052273e+06   3.104229e+06
  -2.801242e+05   2.809798e+06
  -1.446160e+06   1.646317e+06
  -1.234908e+06   9.468501e+05
  -1.288779e+06   9.958774e+05
  -2.675114e+06   8.519544e+05
  -4.140445e+06  -4.053684e+05
  -3.460267e+06  -2.492048e+06
  -2.504168e+05  -4.068096e+06
   3.254099e+06  -3.889414e+06
   4.363861e+06  -1.832851e+06
   2.545675e+06   8.746936e+05
  -2.254521e+05   2.386912e+06
  -1.480919e+06   1.709533e+06
  -5.119944e+05  -2.072989e+05
   1.224359e+06  -1.231048e+06
   1.773719e+06  -3.486374e+05
   6.874060e+05   1.111756e+06
  -6.708131e+05   1.136980e+06
  -7.359830e+05  -3.231173e+05
   5.687001e+05  -1.179173e+06
   1.836622e+06   1.591340e+05
   1.631954e+06   2.691951e+06
  -2.365838e+05   3.874489e+06
  -2.625800e+06   2.383410e+06
  -3.903293e+06  -6.338741e+05
  -3.094845e+06  -2.873263e+06
  -7.302844e+05  -2.998625e+06
   1.381269e+06  -1.543998e+06
   1.695775e+06  -1.376434e+05
   5.007077e+05   4.291019e+04
  -3.839051e+05  -7.425005e+05
   2.826879e+05  -1.229379e+06
   1.678199e+06  -5.895221e+05
   1.946550e+06   6.514663e+05
   5.201708e+05   1.251383e+06
  -1.111336e+06   6.635086e+05
  -1.085833e+06  -4.162528e+05
   7.111315e+05  -8.372254e+05
   2.458210e+06  -8.799834e+04
   2.250748e+06   1.328068e+06
   2.153872e+04   2.307893e+06
  -2.357909e+06   1.960544e+06
  -2.858112e+06   3.959392e+05
  -1.225131e+06  -1.154499e+06
   8.289937e+05  -1.353603e+06
   1.367049e+06  -1.660065e+05
   1.046921e+05   9.782553e+05
  -1.479626e+06   7.246004e+05
  -1.767408e+06  -6.629870e+05
  -5.564767e+05  -1.640870e+06
   9.281953e+05  -1.196986e+06
   1.332331e+06   5.903242e+04
   4.354679e+05   7.062138e+05
  -6.895955e+05   1.039586e+05
  -7.094729e+05  -1.022090e+06
   6.141592e+05  -1.412901e+06
   2.043349e+06  -5.055490e+05
   2.037005e+06   1.072134e+06
   4.135536e+05   2.062549e+06
  -1.361172e+06   1.679567e+06
  -1.713450e+06   3.139017e+05
  -6.015076e+05  -8.294374e+05
   6.103850e+05  -8.762076e+05
   7.519553e+05  -7.944177e+04
  -1.706138e+04   5.624152e+05
  -6.494074e+05   4.267984e+05
  -4.467301e+05  -1.120424e+05
   2.859533e+05  -2.031307e+05
   6.287753e+05   4.468677e+05
  -3.014545e+04   1.165891e+06
  -1.327814e+06   9.746694e+05
  -2.117609e+06  -3.569008e+05
  -1.505242e+06  -1.939788e+06
   1.889849e+05  -2.511875e+06
   1.649785e+06  -1.612156e+06
   1.873351e+06  -1.402944e+04
   1.116384e+06   1.036383e+06
   4.105623e+05   9.991330e+05
   3.163214e+05   4.301725e+05
   4.291765e+05   2.349108e+05
   7.084684e+04   6.379374e+05
  -8.093105e+05   9.700408e+05
  -1.512453e+06   4.709497e+05
  -1.242132e+06  -7.569177e+05
   1.251603e+05  -1.672113e+06
   1.759311e+06  -1.253013e+06
   2.377158e+06   4.208210e+05
   1.296219e+06   2.090114e+06
  -8.301995e+05   2.416207e+06
  -2.454204e+06   1.209259e+06
  -2.492322e+06  -4.565457e+05
  -1.247246e+06  -1.340557e+06
   5.686686e+04  -1.180356e+06
   5.372794e+05  -7.266923e+05
   3.447121e+05  -7.510598e+05
   2.262822e+05  -1.169239e+06
   6.226820e+05  -1.196622e+06
   1.231031e+06  -2.991568e+05
   1.340228e+06   1.105774e+06
   5.706253e+05   1.941985e+06
  -6.432890e+05   1.478596e+06
  -1.332570e+06   5.033764e+04
  -8.952294e+05  -1.219262e+06
   2.482030e+05  -1.416894e+06
   1.026997e+06  -5.853767e+05
   8.159046e+05   4.601132e+05
   5.384223e+04   9.629547e+05
  -3.258323e+05   8.326590e+05
   6.066457e+03   5.109848e+05
   4.083078e+05   3.855023e+05
   4.026293e+04   4.110408e+05
  -1.097393e+06   2.561742e+05
  -2.009382e+06  -2.706336e+05
  -1.664090e+06  -9.659188e+05
  -1.083016e+05  -1.366560e+06
   1.457453e+06  -1.140166e+06
   1.812508e+06  -4.022385e+05
   9.047681e+05   3.197410e+05
  -1.916838e+05   5.026928e+05
  -4.749845e+05   1.114945e+05
   1.864789e+04  -3.269687e+05
   5.070688e+05  -2.386797e+05
   4.755747e+05   3.490081e+05
   1.389719e+05   7.761542e+05
  -1.698285e+04   5.000449e+05
   1.529384e+05  -1.870444e+05
   3.797411e+05  -4.135981e+05
   3.089585e+05   2.198502e+05
  -1.966315e+05   1.056362e+06
  -9.033608e+05   1.077190e+06
  -1.244474e+06   1.070718e+05
  -7.327672e+05  -9.349649e+05
   4.156321e+05  -1.052210e+06
   1.201018e+06  -2.341671e+05
   7.383157e+05   6.217911e+05
  -6.801696e+05   6.980748e+05
  -1.687389e+06  -8.842332e+03
  -1.211774e+06  -8.397072e+05
   3.604907e+05  -1.126067e+06
   1.567977e+06  -6.887918e+05
   1.384763e+06   8.715888e+04
   2.100176e+05   5.571542e+05
  -6.498532e+05   3.450197e+05
  -3.576278e+05  -2.593930e+05
   6.565714e+05  -4.829159e+05
   1.207798e+06   1.663601e+05
   5.884846e+05   1.260585e+06
  -7.288323e+05   1.713477e+06
  -1.589916e+06   8.403566e+05
  -1.297349e+06  -8.227545e+05
  -2.037867e+05  -1.883802e+06
   7.614266e+05  -1.413064e+06
   9.842764e+05   9.982066e+04
   5.371625e+05   1.223648e+06
  -1.186606e+05   1.066088e+06
  -5.525988e+05   1.350584e+05
  -5.616332e+05  -4.059098e+05
  -2.532458e+05  -1.677587e+05
  -1.825590e+04   1.249304e+05
  -1.750553e+05  -2.489167e+05
  -4.923180e+05  -9.766833e+05
  -3.052155e+05  -1.138192e+06
   6.269298e+05  -4.335584e+05
   1.553779e+06   4.765522e+05
   1.430223e+06   8.611006e+05
   2.084224e+05   7.053529e+05
  -9.652510e+05   4.321739e+05
  -1.052450e+06   2.265791e+05
  -3.075051e+05  -5.212739e+03
   1.815229e+05  -2.269185e+05
  -5.814362e+04  -2.601331e+05
  -3.756689e+05  -1.507143e+05
  -1.405875e+04  -1.444135e+05
   7.931957e+05  -2.084346e+05
   1.073400e+06   4.176317e+04
   3.035930e+05   7.022135e+05
  -9.674465e+05   1.161825e+06
  -1.696911e+06   7.097761e+05
  -1.341503e+06  -5.053280e+05
  -2.444835e+05  -1.475353e+06
   7.715634e+05  -1.392031e+06
   1.087151e+06  -4.900878e+05
   6.931690e+05   2.957577e+05
   9.646298e+04   3.702973e+05
  -1.562845e+05   1.265720e+04
   5.286412e+04  -8.181622e+04
   3.550526e+05   3.525449e+05
   2.928893e+05   8.373947e+05
  -2.067445e+05   6.833325e+05
  -7.244017e+05  -1.901147e+05
  -7.080884e+05  -1.050035e+06
  -1.526788e+04  -1.059702e+06
   8.363242e+05  -1.675401e+05
   1.040891e+06   8.313787e+05
   2.982072e+05   1.125537e+06
  -7.562149e+05   6.333852e+05
  -1.114575e+06  -1.076805e+05
  -4.971875e+05  -5.763350e+05
   2.943814e+05  -6.208339e+05
   3.220666e+05  -3.600229e+05
  -3.357316e+05  -4.061263e+04
  -6.939687e+05   2.535895e+04
  -1.229717e+05  -3.044193e+05
   8.575901e+05  -7.110271e+05
   1.238088e+06  -6.139393e+05
   7.092427e+05   1.249957e+05
  -1.106970e+05   8.684509e+05
  -5.064563e+05   8.514103e+05
  -3.632192e+05   1.080295e+05
  -1.198622e+04  -5.293614e+05
   2.649890e+05  -4.071990e+05
   3.690229e+05   2.239927e+05
   2.492531e+05   6.019458e+05
  -7.623575e+04   3.781289e+05
  -4.019073e+05  -7.908838e+04
  -4.660635e+05  -2.441263e+05
  -2.495030e+05  -5.710389e+04
  -1.189465e+03   1.008063e+05
   8.328865e+04  -6.883704e+04
   8.666580e+04  -4.122475e+05
   1.937682e+05  -4.934873e+05
   3.770141e+05  -9.677709e+04
   3.798869e+05   4.797544e+05
   3.421032e+04   6.838934e+05
  -4.606197e+05   2.888970e+05
  -6.398910e+05  -3.404609e+05
  -2.236690e+05  -6.240257e+05
   5.067746e+05  -3.648390e+05
   8.722001e+05   1.155664e+05
   4.728773e+05   3.960068e+05
  -3.072481e+05   3.601385e+05
  -6.449766e+05   1.675587e+05
  -2.047851e+05   5.635913e+03
   4.361519e+05  -1.306543e+04
   4.525732e+05   1.463404e+05
  -2.381678e+05   3.477236e+05
  -8.743811e+05   2.744756e+05
