
 $NMID
 id='ANONYMOUS ', fmtdat='(2E16.6)'
 volume=1.0
 tramp=1.0
 $END
   1.672918e+07   7.828251e+05
   1.042539e+07   8.580430e+06
  -8.517898e+05   1.046785e+07
  -7.402974e+06   6.285685e+06
  -5.693069e+06   2.131487e+05
  -1.090341e+05  -2.869642e+06
   3.224505e+06  -1.198495e+06
   2.230366e+06   2.652401e+06
  -9.245804e+05   4.278250e+06
  -3.059841e+06   1.794255e+06
  -2.597345e+06  -2.198304e+06
  -2.789309e+05  -3.433021e+06
   1.627477e+06  -7.198584e+05
   1.258845e+06   2.790130e+06
  -9.950613e+05   3.228898e+06
  -2.712986e+06   1.701992e+05
  -1.898586e+06  -3.293803e+06
   9.154696e+05  -4.052575e+06
   3.261973e+06  -1.850032e+06
   3.265344e+06   1.080139e+06
   1.358816e+06   2.476790e+06
  -3.614642e+05   1.972162e+06
  -2.997277e+05   9.987671e+05
   1.025737e+06   1.074942e+06
   1.481428e+06   2.156895e+06
  -3.421889e+05   2.735689e+06
  -3.264072e+06   1.626136e+06
  -4.440265e+06  -5.850077e+05
  -2.459844e+06  -2.128515e+06
   8.828283e+05  -1.886109e+06
   2.418915e+06  -3.305091e+05
   1.005766e+06   1.130402e+06
  -1.466201e+06   1.316971e+06
  -2.411365e+06   1.908329e+04
  -1.242733e+06  -1.771281e+06
   5.026413e+05  -2.404766e+06
   1.163527e+06  -1.101859e+06
   5.386931e+05   8.671817e+05
  -3.279409e+05   1.278835e+06
  -4.080267e+05  -3.562792e+05
   3.806147e+05  -1.936330e+06
   1.200210e+06  -1.311519e+06
   1.090300e+06   8.784570e+05
  -8.690179e+04   1.927001e+06
  -1.342685e+06   4.803599e+05
  -1.334955e+06  -1.820323e+06
   3.041214e+05  -2.416459e+06
   2.356981e+06  -7.309812e+05
   2.943778e+06   1.535283e+06
   1.308602e+06   2.449139e+06
  -1.277796e+06   1.562414e+06
  -2.591737e+06  -1.132819e+05
  -1.601072e+06  -1.196290e+06
   5.184196e+05  -9.978469e+05
   1.643521e+06   3.158599e+04
   9.156809e+05   7.658798e+05
  -5.133553e+05   5.119935e+05
  -9.465931e+05  -3.092514e+05
  -5.549073e+04  -7.118031e+05
   9.003813e+05  -2.706350e+05
   6.330899e+05   5.005627e+05
  -6.939361e+05   7.778421e+05
  -1.641923e+06   1.712615e+05
  -1.019647e+06  -1.036328e+06
   8.822247e+05  -2.028679e+06
   2.559805e+06  -1.886474e+06
   2.739539e+06  -3.572076e+05
   1.526591e+06   1.638444e+06
   1.285999e+05   2.661400e+06
  -4.647567e+05   2.192083e+06
  -3.750243e+05   1.144002e+06
  -4.086868e+05   6.705190e+05
  -9.744402e+05   7.541655e+05
  -1.636926e+06   4.351643e+05
  -1.663816e+06  -6.805766e+05
  -7.994571e+05  -1.704207e+06
   4.909415e+05  -1.480222e+06
   1.347086e+06  -5.693282e+03
   1.099501e+06   1.469649e+06
  -1.745447e+05   1.686620e+06
  -1.540490e+06   5.389958e+05
  -1.892439e+06  -9.601246e+05
  -1.000363e+06  -1.702399e+06
   2.304710e+05  -1.433300e+06
   7.635414e+05  -7.830034e+05
   6.007520e+05  -4.716635e+05
   6.559788e+05  -5.596201e+05
   1.446869e+06  -4.907793e+05
   2.261007e+06   2.087573e+05
   1.898485e+06   1.363951e+06
   1.375852e+05   2.243482e+06
  -1.816217e+06   2.145569e+06
  -2.447519e+06   9.830326e+05
  -1.411339e+06  -5.365049e+05
   1.726748e+05  -1.351109e+06
   8.667172e+05  -9.338672e+05
   2.833760e+05   1.337168e+05
  -6.961124e+05   6.751052e+05
  -9.715118e+05   1.791739e+05
  -3.524487e+05  -6.158914e+05
   3.875991e+05  -6.343138e+05
   4.327213e+05   1.644737e+05
  -2.555273e+05   6.795833e+05
  -9.770879e+05   1.177328e+04
  -9.625362e+05  -1.387457e+06
  -1.347756e+03  -2.142611e+06
   1.369340e+06  -1.414650e+06
   2.187935e+06   2.648547e+05
   1.786447e+06   1.581313e+06
   4.355443e+05   1.688653e+06
  -7.787816e+05   8.631487e+05
  -9.526876e+05   6.732346e+04
  -2.775338e+05  -2.440057e+04
   2.124822e+05   4.099590e+05
  -1.509398e+05   6.642598e+05
  -9.076316e+05   3.150264e+05
  -1.058637e+06  -3.458036e+05
  -2.916295e+05  -6.730262e+05
   6.074870e+05  -3.706117e+05
   6.167659e+05   2.228139e+05
  -3.718837e+05   4.869323e+05
  -1.372908e+06   9.070624e+04
  -1.289122e+06  -7.206060e+05
  -4.324867e+04  -1.299813e+06
   1.303608e+06  -1.109460e+06
   1.585732e+06  -2.263568e+05
   6.716019e+05   6.306151e+05
  -4.582785e+05   7.290869e+05
  -7.386085e+05   7.947391e+04
  -4.252472e+04  -5.346007e+05
   8.169664e+05  -3.943273e+05
   9.762759e+05   3.580533e+05
   3.242560e+05   9.001242e+05
  -4.929247e+05   6.751349e+05
  -7.350640e+05  -9.029938e+03
  -2.546206e+05  -3.777260e+05
   3.696321e+05  -5.657129e+04
   3.858291e+05   5.651606e+05
  -3.476564e+05   7.799536e+05
  -1.136134e+06   2.716865e+05
  -1.124470e+06  -6.004034e+05
  -2.257140e+05  -1.139362e+06
   7.480385e+05  -9.259928e+05
   9.432863e+05  -1.788520e+05
   3.386610e+05   4.527590e+05
  -3.325368e+05   4.881536e+05
  -4.272654e+05   4.620616e+04
  -5.679070e+03  -3.271119e+05
   3.682791e+05  -2.608534e+05
   2.798798e+05   5.673383e+04
  -1.334602e+05   1.334130e+05
  -3.498633e+05  -2.230515e+05
   3.137671e+03  -6.366970e+05
   7.288131e+05  -5.415138e+05
   1.171691e+06   1.960637e+05
   8.311284e+05   1.074892e+06
  -1.052123e+05   1.396452e+06
  -9.129731e+05   9.078921e+05
  -1.049086e+06   2.296326e+04
  -6.447784e+05  -5.806569e+05
  -2.455380e+05  -5.841457e+05
  -1.654539e+05  -2.647354e+05
  -2.148830e+05  -1.301971e+05
  -3.135980e+04  -3.414621e+05
   4.411419e+05  -5.389979e+05
   8.390400e+05  -2.731845e+05
   7.051867e+05   4.185807e+05
  -5.395264e+04   9.410104e+05
  -9.737176e+05   7.074438e+05
  -1.324078e+06  -2.283173e+05
  -7.269320e+05  -1.152687e+06
   4.461321e+05  -1.332772e+06
   1.345555e+06  -6.766953e+05
   1.383886e+06   2.342051e+05
   7.147946e+05   7.346717e+05
  -1.183637e+04   6.704006e+05
  -3.060380e+05   4.267460e+05
  -2.187224e+05   4.234003e+05
  -1.449530e+05   6.367540e+05
  -3.459738e+05   6.494556e+05
  -6.760993e+05   1.581049e+05
  -7.393352e+05  -6.174886e+05
  -3.133519e+05  -1.079630e+06
   3.603771e+05  -8.207290e+05
   7.398247e+05  -3.104630e+04
   4.977493e+05   6.674790e+05
  -1.263167e+05   7.800183e+05
  -5.499645e+05   3.339607e+05
  -4.422864e+05  -2.331726e+05
  -4.071288e+04  -5.155171e+05
   1.599848e+05  -4.572857e+05
  -1.424691e+04  -2.887423e+05
  -2.240869e+05  -2.200426e+05
  -2.023355e+04  -2.308703e+05
   6.009460e+05  -1.415556e+05
   1.103143e+06   1.508193e+05
   9.198497e+05   5.300414e+05
   6.820995e+04   7.442042e+05
  -7.960960e+05   6.219563e+05
  -9.971485e+05   2.291956e+05
  -5.003917e+05  -1.595454e+05
   1.028143e+05  -2.685188e+05
   2.566415e+05  -6.680690e+04
  -1.932772e+04   1.731877e+05
  -2.880970e+05   1.309268e+05
  -2.616883e+05  -1.952067e+05
  -6.516900e+04  -4.389565e+05
   2.134301e+04  -2.825525e+05
  -8.339187e+04   1.128309e+05
  -2.169629e+05   2.433631e+05
  -1.732528e+05  -1.200532e+05
   1.147514e+05  -5.926944e+05
   5.027070e+05  -5.944421e+05
   6.792030e+05  -4.458303e+04
   3.912573e+05   5.255096e+05
  -2.360690e+05   5.719088e+05
  -6.628181e+05   1.135405e+05
  -4.086897e+05  -3.507558e+05
   3.740368e+05  -3.883359e+05
   9.399290e+05  -2.839298e+03
   6.878438e+05   4.578407e+05
  -1.848729e+05   6.311580e+05
  -8.683557e+05   4.004695e+05
  -7.771895e+05  -3.594068e+04
  -1.238922e+05  -3.102953e+05
   3.575307e+05  -1.966925e+05
   1.928942e+05   1.418679e+05
  -3.734016e+05   2.634945e+05
  -6.729602e+05  -1.038049e+05
  -3.155852e+05  -7.101985e+05
   4.226746e+05  -9.512124e+05
   8.945160e+05  -4.585777e+05
   7.212999e+05   4.643386e+05
   1.101882e+05   1.051638e+06
  -4.230833e+05   7.920422e+05
  -5.470775e+05  -4.783048e+04
  -3.055789e+05  -6.773508e+05
   5.437471e+04  -5.954036e+05
   3.028560e+05  -7.801682e+04
   3.205320e+05   2.255411e+05
   1.503259e+05   9.337256e+04
   6.026105e+03  -7.101868e+04
   8.268306e+04   1.371221e+05
   2.673465e+05   5.431245e+05
   1.797824e+05   6.320222e+05
  -3.367106e+05   2.383427e+05
  -8.661165e+05  -2.666528e+05
  -8.049590e+05  -4.773463e+05
  -1.156897e+05  -3.902746e+05
   5.467609e+05  -2.413789e+05
   5.881359e+05  -1.292832e+05
   1.620167e+05   6.731755e+02
  -1.050597e+05   1.263041e+05
   4.403271e+04   1.463719e+05
   2.218400e+05   8.654204e+04
   3.532717e+03   8.261851e+04
  -4.550941e+05   1.144475e+05
  -5.971326e+05  -2.941816e+04
  -1.507045e+05  -3.954600e+05
   5.538922e+05  -6.415192e+05
   9.416419e+05  -3.802520e+05
   7.341407e+05   2.956248e+05
   1.287768e+05   8.252087e+05
  -4.313263e+05   7.681326e+05
  -6.087949e+05   2.625082e+05
  -3.888171e+05  -1.719047e+05
  -4.796715e+04  -2.078800e+05
   9.870713e+04  -3.656128e+03
  -2.347633e+04   5.145532e+04
  -2.005492e+05  -1.920189e+05
  -1.651469e+05  -4.651693e+05
   1.199700e+05  -3.782412e+05
   4.074203e+05   1.143266e+05
   3.873575e+05   5.959102e+05
  -6.717806e+03   5.930216e+05
  -4.760738e+05   8.300665e+04
  -5.769717e+05  -4.765740e+05
  -1.555534e+05  -6.293813e+05
   4.273934e+05  -3.432204e+05
   6.160852e+05   6.823818e+04
   2.664996e+05   3.174742e+05
  -1.685293e+05   3.350426e+05
  -1.727540e+05   1.940638e+05
   1.973686e+05   2.379466e+04
   3.893946e+05  -1.137809e+04
   6.362135e+04   1.692171e+05
  -4.790311e+05   3.944720e+05
  -6.804262e+05   3.420641e+05
  -3.823805e+05  -6.783552e+04
   6.651855e+04  -4.796506e+05
   2.778025e+05  -4.655055e+05
   1.957271e+05  -4.879277e+04
   1.467486e+03   3.004044e+05
  -1.524768e+05   2.214168e+05
  -2.083270e+05  -1.340077e+05
  -1.355782e+05  -3.367314e+05
   4.879997e+04  -2.034440e+05
   2.244831e+05   4.918399e+04
   2.535209e+05   1.326885e+05
   1.366625e+05   2.739773e+04
   7.693669e+03  -5.111936e+04
  -4.137063e+04   5.161538e+04
  -5.928611e+04   2.389792e+05
  -1.295780e+05   2.710331e+05
  -2.212880e+05   3.921615e+04
  -2.024038e+05  -2.826350e+05
  -2.203551e+03  -3.878176e+05
   2.633380e+05  -1.566493e+05
   3.515247e+05   1.995777e+05
   1.192436e+05   3.532841e+05
  -2.813843e+05   1.991124e+05
  -4.816015e+05  -7.318423e+04
  -2.594067e+05  -2.233496e+05
   1.747662e+05  -1.930381e+05
   3.603588e+05  -8.227976e+04
   1.078930e+05   1.469536e+03
  -2.547855e+05   2.339987e+03
  -2.586882e+05  -9.125876e+04
   1.393827e+05  -2.012823e+05
   5.005300e+05  -1.539806e+05
