
 $NMID
 id='ANONYMOUS ', fmtdat='(2E16.6)'
 volume=1.0
 tramp=1.0
 $END
  -3.861879e+07   1.448759e+03
  -2.438454e+07  -2.119821e+07
   2.747109e+06  -2.531252e+07
   1.781431e+07  -1.293985e+07
   1.252821e+07   1.754526e+06
  -7.768479e+05   6.637334e+06
  -7.221968e+06   1.229982e+06
  -3.811440e+06  -6.424058e+06
   3.047486e+06  -8.409229e+06
   6.888332e+06  -2.999916e+06
   5.526217e+06   4.600278e+06
   7.075558e+05   6.969057e+06
  -3.229753e+06   1.812615e+06
  -2.424897e+06  -5.154079e+06
   2.386926e+06  -6.140453e+06
   5.915193e+06   1.059801e+05
   3.921136e+06   7.280172e+06
  -2.166322e+06   8.845434e+06
  -7.158240e+06   4.331651e+06
  -7.497126e+06  -1.801856e+06
  -3.915940e+06  -5.303300e+06
   3.953158e+04  -5.163415e+06
   1.159642e+06  -3.254776e+06
  -6.931041e+05  -2.300065e+06
  -2.132891e+06  -3.380610e+06
   3.419516e+05  -4.674568e+06
   5.684018e+06  -3.419091e+06
   8.512281e+06   4.704031e+05
   5.311936e+06   3.837236e+06
  -9.334747e+05   3.890744e+06
  -4.098461e+06   1.231255e+06
  -1.972721e+06  -1.353158e+06
   2.031429e+06  -1.863633e+06
   3.678717e+06  -1.326546e+05
   2.188451e+06   2.627004e+06
  -3.882064e+05   4.168677e+06
  -1.938645e+06   2.592043e+06
  -1.660336e+06  -1.019870e+06
  -2.011620e+05  -2.666950e+06
   6.693789e+05  -1.861428e+05
  -3.759082e+05   3.137604e+06
  -2.257327e+06   2.370589e+06
  -2.185265e+06  -2.082426e+06
   7.864722e+05  -4.413739e+06
   3.874906e+06  -1.073775e+06
   3.417408e+06   4.364665e+06
  -8.347452e+05   5.756409e+06
  -5.241786e+06   1.795781e+06
  -5.917271e+06  -3.242290e+06
  -2.271407e+06  -4.956332e+06
   2.680532e+06  -2.839176e+06
   4.920273e+06   5.929671e+05
   2.799189e+06   2.595833e+06
  -1.394105e+06   1.984767e+06
  -3.503773e+06  -2.731384e+05
  -1.801329e+06  -1.799766e+06
   1.164938e+06  -1.099229e+06
   1.740554e+06   7.027709e+05
  -3.634803e+05   1.216895e+06
  -1.974731e+06  -1.958395e+05
  -6.681014e+05  -1.773608e+06
   2.316925e+06  -1.683347e+06
   3.774896e+06   1.360137e+05
   2.074653e+06   2.528326e+06
  -1.596991e+06   4.198973e+06
  -4.696071e+06   3.906848e+06
  -5.320044e+06   1.061231e+06
  -3.367934e+06  -2.958356e+06
  -5.257289e+05  -5.231938e+06
   1.127468e+06  -4.265921e+06
   1.047695e+06  -1.838161e+06
   5.989980e+05  -7.279323e+05
   1.196491e+06  -1.191150e+06
   2.493152e+06  -1.078981e+06
   2.909175e+06   7.533860e+05
   1.612156e+06   2.692837e+06
  -6.014643e+05   2.486195e+06
  -2.151637e+06   5.491716e+04
  -1.886057e+06  -2.478946e+06
   2.043095e+05  -3.011689e+06
   2.759552e+06  -1.207438e+06
   3.757014e+06   1.515080e+06
   2.303188e+06   3.249865e+06
  -2.302540e+05   3.113233e+06
  -1.623058e+06   1.873672e+06
  -1.445190e+06   9.891018e+05
  -1.404801e+06   9.347239e+05
  -2.739156e+06   7.794931e+05
  -4.199190e+06  -4.778975e+05
  -3.480487e+06  -2.556025e+06
  -2.293488e+05  -4.096181e+06
   3.254340e+06  -3.910130e+06
   4.340989e+06  -1.904484e+06
   2.580827e+06   7.815200e+05
  -1.193022e+05   2.366249e+06
  -1.406344e+06   1.765630e+06
  -5.252359e+05  -1.719608e+05
   1.200362e+06  -1.253889e+06
   1.809015e+06  -3.615469e+05
   7.400434e+05   1.136044e+06
  -6.405918e+05   1.137687e+06
  -6.743594e+05  -3.375778e+05
   6.742129e+05  -1.082150e+06
   1.846482e+06   3.961044e+05
   1.431584e+06   2.867236e+06
  -5.190386e+05   3.790488e+06
  -2.740896e+06   2.126565e+06
  -3.793210e+06  -8.034905e+05
  -2.937180e+06  -2.858032e+06
  -6.776445e+05  -2.928677e+06
   1.356595e+06  -1.535328e+06
   1.678623e+06  -1.588610e+05
   5.013995e+05   4.335437e+04
  -3.805491e+05  -7.479435e+05
   3.117802e+05  -1.258992e+06
   1.735058e+06  -5.902359e+05
   1.974304e+06   7.045636e+05
   4.937143e+05   1.292305e+06
  -1.129530e+06   6.469986e+05
  -1.048857e+06  -4.262098e+05
   7.436750e+05  -7.732199e+05
   2.409976e+06  -2.024652e+03
   2.153341e+06   1.338947e+06
  -3.499045e+04   2.246177e+06
  -2.357526e+06   1.905336e+06
  -2.853736e+06   3.729559e+05
  -1.229787e+06  -1.183632e+06
   8.523575e+05  -1.392586e+06
   1.415542e+06  -1.721376e+05
   1.261559e+05   1.005506e+06
  -1.495062e+06   7.314669e+05
  -1.765851e+06  -6.914756e+05
  -5.121900e+05  -1.651131e+06
   9.677570e+05  -1.155012e+06
   1.322189e+06   1.140280e+05
   3.961011e+05   7.257377e+05
  -7.166851e+05   9.351209e+04
  -7.195992e+05  -1.034494e+06
   6.086316e+05  -1.423582e+06
   2.046624e+06  -5.175595e+05
   2.048388e+06   1.072109e+06
   4.102274e+05   2.076104e+06
  -1.384933e+06   1.680960e+06
  -1.724978e+06   2.935176e+05
  -5.829851e+05  -8.419380e+05
   6.238375e+05  -8.648455e+05
   7.298216e+05  -7.965646e+04
  -3.898866e+04   5.209464e+05
  -6.177350e+05   3.817464e+05
  -3.781854e+05  -1.016304e+05
   3.224455e+05  -1.426165e+05
   6.075319e+05   4.981922e+05
  -6.863083e+04   1.176500e+06
  -1.346430e+06   9.630047e+05
  -2.121277e+06  -3.703635e+05
  -1.505557e+06  -1.950312e+06
   1.945228e+05  -2.505425e+06
   1.649623e+06  -1.577708e+06
   1.842487e+06   1.533717e+04
   1.066240e+06   1.009767e+06
   3.936814e+05   9.274990e+05
   3.542384e+05   3.863034e+05
   4.750325e+05   2.537341e+05
   7.576853e+04   6.692824e+05
  -8.277443e+05   9.603734e+05
  -1.505935e+06   4.422192e+05
  -1.206934e+06  -7.522519e+05
   1.520229e+05  -1.634039e+06
   1.759519e+06  -1.220921e+06
   2.361527e+06   4.354225e+05
   1.268225e+06   2.102578e+06
  -8.731515e+05   2.418002e+06
  -2.485910e+06   1.177333e+06
  -2.474062e+06  -5.023128e+05
  -1.190080e+06  -1.345955e+06
   8.900532e+04  -1.134381e+06
   5.064600e+05  -6.833799e+05
   2.871782e+05  -7.564768e+05
   1.999397e+05  -1.206443e+06
   6.361089e+05  -1.223639e+06
   1.251408e+06  -3.056869e+05
   1.347690e+06   1.105228e+06
   5.720266e+05   1.941555e+06
  -6.409449e+05   1.477866e+06
  -1.329167e+06   3.981174e+04
  -8.821571e+05  -1.239405e+06
   2.803129e+05  -1.419686e+06
   1.061896e+06  -5.487563e+05
   8.188875e+05   5.148877e+05
   1.501053e+04   9.927208e+05
  -3.738949e+05   8.255342e+05
  -1.364098e+04   4.923066e+05
   4.166119e+05   3.762269e+05
   4.532577e+04   4.071389e+05
  -1.114561e+06   2.479384e+05
  -2.032464e+06  -2.846151e+05
  -1.663199e+06  -9.857850e+05
  -7.687525e+04  -1.388901e+06
   1.494187e+06  -1.147187e+06
   1.826069e+06  -3.776901e+05
   8.934998e+05   3.598251e+05
  -2.081015e+05   5.203143e+05
  -4.855579e+05   9.490458e+04
   7.520391e+03  -3.501199e+05
   4.951440e+05  -2.451763e+05
   4.799744e+05   3.488392e+05
   1.667230e+05   7.685400e+05
   9.188455e+03   4.983820e+05
   1.498423e+05  -1.673307e+05
   3.583962e+05  -3.889617e+05
   3.033253e+05   2.236274e+05
  -1.838701e+05   1.046799e+06
  -9.064697e+05   1.081742e+06
  -1.278572e+06   1.243447e+05
  -7.654360e+05  -9.350883e+05
   4.169102e+05  -1.078738e+06
   1.220928e+06  -2.605990e+05
   7.423898e+05   6.131861e+05
  -6.882940e+05   6.912537e+05
  -1.673928e+06  -2.716080e+04
  -1.171725e+06  -8.483359e+05
   3.898698e+05  -1.100772e+06
   1.559765e+06  -6.455096e+05
   1.357249e+06   1.102078e+05
   1.941498e+05   5.499689e+05
  -6.531002e+05   3.298781e+05
  -3.662413e+05  -2.688308e+05
   6.430876e+05  -4.963036e+05
   1.209854e+06   1.451560e+05
   6.141747e+05   1.248703e+06
  -6.970985e+05   1.723267e+06
  -1.573113e+06   8.596548e+05
  -1.297253e+06  -8.099061e+05
  -2.081843e+05  -1.873304e+06
   7.587642e+05  -1.394636e+06
   9.762874e+05   1.175825e+05
   5.166381e+05   1.222878e+06
  -1.425087e+05   1.049186e+06
  -5.583182e+05   1.241484e+05
  -5.424365e+05  -4.005195e+05
  -2.330018e+05  -1.607483e+05
  -2.564616e+04   1.183440e+05
  -2.025861e+05  -2.621733e+05
  -5.015843e+05  -9.799641e+05
  -2.806855e+05  -1.130184e+06
   6.523450e+05  -4.275933e+05
   1.545469e+06   4.740747e+05
   1.403807e+06   8.580656e+05
   2.051943e+05   7.081148e+05
  -9.427253e+05   4.340532e+05
  -1.041933e+06   2.189855e+05
  -3.231731e+05  -1.706859e+04
   1.731298e+05  -2.286570e+05
  -3.509828e+04  -2.474432e+05
  -3.502505e+05  -1.361875e+05
  -2.399014e+04  -1.426562e+05
   7.644420e+05  -2.193123e+05
   1.074563e+06   3.159602e+04
   3.413384e+05   7.044728e+05
  -9.388830e+05   1.177363e+06
  -1.708754e+06   7.315102e+05
  -1.371479e+06  -4.864250e+05
  -2.583750e+05  -1.467664e+06
   7.726856e+05  -1.400221e+06
   1.084355e+06  -5.095544e+05
   6.893776e+05   2.791999e+05
   1.081790e+05   3.698423e+05
  -1.346285e+05   2.781631e+04
   6.046452e+04  -6.506486e+04
   3.439945e+05   3.583087e+05
   2.850754e+05   8.351823e+05
  -1.990850e+05   6.881897e+05
  -7.190920e+05  -1.706373e+05
  -7.254284e+05  -1.029435e+06
  -4.614884e+04  -1.060582e+06
   8.197634e+05  -1.937503e+05
   1.050416e+06   8.042008e+05
   3.180715e+05   1.123808e+06
  -7.484983e+05   6.531653e+05
  -1.125060e+06  -9.594228e+04
  -5.123852e+05  -5.895249e+05
   2.929499e+05  -6.426534e+05
   3.394776e+05  -3.659327e+05
  -3.140897e+05  -3.088106e+04
  -6.871855e+05   3.174004e+04
  -1.315052e+05  -3.075715e+05
   8.533425e+05  -7.105166e+05
   1.251993e+06  -6.020262e+05
   7.300614e+05   1.386246e+05
  -1.048734e+05   8.761438e+05
  -5.207458e+05   8.611403e+05
  -3.835096e+05   1.250321e+05
  -2.568518e+04  -5.196473e+05
   2.586349e+05  -4.194365e+05
   3.682287e+05   2.028667e+05
   2.547562e+05   5.991428e+05
  -6.905848e+04   3.954763e+05
  -4.024939e+05  -6.859320e+04
  -4.733530e+05  -2.549559e+05
  -2.496756e+05  -6.787182e+04
   9.095530e+03   1.157242e+05
   8.331883e+04  -3.786057e+04
   5.780161e+04  -3.995021e+05
   1.528578e+05  -5.147243e+05
   3.635532e+05  -1.337375e+05
   4.073452e+05   4.539147e+05
   7.203894e+04   6.794467e+05
  -4.485201e+05   3.004568e+05
  -6.536918e+05  -3.235701e+05
  -2.366111e+05  -6.140519e+05
   5.099562e+05  -3.699607e+05
   8.831101e+05   1.018665e+05
   4.801609e+05   3.923764e+05
  -3.047440e+05   3.759223e+05
  -6.482745e+05   1.888317e+05
  -2.197331e+05   1.001991e+04
   4.139121e+05  -3.098970e+04
   4.441326e+05   1.218625e+05
  -2.184726e+05   3.353547e+05
  -8.427967e+05   2.795269e+05
