
 $NMID
 id='ANONYMOUS ', fmtdat='(2E16.6)'
 volume=1.0
 tramp=1.0
 $END
  -2.618030e+07   2.711556e+06
  -1.937127e+07  -1.101585e+07
  -1.710157e+06  -1.726321e+07
   1.099714e+07  -1.224817e+07
   1.008682e+07  -1.547520e+06
   9.206692e+05   5.024893e+06
  -5.564140e+06   2.671755e+06
  -4.407860e+06  -4.286070e+06
   1.052714e+06  -7.546066e+06
   4.979468e+06  -3.588142e+06
   4.503419e+06   3.122057e+06
   8.514559e+05   5.446618e+06
  -2.390460e+06   1.307118e+06
  -2.144909e+06  -4.434898e+06
   1.388565e+06  -5.511062e+06
   4.539687e+06  -7.976550e+05
   3.714653e+06   5.034291e+06
  -7.095258e+05   6.757239e+06
  -4.766647e+06   3.583463e+06
  -5.186389e+06  -9.902187e+05
  -2.556249e+06  -3.312560e+06
  -1.316604e+05  -2.866927e+06
  -2.016427e+05  -1.835771e+06
  -1.897483e+06  -2.221455e+06
  -2.245447e+06  -3.736298e+06
   6.313835e+05  -4.339673e+06
   5.065149e+06  -2.591046e+06
   6.942211e+06   6.702544e+05
   3.995802e+06   3.024578e+06
  -1.211823e+06   2.767885e+06
  -3.654342e+06   4.377343e+05
  -1.345235e+06  -1.777740e+06
   2.610370e+06  -1.919020e+06
   3.903145e+06   2.245348e+05
   1.802866e+06   2.903243e+06
  -8.699855e+05   3.694301e+06
  -1.609865e+06   1.713321e+06
  -6.199790e+05  -1.119220e+06
   3.850930e+05  -1.717143e+06
   3.061893e+05   6.377978e+05
  -7.526372e+05   3.030951e+06
  -1.918356e+06   2.193217e+06
  -1.997779e+06  -1.287467e+06
  -3.383711e+05  -3.367655e+06
   2.014411e+06  -1.438487e+06
   2.635062e+06   2.436168e+06
   1.826428e+05   3.993670e+06
  -3.558510e+06   1.647897e+06
  -4.991804e+06  -2.148042e+06
  -2.413681e+06  -3.968196e+06
   2.019897e+06  -2.727123e+06
   4.372609e+06   9.116197e+03
   2.820711e+06   1.932935e+06
  -7.210873e+05   1.825822e+06
  -2.741789e+06   2.279111e+05
  -1.680203e+06  -1.142288e+06
   7.357908e+05  -9.394995e+05
   1.606202e+06   4.634267e+05
   9.491357e+04   1.363507e+06
  -1.744159e+06   6.425513e+05
  -1.444387e+06  -9.714769e+05
   9.402705e+05  -1.734762e+06
   2.823513e+06  -6.884676e+05
   1.956135e+06   1.530237e+06
  -1.156216e+06   3.289353e+06
  -3.895956e+06   3.123695e+06
  -4.241410e+06   7.798633e+05
  -2.483701e+06  -2.360961e+06
  -4.360938e+05  -4.171118e+06
   5.630912e+05  -3.682989e+06
   6.708956e+05  -2.039192e+06
   8.704473e+05  -1.056909e+06
   1.668376e+06  -1.002519e+06
   2.540914e+06  -5.213480e+05
   2.509685e+06   1.135849e+06
   1.154690e+06   2.694946e+06
  -8.634170e+05   2.296508e+06
  -2.180888e+06  -9.004853e+04
  -1.742225e+06  -2.417057e+06
   2.701490e+05  -2.695494e+06
   2.388978e+06  -8.855092e+05
   2.980541e+06   1.381911e+06
   1.713311e+06   2.517887e+06
  -1.226911e+05   2.226494e+06
  -1.010586e+06   1.373663e+06
  -8.894127e+05   9.306170e+05
  -1.077820e+06   1.022412e+06
  -2.381461e+06   8.862768e+05
  -3.715319e+06  -2.384994e+05
  -3.148818e+06  -2.150462e+06
  -2.884595e+05  -3.647265e+06
   2.892654e+06  -3.507511e+06
   3.902061e+06  -1.604150e+06
   2.218716e+06   8.377085e+05
  -2.948942e+05   2.116102e+06
  -1.361552e+06   1.460267e+06
  -4.318608e+05  -2.086795e+05
   1.104335e+06  -1.083789e+06
   1.555262e+06  -3.328604e+05
   5.906770e+05   9.465694e+05
  -6.231359e+05   1.012388e+06
  -7.291000e+05  -3.038093e+05
   4.557824e+05  -1.209543e+06
   1.767294e+06  -9.390612e+04
   1.764409e+06   2.353351e+06
   3.335797e+04   3.713878e+06
  -2.373001e+06   2.462429e+06
  -3.709455e+06  -4.421389e+05
  -2.946698e+06  -2.660619e+06
  -6.922446e+05  -2.787520e+06
   1.260429e+06  -1.396199e+06
   1.531459e+06  -1.079202e+05
   4.509462e+05   3.416038e+04
  -3.568189e+05  -6.626197e+05
   2.037995e+05  -1.096517e+06
   1.454076e+06  -5.712381e+05
   1.758985e+06   5.092817e+05
   5.227559e+05   1.098495e+06
  -9.875334e+05   6.296478e+05
  -1.019753e+06  -3.769735e+05
   6.376277e+05  -8.347771e+05
   2.302318e+06  -1.513056e+05
   2.132412e+06   1.220143e+06
   5.648417e+04   2.164661e+06
  -2.138439e+06   1.833617e+06
  -2.587266e+06   3.962325e+05
  -1.122375e+06  -1.001482e+06
   6.951929e+05  -1.200837e+06
   1.181811e+06  -1.785724e+05
   9.528575e+04   8.438515e+05
  -1.309556e+06   6.645825e+05
  -1.612479e+06  -5.588501e+05
  -5.592216e+05  -1.486849e+06
   8.120460e+05  -1.143664e+06
   1.237605e+06  -2.160196e+03
   4.434627e+05   6.346365e+05
  -6.005661e+05   1.215607e+05
  -6.429058e+05  -8.992031e+05
   5.431988e+05  -1.264237e+06
   1.827926e+06  -4.602427e+05
   1.831870e+06   9.455075e+05
   3.972227e+05   1.843956e+06
  -1.191199e+06   1.533411e+06
  -1.540665e+06   3.199827e+05
  -5.712218e+05  -7.402891e+05
   5.366681e+05  -8.106684e+05
   6.967236e+05  -6.539651e+04
  -1.262692e+04   5.560254e+05
  -6.343632e+05   4.141842e+05
  -4.610791e+05  -1.426715e+05
   2.536687e+05  -2.596270e+05
   6.156580e+05   3.616845e+05
   2.208263e+04   1.060534e+06
  -1.178064e+06   9.077803e+05
  -1.913614e+06  -2.921654e+05
  -1.374820e+06  -1.726757e+06
   1.503720e+05  -2.272776e+06
   1.492150e+06  -1.495787e+06
   1.730887e+06  -3.757226e+04
   1.045985e+06   9.756046e+05
   3.562407e+05   9.718230e+05
   2.307346e+05   4.064704e+05
   3.556275e+05   1.679068e+05
   7.988367e+04   5.429551e+05
  -7.101618e+05   8.982072e+05
  -1.380119e+06   4.582882e+05
  -1.154740e+06  -6.954822e+05
   9.548637e+04  -1.556292e+06
   1.592283e+06  -1.171083e+06
   2.166337e+06   3.566883e+05
   1.214661e+06   1.876296e+06
  -6.900803e+05   2.202569e+06
  -2.189015e+06   1.152405e+06
  -2.288409e+06  -3.604148e+05
  -1.188598e+06  -1.222684e+06
   3.653377e+04  -1.122445e+06
   5.293137e+05  -6.827330e+05
   3.554833e+05  -6.446890e+05
   2.007631e+05  -1.007062e+06
   5.261113e+05  -1.064242e+06
   1.084581e+06  -2.826400e+05
   1.207969e+06   9.831567e+05
   5.263607e+05   1.744856e+06
  -5.713961e+05   1.335901e+06
  -1.208410e+06   6.280612e+04
  -8.373790e+05  -1.079956e+06
   1.823998e+05  -1.291832e+06
   9.073472e+05  -5.861539e+05
   7.633725e+05   3.566237e+05
   1.063289e+05   8.593519e+05
  -2.468878e+05   7.833641e+05
   1.782701e+04   4.874480e+05
   3.583012e+05   3.487000e+05
   3.260757e+04   3.711045e+05
  -9.751654e+05   2.549905e+05
  -1.797952e+06  -2.048324e+05
  -1.516836e+06  -8.403816e+05
  -1.475586e+05  -1.225567e+06
   1.267308e+06  -1.049633e+06
   1.629720e+06  -4.048309e+05
   8.479958e+05   2.503095e+05
  -1.449895e+05   4.463326e+05
  -4.257960e+05   1.245120e+05
   1.284904e+04  -2.677823e+05
   4.627151e+05  -2.067487e+05
   4.268550e+05   3.088392e+05
   1.014274e+05   6.911197e+05
  -3.662060e+04   4.387975e+05
   1.493451e+05  -1.862344e+05
   3.714025e+05  -3.871054e+05
   2.870782e+05   1.954116e+05
  -1.862468e+05   9.555076e+05
  -8.010513e+05   9.742155e+05
  -1.080227e+06   1.066632e+05
  -6.367743e+05  -8.203612e+05
   3.522657e+05  -9.270752e+05
   1.048513e+06  -2.053535e+05
   6.614762e+05   5.606634e+05
  -6.036567e+05   6.441749e+05
  -1.541824e+06   1.424686e+04
  -1.138937e+06  -7.601232e+05
   3.024247e+05  -1.055248e+06
   1.437082e+06  -6.674490e+05
   1.285095e+06   6.134158e+04
   2.041417e+05   5.150541e+05
  -5.875909e+05   3.310040e+05
  -3.208092e+05  -2.180529e+05
   5.936399e+05  -4.205092e+05
   1.076517e+06   1.597168e+05
   5.094624e+05   1.129226e+06
  -6.684540e+05   1.523640e+06
  -1.431830e+06   7.421797e+05
  -1.168182e+06  -7.436580e+05
  -1.877858e+05  -1.702930e+06
   6.875458e+05  -1.294013e+06
   9.037493e+05   7.057096e+04
   5.111440e+05   1.109572e+06
  -8.592943e+04   9.888303e+05
  -4.971230e+05   1.385108e+05
  -5.237410e+05  -3.763528e+05
  -2.443555e+05  -1.660258e+05
  -1.206249e+04   1.224685e+05
  -1.408555e+05  -1.968224e+05
  -4.436191e+05  -8.685331e+05
  -3.016181e+05  -1.042869e+06
   5.412617e+05  -4.134202e+05
   1.409470e+06   4.245943e+05
   1.317327e+06   7.815995e+05
   1.971984e+05   6.330242e+05
  -8.861822e+05   3.831231e+05
  -9.599742e+05   2.133209e+05
  -2.686611e+05   1.636198e+04
   1.686913e+05  -1.998537e+05
  -6.904489e+04  -2.572889e+05
  -3.555006e+05  -1.593694e+05
  -3.629319e+03  -1.266062e+05
   7.339930e+05  -1.688571e+05
   9.610053e+05   3.870836e+04
   2.449409e+05   6.091738e+05
  -8.815290e+05   1.024753e+06
  -1.501588e+06   6.375847e+05
  -1.174942e+06  -4.477522e+05
  -2.141679e+05  -1.327314e+06
   6.798906e+05  -1.252564e+06
   9.685540e+05  -4.299426e+05
   6.216319e+05   2.786481e+05
   7.850638e+04   3.273784e+05
  -1.529445e+05  -1.241106e+04
   4.854619e+04  -9.334227e+04
   3.354490e+05   3.153553e+05
   2.758718e+05   7.582277e+05
  -1.859350e+05   6.086439e+05
  -6.488922e+05  -1.866983e+05
  -6.189660e+05  -9.509424e+05
   6.588718e+03  -9.379912e+05
   7.540905e+05  -1.244294e+05
   9.210843e+05   7.615909e+05
   2.575814e+05   1.003283e+06
  -6.737391e+05   5.539056e+05
  -9.892242e+05  -9.448973e+04
  -4.447094e+05  -4.957993e+05
   2.510221e+05  -5.405805e+05
   2.685520e+05  -3.299788e+05
  -3.177095e+05  -5.405841e+04
  -6.279854e+05   1.852205e+04
  -1.067236e+05  -2.661302e+05
   7.715833e+05  -6.449816e+05
   1.104124e+06  -5.799423e+05
   6.275607e+05   8.440770e+04
  -9.492292e+04   7.730757e+05
  -4.320321e+05   7.689053e+05
  -2.991545e+05   9.458243e+04
   2.909293e+03  -4.787677e+05
   2.354276e+05  -3.542563e+05
   3.240659e+05   2.189499e+05
   2.223787e+05   5.402460e+05
  -6.376418e+04   3.215872e+05
  -3.567473e+05  -7.770729e+04
  -4.203730e+05  -2.029049e+05
  -2.304719e+05  -3.965226e+04
  -2.252060e+03   7.188636e+04
   9.020529e+04  -9.110694e+04
   1.081095e+05  -3.690664e+05
   1.978495e+05  -4.056680e+05
   3.325616e+05  -4.908727e+04
   3.073148e+05   4.392754e+05
  -1.299670e+03   6.007357e+05
  -4.181307e+05   2.467973e+05
  -5.576308e+05  -3.106382e+05
  -1.890105e+05  -5.631508e+05
   4.483806e+05  -3.291998e+05
   7.695510e+05   1.049123e+05
   4.202796e+05   3.529783e+05
  -2.684824e+05   3.108361e+05
  -5.659707e+05   1.376896e+05
  -1.684657e+05   1.011431e+04
   4.041417e+05   1.286259e+04
   4.040725e+05   1.553482e+05
  -2.364214e+05   3.163191e+05
  -8.121519e+05   2.328772e+05
