
 $NMID
 id='ANONYMOUS ', fmtdat='(2E16.6)'
 volume=1.0
 tramp=1.0
 $END
  -3.041357e+07   2.160735e+05
  -1.975102e+07  -1.567557e+07
   1.226585e+06  -1.971565e+07
   1.364004e+07  -1.126925e+07
   1.033492e+07   3.199218e+05
  -8.398882e+04   5.335937e+06
  -5.875203e+06   1.686591e+06
  -3.674118e+06  -4.978808e+06
   1.987762e+06  -7.324981e+06
   5.525670e+06  -2.937003e+06
   4.614199e+06   3.720439e+06
   6.265898e+05   5.842591e+06
  -2.696148e+06   1.413969e+06
  -2.120105e+06  -4.528680e+06
   1.808791e+06  -5.400188e+06
   4.844193e+06  -2.095567e+05
   3.413699e+06   5.820413e+06
  -1.528740e+06   7.236352e+06
  -5.695049e+06   3.539941e+06
  -5.935944e+06  -1.511477e+06
  -2.901732e+06  -4.201665e+06
   1.622208e+05  -3.803092e+06
   6.030552e+05  -2.285001e+06
  -1.203484e+06  -1.989840e+06
  -2.122787e+06  -3.304998e+06
   4.460633e+05  -4.276131e+06
   5.122134e+06  -2.824301e+06
   7.319090e+06   6.260582e+05
   4.346341e+06   3.335822e+06
  -1.088935e+06   3.189737e+06
  -3.726137e+06   7.886689e+05
  -1.629496e+06  -1.512225e+06
   2.145994e+06  -1.856047e+06
   3.594319e+06  -2.107628e+04
   1.936263e+06   2.614089e+06
  -5.949117e+05   3.758999e+06
  -1.745535e+06   2.022897e+06
  -1.112841e+06  -1.100062e+06
   1.529108e+05  -2.140983e+06
   5.532136e+05   2.279364e+05
  -5.060131e+05   2.944039e+06
  -1.967048e+06   2.131181e+06
  -1.901613e+06  -1.600839e+06
   3.084669e+05  -3.563356e+06
   2.757516e+06  -1.005927e+06
   2.690409e+06   3.290291e+06
  -4.674752e+05   4.515681e+06
  -4.170241e+06   1.485607e+06
  -5.055169e+06  -2.603296e+06
  -2.135066e+06  -4.178229e+06
   2.209224e+06  -2.569561e+06
   4.319387e+06   3.109959e+05
   2.590930e+06   2.114350e+06
  -1.007582e+06   1.732822e+06
  -2.898366e+06  -8.331721e+04
  -1.582844e+06  -1.393042e+06
   9.096015e+05  -9.248785e+05
   1.555303e+06   5.520548e+05
  -1.094690e+05   1.162643e+06
  -1.663125e+06   1.844535e+05
  -9.047876e+05  -1.216972e+06
   1.539161e+06  -1.476580e+06
   3.032303e+06  -1.727500e+05
   1.810819e+06   1.922303e+06
  -1.363656e+06   3.503889e+06
  -4.103212e+06   3.274825e+06
  -4.535675e+06   8.016750e+05
  -2.729528e+06  -2.577144e+06
  -3.856063e+05  -4.444819e+06
   8.312581e+05  -3.695597e+06
   7.772425e+05  -1.785867e+06
   6.424873e+05  -8.662403e+05
   1.345709e+06  -1.096174e+06
   2.414668e+06  -7.908020e+05
   2.602102e+06   8.969203e+05
   1.333392e+06   2.566154e+06
  -6.812289e+05   2.284256e+06
  -2.049779e+06   8.546743e+03
  -1.722571e+06  -2.300248e+06
   2.290968e+05  -2.696625e+06
   2.450559e+06  -9.743642e+05
   3.180625e+06   1.414317e+06
   1.849199e+06   2.768313e+06
  -2.361284e+05   2.517753e+06
  -1.287543e+06   1.484538e+06
  -1.106109e+06   8.560450e+05
  -1.155561e+06   8.947710e+05
  -2.394860e+06   7.658910e+05
  -3.706876e+06  -3.567542e+05
  -3.100247e+06  -2.224689e+06
  -2.297060e+05  -3.638898e+06
   2.904394e+06  -3.482977e+06
   3.897314e+06  -1.645638e+06
   2.275283e+06   7.757919e+05
  -1.970110e+05   2.130978e+06
  -1.318544e+06   1.529404e+06
  -4.569492e+05  -1.835357e+05
   1.092090e+06  -1.101945e+06
   1.585695e+06  -3.152806e+05
   6.177877e+05   9.919528e+05
  -5.975482e+05   1.016297e+06
  -6.573763e+05  -2.903260e+05
   5.123732e+05  -1.056214e+06
   1.650110e+06   1.448100e+05
   1.464200e+06   2.415026e+06
  -2.148009e+05   3.472015e+06
  -2.355301e+06   2.133159e+06
  -3.494507e+06  -5.683794e+05
  -2.767827e+06  -2.569754e+06
  -6.538459e+05  -2.680795e+06
   1.232888e+06  -1.381751e+06
   1.515187e+06  -1.253713e+05
   4.478275e+05   3.759971e+04
  -3.442520e+05  -6.637060e+05
   2.510113e+05  -1.101119e+06
   1.501037e+06  -5.309512e+05
   1.743461e+06   5.802985e+05
   4.672290e+05   1.119769e+06
  -9.938399e+05   5.946092e+05
  -9.708064e+05  -3.724261e+05
   6.378656e+05  -7.492809e+05
   2.200046e+06  -7.844197e+04
   2.012821e+06   1.188092e+06
   1.911243e+04   2.064337e+06
  -2.107739e+06   1.755154e+06
  -2.555903e+06   3.572659e+05
  -1.098013e+06  -1.031103e+06
   7.387636e+05  -1.212913e+06
   1.222884e+06  -1.518463e+05
   9.603729e+04   8.744288e+05
  -1.322292e+06   6.503668e+05
  -1.582079e+06  -5.912208e+05
  -4.990843e+05  -1.468039e+06
   8.305071e+05  -1.071749e+06
   1.192752e+06   5.259694e+04
   3.898343e+05   6.324398e+05
  -6.175709e+05   9.415057e+04
  -6.362736e+05  -9.133586e+05
   5.472013e+05  -1.264491e+06
   1.826552e+06  -4.550560e+05
   1.823316e+06   9.558428e+05
   3.728602e+05   1.844298e+06
  -1.215422e+06   1.504476e+06
  -1.532539e+06   2.829553e+05
  -5.388250e+05  -7.415571e+05
   5.453125e+05  -7.842821e+05
   6.716508e+05  -7.120787e+04
  -1.656240e+04   5.027432e+05
  -5.811034e+05   3.804226e+05
  -3.978390e+05  -1.017189e+05
   2.583202e+05  -1.819792e+05
   5.642354e+05   4.006347e+05
  -2.588155e+04   1.044289e+06
  -1.187033e+06   8.738293e+05
  -1.894831e+06  -3.165755e+05
  -1.349072e+06  -1.733008e+06
   1.659293e+05  -2.246602e+06
   1.474191e+06  -1.443147e+06
   1.675466e+06  -1.353839e+04
   9.978874e+05   9.261217e+05
   3.660379e+05   8.917758e+05
   2.830659e+05   3.821114e+05
   3.858568e+05   2.085720e+05
   6.542104e+04   5.711082e+05
  -7.231776e+05   8.691642e+05
  -1.352909e+06   4.225128e+05
  -1.111180e+06  -6.762712e+05
   1.114080e+05  -1.495706e+06
   1.572809e+06  -1.122344e+06
   2.126666e+06   3.739915e+05
   1.161707e+06   1.868659e+06
  -7.402290e+05   2.163261e+06
  -2.194870e+06   1.084906e+06
  -2.230394e+06  -4.065562e+05
  -1.116004e+06  -1.199006e+06
   5.142813e+04  -1.055564e+06
   4.801262e+05  -6.486695e+05
   3.057659e+05  -6.704951e+05
   1.990186e+05  -1.045971e+06
   5.547069e+05  -1.071974e+06
   1.100756e+06  -2.699489e+05
   1.200174e+06   9.868491e+05
   5.128951e+05   1.735869e+06
  -5.732873e+05   1.323023e+06
  -1.191852e+06   4.639273e+04
  -8.025008e+05  -1.090077e+06
   2.207539e+05  -1.268484e+06
   9.196033e+05  -5.250458e+05
   7.320322e+05   4.116182e+05
   4.941494e+04   8.630047e+05
  -2.916779e+05   7.463657e+05
   5.072701e+03   4.570756e+05
   3.656654e+05   3.437075e+05
   3.663072e+04   3.673346e+05
  -9.817653e+05   2.309675e+05
  -1.798442e+06  -2.389387e+05
  -1.490098e+06  -8.621238e+05
  -9.853693e+04  -1.223488e+06
   1.302585e+06  -1.022880e+06
   1.621415e+06  -3.619502e+05
   8.104636e+05   2.860598e+05
  -1.706047e+05   4.507681e+05
  -4.254104e+05   1.002880e+05
   1.516635e+04  -2.926902e+05
   4.525845e+05  -2.140156e+05
   4.259160e+05   3.112682e+05
   1.258690e+05   6.928773e+05
  -1.388466e+04   4.463592e+05
   1.370491e+05  -1.669509e+05
   3.393408e+05  -3.691559e+05
   2.766947e+05   1.965438e+05
  -1.743633e+05   9.444879e+05
  -8.064618e+05   9.648458e+05
  -1.113242e+06   9.889416e+04
  -6.574487e+05  -8.342077e+05
   3.695151e+05  -9.423031e+05
   1.073477e+06  -2.123569e+05
   6.609929e+05   5.546987e+05
  -6.077060e+05   6.253165e+05
  -1.509268e+06  -6.419819e+03
  -1.084139e+06  -7.507140e+05
   3.223197e+05  -1.007830e+06
   1.402420e+06  -6.168246e+05
   1.238543e+06   7.747624e+04
   1.879578e+05   4.982798e+05
  -5.812386e+05   3.091191e+05
  -3.206523e+05  -2.314991e+05
   5.858085e+05  -4.326844e+05
   1.079778e+06   1.465646e+05
   5.282838e+05   1.125468e+06
  -6.483360e+05   1.532640e+06
  -1.419672e+06   7.537059e+05
  -1.160958e+06  -7.336528e+05
  -1.846527e+05  -1.683993e+06
   6.794879e+05  -1.264209e+06
   8.807267e+05   8.862074e+04
   4.815069e+05   1.094205e+06
  -1.058288e+05   9.538690e+05
  -4.945236e+05   1.214092e+05
  -5.021650e+05  -3.627149e+05
  -2.259497e+05  -1.501346e+05
  -1.653384e+04   1.117898e+05
  -1.579981e+05  -2.218879e+05
  -4.419354e+05  -8.725748e+05
  -2.736165e+05  -1.017982e+06
   5.609056e+05  -3.891923e+05
   1.389897e+06   4.242324e+05
   1.279460e+06   7.688400e+05
   1.873767e+05   6.306973e+05
  -8.619862e+05   3.872018e+05
  -9.408629e+05   2.035621e+05
  -2.757868e+05  -4.067308e+03
   1.617372e+05  -2.029562e+05
  -5.139823e+04  -2.329242e+05
  -3.350836e+05  -1.346947e+05
  -1.296165e+04  -1.288208e+05
   7.080213e+05  -1.869031e+05
   9.597333e+05   3.560229e+04
   2.735096e+05   6.264979e+05
  -8.623847e+05   1.039875e+06
  -1.516225e+06   6.380024e+05
  -1.200617e+06  -4.486679e+05
  -2.208039e+05  -1.318464e+06
   6.879000e+05  -1.246227e+06
   9.709448e+05  -4.402014e+05
   6.197249e+05   2.632631e+05
   8.704915e+04   3.306873e+05
  -1.387413e+05   1.127054e+04
   4.787578e+04  -7.303972e+04
   3.178948e+05   3.152985e+05
   2.627796e+05   7.486780e+05
  -1.836398e+05   6.112646e+05
  -6.473598e+05  -1.687160e+05
  -6.344812e+05  -9.370246e+05
  -1.592573e+04  -9.467425e+05
   7.464584e+05  -1.511496e+05
   9.314278e+05   7.410723e+05
   2.687023e+05   1.005513e+06
  -6.746177e+05   5.677664e+05
  -9.968485e+05  -9.415166e+04
  -4.462252e+05  -5.146451e+05
   2.617414e+05  -5.561583e+05
   2.878350e+05  -3.230778e+05
  -2.994381e+05  -3.623671e+04
  -6.202279e+05   2.359927e+04
  -1.107203e+05  -2.719012e+05
   7.658733e+05  -6.369044e+05
   1.107106e+06  -5.508501e+05
   6.354039e+05   1.105318e+05
  -9.741775e+04   7.768257e+05
  -4.518335e+05   7.628030e+05
  -3.247000e+05   9.817815e+04
  -1.151753e+04  -4.727238e+05
   2.358837e+05  -3.646607e+05
   3.296697e+05   1.992760e+05
   2.237959e+05   5.377421e+05
  -6.694412e+04   3.385050e+05
  -3.592277e+05  -6.988647e+04
  -4.176504e+05  -2.177447e+05
  -2.235416e+05  -5.099721e+04
  -2.089551e+02   9.023521e+04
   7.533020e+04  -6.086463e+04
   7.657274e+04  -3.675810e+05
   1.708918e+05  -4.409046e+05
   3.355517e+05  -8.762704e+04
   3.403271e+05   4.270092e+05
   3.239336e+04   6.102972e+05
  -4.108711e+05   2.589347e+05
  -5.725813e+05  -3.027369e+05
  -2.009235e+05  -5.571164e+05
   4.526442e+05  -3.272076e+05
   7.800449e+05   1.014691e+05
   4.235167e+05   3.531873e+05
  -2.737340e+05   3.228248e+05
  -5.760052e+05   1.513866e+05
  -1.833831e+05   5.900427e+03
   3.888996e+05  -1.206293e+04
   4.039599e+05   1.298669e+05
  -2.123801e+05   3.103633e+05
  -7.805974e+05   2.458299e+05
