
 $NMID
 id='ANONYMOUS ', fmtdat='(2E16.6)'
 volume=1.0
 tramp=1.0
 $END
   5.462811e+07   4.577007e+05
   3.231587e+07   3.460906e+07
  -7.989426e+06   3.702723e+07
  -2.704302e+07   1.340572e+07
  -1.563779e+07  -7.495535e+06
   3.581364e+06  -8.938944e+06
   9.407955e+06   1.672609e+06
   2.235629e+06   9.532514e+06
  -6.307724e+06   8.601246e+06
  -9.301521e+06   1.540873e+06
  -6.581426e+06  -5.992165e+06
  -6.971842e+05  -8.126142e+06
   3.792642e+06  -2.632203e+06
   2.392589e+06   5.025028e+06
  -3.730085e+06   6.001653e+06
  -7.515559e+06  -1.507425e+06
  -4.067507e+06  -9.861994e+06
   3.817942e+06  -1.125765e+07
   9.779911e+06  -5.605250e+06
   1.044645e+07   1.980834e+06
   6.490064e+06   7.273248e+06
   7.034421e+05   8.539739e+06
  -3.033620e+06   6.008177e+06
  -2.181427e+06   2.488118e+06
   8.243715e+05   1.722053e+06
   3.373590e+05   3.716106e+06
  -4.894661e+06   4.170658e+06
  -9.024749e+06   5.817940e+05
  -6.712924e+06  -3.863339e+06
  -4.091580e+05  -4.839003e+06
   3.344358e+06  -2.574184e+06
   2.361656e+06  -2.498493e+05
  -2.791965e+05   6.954963e+05
  -1.817940e+06   5.249118e+05
  -2.009298e+06  -1.076499e+06
  -8.302006e+05  -3.537907e+06
   1.632831e+06  -3.737957e+06
   3.240195e+06  -5.212108e+04
   1.814073e+06   3.512809e+06
  -7.534809e+05   2.075100e+06
  -4.468334e+05  -2.121853e+06
   2.284751e+06  -2.078633e+06
   2.249892e+06   3.129561e+06
  -2.566044e+06   5.883186e+06
  -6.910855e+06   8.519805e+05
  -4.926143e+06  -6.833500e+06
   2.008950e+06  -8.274414e+06
   7.195232e+06  -2.267313e+06
   6.501193e+06   4.324453e+06
   1.567213e+06   5.705456e+06
  -3.331334e+06   2.422201e+06
  -4.843263e+06  -1.597185e+06
  -2.110701e+06  -3.350779e+06
   2.411846e+06  -2.011090e+06
   4.304339e+06   1.001512e+06
   1.774034e+06   2.660839e+06
  -1.683323e+06   1.280240e+06
  -1.575322e+06  -1.007952e+06
   1.390110e+06  -7.654401e+05
   2.329285e+06   1.905947e+06
  -8.331808e+05   3.431938e+06
  -4.657314e+06   1.735130e+06
  -5.097591e+06  -1.495144e+06
  -2.129042e+06  -3.903383e+06
   1.709815e+06  -4.990768e+06
   4.651322e+06  -4.571435e+06
   5.825301e+06  -1.689628e+06
   4.390459e+06   2.946550e+06
   9.038687e+05   5.811620e+06
  -1.858045e+06   4.428969e+06
  -1.735158e+06   9.867108e+05
  -5.414795e+04  -4.024061e+05
   2.480912e+05   8.756101e+05
  -1.324915e+06   1.772838e+06
  -2.574025e+06   3.885724e+05
  -1.932535e+06  -1.646169e+06
  -1.276967e+05  -1.911283e+06
   1.321008e+06  -2.109911e+05
   1.494730e+06   1.840422e+06
   2.604270e+04   2.679272e+06
  -2.548251e+06   1.584292e+06
  -4.222646e+06  -1.055476e+06
  -3.097480e+06  -3.552874e+06
   2.270070e+04  -4.073318e+06
   2.217959e+06  -2.628941e+06
   2.192077e+06  -1.056343e+06
   1.760371e+06  -5.710258e+05
   2.740889e+06  -3.710838e+05
   4.019175e+06   7.726905e+05
   3.190130e+06   2.598770e+06
   7.861284e+04   3.803208e+06
  -2.962573e+06   3.572275e+06
  -3.821948e+06   1.971822e+06
  -2.458651e+06  -3.360571e+05
  -3.161208e+05  -2.038108e+06
   9.673780e+05  -1.806121e+06
   5.252838e+05   1.449064e+04
  -9.926965e+05   1.211560e+06
  -1.780310e+06   3.583147e+05
  -8.740616e+05  -1.132725e+06
   4.640386e+05  -1.016486e+06
   3.443078e+05   3.764145e+05
  -1.066625e+06   5.599116e+05
  -1.704526e+06  -1.374971e+06
  -4.161027e+05  -3.333987e+06
   1.697858e+06  -3.050025e+06
   2.972875e+06  -8.018744e+05
   2.936609e+06   1.474670e+06
   1.944658e+06   2.533030e+06
   3.578982e+05   2.343449e+06
  -1.128530e+06   1.329449e+06
  -1.435963e+06   2.149792e+05
  -4.519870e+05  -4.585699e+04
   3.207086e+05   7.005881e+05
  -4.166993e+05   1.255663e+06
  -1.807785e+06   5.163716e+05
  -1.885944e+06  -8.801253e+05
  -3.167535e+05  -1.342876e+06
   1.103544e+06  -5.009307e+05
   7.856167e+05   4.395007e+05
  -8.148648e+05   4.224587e+05
  -1.966477e+06  -3.826770e+05
  -1.513602e+06  -1.271790e+06
   2.923313e+05  -1.760181e+06
   2.137055e+06  -1.457122e+06
   2.549991e+06  -2.094697e+05
   1.112004e+06   1.199689e+06
  -8.797798e+05   1.407452e+06
  -1.478913e+06   1.651198e+05
  -1.928123e+05  -1.021535e+06
   1.418094e+06  -6.717185e+05
   1.574571e+06   7.608687e+05
   2.554519e+05   1.534207e+06
  -1.051454e+06   8.510501e+05
  -1.146391e+06  -3.508078e+05
  -1.811670e+05  -7.426199e+05
   7.637345e+05  -3.487645e+04
   6.835535e+05   9.906491e+05
  -5.360213e+05   1.322167e+06
  -1.859327e+06   4.988503e+05
  -1.880202e+06  -9.826346e+05
  -3.348070e+05  -1.927703e+06
   1.361957e+06  -1.503020e+06
   1.601521e+06  -1.590860e+05
   4.352117e+05   8.173530e+05
  -6.290957e+05   7.233000e+05
  -5.648640e+05   6.242242e+04
   1.339576e+05  -2.967039e+05
   4.282024e+05  -1.486003e+05
   5.182462e+04   5.285823e+04
  -4.453909e+05  -1.269839e+05
  -4.539161e+05  -6.682671e+05
   2.327093e+05  -1.102189e+06
   1.296794e+06  -8.055269e+05
   1.919332e+06   4.082032e+05
   1.337188e+06   1.810842e+06
  -2.219800e+05   2.222069e+06
  -1.497707e+06   1.255729e+06
  -1.525022e+06  -1.565299e+05
  -7.341933e+05  -8.056183e+05
  -2.702758e+05  -5.335736e+05
  -4.733472e+05  -1.625681e+05
  -6.196210e+05  -3.089721e+05
  -8.554605e+04  -7.329149e+05
   8.282588e+05  -8.153002e+05
   1.328996e+06  -2.645556e+05
   9.294730e+05   6.655380e+05
  -2.641021e+05   1.306468e+06
  -1.592865e+06   9.471384e+05
  -2.052923e+06  -4.739331e+05
  -1.003171e+06  -1.955371e+06
   9.886674e+05  -2.175096e+06
   2.380676e+06  -9.012396e+05
   2.143121e+06   6.693013e+05
   8.148896e+05   1.246153e+06
  -2.284827e+05   8.255562e+05
  -3.327591e+05   4.250408e+05
  -2.163008e+04   6.975430e+05
  -7.827861e+04   1.238058e+06
  -6.388852e+05   1.208016e+06
  -1.213309e+06   2.913197e+05
  -1.232280e+06  -1.003277e+06
  -5.016814e+05  -1.748480e+06
   5.803729e+05  -1.318978e+06
   1.181515e+06   2.160960e+04
   7.271393e+05   1.208152e+06
  -4.008754e+05   1.286598e+06
  -1.108964e+06   3.301546e+05
  -7.466767e+05  -7.015890e+05
   1.582342e+05  -1.020124e+06
   5.473740e+05  -7.111006e+05
   1.015933e+05  -3.642022e+05
  -4.053155e+05  -3.012734e+05
  -5.873907e+04  -3.487155e+05
   1.076017e+06  -1.791997e+05
   1.921839e+06   3.311017e+05
   1.483096e+06   9.849338e+05
  -7.520350e+04   1.345788e+06
  -1.508390e+06   1.049234e+06
  -1.703268e+06   2.189263e+05
  -7.542374e+05  -5.022711e+05
   2.599598e+05  -5.410190e+05
   4.825775e+05  -1.146491e+04
   3.882014e+04   4.107455e+05
  -3.952892e+05   2.417063e+05
  -4.458520e+05  -3.164088e+05
  -2.595257e+05  -6.571772e+05
  -1.141169e+05  -4.388828e+05
  -1.236513e+05   6.548117e+04
  -2.365774e+05   2.415614e+05
  -2.479355e+05  -2.186763e+05
   1.197277e+05  -8.973174e+05
   8.363123e+05  -9.842885e+05
   1.293275e+06  -1.766709e+05
   8.179560e+05   8.450703e+05
  -3.876653e+05   1.077868e+06
  -1.181331e+06   3.363706e+05
  -6.777146e+05  -5.206385e+05
   6.591676e+05  -5.859886e+05
   1.447063e+06   1.180620e+05
   8.757235e+05   8.113797e+05
  -4.858023e+05   8.797220e+05
  -1.374738e+06   3.819992e+05
  -1.103365e+06  -2.105349e+05
  -1.017652e+05  -4.665039e+05
   6.048762e+05  -2.264989e+05
   3.639965e+05   2.846253e+05
  -5.244735e+05   4.961789e+05
  -1.093198e+06  -5.155715e+04
  -6.482938e+05  -1.075463e+06
   5.071025e+05  -1.580699e+06
   1.348308e+06  -8.379697e+05
   1.156124e+06   6.849780e+05
   1.875786e+05   1.639496e+06
  -6.842076e+05   1.167470e+06
  -8.433504e+05  -1.901183e+05
  -3.662621e+05  -1.101462e+06
   2.396374e+05  -8.718391e+05
   5.279409e+05  -6.109510e+04
   4.023454e+05   3.433632e+05
   1.218659e+05   1.186151e+05
   5.604572e+04  -7.858158e+04
   2.972187e+05   2.915582e+05
   4.809694e+05   8.983181e+05
   1.370668e+05   9.858874e+05
  -6.980733e+05   3.546832e+05
  -1.348417e+06  -4.302636e+05
  -1.140999e+06  -7.726590e+05
  -1.645579e+05  -6.496777e+05
   7.550621e+05  -3.874741e+05
   8.939065e+05  -1.543316e+05
   3.572755e+05   6.717248e+04
  -1.221379e+05   2.103225e+05
  -6.924694e+04   1.702773e+05
   2.050751e+05   6.577887e+04
   6.257845e+04   1.203647e+05
  -5.661425e+05   2.342077e+05
  -9.693801e+05   5.005295e+03
  -4.601879e+05  -6.427287e+05
   7.321923e+05  -1.112601e+06
   1.590093e+06  -7.342791e+05
   1.352837e+06   3.671048e+05
   2.769828e+05   1.286971e+06
  -7.107222e+05   1.285625e+06
  -9.653703e+05   5.304091e+05
  -5.997686e+05  -1.871169e+05
  -1.436683e+05  -3.306036e+05
   2.839881e+04  -8.647706e+04
  -8.829297e+04  -1.237179e+04
  -2.595519e+05  -3.502366e+05
  -2.153497e+05  -7.443856e+05
   1.525803e+05  -6.366717e+05
   6.208201e+05   7.790770e+04
   7.141131e+05   8.431801e+05
   1.623117e+05   9.546004e+05
  -6.661375e+05   2.760691e+05
  -9.743301e+05  -6.163037e+05
  -3.593633e+05  -1.003464e+06
   6.440320e+05  -6.630203e+05
   1.053256e+06   4.580868e+04
   5.204835e+05   5.888854e+05
  -2.611369e+05   6.671332e+05
  -3.817259e+05   3.522523e+05
   1.892014e+05  -8.908338e+03
   5.882621e+05  -4.889748e+04
   1.517155e+05   2.900462e+05
  -7.550987e+05   6.279016e+05
  -1.189931e+06   4.799206e+05
  -7.436116e+05  -1.873183e+05
   7.707592e+04  -8.181075e+05
   5.353427e+05  -8.109948e+05
   4.301039e+05  -1.823941e+05
   7.556595e+04   4.247310e+05
  -2.081905e+05   4.256939e+05
  -3.238397e+05  -9.615794e+04
  -2.464576e+05  -5.281730e+05
   3.390294e+04  -4.274619e+05
   3.625921e+05   2.088056e+04
   4.545215e+05   2.786819e+05
   2.251451e+05   1.087985e+05
  -5.183444e+04  -1.664443e+05
  -7.771096e+04  -9.787985e+04
   6.558466e+04   3.021625e+05
   3.275323e+04   5.476355e+05
  -2.679177e+05   2.721295e+05
  -4.758982e+05  -2.999531e+05
  -2.182736e+05  -5.891581e+05
   3.534506e+05  -3.137922e+05
   6.413298e+05   2.239576e+05
   2.610334e+05   5.104768e+05
  -4.744575e+05   3.496532e+05
  -8.374771e+05  -4.068949e+04
  -4.582773e+05  -3.409404e+05
   2.654321e+05  -4.014839e+05
   5.963792e+05  -2.538577e+05
   2.602607e+05  -2.661911e+04
  -2.767187e+05   9.809406e+04
  -3.601946e+05  -1.074100e+04
   1.170425e+05  -2.453863e+05
   6.255947e+05  -2.622228e+05
