
 $NMID
 id='ANONYMOUS ', fmtdat='(2E16.6)'
 volume=1.0
 tramp=1.0
 $END
  -2.024847e+07  -7.893310e+05
  -1.325872e+07  -1.019391e+07
   5.454300e+05  -1.297336e+07
   9.243932e+06  -8.156330e+06
   7.509066e+06  -4.405826e+05
   2.913343e+05   3.716637e+06
  -4.250983e+06   1.606204e+06
  -2.951405e+06  -3.453933e+06
   1.273726e+06  -5.563676e+06
   3.963774e+06  -2.320261e+06
   3.179367e+06   2.769346e+06
   2.271397e+05   4.266522e+06
  -1.978991e+06   8.037551e+05
  -1.368730e+06  -3.590894e+06
   1.422611e+06  -4.104012e+06
   3.465336e+06  -2.299748e+05
   2.377575e+06   4.140816e+06
  -1.142950e+06   5.073472e+06
  -4.002202e+06   2.280954e+06
  -3.918263e+06  -1.317109e+06
  -1.590142e+06  -2.896566e+06
   3.354895e+05  -2.230802e+06
   1.135623e+05  -1.263705e+06
  -1.382076e+06  -1.667889e+06
  -1.639969e+06  -3.021121e+06
   7.418032e+05  -3.411032e+06
   4.198599e+06  -1.707971e+06
   5.423909e+06   1.057162e+06
   2.870629e+06   2.718066e+06
  -1.224134e+06   2.131508e+06
  -2.974661e+06   1.055139e+05
  -1.020510e+06  -1.537210e+06
   2.122998e+06  -1.459586e+06
   3.095725e+06   3.197674e+05
   1.329913e+06   2.403342e+06
  -8.972876e+05   2.921442e+06
  -1.450650e+06   1.233785e+06
  -4.498034e+05  -1.035559e+06
   5.071823e+05  -1.401088e+06
   3.242361e+05   5.642637e+05
  -7.415965e+05   2.391161e+06
  -1.627765e+06   1.587051e+06
  -1.396443e+06  -1.118033e+06
   3.426603e+04  -2.490536e+06
   1.591381e+06  -7.736675e+05
   1.678975e+06   2.137268e+06
  -2.910252e+05   2.993895e+06
  -2.885117e+06   8.917696e+05
  -3.657739e+06  -2.041373e+06
  -1.572844e+06  -3.197832e+06
   1.715713e+06  -1.950141e+06
   3.338262e+06   2.787040e+05
   2.034156e+06   1.627806e+06
  -6.564019e+05   1.294399e+06
  -2.077453e+06  -4.777216e+04
  -1.173041e+06  -9.739507e+05
   6.338645e+05  -6.353541e+05
   1.200119e+06   4.484190e+05
   3.739790e+04   9.999657e+05
  -1.271229e+06   3.939704e+05
  -9.718369e+05  -7.092578e+05
   8.083889e+05  -1.120389e+06
   2.129191e+06  -2.817591e+05
   1.326838e+06   1.303701e+06
  -1.179768e+06   2.471404e+06
  -3.304219e+06   2.170007e+06
  -3.401182e+06   2.744529e+05
  -1.760845e+06  -2.083595e+06
  -1.220312e+04  -3.298938e+06
   6.804946e+05  -2.782939e+06
   5.843360e+05  -1.522616e+06
   6.856042e+05  -8.363204e+05
   1.385362e+06  -7.787477e+05
   2.096119e+06  -2.952549e+05
   1.965935e+06   1.063271e+06
   7.791724e+05   2.224021e+06
  -8.052398e+05   1.789667e+06
  -1.717932e+06  -1.672500e+05
  -1.242056e+06  -1.987829e+06
   3.759939e+05  -2.103354e+06
   1.952185e+06  -5.336376e+05
   2.253859e+06   1.322097e+06
   1.131388e+06   2.130067e+06
  -3.156272e+05   1.726275e+06
  -9.231469e+05   9.509784e+05
  -7.496972e+05   6.166039e+05
  -8.812607e+05   7.084420e+05
  -1.893831e+06   5.354862e+05
  -2.870202e+06  -4.244082e+05
  -2.315511e+06  -1.874642e+06
   2.572163e+03  -2.862641e+06
   2.483289e+06  -2.567080e+06
   3.170704e+06  -1.020229e+06
   1.704841e+06   8.047285e+05
  -3.618148e+05   1.665876e+06
  -1.169849e+06   1.074713e+06
  -3.285431e+05  -1.937600e+05
   9.366774e+05  -7.813121e+05
   1.231448e+06  -1.536066e+05
   3.910876e+05   7.848083e+05
  -5.464542e+05   7.565426e+05
  -5.456299e+05  -2.640885e+05
   3.965699e+05  -8.905739e+05
   1.318397e+06   2.428325e+04
   1.201894e+06   1.879162e+06
  -1.531834e+05   2.832004e+06
  -1.924397e+06   1.769090e+06
  -2.837567e+06  -5.244043e+05
  -2.162172e+06  -2.214181e+06
  -3.969567e+05  -2.212878e+06
   1.069484e+06  -1.025345e+06
   1.210635e+06   2.671671e+03
   3.505013e+05   5.256665e+04
  -2.354279e+05  -5.380497e+05
   2.337958e+05  -8.319002e+05
   1.165648e+06  -3.394638e+05
   1.322394e+06   5.082295e+05
   3.289393e+05   8.749170e+05
  -8.028651e+05   4.219658e+05
  -7.687111e+05  -3.485099e+05
   5.346956e+05  -6.075476e+05
   1.791543e+06   5.848174e+03
   1.596784e+06   1.058157e+06
  -6.756137e+04   1.684951e+06
  -1.768488e+06   1.307662e+06
  -2.039939e+06   1.568234e+05
  -8.077116e+05  -8.475417e+05
   6.239847e+05  -8.850175e+05
   9.298997e+05  -5.421684e+04
   1.224112e+04   6.668181e+05
  -1.064016e+06   4.327537e+05
  -1.216532e+06  -5.321148e+05
  -3.464063e+05  -1.180313e+06
   6.875177e+05  -8.335487e+05
   9.486464e+05   6.719320e+04
   3.014779e+05   5.072162e+05
  -4.730401e+05   4.582392e+04
  -4.408275e+05  -7.488775e+05
   5.098843e+05  -9.573880e+05
   1.463902e+06  -2.451295e+05
   1.374855e+06   8.556779e+05
   1.947363e+05   1.464148e+06
  -1.022137e+06   1.119590e+06
  -1.215008e+06   1.566149e+05
  -3.977738e+05  -6.034206e+05
   4.635537e+05  -5.944315e+05
   5.464211e+05  -1.374665e+04
  -3.500223e+04   4.289478e+05
  -5.130016e+05   2.938662e+05
  -3.579984e+05  -1.240150e+05
   1.985942e+05  -1.819336e+05
   4.493960e+05   3.133536e+05
  -4.803970e+04   8.227385e+05
  -9.747514e+05   6.355793e+05
  -1.477298e+06  -3.458772e+05
  -9.686826e+05  -1.435187e+06
   2.521916e+05  -1.768193e+06
   1.246653e+06  -1.082196e+06
   1.349456e+06   6.325658e+04
   7.714290e+05   8.112199e+05
   2.439600e+05   7.793232e+05
   1.687746e+05   3.452599e+05
   2.623957e+05   1.667615e+05
   2.188402e+04   4.326645e+05
  -6.074685e+05   6.587406e+05
  -1.104028e+06   2.801630e+05
  -8.687143e+05  -6.059570e+05
   1.564399e+05  -1.209670e+06
   1.310685e+06  -8.233430e+05
   1.672365e+06   4.058336e+05
   8.339288e+05   1.534313e+06
  -6.735348e+05   1.669066e+06
  -1.772258e+06   7.607452e+05
  -1.755510e+06  -4.129736e+05
  -8.564238e+05  -1.010778e+06
   8.167146e+04  -8.681396e+05
   4.438914e+05  -5.133028e+05
   3.207021e+05  -4.999962e+05
   2.293127e+05  -7.822682e+05
   4.829707e+05  -7.960132e+05
   8.668926e+05  -1.493825e+05
   8.856852e+05   8.446265e+05
   3.062279e+05   1.397520e+06
  -5.277728e+05   1.011003e+06
  -9.458800e+05  -2.329865e+04
  -5.838506e+05  -8.916313e+05
   2.209022e+05  -9.901564e+05
   7.337118e+05  -3.940493e+05
   5.595958e+05   3.252066e+05
   2.310269e+04   6.669247e+05
  -2.378691e+05   5.836701e+05
  -9.203143e+03   3.764853e+05
   2.634086e+05   2.972772e+05
   5.086076e+03   2.950338e+05
  -7.769688e+05   1.366544e+05
  -1.392187e+06  -2.756554e+05
  -1.130911e+06  -7.493820e+05
  -3.411658e+04  -9.584572e+05
   1.057487e+06  -7.335055e+05
   1.291747e+06  -2.146559e+05
   6.359903e+05   2.430832e+05
  -1.455297e+05   3.357781e+05
  -3.360288e+05   6.909853e+04
   3.207163e+04  -2.127355e+05
   3.760093e+05  -1.391072e+05
   3.163839e+05   2.679010e+05
   4.116858e+04   5.557765e+05
  -5.431769e+04   3.491811e+05
   1.224555e+05  -1.387346e+05
   3.080400e+05  -2.874609e+05
   2.134133e+05   1.703148e+05
  -2.006513e+05   7.431544e+05
  -6.891189e+05   7.143683e+05
  -8.591020e+05   7.212109e+03
  -4.494549e+05  -6.915714e+05
   3.401236e+05  -7.047123e+05
   8.418437e+05  -9.204034e+04
   4.873893e+05   4.797195e+05
  -5.088083e+05   4.661483e+05
  -1.202728e+06  -7.633851e+04
  -8.444080e+05  -6.510788e+05
   2.917995e+05  -7.998867e+05
   1.152220e+06  -4.395368e+05
   9.958076e+05   1.167617e+05
   1.311182e+05   4.106704e+05
  -4.751591e+05   2.223641e+05
  -2.345191e+05  -1.930219e+05
   4.947810e+05  -2.973708e+05
   8.397831e+05   1.909065e+05
   3.345728e+05   9.227519e+05
  -6.175267e+05   1.162612e+06
  -1.171138e+06   5.008557e+05
  -8.742395e+05  -6.516738e+05
  -4.878391e+04  -1.345870e+06
   6.100308e+05  -9.730078e+05
   6.981008e+05   1.070964e+05
   3.336955e+05   8.934503e+05
  -1.221698e+05   7.616416e+05
  -3.947211e+05   7.630154e+04
  -3.889105e+05  -3.206111e+05
  -1.829768e+05  -1.385495e+05
  -1.454315e+04   9.264692e+04
  -9.437654e+04  -1.713714e+05
  -2.940123e+05  -7.093827e+05
  -1.757580e+05  -8.264912e+05
   4.467977e+05  -2.830996e+05
   1.078699e+06   4.141339e+05
   9.854569e+05   6.825983e+05
   1.157984e+05   5.067903e+05
  -7.172062e+05   2.542342e+05
  -7.621241e+05   1.127716e+05
  -2.079818e+05  -8.223475e+03
   1.441874e+05  -1.488125e+05
  -4.282194e+04  -1.983679e+05
  -2.732257e+05  -1.386046e+05
   4.471617e+03  -1.029549e+05
   5.883865e+05  -9.720556e+04
   7.533828e+05   8.857302e+04
   1.548013e+05   5.035429e+05
  -7.561818e+05   7.584211e+05
  -1.220769e+06   4.057528e+05
  -8.995058e+05  -4.300468e+05
  -9.083241e+04  -1.056558e+06
   6.103217e+05  -9.400839e+05
   7.907751e+05  -2.795649e+05
   4.753066e+05   2.546577e+05
   4.173815e+04   2.650684e+05
  -1.237725e+05  -1.206536e+04
   3.856553e+04  -6.769043e+04
   2.417880e+05   2.639167e+05
   1.706684e+05   6.078969e+05
  -1.838983e+05   4.674449e+05
  -5.026779e+05  -1.837362e+05
  -4.337624e+05  -7.868873e+05
   6.143677e+04  -7.433673e+05
   6.056785e+05  -5.758647e+04
   6.840669e+05   6.540512e+05
   1.424277e+05   8.071917e+05
  -5.668838e+05   3.961044e+05
  -7.729078e+05  -1.365369e+05
  -3.144935e+05  -4.201468e+05
   2.361857e+05  -4.090591e+05
   2.324606e+05  -2.365689e+05
  -2.483773e+05  -5.410159e+04
  -4.950103e+05  -2.086603e+04
  -6.688432e+04  -2.175663e+05
   6.425550e+05  -4.600809e+05
   8.956731e+05  -3.833996e+05
   4.822954e+05   1.102599e+05
  -1.228983e+05   6.014214e+05
  -3.875173e+05   5.718785e+05
  -2.455694e+05   5.012621e+04
   2.763459e+04  -3.789053e+05
   2.093360e+05  -2.655808e+05
   2.473301e+05   1.902728e+05
   1.427492e+05   4.380748e+05
  -7.451059e+04   2.504795e+05
  -2.778879e+05  -8.227245e+04
  -3.136306e+05  -1.864243e+05
  -1.747660e+05  -4.496004e+04
  -1.069384e+04   5.958031e+04
   6.640579e+04  -6.553763e+04
   1.024451e+05  -2.913079e+05
   1.852743e+05  -3.187787e+05
   2.746121e+05  -2.323529e+04
   2.227417e+05   3.705224e+05
  -3.506766e+04   4.820787e+05
  -3.456864e+05   1.722016e+05
  -4.236019e+05  -2.807768e+05
  -1.175528e+05  -4.563455e+05
   3.725712e+05  -2.300355e+05
   6.007595e+05   1.315607e+05
   3.091155e+05   3.038091e+05
  -2.337047e+05   2.281782e+05
  -4.579125e+05   7.313291e+04
  -1.339961e+05  -6.578747e+03
   3.208071e+05   2.731193e+04
   3.143903e+05   1.428494e+05
  -1.999714e+05   2.393083e+05
  -6.509151e+05   1.435200e+05
