
 $NMID
 id='ANONYMOUS ', fmtdat='(2E16.6)'
 volume=1.0
 tramp=1.0
 $END
  -3.371520e+07   1.313216e+06
  -2.255993e+07  -1.696407e+07
   7.784913e+05  -2.213005e+07
   1.501045e+07  -1.284263e+07
   1.159531e+07   2.993328e+05
  -3.063758e+04   6.006745e+06
  -6.564896e+06   1.892546e+06
  -4.129642e+06  -5.544730e+06
   2.174240e+06  -8.130047e+06
   6.117804e+06  -3.313387e+06
   5.169617e+06   3.988102e+06
   8.150176e+05   6.388093e+06
  -2.898573e+06   1.633424e+06
  -2.365266e+06  -4.885949e+06
   1.945155e+06  -5.944566e+06
   5.382967e+06  -3.078109e+05
   3.906779e+06   6.373831e+06
  -1.523806e+06   8.052163e+06
  -6.192382e+06   4.089410e+06
  -6.600826e+06  -1.443153e+06
  -3.399631e+06  -4.499538e+06
  -4.636652e+04  -4.242207e+06
   5.858150e+05  -2.679372e+06
  -1.229306e+06  -2.269062e+06
  -2.236242e+06  -3.547092e+06
   4.330074e+05  -4.588110e+06
   5.462971e+06  -3.143750e+06
   7.942089e+06   5.086421e+05
   4.831063e+06   3.505024e+06
  -1.043078e+06   3.466613e+06
  -3.952766e+06   9.363263e+05
  -1.744189e+06  -1.538761e+06
   2.281398e+06  -1.931206e+06
   3.815628e+06  -1.684915e+04
   2.073894e+06   2.757650e+06
  -5.669413e+05   4.020486e+06
  -1.808792e+06   2.258900e+06
  -1.246632e+06  -1.071916e+06
   3.504841e+04  -2.298104e+06
   5.317185e+05   1.601294e+05
  -5.142622e+05   3.133198e+06
  -2.119438e+06   2.334863e+06
  -2.135679e+06  -1.751111e+06
   2.945706e+05  -4.008251e+06
   3.113133e+06  -1.247751e+06
   3.133021e+06   3.574496e+06
  -3.869850e+05   5.063287e+06
  -4.570028e+06   1.774052e+06
  -5.599853e+06  -2.774594e+06
  -2.384314e+06  -4.568172e+06
   2.405889e+06  -2.835152e+06
   4.736669e+06   3.173117e+05
   2.850655e+06   2.317728e+06
  -1.108627e+06   1.940681e+06
  -3.212876e+06  -4.411178e+04
  -1.775176e+06  -1.526010e+06
   9.879985e+05  -1.046979e+06
   1.704403e+06   5.956371e+05
  -1.608475e+05   1.288499e+06
  -1.888060e+06   1.709539e+05
  -1.008217e+06  -1.436233e+06
   1.742924e+06  -1.724092e+06
   3.401405e+06  -2.314136e+05
   2.054381e+06   2.115727e+06
  -1.403117e+06   3.865183e+06
  -4.383062e+06   3.645226e+06
  -4.913157e+06   9.841305e+05
  -3.045666e+06  -2.719053e+06
  -5.237315e+05  -4.833582e+06
   8.714253e+05  -4.065409e+06
   8.805215e+05  -1.946467e+06
   7.096344e+05  -8.837541e+05
   1.401345e+06  -1.140142e+06
   2.537690e+06  -8.756899e+05
   2.781652e+06   9.039778e+05
   1.457863e+06   2.714115e+06
  -7.001960e+05   2.440110e+06
  -2.187774e+06   1.256221e+04
  -1.864798e+06  -2.464420e+06
   2.130058e+05  -2.911558e+06
   2.625208e+06  -1.102065e+06
   3.478203e+06   1.452744e+06
   2.095233e+06   2.961717e+06
  -1.722392e+05   2.770483e+06
  -1.371085e+06   1.687144e+06
  -1.217137e+06   9.796915e+05
  -1.271848e+06   9.892827e+05
  -2.608192e+06   8.513748e+05
  -4.038908e+06  -3.522128e+05
  -3.392598e+06  -2.385667e+06
  -2.855786e+05  -3.945938e+06
   3.107183e+06  -3.803129e+06
   4.188007e+06  -1.828103e+06
   2.461551e+06   7.963521e+05
  -1.782184e+05   2.288173e+06
  -1.390979e+06   1.665869e+06
  -4.929489e+05  -1.861159e+05
   1.163824e+06  -1.203687e+06
   1.717559e+06  -3.650404e+05
   6.914958e+05   1.063242e+06
  -6.318573e+05   1.101464e+06
  -7.068619e+05  -3.204601e+05
   5.779704e+05  -1.150148e+06
   1.829117e+06   1.781785e+05
   1.605018e+06   2.662925e+06
  -2.593277e+05   3.794591e+06
  -2.591152e+06   2.309374e+06
  -3.799288e+06  -6.276580e+05
  -2.993421e+06  -2.779065e+06
  -7.138576e+05  -2.893420e+06
   1.318758e+06  -1.502633e+06
   1.633019e+06  -1.512588e+05
   4.854695e+05   3.629259e+04
  -3.796238e+05  -7.166894e+05
   2.608214e+05  -1.204456e+06
   1.629330e+06  -5.992527e+05
   1.906929e+06   6.153313e+05
   5.194138e+05   1.219033e+06
  -1.075936e+06   6.539334e+05
  -1.050331e+06  -4.014236e+05
   6.992781e+05  -8.122855e+05
   2.387580e+06  -8.422646e+04
   2.176680e+06   1.284660e+06
   2.130872e+04   2.234141e+06
  -2.274071e+06   1.911861e+06
  -2.767045e+06   4.073708e+05
  -1.204664e+06  -1.109732e+06
   7.853667e+05  -1.330933e+06
   1.329647e+06  -1.855415e+05
   1.207131e+05   9.467918e+05
  -1.426728e+06   7.209045e+05
  -1.723315e+06  -6.295767e+05
  -5.492071e+05  -1.593718e+06
   9.022382e+05  -1.168279e+06
   1.299478e+06   5.598345e+04
   4.251085e+05   6.907117e+05
  -6.738905e+05   1.108112e+05
  -7.015864e+05  -9.829913e+05
   5.773638e+05  -1.375273e+06
   1.971735e+06  -5.131320e+05
   1.985434e+06   1.015156e+06
   4.235143e+05   1.996065e+06
  -1.304959e+06   1.645108e+06
  -1.661942e+06   3.199688e+05
  -5.897744e+05  -8.028024e+05
   5.868207e+05  -8.549401e+05
   7.228447e+05  -8.010921e+04
  -2.347473e+04   5.412354e+05
  -6.276414e+05   4.048623e+05
  -4.186365e+05  -1.158699e+05
   2.940055e+05  -1.955555e+05
   6.198182e+05   4.403180e+05
  -2.244181e+04   1.139090e+06
  -1.281724e+06   9.588952e+05
  -2.057556e+06  -3.258401e+05
  -1.479477e+06  -1.864890e+06
   1.596435e+05  -2.434012e+06
   1.587762e+06  -1.571315e+06
   1.813789e+06  -2.107839e+04
   1.076842e+06   9.969608e+05
   3.903691e+05   9.529890e+05
   3.092002e+05   3.974279e+05
   4.305098e+05   2.175614e+05
   8.239756e+04   6.220956e+05
  -7.792102e+05   9.495969e+05
  -1.464418e+06   4.648206e+05
  -1.203105e+06  -7.264725e+05
   1.167968e+05  -1.618714e+06
   1.697340e+06  -1.225301e+06
   2.306134e+06   3.891421e+05
   1.273582e+06   2.018611e+06
  -7.870801e+05   2.356946e+06
  -2.376412e+06   1.196184e+06
  -2.423549e+06  -4.289376e+05
  -1.211571e+06  -1.297684e+06
   5.828526e+04  -1.141164e+06
   5.156082e+05  -6.947753e+05
   3.140970e+05  -7.203200e+05
   1.947123e+05  -1.136265e+06
   5.878453e+05  -1.172825e+06
   1.191490e+06  -3.075384e+05
   1.310308e+06   1.055427e+06
   5.725126e+05   1.874192e+06
  -6.074930e+05   1.437623e+06
  -1.291210e+06   5.961956e+04
  -8.807761e+05  -1.177910e+06
   2.314316e+05  -1.381410e+06
   1.002396e+06  -5.772522e+05
   8.062178e+05   4.470587e+05
   6.048359e+04   9.452913e+05
  -3.176129e+05   8.177807e+05
   3.624820e+03   4.950462e+05
   3.991134e+05   3.656817e+05
   4.342668e+04   3.958964e+05
  -1.064955e+06   2.611618e+05
  -1.955726e+06  -2.396037e+05
  -1.624992e+06  -9.223011e+05
  -1.172018e+05  -1.332654e+06
   1.405250e+06  -1.127531e+06
   1.758363e+06  -4.059940e+05
   8.851293e+05   3.102666e+05
  -1.801009e+05   4.953690e+05
  -4.641297e+05   1.117619e+05
   7.903787e+03  -3.190474e+05
   4.849292e+05  -2.352522e+05
   4.649160e+05   3.321197e+05
   1.463721e+05   7.431488e+05
  -6.625376e+03   4.788310e+05
   1.495226e+05  -1.783342e+05
   3.643631e+05  -3.954089e+05
   3.011760e+05   2.116648e+05
  -1.790599e+05   1.020646e+06
  -8.635112e+05   1.053819e+06
  -1.207135e+06   1.264537e+05
  -7.254122e+05  -8.914145e+05
   3.866906e+05  -1.028477e+06
   1.159142e+06  -2.480834e+05
   7.203711e+05   5.920513e+05
  -6.543580e+05   6.832391e+05
  -1.635063e+06   2.561680e+03
  -1.176033e+06  -8.103011e+05
   3.481780e+05  -1.095092e+06
   1.518269e+06  -6.730972e+05
   1.341082e+06   8.012602e+04
   2.045849e+05   5.391211e+05
  -6.293519e+05   3.384394e+05
  -3.524375e+05  -2.476348e+05
   6.256041e+05  -4.741936e+05
   1.167392e+06   1.442852e+05
   5.852854e+05   1.207223e+06
  -6.801417e+05   1.662187e+06
  -1.523831e+06   8.303769e+05
  -1.262082e+06  -7.809139e+05
  -2.153989e+05  -1.819105e+06
   7.259677e+05  -1.372009e+06
   9.561056e+05   9.158697e+04
   5.285530e+05   1.183315e+06
  -1.119728e+05   1.035001e+06
  -5.369989e+05   1.354435e+05
  -5.432136e+05  -3.901025e+05
  -2.416240e+05  -1.625372e+05
  -1.911496e+04   1.213473e+05
  -1.799735e+05  -2.363260e+05
  -4.891243e+05  -9.394667e+05
  -3.008670e+05  -1.102296e+06
   6.086880e+05  -4.301204e+05
   1.507303e+06   4.467059e+05
   1.388021e+06   8.238233e+05
   2.089762e+05   6.820503e+05
  -9.255197e+05   4.242612e+05
  -1.016262e+06   2.266231e+05
  -3.031926e+05  -1.066568e+03
   1.714664e+05  -2.202393e+05
  -5.203182e+04  -2.534293e+05
  -3.575341e+05  -1.443757e+05
  -1.663466e+04  -1.374123e+05
   7.582484e+05  -2.063263e+05
   1.038012e+06   2.728699e+04
   3.088654e+05   6.697914e+05
  -9.163012e+05   1.132208e+06
  -1.633817e+06   7.111828e+05
  -1.306179e+06  -4.659785e+05
  -2.529920e+05  -1.421855e+06
   7.314656e+05  -1.357624e+06
   1.043303e+06  -4.888695e+05
   6.702155e+05   2.768846e+05
   9.934088e+04   3.551804e+05
  -1.440352e+05   1.246939e+04
   5.514724e+04  -7.805109e+04
   3.464194e+05   3.410578e+05
   2.902040e+05   8.089876e+05
  -1.907810e+05   6.631797e+05
  -6.984828e+05  -1.740078e+05
  -6.956107e+05  -1.002094e+06
  -3.174501e+04  -1.019974e+06
   7.996918e+05  -1.725426e+05
   1.012838e+06   7.872368e+05
   3.037643e+05   1.082529e+06
  -7.203499e+05   6.233345e+05
  -1.080049e+06  -8.852200e+04
  -4.928715e+05  -5.525223e+05
   2.741116e+05  -6.080955e+05
   3.103747e+05  -3.564849e+05
  -3.194062e+05  -3.828898e+04
  -6.691533e+05   3.154567e+04
  -1.244686e+05  -2.924284e+05
   8.224091e+05  -6.963240e+05
   1.197600e+06  -6.076151e+05
   6.947565e+05   1.122595e+05
  -9.564440e+04   8.423744e+05
  -4.825053e+05   8.343219e+05
  -3.511388e+05   1.156357e+05
  -1.774298e+04  -5.078692e+05
   2.487677e+05  -3.981100e+05
   3.552767e+05   2.091977e+05
   2.480210e+05   5.786838e+05
  -6.511981e+04   3.688429e+05
  -3.880018e+05  -7.032872e+04
  -4.573400e+05  -2.322537e+05
  -2.443525e+05  -5.477537e+04
   4.819125e+03   9.845725e+04
   8.610043e+04  -6.154482e+04
   7.666924e+04  -3.918767e+05
   1.704704e+05  -4.757935e+05
   3.541336e+05  -1.020208e+05
   3.729169e+05   4.502211e+05
   4.653760e+04   6.534973e+05
  -4.384369e+05   2.842846e+05
  -6.224061e+05  -3.171251e+05
  -2.234819e+05  -5.974726e+05
   4.865791e+05  -3.600848e+05
   8.451221e+05   9.817227e+04
   4.626221e+05   3.764686e+05
  -2.902035e+05   3.544063e+05
  -6.192178e+05   1.736031e+05
  -2.002411e+05   1.137841e+04
   4.143381e+05  -1.614176e+04
   4.332250e+05   1.340257e+05
  -2.257211e+05   3.328335e+05
  -8.367585e+05   2.694217e+05
