
 $NMID
 id='ANONYMOUS ', fmtdat='(2E16.6)'
 volume=1.0
 tramp=1.0
 $END
  -4.143095e+06  -3.788036e+05
  -2.862255e+06  -1.610905e+06
  -2.792231e+05  -2.458928e+06
   1.725400e+06  -2.225780e+06
   1.812835e+06  -7.032235e+05
   3.551419e+05   8.188601e+05
  -9.965226e+05   7.557303e+05
  -1.001864e+06  -6.746824e+05
   4.307359e+04  -1.582717e+06
   8.969462e+05  -8.042509e+05
   7.892838e+05   6.831185e+05
   3.395323e+04   1.123564e+06
  -5.312480e+05   1.280680e+05
  -3.897772e+05  -1.076450e+06
   2.861896e+05  -1.202909e+06
   8.277639e+05  -1.956152e+05
   6.411133e+05   9.355266e+05
  -1.910433e+05   1.195197e+06
  -8.958759e+05   4.846695e+05
  -8.070454e+05  -4.052462e+05
  -1.495593e+05  -6.526919e+05
   2.156600e+05  -2.801846e+05
  -1.482022e+05  -4.896082e+04
  -7.127440e+05  -4.502209e+05
  -6.229862e+05  -1.063055e+06
   2.995436e+05  -1.105312e+06
   1.328815e+06  -4.046020e+05
   1.534855e+06   4.543588e+05
   6.731541e+05   8.191639e+05
  -5.263387e+05   5.269086e+05
  -9.688601e+05  -1.249270e+05
  -2.622908e+05  -6.362886e+05
   8.141917e+05  -5.601672e+05
   1.112663e+06   1.385531e+05
   4.050722e+05   8.796519e+05
  -4.106498e+05   9.266155e+05
  -4.729747e+05   2.257193e+05
   4.239692e+04  -4.378781e+05
   3.408002e+05  -3.265051e+05
   9.619838e+04   3.761916e+05
  -3.117596e+05   8.143443e+05
  -4.773571e+05   4.883151e+05
  -3.883349e+05  -2.194661e+05
  -1.657836e+05  -5.552372e+05
   1.317217e+05  -2.239682e+05
   2.996598e+05   3.697130e+05
   1.672457e+04   5.886101e+05
  -6.342278e+05   1.839035e+05
  -9.898330e+05  -4.964196e+05
  -5.189066e+05  -8.544159e+05
   4.372317e+05  -6.046143e+05
   9.778324e+05  -1.422918e+04
   6.564312e+05   3.992866e+05
  -8.974231e+04   3.670486e+05
  -5.162806e+05   4.992332e+04
  -3.344783e+05  -1.982027e+05
   1.347463e+05  -1.607622e+05
   3.655979e+05   1.035397e+05
   1.211568e+05   3.375064e+05
  -3.245011e+05   2.952956e+05
  -4.361920e+05  -2.082908e+04
  -1.710215e+04  -3.037283e+05
   4.676713e+05  -2.138951e+05
   3.661750e+05   2.349399e+05
  -3.482641e+05   6.266048e+05
  -9.835572e+05   5.439514e+05
  -9.423243e+05  -8.832923e+03
  -3.910096e+05  -6.250714e+05
   5.874863e+04  -9.025448e+05
   1.335800e+05  -7.863734e+05
   9.639696e+04  -5.295007e+05
   2.553467e+05  -3.677843e+05
   5.641176e+05  -2.661148e+05
   7.475111e+05  -9.947370e+03
   6.159382e+05   4.427424e+05
   1.903348e+05   7.729878e+05
  -3.212673e+05   5.900113e+05
  -5.966135e+05  -6.824936e+04
  -4.028887e+05  -6.564693e+05
   1.434399e+05  -6.529588e+05
   6.002796e+05  -1.068080e+05
   6.043905e+05   4.514691e+05
   2.298586e+05   5.996730e+05
  -1.303725e+05   3.972907e+05
  -2.128407e+05   1.847298e+05
  -1.384290e+05   1.633554e+05
  -2.180137e+05   2.409238e+05
  -5.524651e+05   1.940760e+05
  -8.544742e+05  -1.019322e+05
  -7.000787e+05  -5.510162e+05
  -5.637261e+03  -8.683612e+05
   7.666957e+05  -7.791196e+05
   9.895184e+05  -2.799995e+05
   5.121048e+05   2.922617e+05
  -1.593611e+05   5.255941e+05
  -3.972671e+05   3.073981e+05
  -9.752161e+04  -7.670982e+04
   3.007922e+05  -2.314862e+05
   3.656809e+05  -3.981974e+04
   9.630650e+04   2.338776e+05
  -1.838005e+05   2.345174e+05
  -1.966580e+05  -7.362494e+04
   7.283070e+04  -3.156889e+05
   3.957625e+05  -9.806532e+04
   4.532440e+05   4.958873e+05
   7.818917e+04   9.019968e+05
  -5.357767e+05   6.543136e+05
  -9.169850e+05  -8.594944e+04
  -7.338514e+05  -6.866220e+05
  -1.455332e+05  -7.113922e+05
   3.410060e+05  -3.188293e+05
   3.812388e+05   1.149963e+04
   1.075222e+05   1.674042e+04
  -7.397148e+04  -1.635606e+05
   6.016130e+04  -2.428427e+05
   3.346264e+05  -1.024573e+05
   3.944409e+05   1.350305e+05
   1.120958e+05   2.523056e+05
  -2.396580e+05   1.378828e+05
  -2.542921e+05  -1.018619e+05
   1.474214e+05  -2.150116e+05
   5.703304e+05  -3.759441e+04
   5.343366e+05   3.189544e+05
   5.212889e+03   5.448644e+05
  -5.443052e+05   4.261091e+05
  -6.300468e+05   5.669206e+04
  -2.453194e+05  -2.496403e+05
   1.841081e+05  -2.546681e+05
   2.658839e+05  -1.169142e+04
  -6.671838e+03   1.946583e+05
  -3.217648e+05   1.296118e+05
  -3.748620e+05  -1.522718e+05
  -1.253836e+05  -3.588874e+05
   1.943208e+05  -2.746572e+05
   2.963664e+05  -3.382051e+03
   1.104776e+05   1.477128e+05
  -1.332698e+05   1.924142e+04
  -1.312617e+05  -2.245795e+05
   1.592343e+05  -2.897261e+05
   4.491034e+05  -6.949745e+04
   4.175963e+05   2.644703e+05
   6.000920e+04   4.450003e+05
  -3.054846e+05   3.428273e+05
  -3.693167e+05   5.551524e+04
  -1.303249e+05  -1.812152e+05
   1.373517e+05  -1.884374e+05
   1.792949e+05  -4.557799e+03
   9.773016e+02   1.505996e+05
  -1.706342e+05   1.120910e+05
  -1.415609e+05  -4.048719e+04
   4.227328e+04  -8.189863e+04
   1.455400e+05   7.258635e+04
   1.688610e+03   2.466217e+05
  -2.912731e+05   1.993087e+05
  -4.520531e+05  -1.014431e+05
  -2.964525e+05  -4.375536e+05
   7.673574e+04  -5.468074e+05
   3.843112e+05  -3.475021e+05
   4.285903e+05   7.071265e+03
   2.595434e+05   2.617310e+05
   8.314620e+04   2.723487e+05
   3.508782e+04   1.271159e+05
   5.895260e+04   4.374954e+04
   3.020908e+03   1.183089e+05
  -1.786136e+05   2.051971e+05
  -3.411278e+05   9.806083e+04
  -2.818532e+05  -1.879341e+05
   3.606898e+04  -3.878238e+05
   4.024099e+05  -2.664013e+05
   5.205762e+05   1.191091e+05
   2.679511e+05   4.663748e+05
  -1.889364e+05   5.114163e+05
  -5.310121e+05   2.465365e+05
  -5.474239e+05  -1.075447e+05
  -2.886657e+05  -3.083454e+05
   1.024198e+04  -2.873884e+05
   1.500928e+05  -1.779337e+05
   1.255016e+05  -1.524250e+05
   8.429227e+04  -2.242769e+05
   1.440372e+05  -2.319928e+05
   2.578845e+05  -4.176121e+04
   2.685102e+05   2.611962e+05
   9.245810e+04   4.307287e+05
  -1.644205e+05   3.112733e+05
  -2.926132e+05  -2.950626e+03
  -1.846027e+05  -2.653980e+05
   5.422432e+04  -3.026306e+05
   2.094104e+05  -1.367285e+05
   1.693552e+05   7.545201e+04
   2.372401e+04   1.907410e+05
  -5.140663e+04   1.817465e+05
   6.185985e+03   1.241644e+05
   7.680726e+04   9.612460e+04
  -1.161775e+03   9.241604e+04
  -2.308640e+05   4.454029e+04
  -4.167952e+05  -8.009890e+04
  -3.472717e+05  -2.223289e+05
  -2.393140e+04  -2.840626e+05
   3.091960e+05  -2.208857e+05
   3.911719e+05  -7.591193e+04
   2.000535e+05   5.672355e+04
  -3.788340e+04   9.464231e+04
  -9.815084e+04   2.831165e+04
   1.599682e+04  -5.473769e+04
   1.216419e+05  -3.924645e+04
   9.482870e+04   8.313317e+04
  -8.893185e+02   1.750693e+05
  -2.924936e+04   1.087013e+05
   3.875309e+04  -5.153359e+04
   1.040944e+05  -9.998206e+04
   6.766662e+04   5.024026e+04
  -6.808199e+04   2.325256e+05
  -2.108425e+05   2.167884e+05
  -2.484165e+05  -7.035981e+03
  -1.223772e+05  -2.135345e+05
   1.051384e+05  -2.040354e+05
   2.502353e+05  -1.472389e+04
   1.475965e+05   1.522188e+05
  -1.532200e+05   1.457618e+05
  -3.757649e+05  -1.620439e+04
  -2.773096e+05  -1.964351e+05
   7.660879e+04  -2.567517e+05
   3.578626e+05  -1.541226e+05
   3.184989e+05   2.570440e+04
   4.742534e+04   1.295168e+05
  -1.446724e+05   7.503297e+04
  -6.796533e+04  -5.532277e+04
   1.588957e+05  -8.513724e+04
   2.576482e+05   6.933004e+04
   9.033322e+04   2.902248e+05
  -2.062024e+05   3.531047e+05
  -3.691096e+05   1.440924e+05
  -2.685014e+05  -2.075422e+05
  -1.157477e+04  -4.190996e+05
   1.896549e+05  -3.072593e+05
   2.179985e+05   2.525394e+04
   1.113383e+05   2.751204e+05
  -2.678773e+04   2.416480e+05
  -1.185328e+05   2.818542e+04
  -1.284126e+05  -1.010825e+05
  -6.583253e+04  -4.567204e+04
  -1.080170e+03   3.146825e+04
  -1.583722e+04  -4.709654e+04
  -8.540654e+04  -2.172502e+05
  -6.481987e+04  -2.578907e+05
   1.258437e+05  -8.900704e+04
   3.353919e+05   1.296235e+05
   3.148039e+05   2.120276e+05
   3.649334e+04   1.546122e+05
  -2.314679e+05   7.688678e+04
  -2.393299e+05   3.759860e+04
  -5.640535e+04   2.495500e+03
   4.856217e+04  -4.500958e+04
  -2.382796e+04  -6.656279e+04
  -9.601201e+04  -4.911264e+04
   5.979725e+03  -3.253416e+04
   1.946264e+05  -2.474050e+04
   2.313217e+05   3.271024e+04
   2.946798e+04   1.546712e+05
  -2.470761e+05   2.258248e+05
  -3.708857e+05   1.131776e+05
  -2.625699e+05  -1.426446e+05
  -2.043291e+04  -3.289380e+05
   1.882942e+05  -2.846487e+05
   2.450796e+05  -7.616889e+04
   1.479975e+05   8.636402e+04
   7.204220e+03   8.192160e+04
  -4.838000e+04  -1.051370e+04
   8.064904e+03  -2.846237e+04
   7.919271e+04   7.849568e+04
   5.568635e+04   1.880808e+05
  -6.064220e+04   1.416047e+05
  -1.573537e+05  -6.593443e+04
  -1.250085e+05  -2.524889e+05
   3.411020e+04  -2.288570e+05
   1.946612e+05  -5.137435e+03
   2.058055e+05   2.148586e+05
   3.367948e+04   2.496415e+05
  -1.787586e+05   1.121166e+05
  -2.328944e+05  -4.845845e+04
  -8.900235e+04  -1.235954e+05
   7.402775e+04  -1.154033e+05
   6.364846e+04  -6.957038e+04
  -8.661479e+04  -2.118541e+04
  -1.554784e+05  -9.824446e+03
  -1.626403e+04  -6.565494e+04
   2.001653e+05  -1.411798e+05
   2.692800e+05  -1.223387e+05
   1.382993e+05   2.845526e+04
  -4.133403e+04   1.814361e+05
  -1.133345e+05   1.707162e+05
  -6.638268e+04   6.828475e+03
   1.517652e+04  -1.213079e+05
   6.785994e+04  -7.582860e+04
   7.659428e+04   6.868395e+04
   4.091215e+04   1.363206e+05
  -2.685111e+04   6.898476e+04
  -8.533406e+04  -3.052848e+04
  -9.271372e+04  -5.276816e+04
  -5.343925e+04  -9.009020e+03
  -8.396081e+03   1.151619e+04
   1.995202e+04  -3.457503e+04
   4.510047e+04  -9.598725e+04
   7.685928e+04  -8.866653e+04
   9.147147e+04   1.021266e+04
   5.573272e+04   1.268161e+05
  -2.893727e+04   1.510053e+05
  -1.123819e+05   4.739133e+04
  -1.238273e+05  -9.496060e+04
  -2.979685e+04  -1.453703e+05
   1.134370e+05  -6.790899e+04
   1.798067e+05   4.769338e+04
   9.144497e+04   9.562078e+04
  -7.360281e+04   6.263949e+04
  -1.398330e+05   1.200225e+04
  -3.431922e+04  -4.533894e+03
   1.094338e+05   1.669429e+04
   1.010028e+05   5.560534e+04
  -7.077624e+04   7.958982e+04
  -2.153077e+05   4.166444e+04
