
 $NMID
 id='ANONYMOUS ', fmtdat='(2E16.6)'
 volume=1.0
 tramp=1.0
 $END
   2.883508e+07  -5.233727e+05
   1.908084e+07   1.488334e+07
  -1.000556e+06   1.895136e+07
  -1.313584e+07   1.078418e+07
  -1.001366e+07  -4.611696e+05
   1.404827e+05  -5.196320e+06
   5.743660e+06  -1.519324e+06
   3.477713e+06   4.886654e+06
  -2.060367e+06   7.000456e+06
  -5.357362e+06   2.739337e+06
  -4.342174e+06  -3.549361e+06
  -5.286534e+05  -5.507464e+06
   2.532005e+06  -1.313609e+06
   1.904434e+06   4.286085e+06
  -1.820980e+06   5.093263e+06
  -4.640546e+06   1.658614e+05
  -3.227194e+06  -5.543966e+06
   1.460954e+06  -6.863927e+06
   5.365077e+06  -3.363922e+06
   5.585513e+06   1.367846e+06
   2.792943e+06   3.885108e+06
  -3.014794e+04   3.586968e+06
  -5.088704e+05   2.277801e+06
   1.033057e+06   2.018817e+06
   1.819529e+06   3.142925e+06
  -5.137089e+05   3.934542e+06
  -4.779405e+06   2.541373e+06
  -6.799737e+06  -6.550040e+05
  -4.046348e+06  -3.132855e+06
   1.002337e+06  -2.933369e+06
   3.429023e+06  -6.730497e+05
   1.435565e+06   1.389577e+06
  -2.056820e+06   1.589089e+06
  -3.296752e+06  -1.245473e+05
  -1.673626e+06  -2.447714e+06
   6.340961e+05  -3.420330e+06
   1.602643e+06  -1.861579e+06
   9.988349e+05   9.518164e+05
  -1.027342e+05   1.941799e+06
  -4.204825e+05  -1.734116e+05
   5.524668e+05  -2.679292e+06
   1.885635e+06  -1.953367e+06
   1.803958e+06   1.553604e+06
  -3.128561e+05   3.457164e+06
  -2.678159e+06   1.048637e+06
  -2.630246e+06  -3.101047e+06
   4.009251e+05  -4.336903e+06
   3.942767e+06  -1.437800e+06
   4.757264e+06   2.506541e+06
   1.952044e+06   3.993057e+06
  -2.148087e+06   2.390493e+06
  -4.085495e+06  -3.907673e+05
  -2.402539e+06  -2.077909e+06
   1.007084e+06  -1.659293e+06
   2.771742e+06   1.076429e+05
   1.495197e+06   1.360658e+06
  -8.771458e+05   8.844966e+05
  -1.457624e+06  -5.629087e+05
   1.751091e+05  -1.132494e+06
   1.658819e+06  -1.195713e+05
   8.755951e+05   1.276886e+06
  -1.515751e+06   1.480468e+06
  -2.935566e+06   1.472047e+05
  -1.731338e+06  -1.853902e+06
   1.290039e+06  -3.270150e+06
   3.846005e+06  -3.001088e+06
   4.226097e+06  -7.151444e+05
   2.529033e+06   2.398572e+06
   3.223885e+05   4.152859e+06
  -8.507145e+05   3.477246e+06
  -8.158346e+05   1.662832e+06
  -6.535231e+05   7.371469e+05
  -1.250003e+06   9.221981e+05
  -2.204647e+06   6.638072e+05
  -2.355291e+06  -8.666201e+05
  -1.162008e+06  -2.382766e+06
   6.889077e+05  -2.078886e+06
   1.895130e+06   6.387493e+04
   1.534353e+06   2.187934e+06
  -2.716821e+05   2.501159e+06
  -2.285445e+06   8.688151e+05
  -2.936695e+06  -1.340483e+06
  -1.713718e+06  -2.583016e+06
   2.095619e+05  -2.357447e+06
   1.200225e+06  -1.410180e+06
   1.057078e+06  -8.189425e+05
   1.117903e+06  -8.272740e+05
   2.269278e+06  -6.708779e+05
   3.467461e+06   4.046603e+05
   2.856346e+06   2.141867e+06
   1.399703e+05   3.405501e+06
  -2.777568e+06   3.187327e+06
  -3.652975e+06   1.450542e+06
  -2.090666e+06  -7.600344e+05
   2.252139e+05  -1.961395e+06
   1.249346e+06  -1.386334e+06
   4.199974e+05   1.791959e+05
  -1.038170e+06   1.004495e+06
  -1.492359e+06   2.670007e+05
  -5.651866e+05  -9.346528e+05
   5.832577e+05  -9.317844e+05
   6.105217e+05   3.017073e+05
  -5.316329e+05   9.930370e+05
  -1.591224e+06  -1.865444e+05
  -1.333210e+06  -2.342263e+06
   3.213160e+05  -3.286509e+06
   2.307995e+06  -1.938806e+06
   3.269063e+06   6.463321e+05
   2.504288e+06   2.489681e+06
   5.310618e+05   2.518441e+06
  -1.178864e+06   1.253650e+06
  -1.409502e+06   7.957782e+04
  -4.162383e+05  -4.616872e+04
   3.092276e+05   6.290418e+05
  -2.541014e+05   1.033749e+06
  -1.419792e+06   4.765076e+05
  -1.631825e+06  -5.809350e+05
  -4.187421e+05  -1.070334e+06
   9.493355e+05  -5.406136e+05
   9.026341e+05   3.770493e+05
  -6.235005e+05   6.904917e+05
  -2.067225e+06   1.224561e+04
  -1.847008e+06  -1.171527e+06
   4.359778e+04  -1.933042e+06
   2.015736e+06  -1.586915e+06
   2.396903e+06  -2.731473e+05
   1.007728e+06   9.901827e+05
  -7.119043e+05   1.125179e+06
  -1.149807e+06   1.241712e+05
  -7.870886e+04  -8.189748e+05
   1.249623e+06  -5.836267e+05
   1.470985e+06   5.901024e+05
   4.313647e+05   1.393773e+06
  -8.139266e+05   9.884149e+05
  -1.126569e+06  -8.347633e+04
  -3.527551e+05  -6.134346e+05
   5.844162e+05  -8.494834e+04
   5.819819e+05   8.617867e+05
  -5.302619e+05   1.168576e+06
  -1.709152e+06   3.897692e+05
  -1.681234e+06  -9.268465e+05
  -3.106158e+05  -1.730479e+06
   1.169434e+06  -1.381983e+06
   1.442679e+06  -2.286075e+05
   4.873891e+05   7.128785e+05
  -5.320461e+05   7.246179e+05
  -6.302022e+05   4.657853e+04
   3.384105e+04  -4.732366e+05
   5.566819e+05  -3.356522e+05
   3.633959e+05   1.152933e+05
  -2.572840e+05   1.680716e+05
  -5.253007e+05  -3.913456e+05
   4.582280e+04  -9.796777e+05
   1.126955e+06  -7.920229e+05
   1.761843e+06   3.347243e+05
   1.222579e+06   1.644214e+06
  -2.060582e+05   2.091034e+06
  -1.414735e+06   1.309883e+06
  -1.566216e+06  -3.462588e+04
  -8.977812e+05  -8.959024e+05
  -3.013939e+05  -8.381165e+05
  -2.464890e+05  -3.495100e+05
  -3.616877e+05  -1.914234e+05
  -5.607710e+04  -5.315248e+05
   6.940006e+05  -7.952103e+05
   1.271851e+06  -3.611709e+05
   1.014603e+06   6.589215e+05
  -1.456326e+05   1.392077e+06
  -1.494353e+06   1.009556e+06
  -1.974965e+06  -3.977192e+05
  -1.044492e+06  -1.773690e+06
   7.381093e+05  -2.011506e+06
   2.079308e+06  -9.697292e+05
   2.080504e+06   4.353555e+05
   1.011789e+06   1.156870e+06
  -8.411448e+04   9.878092e+05
  -4.699076e+05   5.837518e+05
  -2.946827e+05   6.046005e+05
  -1.982147e+05   9.665132e+05
  -5.352477e+05   9.919382e+05
  -1.031751e+06   2.329529e+05
  -1.097687e+06  -9.441642e+05
  -4.405131e+05  -1.629128e+06
   5.634230e+05  -1.220696e+06
   1.115153e+06  -1.630795e+04
   7.291865e+05   1.037837e+06
  -2.344130e+05   1.185838e+06
  -8.797187e+05   4.763766e+05
  -6.872026e+05  -4.013540e+05
  -3.293897e+04  -8.165887e+05
   2.920449e+05  -7.014389e+05
   1.141639e+04  -4.305099e+05
  -3.301570e+05  -3.250834e+05
  -2.504026e+04  -3.403830e+05
   9.215444e+05  -1.974461e+05
   1.673905e+06   2.557433e+05
   1.374914e+06   8.363353e+05
   7.050508e+04   1.151860e+06
  -1.235739e+06   9.352629e+05
  -1.526540e+06   3.041714e+05
  -7.594407e+05  -2.893219e+05
   1.648754e+05  -4.210703e+05
   4.029046e+05  -8.604280e+04
  -1.484640e+04   2.693289e+05
  -4.242007e+05   1.849941e+05
  -3.890937e+05  -2.986595e+05
  -1.002338e+05  -6.401354e+05
   2.248237e+04  -4.085946e+05
  -1.357317e+05   1.503045e+05
  -3.285619e+05   3.304251e+05
  -2.536419e+05  -1.885337e+05
   1.839208e+05  -8.704057e+05
   7.692594e+05  -8.824276e+05
   1.034851e+06  -7.899008e+04
   5.956568e+05   7.818863e+05
  -3.572632e+05   8.709071e+05
  -9.978348e+05   1.804520e+05
  -6.009155e+05  -5.298489e+05
   5.821235e+05  -5.704817e+05
   1.409605e+06   4.407465e+04
   9.934294e+05   7.338837e+05
  -3.303652e+05   9.377284e+05
  -1.330738e+06   5.395611e+05
  -1.156930e+06  -1.073458e+05
  -1.616798e+05  -4.722741e+05
   5.527548e+05  -2.759530e+05
   2.972399e+05   2.206798e+05
  -5.507613e+05   3.877209e+05
  -9.973769e+05  -1.583847e+05
  -4.654241e+05  -1.052736e+06
   6.341264e+05  -1.405278e+06
   1.333472e+06  -6.665338e+05
   1.061450e+06   7.089922e+05
   1.316978e+05   1.571043e+06
  -6.657290e+05   1.161026e+06
  -8.228268e+05  -1.045503e+05
  -4.238551e+05  -1.035143e+06
   1.242965e+05  -8.924289e+05
   4.662349e+05  -1.040943e+05
   4.580798e+05   3.535878e+05
   2.051112e+05   1.500994e+05
   2.019564e+04  -1.056367e+05
   1.470299e+05   2.030020e+05
   3.938718e+05   8.204160e+05
   2.294926e+05   9.612579e+05
  -5.336984e+05   3.570964e+05
  -1.284507e+06  -4.282342e+05
  -1.173119e+06  -7.515541e+05
  -1.612411e+05  -5.922430e+05
   8.101608e+05  -3.352695e+05
   8.825240e+05  -1.657800e+05
   2.603457e+05   5.886411e+03
  -1.547879e+05   1.832716e+05
   3.820167e+04   2.238061e+05
   3.045351e+05   1.388332e+05
   9.604430e+03   1.171823e+05
  -6.594432e+05   1.511876e+05
  -8.905815e+05  -5.329037e+04
  -2.428910e+05  -5.792749e+05
   8.212123e+05  -9.424191e+05
   1.420879e+06  -5.647907e+05
   1.103992e+06   4.356066e+05
   1.748779e+05   1.228754e+06
  -6.655692e+05   1.146113e+06
  -9.082150e+05   3.888136e+05
  -5.669252e+05  -2.588647e+05
  -7.451896e+04  -3.065354e+05
   1.244849e+05  -2.111085e+03
  -5.092490e+04   6.858097e+04
  -2.906131e+05  -3.036956e+05
  -2.279671e+05  -7.053772e+05
   1.827819e+05  -5.639349e+05
   5.942189e+05   1.719440e+05
   5.656768e+05   8.816497e+05
  -4.911188e+03   8.741104e+05
  -6.912062e+05   1.205377e+05
  -8.441030e+05  -7.075947e+05
  -2.281494e+05  -9.369857e+05
   6.351214e+05  -5.123558e+05
   9.234125e+05   1.062197e+05
   4.086214e+05   4.850773e+05
  -2.495421e+05   5.125976e+05
  -2.739169e+05   3.000525e+05
   2.746064e+05   4.638688e+04
   5.760372e+05  -6.676636e+03
   9.816036e+04   2.533034e+05
  -7.275151e+05   5.752282e+05
  -1.047172e+06   4.922641e+05
  -5.937779e+05  -1.116832e+05
   1.056964e+05  -7.201520e+05
   4.354209e+05  -7.047546e+05
   3.003355e+05  -9.032080e+04
  -2.093589e+03   4.364447e+05
  -2.241056e+05   3.329254e+05
  -2.966927e+05  -1.925443e+05
  -1.959685e+05  -5.041717e+05
   6.481427e+04  -3.122947e+05
   3.302612e+05   7.259634e+04
   3.874898e+05   2.103906e+05
   2.100181e+05   5.273777e+04
  -2.325947e+03  -8.162592e+04
  -8.009678e+04   5.418555e+04
  -8.216290e+04   3.324294e+05
  -1.619809e+05   3.962114e+05
  -3.039617e+05   7.142462e+04
  -3.011494e+05  -3.970275e+05
  -1.646980e+04  -5.585610e+05
   3.848260e+05  -2.290518e+05
   5.222841e+05   2.902421e+05
   1.725244e+05   5.193788e+05
  -4.273814e+05   2.958358e+05
  -7.208542e+05  -1.082196e+05
  -3.859632e+05  -3.362162e+05
   2.577388e+05  -2.944952e+05
   5.342523e+05  -1.297498e+05
   1.701290e+05  -5.494043e+03
  -3.572042e+05  -2.900257e+03
  -3.666037e+05  -1.316864e+05
   2.076321e+05  -2.788171e+05
   7.304430e+05  -2.032070e+05
