
 $NMID
 id='ANONYMOUS ', fmtdat='(2E16.6)'
 volume=1.0
 tramp=1.0
 $END
   1.759649e+07   1.739231e+06
   1.112280e+07   8.681916e+06
  -5.466372e+05   1.083942e+07
  -7.928163e+06   7.373331e+06
  -6.671858e+06   9.646996e+05
  -5.051794e+05  -3.230769e+06
   3.775384e+06  -1.840941e+06
   2.943495e+06   2.933055e+06
  -8.766764e+05   5.290013e+06
  -3.529836e+06   2.321481e+06
  -2.880527e+06  -2.639273e+06
  -1.004867e+05  -4.056403e+06
   1.942527e+06  -6.255883e+05
   1.330195e+06   3.575521e+06
  -1.249405e+06   3.977795e+06
  -3.112561e+06   2.995527e+05
  -2.125474e+06  -3.740130e+06
   1.087377e+06  -4.530656e+06
   3.656138e+06  -1.854299e+06
   3.395744e+06   1.482608e+06
   1.051052e+06   2.720405e+06
  -6.391945e+05   1.748082e+06
  -1.143129e+04   7.578145e+05
   1.716686e+06   1.479150e+06
   1.831380e+06   3.143679e+06
  -8.137009e+05   3.503304e+06
  -4.287146e+06   1.565001e+06
  -5.302170e+06  -1.272731e+06
  -2.602911e+06  -2.781282e+06
   1.461306e+06  -2.036127e+06
   3.108661e+06   6.510290e+04
   1.021438e+06   1.763948e+06
  -2.288721e+06   1.662451e+06
  -3.315661e+06  -3.181142e+05
  -1.365129e+06  -2.595199e+06
   1.077976e+06  -3.010317e+06
   1.553896e+06  -1.038460e+06
   2.636312e+05   1.266106e+06
  -7.841653e+05   1.339821e+06
  -3.926528e+05  -8.257729e+05
   8.227172e+05  -2.521074e+06
   1.598663e+06  -1.572444e+06
   1.298793e+06   9.792084e+05
   1.179992e+05   2.157694e+06
  -1.134232e+06   6.271821e+05
  -1.296954e+06  -1.841067e+06
   2.699556e+05  -2.521728e+06
   2.586137e+06  -6.817860e+05
   3.431034e+06   1.918652e+06
   1.566906e+06   3.017517e+06
  -1.601627e+06   1.924685e+06
  -3.241434e+06  -1.711217e+05
  -2.034905e+06  -1.498203e+06
   5.306519e+05  -1.225887e+06
   1.904873e+06   9.421564e+03
   1.106555e+06   8.647688e+05
  -5.715160e+05   5.772023e+05
  -1.187421e+06  -4.097056e+05
  -1.885328e+05  -1.007361e+06
   1.129132e+06  -5.945292e+05
   1.083455e+06   4.117980e+05
  -4.788724e+05   9.734713e+05
  -1.840924e+06   3.728263e+05
  -1.208025e+06  -1.106496e+06
   1.216007e+06  -2.284035e+06
   3.309453e+06  -1.983161e+06
   3.297275e+06  -1.058167e+05
   1.553129e+06   2.121229e+06
  -1.183359e+05   3.177700e+06
  -6.186434e+05   2.664867e+06
  -4.645114e+05   1.565257e+06
  -7.067293e+05   9.841556e+05
  -1.549260e+06   8.544377e+05
  -2.250298e+06   2.270182e+05
  -2.018527e+06  -1.205464e+06
  -7.484838e+05  -2.356166e+06
   8.855661e+05  -1.870671e+06
   1.814625e+06   1.616891e+05
   1.287433e+06   2.039703e+06
  -4.109975e+05   2.123682e+06
  -1.974742e+06   4.588767e+05
  -2.153193e+06  -1.416336e+06
  -9.521325e+05  -2.104479e+06
   4.135884e+05  -1.563907e+06
   8.735304e+05  -7.797097e+05
   6.405873e+05  -5.425104e+05
   8.031535e+05  -7.144682e+05
   1.840432e+06  -5.592815e+05
   2.816074e+06   4.010204e+05
   2.283397e+06   1.847298e+06
  -1.767858e+03   2.841063e+06
  -2.489995e+06   2.547435e+06
  -3.200597e+06   9.759715e+05
  -1.706178e+06  -8.687361e+05
   4.193179e+05  -1.700500e+06
   1.230532e+06  -1.059399e+06
   3.351084e+05   2.167271e+05
  -9.553180e+05   7.767013e+05
  -1.220579e+06   1.415089e+05
  -3.600294e+05  -7.859231e+05
   5.679370e+05  -7.702743e+05
   5.847425e+05   2.405656e+05
  -3.142054e+05   9.291510e+05
  -1.265248e+06   1.131844e+05
  -1.277488e+06  -1.740321e+06
  -1.735096e+04  -2.825352e+06
   1.811674e+06  -1.887559e+06
   2.863189e+06   4.166527e+05
   2.247608e+06   2.199853e+06
   4.346894e+05   2.242838e+06
  -1.085395e+06   1.030352e+06
  -1.226822e+06  -1.644303e+04
  -3.506302e+05  -5.517813e+04
   2.378988e+05   5.341862e+05
  -2.213271e+05   8.112810e+05
  -1.135082e+06   3.299942e+05
  -1.301544e+06  -4.842672e+05
  -3.411342e+05  -8.515046e+05
   7.886256e+05  -4.347552e+05
   7.924304e+05   3.305726e+05
  -4.966848e+05   6.360274e+05
  -1.796644e+06   5.301828e+04
  -1.647574e+06  -1.031999e+06
   2.423171e+04  -1.707625e+06
   1.759445e+06  -1.336197e+06
   2.040122e+06  -1.661139e+05
   7.998388e+05   8.365487e+05
  -6.210679e+05   8.606645e+05
  -9.076577e+05   4.042743e+04
   3.124757e+03  -6.580849e+05
   1.057513e+06  -4.273695e+05
   1.213895e+06   5.169273e+05
   3.700737e+05   1.169498e+06
  -6.590990e+05   8.534342e+05
  -9.483934e+05  -3.261248e+04
  -3.257291e+05  -4.908287e+05
   4.514931e+05  -5.197966e+04
   4.323958e+05   7.375118e+05
  -5.116623e+05   9.477616e+05
  -1.459866e+06   2.354415e+05
  -1.365073e+06  -8.586839e+05
  -1.915342e+05  -1.455932e+06
   1.012134e+06  -1.113135e+06
   1.208617e+06  -1.629344e+05
   4.088509e+05   5.972146e+05
  -4.541204e+05   6.025982e+05
  -5.632439e+05   2.057113e+04
   8.593034e+03  -4.481202e+05
   5.182349e+05  -3.281765e+05
   3.995892e+05   1.125367e+05
  -1.612387e+05   2.065062e+05
  -4.459127e+05  -2.787421e+05
   3.076597e+04  -8.042030e+05
   9.602476e+05  -6.331917e+05
   1.468102e+06   3.417352e+05
   9.609087e+05   1.429348e+06
  -2.531025e+05   1.769533e+06
  -1.243799e+06   1.099499e+06
  -1.362311e+06  -4.469575e+04
  -8.034525e+05  -8.222610e+05
  -2.642048e+05  -8.220364e+05
  -1.513936e+05  -3.804664e+05
  -2.272762e+05  -1.644898e+05
  -8.064674e+03  -4.117117e+05
   5.963257e+05  -6.539003e+05
   1.097983e+06  -2.914625e+05
   8.829647e+05   6.034939e+05
  -1.375504e+05   1.221917e+06
  -1.302627e+06   8.350028e+05
  -1.673683e+06  -3.980972e+05
  -8.440233e+05  -1.520456e+06
   6.496968e+05  -1.655816e+06
   1.746665e+06  -7.693999e+05
   1.756334e+06   3.855241e+05
   8.882569e+05   9.984286e+05
  -5.471320e+04   8.896789e+05
  -4.555016e+05   5.444057e+05
  -3.589305e+05   5.068924e+05
  -2.558334e+05   7.638069e+05
  -4.825968e+05   7.750786e+05
  -8.555868e+05   1.387946e+05
  -8.783801e+05  -8.483200e+05
  -3.018391e+05  -1.398096e+06
   5.312222e+05  -1.010546e+06
   9.454989e+05   1.743697e+04
   5.856627e+05   8.766240e+05
  -2.035412e+05   9.807073e+05
  -7.045083e+05   4.082961e+05
  -5.448429e+05  -2.918859e+05
  -3.999583e+04  -6.392214e+05
   2.064357e+05  -5.773846e+05
  -6.127656e+03  -3.849520e+05
  -2.572106e+05  -3.061363e+05
  -1.864192e+02  -2.976264e+05
   7.632015e+05  -1.343588e+05
   1.370232e+06   2.761203e+05
   1.123541e+06   7.385596e+05
   4.832875e+04   9.361786e+05
  -1.035522e+06   7.178083e+05
  -1.278287e+06   2.242575e+05
  -6.347159e+05  -2.161401e+05
   1.395358e+05  -3.197951e+05
   3.253806e+05  -7.610139e+04
  -4.663638e+04   1.993170e+05
  -3.869832e+05   1.344748e+05
  -3.118759e+05  -2.712117e+05
  -2.101016e+04  -5.666424e+05
   7.282221e+04  -3.555264e+05
  -1.208618e+05   1.506870e+05
  -3.162177e+05   3.060339e+05
  -2.128684e+05  -1.658871e+05
   2.104307e+05  -7.478741e+05
   6.878737e+05  -7.057379e+05
   8.366950e+05   1.417325e+04
   4.239336e+05   6.981448e+05
  -3.465938e+05   6.841058e+05
  -8.331702e+05   6.649332e+04
  -4.837722e+05  -4.881723e+05
   5.039531e+05  -4.663535e+05
   1.206700e+06   6.688828e+04
   8.652429e+05   6.401935e+05
  -2.706839e+05   8.082589e+05
  -1.149403e+06   4.646266e+05
  -1.007667e+06  -9.935463e+04
  -1.415919e+05  -4.122906e+05
   4.701294e+05  -2.305750e+05
   2.264927e+05   1.883643e+05
  -5.062718e+05   2.892427e+05
  -8.410366e+05  -2.077020e+05
  -3.162980e+05  -9.361360e+05
   6.448687e+05  -1.159407e+06
   1.187896e+06  -4.862304e+05
   8.737769e+05   6.638091e+05
   4.218725e+04   1.353246e+06
  -6.115422e+05   9.825828e+05
  -6.985191e+05  -9.606621e+04
  -3.440252e+05  -8.897070e+05
   1.045066e+05  -7.666499e+05
   3.876698e+05  -8.129217e+04
   4.014057e+05   3.208157e+05
   1.978685e+05   1.392204e+05
   8.713938e+03  -9.580254e+04
   7.235800e+04   1.679338e+05
   2.845502e+05   7.095871e+05
   1.912472e+05   8.272840e+05
  -4.290177e+05   2.803014e+05
  -1.082628e+06  -4.180137e+05
  -1.000509e+06  -6.825781e+05
  -1.149831e+05  -5.040033e+05
   7.334786e+05  -2.542357e+05
   7.673645e+05  -1.169449e+05
   1.944487e+05   4.306086e+03
  -1.510160e+05   1.490678e+05
   5.980063e+04   2.024174e+05
   2.923425e+05   1.436126e+05
  -1.111030e+04   1.052810e+05
  -6.095473e+05   9.323346e+04
  -7.534061e+05  -9.810841e+04
  -1.266192e+05  -5.097261e+05
   7.810668e+05  -7.503532e+05
   1.217714e+06  -3.834896e+05
   8.803339e+05   4.524096e+05
   7.852907e+04   1.063945e+06
  -6.140762e+05   9.305217e+05
  -7.963156e+05   2.633882e+05
  -4.794511e+05  -2.661871e+05
  -3.302366e+04  -2.670813e+05
   1.411904e+05   1.845949e+04
  -3.005374e+04   7.725270e+04
  -2.468663e+05  -2.580376e+05
  -1.745203e+05  -6.075105e+05
   1.910795e+05  -4.648773e+05
   5.091830e+05   1.969906e+05
   4.233359e+05   8.052408e+05
  -8.523028e+04   7.485557e+05
  -6.223118e+05   4.092111e+04
  -6.802079e+05  -6.767913e+05
  -1.258365e+05  -8.123473e+05
   5.772543e+05  -3.814261e+05
   7.666087e+05   1.495383e+05
   2.993519e+05   4.145851e+05
  -2.425596e+05   3.927618e+05
  -2.218473e+05   2.280583e+05
   2.649116e+05   5.771892e+04
   5.001711e+05   2.594601e+04
   5.926819e+04   2.171993e+05
  -6.465949e+05   4.584818e+05
  -8.844119e+05   3.850142e+05
  -4.644399e+05  -1.070665e+05
   1.307176e+05  -5.965305e+05
   3.816666e+05  -5.602275e+05
   2.350670e+05  -3.309367e+04
  -3.664000e+04   3.879686e+05
  -2.171123e+05   2.572433e+05
  -2.511808e+05  -2.055383e+05
  -1.376503e+05  -4.412640e+05
   8.394900e+04  -2.395079e+05
   2.791785e+05   9.055753e+04
   3.055143e+05   1.815606e+05
   1.720939e+05   3.836030e+04
   2.095528e+04  -5.128653e+04
  -6.020471e+04   8.648390e+04
  -1.206098e+05   3.054067e+05
  -2.188593e+05   3.117373e+05
  -2.914718e+05  -4.572633e+02
  -2.076258e+05  -3.945803e+05
   6.205052e+04  -4.923929e+05
   3.567308e+05  -1.651543e+05
   4.159768e+05   2.966311e+05
   1.087611e+05   4.657432e+05
  -3.718906e+05   2.240872e+05
  -5.949466e+05  -1.453667e+05
  -3.034641e+05  -3.086900e+05
   2.393498e+05  -2.168991e+05
   4.601265e+05  -5.611715e+04
   1.246909e+05   1.338995e+04
  -3.395051e+05  -3.591663e+04
  -3.247081e+05  -1.589483e+05
   2.115748e+05  -2.511135e+05
   6.737387e+05  -1.441083e+05
