
 $NMID
 id='ANONYMOUS ', fmtdat='(2E16.6)'
 volume=1.0
 tramp=1.0
 $END
  -4.199358e+07  -4.489300e+05
  -2.577348e+07  -2.412036e+07
   4.054020e+06  -2.763045e+07
   1.971843e+07  -1.291042e+07
   1.306954e+07   2.937890e+06
  -1.370926e+06   7.059124e+06
  -7.613273e+06   6.372333e+05
  -3.465378e+06  -7.018477e+06
   3.683142e+06  -8.426119e+06
   7.358678e+06  -2.690656e+06
   5.747230e+06   4.920803e+06
   6.977710e+05   7.246535e+06
  -3.382796e+06   1.980789e+06
  -2.456146e+06  -5.158786e+06
   2.644267e+06  -6.127131e+06
   6.229955e+06   4.094343e+05
   3.922410e+06   7.830651e+06
  -2.552718e+06   9.338149e+06
  -7.749188e+06   4.552468e+06
  -8.125838e+06  -1.918395e+06
  -4.400760e+06  -5.790677e+06
  -1.998424e+04  -5.878845e+06
   1.602798e+06  -3.763555e+06
  -1.396294e+05  -2.271713e+06
  -1.948583e+06  -3.042278e+06
   1.746369e+05  -4.542772e+06
   5.585238e+06  -3.626155e+06
   8.705734e+06   2.622816e+05
   5.633955e+06   3.896226e+06
  -6.941562e+05   4.144958e+06
  -4.016126e+06   1.535096e+06
  -2.112076e+06  -1.056798e+06
   1.668399e+06  -1.705823e+06
   3.356595e+06  -2.712580e+05
   2.221133e+06   2.337920e+06
  -1.274941e+05   4.116081e+06
  -1.922151e+06   2.848295e+06
  -2.014093e+06  -8.609223e+05
  -4.989339e+05  -2.896686e+06
   7.436713e+05  -5.529136e+05
  -1.828507e+05   2.988278e+06
  -2.266046e+06   2.335901e+06
  -2.190533e+06  -2.297514e+06
   1.167049e+06  -4.682333e+06
   4.482330e+06  -9.621039e+05
   3.675260e+06   4.908679e+06
  -1.125836e+06   6.254018e+06
  -5.667401e+06   1.857033e+06
  -6.050474e+06  -3.477894e+06
  -2.142306e+06  -5.112695e+06
   2.807472e+06  -2.768394e+06
   4.915274e+06   7.771193e+05
   2.673319e+06   2.736114e+06
  -1.595974e+06   1.981611e+06
  -3.665644e+06  -4.286530e+05
  -1.791829e+06  -1.975025e+06
   1.275162e+06  -1.131945e+06
   1.715617e+06   7.576466e+05
  -5.478008e+05   1.111133e+06
  -2.010439e+06  -5.325626e+05
  -3.411821e+05  -2.063214e+06
   2.784119e+06  -1.644961e+06
   4.021384e+06   4.290872e+05
   2.067541e+06   2.810571e+06
  -1.644792e+06   4.384206e+06
  -4.733796e+06   4.076389e+06
  -5.473634e+06   1.188204e+06
  -3.598467e+06  -3.000000e+06
  -5.988594e+05  -5.393778e+06
   1.272342e+06  -4.312628e+06
   1.161739e+06  -1.670789e+06
   4.660195e+05  -5.307845e+05
   9.143075e+05  -1.181273e+06
   2.301467e+06  -1.259561e+06
   2.899124e+06   5.209970e+05
   1.722763e+06   2.514627e+06
  -4.412669e+05   2.415652e+06
  -2.010627e+06   1.154264e+05
  -1.849039e+06  -2.357229e+06
   1.437309e+05  -2.976961e+06
   2.746859e+06  -1.302656e+06
   3.892267e+06   1.441652e+06
   2.473512e+06   3.350678e+06
  -2.121588e+05   3.329549e+06
  -1.768413e+06   2.020819e+06
  -1.601105e+06   9.911362e+05
  -1.471891e+06   8.638688e+05
  -2.746106e+06   7.119951e+05
  -4.187754e+06  -5.242564e+05
  -3.454538e+06  -2.567283e+06
  -2.196821e+05  -4.064753e+06
   3.203233e+06  -3.889090e+06
   4.270251e+06  -1.956633e+06
   2.591199e+06   6.909019e+05
  -2.041525e+04   2.332807e+06
  -1.328506e+06   1.803317e+06
  -5.344805e+05  -1.404906e+05
   1.164059e+06  -1.263945e+06
   1.815694e+06  -3.698116e+05
   7.750777e+05   1.145452e+06
  -6.039555e+05   1.130137e+06
  -6.150470e+05  -3.353191e+05
   7.367366e+05  -9.790525e+05
   1.804588e+06   5.798253e+05
   1.238628e+06   2.946298e+06
  -7.209583e+05   3.642855e+06
  -2.763340e+06   1.885450e+06
  -3.638500e+06  -9.066494e+05
  -2.782980e+06  -2.781544e+06
  -6.442094e+05  -2.826431e+06
   1.313400e+06  -1.516535e+06
   1.645758e+06  -1.819070e+05
   4.958774e+05   4.160863e+04
  -3.749909e+05  -7.413004e+05
   3.308006e+05  -1.265100e+06
   1.757942e+06  -5.827203e+05
   1.968603e+06   7.356354e+05
   4.657277e+05   1.304814e+06
  -1.125925e+06   6.272706e+05
  -1.005753e+06  -4.208079e+05
   7.506304e+05  -7.096296e+05
   2.330004e+06   5.455072e+04
   2.049883e+06   1.312263e+06
  -6.590305e+04   2.160990e+06
  -2.314807e+06   1.844369e+06
  -2.810646e+06   3.596593e+05
  -1.218935e+06  -1.189141e+06
   8.606953e+05  -1.407342e+06
   1.437792e+06  -1.741708e+05
   1.424706e+05   1.017353e+06
  -1.487295e+06   7.312728e+05
  -1.741563e+06  -6.999150e+05
  -4.740699e+05  -1.631974e+06
   9.790805e+05  -1.104999e+06
   1.291325e+06   1.517318e+05
   3.593196e+05   7.265417e+05
  -7.280704e+05   8.307766e+04
  -7.207697e+05  -1.030277e+06
   5.929307e+05  -1.417024e+06
   2.023291e+06  -5.273219e+05
   2.035664e+06   1.053149e+06
   4.077826e+05   2.059500e+06
  -1.381601e+06   1.663037e+06
  -1.709613e+06   2.777068e+05
  -5.621293e+05  -8.375025e+05
   6.226458e+05  -8.453973e+05
   7.023840e+05  -8.412848e+04
  -4.959600e+04   4.778777e+05
  -5.772783e+05   3.459294e+05
  -3.188580e+05  -8.230639e+04
   3.405572e+05  -8.789346e+04
   5.779822e+05   5.294795e+05
  -9.671011e+04   1.166067e+06
  -1.340250e+06   9.436057e+05
  -2.097359e+06  -3.701444e+05
  -1.492232e+06  -1.929578e+06
   1.874972e+05  -2.468919e+06
   1.619564e+06  -1.535463e+06
   1.790899e+06   2.932824e+04
   1.018568e+06   9.659891e+05
   3.866322e+05   8.541772e+05
   3.872957e+05   3.490522e+05
   5.050838e+05   2.698981e+05
   7.717347e+04   6.868962e+05
  -8.282657e+05   9.409319e+05
  -1.476904e+06   4.187986e+05
  -1.166011e+06  -7.309661e+05
   1.622389e+05  -1.579766e+06
   1.729841e+06  -1.185136e+06
   2.318914e+06   4.322468e+05
   1.235018e+06   2.078889e+06
  -8.894504e+05   2.387014e+06
  -2.473012e+06   1.141075e+06
  -2.424504e+06  -5.229575e+05
  -1.132427e+06  -1.322751e+06
   1.048426e+05  -1.079125e+06
   4.675080e+05  -6.448462e+05
   2.347292e+05  -7.593189e+05
   1.763600e+05  -1.225638e+06
   6.382985e+05  -1.230988e+06
   1.252206e+06  -3.089529e+05
   1.340732e+06   1.087381e+06
   5.725863e+05   1.915229e+06
  -6.259823e+05   1.461267e+06
  -1.308387e+06   3.560653e+04
  -8.621926e+05  -1.235844e+06
   2.986221e+05  -1.401330e+06
   1.070893e+06  -5.113643e+05
   8.062162e+05   5.508118e+05
  -1.715723e+04   9.999037e+05
  -4.048356e+05   8.048638e+05
  -2.564811e+04   4.686130e+05
   4.205353e+05   3.636353e+05
   5.065720e+04   3.993538e+05
  -1.112873e+06   2.397004e+05
  -2.025173e+06  -2.885683e+05
  -1.642579e+06  -9.840563e+05
  -5.221868e+04  -1.385710e+06
   1.502524e+06  -1.139136e+06
   1.810146e+06  -3.574259e+05
   8.695363e+05   3.836836e+05
  -2.193141e+05   5.269100e+05
  -4.858181e+05   8.049937e+04
   3.676381e+01  -3.660560e+05
   4.792939e+05  -2.505101e+05
   4.787842e+05   3.433415e+05
   1.907311e+05   7.555984e+05
   3.228092e+04   4.939661e+05
   1.425403e+05  -1.500010e+05
   3.322178e+05  -3.677199e+05
   2.951212e+05   2.222653e+05
  -1.666344e+05   1.028042e+06
  -8.946575e+05   1.074495e+06
  -1.292049e+06   1.369392e+05
  -7.855782e+05  -9.249393e+05
   4.123989e+05  -1.088125e+06
   1.224291e+06  -2.805200e+05
   7.395350e+05   5.965818e+05
  -6.832530e+05   6.783801e+05
  -1.639990e+06  -3.461308e+04
  -1.126209e+06  -8.361059e+05
   4.023064e+05  -1.064161e+06
   1.526265e+06  -6.083029e+05
   1.315453e+06   1.198153e+05
   1.814810e+05   5.346856e+05
  -6.446572e+05   3.152048e+05
  -3.684453e+05  -2.729680e+05
   6.240195e+05  -5.047820e+05
   1.199472e+06   1.222754e+05
   6.330509e+05   1.224510e+06
  -6.580040e+05   1.715941e+06
  -1.539318e+06   8.719401e+05
  -1.285271e+06  -7.850429e+05
  -2.166499e+05  -1.841268e+06
   7.402957e+05  -1.365068e+06
   9.558337e+05   1.264057e+05
   4.975952e+05   1.202794e+06
  -1.546375e+05   1.019875e+06
  -5.542545e+05   1.148482e+05
  -5.219851e+05  -3.869875e+05
  -2.149737e+05  -1.497751e+05
  -3.015715e+04   1.107018e+05
  -2.217637e+05  -2.723730e+05
  -5.057517e+05  -9.698776e+05
  -2.619306e+05  -1.105661e+06
   6.627880e+05  -4.164872e+05
   1.521318e+06   4.600128e+05
   1.367989e+06   8.370451e+05
   2.019986e+05   7.004739e+05
  -9.114179e+05   4.360301e+05
  -1.018726e+06   2.147881e+05
  -3.305343e+05  -2.736336e+04
   1.635813e+05  -2.288372e+05
  -1.822273e+04  -2.311171e+05
  -3.273511e+05  -1.183938e+05
  -3.245725e+04  -1.405456e+05
   7.320567e+05  -2.314552e+05
   1.063440e+06   1.948878e+04
   3.699141e+05   7.009817e+05
  -9.018757e+05   1.181945e+06
  -1.697331e+06   7.443391e+05
  -1.382735e+06  -4.640606e+05
  -2.722659e+05  -1.443941e+06
   7.603353e+05  -1.391850e+06
   1.069222e+06  -5.229819e+05
   6.806039e+05   2.594725e+05
   1.176530e+05   3.659031e+05
  -1.170371e+05   4.289532e+04
   6.365624e+04  -4.986904e+04
   3.311683e+05   3.560505e+05
   2.781932e+05   8.210508e+05
  -1.886429e+05   6.851537e+05
  -7.087153e+05  -1.495837e+05
  -7.364475e+05  -9.994934e+05
  -7.417244e+04  -1.051683e+06
   7.985907e+05  -2.174436e+05
   1.051066e+06   7.696998e+05
   3.342322e+05   1.109759e+06
  -7.331252e+05   6.645622e+05
  -1.121322e+06  -8.273223e+04
  -5.187220e+05  -5.930695e+05
   2.886523e+05  -6.535532e+05
   3.489231e+05  -3.651887e+05
  -2.938357e+05  -1.890247e+04
  -6.737607e+05   3.963386e+04
  -1.374514e+05  -3.069149e+05
   8.368292e+05  -7.045921e+05
   1.244282e+06  -5.872739e+05
   7.367413e+05   1.481202e+05
  -9.684788e+04   8.725582e+05
  -5.242379e+05   8.583295e+05
  -3.969267e+05   1.361300e+05
  -3.943012e+04  -5.068387e+05
   2.503378e+05  -4.258101e+05
   3.662345e+05   1.818080e+05
   2.583898e+05   5.892181e+05
  -6.314857e+04   4.057901e+05
  -3.994613e+05  -5.791770e+04
  -4.729279e+05  -2.599223e+05
  -2.456235e+05  -7.500087e+04
   1.593583e+04   1.276581e+05
   7.841318e+04  -1.241123e+04
   3.067659e+04  -3.878357e+05
   1.184814e+05  -5.311066e+05
   3.521063e+05  -1.650437e+05
   4.293016e+05   4.291874e+05
   1.047663e+05   6.717198e+05
  -4.334813e+05   3.090892e+05
  -6.599169e+05  -3.052875e+05
  -2.474521e+05  -5.990575e+05
   5.055925e+05  -3.708211e+05
   8.829973e+05   8.783234e+04
   4.818562e+05   3.838202e+05
  -2.995754e+05   3.854217e+05
  -6.448489e+05   2.055741e+05
  -2.296905e+05   1.237817e+04
   3.926972e+05  -4.930251e+04
   4.351052e+05   9.788369e+04
  -1.970711e+05   3.242155e+05
  -8.062350e+05   2.868022e+05
