
 $NMID
 id='ANONYMOUS ', fmtdat='(2E16.6)'
 volume=1.0
 tramp=1.0
 $END
   4.851911e+07   3.353617e+06
   2.732199e+07   3.102968e+07
  -7.910628e+06   3.194048e+07
  -2.404836e+07   1.191903e+07
  -1.400026e+07  -5.859040e+06
   2.860146e+06  -7.821269e+06
   8.418045e+06   8.738726e+05
   2.465322e+06   8.349346e+06
  -5.329907e+06   8.297630e+06
  -8.412243e+06   1.740837e+06
  -5.939395e+06  -5.827118e+06
  -3.222373e+05  -7.825003e+06
   3.778262e+06  -2.140018e+06
   2.262557e+06   5.297661e+06
  -3.448230e+06   5.982676e+06
  -6.827749e+06  -1.298553e+06
  -3.548428e+06  -9.094371e+06
   3.756350e+06  -1.017584e+07
   9.118174e+06  -4.605293e+06
   9.250323e+06   2.540266e+06
   5.056760e+06   6.946337e+06
  -1.474343e+05   7.261040e+06
  -2.635892e+06   4.673163e+06
  -1.037396e+06   2.236076e+06
   1.439867e+06   2.496422e+06
  -8.208408e+04   4.284344e+06
  -5.580654e+06   3.748874e+06
  -9.073150e+06  -2.939804e+05
  -6.067129e+06  -4.291193e+06
   4.383054e+05  -4.601104e+06
   3.935736e+06  -1.919441e+06
   2.325463e+06   5.921909e+05
  -1.061073e+06   1.315988e+06
  -2.753654e+06   3.650555e+05
  -2.165101e+06  -1.896189e+06
  -1.663196e+05  -4.009872e+06
   2.031236e+06  -3.247835e+06
   2.650702e+06   6.518868e+05
   9.307314e+05   3.362197e+06
  -9.089625e+05   1.222371e+06
  -3.622407e+04  -2.693240e+06
   2.402916e+06  -2.159461e+06
   2.092543e+06   2.823275e+06
  -2.128830e+06   5.153029e+06
  -5.705206e+06   5.354858e+05
  -3.940025e+06  -6.139498e+06
   1.989974e+06  -7.167225e+06
   6.584292e+06  -1.701748e+06
   6.145179e+06   4.234702e+06
   1.644823e+06   5.529050e+06
  -3.194645e+06   2.498333e+06
  -4.876851e+06  -1.377328e+06
  -2.300779e+06  -3.145146e+06
   2.085403e+06  -1.902260e+06
   3.963182e+06   9.083628e+05
   1.680319e+06   2.404445e+06
  -1.544888e+06   1.134793e+06
  -1.633276e+06  -9.503376e+05
   9.600263e+05  -8.855047e+05
   2.061061e+06   1.279938e+06
  -3.843922e+05   2.645166e+06
  -3.768099e+06   1.442499e+06
  -4.483773e+06  -1.189267e+06
  -1.921082e+06  -3.459831e+06
   1.954478e+06  -4.664445e+06
   5.013104e+06  -4.171750e+06
   5.833119e+06  -1.163074e+06
   3.897074e+06   3.259781e+06
   4.735281e+05   5.740672e+06
  -1.767028e+06   4.347044e+06
  -1.468669e+06   1.295149e+06
  -2.408130e+05   1.269741e+05
  -4.322859e+05   1.113553e+06
  -1.996079e+06   1.490412e+06
  -2.854034e+06  -2.199135e+05
  -1.809327e+06  -2.259956e+06
   2.558914e+05  -2.259013e+06
   1.747509e+06  -1.292302e+05
   1.661003e+06   2.219669e+06
  -1.767182e+05   2.906321e+06
  -2.789783e+06   1.350108e+06
  -4.084247e+06  -1.494599e+06
  -2.638411e+06  -3.669512e+06
   3.403418e+05  -3.738620e+06
   2.148384e+06  -2.220222e+06
   1.952069e+06  -9.189374e+05
   1.646920e+06  -6.565782e+05
   2.799728e+06  -4.465078e+05
   4.145985e+06   8.229982e+05
   3.281443e+06   2.765087e+06
  -1.817267e+03   4.021024e+06
  -3.303665e+06   3.693342e+06
  -4.236930e+06   1.845258e+06
  -2.578798e+06  -6.469532e+05
  -5.259297e+04  -2.269203e+06
   1.270327e+06  -1.810635e+06
   5.456292e+05   1.068564e+05
  -1.158860e+06   1.226479e+06
  -1.849544e+06   2.957500e+05
  -7.865193e+05  -1.203343e+06
   5.911239e+05  -1.086631e+06
   4.854552e+05   3.631193e+05
  -9.083378e+05   7.468650e+05
  -1.700817e+06  -1.024008e+06
  -7.240959e+05  -3.167110e+06
   1.293974e+06  -3.331681e+06
   2.908246e+06  -1.287428e+06
   3.302663e+06   1.290149e+06
   2.350466e+06   2.779842e+06
   4.381643e+05   2.666556e+06
  -1.308171e+06   1.416195e+06
  -1.593583e+06   1.436872e+05
  -4.838279e+05  -6.319856e+04
   3.278197e+05   7.483797e+05
  -4.307396e+05   1.262494e+06
  -1.833587e+06   4.818742e+05
  -1.924356e+06  -8.946641e+05
  -3.478343e+05  -1.354541e+06
   1.152260e+06  -5.342539e+05
   9.034970e+05   4.618147e+05
  -8.012584e+05   5.512589e+05
  -2.177736e+06  -2.806435e+05
  -1.788130e+06  -1.366659e+06
   2.344877e+05  -1.997558e+06
   2.328908e+06  -1.613653e+06
   2.749919e+06  -1.936644e+05
   1.140541e+06   1.262434e+06
  -9.479182e+05   1.394893e+06
  -1.491262e+06   1.069315e+05
  -1.235012e+05  -1.048453e+06
   1.510949e+06  -6.576783e+05
   1.662619e+06   8.043730e+05
   3.198024e+05   1.621807e+06
  -1.058215e+06   9.619172e+05
  -1.227041e+06  -2.892815e+05
  -2.530729e+05  -7.477686e+05
   7.552557e+05  -2.725382e+04
   6.726965e+05   1.059361e+06
  -6.341760e+05   1.376528e+06
  -2.007265e+06   4.455922e+05
  -1.961156e+06  -1.119840e+06
  -3.006633e+05  -2.050805e+06
   1.460377e+06  -1.561927e+06
   1.696637e+06  -1.621142e+05
   4.810343e+05   8.586733e+05
  -6.637660e+05   7.782640e+05
  -6.549286e+05   5.736603e+04
   9.442435e+04  -3.936188e+05
   5.181557e+05  -2.483025e+05
   2.010115e+05   6.209080e+04
  -3.809410e+05  -3.375209e+04
  -4.960419e+05  -6.194831e+05
   2.090495e+05  -1.143131e+06
   1.377470e+06  -8.406485e+05
   2.035728e+06   4.751693e+05
   1.372057e+06   1.966949e+06
  -2.980389e+05   2.392656e+06
  -1.641370e+06   1.375118e+06
  -1.693031e+06  -1.464799e+05
  -8.794134e+05  -9.349193e+05
  -3.296727e+05  -7.339993e+05
  -4.331576e+05  -2.967448e+05
  -5.501969e+05  -3.258961e+05
  -4.598069e+04  -7.253240e+05
   8.775588e+05  -8.634386e+05
   1.444254e+06  -3.002168e+05
   1.052053e+06   7.498272e+05
  -2.617505e+05   1.469639e+06
  -1.734760e+06   1.031207e+06
  -2.218521e+06  -5.430477e+05
  -1.068883e+06  -2.098301e+06
   1.041426e+06  -2.286652e+06
   2.509069e+06  -9.494865e+05
   2.306917e+06   6.850461e+05
   9.569313e+05   1.337476e+06
  -1.901438e+05   9.695685e+05
  -4.261930e+05   5.477546e+05
  -1.722066e+05   7.531620e+05
  -1.921538e+05   1.254898e+06
  -7.046276e+05   1.214931e+06
  -1.270754e+06   2.531992e+05
  -1.274628e+06  -1.121554e+06
  -4.784688e+05  -1.895802e+06
   6.712582e+05  -1.399898e+06
   1.272121e+06   3.799480e+04
   7.633637e+05   1.273976e+06
  -4.043377e+05   1.353396e+06
  -1.115722e+06   3.870711e+05
  -7.561276e+05  -6.608649e+05
   1.286173e+05  -1.014700e+06
   5.052033e+05  -7.466371e+05
   7.251165e+04  -4.227269e+05
  -4.102093e+05  -3.608464e+05
  -4.087544e+04  -3.873322e+05
   1.123146e+06  -1.686642e+05
   1.999452e+06   3.976206e+05
   1.556071e+06   1.064268e+06
  -6.411384e+04   1.384447e+06
  -1.577404e+06   1.050432e+06
  -1.800182e+06   2.284876e+05
  -8.060260e+05  -4.737343e+05
   2.672610e+05  -5.294992e+05
   4.912042e+05  -2.874691e+04
  -3.696142e+03   3.969266e+05
  -4.619332e+05   2.368222e+05
  -4.598707e+05  -3.571679e+05
  -1.990696e+05  -7.408326e+05
  -5.188319e+04  -4.873402e+05
  -1.364914e+05   1.096945e+05
  -3.011071e+05   3.104363e+05
  -2.686190e+05  -2.347251e+05
   1.853681e+05  -9.847035e+05
   9.267922e+05  -1.017154e+06
   1.326111e+06  -9.712773e+04
   7.789132e+05   9.454479e+05
  -4.583509e+05   1.086875e+06
  -1.245934e+06   2.580836e+05
  -7.049509e+05  -6.024471e+05
   7.085398e+05  -6.203889e+05
   1.575422e+06   1.313663e+05
   9.984409e+05   8.707080e+05
  -4.804091e+05   9.754618e+05
  -1.494986e+06   4.610141e+05
  -1.231191e+06  -2.047319e+05
  -1.304879e+05  -5.153468e+05
   6.452900e+05  -2.551982e+05
   3.596384e+05   2.995771e+05
  -6.132614e+05   4.902522e+05
  -1.174613e+06  -1.385350e+05
  -6.085787e+05  -1.210929e+06
   6.695996e+05  -1.670596e+06
   1.519777e+06  -8.192373e+05
   1.224350e+06   8.027109e+05
   1.407449e+05   1.792869e+06
  -7.744477e+05   1.272878e+06
  -9.116972e+05  -1.915137e+05
  -4.013942e+05  -1.190980e+06
   2.294488e+05  -9.575029e+05
   5.530564e+05  -6.947722e+04
   4.639161e+05   3.879219e+05
   1.730386e+05   1.399698e+05
   4.451337e+04  -9.477568e+04
   2.454275e+05   3.029848e+05
   4.658587e+05   9.769411e+05
   1.707387e+05   1.073489e+06
  -7.046375e+05   3.628778e+05
  -1.453786e+06  -5.099515e+05
  -1.258959e+06  -8.666890e+05
  -1.610587e+05  -6.968444e+05
   8.742758e+05  -3.943541e+05
   9.863273e+05  -1.557975e+05
   3.438863e+05   6.348366e+04
  -1.569080e+05   2.211519e+05
  -2.594230e+04   2.013246e+05
   2.776448e+05   1.011501e+05
   4.170227e+04   1.381280e+05
  -6.822183e+05   2.179474e+05
  -1.042293e+06  -4.951671e+04
  -3.901605e+05  -7.131151e+05
   8.909458e+05  -1.146612e+06
   1.714502e+06  -6.850472e+05
   1.382540e+06   4.905308e+05
   2.268105e+05   1.413635e+06
  -8.071766e+05   1.339444e+06
  -1.067400e+06   4.958138e+05
  -6.513619e+05  -2.560618e+05
  -1.176663e+05  -3.645051e+05
   8.532045e+04  -6.570766e+04
  -7.261487e+04   1.768459e+04
  -2.892150e+05  -3.689151e+05
  -2.241803e+05  -8.090114e+05
   2.030748e+05  -6.706372e+05
   6.819058e+05   1.449250e+05
   7.081557e+05   9.799045e+05
   7.538973e+04   1.039178e+06
  -7.694506e+05   2.229409e+05
  -1.014660e+06  -7.569546e+05
  -3.100465e+05  -1.100626e+06
   7.375243e+05  -6.504240e+05
   1.111223e+06   1.134893e+05
   5.020334e+05   6.263627e+05
  -3.131575e+05   6.608150e+05
  -3.856903e+05   3.470204e+05
   2.542214e+05   1.099806e+04
   6.507135e+05  -2.097646e+04
   1.337059e+05   3.127920e+05
  -8.414913e+05   6.521137e+05
  -1.260653e+06   4.975661e+05
  -7.432799e+05  -2.031321e+05
   1.251655e+05  -8.618346e+05
   5.744576e+05  -8.279649e+05
   4.297381e+05  -1.380270e+05
   4.031914e+04   4.846500e+05
  -2.558686e+05   4.259352e+05
  -3.534291e+05  -1.599730e+05
  -2.361248e+05  -5.837656e+05
   7.194761e+04  -4.228247e+05
   3.910820e+05   5.750194e+04
   4.598524e+05   2.933684e+05
   2.345589e+05   1.010874e+05
  -2.292390e+04  -1.513686e+05
  -7.019185e+04  -4.035706e+04
   1.730781e+03   3.639496e+05
  -7.892390e+04   5.566615e+05
  -3.382795e+05   2.074998e+05
  -4.500906e+05  -4.033486e+05
  -1.339998e+05  -6.623983e+05
   4.204627e+05  -3.041429e+05
   6.571379e+05   3.034232e+05
   2.384082e+05   5.832196e+05
  -5.163466e+05   3.476553e+05
  -8.792786e+05  -1.050707e+05
  -4.664324e+05  -3.919075e+05
   3.091003e+05  -3.890984e+05
   6.490637e+05  -2.057145e+05
   2.496490e+05  -5.634152e+03
  -3.546678e+05   6.450966e+04
  -4.130507e+05  -7.390713e+04
   1.726689e+05  -2.930709e+05
   7.513586e+05  -2.602532e+05
