
 $NMID
 id='ANONYMOUS ', fmtdat='(2E16.6)'
 volume=1.0
 tramp=1.0
 $END
   4.253865e+07  -6.042172e+05
   2.677339e+07   2.421446e+07
  -3.646398e+06   2.837276e+07
  -2.001104e+07   1.328727e+07
  -1.339061e+07  -3.132457e+06
   1.421174e+06  -7.270546e+06
   7.795598e+06  -5.360746e+05
   3.465238e+06   7.205276e+06
  -3.828268e+06   8.465433e+06
  -7.477820e+06   2.681093e+06
  -5.823691e+06  -4.852317e+06
  -7.855890e+05  -7.196746e+06
   3.308988e+06  -2.061043e+06
   2.427915e+06   5.030455e+06
  -2.677065e+06   6.076984e+06
  -6.316605e+06  -4.012956e+05
  -4.035558e+06  -7.862906e+06
   2.463184e+06  -9.456422e+06
   7.724462e+06  -4.750369e+06
   8.234168e+06   1.694370e+06
   4.668353e+06   5.682145e+06
   2.939672e+05   6.010042e+06
  -1.565172e+06   4.031086e+06
  -8.757092e+04   2.392020e+06
   1.726494e+06   2.895501e+06
  -1.369562e+05   4.333207e+06
  -5.343241e+06   3.607766e+06
  -8.519234e+06  -8.904810e+04
  -5.664537e+06  -3.713168e+06
   4.902284e+05  -4.076568e+06
   3.790435e+06  -1.603978e+06
   2.024944e+06   8.646861e+05
  -1.535517e+06   1.488745e+06
  -3.106755e+06   2.208387e+05
  -2.092450e+06  -2.155009e+06
   3.066355e+04  -3.916035e+06
   1.781269e+06  -2.883770e+06
   2.057972e+06   6.574984e+05
   6.885095e+05   2.823195e+06
  -6.332925e+05   7.123886e+05
   1.447406e+05  -2.798255e+06
   2.224361e+06  -2.277622e+06
   2.220194e+06   2.324855e+06
  -1.191230e+06   4.813483e+06
  -4.657362e+06   1.109095e+06
  -3.888061e+06  -4.919546e+06
   1.034839e+06  -6.410380e+06
   5.683743e+06  -1.994961e+06
   6.054189e+06   3.434064e+06
   2.107165e+06   5.097555e+06
  -2.812205e+06   2.727144e+06
  -4.866313e+06  -8.229589e+05
  -2.615847e+06  -2.766718e+06
   1.637911e+06  -2.007458e+06
   3.701138e+06   4.186771e+05
   1.810524e+06   2.000357e+06
  -1.277451e+06   1.159784e+06
  -1.687481e+06  -7.672245e+05
   6.416468e+05  -1.107581e+06
   2.093316e+06   6.377242e+05
   3.053348e+05   2.240488e+06
  -2.915627e+06   1.755141e+06
  -4.127006e+06  -4.443755e+05
  -2.118485e+06  -2.856688e+06
   1.554752e+06  -4.378013e+06
   4.575868e+06  -4.074713e+06
   5.365889e+06  -1.275428e+06
   3.629398e+06   2.863886e+06
   6.803305e+05   5.310872e+06
  -1.276186e+06   4.285038e+06
  -1.232931e+06   1.606650e+06
  -4.667755e+05   3.966029e+05
  -7.815982e+05   1.058924e+06
  -2.110286e+06   1.245128e+06
  -2.754159e+06  -4.131701e+05
  -1.674932e+06  -2.346882e+06
   3.857656e+05  -2.281779e+06
   1.889781e+06  -9.483696e+04
   1.758318e+06   2.264364e+06
  -1.211736e+05   2.876920e+06
  -2.645702e+06   1.313406e+06
  -3.837317e+06  -1.326213e+06
  -2.526380e+06  -3.252899e+06
   1.207902e+05  -3.334597e+06
   1.732484e+06  -2.085667e+06
   1.623539e+06  -1.024825e+06
   1.486579e+06  -8.420143e+05
   2.707561e+06  -6.782291e+05
   4.105339e+06   5.244183e+05
   3.376166e+06   2.514235e+06
   2.102428e+05   3.963506e+06
  -3.108401e+06   3.783877e+06
  -4.124184e+06   1.919817e+06
  -2.508824e+06  -6.300878e+05
  -1.366989e+04  -2.234539e+06
   1.251485e+06  -1.755041e+06
   5.165005e+05   1.208090e+05
  -1.117307e+06   1.230619e+06
  -1.774486e+06   3.713683e+05
  -7.775687e+05  -1.110380e+06
   5.762407e+05  -1.091492e+06
   5.784519e+05   3.451708e+05
  -7.767440e+05   9.393134e+05
  -1.810158e+06  -6.486232e+05
  -1.167808e+06  -2.972411e+06
   8.251965e+05  -3.571428e+06
   2.785707e+06  -1.761611e+06
   3.531549e+06   9.700574e+05
   2.640228e+06   2.733476e+06
   5.891469e+05   2.731896e+06
  -1.269382e+06   1.463530e+06
  -1.587679e+06   1.796744e+05
  -4.820221e+05  -4.079586e+04
   3.641221e+05   7.230282e+05
  -3.257133e+05   1.246486e+06
  -1.728826e+06   5.787062e+05
  -1.934668e+06  -7.287284e+05
  -4.517266e+05  -1.289197e+06
   1.104502e+06  -6.074721e+05
   9.659045e+05   4.209328e+05
  -7.554065e+05   6.729148e+05
  -2.264713e+06  -9.625758e+04
  -1.957237e+06  -1.301424e+06
   9.961882e+04  -2.089136e+06
   2.261671e+06  -1.770167e+06
   2.734050e+06  -3.385787e+05
   1.191921e+06   1.165568e+06
  -8.365839e+05   1.386568e+06
  -1.413485e+06   1.817997e+05
  -1.522236e+05  -9.937110e+05
   1.449250e+06  -7.159624e+05
   1.697518e+06   6.914904e+05
   4.459088e+05   1.599555e+06
  -9.757983e+05   1.066770e+06
  -1.263428e+06  -1.704192e+05
  -3.390458e+05  -7.222976e+05
   7.194736e+05  -8.320436e+04
   7.064670e+05   1.002911e+06
  -5.716738e+05   1.378745e+06
  -1.963750e+06   5.166600e+05
  -1.981041e+06  -1.021131e+06
  -3.970880e+05  -2.006460e+06
   1.351310e+06  -1.620767e+06
   1.669911e+06  -2.639808e+05
   5.418789e+05   8.229276e+05
  -6.127918e+05   8.201564e+05
  -6.744659e+05   7.662862e+04
   6.542552e+04  -4.540030e+05
   5.592169e+05  -3.123119e+05
   2.822176e+05   9.150521e+04
  -3.576329e+05   7.115356e+04
  -5.647304e+05  -5.380634e+05
   1.061906e+05  -1.144932e+06
   1.311531e+06  -9.157525e+05
   2.041299e+06   3.645092e+05
   1.451021e+06   1.878614e+06
  -1.868275e+05   2.396938e+06
  -1.581742e+06   1.478028e+06
  -1.734944e+06  -4.723390e+04
  -9.643583e+05  -9.406298e+05
  -3.524798e+05  -8.076006e+05
  -3.797696e+05  -3.145417e+05
  -5.113617e+05  -2.587452e+05
  -8.340478e+04  -6.773342e+05
   8.138306e+05  -9.138730e+05
   1.438513e+06  -3.939085e+05
   1.117897e+06   7.167033e+05
  -1.768468e+05   1.526232e+06
  -1.687886e+06   1.138463e+06
  -2.249610e+06  -4.297578e+05
  -1.191293e+06  -2.030652e+06
   8.801989e+05  -2.328586e+06
   2.421456e+06  -1.102819e+06
   2.358556e+06   5.299814e+05
   1.079730e+06   1.300406e+06
  -1.245409e+05   1.038683e+06
  -4.530071e+05   6.032734e+05
  -2.061245e+05   7.262978e+05
  -1.538366e+05   1.198012e+06
  -6.193676e+05   1.208327e+06
  -1.222407e+06   3.065365e+05
  -1.304389e+06  -1.054923e+06
  -5.557195e+05  -1.860113e+06
   6.080152e+05  -1.418328e+06
   1.272086e+06  -2.943729e+04
   8.367681e+05   1.211087e+06
  -3.017584e+05   1.369350e+06
  -1.061469e+06   4.908520e+05
  -7.963893e+05  -5.546128e+05
   2.446369e+04  -9.908767e+05
   4.126614e+05  -7.899742e+05
   3.657833e+04  -4.529145e+05
  -4.090768e+05  -3.481445e+05
  -4.987621e+04  -3.852648e+05
   1.089088e+06  -2.331240e+05
   1.978343e+06   2.810710e+05
   1.599161e+06   9.639678e+05
   4.385178e+04   1.361246e+06
  -1.471638e+06   1.116705e+06
  -1.768973e+06   3.405117e+05
  -8.495271e+05  -3.902112e+05
   2.152146e+05  -5.217989e+05
   4.795096e+05  -7.431803e+04
   8.987029e+03   3.613532e+05
  -4.599363e+05   2.425869e+05
  -4.663690e+05  -3.327459e+05
  -1.930945e+05  -7.249109e+05
  -4.018063e+04  -4.732414e+05
  -1.418812e+05   1.376943e+05
  -3.206310e+05   3.431809e+05
  -2.852073e+05  -2.185358e+05
   1.599189e+05  -9.918587e+05
   8.694192e+05  -1.045483e+06
   1.263263e+06  -1.464776e+05
   7.743877e+05   8.912715e+05
  -3.954634e+05   1.066533e+06
  -1.190413e+06   2.859343e+05
  -7.174712e+05  -5.758078e+05
   6.685210e+05  -6.579091e+05
   1.592192e+06   4.423501e+04
   1.080858e+06   8.249672e+05
  -4.077628e+05   1.030902e+06
  -1.489661e+06   5.724716e+05
  -1.272909e+06  -1.316645e+05
  -1.686197e+05  -5.204532e+05
   6.309523e+05  -3.011458e+05
   3.630634e+05   2.667220e+05
  -5.983611e+05   4.917697e+05
  -1.160872e+06  -1.111711e+05
  -6.208587e+05  -1.179493e+06
   6.262874e+05  -1.662642e+06
   1.485121e+06  -8.492333e+05
   1.244990e+06   7.585912e+05
   2.086296e+05   1.783733e+06
  -7.230102e+05   1.318211e+06
  -9.294837e+05  -1.315076e+05
  -4.751153e+05  -1.172899e+06
   1.631358e+05  -9.898581e+05
   5.429119e+05  -1.086781e+05
   4.986459e+05   3.785400e+05
   1.998481e+05   1.476596e+05
   3.354519e+04  -1.068395e+05
   2.282510e+05   2.631375e+05
   4.948668e+05   9.413697e+05
   2.431790e+05   1.076816e+06
  -6.545260e+05   4.078759e+05
  -1.473859e+06  -4.486070e+05
  -1.318049e+06  -8.186743e+05
  -1.952861e+05  -6.821790e+05
   8.769191e+05  -4.185401e+05
   9.875197e+05  -2.029460e+05
   3.293840e+05   2.744660e+04
  -1.556039e+05   2.209114e+05
   6.317936e+03   2.251836e+05
   3.053764e+05   1.156864e+05
   3.466487e+04   1.335686e+05
  -6.982510e+05   2.217850e+05
  -1.030984e+06  -1.550030e+04
  -3.730886e+05  -6.732126e+05
   8.627246e+05  -1.146640e+06
   1.648290e+06  -7.326597e+05
   1.349280e+06   4.377731e+05
   2.669501e+05   1.396658e+06
  -7.377214e+05   1.354683e+06
  -1.033274e+06   5.138112e+05
  -6.557561e+05  -2.472131e+05
  -1.182430e+05  -3.525751e+05
   1.023902e+05  -4.212302e+04
  -6.842243e+04   4.409392e+04
  -3.188112e+05  -3.505836e+05
  -2.665065e+05  -7.985964e+05
   1.796614e+05  -6.654222e+05
   6.819355e+05   1.397890e+05
   7.163825e+05   9.597683e+05
   8.286342e+04   1.014806e+06
  -7.638209e+05   2.164702e+05
  -1.017723e+06  -7.361672e+05
  -3.308313e+05  -1.072901e+06
   7.051017e+05  -6.504655e+05
   1.090163e+06   7.428532e+04
   5.120317e+05   5.775519e+05
  -2.751488e+05   6.421714e+05
  -3.439847e+05   3.606727e+05
   2.753536e+05   1.999077e+04
   6.505067e+05  -3.889159e+04
   1.371338e+05   2.973510e+05
  -8.117538e+05   6.827829e+05
  -1.216610e+06   5.686696e+05
  -7.261476e+05  -1.444036e+05
   9.065868e+04  -8.489128e+05
   5.125589e+05  -8.401968e+05
   3.890187e+05  -1.427846e+05
   4.074351e+04   4.856659e+05
  -2.382748e+05   4.164012e+05
  -3.504947e+05  -1.693464e+05
  -2.520082e+05  -5.701601e+05
   5.498503e+04  -3.987183e+05
   3.857796e+05   5.253944e+04
   4.643336e+05   2.549434e+05
   2.410581e+05   7.682564e+04
  -2.254579e+04  -1.270235e+05
  -8.327203e+04   8.498729e+02
  -2.249995e+04   3.654857e+05
  -9.574154e+04   5.140972e+05
  -3.287760e+05   1.703690e+05
  -4.207438e+05  -4.014898e+05
  -1.140320e+05  -6.422245e+05
   4.141819e+05  -3.013846e+05
   6.419131e+05   2.876080e+05
   2.424224e+05   5.754127e+05
  -4.912321e+05   3.624852e+05
  -8.583948e+05  -7.831867e+04
  -4.696259e+05  -3.700698e+05
   2.866588e+05  -3.793324e+05
   6.227775e+05  -2.077714e+05
   2.274989e+05  -1.689007e+04
  -3.693398e+05   4.907840e+04
  -4.139377e+05  -8.840403e+04
   1.873057e+05  -3.058555e+05
   7.707010e+05  -2.727562e+05
