
 $NMID
 id='ANONYMOUS ', fmtdat='(2E16.6)'
 volume=1.0
 tramp=1.0
 $END
  -2.081326e+07  -3.041869e+06
  -8.516234e+06  -1.809354e+07
   8.555349e+06  -1.447019e+07
   1.257777e+07   1.495454e+05
   3.775144e+06   8.039828e+06
  -4.221442e+06   3.941274e+06
  -3.631164e+06  -2.944087e+06
   1.287617e+06  -4.388652e+06
   4.100882e+06  -1.416282e+06
   3.683121e+06   1.590240e+06
   1.702102e+06   3.013463e+06
  -7.099063e+05   2.843520e+06
  -2.089486e+06   1.037606e+06
  -9.300307e+05  -9.319423e+05
   1.539184e+06  -6.016917e+05
   2.032952e+06   1.875352e+06
  -3.171676e+05   3.467296e+06
  -2.941705e+06   2.479032e+06
  -3.803196e+06   2.951718e+05
  -3.392206e+06  -1.615178e+06
  -2.228104e+06  -3.324154e+06
   2.483305e+05  -4.271291e+06
   3.118602e+06  -2.818054e+06
   3.606977e+06   4.936910e+05
   1.100889e+06   2.239275e+06
  -1.148323e+06   6.543164e+05
  -3.772192e+05  -1.593328e+06
   1.911775e+06  -1.254493e+06
   2.591977e+06   1.073980e+06
   1.248869e+06   2.600884e+06
  -3.803496e+05   2.447335e+06
  -1.460731e+06   1.625054e+06
  -2.071551e+06   5.450586e+05
  -1.665929e+06  -7.691995e+05
  -1.406583e+05  -1.192219e+06
   7.040124e+05   3.494882e+04
  -5.648564e+05   1.199022e+06
  -2.211772e+06   2.100296e+05
  -1.591180e+06  -1.846943e+06
   5.420106e+05  -2.141813e+06
   1.126486e+06  -6.899357e+05
  -1.009857e+05  -2.863145e+05
  -1.280166e+05  -1.627470e+06
   2.124816e+06  -1.909765e+06
   3.619309e+06   5.275482e+05
   1.815286e+06   3.189363e+06
  -1.385720e+06   2.975714e+06
  -2.465621e+06   4.998711e+05
  -1.003645e+06  -1.263843e+06
   6.696327e+05  -1.032416e+06
   1.031096e+06   1.584511e+05
   3.623971e+05   1.147795e+06
  -7.387607e+05   1.423988e+06
  -1.701322e+06   5.937981e+05
  -1.554281e+06  -9.811979e+05
  -1.252487e+05  -1.688403e+06
   9.197861e+05  -6.296546e+05
   1.369379e+05   5.675910e+05
  -1.169953e+06  -1.554785e+05
  -5.870516e+05  -1.950605e+06
   1.617145e+06  -2.061443e+06
   2.694534e+06   2.738600e+04
   1.488936e+06   1.856810e+06
  -1.329178e+05   1.736517e+06
  -5.031810e+05   8.183590e+05
  -4.042185e+05   5.686771e+05
  -9.220473e+05   4.370597e+05
  -1.194257e+06  -4.697652e+05
  -1.023696e+05  -1.199418e+06
   1.283550e+06  -3.816107e+05
   1.015386e+06   1.228505e+06
  -7.328880e+05   1.578262e+06
  -1.865848e+06   2.235981e+05
  -1.273774e+06  -1.251316e+06
   7.861543e+04  -1.530333e+06
   8.925665e+05  -8.450270e+05
   9.163436e+05  -6.799871e+03
   4.744437e+05   5.243227e+05
  -1.058716e+05   4.829979e+05
  -3.226404e+05  -1.373950e+05
   1.973535e+05  -6.386757e+05
   9.214089e+05  -2.065390e+05
   8.237535e+05   8.385658e+05
  -1.680414e+05   1.268688e+06
  -9.787689e+05   6.226703e+05
  -8.782046e+05  -2.423900e+05
  -3.130157e+05  -5.059352e+05
   3.832979e+04  -3.535514e+05
   1.525593e+05  -2.387795e+05
   1.938659e+05  -1.086478e+05
   1.942994e+04   1.098769e+05
  -3.031546e+05   7.500310e+04
  -2.456469e+05  -2.961423e+05
   3.040019e+05  -4.243928e+05
   6.067094e+05   8.895960e+03
   1.772117e+05   3.895432e+05
  -3.401048e+05   1.328438e+05
  -1.686420e+05  -3.017420e+05
   3.429329e+05  -1.830594e+05
   3.748013e+05   2.547355e+05
   3.318946e+04   3.100423e+05
   1.311525e+04   1.172586e+05
   1.950110e+05   3.334064e+05
  -1.886341e+05   7.412646e+05
  -1.010304e+06   4.032958e+05
  -1.130213e+06  -6.851603e+05
  -1.407616e+05  -1.292965e+06
   8.742163e+05  -7.035584e+05
   8.647807e+05   2.555160e+05
   1.937586e+05   5.026652e+05
  -1.673200e+05   1.529685e+05
  -6.617160e+04  -3.100697e+04
  -3.362969e+03   6.601697e+04
  -8.295402e+04   2.026642e+04
   5.002535e+03  -1.740809e+05
   2.335868e+05  -1.281558e+05
   2.601392e+05   1.585744e+05
   8.032028e+04   2.999988e+05
  -9.622839e+03   2.276030e+05
  -2.709475e+04   2.243266e+05
  -2.437008e+05   2.891014e+05
  -5.438471e+05   1.123003e+05
  -4.845881e+05  -2.735949e+05
  -5.848253e+04  -4.333580e+05
   2.136102e+05  -2.396340e+05
   9.454560e+04  -8.058378e+04
  -3.591904e+04  -1.806816e+05
   1.247977e+05  -2.445706e+05
   3.109929e+05  -2.925695e+04
   2.027115e+05   2.071405e+05
  -2.340978e+04   1.547374e+05
  -3.593118e+04  -3.816726e+04
   1.050580e+05  -6.065481e+04
   1.355167e+05   6.124108e+04
   5.832922e+04   1.192911e+05
   3.798419e+04   1.270824e+05
   2.595932e+04   2.024861e+05
  -1.207461e+05   2.422552e+05
  -2.873188e+05   8.577105e+04
  -2.434888e+05  -1.341659e+05
  -5.042147e+04  -1.616998e+05
   2.522366e+04  -3.918317e+04
  -5.586248e+04  -1.569696e+04
  -9.456343e+04  -1.166754e+05
  -3.033802e+04  -1.547460e+05
   1.358356e+04  -1.115773e+05
   4.223889e+04  -1.366968e+05
   1.843320e+05  -1.808742e+05
   3.476833e+05  -2.505150e+04
   2.522930e+05   2.718457e+05
  -9.455136e+04   3.451573e+05
  -3.059640e+05   7.211947e+04
  -1.512127e+05  -2.051575e+05
   1.257247e+05  -1.770542e+05
   2.028268e+05   2.963570e+04
   1.047004e+05   1.470648e+05
   1.404862e+04   1.651700e+05
  -6.822962e+04   1.824764e+05
  -1.993221e+05   1.258262e+05
  -2.523939e+05  -7.182747e+04
  -1.117369e+05  -2.186278e+05
   4.843910e+04  -1.255129e+05
   5.576201e+03   2.743052e+04
  -1.061075e+05  -5.710659e+04
   1.710917e+04  -2.717379e+05
   3.126980e+05  -2.234535e+05
   3.792385e+05   1.370888e+05
   7.507275e+04   3.964436e+05
  -2.625517e+05   2.707658e+05
  -3.047922e+05  -3.188569e+04
  -1.291210e+05  -1.844722e+05
   2.266694e+04  -1.681492e+05
   1.066656e+05  -1.291088e+05
   1.852231e+05  -6.747136e+04
   1.912561e+05   7.642585e+04
   4.120381e+04   1.970877e+05
  -1.421693e+05   1.484747e+05
  -1.626535e+05   1.331391e+03
  -4.224365e+04  -5.413627e+04
   2.793617e+04  -4.026867e+03
  -1.408233e+04   2.320171e+03
  -4.803171e+04  -7.535299e+04
   3.530729e+02  -1.161348e+05
   6.339343e+04  -5.671197e+04
   7.703556e+04   2.482618e+04
   6.258416e+04   6.524390e+04
   3.681603e+04   9.121790e+04
  -2.102061e+04   1.067760e+05
  -8.344724e+04   5.909300e+04
  -8.285904e+04  -3.776877e+04
  -3.484404e+04  -8.327034e+04
  -2.974130e+04  -4.815995e+04
  -6.900888e+04  -2.557918e+04
  -4.123481e+04  -6.693278e+04
   8.708395e+04  -9.062852e+04
   1.855557e+05  -2.670167e+04
   1.405294e+05   6.198667e+04
   1.254064e+04   8.798871e+04
  -7.071281e+04   6.792586e+04
  -8.184589e+04   5.293112e+04
  -6.373361e+04   2.558188e+04
  -2.304982e+04  -3.192599e+04
   3.883030e+04  -5.391569e+04
   6.107516e+04   6.977457e+03
   4.681290e+03   6.691849e+04
  -5.558914e+04   2.958123e+04
  -3.533099e+04  -4.118346e+04
   1.096114e+04  -1.469457e+04
  -2.763790e+04   7.679553e+04
  -1.200328e+05   6.761629e+04
  -1.198161e+05  -7.690701e+04
   9.272497e+03  -1.890059e+05
   1.327475e+05  -1.372663e+05
   1.367099e+05   3.505303e+03
   5.629710e+04   8.768770e+04
  -2.343400e+04   8.291029e+04
  -7.332008e+04   3.790707e+04
  -7.417862e+04  -2.567417e+04
   1.249330e+04  -8.710884e+04
   1.447659e+05  -7.551742e+04
   1.758164e+05   3.862610e+04
   3.631433e+04   1.511812e+05
  -1.339559e+05   1.359941e+05
  -1.512615e+05   2.100993e+04
  -3.223693e+04  -5.110859e+04
   4.627607e+04  -2.173793e+04
  -3.222705e+02   2.760736e+04
  -7.903412e+04   1.615765e+04
  -8.436679e+04  -4.037771e+04
  -2.583228e+04  -9.044314e+04
   3.776592e+04  -1.099787e+05
   8.521803e+04  -7.849987e+04
   1.048217e+05   1.957082e+04
   6.409750e+04   1.282738e+05
  -2.957418e+04   1.359065e+05
  -9.540993e+04   1.660724e+04
  -6.791000e+04  -1.065245e+05
   1.614710e+04  -1.057955e+05
   6.776318e+04  -8.949998e+03
   5.332841e+04   5.492308e+04
   1.116816e+04   3.358761e+04
  -1.135575e+04  -4.130712e+03
   1.627210e+03   9.568762e+03
   3.237510e+04   5.393873e+04
   3.535565e+04   7.029272e+04
  -2.561185e+04   4.179766e+04
  -1.139214e+05  -4.977013e+03
  -1.322754e+05  -4.225422e+04
  -4.235766e+04  -5.870644e+04
   6.622805e+04  -5.470110e+04
   8.452941e+04  -3.848450e+04
   2.848560e+04  -1.866587e+04
   1.536342e+03   3.969161e+03
   3.353524e+04   2.823095e+04
   4.625070e+04   4.196635e+04
  -1.154008e+04   3.545365e+04
  -8.111030e+04   1.673924e+04
  -8.197526e+04  -5.470352e+03
  -1.676453e+04  -3.896187e+04
   5.542468e+04  -7.822596e+04
   9.706831e+04  -7.616819e+04
   9.698365e+04   3.409575e+03
   4.493124e+04   1.077881e+05
  -4.082797e+04   1.311418e+05
  -9.313996e+04   4.885959e+04
  -6.404401e+04  -4.032000e+04
   3.330271e+03  -4.276892e+04
   2.561732e+04   9.225740e+03
  -9.523641e+03   1.800805e+04
  -3.740869e+04  -3.444466e+04
  -1.580793e+04  -7.026667e+04
   2.660795e+04  -3.462785e+04
   4.633325e+04   3.500408e+04
   3.521908e+04   7.077659e+04
   1.818980e+03   5.331251e+04
  -4.507400e+04   7.074319e+03
  -7.346350e+04  -4.118966e+04
  -4.010711e+04  -7.002441e+04
   4.131198e+04  -5.860611e+04
   8.806269e+04  -8.208760e+03
   4.786022e+04   4.351107e+04
  -2.296899e+04   5.490536e+04
  -3.111639e+04   2.399297e+04
   2.603403e+04  -1.234638e+04
   6.129902e+04  -1.639379e+04
   2.098544e+04   1.901454e+04
  -4.969980e+04   6.396898e+04
  -7.776486e+04   7.052157e+04
  -5.122978e+04   1.725010e+04
  -1.074980e+04  -5.514830e+04
   1.278627e+04  -7.512390e+04
   1.828562e+04  -2.357148e+04
   1.056241e+04   3.669023e+04
  -8.933616e+03   3.760427e+04
  -2.883084e+04  -9.839619e+03
  -2.970604e+04  -3.999687e+04
  -6.192405e+03  -2.462876e+04
   2.378404e+04   1.363045e+03
   3.625332e+04   3.482617e+03
   2.351723e+04  -6.839861e+03
  -4.237985e+02  -3.395881e+03
  -1.409067e+04   1.276870e+04
  -1.041592e+04   2.299376e+04
  -4.284274e+03   1.919934e+04
  -1.160044e+04   3.635017e+03
  -2.230430e+04  -2.010847e+04
  -9.505015e+03  -3.812989e+04
   2.814960e+04  -2.747074e+04
   5.115437e+04   1.259044e+04
   2.423655e+04   4.608099e+04
  -3.299506e+04   3.978980e+04
  -6.280393e+04   5.369881e+03
  -3.712003e+04  -1.992240e+04
   1.071182e+04  -2.268764e+04
   2.846326e+04  -1.831265e+04
   4.757105e+03  -1.653197e+04
  -2.398370e+04  -1.275016e+04
  -1.845078e+04  -1.006842e+04
   2.156363e+04  -1.681125e+04
   5.818935e+04  -1.901932e+04
