
 $NMID
 id='ANONYMOUS ', fmtdat='(2E16.6)'
 volume=1.0
 tramp=1.0
 $END
   5.146253e+07   5.485019e+05
   3.084620e+07   3.146775e+07
  -6.581659e+06   3.448466e+07
  -2.499378e+07   1.384015e+07
  -1.523391e+07  -5.742451e+06
   2.720514e+06  -8.518978e+06
   9.044905e+06   6.621824e+05
   2.933576e+06   8.835740e+06
  -5.393339e+06   8.965583e+06
  -8.867291e+06   2.162182e+06
  -6.528443e+06  -5.805707e+06
  -7.277850e+05  -8.141450e+06
   3.802915e+06  -2.463309e+06
   2.548366e+06   5.350938e+06
  -3.412939e+06   6.370452e+06
  -7.294873e+06  -1.074234e+06
  -4.195331e+06  -9.418830e+06
   3.438444e+06  -1.092805e+07
   9.340283e+06  -5.379516e+06
   9.888278e+06   2.075561e+06
   5.824179e+06   6.961292e+06
   4.021341e+05   7.723533e+06
  -2.521863e+06   5.253659e+06
  -1.200322e+06   2.515844e+06
   1.393467e+06   2.440956e+06
   1.051304e+05   4.300162e+06
  -5.480619e+06   4.121282e+06
  -9.343431e+06   2.017865e+05
  -6.550292e+06  -4.086687e+06
   9.262089e+04  -4.765022e+06
   3.837764e+06  -2.216958e+06
   2.367445e+06   3.568368e+05
  -9.536385e+05   1.210789e+06
  -2.644984e+06   4.273503e+05
  -2.212737e+06  -1.740662e+06
  -4.100581e+05  -4.004332e+06
   1.865709e+06  -3.509778e+06
   2.830876e+06   3.847864e+05
   1.281480e+06   3.406665e+06
  -7.895817e+05   1.458937e+06
  -1.670269e+05  -2.643995e+06
   2.399393e+06  -2.304443e+06
   2.337514e+06   2.901180e+06
  -2.039682e+06   5.615696e+06
  -6.115993e+06   9.410085e+05
  -4.579176e+06  -6.277283e+06
   1.703219e+06  -7.738506e+06
   6.844200e+06  -2.179660e+06
   6.617337e+06   4.154965e+06
   1.913567e+06   5.723003e+06
  -3.259108e+06   2.710542e+06
  -5.129156e+06  -1.296241e+06
  -2.487414e+06  -3.239824e+06
   2.149827e+06  -2.105400e+06
   4.226291e+06   7.831216e+05
   1.877168e+06   2.477494e+06
  -1.576143e+06   1.278009e+06
  -1.725524e+06  -9.430245e+05
   1.060345e+06  -9.710446e+05
   2.298797e+06   1.352567e+06
  -3.179032e+05   2.958973e+06
  -4.009761e+06   1.777351e+06
  -4.850832e+06  -1.073844e+06
  -2.205138e+06  -3.591336e+06
   1.778871e+06  -4.958836e+06
   4.943424e+06  -4.564085e+06
   5.964949e+06  -1.527700e+06
   4.237380e+06   3.133601e+06
   7.965746e+05   5.919195e+06
  -1.684932e+06   4.604929e+06
  -1.559252e+06   1.362513e+06
  -2.573275e+05   1.782388e+04
  -2.939124e+05   1.062094e+06
  -1.857538e+06   1.616284e+06
  -2.860126e+06  -2.676738e+04
  -1.931274e+06  -2.145995e+06
   1.369633e+05  -2.251158e+06
   1.717386e+06  -1.766953e+05
   1.739638e+06   2.182871e+06
  -5.589280e+04   2.961029e+06
  -2.777533e+06   1.530243e+06
  -4.284319e+06  -1.300664e+06
  -2.956690e+06  -3.648048e+06
   1.212724e+05  -3.932953e+06
   2.125667e+06  -2.472949e+06
   2.028713e+06  -1.075652e+06
   1.716475e+06  -7.359129e+05
   2.885898e+06  -5.467493e+05
   4.305808e+06   7.029227e+05
   3.476474e+06   2.725267e+06
   1.430994e+05   4.124865e+06
  -3.237019e+06   3.902181e+06
  -4.237320e+06   2.060393e+06
  -2.649750e+06  -5.251562e+05
  -1.702573e+05  -2.284365e+06
   1.192141e+06  -1.899100e+06
   5.583276e+05   7.385051e+04
  -1.125946e+06   1.298548e+06
  -1.890202e+06   3.822237e+05
  -8.726810e+05  -1.198303e+06
   5.543614e+05  -1.125171e+06
   4.907337e+05   3.741482e+05
  -9.638073e+05   7.863798e+05
  -1.836571e+06  -1.069750e+06
  -8.230064e+05  -3.323369e+06
   1.326508e+06  -3.488565e+06
   3.029653e+06  -1.353733e+06
   3.421452e+06   1.287932e+06
   2.440435e+06   2.787818e+06
   5.081840e+05   2.695852e+06
  -1.278318e+06   1.485363e+06
  -1.611807e+06   2.080421e+05
  -4.969585e+05  -4.720423e+04
   3.624291e+05   7.559901e+05
  -3.981305e+05   1.324270e+06
  -1.877767e+06   5.730331e+05
  -2.022638e+06  -8.580372e+05
  -4.045722e+05  -1.394091e+06
   1.169660e+06  -5.866243e+05
   9.297037e+05   4.519456e+05
  -8.258470e+05   5.773168e+05
  -2.238693e+06  -2.505091e+05
  -1.843921e+06  -1.359021e+06
   2.027000e+05  -2.040867e+06
   2.334683e+06  -1.713197e+06
   2.807276e+06  -2.879059e+05
   1.219944e+06   1.258840e+06
  -9.178386e+05   1.480079e+06
  -1.536951e+06   1.769649e+05
  -1.786773e+05  -1.072419e+06
   1.524725e+06  -7.333741e+05
   1.734872e+06   7.729093e+05
   3.715807e+05   1.660716e+06
  -1.071841e+06   1.015601e+06
  -1.274513e+06  -2.742423e+05
  -2.760300e+05  -7.724474e+05
   7.838235e+05  -5.861456e+04
   7.333952e+05   1.060166e+06
  -5.929503e+05   1.432754e+06
  -2.033366e+06   5.339561e+05
  -2.049207e+06  -1.070312e+06
  -3.837401e+05  -2.090828e+06
   1.444429e+06  -1.655414e+06
   1.737350e+06  -2.220459e+05
   5.187496e+05   8.697661e+05
  -6.583040e+05   8.188070e+05
  -6.595573e+05   7.693205e+04
   9.996639e+04  -3.962438e+05
   5.197399e+05  -2.488744e+05
   1.802852e+05   6.861782e+04
  -4.181152e+05  -3.394451e+04
  -5.338428e+05  -6.386395e+05
   1.834574e+05  -1.188686e+06
   1.386473e+06  -9.093556e+05
   2.102129e+06   4.154978e+05
   1.476259e+06   1.963882e+06
  -2.214108e+05   2.454791e+06
  -1.635876e+06   1.451939e+06
  -1.731096e+06  -1.067609e+05
  -9.072855e+05  -9.259546e+05
  -3.395331e+05  -7.157596e+05
  -4.565232e+05  -2.619635e+05
  -5.954713e+05  -3.085196e+05
  -8.285365e+04  -7.494332e+05
   8.741401e+05  -9.148321e+05
   1.468966e+06  -3.472469e+05
   1.087944e+06   7.343465e+05
  -2.329883e+05   1.503459e+06
  -1.742725e+06   1.105089e+06
  -2.284480e+06  -4.833055e+05
  -1.161389e+06  -2.116809e+06
   9.964495e+05  -2.385850e+06
   2.549069e+06  -1.057453e+06
   2.386847e+06   6.377085e+05
   1.006707e+06   1.348133e+06
  -1.822058e+05   9.886975e+05
  -4.148836e+05   5.517271e+05
  -1.261681e+05   7.637847e+05
  -1.321012e+05   1.296544e+06
  -6.743535e+05   1.280294e+06
  -1.295303e+06   3.122439e+05
  -1.345875e+06  -1.097837e+06
  -5.581837e+05  -1.919505e+06
   6.345212e+05  -1.454148e+06
   1.302824e+06  -2.677135e+03
   8.265677e+05   1.284789e+06
  -3.751606e+05   1.406659e+06
  -1.147944e+06   4.312452e+05
  -8.112728e+05  -6.671771e+05
   1.014587e+05  -1.062051e+06
   5.084989e+05  -7.906319e+05
   7.066150e+04  -4.326679e+05
  -4.328912e+05  -3.482784e+05
  -5.671377e+04  -3.914590e+05
   1.149719e+06  -2.143422e+05
   2.069349e+06   3.329832e+05
   1.633355e+06   1.038464e+06
  -2.110617e+04   1.433107e+06
  -1.585462e+06   1.142426e+06
  -1.842397e+06   2.931551e+05
  -8.467248e+05  -4.723630e+05
   2.554996e+05  -5.612559e+05
   5.088132e+05  -4.375542e+04
   2.036888e+04   4.112534e+05
  -4.574072e+05   2.579466e+05
  -4.842839e+05  -3.471575e+05
  -2.384342e+05  -7.400010e+05
  -7.979769e+04  -4.889735e+05
  -1.391490e+05   1.090085e+05
  -2.945866e+05   3.139523e+05
  -2.818802e+05  -2.325553e+05
   1.511656e+05  -1.006044e+06
   9.098423e+05  -1.075535e+06
   1.359590e+06  -1.624169e+05
   8.422474e+05   9.296052e+05
  -4.226861e+05   1.137238e+06
  -1.264372e+06   3.235418e+05
  -7.414692e+05  -5.858439e+05
   7.061615e+05  -6.590842e+05
   1.614118e+06   8.718636e+04
   1.039247e+06   8.665525e+05
  -4.725185e+05   1.012136e+06
  -1.518595e+06   5.074241e+05
  -1.261160e+06  -1.797621e+05
  -1.444543e+05  -5.231928e+05
   6.551366e+05  -2.795109e+05
   3.839628e+05   2.943836e+05
  -6.005678e+05   5.248280e+05
  -1.200801e+06  -9.062441e+04
  -6.722482e+05  -1.204542e+06
   6.096086e+05  -1.726993e+06
   1.512281e+06  -8.950252e+05
   1.276873e+06   7.711915e+05
   2.077689e+05   1.821915e+06
  -7.487979e+05   1.321314e+06
  -9.400429e+05  -1.710682e+05
  -4.457290e+05  -1.207228e+06
   2.125647e+05  -9.865791e+05
   5.674076e+05  -8.860959e+04
   4.798267e+05   3.823520e+05
   1.728241e+05   1.392693e+05
   4.643228e+04  -9.790385e+04
   2.751662e+05   2.986346e+05
   5.156841e+05   9.802818e+05
   2.024391e+05   1.094008e+06
  -7.176410e+05   4.005576e+05
  -1.500357e+06  -4.695536e+05
  -1.307457e+06  -8.454393e+05
  -1.893694e+05  -7.079704e+05
   8.703373e+05  -4.296787e+05
   1.000244e+06  -1.895793e+05
   3.623485e+05   5.277875e+04
  -1.488678e+05   2.301907e+05
  -3.082538e+04   2.077612e+05
   2.745036e+05   9.428714e+04
   5.088825e+04   1.364756e+05
  -6.759523e+05   2.442573e+05
  -1.064736e+06  -8.741282e+03
  -4.388882e+05  -7.058867e+05
   8.545062e+05  -1.202471e+06
   1.725936e+06  -7.730723e+05
   1.436657e+06   4.366754e+05
   2.861754e+05   1.429933e+06
  -7.744880e+05   1.401209e+06
  -1.066750e+06   5.518090e+05
  -6.693654e+05  -2.328622e+05
  -1.376854e+05  -3.650792e+05
   7.308718e+04  -7.036378e+04
  -8.051046e+04   1.650920e+04
  -3.063544e+05  -3.713204e+05
  -2.550835e+05  -8.197139e+05
   1.791628e+05  -6.925664e+05
   6.952948e+05   1.175487e+05
   7.603628e+05   9.637852e+05
   1.261883e+05   1.051739e+06
  -7.655787e+05   2.611053e+05
  -1.060908e+06  -7.243953e+05
  -3.635301e+05  -1.107771e+06
   7.222294e+05  -6.966310e+05
   1.140448e+06   6.871480e+04
   5.445945e+05   6.227735e+05
  -2.899645e+05   6.942080e+05
  -3.863685e+05   3.751724e+05
   2.498002e+05   3.936643e+03
   6.600423e+05  -4.567870e+04
   1.518608e+05   3.137508e+05
  -8.347820e+05   6.956149e+05
  -1.278172e+06   5.533022e+05
  -7.778615e+05  -1.803551e+05
   9.260125e+04  -8.865251e+05
   5.597202e+05  -8.739867e+05
   4.372091e+05  -1.679076e+05
   6.132172e+04   4.867696e+05
  -2.405974e+05   4.473566e+05
  -3.613336e+05  -1.431449e+05
  -2.637525e+05  -5.855243e+05
   5.121026e+04  -4.391712e+05
   3.992883e+05   4.060701e+04
   4.859031e+05   2.852147e+05
   2.460961e+05   9.866813e+04
  -3.641690e+04  -1.566968e+05
  -8.097236e+04  -4.996677e+04
   2.228310e+04   3.599494e+05
  -4.023559e+04   5.691368e+05
  -3.239609e+05   2.343661e+05
  -4.780473e+05  -3.795288e+05
  -1.736063e+05  -6.608674e+05
   4.112833e+05  -3.271989e+05
   6.832574e+05   2.765742e+05
   2.669879e+05   5.803967e+05
  -5.148550e+05   3.766382e+05
  -9.028077e+05  -6.772631e+04
  -4.925724e+05  -3.803900e+05
   2.968699e+05  -4.139274e+05
   6.516446e+05  -2.423073e+05
   2.592249e+05  -2.013168e+04
  -3.475050e+05   7.973446e+04
  -4.155464e+05  -5.376583e+04
   1.617525e+05  -2.963037e+05
   7.455623e+05  -2.870980e+05
