
 $NMID
 id='ANONYMOUS ', fmtdat='(2E16.6)'
 volume=1.0
 tramp=1.0
 $END
  -5.213223e+07  -2.022717e+06
  -3.002584e+07  -3.299676e+07
   7.986418e+06  -3.467885e+07
   2.563615e+07  -1.289495e+07
   1.490634e+07   6.516983e+06
  -3.154677e+06   8.417453e+06
  -8.938318e+06  -1.133112e+06
  -2.479549e+06  -8.928568e+06
   5.712605e+06  -8.609984e+06
   8.895497e+06  -1.769211e+06
   6.391034e+06   5.974604e+06
   5.675805e+05   8.135449e+06
  -3.871448e+06   2.432437e+06
  -2.462699e+06  -5.283580e+06
   3.541030e+06  -6.151952e+06
   7.241814e+06   1.352478e+06
   3.902203e+06   9.566748e+06
  -3.789458e+06   1.085674e+07
  -9.570763e+06   5.169724e+06
  -9.980551e+06  -2.332364e+06
  -5.789261e+06  -7.246309e+06
  -1.913595e+05  -7.965403e+06
   2.868302e+06  -5.295026e+06
   1.483250e+06  -2.318481e+06
  -1.322659e+06  -2.191235e+06
  -1.775220e+05  -4.188084e+06
   5.411212e+06  -4.119079e+06
   9.314432e+06  -1.720082e+05
   6.539942e+06   4.175096e+06
  -6.967865e+04   4.858715e+06
  -3.811248e+06   2.313369e+06
  -2.457164e+06  -2.502079e+05
   7.236366e+05  -1.177062e+06
   2.462134e+06  -5.370220e+05
   2.234726e+06   1.585916e+06
   5.104012e+05   3.962393e+06
  -1.912577e+06   3.561483e+06
  -2.992208e+06  -4.010007e+05
  -1.327543e+06  -3.539826e+06
   9.088383e+05  -1.597621e+06
   2.715981e+05   2.560571e+06
  -2.372947e+06   2.217277e+06
  -2.219647e+06  -2.981733e+06
   2.313119e+06  -5.544141e+06
   6.299788e+06  -6.706209e+05
   4.444202e+06   6.542579e+06
  -2.007952e+06   7.768847e+06
  -6.970091e+06   2.008937e+06
  -6.467979e+06  -4.292416e+06
  -1.719614e+06  -5.685363e+06
   3.273821e+06  -2.562174e+06
   4.975429e+06   1.416226e+06
   2.311759e+06   3.247334e+06
  -2.233869e+06   1.997755e+06
  -4.187839e+06  -9.263518e+05
  -1.773240e+06  -2.537675e+06
   1.623315e+06  -1.230783e+06
   1.658277e+06   9.649566e+05
  -1.122113e+06   8.462979e+05
  -2.185677e+06  -1.532307e+06
   5.750490e+05  -2.977625e+06
   4.185172e+06  -1.580820e+06
   4.811076e+06   1.307711e+06
   2.061832e+06   3.689560e+06
  -1.859145e+06   4.932779e+06
  -4.950866e+06   4.508861e+06
  -5.974248e+06   1.472506e+06
  -4.236791e+06  -3.187987e+06
  -7.258277e+05  -5.914574e+06
   1.783383e+06  -4.492863e+06
   1.564847e+06  -1.208954e+06
   1.395225e+05   5.798123e+04
   1.497002e+05  -1.096657e+06
   1.778454e+06  -1.703979e+06
   2.851909e+06  -6.891488e+04
   1.970670e+06   2.055966e+06
  -5.745442e+04   2.205900e+06
  -1.626631e+06   2.192781e+05
  -1.693018e+06  -2.086880e+06
   4.454745e+04  -2.899539e+06
   2.754151e+06  -1.526333e+06
   4.276693e+06   1.309504e+06
   2.931013e+06   3.697569e+06
  -1.958572e+05   3.973311e+06
  -2.217431e+06   2.449384e+06
  -2.081982e+06   1.001895e+06
  -1.710076e+06   6.535124e+05
  -2.824941e+06   4.716794e+05
  -4.200819e+06  -7.529487e+05
  -3.367821e+06  -2.707296e+06
  -1.021915e+05  -4.029304e+06
   3.182155e+06  -3.796874e+06
   4.151544e+06  -2.022744e+06
   2.619709e+06   4.962209e+05
   2.035603e+05   2.247150e+06
  -1.155898e+06   1.888151e+06
  -5.587630e+05  -6.367682e+04
   1.100605e+06  -1.276167e+06
   1.863313e+06  -3.592673e+05
   8.604708e+05   1.196727e+06
  -5.341670e+05   1.102516e+06
  -4.474653e+05  -3.575786e+05
   9.628206e+05  -6.946256e+05
   1.728762e+06   1.153480e+06
   6.571810e+05   3.266424e+06
  -1.407436e+06   3.287710e+06
  -2.943327e+06   1.168181e+06
  -3.240451e+06  -1.315972e+06
  -2.303649e+06  -2.684508e+06
  -4.775940e+05  -2.588922e+06
   1.241795e+06  -1.444464e+06
   1.571158e+06  -2.076428e+05
   4.845324e+05   4.901552e+04
  -3.467606e+05  -7.404864e+05
   4.147309e+05  -1.294193e+06
   1.857905e+06  -5.348410e+05
   1.965953e+06   8.763788e+05
   3.659037e+05   1.371879e+06
  -1.146984e+06   5.546211e+05
  -8.864845e+05  -4.401108e+05
   8.052706e+05  -5.238064e+05
   2.139605e+06   2.791315e+05
   1.747811e+06   1.314289e+06
  -2.158620e+05   1.948961e+06
  -2.271218e+06   1.635679e+06
  -2.731309e+06   2.577279e+05
  -1.177570e+06  -1.247243e+06
   9.224409e+05  -1.448783e+06
   1.521454e+06  -1.546976e+05
   1.706459e+05   1.063575e+06
  -1.498825e+06   7.061911e+05
  -1.679851e+06  -7.741343e+05
  -3.327342e+05  -1.614349e+06
   1.056188e+06  -9.573132e+05
   1.223215e+06   2.942537e+05
   2.439202e+05   7.527778e+05
  -7.731808e+05   4.195783e+04
  -7.107585e+05  -1.045239e+06
   5.859654e+05  -1.399880e+06
   1.989940e+06  -5.143212e+05
   1.997426e+06   1.057203e+06
   3.585014e+05   2.045619e+06
  -1.427366e+06   1.601265e+06
  -1.694945e+06   1.960499e+05
  -4.904963e+05  -8.513811e+05
   6.488871e+05  -7.869726e+05
   6.345279e+05  -7.739703e+04
  -9.789232e+04   3.630801e+05
  -4.833539e+05   2.294939e+05
  -1.496989e+05  -4.587746e+04
   4.070804e+05   6.975977e+04
   4.952060e+05   6.413306e+05
  -2.037516e+05   1.152630e+06
  -1.361392e+06   8.698929e+05
  -2.045719e+06  -4.225845e+05
  -1.426761e+06  -1.927125e+06
   2.293271e+05  -2.388494e+06
   1.593885e+06  -1.393081e+06
   1.667179e+06   1.174164e+05
   8.658913e+05   8.838224e+05
   3.386560e+05   6.657342e+05
   4.707146e+05   2.493422e+05
   5.931986e+05   3.234545e+05
   7.086764e+04   7.454058e+05
  -8.622977e+05   8.787110e+05
  -1.424067e+06   3.206826e+05
  -1.043562e+06  -7.107460e+05
   2.364011e+05  -1.442099e+06
   1.696914e+06  -1.055139e+06
   2.214873e+06   4.851884e+05
   1.106724e+06   2.068162e+06
  -1.002287e+06   2.311080e+06
  -2.496126e+06   9.965726e+05
  -2.304904e+06  -6.485501e+05
  -9.496033e+05  -1.307459e+06
   1.843604e+05  -9.358906e+05
   3.835755e+05  -5.257836e+05
   1.045540e+05  -7.610996e+05
   1.341802e+05  -1.285771e+06
   6.767295e+05  -1.252705e+06
   1.274827e+06  -2.952341e+05
   1.309928e+06   1.079211e+06
   5.350213e+05   1.874850e+06
  -6.251395e+05   1.414996e+06
  -1.266344e+06  -7.630530e+03
  -7.887762e+05  -1.262117e+06
   3.871489e+05  -1.362665e+06
   1.126710e+06  -3.904675e+05
   7.748391e+05   6.782297e+05
  -1.281445e+05   1.037486e+06
  -5.180201e+05   7.530807e+05
  -7.453764e+04   4.087796e+05
   4.260866e+05   3.401527e+05
   5.633697e+04   3.816725e+05
  -1.127206e+06   1.952049e+05
  -2.022069e+06  -3.471531e+05
  -1.581863e+06  -1.029103e+06
   4.672415e+04  -1.398549e+06
   1.568944e+06  -1.099279e+06
   1.797440e+06  -2.626588e+05
   8.083069e+05   4.787187e+05
  -2.633638e+05   5.490469e+05
  -4.965048e+05   3.044369e+04
  -1.637045e+04  -4.135342e+05
   4.441208e+05  -2.548477e+05
   4.722730e+05   3.421211e+05
   2.420439e+05   7.267791e+05
   8.650583e+04   4.832332e+05
   1.299254e+05  -9.818884e+04
   2.737289e+05  -2.998742e+05
   2.703194e+05   2.283144e+05
  -1.449163e+05   9.794758e+05
  -8.952046e+05   1.045104e+06
  -1.345079e+06   1.497401e+05
  -8.299187e+05  -9.192415e+05
   4.253913e+05  -1.117372e+06
   1.249577e+06  -3.147347e+05
   7.238420e+05   5.726203e+05
  -6.936506e+05   6.340981e+05
  -1.563249e+06  -9.757984e+04
  -9.900901e+05  -8.437374e+05
   4.717276e+05  -9.665027e+05
   1.468987e+06  -4.710778e+05
   1.211568e+06   1.843517e+05
   1.334125e+05   5.038997e+05
  -6.377657e+05   2.620681e+05
  -3.740409e+05  -2.951522e+05
   5.861910e+05  -5.176331e+05
   1.176724e+06   8.636797e+04
   6.629118e+05   1.179727e+06
  -5.928284e+05   1.693010e+06
  -1.477315e+06   8.771410e+05
  -1.244326e+06  -7.533359e+05
  -1.975931e+05  -1.774455e+06
   7.312455e+05  -1.277595e+06
   9.079142e+05   1.770076e+05
   4.200662e+05   1.173939e+06
  -2.179337e+05   9.478420e+05
  -5.533125e+05   7.749029e+04
  -4.593442e+05  -3.681910e+05
  -1.612355e+05  -1.286267e+05
  -4.716373e+04   9.062033e+04
  -2.747567e+05  -3.051481e+05
  -5.007447e+05  -9.623064e+05
  -1.836183e+05  -1.058275e+06
   7.108529e+05  -3.778971e+05
   1.457784e+06   4.625457e+05
   1.260379e+06   8.232137e+05
   1.789229e+05   6.916510e+05
  -8.420953e+05   4.209778e+05
  -9.700547e+05   1.791989e+05
  -3.564968e+05  -6.225826e+04
   1.433482e+05  -2.265564e+05
   3.743097e+04  -1.912972e+05
  -2.603887e+05  -8.085894e+04
  -5.347208e+04  -1.351432e+05
   6.512953e+05  -2.465022e+05
   1.041276e+06   1.015802e+04
   4.393111e+05   7.011878e+05
  -8.316814e+05   1.181824e+06
  -1.697471e+06   7.507974e+05
  -1.415848e+06  -4.331508e+05
  -2.793043e+05  -1.396215e+06
   7.650680e+05  -1.365398e+06
   1.046888e+06  -5.412800e+05
   6.541582e+05   2.227320e+05
   1.373230e+05   3.595092e+05
  -6.655562e+04   8.003166e+04
   7.744973e+04  -6.814146e+03
   2.907565e+05   3.632259e+05
   2.418153e+05   7.977327e+05
  -1.763798e+05   6.783754e+05
  -6.801719e+05  -1.088293e+05
  -7.488634e+05  -9.396870e+05
  -1.301051e+05  -1.034492e+06
   7.477531e+05  -2.656830e+05
   1.041620e+06   7.031096e+05
   3.573582e+05   1.086465e+06
  -7.097552e+05   6.856746e+05
  -1.119040e+06  -7.077512e+04
  -5.307079e+05  -6.194389e+05
   2.913409e+05  -6.848003e+05
   3.874035e+05  -3.618246e+05
  -2.371097e+05   4.400403e+03
  -6.426794e+05   4.547016e+04
  -1.491631e+05  -3.102166e+05
   8.157522e+05  -6.748326e+05
   1.251954e+06  -5.244013e+05
   7.626856e+05   1.908742e+05
  -9.447907e+04   8.686543e+05
  -5.587391e+05   8.496906e+05
  -4.399303e+05   1.632868e+05
  -6.539753e+04  -4.744647e+05
   2.374444e+05  -4.416469e+05
   3.566652e+05   1.325382e+05
   2.571270e+05   5.725774e+05
  -5.369339e+04   4.369766e+05
  -3.920682e+05  -3.749172e+04
  -4.725727e+05  -2.869881e+05
  -2.367774e+05  -1.019901e+05
   3.513290e+04   1.617777e+05
   7.079386e+04   6.194939e+04
  -3.503430e+04  -3.532221e+05
   3.072949e+04  -5.739954e+05
   3.210092e+05  -2.455532e+05
   4.821211e+05   3.689223e+05
   1.826039e+05   6.531590e+05
  -4.007101e+05   3.247797e+05
  -6.748298e+05  -2.698019e+05
  -2.652148e+05  -5.665305e+05
   5.066277e+05  -3.658849e+05
   8.879979e+05   6.787299e+04
   4.822720e+05   3.738535e+05
  -2.946406e+05   4.092441e+05
  -6.434970e+05   2.408278e+05
  -2.601774e+05   1.626567e+04
   3.346722e+05  -8.903280e+04
   4.077017e+05   4.232605e+04
  -1.479746e+05   2.880173e+05
  -7.167550e+05   2.862301e+05
