
 $NMID
 id='ANONYMOUS ', fmtdat='(2E16.6)'
 volume=1.0
 tramp=1.0
 $END
   5.595372e+07   1.311513e+06
   3.271067e+07   3.589618e+07
  -8.640996e+06   3.787181e+07
  -2.798035e+07   1.347197e+07
  -1.607369e+07  -7.854555e+06
   3.744414e+06  -9.183540e+06
   9.701278e+06   1.777818e+06
   2.238535e+06   9.850583e+06
  -6.604732e+06   8.840766e+06
  -9.621513e+06   1.497712e+06
  -6.681600e+06  -6.280405e+06
  -5.685964e+05  -8.396576e+06
   3.948583e+06  -2.636030e+06
   2.363036e+06   5.251506e+06
  -3.955507e+06   6.159675e+06
  -7.723868e+06  -1.648803e+06
  -4.033728e+06  -1.021243e+07
   4.110278e+06  -1.151996e+07
   1.014115e+07  -5.587075e+06
   1.066943e+07   2.221566e+06
   6.507049e+06   7.547777e+06
   5.922348e+05   8.721112e+06
  -3.145416e+06   6.110631e+06
  -2.226808e+06   2.604124e+06
   7.939703e+05   1.892499e+06
   2.067920e+05   3.855579e+06
  -5.158953e+06   4.143984e+06
  -9.295237e+06   3.703538e+05
  -6.812423e+06  -4.109019e+06
  -3.054457e+05  -4.948149e+06
   3.497204e+06  -2.528190e+06
   2.390092e+06  -1.698097e+05
  -3.925896e+05   6.973781e+05
  -1.940784e+06   4.292478e+05
  -2.012138e+06  -1.226527e+06
  -7.104942e+05  -3.674085e+06
   1.764128e+06  -3.784057e+06
   3.278101e+06   1.462767e+04
   1.768658e+06   3.603630e+06
  -7.695009e+05   2.069471e+06
  -3.534222e+05  -2.211576e+06
   2.422907e+06  -2.100959e+06
   2.283757e+06   3.255728e+06
  -2.690036e+06   6.024362e+06
  -7.070948e+06   8.112388e+05
  -4.950360e+06  -7.053644e+06
   2.163732e+06  -8.451419e+06
   7.412159e+06  -2.209191e+06
   6.624221e+06   4.574222e+06
   1.524760e+06   5.932330e+06
  -3.493138e+06   2.459439e+06
  -5.002227e+06  -1.736338e+06
  -2.152338e+06  -3.516954e+06
   2.502944e+06  -2.061274e+06
   4.425180e+06   1.085108e+06
   1.806245e+06   2.768933e+06
  -1.744047e+06   1.298604e+06
  -1.623266e+06  -1.073561e+06
   1.430138e+06  -8.072923e+05
   2.403635e+06   1.955939e+06
  -8.391756e+05   3.517258e+06
  -4.776230e+06   1.748568e+06
  -5.232919e+06  -1.588178e+06
  -2.144193e+06  -4.043274e+06
   1.869287e+06  -5.094187e+06
   4.909511e+06  -4.584530e+06
   6.030939e+06  -1.593942e+06
   4.432428e+06   3.127105e+06
   7.962531e+05   6.004463e+06
  -2.003786e+06   4.555367e+06
  -1.828882e+06   1.028678e+06
  -1.058536e+05  -4.004055e+05
   1.772665e+05   8.711311e+05
  -1.424739e+06   1.738783e+06
  -2.642518e+06   2.934876e+05
  -1.917475e+06  -1.770099e+06
  -4.922247e+04  -1.976695e+06
   1.391485e+06  -1.607403e+05
   1.496730e+06   1.968117e+06
  -5.271292e+04   2.775345e+06
  -2.668266e+06   1.559488e+06
  -4.312042e+06  -1.195946e+06
  -3.098581e+06  -3.718775e+06
   1.039201e+05  -4.175740e+06
   2.319831e+06  -2.655902e+06
   2.269536e+06  -1.055534e+06
   1.834309e+06  -5.667202e+05
   2.852984e+06  -3.267878e+05
   4.147481e+06   8.966015e+05
   3.242184e+06   2.773990e+06
  -1.704786e+04   3.945766e+06
  -3.169847e+06   3.618815e+06
  -4.014353e+06   1.925904e+06
  -2.525394e+06  -4.236842e+05
  -2.549019e+05  -2.111638e+06
   1.056743e+06  -1.832621e+06
   5.402608e+05   2.886775e+04
  -1.060423e+06   1.224221e+06
  -1.849477e+06   3.306651e+05
  -8.747926e+05  -1.186868e+06
   5.098889e+05  -1.042385e+06
   3.586626e+05   4.005583e+05
  -1.114498e+06   5.798245e+05
  -1.756984e+06  -1.433551e+06
  -3.932011e+05  -3.470054e+06
   1.813263e+06  -3.169939e+06
   3.124247e+06  -8.044704e+05
   3.047572e+06   1.603044e+06
   1.970701e+06   2.708293e+06
   3.044654e+05   2.459736e+06
  -1.214436e+06   1.345919e+06
  -1.497681e+06   1.780768e+05
  -4.689734e+05  -6.023675e+04
   3.153355e+05   7.335922e+05
  -4.558440e+05   1.289639e+06
  -1.878807e+06   4.956686e+05
  -1.936619e+06  -9.489672e+05
  -3.062049e+05  -1.397056e+06
   1.152895e+06  -4.966257e+05
   8.083410e+05   4.758080e+05
  -8.580222e+05   4.254535e+05
  -2.044475e+06  -4.461026e+05
  -1.549306e+06  -1.371512e+06
   3.513376e+05  -1.833465e+06
   2.264161e+06  -1.460816e+06
   2.656067e+06  -1.507367e+05
   1.126294e+06   1.270094e+06
  -9.409709e+05   1.434956e+06
  -1.531448e+06   1.388019e+05
  -1.749700e+05  -1.056983e+06
   1.484416e+06  -6.602039e+05
   1.617224e+06   8.264976e+05
   2.336163e+05   1.602732e+06
  -1.111380e+06   8.680379e+05
  -1.188778e+06  -3.846271e+05
  -1.796749e+05  -7.748159e+05
   7.854666e+05  -2.053383e+04
   6.784978e+05   1.039959e+06
  -5.919399e+05   1.350208e+06
  -1.938309e+06   4.623598e+05
  -1.920060e+06  -1.069875e+06
  -2.965860e+05  -2.007125e+06
   1.450363e+06  -1.525697e+06
   1.668632e+06  -1.274707e+05
   4.371211e+05   8.596571e+05
  -6.689284e+05   7.381591e+05
  -5.906249e+05   4.976336e+04
   1.470205e+05  -3.098334e+05
   4.557781e+05  -1.437602e+05
   5.916536e+04   6.507667e+04
  -4.606041e+05  -1.333600e+05
  -4.597892e+05  -7.026941e+05
   2.674417e+05  -1.139364e+06
   1.367102e+06  -8.014068e+05
   1.979730e+06   4.758652e+05
   1.336699e+06   1.914636e+06
  -2.926800e+05   2.301600e+06
  -1.593674e+06   1.267672e+06
  -1.587827e+06  -2.040667e+05
  -7.457905e+05  -8.685909e+05
  -2.604110e+05  -5.771156e+05
  -4.747312e+05  -1.862267e+05
  -6.273755e+05  -3.308045e+05
  -6.832141e+04  -7.578869e+05
   8.832323e+05  -8.249092e+05
   1.391508e+06  -2.372485e+05
   9.486940e+05   7.246422e+05
  -3.137327e+05   1.357002e+06
  -1.683923e+06   9.403727e+05
  -2.119834e+06  -5.504376e+05
  -9.910778e+05  -2.057251e+06
   1.079030e+06  -2.232262e+06
   2.492981e+06  -8.771178e+05
   2.213323e+06   7.483059e+05
   8.215643e+05   1.321049e+06
  -2.596250e+05   8.615532e+05
  -3.674637e+05   4.355522e+05
  -5.142369e+04   7.159952e+05
  -1.164079e+05   1.273650e+06
  -6.915799e+05   1.232782e+06
  -1.262892e+06   2.694123e+05
  -1.249056e+06  -1.074759e+06
  -4.713315e+05  -1.827934e+06
   6.391842e+05  -1.352173e+06
   1.226442e+06   5.356186e+04
   7.246682e+05   1.271278e+06
  -4.460663e+05   1.326373e+06
  -1.157195e+06   3.213543e+05
  -7.595847e+05  -7.391010e+05
   1.832740e+05  -1.052424e+06
   5.798757e+05  -7.280222e+05
   1.135755e+05  -3.805808e+05
  -4.094183e+05  -3.260289e+05
  -4.885077e+04  -3.642679e+05
   1.119878e+06  -1.576275e+05
   1.981586e+06   3.946381e+05
   1.512514e+06   1.060550e+06
  -1.081780e+05   1.392239e+06
  -1.587055e+06   1.047835e+06
  -1.773367e+06   1.853533e+05
  -7.743317e+05  -5.357101e+05
   2.807309e+05  -5.523074e+05
   5.008737e+05  -1.865579e+03
   2.789534e+04   4.230259e+05
  -4.200584e+05   2.377329e+05
  -4.535032e+05  -3.414357e+05
  -2.446003e+05  -6.892913e+05
  -1.010365e+05  -4.570530e+05
  -1.331411e+05   6.739792e+04
  -2.583190e+05   2.454752e+05
  -2.507073e+05  -2.347606e+05
   1.548526e+05  -9.278860e+05
   8.952277e+05  -9.953160e+05
   1.338318e+06  -1.449451e+05
   8.178565e+05   8.975667e+05
  -4.308114e+05   1.102251e+06
  -1.229852e+06   3.117315e+05
  -6.871513e+05  -5.613612e+05
   7.003407e+05  -5.916081e+05
   1.503245e+06   1.618335e+05
   8.939625e+05   8.695626e+05
  -5.266336e+05   9.067210e+05
  -1.443340e+06   3.644116e+05
  -1.146122e+06  -2.482151e+05
  -9.469252e+04  -4.897246e+05
   6.344516e+05  -2.211460e+05
   3.686195e+05   3.026442e+05
  -5.594475e+05   4.959132e+05
  -1.130441e+06  -8.834314e+04
  -6.362943e+05  -1.134533e+06
   5.765336e+05  -1.621839e+06
   1.425259e+06  -8.265060e+05
   1.179828e+06   7.465978e+05
   1.462294e+05   1.709128e+06
  -7.456890e+05   1.195613e+06
  -8.727693e+05  -2.188152e+05
  -3.523019e+05  -1.155268e+06
   2.702770e+05  -9.025889e+05
   5.489556e+05  -5.054691e+04
   4.106512e+05   3.701844e+05
   1.263112e+05   1.291249e+05
   5.939848e+04  -8.204611e+04
   2.958086e+05   3.061876e+05
   4.722524e+05   9.444882e+05
   1.186614e+05   1.030541e+06
  -7.300667e+05   3.514984e+05
  -1.388870e+06  -4.860526e+05
  -1.167150e+06  -8.372477e+05
  -1.528222e+05  -6.788574e+05
   7.992297e+05  -3.784897e+05
   9.348567e+05  -1.352144e+05
   3.668068e+05   7.657769e+04
  -1.341508e+05   2.141455e+05
  -7.337835e+04   1.793421e+05
   2.142800e+05   7.890597e+04
   5.908127e+04   1.259001e+05
  -5.988798e+05   2.222787e+05
  -1.004929e+06  -2.431618e+04
  -4.521143e+05  -6.767647e+05
   7.958855e+05  -1.128766e+06
   1.667383e+06  -7.135276e+05
   1.386482e+06   4.211443e+05
   2.473216e+05   1.344197e+06
  -7.737317e+05   1.312267e+06
  -1.015982e+06   5.185249e+05
  -6.161459e+05  -2.148463e+05
  -1.371259e+05  -3.460607e+05
   3.486850e+04  -8.415930e+04
  -9.111999e+04  -1.163046e+04
  -2.617627e+05  -3.705530e+05
  -2.036008e+05  -7.793347e+05
   1.772285e+05  -6.546714e+05
   6.412895e+05   1.024710e+05
   7.122832e+05   8.977770e+05
   1.356054e+05   9.928687e+05
  -7.004543e+05   2.614033e+05
  -9.899303e+05  -6.719747e+05
  -3.403582e+05  -1.050691e+06
   6.874819e+05  -6.652916e+05
   1.088825e+06   7.924716e+04
   5.211468e+05   6.222460e+05
  -2.887437e+05   6.802440e+05
  -4.020771e+05   3.546341e+05
   2.004256e+05  -2.153058e+02
   6.128207e+05  -3.198116e+04
   1.476739e+05   3.042327e+05
  -8.024974e+05   6.299888e+05
  -1.246906e+06   4.675889e+05
  -7.635285e+05  -2.114254e+05
   1.038071e+05  -8.450934e+05
   5.753308e+05  -8.256892e+05
   4.464880e+05  -1.751408e+05
   6.286705e+04   4.439647e+05
  -2.286918e+05   4.329971e+05
  -3.320021e+05  -1.133236e+05
  -2.394054e+05  -5.554087e+05
   4.752370e+04  -4.388030e+05
   3.748663e+05   3.395324e+04
   4.632522e+05   2.995155e+05
   2.314134e+05   1.172889e+05
  -4.815090e+04  -1.704853e+05
  -8.016921e+04  -9.776995e+04
   5.293043e+04   3.158160e+05
   1.201884e+04   5.622297e+05
  -2.857788e+05   2.666865e+05
  -4.782021e+05  -3.279256e+05
  -2.020207e+05  -6.158479e+05
   3.773709e+05  -3.124106e+05
   6.552708e+05   2.531206e+05
   2.529771e+05   5.382585e+05
  -5.014641e+05   3.485057e+05
  -8.648703e+05  -6.802706e+04
  -4.642394e+05  -3.670754e+05
   2.861897e+05  -4.059310e+05
   6.240435e+05  -2.427272e+05
   2.678427e+05  -2.049194e+04
  -2.928750e+05   8.896296e+04
  -3.734565e+05  -2.663378e+04
   1.330675e+05  -2.523212e+05
   6.625243e+05  -2.511169e+05
