
 $NMID
 id='ANONYMOUS ', fmtdat='(2E16.6)'
 volume=1.0
 tramp=1.0
 $END
   7.423086e+06   2.449249e+06
   3.193192e+06   5.036708e+06
  -1.853269e+06   4.265315e+06
  -3.707158e+06   1.690549e+06
  -2.117960e+06  -4.845399e+05
   2.986891e+05  -1.080532e+06
   1.288252e+06  -1.732802e+05
   6.001504e+05   1.196001e+06
  -6.756816e+05   1.599317e+06
  -1.356546e+06   4.377308e+05
  -9.322174e+05  -1.200981e+06
   1.495036e+05  -1.540145e+06
   8.245140e+05  -1.933371e+05
   4.161635e+05   1.298867e+06
  -6.122349e+05   1.272625e+06
  -1.113813e+06  -2.000815e+05
  -4.688581e+05  -1.585863e+06
   8.148259e+05  -1.633025e+06
   1.653718e+06  -4.527089e+05
   1.390182e+06   8.761241e+05
   3.356969e+05   1.373769e+06
  -5.146295e+05   9.298601e+05
  -4.053947e+05   3.025956e+05
   3.620969e+05   3.155344e+05
   6.543383e+05   9.235455e+05
  -2.219386e+05   1.235308e+06
  -1.581416e+06   6.074911e+05
  -2.013906e+06  -5.291328e+05
  -9.803567e+05  -1.179271e+06
   5.544527e+05  -8.941310e+05
   1.183701e+06  -8.171958e+04
   5.070452e+05   5.726191e+05
  -6.199295e+05   6.271095e+05
  -1.083988e+06   2.056129e+04
  -5.682454e+05  -8.264032e+05
   2.973369e+05  -1.122821e+06
   6.579487e+05  -4.541483e+05
   2.819950e+05   5.244163e+05
  -2.668459e+05   6.744512e+05
  -3.033453e+05  -1.732792e+05
   1.909190e+05  -8.903664e+05
   5.792704e+05  -5.109058e+05
   3.564915e+05   4.590961e+05
  -2.639244e+05   7.237224e+05
  -6.227455e+05  -8.873808e+04
  -3.173773e+05  -1.005704e+06
   4.604223e+05  -9.803713e+05
   1.129152e+06  -5.318470e+04
   1.141404e+06   8.876662e+05
   3.858178e+05   1.105066e+06
  -6.222420e+05   5.703838e+05
  -1.063926e+06  -1.905995e+05
  -5.818038e+05  -5.689164e+05
   2.923672e+05  -3.375101e+05
   6.760126e+05   1.675111e+05
   2.986843e+05   3.922326e+05
  -2.719109e+05   1.614080e+05
  -3.779536e+05  -1.776436e+05
  -1.295948e+04  -2.381680e+05
   2.871380e+05  -3.316711e+04
   1.188906e+05   1.543111e+05
  -3.678689e+05   1.316699e+05
  -6.416984e+05  -1.209003e+05
  -2.920397e+05  -5.260291e+05
   5.592130e+05  -8.453899e+05
   1.282216e+06  -7.030954e+05
   1.280154e+06   2.360362e+04
   5.938244e+05   8.829013e+05
  -1.277779e+05   1.215337e+06
  -3.409168e+05   8.899855e+05
  -1.683284e+05   4.277932e+05
  -1.282606e+05   3.071478e+05
  -4.376773e+05   3.868915e+05
  -7.909587e+05   1.966521e+05
  -7.822313e+05  -3.574665e+05
  -3.423508e+05  -8.135575e+05
   2.489026e+05  -6.790327e+05
   6.023105e+05   6.640364e+03
   4.523662e+05   6.754916e+05
  -1.416297e+05   7.514096e+05
  -7.369591e+05   1.736144e+05
  -8.222050e+05  -5.582712e+05
  -3.327139e+05  -8.678542e+05
   2.498418e+05  -6.427613e+05
   4.400974e+05  -2.650143e+05
   3.006645e+05  -1.203121e+05
   2.949511e+05  -1.829004e+05
   6.351260e+05  -1.363078e+05
   9.645721e+05   2.022631e+05
   7.604004e+05   6.834352e+05
  -3.891982e+04   9.857015e+05
  -8.908052e+05   8.701382e+05
  -1.136287e+06   3.419949e+05
  -6.276406e+05  -3.011529e+05
   1.215884e+05  -6.184971e+05
   4.337978e+05  -3.992968e+05
   1.301556e+05   7.348885e+04
  -3.395562e+05   2.764435e+05
  -4.389577e+05   2.907451e+04
  -1.238700e+05  -3.014654e+05
   1.955391e+05  -2.722359e+05
   1.777402e+05   7.151297e+04
  -1.128563e+05   2.541277e+05
  -3.583656e+05  -4.280502e+04
  -3.092186e+05  -5.918964e+05
   6.698882e+04  -8.539549e+05
   5.835795e+05  -5.255033e+05
   8.966818e+05   1.751312e+05
   7.221429e+05   7.186479e+05
   1.433254e+05   7.419643e+05
  -3.737400e+05   3.551783e+05
  -4.273344e+05  -3.130316e+03
  -1.208203e+05  -2.213263e+04
   7.512949e+04   1.878742e+05
  -1.028111e+05   2.777572e+05
  -4.131832e+05   8.461677e+04
  -4.358520e+05  -2.044047e+05
  -8.790780e+04  -3.005661e+05
   2.774677e+05  -1.324834e+05
   2.582613e+05   1.118995e+05
  -1.644174e+05   1.877546e+05
  -5.798403e+05  -2.784455e+03
  -5.319207e+05  -3.393316e+05
   1.597973e+04  -5.543750e+05
   6.008237e+05  -4.338409e+05
   6.988669e+05  -3.632959e+04
   2.609392e+05   3.063106e+05
  -2.431965e+05   2.957409e+05
  -3.307943e+05  -9.465809e+03
   1.065844e+04  -2.438482e+05
   3.774080e+05  -1.358399e+05
   4.059260e+05   1.969393e+05
   1.020023e+05   3.954744e+05
  -2.321148e+05   2.638066e+05
  -3.057831e+05  -3.190866e+04
  -8.976953e+04  -1.648889e+05
   1.623107e+05  -1.564589e+03
   1.433819e+05   2.673032e+05
  -1.872550e+05   3.307685e+05
  -5.139523e+05   7.299347e+04
  -4.702629e+05  -3.125734e+05
  -4.909672e+04  -5.090971e+05
   3.670284e+05  -3.695880e+05
   4.157970e+05  -3.654368e+04
   1.262732e+05   2.073514e+05
  -1.627674e+05   1.967682e+05
  -1.892144e+05   9.722839e+03
  -1.353029e+03  -1.364611e+05
   1.580090e+05  -1.083966e+05
   1.223157e+05   1.520482e+04
  -4.651371e+04   4.084619e+04
  -1.287422e+05  -1.068097e+05
   3.107284e+04  -2.682430e+05
   3.389386e+05  -2.027372e+05
   5.030050e+05   1.347310e+05
   3.187786e+05   5.061391e+05
  -1.006569e+05   6.075551e+05
  -4.273273e+05   3.613817e+05
  -4.522699e+05  -2.353425e+04
  -2.667517e+05  -2.652961e+05
  -1.056005e+05  -2.597277e+05
  -7.620550e+04  -1.333842e+05
  -8.459480e+04  -8.013450e+04
   9.280395e+03  -1.534902e+05
   2.129806e+05  -2.132797e+05
   3.707873e+05  -8.762987e+04
   2.936139e+05   2.014739e+05
  -5.064549e+04   4.022795e+05
  -4.466069e+05   2.708905e+05
  -5.678598e+05  -1.492172e+05
  -2.686102e+05  -5.276345e+05
   2.512734e+05  -5.547791e+05
   6.096385e+05  -2.328326e+05
   5.844121e+05   1.542338e+05
   2.815061e+05   3.344816e+05
  -1.907228e+04   2.833093e+05
  -1.378359e+05   1.834841e+05
  -1.134315e+05   1.947585e+05
  -9.996575e+04   2.828012e+05
  -1.866755e+05   2.680253e+05
  -3.059210e+05   3.623997e+04
  -3.003576e+05  -3.033600e+05
  -9.437599e+04  -4.874575e+05
   1.911491e+05  -3.468307e+05
   3.231070e+05   1.538207e+04
   1.854583e+05   3.098930e+05
  -8.852828e+04   3.280441e+05
  -2.448948e+05   1.131958e+05
  -1.685003e+05  -1.224690e+05
   1.277342e+04  -2.171549e+05
   8.770975e+04  -1.798324e+05
   2.112040e+02  -1.210580e+05
  -9.259729e+04  -1.079702e+05
  -9.090894e+02  -1.036737e+05
   2.676630e+05  -3.264446e+04
   4.749904e+05   1.179511e+05
   3.768529e+05   2.701436e+05
  -7.474225e+03   3.208383e+05
  -3.778626e+05   2.303417e+05
  -4.403189e+05   5.587000e+04
  -2.010989e+05  -8.782585e+04
   6.168991e+04  -1.093157e+05
   1.107004e+05  -1.544429e+04
  -2.217624e+04   7.919742e+04
  -1.335119e+05   4.965563e+04
  -1.072599e+05  -9.762418e+04
  -1.391250e+04  -2.036666e+05
   1.963689e+04  -1.311415e+05
  -3.514755e+04   4.668833e+04
  -9.718844e+04   1.040810e+05
  -7.005314e+04  -5.807486e+04
   7.104708e+04  -2.594272e+05
   2.462459e+05  -2.401741e+05
   3.062702e+05   1.758060e+04
   1.515236e+05   2.565046e+05
  -1.347709e+05   2.420505e+05
  -3.042483e+05   1.783980e+04
  -1.681410e+05  -1.715930e+05
   1.781182e+05  -1.529545e+05
   4.072616e+05   3.297446e+04
   2.802469e+05   2.169876e+05
  -9.970661e+04   2.604175e+05
  -3.844281e+05   1.424535e+05
  -3.324524e+05  -3.933154e+04
  -4.373424e+04  -1.363807e+05
   1.605470e+05  -7.069444e+04
   7.642021e+04   7.293724e+04
  -1.784028e+05   1.051456e+05
  -2.979766e+05  -7.281952e+04
  -1.142719e+05  -3.322354e+05
   2.262213e+05  -4.107406e+05
   4.169267e+05  -1.709971e+05
   3.021015e+05   2.327380e+05
   9.337518e+03   4.675923e+05
  -2.121735e+05   3.313493e+05
  -2.329202e+05  -4.105420e+04
  -1.067529e+05  -3.037329e+05
   4.333633e+04  -2.518619e+05
   1.330749e+05  -2.011902e+04
   1.329410e+05   1.060984e+05
   6.393156e+04   4.082411e+04
   3.704981e+03  -2.857583e+04
   2.747813e+04   7.219251e+04
   9.483606e+04   2.522921e+05
   5.536880e+04   2.773790e+05
  -1.563624e+05   8.337300e+04
  -3.703828e+05  -1.494831e+05
  -3.347637e+05  -2.341266e+05
  -3.421739e+04  -1.752326e+05
   2.499888e+05  -9.087484e+04
   2.610939e+05  -3.611670e+04
   6.796395e+04   1.181629e+04
  -5.157878e+04   5.383111e+04
   1.672608e+04   5.883623e+04
   9.777352e+04   3.895120e+04
  -9.943382e+02   3.939894e+04
  -2.071673e+05   4.089387e+04
  -2.642954e+05  -3.707265e+04
  -5.051980e+04  -1.912572e+05
   2.732138e+05  -2.685565e+05
   4.358977e+05  -1.261209e+05
   3.170840e+05   1.680303e+05
   2.600945e+04   3.717793e+05
  -2.229364e+05   3.200158e+05
  -2.838695e+05   9.215485e+04
  -1.688335e+05  -8.964711e+04
  -1.313398e+04  -9.679752e+04
   4.756863e+04  -4.521160e+03
  -7.522155e+03   1.897844e+04
  -7.839801e+04  -8.925523e+04
  -5.432308e+04  -2.086506e+05
   6.923106e+04  -1.638035e+05
   1.801702e+05   6.457814e+04
   1.528328e+05   2.821822e+05
  -2.636379e+04   2.696293e+05
  -2.200315e+05   2.291230e+04
  -2.427427e+05  -2.348614e+05
  -4.400343e+04  -2.887525e+05
   2.073852e+05  -1.363994e+05
   2.717478e+05   5.766092e+04
   1.007179e+05   1.551183e+05
  -9.407211e+04   1.413932e+05
  -8.592187e+04   7.322510e+04
   8.817150e+04   1.165469e+04
   1.733155e+05   8.478325e+03
   2.039754e+04   7.955659e+04
  -2.261157e+05   1.553110e+05
  -3.094991e+05   1.184364e+05
  -1.616781e+05  -5.179694e+04
   5.072108e+04  -2.100170e+05
   1.440787e+05  -1.892871e+05
   9.356689e+04  -7.856737e+03
  -8.198818e+03   1.359474e+05
  -7.944267e+04   9.335620e+04
  -9.248327e+04  -6.652640e+04
  -4.699160e+04  -1.550078e+05
   3.468520e+04  -9.000268e+04
   9.983241e+04   3.057802e+04
   1.029677e+05   7.096576e+04
   5.570661e+04   1.784916e+04
   9.684018e+03  -2.560616e+04
  -1.093080e+04   2.026677e+04
  -3.114815e+04   1.110085e+05
  -7.327007e+04   1.266975e+05
  -1.096200e+05   1.325294e+04
  -8.598887e+04  -1.399913e+05
   1.240616e+04  -1.817782e+05
   1.252083e+05  -6.214818e+04
   1.518394e+05   1.055975e+05
   4.148636e+04   1.636924e+05
  -1.332733e+05   7.532757e+04
  -2.130560e+05  -5.450424e+04
  -1.062584e+05  -1.106919e+05
   8.925985e+04  -7.891453e+04
   1.681398e+05  -2.115491e+04
   4.902119e+04   9.388799e+03
  -1.169197e+05  -2.109961e+03
  -1.171627e+05  -4.739565e+04
   6.516025e+04  -8.846850e+04
   2.269047e+05  -5.713410e+04
