
 $NMID
 id='ANONYMOUS ', fmtdat='(2E16.6)'
 volume=1.0
 tramp=1.0
 $END
  -2.119329e+07   1.217055e+06
  -1.531431e+07  -8.824983e+06
  -1.308024e+06  -1.359913e+07
   8.802005e+06  -1.012660e+07
   8.279330e+06  -1.772250e+06
   9.870189e+05   3.976623e+06
  -4.502224e+06   2.471317e+06
  -3.817606e+06  -3.380794e+06
   6.767824e+05  -6.404482e+06
   4.065686e+06  -3.125216e+06
   3.706937e+06   2.668307e+06
   6.292022e+05   4.626235e+06
  -2.043720e+06   9.826690e+05
  -1.777196e+06  -3.925502e+06
   1.167499e+06  -4.760516e+06
   3.761777e+06  -7.141190e+05
   3.063905e+06   4.208178e+06
  -6.392330e+05   5.615925e+06
  -4.011789e+06   2.853214e+06
  -4.219180e+06  -1.042664e+06
  -1.827856e+06  -2.835891e+06
   1.520300e+05  -2.162104e+06
  -2.682579e+05  -1.220541e+06
  -1.987241e+06  -1.866098e+06
  -2.142223e+06  -3.500116e+06
   6.919557e+05  -3.961368e+06
   4.645396e+06  -2.113308e+06
   6.065428e+06   8.819592e+05
   3.264136e+06   2.772998e+06
  -1.320205e+06   2.309028e+06
  -3.341519e+06   1.521817e+05
  -1.144716e+06  -1.800615e+06
   2.498373e+06  -1.842790e+06
   3.673741e+06   2.363314e+05
   1.646081e+06   2.753089e+06
  -9.150355e+05   3.361465e+06
  -1.510818e+06   1.376006e+06
  -3.787952e+05  -1.162708e+06
   5.975117e+05  -1.454961e+06
   3.280930e+05   7.995291e+05
  -7.777959e+05   2.812571e+06
  -1.720257e+06   1.937848e+06
  -1.679425e+06  -1.035169e+06
  -3.725075e+05  -2.706810e+06
   1.431331e+06  -1.111824e+06
   1.969299e+06   1.977944e+06
   8.954519e+04   3.173297e+06
  -2.966292e+06   1.231079e+06
  -4.236096e+06  -1.901498e+06
  -2.098772e+06  -3.426770e+06
   1.726642e+06  -2.376208e+06
   3.806074e+06  -3.238115e+04
   2.503145e+06   1.610246e+06
  -5.236466e+05   1.517143e+06
  -2.265433e+06   2.020754e+05
  -1.417313e+06  -9.024197e+05
   5.993982e+05  -7.468111e+05
   1.401069e+06   3.837566e+05
   2.060219e+05   1.189057e+06
  -1.413057e+06   7.211694e+05
  -1.345711e+06  -5.997099e+05
   5.894540e+05  -1.390155e+06
   2.286167e+06  -6.617958e+05
   1.633618e+06   1.224936e+06
  -1.099066e+06   2.798344e+06
  -3.532395e+06   2.627696e+06
  -3.731337e+06   5.220080e+05
  -2.034153e+06  -2.172547e+06
  -2.477920e+05  -3.629538e+06
   4.677649e+05  -3.185421e+06
   4.942926e+05  -1.873429e+06
   8.026272e+05  -1.099963e+06
   1.665253e+06  -9.646402e+05
   2.435417e+06  -3.688142e+05
   2.279377e+06   1.184813e+06
   9.625931e+05   2.533541e+06
  -8.683631e+05   2.092182e+06
  -2.012656e+06  -1.127767e+05
  -1.549917e+06  -2.216518e+06
   3.029885e+05  -2.408449e+06
   2.156546e+06  -6.950314e+05
   2.564637e+06   1.345159e+06
   1.364217e+06   2.246363e+06
  -2.070986e+05   1.859910e+06
  -8.774605e+05   1.089084e+06
  -7.206787e+05   7.760383e+05
  -9.183542e+05   9.139204e+05
  -2.107670e+06   7.816612e+05
  -3.291075e+06  -2.440067e+05
  -2.774474e+06  -1.943156e+06
  -2.110187e+05  -3.252980e+06
   2.646520e+06  -3.092464e+06
   3.536674e+06  -1.355448e+06
   1.965768e+06   8.264965e+05
  -3.415040e+05   1.912065e+06
  -1.271572e+06   1.269602e+06
  -3.691781e+05  -2.085758e+05
   1.017771e+06  -9.369342e+05
   1.367560e+06  -2.578464e+05
   4.781985e+05   8.436708e+05
  -5.760643e+05   8.858089e+05
  -6.575820e+05  -2.683680e+05
   3.649633e+05  -1.089306e+06
   1.532147e+06  -1.531525e+05
   1.605575e+06   2.015832e+06
   1.273431e+05   3.307662e+06
  -2.057536e+06   2.269984e+06
  -3.339627e+06  -3.403889e+05
  -2.682526e+06  -2.393623e+06
  -6.207223e+05  -2.527575e+06
   1.155332e+06  -1.246023e+06
   1.380518e+06  -7.478928e+04
   4.022062e+05   3.250931e+04
  -3.050660e+05  -5.944197e+05
   1.949383e+05  -9.527331e+05
   1.278580e+06  -4.718938e+05
   1.530705e+06   4.610373e+05
   4.459445e+05   9.542635e+05
  -8.793908e+05   5.366318e+05
  -9.088933e+05  -3.499277e+05
   5.710095e+05  -7.584977e+05
   2.076814e+06  -1.416301e+05
   1.932723e+06   1.106140e+06
   5.282910e+04   1.956711e+06
  -1.930376e+06   1.634763e+06
  -2.314695e+06   3.319799e+05
  -9.799537e+05  -8.920225e+05
   6.314454e+05  -1.035692e+06
   1.030172e+06  -1.313880e+05
   5.295151e+04   7.410228e+05
  -1.173045e+06   5.632546e+05
  -1.423724e+06  -5.095074e+05
  -4.942913e+05  -1.317820e+06
   7.124601e+05  -1.014460e+06
   1.090750e+06  -8.389036e+03
   3.905865e+05   5.507184e+05
  -5.293096e+05   8.567796e+04
  -5.496763e+05  -8.227555e+05
   5.202820e+05  -1.123873e+06
   1.651828e+06  -3.762651e+05
   1.622582e+06   8.781864e+05
   3.276665e+05   1.648589e+06
  -1.073880e+06   1.348750e+06
  -1.366596e+06   2.751873e+05
  -5.008089e+05  -6.517403e+05
   4.818810e+05  -7.100847e+05
   6.247255e+05  -4.778324e+04
  -1.397629e+04   5.092371e+05
  -5.866219e+05   3.795577e+05
  -4.404165e+05  -1.347309e+05
   2.133013e+05  -2.519368e+05
   5.543983e+05   3.109395e+05
   2.018390e+04   9.468437e+05
  -1.063091e+06   8.028621e+05
  -1.710982e+06  -2.846529e+05
  -1.208071e+06  -1.564093e+06
   1.593343e+05  -2.035587e+06
   1.346240e+06  -1.333989e+06
   1.556441e+06  -3.236213e+04
   9.527410e+05   8.824271e+05
   3.322922e+05   8.962537e+05
   1.997329e+05   3.913808e+05
   3.001408e+05   1.595421e+05
   6.144501e+04   4.831856e+05
  -6.404061e+05   8.053340e+05
  -1.249867e+06   4.109414e+05
  -1.051201e+06  -6.365555e+05
   8.667962e+04  -1.411811e+06
   1.443107e+06  -1.046361e+06
   1.945392e+06   3.409767e+05
   1.070429e+06   1.690420e+06
  -6.356380e+05   1.955347e+06
  -1.959142e+06   1.007580e+06
  -2.041206e+06  -3.321421e+05
  -1.067427e+06  -1.095702e+06
   2.660285e+04  -1.014824e+06
   4.856936e+05  -6.275520e+05
   3.484544e+05  -5.830204e+05
   2.086456e+05  -8.910213e+05
   4.845738e+05  -9.337564e+05
   9.691008e+05  -2.325027e+05
   1.066610e+06   8.985219e+05
   4.474768e+05   1.570384e+06
  -5.304507e+05   1.188672e+06
  -1.081485e+06   4.267056e+04
  -7.351873e+05  -9.701763e+05
   1.704698e+05  -1.147314e+06
   8.017593e+05  -5.174991e+05
   6.677064e+05   3.130840e+05
   9.026089e+04   7.544556e+05
  -2.158023e+05   6.907041e+05
   2.031729e+04   4.374416e+05
   3.194811e+05   3.214109e+05
   2.629026e+04   3.375300e+05
  -8.726473e+05   2.178244e+05
  -1.603612e+06  -2.067193e+05
  -1.346072e+06  -7.679317e+05
  -1.185910e+05  -1.087697e+06
   1.141415e+06  -9.139820e+05
   1.455029e+06  -3.460044e+05
   7.501025e+05   2.208805e+05
  -1.343132e+05   3.903897e+05
  -3.774537e+05   1.098496e+05
   1.958785e+04  -2.369019e+05
   4.197856e+05  -1.838997e+05
   3.793316e+05   2.805936e+05
   7.930198e+04   6.288635e+05
  -4.428577e+04   3.986070e+05
   1.333405e+05  -1.736614e+05
   3.419458e+05  -3.548173e+05
   2.603694e+05   1.804317e+05
  -1.798867e+05   8.659673e+05
  -7.351257e+05   8.646672e+05
  -9.692291e+05   6.890348e+04
  -5.534056e+05  -7.528720e+05
   3.335706e+05  -8.210874e+05
   9.442895e+05  -1.612692e+05
   5.884995e+05   5.131534e+05
  -5.442061e+05   5.717113e+05
  -1.382959e+06   4.634103e+03
  -1.023465e+06  -6.835819e+05
   2.687615e+05  -9.450230e+05
   1.289968e+06  -5.965881e+05
   1.155084e+06   5.818997e+04
   1.827106e+05   4.628702e+05
  -5.266653e+05   2.917802e+05
  -2.792221e+05  -2.000017e+05
   5.456463e+05  -3.687169e+05
   9.678283e+05   1.636847e+05
   4.387980e+05   1.027983e+06
  -6.274216e+05   1.362779e+06
  -1.300402e+06   6.482930e+05
  -1.042104e+06  -6.824529e+05
  -1.510891e+05  -1.532750e+06
   6.278589e+05  -1.158435e+06
   8.084350e+05   6.765636e+04
   4.505640e+05   9.978046e+05
  -8.070920e+04   8.851448e+05
  -4.451457e+05   1.187632e+05
  -4.710876e+05  -3.421198e+05
  -2.227718e+05  -1.497437e+05
  -8.397574e+03   1.091194e+05
  -1.138628e+05  -1.815771e+05
  -3.838195e+05  -7.851389e+05
  -2.654435e+05  -9.342425e+05
   4.824887e+05  -3.596327e+05
   1.261272e+06   3.955938e+05
   1.179729e+06   7.109061e+05
   1.703038e+05   5.693280e+05
  -8.049753e+05   3.387157e+05
  -8.646463e+05   1.845460e+05
  -2.351671e+05   1.107978e+04
   1.552609e+05  -1.781330e+05
  -6.846067e+04  -2.294379e+05
  -3.269197e+05  -1.462351e+05
   9.339341e+02  -1.177249e+05
   6.707656e+05  -1.467071e+05
   8.637853e+05   4.963178e+04
   2.027157e+05   5.574856e+05
  -8.129226e+05   9.110605e+05
  -1.356097e+06   5.464185e+05
  -1.046072e+06  -4.262149e+05
  -1.754675e+05  -1.198337e+06
   6.267056e+05  -1.114276e+06
   8.802974e+05  -3.702744e+05
   5.595123e+05   2.616488e+05
   6.310856e+04   2.983894e+05
  -1.462829e+05  -1.176618e+04
   3.928849e+04  -8.560180e+04
   2.984761e+05   2.836173e+05
   2.397098e+05   6.825636e+05
  -1.779518e+05   5.433947e+05
  -5.850777e+05  -1.798557e+05
  -5.433223e+05  -8.691497e+05
   2.479070e+04  -8.471903e+05
   6.870883e+05  -1.000061e+05
   8.208547e+05   7.020405e+05
   2.153038e+05   9.077148e+05
  -6.171299e+05   4.864121e+05
  -8.869391e+05  -1.016518e+05
  -3.865334e+05  -4.512129e+05
   2.377835e+05  -4.776226e+05
   2.430136e+05  -2.867796e+05
  -2.916023e+05  -4.855591e+04
  -5.671524e+05   9.617111e+03
  -9.032650e+04  -2.412944e+05
   7.003460e+05  -5.705003e+05
   9.909865e+05  -5.067839e+05
   5.538465e+05   8.429299e+04
  -9.707395e+04   6.914521e+05
  -3.951645e+05   6.792299e+05
  -2.687524e+05   7.315461e+04
   8.830848e+03  -4.347926e+05
   2.195206e+05  -3.140197e+05
   2.933328e+05   2.046472e+05
   1.926749e+05   4.891426e+05
  -6.646708e+04   2.853775e+05
  -3.211090e+05  -7.644336e+04
  -3.703295e+05  -1.859115e+05
  -2.038515e+05  -3.555335e+04
  -8.835890e+03   6.342053e+04
   7.493376e+04  -8.784795e+04
   1.051531e+05  -3.391213e+05
   1.963044e+05  -3.657093e+05
   3.100438e+05  -3.473446e+04
   2.700010e+05   4.095091e+05
  -1.571154e+04   5.483842e+05
  -3.833866e+05   2.167798e+05
  -4.975085e+05  -2.921728e+05
  -1.623399e+05  -5.129104e+05
   4.066896e+05  -2.883524e+05
   6.897589e+05   1.088389e+05
   3.718788e+05   3.240173e+05
  -2.485024e+05   2.723021e+05
  -5.128129e+05   1.111522e+05
  -1.484670e+05   3.216644e+03
   3.711423e+05   1.593727e+04
   3.674914e+05   1.477501e+05
  -2.176032e+05   2.877735e+05
  -7.392877e+05   2.051065e+05
