
 $NMID
 id='ANONYMOUS ', fmtdat='(2E16.6)'
 volume=1.0
 tramp=1.0
 $END
  -7.431104e+06   4.570093e+05
  -4.217290e+06  -5.610829e+06
   1.944160e+06  -5.562247e+06
   4.334161e+06  -8.102964e+05
   1.803698e+06   2.520053e+06
  -1.267949e+06   1.658207e+06
  -1.521899e+06  -7.814672e+05
   1.332704e+05  -1.652089e+06
   1.354731e+06  -8.153312e+05
   1.408010e+06   3.027473e+05
   7.712182e+05   9.676510e+05
  -1.090265e+05   1.044361e+06
  -6.980138e+05   4.508845e+05
  -3.993950e+05  -3.322740e+05
   4.916286e+05  -3.575162e+05
   8.305442e+05   4.902477e+05
   1.396186e+05   1.189949e+06
  -8.040066e+05   1.014060e+06
  -1.231234e+06   3.377268e+05
  -1.230063e+06  -3.160769e+05
  -9.671536e+05  -9.703496e+05
  -1.900985e+05  -1.463134e+06
   8.860765e+05  -1.143385e+06
   1.250536e+06  -2.434412e+04
   4.797679e+05   7.196401e+05
  -3.845764e+05   2.724911e+05
  -2.140185e+05  -5.727674e+05
   6.300900e+05  -5.674295e+05
   9.832682e+05   2.446972e+05
   5.511187e+05   8.655152e+05
  -4.712960e+04   8.753340e+05
  -4.324516e+05   6.216818e+05
  -6.630786e+05   2.881818e+05
  -6.081112e+05  -1.702704e+05
  -1.428720e+05  -4.077905e+05
   2.186588e+05  -5.269994e+04
  -1.153532e+05   4.168212e+05
  -7.229114e+05   1.836873e+05
  -6.479401e+05  -5.497620e+05
   5.490353e+04  -7.685790e+05
   3.535946e+05  -2.924606e+05
  -3.840327e+04  -7.859839e+04
  -1.488510e+05  -5.603650e+05
   5.946448e+05  -8.229536e+05
   1.285436e+06  -7.742150e+04
   8.729682e+05   9.821223e+05
  -2.406698e+05   1.145313e+06
  -8.190367e+05   3.733421e+05
  -4.726216e+05  -3.438543e+05
   1.299469e+05  -3.999908e+05
   3.756074e+05  -2.895851e+04
   2.223323e+05   3.632623e+05
  -1.739191e+05   5.464042e+05
  -5.906231e+05   3.216518e+05
  -6.252621e+05  -2.514263e+05
  -1.366759e+05  -6.002985e+05
   3.059173e+05  -2.874955e+05
   8.916047e+04   2.013562e+05
  -4.329563e+05   3.950690e+04
  -3.465488e+05  -6.394228e+05
   4.194342e+05  -8.400726e+05
   9.288832e+05  -1.899176e+05
   6.306140e+05   5.266784e+05
   7.652620e+04   5.938313e+05
  -9.047700e+04   3.080108e+05
  -6.961043e+04   2.320163e+05
  -2.757926e+05   2.322032e+05
  -4.471271e+05  -6.942625e+04
  -1.200021e+05  -4.041024e+05
   4.138597e+05  -2.083293e+05
   4.167532e+05   3.765169e+05
  -1.768917e+05   6.030219e+05
  -6.503650e+05   1.797437e+05
  -5.150371e+05  -3.842778e+05
  -4.444779e+04  -5.483639e+05
   2.736211e+05  -3.310843e+05
   3.070190e+05  -3.599047e+04
   1.687431e+05   1.527198e+05
  -2.691422e+04   1.537821e+05
  -1.196267e+05  -4.601892e+04
   3.993279e+04  -2.412352e+05
   3.136358e+05  -1.354647e+05
   3.412811e+05   2.271486e+05
   3.154707e+04   4.386976e+05
  -2.794122e+05   2.731561e+05
  -2.976002e+05  -2.489778e+04
  -1.274310e+05  -1.422566e+05
  -7.831165e+03  -9.793027e+04
   2.829081e+04  -5.816480e+04
   4.024427e+04  -3.018163e+04
  -1.196451e+04   2.557215e+04
  -1.174351e+05   1.368350e+04
  -1.015919e+05  -1.093869e+05
   9.185659e+04  -1.633536e+05
   2.147164e+05  -2.020097e+04
   7.412276e+04   1.271604e+05
  -1.195969e+05   5.269950e+04
  -6.828105e+04  -1.110314e+05
   1.269421e+05  -8.650698e+04
   1.500245e+05   7.834487e+04
   1.076966e+04   1.156270e+05
  -1.109872e+04   2.958095e+04
   8.949642e+04   7.517623e+04
   8.543476e+03   2.439151e+05
  -2.913455e+05   2.018382e+05
  -4.143297e+05  -1.432832e+05
  -1.274481e+05  -4.083681e+05
   2.475879e+05  -2.785412e+05
   2.973823e+05   3.772727e+04
   8.243314e+04   1.555757e+05
  -5.448351e+04   5.760285e+04
  -2.312092e+04  -6.920069e+03
   1.281612e+03   2.431452e+04
  -3.672605e+04   6.383410e+03
  -1.413029e+04  -7.598253e+04
   8.473621e+04  -7.328890e+04
   1.211221e+05   4.091479e+04
   5.399080e+04   1.196036e+05
  -6.476953e+03   1.001392e+05
  -2.195320e+04   7.790425e+04
  -7.659847e+04   8.938551e+04
  -1.666022e+05   4.346641e+04
  -1.593842e+05  -7.375925e+04
  -3.082797e+04  -1.314785e+05
   5.894403e+04  -7.355081e+04
   1.834525e+04  -2.238351e+04
  -3.003674e+04  -6.517065e+04
   3.127655e+04  -1.025837e+05
   1.147859e+05  -3.047901e+04
   8.669280e+04   7.082239e+04
  -7.335687e+03   6.876269e+04
  -3.060782e+04  -9.360062e+03
   2.464598e+04  -4.057041e+04
   5.978994e+04  -2.007483e+03
   4.614908e+04   3.731248e+04
   3.056856e+04   5.869632e+04
   1.059932e+04   8.886785e+04
  -5.096571e+04   9.667027e+04
  -1.124402e+05   3.230455e+04
  -9.215678e+04  -5.442781e+04
  -1.285376e+04  -6.503257e+04
   1.943134e+04  -9.520197e+03
  -1.929829e+04   1.013500e+04
  -4.733051e+04  -3.292984e+04
  -2.345882e+04  -6.457938e+04
   5.982957e+03  -5.319083e+04
   2.106465e+04  -4.826759e+04
   6.168616e+04  -5.623377e+04
   1.138653e+05  -1.203593e+04
   8.989372e+04   8.121841e+04
  -2.071575e+04   1.122214e+05
  -9.555498e+04   2.907455e+04
  -4.871390e+04  -6.358195e+04
   4.321942e+04  -5.570274e+04
   6.626995e+04   1.559163e+04
   2.908634e+04   5.304405e+04
   3.628716e+03   5.097791e+04
  -1.158154e+04   5.614781e+04
  -5.518871e+04   5.079090e+04
  -9.137010e+04  -4.984451e+03
  -5.956509e+04  -6.407666e+04
   9.038945e+02  -5.188055e+04
   2.786882e+03  -5.709902e+03
  -3.145185e+04  -2.506489e+04
   3.095207e+03  -9.254433e+04
   1.041417e+05  -8.137777e+04
   1.367649e+05   3.799484e+04
   3.644250e+04   1.315211e+05
  -8.512987e+04   9.322441e+04
  -1.010614e+05  -1.039451e+04
  -3.432672e+04  -5.831770e+04
   1.608624e+04  -4.196758e+04
   2.871791e+04  -2.703463e+04
   4.424009e+04  -2.255569e+04
   5.642636e+04   9.364458e+03
   2.382387e+04   5.438825e+04
  -3.539046e+04   5.677435e+04
  -5.533679e+04   1.600979e+04
  -2.488793e+04  -1.183259e+04
   7.417629e+02  -7.208022e+03
  -6.436999e+03  -7.436211e+03
  -1.324941e+04  -2.912921e+04
   4.735418e+03  -3.884353e+04
   2.380365e+04  -1.612234e+04
   2.136038e+04   1.233294e+04
   1.099712e+04   2.106775e+04
   7.290192e+03   2.005553e+04
   7.605073e+02   2.118689e+04
  -1.215492e+04   1.418568e+04
  -1.540605e+04  -3.640936e+03
  -8.301972e+03  -1.288087e+04
  -1.318536e+04  -7.719668e+03
  -2.845427e+04  -9.545684e+03
  -1.741061e+04  -2.476710e+04
   2.934754e+04  -2.623013e+04
   6.257370e+04  -9.140948e+01
   4.053335e+04   2.508122e+04
  -8.877538e+03   2.316752e+04
  -3.112907e+04   1.002377e+04
  -1.998215e+04   8.232547e+03
  -6.863747e+03   6.845053e+03
  -1.202510e+03  -7.784008e+03
   9.718874e+03  -1.406900e+04
   1.798305e+04   7.707267e+03
   3.799616e+03   2.826282e+04
  -1.936978e+04   1.098913e+04
  -1.842756e+04  -1.975167e+04
   4.512285e+02  -1.117587e+04
  -3.532835e+03   2.660085e+04
  -3.446914e+04   2.712962e+04
  -4.319160e+04  -2.723906e+04
  -1.536038e+03  -7.062120e+04
   5.036234e+04  -4.794746e+04
   5.846414e+04   1.019447e+04
   2.288438e+04   4.065646e+04
  -1.668947e+04   3.108052e+04
  -3.458306e+04   1.031470e+04
  -2.788465e+04  -8.179462e+03
   2.139821e+03  -2.622226e+04
   4.122992e+04  -2.808166e+04
   5.300273e+04   2.247280e+03
   1.720700e+04   4.040421e+04
  -3.193235e+04   4.344861e+04
  -4.163427e+04   1.141578e+04
  -1.057752e+04  -1.196525e+04
   1.195558e+04  -2.893029e+03
  -3.129148e+03   1.432215e+04
  -3.052364e+04   9.807757e+03
  -3.441618e+04  -1.383109e+04
  -1.348959e+04  -3.658732e+04
   1.209394e+04  -4.549180e+04
   3.074886e+04  -3.253071e+04
   3.770056e+04   4.039640e+03
   2.503417e+04   4.172876e+04
  -4.332623e+03   4.361944e+04
  -2.624969e+04   5.219550e+03
  -1.965757e+04  -3.074904e+04
   5.734056e+03  -2.703802e+04
   2.189441e+04   9.105593e+02
   1.666279e+04   1.381942e+04
   2.195709e+03   5.719892e+03
  -4.985454e+03   2.188285e+03
   1.618569e+00   1.313157e+04
   9.643213e+03   2.096140e+04
   9.332088e+03   1.468092e+04
  -1.020650e+04   5.129656e+03
  -3.650340e+04   6.165108e+02
  -4.093941e+04  -6.524302e+03
  -1.333093e+04  -1.945424e+04
   1.924883e+04  -2.492526e+04
   2.481771e+04  -1.449220e+04
   8.621094e+03  -4.501212e+02
   1.660342e+03   3.008816e+03
   1.250914e+04   1.030324e+03
   1.671057e+04   6.261734e+03
  -2.402058e+03   1.583038e+04
  -2.715532e+04   1.484986e+04
  -3.059265e+04  -2.091163e+03
  -9.488293e+03  -2.410444e+04
   1.934370e+04  -3.501238e+04
   3.983372e+04  -2.408410e+04
   4.144414e+04   6.958508e+03
   1.879972e+04   3.882838e+04
  -1.693711e+04   4.499299e+04
  -3.748243e+04   1.947420e+04
  -2.601662e+04  -1.151397e+04
   3.587157e+01  -1.860627e+04
   1.039914e+04  -4.970535e+03
   2.138091e+02   1.784045e+03
  -9.268632e+03  -9.977923e+03
  -3.377436e+03  -2.170337e+04
   1.071468e+04  -1.356030e+04
   1.986191e+04   9.191216e+03
   1.812081e+04   2.618691e+04
   3.575751e+03   2.563799e+04
  -1.949121e+04   9.727836e+03
  -3.243804e+04  -1.265430e+04
  -1.629764e+04  -2.843074e+04
   1.831644e+04  -2.435205e+04
   3.443357e+04  -9.277946e+02
   1.432554e+04   2.158860e+04
  -1.457417e+04   2.221917e+04
  -1.568028e+04   3.383752e+03
   8.014967e+03  -1.226448e+04
   2.166658e+04  -8.346249e+03
   7.589631e+03   9.192443e+03
  -1.591847e+04   2.183139e+04
  -2.454918e+04   1.716966e+04
  -1.592283e+04  -2.007167e+03
  -1.998024e+03  -2.052074e+04
   9.077933e+03  -2.217304e+04
   1.376531e+04  -4.861987e+03
   8.249621e+03   1.451481e+04
  -5.472553e+03   1.623721e+04
  -1.535417e+04   1.044121e+02
  -1.132482e+04  -1.450959e+04
   1.777794e+03  -1.262963e+04
   1.063085e+04  -6.540951e+02
   9.732016e+03   4.822938e+03
   4.834481e+03  -8.342846e+02
   2.729699e+03  -6.229193e+03
   3.857742e+03  -2.190220e+02
   3.903363e+03   1.360946e+04
  -1.518722e+03   2.036619e+04
  -1.183623e+04   1.005408e+04
  -1.815679e+04  -1.043026e+04
  -9.695164e+03  -2.236531e+04
   1.089295e+04  -1.413132e+04
   2.375943e+04   5.747787e+03
   1.256783e+04   1.780696e+04
  -1.313384e+04   1.309800e+04
  -2.627558e+04   3.014347e+02
  -1.408203e+04  -8.327124e+03
   7.666851e+03  -1.004524e+04
   1.538044e+04  -7.746771e+03
   4.524084e+03  -2.317370e+03
  -9.465369e+03   3.645489e+03
  -1.098751e+04   2.208047e+03
   1.279396e+03  -8.671854e+03
   1.601615e+04  -1.502751e+04
