
 $NMID
 id='ANONYMOUS ', fmtdat='(2E16.6)'
 volume=1.0
 tramp=1.0
 $END
   6.404905e+07   1.018366e+06
   3.737143e+07   4.136692e+07
  -1.013014e+07   4.350612e+07
  -3.203540e+07   1.495874e+07
  -1.805871e+07  -9.489754e+06
   4.533769e+06  -1.042635e+07
   1.092347e+07   2.398452e+06
   2.204669e+06   1.123742e+07
  -7.671404e+06   9.671665e+06
  -1.086945e+07   1.439848e+06
  -7.550327e+06  -7.020793e+06
  -7.344351e+05  -9.356266e+06
   4.387685e+06  -3.087075e+06
   2.668851e+06   5.642130e+06
  -4.449175e+06   6.702412e+06
  -8.703344e+06  -1.982007e+06
  -4.518837e+06  -1.155245e+07
   4.669067e+06  -1.303083e+07
   1.149371e+07  -6.428158e+06
   1.222716e+07   2.356452e+06
   7.661641e+06   8.569035e+06
   8.386939e+05   1.017114e+07
  -3.773357e+06   7.189248e+06
  -2.951799e+06   2.815816e+06
   6.935025e+05   1.671508e+06
   4.628936e+05   4.022621e+06
  -5.403508e+06   4.778988e+06
  -1.024224e+07   7.674110e+05
  -7.766043e+06  -4.395649e+06
  -6.605050e+05  -5.611951e+06
   3.652755e+06  -3.109206e+06
   2.728628e+06  -5.348950e+05
  -2.734606e+04   5.934409e+05
  -1.748146e+06   6.426153e+05
  -2.227988e+06  -9.859567e+05
  -1.102040e+06  -3.901931e+06
   1.829010e+06  -4.387036e+06
   3.916968e+06  -2.032413e+05
   2.282707e+06   4.109981e+06
  -8.786017e+05   2.637015e+06
  -6.223299e+05  -2.225641e+06
   2.593022e+06  -2.271126e+06
   2.523311e+06   3.709599e+06
  -3.215641e+06   6.835054e+06
  -8.270612e+06   8.681276e+05
  -5.732135e+06  -8.120176e+06
   2.513715e+06  -9.692177e+06
   8.424395e+06  -2.568148e+06
   7.369646e+06   5.086894e+06
   1.603755e+06   6.550049e+06
  -3.869507e+06   2.636612e+06
  -5.425593e+06  -1.992258e+06
  -2.246089e+06  -3.914017e+06
   2.886623e+06  -2.262293e+06
   4.969389e+06   1.268369e+06
   1.983875e+06   3.149297e+06
  -1.981320e+06   1.464934e+06
  -1.743856e+06  -1.192647e+06
   1.728155e+06  -7.820907e+05
   2.664744e+06   2.432949e+06
  -1.199079e+06   4.120053e+06
  -5.628114e+06   1.922698e+06
  -5.938855e+06  -1.944732e+06
  -2.371903e+06  -4.633417e+06
   1.989530e+06  -5.728904e+06
   5.270887e+06  -5.210004e+06
   6.652853e+06  -1.951901e+06
   5.082264e+06   3.352585e+06
   1.032244e+06   6.645668e+06
  -2.246659e+06   5.001510e+06
  -2.079819e+06   9.615271e+05
   2.171610e+04  -6.401943e+05
   5.055046e+05   9.288567e+05
  -1.308565e+06   2.093826e+06
  -2.840385e+06   6.059274e+05
  -2.217580e+06  -1.693202e+06
  -2.545084e+05  -2.060464e+06
   1.351511e+06  -2.602320e+05
   1.609225e+06   1.973423e+06
   5.122750e+04   2.962473e+06
  -2.844768e+06   1.828012e+06
  -4.820901e+06  -1.146136e+06
  -3.586571e+06  -4.075602e+06
   2.756890e+04  -4.742042e+06
   2.618480e+06  -3.061434e+06
   2.600180e+06  -1.177829e+06
   2.043361e+06  -5.659198e+05
   3.083908e+06  -3.268103e+05
   4.482292e+06   9.516552e+05
   3.518847e+06   2.956902e+06
   3.413198e+04   4.229412e+06
  -3.312387e+06   3.937560e+06
  -4.231065e+06   2.199764e+06
  -2.746207e+06  -3.216760e+05
  -4.138769e+05  -2.242074e+06
   1.030274e+06  -2.036603e+06
   5.941630e+05  -1.041028e+04
  -1.087867e+06   1.350284e+06
  -2.000178e+06   3.951048e+05
  -1.000947e+06  -1.278688e+06
   4.958678e+05  -1.126307e+06
   3.312083e+05   4.247361e+05
  -1.260991e+06   5.347794e+05
  -1.876130e+06  -1.715487e+06
  -2.748887e+05  -3.825726e+06
   2.122529e+06  -3.295885e+06
   3.385365e+06  -6.626176e+05
   3.152877e+06   1.792381e+06
   2.008210e+06   2.812721e+06
   3.327530e+05   2.543660e+06
  -1.244557e+06   1.453311e+06
  -1.580188e+06   2.405534e+05
  -5.016385e+05  -5.583105e+04
   3.464981e+05   7.805370e+05
  -4.922319e+05   1.407059e+06
  -2.046291e+06   5.572835e+05
  -2.101238e+06  -1.027659e+06
  -3.231354e+05  -1.517981e+06
   1.234082e+06  -5.341041e+05
   8.354730e+05   4.954533e+05
  -9.271759e+05   4.060971e+05
  -2.130734e+06  -5.089413e+05
  -1.585906e+06  -1.428302e+06
   3.828986e+05  -1.895816e+06
   2.377230e+06  -1.549510e+06
   2.821146e+06  -1.909153e+05
   1.225239e+06   1.360166e+06
  -1.002829e+06   1.580767e+06
  -1.675955e+06   1.761751e+05
  -2.230261e+05  -1.151913e+06
   1.585050e+06  -7.366599e+05
   1.734493e+06   8.761998e+05
   2.373105e+05   1.707448e+06
  -1.198968e+06   9.023112e+05
  -1.257702e+06  -4.367516e+05
  -1.673870e+05  -8.352810e+05
   8.604997e+05  -2.386971e+04
   7.511155e+05   1.108136e+06
  -6.010612e+05   1.461289e+06
  -2.061788e+06   5.409482e+05
  -2.077816e+06  -1.105006e+06
  -3.497388e+05  -2.145948e+06
   1.539067e+06  -1.652170e+06
   1.784264e+06  -1.472566e+05
   4.636314e+05   9.172435e+05
  -7.098384e+05   7.875363e+05
  -6.083993e+05   6.782870e+04
   1.649124e+05  -2.916159e+05
   4.471202e+05  -1.249217e+05
   2.266759e+03   4.862480e+04
  -5.185605e+05  -1.946956e+05
  -4.764120e+05  -7.846599e+05
   3.003815e+05  -1.223792e+06
   1.457298e+06  -8.669561e+05
   2.120776e+06   4.821478e+05
   1.460372e+06   2.024918e+06
  -2.720683e+05   2.452198e+06
  -1.669503e+06   1.349914e+06
  -1.663688e+06  -2.100298e+05
  -7.687681e+05  -8.799449e+05
  -2.829422e+05  -5.414536e+05
  -5.508143e+05  -1.540542e+05
  -7.148127e+05  -3.643846e+05
  -8.740730e+04  -8.360792e+05
   9.412714e+05  -8.844203e+05
   1.468281e+06  -2.537630e+05
   9.928782e+05   7.447731e+05
  -3.279017e+05   1.413141e+06
  -1.772323e+06   1.004792e+06
  -2.253451e+06  -5.572918e+05
  -1.068265e+06  -2.181369e+06
   1.147254e+06  -2.395774e+06
   2.665370e+06  -9.488084e+05
   2.350303e+06   7.950031e+05
   8.473947e+05   1.389388e+06
  -2.835072e+05   8.762419e+05
  -3.486789e+05   4.355096e+05
   1.145662e+04   7.772861e+05
  -8.050752e+04   1.398033e+06
  -7.297885e+05   1.350478e+06
  -1.360785e+06   3.146003e+05
  -1.359033e+06  -1.122180e+06
  -5.388771e+05  -1.939210e+06
   6.530917e+05  -1.453287e+06
   1.303737e+06   4.276297e+04
   7.819569e+05   1.357966e+06
  -4.801193e+05   1.420463e+06
  -1.254472e+06   3.259824e+05
  -8.189053e+05  -8.243279e+05
   2.152561e+05  -1.147398e+06
   6.475664e+05  -7.738262e+05
   1.293916e+05  -3.878426e+05
  -4.515465e+05  -3.322424e+05
  -6.422877e+04  -3.843692e+05
   1.205320e+06  -1.794142e+05
   2.139035e+06   3.987854e+05
   1.628933e+06   1.119636e+06
  -1.207054e+05   1.502339e+06
  -1.706475e+06   1.148735e+06
  -1.895857e+06   2.070070e+05
  -8.196655e+05  -5.916579e+05
   3.062888e+05  -6.080693e+05
   5.412785e+05   5.245638e+03
   4.480436e+04   4.732813e+05
  -4.331233e+05   2.690206e+05
  -4.939741e+05  -3.557667e+05
  -3.005687e+05  -7.268652e+05
  -1.408540e+05  -4.873712e+05
  -1.349805e+05   5.654218e+04
  -2.473613e+05   2.468149e+05
  -2.658859e+05  -2.479969e+05
   1.341163e+05  -9.847829e+05
   9.385055e+05  -1.081793e+06
   1.457534e+06  -1.914179e+05
   9.191119e+05   9.456446e+05
  -4.429233e+05   1.207451e+06
  -1.326979e+06   3.774655e+05
  -7.481250e+05  -5.778191e+05
   7.417376e+05  -6.365449e+05
   1.590395e+06   1.587977e+05
   9.312671e+05   9.121219e+05
  -5.676120e+05   9.490341e+05
  -1.517821e+06   3.771990e+05
  -1.197743e+06  -2.600545e+05
  -9.666292e+04  -5.113269e+05
   6.729183e+05  -2.334760e+05
   4.054020e+05   3.254177e+05
  -5.761765e+05   5.535972e+05
  -1.211492e+06  -5.315020e+04
  -7.253805e+05  -1.189704e+06
   5.555127e+05  -1.753244e+06
   1.490543e+06  -9.284283e+05
   1.273574e+06   7.613503e+05
   1.940993e+05   1.809879e+06
  -7.669033e+05   1.272022e+06
  -9.246043e+05  -2.317982e+05
  -3.788174e+05  -1.221048e+06
   2.904091e+05  -9.483119e+05
   5.878858e+05  -5.356152e+04
   4.278419e+05   3.790191e+05
   1.194242e+05   1.259017e+05
   6.766530e+04  -8.149220e+04
   3.447579e+05   3.367627e+05
   5.295937e+05   1.002013e+06
   1.247071e+05   1.085400e+06
  -7.940883e+05   3.796169e+05
  -1.482392e+06  -4.880403e+05
  -1.236129e+06  -8.635829e+05
  -1.725190e+05  -7.227440e+05
   8.241115e+05  -4.235941e+05
   9.830934e+05  -1.564861e+05
   4.052468e+05   8.772842e+04
  -1.314061e+05   2.336159e+05
  -9.431890e+04   1.776354e+05
   2.084591e+05   6.300647e+04
   7.482767e+04   1.327873e+05
  -6.090233e+05   2.624551e+05
  -1.074104e+06   2.590336e+03
  -5.294182e+05  -7.200360e+05
   8.025022e+05  -1.236737e+06
   1.777556e+06  -8.109120e+05
   1.516213e+06   4.090637e+05
   3.032595e+05   1.422863e+06
  -8.017284e+05   1.420948e+06
  -1.073086e+06   5.905301e+05
  -6.596610e+05  -2.013432e+05
  -1.636996e+05  -3.674225e+05
   1.765376e+04  -1.073906e+05
  -1.020235e+05  -2.717804e+04
  -2.751054e+05  -3.937173e+05
  -2.250814e+05  -8.236508e+05
   1.699404e+05  -7.067905e+05
   6.833410e+05   7.817805e+04
   7.953365e+05   9.266888e+05
   1.919592e+05   1.060835e+06
  -7.299834e+05   3.185594e+05
  -1.080624e+06  -6.735381e+05
  -4.014888e+05  -1.114578e+06
   7.156653e+05  -7.416291e+05
   1.173392e+06   5.422243e+04
   5.796087e+05   6.675294e+05
  -2.964224e+05   7.509350e+05
  -4.386471e+05   3.887640e+05
   1.950021e+05  -1.603724e+04
   6.471990e+05  -5.265986e+04
   1.706616e+05   3.255431e+05
  -8.393212e+05   6.870018e+05
  -1.331298e+06   5.093637e+05
  -8.352157e+05  -2.262154e+05
   9.015783e+04  -9.106934e+05
   6.119727e+05  -8.981117e+05
   4.936438e+05  -2.080971e+05
   8.950376e+04   4.649543e+05
  -2.313031e+05   4.780806e+05
  -3.582514e+05  -9.482528e+04
  -2.712891e+05  -5.855976e+05
   3.803965e+04  -4.856386e+05
   4.022281e+05   1.940293e+04
   5.047444e+05   3.213922e+05
   2.475674e+05   1.305537e+05
  -6.201349e+04  -1.959968e+05
  -8.304140e+04  -1.312733e+05
   9.088771e+04   3.278716e+05
   5.838222e+04   6.243509e+05
  -2.922301e+05   3.257210e+05
  -5.449384e+05  -3.203527e+05
  -2.626625e+05  -6.537216e+05
   3.866916e+05  -3.525763e+05
   7.183816e+05   2.435745e+05
   2.932935e+05   5.614667e+05
  -5.314736e+05   3.853592e+05
  -9.351399e+05  -4.480831e+04
  -5.090964e+05  -3.800327e+05
   2.971611e+05  -4.530891e+05
   6.665354e+05  -2.898553e+05
   2.995136e+05  -2.892417e+04
  -2.924518e+05   1.200917e+05
  -3.942108e+05   2.530738e+03
   1.171004e+05  -2.628381e+05
   6.729326e+05  -2.894248e+05
