
 $NMID
 id='ANONYMOUS ', fmtdat='(2E16.6)'
 volume=1.0
 tramp=1.0
 $END
   5.665497e+07   1.368085e+06
   3.310596e+07   3.615063e+07
  -8.633480e+06   3.822260e+07
  -2.818957e+07   1.379451e+07
  -1.627672e+07  -7.720148e+06
   3.687809e+06  -9.274345e+06
   9.802039e+06   1.650532e+06
   2.385330e+06   9.907537e+06
  -6.558385e+06   9.055780e+06
  -9.720275e+06   1.630253e+06
  -6.820907e+06  -6.369566e+06
  -6.075631e+05  -8.573336e+06
   4.036269e+06  -2.674137e+06
   2.468883e+06   5.402478e+06
  -3.953429e+06   6.344256e+06
  -7.834792e+06  -1.605211e+06
  -4.145277e+06  -1.034075e+07
   4.121019e+06  -1.170341e+07
   1.028143e+07  -5.675391e+06
   1.081802e+07   2.282785e+06
   6.543884e+06   7.675473e+06
   5.373212e+05   8.790866e+06
  -3.154274e+06   6.100762e+06
  -2.107911e+06   2.615890e+06
   9.475203e+05   2.014071e+06
   2.171508e+05   4.043930e+06
  -5.354605e+06   4.271445e+06
  -9.564897e+06   3.600108e+05
  -6.954371e+06  -4.223631e+06
  -2.391158e+05  -5.068325e+06
   3.664806e+06  -2.560017e+06
   2.474592e+06  -8.213533e+04
  -4.792727e+05   8.324525e+05
  -2.118168e+06   4.733782e+05
  -2.126391e+06  -1.340561e+06
  -6.942740e+05  -3.845704e+06
   1.839526e+06  -3.844821e+06
   3.304980e+06   9.778960e+04
   1.724859e+06   3.687460e+06
  -8.195446e+05   2.019471e+06
  -3.509896e+05  -2.356505e+06
   2.474299e+06  -2.195209e+06
   2.342481e+06   3.277777e+06
  -2.661898e+06   6.089880e+06
  -7.088775e+06   8.194981e+05
  -4.990964e+06  -7.121602e+06
   2.166436e+06  -8.537424e+06
   7.513772e+06  -2.244877e+06
   6.788935e+06   4.620184e+06
   1.630536e+06   6.038949e+06
  -3.534110e+06   2.563402e+06
  -5.143182e+06  -1.696383e+06
  -2.260899e+06  -3.547465e+06
   2.505251e+06  -2.111685e+06
   4.498327e+06   1.066683e+06
   1.857390e+06   2.788444e+06
  -1.761868e+06   1.324344e+06
  -1.680757e+06  -1.073983e+06
   1.395869e+06  -8.430252e+05
   2.425505e+06   1.905385e+06
  -7.918893e+05   3.492081e+06
  -4.768464e+06   1.771142e+06
  -5.286714e+06  -1.553442e+06
  -2.196661e+06  -4.069414e+06
   1.906422e+06  -5.206880e+06
   5.047022e+06  -4.711501e+06
   6.185759e+06  -1.627527e+06
   4.521745e+06   3.218910e+06
   8.189560e+05   6.152808e+06
  -1.996369e+06   4.676030e+06
  -1.815541e+06   1.105341e+06
  -1.173313e+05  -3.305246e+05
   1.078617e+05   9.494757e+05
  -1.544334e+06   1.784896e+06
  -2.767187e+06   2.565318e+05
  -1.990346e+06  -1.882865e+06
  -3.133955e+04  -2.087475e+06
   1.486322e+06  -1.834925e+05
   1.591653e+06   2.047941e+06
  -4.431811e+04   2.884204e+06
  -2.760582e+06   1.603842e+06
  -4.430528e+06  -1.245030e+06
  -3.157895e+06  -3.811758e+06
   1.173525e+05  -4.247733e+06
   2.354919e+06  -2.689295e+06
   2.287234e+06  -1.079021e+06
   1.855642e+06  -6.083389e+05
   2.926754e+06  -3.783032e+05
   4.280926e+06   8.765999e+05
   3.372219e+06   2.828262e+06
   2.182341e+04   4.078175e+06
  -3.252974e+06   3.773264e+06
  -4.156031e+06   2.015325e+06
  -2.621223e+06  -4.457329e+05
  -2.561901e+05  -2.203446e+06
   1.105192e+06  -1.901285e+06
   5.602287e+05   3.638320e+04
  -1.096736e+06   1.274543e+06
  -1.904658e+06   3.520693e+05
  -8.997495e+05  -1.220722e+06
   5.271912e+05  -1.087877e+06
   3.909562e+05   4.006850e+05
  -1.108671e+06   6.263825e+05
  -1.804036e+06  -1.403464e+06
  -4.761760e+05  -3.519544e+06
   1.760086e+06  -3.292745e+06
   3.167889e+06  -9.218654e+05
   3.184272e+06   1.572141e+06
   2.113296e+06   2.774001e+06
   3.612109e+05   2.559452e+06
  -1.251696e+06   1.411146e+06
  -1.557330e+06   1.944737e+05
  -4.862100e+05  -5.796868e+04
   3.338428e+05   7.552615e+05
  -4.555499e+05   1.328789e+06
  -1.926133e+06   5.243087e+05
  -2.001446e+06  -9.534801e+05
  -3.329293e+05  -1.430086e+06
   1.182972e+06  -5.277463e+05
   8.511956e+05   4.785734e+05
  -8.687151e+05   4.631737e+05
  -2.126369e+06  -4.134962e+05
  -1.644269e+06  -1.392511e+06
   3.240206e+05  -1.913935e+06
   2.326175e+06  -1.550266e+06
   2.749191e+06  -1.878957e+05
   1.174126e+06   1.297771e+06
  -9.594665e+05   1.481849e+06
  -1.572459e+06   1.507842e+05
  -1.819117e+05  -1.088285e+06
   1.528343e+06  -6.941246e+05
   1.680487e+06   8.331213e+05
   2.682279e+05   1.650475e+06
  -1.127522e+06   9.169694e+05
  -1.231821e+06  -3.708747e+05
  -2.021261e+05  -7.911407e+05
   8.049246e+05  -2.835610e+04
   7.084389e+05   1.068992e+06
  -6.035949e+05   1.402203e+06
  -2.004558e+06   4.933707e+05
  -1.996219e+06  -1.091972e+06
  -3.253784e+05  -2.072679e+06
   1.482002e+06  -1.591197e+06
   1.722086e+06  -1.520365e+05
   4.646252e+05   8.809638e+05
  -6.811677e+05   7.726387e+05
  -6.177056e+05   5.944924e+04
   1.386450e+05  -3.316042e+05
   4.747732e+05  -1.694665e+05
   8.241197e+04   6.206635e+04
  -4.613734e+05  -1.209468e+05
  -4.831596e+05  -7.069287e+05
   2.568249e+05  -1.175709e+06
   1.402481e+06  -8.443212e+05
   2.053173e+06   4.712283e+05
   1.401583e+06   1.968442e+06
  -2.794869e+05   2.388661e+06
  -1.635527e+06   1.338023e+06
  -1.652404e+06  -1.848360e+05
  -7.979674e+05  -8.947283e+05
  -2.881325e+05  -6.137033e+05
  -4.879913e+05  -2.051594e+05
  -6.381425e+05  -3.368378e+05
  -7.296880e+04  -7.764114e+05
   9.011370e+05  -8.636453e+05
   1.438181e+06  -2.677043e+05
   1.000251e+06   7.392559e+05
  -3.004748e+05   1.416661e+06
  -1.732311e+06   9.991228e+05
  -2.204339e+06  -5.446587e+05
  -1.052524e+06  -2.115679e+06
   1.085364e+06  -2.317600e+06
   2.562343e+06  -9.374072e+05
   2.300172e+06   7.397706e+05
   8.789946e+05   1.353083e+06
  -2.467109e+05   9.043536e+05
  -3.804003e+05   4.703983e+05
  -6.337743e+04   7.473753e+05
  -1.203633e+05   1.313293e+06
  -7.043673e+05   1.274646e+06
  -1.301027e+06   2.867675e+05
  -1.302173e+06  -1.102947e+06
  -5.050557e+05  -1.889865e+06
   6.502522e+05  -1.407451e+06
   1.271012e+06   4.073699e+04
   7.640793e+05   1.303324e+06
  -4.411218e+05   1.374018e+06
  -1.182052e+06   3.500591e+05
  -7.868622e+05  -7.436935e+05
   1.725691e+05  -1.079395e+06
   5.797526e+05  -7.562695e+05
   1.064783e+05  -3.983767e+05
  -4.260024e+05  -3.375184e+05
  -5.306614e+04  -3.786495e+05
   1.153124e+06  -1.741586e+05
   2.048835e+06   3.890907e+05
   1.575064e+06   1.079092e+06
  -9.284325e+04   1.433730e+06
  -1.625135e+06   1.094357e+06
  -1.829109e+06   2.139257e+05
  -8.058974e+05  -5.353288e+05
   2.831164e+05  -5.680806e+05
   5.141051e+05  -1.006626e+04
   2.713057e+04   4.328208e+05
  -4.370650e+05   2.497940e+05
  -4.718632e+05  -3.500611e+05
  -2.529819e+05  -7.171881e+05
  -1.018127e+05  -4.760577e+05
  -1.359432e+05   7.697182e+04
  -2.685647e+05   2.661071e+05
  -2.631569e+05  -2.392136e+05
   1.542474e+05  -9.670314e+05
   9.179522e+05  -1.038048e+06
   1.377772e+06  -1.539700e+05
   8.466389e+05   9.260534e+05
  -4.387453e+05   1.138537e+06
  -1.268808e+06   3.248230e+05
  -7.170630e+05  -5.780908e+05
   7.170559e+05  -6.205141e+05
   1.560752e+06   1.469627e+05
   9.446348e+05   8.856497e+05
  -5.260692e+05   9.481533e+05
  -1.489464e+06   4.041291e+05
  -1.194946e+06  -2.368930e+05
  -1.079487e+05  -5.067447e+05
   6.526849e+05  -2.389226e+05
   3.812725e+05   3.084880e+05
  -5.803450e+05   5.168395e+05
  -1.173952e+06  -8.716327e+04
  -6.640312e+05  -1.175837e+06
   5.922168e+05  -1.686682e+06
   1.475924e+06  -8.661850e+05
   1.230912e+06   7.661294e+05
   1.674451e+05   1.772945e+06
  -7.601098e+05   1.251241e+06
  -9.065700e+05  -2.126862e+05
  -3.816575e+05  -1.191610e+06
   2.630265e+05  -9.397568e+05
   5.654924e+05  -5.990318e+04
   4.349371e+05   3.790631e+05
   1.385409e+05   1.322829e+05
   5.795914e+04  -8.656299e+04
   3.001413e+05   3.139103e+05
   4.951616e+05   9.743387e+05
   1.403409e+05   1.066117e+06
  -7.453698e+05   3.697935e+05
  -1.446193e+06  -4.903907e+05
  -1.224880e+06  -8.544421e+05
  -1.652816e+05  -7.008199e+05
   8.310856e+05  -4.016680e+05
   9.694536e+05  -1.521546e+05
   3.750448e+05   7.437674e+04
  -1.395414e+05   2.235948e+05
  -6.645377e+04   1.874361e+05
   2.315343e+05   8.094163e+04
   5.981247e+04   1.315313e+05
  -6.277344e+05   2.361298e+05
  -1.042301e+06  -1.879301e+04
  -4.639476e+05  -7.006536e+05
   8.238612e+05  -1.175875e+06
   1.720117e+06  -7.474509e+05
   1.434268e+06   4.321035e+05
   2.658023e+05   1.394186e+06
  -7.900485e+05   1.364497e+06
  -1.050853e+06   5.416240e+05
  -6.433668e+05  -2.210656e+05
  -1.420837e+05  -3.587532e+05
   4.313135e+04  -8.574511e+04
  -9.049152e+04  -7.372269e+03
  -2.771242e+05  -3.786325e+05
  -2.206673e+05  -8.053316e+05
   1.802255e+05  -6.794894e+05
   6.691188e+05   1.050440e+05
   7.438823e+05   9.313043e+05
   1.410288e+05   1.030733e+06
  -7.309308e+05   2.719310e+05
  -1.032392e+06  -6.956950e+05
  -3.571076e+05  -1.088213e+06
   7.105133e+05  -6.910940e+05
   1.127309e+06   7.641647e+04
   5.400405e+05   6.379033e+05
  -2.957080e+05   7.015829e+05
  -4.091017e+05   3.675699e+05
   2.148230e+05  -1.837589e+03
   6.372906e+05  -3.784996e+04
   1.531085e+05   3.139322e+05
  -8.267386e+05   6.608704e+05
  -1.282346e+06   4.978819e+05
  -7.857139e+05  -2.104825e+05
   1.021685e+05  -8.751022e+05
   5.855107e+05  -8.565495e+05
   4.572374e+05  -1.785794e+05
   6.655770e+04   4.636919e+05
  -2.360768e+05   4.480778e+05
  -3.476790e+05  -1.201361e+05
  -2.520228e+05  -5.746496e+05
   4.912060e+04  -4.510623e+05
   3.897543e+05   3.468340e+04
   4.795153e+05   3.038079e+05
   2.395981e+05   1.163695e+05
  -4.690907e+04  -1.731906e+05
  -8.045170e+04  -9.188864e+04
   5.116179e+04   3.335771e+05
   3.844068e+03   5.811333e+05
  -3.015760e+05   2.701767e+05
  -4.937928e+05  -3.456554e+05
  -2.049925e+05  -6.417525e+05
   3.927862e+05  -3.253644e+05
   6.793697e+05   2.624389e+05
   2.646583e+05   5.596068e+05
  -5.160199e+05   3.639892e+05
  -8.952591e+05  -6.748033e+04
  -4.828148e+05  -3.778461e+05
   2.952328e+05  -4.191357e+05
   6.458140e+05  -2.509955e+05
   2.736395e+05  -2.081176e+04
  -3.108850e+05   9.241710e+04
  -3.923363e+05  -3.000133e+04
   1.396281e+05  -2.683758e+05
   6.935275e+05  -2.685486e+05
