
 $NMID
 id='ANONYMOUS ', fmtdat='(2E16.6)'
 volume=1.0
 tramp=1.0
 $END
  -2.789675e+07   4.951874e+05
  -1.775725e+07  -1.530475e+07
   1.944412e+06  -1.840890e+07
   1.285470e+07  -9.234206e+06
   8.929971e+06   1.485190e+06
  -6.964572e+05   4.812878e+06
  -5.207735e+06   7.469412e+05
  -2.636151e+06  -4.667943e+06
   2.264098e+06  -5.932267e+06
   4.941881e+06  -2.066502e+06
   3.958048e+06   3.258250e+06
   5.350296e+05   4.931173e+06
  -2.297062e+06   1.332156e+06
  -1.756658e+06  -3.582589e+06
   1.679163e+06  -4.307973e+06
   4.219121e+06   9.242695e+04
   2.816084e+06   5.170379e+06
  -1.503599e+06   6.298735e+06
  -5.068491e+06   3.148299e+06
  -5.391119e+06  -1.180255e+06
  -2.933568e+06  -3.755113e+06
  -7.697390e+04  -3.798156e+06
   8.973433e+05  -2.445733e+06
  -3.102976e+05  -1.582576e+06
  -1.437927e+06  -2.193299e+06
   1.244435e+05  -3.186988e+06
   3.854410e+06  -2.508165e+06
   5.970785e+06   1.526795e+05
   3.840704e+06   2.629922e+06
  -5.318021e+05   2.810589e+06
  -2.818383e+06   1.005232e+06
  -1.431347e+06  -8.199706e+05
   1.276249e+06  -1.249776e+06
   2.427930e+06  -1.590239e+05
   1.513758e+06   1.696507e+06
  -1.687509e+05   2.843340e+06
  -1.302836e+06   1.874372e+06
  -1.259134e+06  -6.382316e+05
  -2.705343e+05  -1.915942e+06
   4.673234e+05  -2.646870e+05
  -1.676285e+05   2.116210e+06
  -1.534538e+06   1.650405e+06
  -1.545213e+06  -1.501008e+06
   6.068436e+05  -3.189772e+06
   2.884530e+06  -7.921743e+05
   2.548827e+06   3.151497e+06
  -5.637200e+05   4.186319e+06
  -3.743838e+06   1.359412e+06
  -4.200171e+06  -2.239616e+06
  -1.597051e+06  -3.463630e+06
   1.881242e+06  -1.981008e+06
   3.429091e+06   4.236916e+05
   1.916640e+06   1.836532e+06
  -1.042521e+06   1.409905e+06
  -2.510120e+06  -2.060432e+05
  -1.264715e+06  -1.310911e+06
   8.481282e+05  -8.015973e+05
   1.210555e+06   5.002908e+05
  -3.205360e+05   8.352418e+05
  -1.414099e+06  -2.326543e+05
  -3.910835e+05  -1.357379e+06
   1.745757e+06  -1.215648e+06
   2.710284e+06   1.386728e+05
   1.474242e+06   1.818900e+06
  -1.057379e+06   2.971989e+06
  -3.194132e+06   2.798265e+06
  -3.700348e+06   8.410097e+05
  -2.434287e+06  -2.006365e+06
  -4.454819e+05  -3.660435e+06
   7.912237e+05  -2.979357e+06
   7.568341e+05  -1.214460e+06
   3.620064e+05  -4.175727e+05
   7.030579e+05  -8.166298e+05
   1.631189e+06  -8.383580e+05
   2.011212e+06   4.016528e+05
   1.179160e+06   1.785711e+06
  -3.443973e+05   1.705973e+06
  -1.451110e+06   7.490993e+04
  -1.320513e+06  -1.665956e+06
   9.422537e+04  -2.079630e+06
   1.893372e+06  -8.971381e+05
   2.655976e+06   9.776072e+05
   1.684020e+06   2.245534e+06
  -1.109085e+05   2.220192e+06
  -1.137592e+06   1.362086e+06
  -1.031773e+06   7.029773e+05
  -9.808219e+05   6.417355e+05
  -1.887105e+06   5.537775e+05
  -2.903549e+06  -2.905395e+05
  -2.425840e+06  -1.728025e+06
  -2.043500e+05  -2.820501e+06
   2.183823e+06  -2.733922e+06
   2.953672e+06  -1.379484e+06
   1.797401e+06   4.857198e+05
  -2.473638e+04   1.627158e+06
  -9.350071e+05   1.245140e+06
  -3.757618e+05  -1.098907e+05
   8.081280e+05  -8.906646e+05
   1.261800e+06  -2.732694e+05
   5.395670e+05   7.883835e+05
  -4.317641e+05   7.980156e+05
  -4.647722e+05  -2.319830e+05
   4.802133e+05  -7.388833e+05
   1.287856e+06   3.049286e+05
   9.695789e+05   2.002427e+06
  -3.917033e+05   2.594749e+06
  -1.892421e+06   1.426397e+06
  -2.582470e+06  -5.566779e+05
  -2.004174e+06  -1.928735e+06
  -4.850369e+05  -1.985315e+06
   9.063187e+05  -1.064957e+06
   1.147151e+06  -1.297615e+05
   3.441227e+05   2.696005e+04
  -2.738863e+05  -5.135724e+05
   2.051710e+05  -8.848188e+05
   1.207615e+06  -4.324004e+05
   1.384373e+06   4.793755e+05
   3.520062e+05   9.071993e+05
  -7.818849e+05   4.663336e+05
  -7.301555e+05  -2.817408e+05
   5.016720e+05  -5.323536e+05
   1.643503e+06  -1.757961e+04
   1.474834e+06   8.936183e+05
  -8.698720e+03   1.530349e+06
  -1.598040e+06   1.325968e+06
  -1.958691e+06   2.823751e+05
  -8.611476e+05  -8.128501e+05
   5.801040e+05  -9.824355e+05
   9.905216e+05  -1.349290e+05
   1.067255e+05   7.040153e+05
  -1.027494e+06   5.277664e+05
  -1.227802e+06  -4.638760e+05
  -3.605030e+05  -1.139420e+06
   6.693466e+05  -8.006065e+05
   9.180746e+05   7.911518e+04
   2.766564e+05   5.098266e+05
  -5.016044e+05   8.294852e+04
  -5.200334e+05  -6.987827e+05
   3.890296e+05  -9.910614e+05
   1.396715e+06  -3.908415e+05
   1.425304e+06   7.078345e+05
   3.077441e+05   1.426743e+06
  -9.406292e+05   1.173857e+06
  -1.190029e+06   2.126215e+05
  -4.071385e+05  -5.846573e+05
   4.272682e+05  -6.065434e+05
   5.038858e+05  -6.317981e+04
  -1.915087e+04   3.550701e+05
  -4.106772e+05   2.664617e+05
  -2.485325e+05  -5.881264e+04
   2.223503e+05  -8.896101e+04
   4.155126e+05   3.415764e+05
  -3.878408e+04   8.066929e+05
  -9.121687e+05   6.750701e+05
  -1.460288e+06  -2.278945e+05
  -1.058496e+06  -1.320485e+06
   1.059194e+05  -1.720824e+06
   1.117687e+06  -1.094157e+06
   1.258974e+06  -4.593074e+02
   7.267000e+05   6.796196e+05
   2.688874e+05   6.171962e+05
   2.509355e+05   2.474703e+05
   3.379618e+05   1.662669e+05
   6.203175e+04   4.585183e+05
  -5.564141e+05   6.618297e+05
  -1.018744e+06   3.149941e+05
  -8.230101e+05  -4.957057e+05
   8.985155e+04  -1.109437e+06
   1.187308e+06  -8.514682e+05
   1.620388e+06   2.706840e+05
   8.933959e+05   1.430399e+06
  -5.761491e+05   1.675286e+06
  -1.701262e+06   8.353399e+05
  -1.705052e+06  -3.265831e+05
  -8.219221e+05  -9.162843e+05
   5.721604e+04  -7.728261e+05
   3.353873e+05  -4.636494e+05
   1.756536e+05  -5.197548e+05
   1.158166e+05  -8.365893e+05
   4.239548e+05  -8.541901e+05
   8.595357e+05  -2.277798e+05
   9.405108e+05   7.417877e+05
   4.171802e+05   1.326414e+06
  -4.219767e+05   1.023377e+06
  -9.137936e+05   4.228187e+04
  -6.211283e+05  -8.448212e+05
   1.809447e+05  -9.815047e+05
   7.321010e+05  -3.862355e+05
   5.734723e+05   3.526036e+05
   1.820838e+04   6.896955e+05
  -2.552449e+05   5.748810e+05
  -9.524435e+03   3.372868e+05
   2.884864e+05   2.496192e+05
   3.561389e+04   2.750946e+05
  -7.628429e+05   1.827299e+05
  -1.400012e+06  -1.693980e+05
  -1.154814e+06  -6.583065e+05
  -6.861764e+04  -9.596558e+05
   1.016172e+06  -8.113066e+05
   1.254627e+06  -2.781832e+05
   6.207518e+05   2.446140e+05
  -1.373080e+05   3.634452e+05
  -3.344634e+05   6.889701e+04
  -1.315472e+03  -2.406140e+05
   3.344274e+05  -1.703685e+05
   3.318764e+05   2.342431e+05
   1.248559e+05   5.198577e+05
   1.534657e+04   3.385961e+05
   1.011365e+05  -1.116405e+05
   2.376595e+05  -2.656487e+05
   2.084959e+05   1.463204e+05
  -1.105218e+05   7.127535e+05
  -6.042424e+05   7.535694e+05
  -8.757639e+05   1.098998e+05
  -5.410546e+05  -6.262540e+05
   2.689904e+05  -7.482069e+05
   8.328038e+05  -1.989811e+05
   5.146772e+05   4.099954e+05
  -4.662033e+05   4.806321e+05
  -1.146811e+06  -4.845649e+03
  -8.063817e+05  -5.733830e+05
   2.621810e+05  -7.568456e+05
   1.064572e+06  -4.523058e+05
   9.296670e+05   6.588943e+04
   1.363939e+05   3.755110e+05
  -4.467560e+05   2.329024e+05
  -2.582376e+05  -1.801396e+05
   4.305486e+05  -3.494482e+05
   8.294912e+05   8.073838e+04
   4.386552e+05   8.440051e+05
  -4.524086e+05   1.187136e+06
  -1.064092e+06   6.074223e+05
  -8.963463e+05  -5.392438e+05
  -1.626355e+05  -1.279436e+06
   5.059614e+05  -9.612101e+05
   6.712546e+05   7.250060e+04
   3.659254e+05   8.340879e+05
  -8.955416e+04   7.219476e+05
  -3.828084e+05   9.216628e+04
  -3.738319e+05  -2.690324e+05
  -1.589159e+05  -1.089510e+05
  -1.868982e+04   8.163079e+04
  -1.479207e+05  -1.754692e+05
  -3.574266e+05  -6.657572e+05
  -2.011828e+05  -7.745861e+05
   4.468775e+05  -3.034782e+05
   1.063622e+06   3.082795e+05
   9.679482e+05   5.750407e+05
   1.485780e+05   4.830765e+05
  -6.376888e+05   3.051111e+05
  -7.109327e+05   1.597568e+05
  -2.249861e+05  -7.462765e+03
   1.154691e+05  -1.580102e+05
  -2.134505e+04  -1.700789e+05
  -2.364872e+05  -8.947860e+04
  -2.030088e+04  -9.519756e+04
   5.153776e+05  -1.573428e+05
   7.359480e+05   6.845263e+03
   2.478458e+05   4.741692e+05
  -6.242480e+05   8.165762e+05
  -1.161682e+06   5.256788e+05
  -9.468353e+05  -3.111342e+05
  -1.948007e+05  -9.997177e+05
   5.115777e+05  -9.695916e+05
   7.333519e+05  -3.647098e+05
   4.732158e+05   1.804659e+05
   8.094529e+04   2.501769e+05
  -8.663218e+04   2.012636e+04
   4.368334e+04  -4.405385e+04
   2.395660e+05   2.433543e+05
   2.048526e+05   5.700453e+05
  -1.263449e+05   4.747791e+05
  -4.924371e+05  -1.058999e+05
  -5.097496e+05  -6.925387e+05
  -4.812854e+04  -7.231877e+05
   5.545124e+05  -1.435904e+05
   7.270322e+05   5.345769e+05
   2.332319e+05   7.636761e+05
  -5.016071e+05   4.577331e+05
  -7.717601e+05  -4.936161e+04
  -3.622173e+05  -3.971245e+05
   1.892736e+05  -4.466441e+05
   2.294776e+05  -2.588216e+05
  -2.111111e+05  -1.989975e+04
  -4.683437e+05   2.969751e+04
  -9.501166e+04  -2.082832e+05
   5.763102e+05  -4.963045e+05
   8.547856e+05  -4.275565e+05
   5.065513e+05   8.573765e+04
  -6.019415e+04   6.021701e+05
  -3.475743e+05   5.993577e+05
  -2.614657e+05   9.492894e+04
  -2.386006e+04  -3.526106e+05
   1.697786e+05  -2.909122e+05
   2.515098e+05   1.322326e+05
   1.818264e+05   4.064918e+05
  -3.948229e+04   2.730624e+05
  -2.754883e+05  -4.098071e+04
  -3.299314e+05  -1.698437e+05
  -1.732647e+05  -4.513522e+04
   1.112465e+04   7.975825e+04
   6.089347e+04  -2.291483e+04
   3.299324e+04  -2.690709e+05
   9.083940e+04  -3.518300e+05
   2.410624e+05  -9.863103e+04
   2.844014e+05   2.995488e+05
   6.137165e+04   4.591008e+05
  -3.006913e+05   2.108509e+05
  -4.510663e+05  -2.100092e+05
  -1.696790e+05  -4.148106e+05
   3.446982e+05  -2.605469e+05
   6.059787e+05   5.617394e+04
   3.342089e+05   2.619456e+05
  -2.022281e+05   2.630692e+05
  -4.400759e+05   1.400062e+05
  -1.518311e+05   1.153858e+04
   2.785706e+05  -2.557786e+04
   3.018504e+05   7.665839e+04
  -1.451371e+05   2.285372e+05
  -5.700457e+05   1.978049e+05
