
 $NMID
 id='ANONYMOUS ', fmtdat='(2E16.6)'
 volume=1.0
 tramp=1.0
 $END
   4.181288e+07   1.455658e+06
   2.564922e+07   2.396220e+07
  -3.967384e+06   2.739475e+07
  -1.989679e+07   1.331489e+07
  -1.357290e+07  -2.486907e+06
   1.126819e+06  -7.233391e+06
   7.930641e+06  -1.034705e+06
   3.880078e+06   7.162369e+06
  -3.683360e+06   9.011571e+06
  -7.623365e+06   2.962978e+06
  -5.806821e+06  -5.221264e+06
  -4.711877e+05  -7.588553e+06
   3.580611e+06  -1.845461e+06
   2.410316e+06   5.667354e+06
  -2.853037e+06   6.541835e+06
  -6.412169e+06  -3.684943e+05
  -3.936370e+06  -8.052324e+06
   2.729995e+06  -9.482238e+06
   7.933511e+06  -4.382796e+06
   8.036187e+06   2.255097e+06
   4.035153e+06   5.886324e+06
  -2.216248e+05   5.597286e+06
  -1.387093e+06   3.520809e+06
   5.967229e+05   2.553382e+06
   2.097518e+06   3.728576e+06
  -5.775184e+05   4.994182e+06
  -6.248304e+06   3.436476e+06
  -9.150690e+06  -8.516678e+05
  -5.593720e+06  -4.352850e+06
   1.133549e+06  -4.166995e+06
   4.447478e+06  -1.176751e+06
   2.059819e+06   1.511511e+06
  -2.262927e+06   1.882649e+06
  -3.942372e+06  -4.460006e+04
  -2.209841e+06  -2.926356e+06
   6.145997e+05  -4.462786e+06
   2.200792e+06  -2.715121e+06
   1.758005e+06   1.148678e+06
   1.352653e+05   2.878881e+06
  -7.016479e+05   1.970254e+05
   5.482028e+05  -3.339284e+06
   2.543116e+06  -2.446750e+06
   2.285446e+06   2.359000e+06
  -1.033803e+06   4.771008e+06
  -4.260513e+06   1.034609e+06
  -3.551731e+06  -4.852442e+06
   1.119208e+06  -6.207301e+06
   5.736616e+06  -1.740948e+06
   6.254538e+06   3.751512e+06
   2.231779e+06   5.459189e+06
  -3.030587e+06   2.953060e+06
  -5.296637e+06  -8.673861e+05
  -2.910071e+06  -2.955115e+06
   1.605811e+06  -2.114579e+06
   3.798000e+06   4.390730e+05
   1.886886e+06   2.043085e+06
  -1.307163e+06   1.157300e+06
  -1.856050e+06  -8.427494e+05
   4.613870e+05  -1.318092e+06
   2.158898e+06   3.083769e+05
   6.614891e+05   1.989488e+06
  -2.593657e+06   1.752474e+06
  -4.099627e+06  -3.127082e+05
  -2.142904e+06  -2.833836e+06
   1.903987e+06  -4.457184e+06
   5.228420e+06  -3.995951e+06
   5.775111e+06  -9.142160e+05
   3.505671e+06   3.325571e+06
   3.425758e+05   5.667578e+06
  -1.419628e+06   4.565007e+06
  -1.244698e+06   1.931391e+06
  -6.962399e+05   7.236747e+05
  -1.325063e+06   1.193960e+06
  -2.699154e+06   1.042716e+06
  -3.076169e+06  -9.254427e+05
  -1.611420e+06  -2.953680e+06
   7.531834e+05  -2.640980e+06
   2.312126e+06   3.901697e+04
   1.916008e+06   2.752126e+06
  -3.525286e+05   3.234070e+06
  -3.021236e+06   1.184117e+06
  -3.981638e+06  -1.788630e+06
  -2.348704e+06  -3.600486e+06
   3.750337e+05  -3.353669e+06
   1.832326e+06  -1.959694e+06
   1.610780e+06  -1.006547e+06
   1.563567e+06  -9.414751e+05
   2.987460e+06  -7.119652e+05
   4.498970e+06   7.084795e+05
   3.629440e+06   2.913465e+06
   5.979846e+04   4.419789e+06
  -3.678417e+06   4.056369e+06
  -4.754556e+06   1.851326e+06
  -2.742243e+06  -9.518276e+05
   2.300776e+05  -2.535419e+06
   1.590994e+06  -1.839619e+06
   5.631677e+05   2.037164e+05
  -1.343703e+06   1.299188e+06
  -1.968933e+06   3.159276e+05
  -7.548626e+05  -1.256261e+06
   7.395309e+05  -1.203359e+06
   7.143999e+05   3.918806e+05
  -7.792235e+05   1.139200e+06
  -1.980994e+06  -5.138968e+05
  -1.410515e+06  -3.169555e+06
   7.505605e+05  -4.071152e+06
   3.068406e+06  -2.157507e+06
   4.050040e+06   1.058413e+06
   3.020478e+06   3.223966e+06
   5.868577e+05   3.183145e+06
  -1.532022e+06   1.586138e+06
  -1.814804e+06   9.215036e+04
  -5.390670e+05  -7.136186e+04
   3.780223e+05   8.212866e+05
  -3.883567e+05   1.345055e+06
  -1.896202e+06   5.641952e+05
  -2.102816e+06  -8.451892e+05
  -4.820124e+05  -1.418909e+06
   1.242636e+06  -6.530896e+05
   1.111339e+06   5.010791e+05
  -8.332037e+05   7.940327e+05
  -2.590053e+06  -1.127660e+05
  -2.250658e+06  -1.542171e+06
   1.448440e+05  -2.414427e+06
   2.626495e+06  -1.940329e+06
   3.091502e+06  -2.695620e+05
   1.274578e+06   1.333386e+06
  -9.793020e+05   1.466877e+06
  -1.536711e+06   1.262662e+05
  -9.683786e+04  -1.089081e+06
   1.641487e+06  -7.237718e+05
   1.873209e+06   8.241485e+05
   4.781872e+05   1.805653e+06
  -1.097668e+06   1.204697e+06
  -1.424530e+06  -1.814604e+05
  -3.998634e+05  -8.020858e+05
   7.710600e+05  -7.415999e+04
   7.271567e+05   1.138516e+06
  -7.150333e+05   1.498862e+06
  -2.220311e+06   4.631120e+05
  -2.153595e+06  -1.245312e+06
  -3.476085e+05  -2.253419e+06
   1.568959e+06  -1.748582e+06
   1.875661e+06  -2.374808e+05
   5.942979e+05   9.368048e+05
  -7.097248e+05   9.075446e+05
  -7.909639e+05   5.605179e+04
   6.275147e+04  -5.560658e+05
   6.779554e+05  -3.804952e+05
   3.978218e+05   1.255936e+05
  -3.546827e+05   1.342916e+05
  -6.276992e+05  -5.670876e+05
   1.312821e+05  -1.261325e+06
   1.492877e+06  -9.710003e+05
   2.263088e+06   4.971187e+05
   1.528394e+06   2.167245e+06
  -3.266673e+05   2.687285e+06
  -1.851221e+06   1.621570e+06
  -1.984288e+06  -1.051805e+05
  -1.098629e+06  -1.141671e+06
  -3.757018e+05  -1.019419e+06
  -3.595815e+05  -4.312978e+05
  -4.974809e+05  -2.933463e+05
  -4.771654e+04  -7.220435e+05
   9.379574e+05  -9.908405e+05
   1.639103e+06  -3.995946e+05
   1.257099e+06   8.686877e+05
  -2.447200e+05   1.748183e+06
  -1.949472e+06   1.226932e+06
  -2.517894e+06  -5.798883e+05
  -1.266843e+06  -2.320245e+06
   1.049838e+06  -2.561523e+06
   2.729666e+06  -1.153149e+06
   2.641387e+06   6.555564e+05
   1.219386e+06   1.506198e+06
  -1.500200e+05   1.218062e+06
  -5.787646e+05   7.101904e+05
  -3.443961e+05   7.980534e+05
  -2.701796e+05   1.288091e+06
  -7.404759e+05   1.287963e+06
  -1.360306e+06   2.717189e+05
  -1.398646e+06  -1.251221e+06
  -5.257325e+05  -2.115244e+06
   7.576515e+05  -1.560731e+06
   1.432165e+06   1.762682e+04
   8.927140e+05   1.373710e+06
  -3.666397e+05   1.515484e+06
  -1.168231e+06   5.432623e+05
  -8.583352e+05  -5.905390e+05
   2.823186e+04  -1.068948e+06
   4.390379e+05  -8.722882e+05
   3.747967e+04  -5.309066e+05
  -4.286974e+05  -4.253424e+05
  -2.772045e+04  -4.398381e+05
   1.210126e+06  -2.135850e+05
   2.171011e+06   4.014288e+05
   1.742970e+06   1.137144e+06
   2.064953e+04   1.496836e+06
  -1.658579e+06   1.165138e+06
  -1.982943e+06   3.230874e+05
  -9.467067e+05  -4.271983e+05
   2.474248e+05  -5.495421e+05
   5.267854e+05  -7.963958e+04
  -2.621836e+04   3.755156e+05
  -5.466222e+05   2.390985e+05
  -4.998368e+05  -3.993126e+05
  -1.406072e+05  -8.352235e+05
   1.496329e+04  -5.365032e+05
  -1.701279e+05   1.725921e+05
  -4.040485e+05   4.008182e+05
  -3.129702e+05  -2.543634e+05
   2.496668e+05  -1.115038e+06
   1.024426e+06  -1.118399e+06
   1.376733e+06  -7.293020e+04
   7.766723e+05   1.040475e+06
  -4.985329e+05   1.138710e+06
  -1.324014e+06   2.211918e+05
  -7.690927e+05  -6.956839e+05
   7.736761e+05  -7.116144e+05
   1.801208e+06   1.086788e+05
   1.222016e+06   9.693215e+05
  -4.716984e+05   1.167477e+06
  -1.710202e+06   6.220504e+05
  -1.456469e+06  -1.822622e+05
  -1.835960e+05  -6.015161e+05
   7.179844e+05  -3.256118e+05
   3.814433e+05   3.047942e+05
  -7.146558e+05   5.024647e+05
  -1.293654e+06  -2.135930e+05
  -6.003870e+05  -1.372072e+06
   8.329287e+05  -1.820139e+06
   1.734258e+06  -8.491726e+05
   1.357499e+06   9.340623e+05
   1.345497e+05   2.026379e+06
  -8.831511e+05   1.465503e+06
  -1.045351e+06  -1.718995e+05
  -4.990801e+05  -1.340003e+06
   2.010943e+05  -1.122867e+06
   6.054244e+05  -1.080162e+05
   5.654258e+05   4.565509e+05
   2.444176e+05   1.841371e+05
   3.294450e+04  -1.270697e+05
   2.041793e+05   2.899316e+05
   4.933339e+05   1.077500e+06
   2.506004e+05   1.230454e+06
  -7.205016e+05   4.304248e+05
  -1.641164e+06  -5.834070e+05
  -1.471383e+06  -9.903834e+05
  -1.870822e+05  -7.713226e+05
   1.036489e+06  -4.215973e+05
   1.132075e+06  -1.864771e+05
   3.459585e+05   3.280302e+04
  -1.977463e+05   2.380639e+05
   2.681664e+04   2.694509e+05
   3.711217e+05   1.640212e+05
   1.828992e+04   1.536794e+05
  -8.339581e+05   1.982976e+05
  -1.153921e+06  -8.503719e+04
  -3.315985e+05  -7.729927e+05
   1.067193e+06  -1.221029e+06
   1.871872e+06  -7.051640e+05
   1.450194e+06   5.890895e+05
   2.072797e+05   1.591440e+06
  -8.972124e+05   1.468800e+06
  -1.189850e+06   4.952339e+05
  -7.277848e+05  -3.336609e+05
  -9.817318e+04  -4.021151e+05
   1.469718e+05  -2.203977e+04
  -6.786910e+04   6.823396e+04
  -3.538074e+05  -4.012316e+05
  -2.681218e+05  -9.117165e+05
   2.463378e+05  -7.306091e+05
   7.653636e+05   2.181967e+05
   7.308270e+05   1.142404e+06
  -2.070855e+03   1.142858e+06
  -8.919038e+05   1.679970e+05
  -1.091238e+06  -9.165692e+05
  -2.876421e+05  -1.223972e+06
   8.363911e+05  -6.657032e+05
   1.204646e+06   1.570559e+05
   5.223229e+05   6.568686e+05
  -3.449308e+05   6.755490e+05
  -3.805711e+05   3.775801e+05
   3.380544e+05   4.954920e+04
   7.409674e+05  -8.133009e+02
   1.261937e+05   3.368125e+05
  -9.519795e+05   7.241333e+05
  -1.374714e+06   5.896980e+05
  -7.778384e+05  -1.824456e+05
   1.544717e+05  -9.372511e+05
   5.999188e+05  -9.014460e+05
   4.168562e+05  -1.153563e+05
   1.810790e+03   5.608031e+05
  -2.984407e+05   4.379086e+05
  -3.862394e+05  -2.373014e+05
  -2.452521e+05  -6.567446e+05
   9.324331e+04  -4.208913e+05
   4.296603e+05   9.346060e+04
   4.970250e+05   2.957947e+05
   2.656150e+05   8.420528e+04
  -3.924249e+03  -1.236306e+05
  -9.194981e+04   3.892763e+04
  -8.318707e+04   4.275173e+05
  -1.912653e+05   5.445463e+05
  -3.979343e+05   1.239815e+05
  -4.145680e+05  -5.090485e+05
  -4.262895e+04  -7.341508e+05
   4.974326e+05  -3.009430e+05
   6.866104e+05   3.800387e+05
   2.243349e+05   6.721678e+05
  -5.657712e+05   3.734592e+05
  -9.442076e+05  -1.520834e+05
  -4.975251e+05  -4.449218e+05
   3.454979e+05  -3.890635e+05
   7.059973e+05  -1.712874e+05
   2.360503e+05  -1.974734e+02
  -4.480296e+05   1.255350e+04
  -4.725404e+05  -1.537647e+05
   2.522620e+05  -3.511997e+05
   9.221059e+05  -2.602620e+05
