
 $NMID
 id='ANONYMOUS ', fmtdat='(2E16.6)'
 volume=1.0
 tramp=1.0
 $END
   5.322867e+07   6.558435e+05
   3.179407e+07   3.276591e+07
  -7.010014e+06   3.571011e+07
  -2.596022e+07   1.409424e+07
  -1.567800e+07  -6.163983e+06
   2.944977e+06  -8.802944e+06
   9.357668e+06   8.359610e+05
   2.905390e+06   9.188377e+06
  -5.694523e+06   9.161583e+06
  -9.178547e+06   2.115403e+06
  -6.685772e+06  -6.014549e+06
  -7.017940e+05  -8.361324e+06
   3.920645e+06  -2.525382e+06
   2.579084e+06   5.479059e+06
  -3.568361e+06   6.495388e+06
  -7.517105e+06  -1.174200e+06
  -4.267131e+06  -9.731347e+06
   3.598870e+06  -1.124009e+07
   9.641888e+06  -5.518159e+06
   1.019898e+07   2.141526e+06
   6.036324e+06   7.189185e+06
   4.319962e+05   8.021997e+06
  -2.662564e+06   5.476114e+06
  -1.359726e+06   2.573395e+06
   1.353504e+06   2.418425e+06
   1.252324e+05   4.343602e+06
  -5.568252e+06   4.223773e+06
  -9.558759e+06   2.233291e+05
  -6.732298e+06  -4.197699e+06
   5.915731e+04  -4.907882e+06
   3.899472e+06  -2.304980e+06
   2.430917e+06   3.056186e+05
  -9.059146e+05   1.175928e+06
  -2.613575e+06   4.371209e+05
  -2.227523e+06  -1.709960e+06
  -4.486262e+05  -4.042299e+06
   1.894735e+06  -3.613356e+06
   2.945050e+06   3.536402e+05
   1.367042e+06   3.513212e+06
  -8.064333e+05   1.571482e+06
  -1.954834e+05  -2.649365e+06
   2.453925e+06  -2.330117e+06
   2.379796e+06   3.017506e+06
  -2.173172e+06   5.802482e+06
  -6.382811e+06   9.477421e+05
  -4.738227e+06  -6.525121e+06
   1.796361e+06  -8.014664e+06
   7.075331e+06  -2.238818e+06
   6.775171e+06   4.302258e+06
   1.908626e+06   5.881001e+06
  -3.368670e+06   2.738881e+06
  -5.231910e+06  -1.386755e+06
  -2.491529e+06  -3.353599e+06
   2.259226e+06  -2.145992e+06
   4.353686e+06   8.488873e+05
   1.902541e+06   2.580643e+06
  -1.643397e+06   1.310606e+06
  -1.750553e+06  -9.873967e+05
   1.140733e+06  -9.747343e+05
   2.368686e+06   1.467508e+06
  -3.960691e+05   3.107580e+06
  -4.203511e+06   1.817792e+06
  -5.009205e+06  -1.165651e+06
  -2.246478e+06  -3.730176e+06
   1.825748e+06  -5.084144e+06
   5.042866e+06  -4.667021e+06
   6.103534e+06  -1.572006e+06
   4.356560e+06   3.201103e+06
   8.113642e+05   6.061748e+06
  -1.768033e+06   4.697520e+06
  -1.627881e+06   1.341574e+06
  -2.355079e+05  -4.154523e+04
  -2.321310e+05   1.064365e+06
  -1.843444e+06   1.676352e+06
  -2.901645e+06   1.713244e+04
  -1.975319e+06  -2.149887e+06
   1.200494e+05  -2.270689e+06
   1.719819e+06  -1.767405e+05
   1.749000e+06   2.210014e+06
  -5.998304e+04   3.007014e+06
  -2.829431e+06   1.567677e+06
  -4.384388e+06  -1.317735e+06
  -3.039345e+06  -3.738219e+06
   1.222834e+05  -4.050076e+06
   2.195603e+06  -2.549835e+06
   2.101168e+06  -1.096299e+06
   1.767709e+06  -7.317178e+05
   2.946085e+06  -5.342324e+05
   4.382574e+06   7.389717e+05
   3.525492e+06   2.790168e+06
   1.280315e+05   4.195966e+06
  -3.298831e+06   3.956835e+06
  -4.304011e+06   2.090484e+06
  -2.695105e+06  -5.265197e+05
  -1.843945e+05  -2.316269e+06
   1.205509e+06  -1.931962e+06
   5.709736e+05   7.441775e+04
  -1.146232e+06   1.321152e+06
  -1.932842e+06   3.820406e+05
  -8.922286e+05  -1.228317e+06
   5.678227e+05  -1.141103e+06
   4.899370e+05   3.898831e+05
  -1.007160e+06   7.830522e+05
  -1.873877e+06  -1.137886e+06
  -7.894510e+05  -3.417927e+06
   1.419805e+06  -3.528395e+06
   3.110645e+06  -1.315257e+06
   3.448822e+06   1.356754e+06
   2.433564e+06   2.840299e+06
   4.939990e+05   2.726164e+06
  -1.297655e+06   1.500047e+06
  -1.632789e+06   2.071729e+05
  -5.036136e+05  -5.082396e+04
   3.660075e+05   7.719519e+05
  -4.148776e+05   1.353210e+06
  -1.923897e+06   5.774582e+05
  -2.061205e+06  -8.924112e+05
  -4.006587e+05  -1.432075e+06
   1.199405e+06  -5.921367e+05
   9.412751e+05   4.669658e+05
  -8.464340e+05   5.765763e+05
  -2.266538e+06  -2.762167e+05
  -1.851255e+06  -1.390178e+06
   2.246013e+05  -2.062437e+06
   2.378858e+06  -1.721497e+06
   2.852238e+06  -2.762690e+05
   1.234864e+06   1.290998e+06
  -9.439482e+05   1.508847e+06
  -1.573148e+06   1.743288e+05
  -1.819522e+05  -1.097869e+06
   1.556662e+06  -7.421797e+05
   1.761341e+06   7.987658e+05
   3.616338e+05   1.693986e+06
  -1.104853e+06   1.021246e+06
  -1.296321e+06  -2.967464e+05
  -2.708138e+05  -7.953678e+05
   8.051414e+05  -5.983106e+04
   7.485249e+05   1.080527e+06
  -6.021513e+05   1.457680e+06
  -2.066657e+06   5.410623e+05
  -2.080722e+06  -1.092562e+06
  -3.822539e+05  -2.128106e+06
   1.478741e+06  -1.676751e+06
   1.768935e+06  -2.128183e+05
   5.190769e+05   8.920427e+05
  -6.778081e+05   8.293044e+05
  -6.693111e+05   7.357463e+04
   1.065116e+05  -3.986623e+05
   5.245677e+05  -2.450243e+05
   1.721124e+05   6.916664e+04
  -4.304774e+05  -4.454509e+04
  -5.369942e+05  -6.576365e+05
   1.951312e+05  -1.207853e+06
   1.412487e+06  -9.177484e+05
   2.133791e+06   4.296344e+05
   1.493229e+06   1.999859e+06
  -2.349457e+05   2.490018e+06
  -1.668141e+06   1.460931e+06
  -1.751763e+06  -1.224851e+05
  -9.047057e+05  -9.407154e+05
  -3.334973e+05  -7.143299e+05
  -4.666516e+05  -2.561921e+05
  -6.127357e+05  -3.145677e+05
  -8.483934e+04  -7.639154e+05
   8.914516e+05  -9.231127e+05
   1.488683e+06  -3.434406e+05
   1.093664e+06   7.461187e+05
  -2.462487e+05   1.517238e+06
  -1.771389e+06   1.110837e+06
  -2.314581e+06  -4.999079e+05
  -1.168584e+06  -2.156384e+06
   1.026758e+06  -2.422532e+06
   2.599442e+06  -1.061227e+06
   2.420459e+06   6.656988e+05
   1.006850e+06   1.377030e+06
  -1.970285e+05   9.965445e+05
  -4.195228e+05   5.487847e+05
  -1.196853e+05   7.725661e+05
  -1.320189e+05   1.320966e+06
  -6.903720e+05   1.302971e+06
  -1.319596e+06   3.148666e+05
  -1.364073e+06  -1.118669e+06
  -5.604835e+05  -1.950797e+06
   6.491155e+05  -1.474285e+06
   1.323535e+06   3.699951e+03
   8.342668e+05   1.311775e+06
  -3.912882e+05   1.429520e+06
  -1.175754e+06   4.298240e+05
  -8.256552e+05  -6.893433e+05
   1.112826e+05  -1.085725e+06
   5.278026e+05  -8.033955e+05
   7.853953e+04  -4.372092e+05
  -4.382055e+05  -3.518501e+05
  -5.693419e+04  -3.952868e+05
   1.170114e+06  -2.135397e+05
   2.103394e+06   3.445324e+05
   1.655977e+06   1.062559e+06
  -2.932557e+04   1.461577e+06
  -1.619021e+06   1.158928e+06
  -1.875917e+06   2.877054e+05
  -8.593400e+05  -4.907001e+05
   2.625663e+05  -5.729439e+05
   5.192816e+05  -4.062822e+04
   2.267585e+04   4.193711e+05
  -4.620291e+05   2.589484e+05
  -4.899877e+05  -3.536891e+05
  -2.429533e+05  -7.474227e+05
  -8.338456e+04  -4.939360e+05
  -1.418978e+05   1.061312e+05
  -2.973766e+05   3.124301e+05
  -2.847482e+05  -2.359212e+05
   1.537573e+05  -1.016378e+06
   9.253349e+05  -1.090227e+06
   1.384119e+06  -1.677567e+05
   8.576350e+05   9.426271e+05
  -4.301487e+05   1.157307e+06
  -1.284763e+06   3.303324e+05
  -7.498985e+05  -5.950280e+05
   7.207611e+05  -6.653330e+05
   1.636128e+06   9.871468e+04
   1.044794e+06   8.873391e+05
  -4.900189e+05   1.022753e+06
  -1.544470e+06   5.012985e+05
  -1.276209e+06  -1.927922e+05
  -1.414706e+05  -5.315413e+05
   6.680470e+05  -2.793523e+05
   3.916101e+05   3.010830e+05
  -6.075788e+05   5.322937e+05
  -1.217117e+06  -9.186781e+04
  -6.816302e+05  -1.220377e+06
   6.184045e+05  -1.749094e+06
   1.533028e+06  -9.042928e+05
   1.291327e+06   7.850052e+05
   2.038980e+05   1.846906e+06
  -7.655228e+05   1.334469e+06
  -9.534038e+05  -1.803952e+05
  -4.448871e+05  -1.228096e+06
   2.242129e+05  -1.000102e+06
   5.780113e+05  -8.729920e+04
   4.822402e+05   3.902555e+05
   1.712370e+05   1.427360e+05
   4.959917e+04  -9.871818e+04
   2.843156e+05   3.036478e+05
   5.218562e+05   9.964657e+05
   1.965669e+05   1.112161e+06
  -7.346476e+05   4.054063e+05
  -1.519112e+06  -4.822364e+05
  -1.318842e+06  -8.643575e+05
  -1.894628e+05  -7.194582e+05
   8.804246e+05  -4.309182e+05
   1.014398e+06  -1.866640e+05
   3.710995e+05   5.522497e+04
  -1.506146e+05   2.324577e+05
  -3.733932e+04   2.104440e+05
   2.728075e+05   9.614730e+04
   5.324442e+04   1.372938e+05
  -6.806009e+05   2.449131e+05
  -1.079777e+06  -1.042517e+04
  -4.496139e+05  -7.145506e+05
   8.650464e+05  -1.217138e+06
   1.753903e+06  -7.832036e+05
   1.459276e+06   4.419578e+05
   2.870446e+05   1.449068e+06
  -7.896650e+05   1.420573e+06
  -1.081648e+06   5.596659e+05
  -6.764206e+05  -2.357085e+05
  -1.408555e+05  -3.696970e+05
   6.918969e+04  -7.182494e+04
  -8.453842e+04   1.442134e+04
  -3.084799e+05  -3.797190e+05
  -2.548837e+05  -8.332466e+05
   1.824347e+05  -7.027191e+05
   7.028071e+05   1.187245e+05
   7.694527e+05   9.757378e+05
   1.295433e+05   1.065064e+06
  -7.726139e+05   2.650035e+05
  -1.072897e+06  -7.333658e+05
  -3.681296e+05  -1.122997e+06
   7.318899e+05  -7.068700e+05
   1.157497e+06   7.045307e+04
   5.545503e+05   6.343072e+05
  -2.938803e+05   7.071057e+05
  -3.956558e+05   3.824865e+05
   2.485863e+05   5.561158e+03
   6.679023e+05  -4.459820e+04
   1.546966e+05   3.184198e+05
  -8.488177e+05   7.024255e+05
  -1.302402e+06   5.563604e+05
  -7.934164e+05  -1.860170e+05
   9.543428e+04  -8.999559e+05
   5.723920e+05  -8.878289e+05
   4.457824e+05  -1.736741e+05
   6.181516e+04   4.910455e+05
  -2.432908e+05   4.544125e+05
  -3.638091e+05  -1.430197e+05
  -2.662357e+05  -5.939511e+05
   5.056572e+04  -4.475939e+05
   4.041217e+05   4.082391e+04
   4.943403e+05   2.922545e+05
   2.503684e+05   1.027785e+05
  -3.967044e+04  -1.606418e+05
  -8.503983e+04  -5.615729e+04
   2.491393e+04   3.603911e+05
  -3.395785e+04   5.768613e+05
  -3.236756e+05   2.414274e+05
  -4.857166e+05  -3.797924e+05
  -1.797010e+05  -6.666396e+05
   4.152103e+05  -3.312841e+05
   6.928975e+05   2.787104e+05
   2.701579e+05   5.867830e+05
  -5.236169e+05   3.815819e+05
  -9.162902e+05  -6.839918e+04
  -4.993755e+05  -3.863708e+05
   3.007806e+05  -4.214005e+05
   6.606244e+05  -2.473680e+05
   2.650790e+05  -2.154351e+04
  -3.476517e+05   8.051883e+04
  -4.177579e+05  -5.292072e+04
   1.632000e+05  -2.962283e+05
   7.518715e+05  -2.864384e+05
