
 $NMID
 id='ANONYMOUS ', fmtdat='(2E16.6)'
 volume=1.0
 tramp=1.0
 $END
  -5.260904e+07   3.004990e+06
  -3.394534e+07  -3.016834e+07
   4.289237e+06  -3.593363e+07
   2.488195e+07  -1.593447e+07
   1.624710e+07   4.982948e+06
  -2.236368e+06   9.037224e+06
  -9.485269e+06  -1.308295e+05
  -3.606255e+06  -9.018281e+06
   5.108558e+06  -9.621126e+06
   9.067726e+06  -2.769951e+06
   7.024856e+06   5.546139e+06
   1.197895e+06   8.264204e+06
  -3.699260e+06   2.731814e+06
  -2.821286e+06  -5.328769e+06
   3.213806e+06  -6.737161e+06
   7.599500e+06   6.568990e+05
   4.895701e+06   9.414406e+06
  -2.838502e+06   1.143233e+07
  -9.193548e+06   6.114662e+06
  -1.020383e+07  -1.437626e+06
  -6.424686e+06  -6.642055e+06
  -1.031280e+06  -7.822300e+06
   2.135309e+06  -5.639982e+06
   1.128779e+06  -2.843565e+06
  -1.379276e+06  -2.504557e+06
  -2.315732e+05  -4.304177e+06
   5.321555e+06  -4.384157e+06
   9.418296e+06  -6.771745e+05
   6.865594e+06   3.752488e+06
   2.116305e+05   4.755934e+06
  -3.687929e+06   2.383858e+06
  -2.301715e+06  -2.060015e+05
   9.865759e+05  -1.121157e+06
   2.617769e+06  -4.108659e+05
   2.204985e+06   1.666981e+06
   5.624501e+05   3.951839e+06
  -1.646344e+06   3.644852e+06
  -2.832237e+06  -1.258700e+05
  -1.543291e+06  -3.290698e+06
   5.895155e+05  -1.549310e+06
   2.180020e+05   2.604642e+06
  -2.361407e+06   2.450369e+06
  -2.591624e+06  -2.854053e+06
   1.729152e+06  -5.962312e+06
   6.234184e+06  -1.468091e+06
   5.152433e+06   6.091682e+06
  -1.202207e+06   8.071801e+06
  -6.851673e+06   2.683439e+06
  -7.010002e+06  -3.897992e+06
  -2.253244e+06  -5.801182e+06
   3.234679e+06  -2.949612e+06
   5.354063e+06   1.107211e+06
   2.727348e+06   3.247725e+06
  -2.101962e+06   2.318699e+06
  -4.401257e+06  -5.525248e+05
  -2.088774e+06  -2.448176e+06
   1.537486e+06  -1.413631e+06
   1.819653e+06   8.984039e+05
  -1.082887e+06   1.110547e+06
  -2.538219e+06  -1.265615e+06
   7.816634e+04  -3.162644e+06
   4.024005e+06  -2.172875e+06
   5.106597e+06   7.873228e+05
   2.513507e+06   3.567430e+06
  -1.526806e+06   5.143373e+06
  -4.772181e+06   4.869361e+06
  -5.956740e+06   1.868802e+06
  -4.462810e+06  -2.917343e+06
  -1.126096e+06  -5.963340e+06
   1.503652e+06  -4.820162e+06
   1.600981e+06  -1.500503e+06
   3.442074e+05   2.670922e+04
   2.593151e+05  -9.754389e+05
   1.748272e+06  -1.642949e+06
   2.816073e+06  -8.799300e+04
   1.981703e+06   2.058212e+06
  -7.480019e+04   2.231134e+06
  -1.716157e+06   1.929309e+05
  -1.811956e+06  -2.165445e+06
  -5.244419e+04  -2.992179e+06
   2.724437e+06  -1.669004e+06
   4.386086e+06   1.088832e+06
   3.205106e+06   3.519835e+06
   1.312308e+05   4.002087e+06
  -1.999573e+06   2.667486e+06
  -2.019886e+06   1.245121e+06
  -1.746610e+06   8.490911e+05
  -2.943807e+06   6.802379e+05
  -4.432983e+06  -5.405952e+05
  -3.658441e+06  -2.640553e+06
  -3.049912e+05  -4.198127e+06
   3.141766e+06  -4.087196e+06
   4.206764e+06  -2.245453e+06
   2.682229e+06   4.196347e+05
   2.548748e+05   2.277602e+06
  -1.118825e+06   1.951177e+06
  -5.585740e+05  -4.785601e+04
   1.087883e+06  -1.354196e+06
   1.905252e+06  -4.712264e+05
   9.427690e+05   1.168977e+06
  -5.204812e+05   1.153799e+06
  -5.145021e+05  -3.850044e+05
   9.913251e+05  -8.672494e+05
   1.991448e+06   1.029660e+06
   1.010155e+06   3.430087e+06
  -1.266338e+06   3.692239e+06
  -3.129082e+06   1.514682e+06
  -3.581010e+06  -1.233092e+06
  -2.569686e+06  -2.801300e+06
  -5.874057e+05  -2.737870e+06
   1.247518e+06  -1.547825e+06
   1.623000e+06  -2.654474e+05
   5.073262e+05   2.962586e+04
  -3.979128e+05  -7.568821e+05
   3.473323e+05  -1.372978e+06
   1.891086e+06  -6.716665e+05
   2.108469e+06   7.912982e+05
   4.757239e+05   1.414221e+06
  -1.174497e+06   6.448750e+05
  -9.633045e+05  -4.390953e+05
   8.431872e+05  -6.251594e+05
   2.313518e+06   1.948898e+05
   1.923216e+06   1.349916e+06
  -1.566300e+05   2.099488e+06
  -2.331126e+06   1.824231e+06
  -2.852076e+06   3.925440e+05
  -1.297236e+06  -1.235336e+06
   8.664601e+05  -1.548997e+06
   1.556758e+06  -2.538509e+05
   2.318282e+05   1.077643e+06
  -1.521875e+06   8.073157e+05
  -1.802407e+06  -7.245276e+05
  -4.399376e+05  -1.691415e+06
   1.069722e+06  -1.083833e+06
   1.325040e+06   2.386511e+05
   3.139075e+05   7.902596e+05
  -7.997883e+05   9.726485e+04
  -7.891943e+05  -1.048176e+06
   5.465903e+05  -1.476918e+06
   2.043941e+06  -6.188382e+05
   2.123324e+06   1.009491e+06
   4.712102e+05   2.113928e+06
  -1.409052e+06   1.744649e+06
  -1.766458e+06   2.923893e+05
  -5.629024e+05  -8.726464e+05
   6.440785e+05  -8.608702e+05
   6.665321e+05  -9.459745e+04
  -1.030814e+05   4.119847e+05
  -5.336607e+05   2.582406e+05
  -1.783438e+05  -8.704149e+04
   4.499585e+05   9.608525e+03
   5.832397e+05   6.403442e+05
  -1.415616e+05   1.229696e+06
  -1.381865e+06   9.812018e+05
  -2.157677e+06  -3.452694e+05
  -1.576526e+06  -1.943583e+06
   1.381455e+05  -2.505926e+06
   1.622724e+06  -1.534317e+06
   1.773081e+06   5.789435e+04
   9.443752e+05   9.249710e+05
   3.450668e+05   7.177792e+05
   4.601657e+05   2.340065e+05
   6.258236e+05   2.767552e+05
   1.228857e+05   7.590271e+05
  -8.600749e+05   9.681790e+05
  -1.491045e+06   4.026932e+05
  -1.129513e+06  -7.195018e+05
   1.971721e+05  -1.544891e+06
   1.743307e+06  -1.185573e+06
   2.344979e+06   4.145202e+05
   1.261120e+06   2.120703e+06
  -9.278008e+05   2.477734e+06
  -2.566442e+06   1.177889e+06
  -2.465682e+06  -5.702136e+05
  -1.071836e+06  -1.354705e+06
   1.672086e+05  -1.021029e+06
   4.155372e+05  -5.629487e+05
   9.549214e+04  -7.611149e+05
   7.240671e+04  -1.315842e+06
   6.300999e+05  -1.332701e+06
   1.304496e+06  -3.723657e+05
   1.408827e+06   1.064550e+06
   6.375695e+05   1.930967e+06
  -5.922646e+05   1.500948e+06
  -1.328217e+06   4.852662e+04
  -8.938371e+05  -1.281960e+06
   3.308388e+05  -1.455604e+06
   1.166368e+06  -4.908717e+05
   8.688693e+05   6.506392e+05
  -5.589926e+04   1.098986e+06
  -4.932542e+05   8.391692e+05
  -6.369191e+04   4.485647e+05
   4.500503e+05   3.349914e+05
   7.079406e+04   3.940387e+05
  -1.165154e+06   2.655187e+05
  -2.122567e+06  -2.557293e+05
  -1.705760e+06  -9.977559e+05
  -3.709292e+04  -1.470299e+06
   1.569935e+06  -1.232895e+06
   1.872172e+06  -3.688763e+05
   8.918537e+05   4.554889e+05
  -2.339610e+05   5.867826e+05
  -5.222441e+05   6.592262e+04
  -4.446892e+04  -4.147751e+05
   4.528583e+05  -2.751442e+05
   5.053350e+05   3.338119e+05
   2.682049e+05   7.336246e+05
   9.976441e+04   4.849804e+05
   1.443780e+05  -1.137922e+05
   2.957258e+05  -3.210975e+05
   2.960920e+05   2.284665e+05
  -1.198436e+05   1.023524e+06
  -8.845593e+05   1.128128e+06
  -1.372244e+06   2.276341e+05
  -8.920727e+05  -9.030383e+05
   3.790405e+05  -1.173665e+06
   1.265615e+06  -3.835227e+05
   7.725368e+05   5.668187e+05
  -6.968958e+05   6.985099e+05
  -1.650369e+06  -3.550008e+04
  -1.089383e+06  -8.579269e+05
   4.540831e+05  -1.055566e+06
   1.540636e+06  -5.662230e+05
   1.295730e+06   1.477396e+05
   1.626107e+05   5.319944e+05
  -6.614998e+05   3.084916e+05
  -4.049474e+05  -2.827624e+05
   5.861115e+05  -5.514910e+05
   1.216957e+06   4.652513e+04
   7.246607e+05   1.190642e+06
  -5.517899e+05   1.767682e+06
  -1.497484e+06   9.603800e+05
  -1.322042e+06  -7.370078e+05
  -2.742594e+05  -1.843024e+06
   7.196307e+05  -1.369050e+06
   9.680183e+05   1.434227e+05
   4.959366e+05   1.218563e+06
  -1.873820e+05   1.018511e+06
  -5.778880e+05   1.122325e+05
  -4.989507e+05  -3.778055e+05
  -1.772824e+05  -1.420889e+05
  -4.634606e+04   1.035310e+05
  -2.968084e+05  -2.845902e+05
  -5.617946e+05  -9.749027e+05
  -2.416821e+05  -1.113336e+06
   7.185613e+05  -4.421745e+05
   1.541520e+06   4.255524e+05
   1.357937e+06   8.212030e+05
   2.191881e+05   7.143120e+05
  -8.675433e+05   4.608231e+05
  -1.012359e+06   2.251514e+05
  -3.753956e+05  -3.553962e+04
   1.419252e+05  -2.366469e+05
   2.944485e+04  -2.198979e+05
  -2.761045e+05  -9.410231e+04
  -5.659361e+04  -1.333106e+05
   6.731225e+05  -2.634241e+05
   1.079484e+06  -3.088220e+04
   4.747957e+05   6.885737e+05
  -8.180949e+05   1.244659e+06
  -1.719814e+06   8.543952e+05
  -1.471725e+06  -3.800824e+05
  -3.411635e+05  -1.438342e+06
   7.336356e+05  -1.453927e+06
   1.057611e+06  -6.000316e+05
   6.830917e+05   2.128690e+05
   1.537542e+05   3.620445e+05
  -6.527565e+04   6.734141e+04
   8.758149e+04  -2.153738e+04
   3.265222e+05   3.706187e+05
   2.880965e+05   8.268735e+05
  -1.547961e+05   7.083214e+05
  -7.041431e+05  -9.503025e+04
  -8.019761e+05  -9.451085e+05
  -1.686074e+05  -1.054026e+06
   7.588601e+05  -2.889580e+05
   1.096146e+06   6.931517e+05
   4.104952e+05   1.106115e+06
  -7.016344e+05   7.330354e+05
  -1.158604e+06  -2.397460e+04
  -5.819346e+05  -6.087391e+05
   2.617661e+05  -7.171119e+05
   3.780082e+05  -4.020377e+05
  -2.496224e+05  -2.031069e+03
  -6.669210e+05   6.844928e+04
  -1.674217e+05  -3.106660e+05
   8.234626e+05  -7.362860e+05
   1.284497e+06  -6.135649e+05
   8.034703e+05   1.483785e+05
  -5.880279e+04   9.032171e+05
  -5.345970e+05   9.147140e+05
  -4.335192e+05   1.947326e+05
  -7.739073e+04  -4.874175e+05
   2.236990e+05  -4.620764e+05
   3.651590e+05   1.315729e+05
   2.888573e+05   5.837045e+05
  -2.955943e+04   4.468195e+05
  -4.038355e+05  -2.597384e+04
  -5.087153e+05  -2.702895e+05
  -2.576662e+05  -9.185540e+04
   4.854632e+04   1.551509e+05
   9.510253e+04   4.944975e+04
  -3.278527e+04  -3.543605e+05
   1.053420e+04  -5.668707e+05
   3.071356e+05  -2.473059e+05
   4.922652e+05   3.574656e+05
   2.010324e+05   6.521092e+05
  -4.015884e+05   3.440507e+05
  -6.996324e+05  -2.505796e+05
  -2.898086e+05  -5.753733e+05
   5.081698e+05  -4.031619e+05
   9.162471e+05   3.137965e+04
   5.138596e+05   3.660837e+05
  -2.810758e+05   4.316801e+05
  -6.464670e+05   2.724431e+05
  -2.621027e+05   3.543748e+04
   3.429734e+05  -8.683872e+04
   4.154448e+05   4.121818e+04
  -1.570144e+05   2.996103e+05
  -7.442550e+05   3.082557e+05
