
 $NMID
 id='ANONYMOUS ', fmtdat='(2E16.6)'
 volume=1.0
 tramp=1.0
 $END
   2.833904e+07  -1.209481e+06
   1.815382e+07   1.619376e+07
  -2.328664e+06   1.920592e+07
  -1.338126e+07   8.700691e+06
  -8.829873e+06  -2.463747e+06
   1.107106e+06  -4.867066e+06
   5.149205e+06  -8.750071e+04
   2.081469e+06   4.843534e+06
  -2.682396e+06   5.356460e+06
  -4.925467e+06   1.602640e+06
  -3.820468e+06  -3.075356e+06
  -6.013044e+05  -4.575675e+06
   2.067281e+06  -1.435823e+06
   1.551750e+06   3.045713e+06
  -1.753677e+06   3.783806e+06
  -4.139310e+06  -3.203676e+05
  -2.660292e+06  -5.132995e+06
   1.566058e+06  -6.213566e+06
   5.020228e+06  -3.251895e+06
   5.491990e+06   8.968614e+05
   3.337298e+06   3.646513e+06
   4.334991e+05   4.134988e+06
  -1.103902e+06   2.915598e+06
  -4.092358e+05   1.563682e+06
   8.835336e+05   1.564542e+06
   4.097352e+04   2.522001e+06
  -3.116928e+06   2.371157e+06
  -5.287531e+06   2.083039e+05
  -3.723322e+06  -2.183267e+06
   4.467759e+04  -2.612440e+06
   2.177818e+06  -1.201173e+06
   1.273355e+06   2.792905e+05
  -7.142333e+05   7.377158e+05
  -1.647828e+06   1.866067e+05
  -1.256214e+06  -1.094267e+06
  -1.818599e+05  -2.298363e+06
   9.928784e+05  -1.946068e+06
   1.465493e+06   1.975481e+05
   6.976003e+05   1.806525e+06
  -3.493824e+05   7.040083e+05
  -3.507635e+04  -1.567225e+06
   1.350126e+06  -1.390390e+06
   1.428296e+06   1.542272e+06
  -8.790672e+05   3.214982e+06
  -3.266722e+06   7.796498e+05
  -2.713805e+06  -3.276774e+06
   6.577047e+05  -4.323147e+06
   3.724763e+06  -1.406774e+06
   3.870898e+06   2.168988e+06
   1.282414e+06   3.226405e+06
  -1.792562e+06   1.672022e+06
  -3.016422e+06  -5.817043e+05
  -1.569240e+06  -1.786784e+06
   1.118156e+06  -1.283283e+06
   2.407106e+06   2.900996e+05
   1.156186e+06   1.324552e+06
  -8.363821e+05   7.663987e+05
  -1.032845e+06  -4.951380e+05
   5.288972e+05  -6.517435e+05
   1.382351e+06   5.885436e+05
   5.113340e+04   1.632142e+06
  -2.086634e+06   1.176229e+06
  -2.754415e+06  -3.753348e+05
  -1.377822e+06  -1.915718e+06
   8.992239e+05  -2.823009e+06
   2.743439e+06  -2.653657e+06
   3.339730e+06  -9.487517e+05
   2.407421e+06   1.691698e+06
   5.502699e+05   3.329170e+06
  -8.260361e+05   2.691631e+06
  -8.510200e+05   9.049199e+05
  -2.348253e+05   8.465575e+04
  -2.794122e+05   5.855061e+05
  -1.108294e+06   8.598203e+05
  -1.628017e+06  -7.213749e+04
  -1.080161e+06  -1.273221e+06
   1.219522e+05  -1.314373e+06
   1.045071e+06  -8.532380e+04
   1.043377e+06   1.292538e+06
  -1.385580e+04   1.721242e+06
  -1.573748e+06   8.881645e+05
  -2.430479e+06  -6.944880e+05
  -1.710041e+06  -1.992716e+06
  -1.748199e+04  -2.178722e+06
   1.103471e+06  -1.420792e+06
   1.085944e+06  -6.767771e+05
   9.604033e+05  -4.953532e+05
   1.666420e+06  -3.959727e+05
   2.514319e+06   3.149749e+05
   2.070391e+06   1.516542e+06
   1.524720e+05   2.399268e+06
  -1.832517e+06   2.314628e+06
  -2.441143e+06   1.230795e+06
  -1.524969e+06  -2.979270e+05
  -8.855835e+04  -1.320178e+06
   6.870833e+05  -1.091625e+06
   3.158482e+05   4.588107e+04
  -6.441488e+05   7.608344e+05
  -1.082856e+06   2.504134e+05
  -5.108490e+05  -6.694482e+05
   3.188161e+05  -6.587555e+05
   3.162119e+05   2.170213e+05
  -5.302839e+05   5.254649e+05
  -1.123900e+06  -5.117213e+05
  -6.288679e+05  -1.899642e+06
   6.384580e+05  -2.133741e+06
   1.752507e+06  -9.448072e+05
   2.084177e+06   6.623216e+05
   1.517426e+06   1.626608e+06
   3.406074e+05   1.601173e+06
  -7.363112e+05   8.835039e+05
  -9.405573e+05   1.329362e+05
  -2.905768e+05  -2.041518e+04
   2.239987e+05   4.348899e+05
  -1.986191e+05   7.726123e+05
  -1.067377e+06   3.696796e+05
  -1.191323e+06  -4.490170e+05
  -2.718471e+05  -7.977136e+05
   6.708427e+05  -3.673687e+05
   5.637887e+05   2.538872e+05
  -4.735666e+05   3.770154e+05
  -1.342585e+06  -9.287124e+04
  -1.132112e+06  -7.809936e+05
   8.057981e+04  -1.226211e+06
   1.349021e+06  -1.051934e+06
   1.640243e+06  -2.141236e+05
   7.326857e+05   7.066239e+05
  -5.001997e+05   8.663370e+05
  -8.759578e+05   1.305342e+05
  -1.158637e+05  -6.098309e+05
   8.731126e+05  -4.490557e+05
   1.028657e+06   4.173023e+05
   2.574796e+05   9.681086e+05
  -6.045255e+05   6.294721e+05
  -7.607280e+05  -1.243942e+05
  -1.892564e+05  -4.466623e+05
   4.486681e+05  -5.320687e+04
   4.409215e+05   6.026712e+05
  -3.268377e+05   8.395887e+05
  -1.176430e+06   3.356192e+05
  -1.206673e+06  -5.948186e+05
  -2.561541e+05  -1.210849e+06
   8.115698e+05  -9.896626e+05
   1.010347e+06  -1.628687e+05
   3.235741e+05   4.991033e+05
  -3.700524e+05   4.932908e+05
  -3.917895e+05   5.003645e+04
   5.226186e+04  -2.513855e+05
   3.192798e+05  -1.631247e+05
   1.291632e+05   5.327805e+04
  -2.418683e+05   1.413504e+04
  -3.369902e+05  -3.506410e+05
   7.507831e+04  -6.992758e+05
   7.922349e+05  -5.572558e+05
   1.233806e+06   2.083034e+05
   8.903295e+05   1.122352e+06
  -9.471244e+04   1.439281e+06
  -9.409798e+05   8.824235e+05
  -1.028210e+06  -3.323207e+04
  -5.559631e+05  -5.463087e+05
  -2.018781e+05  -4.420083e+05
  -2.488500e+05  -1.560599e+05
  -3.384958e+05  -1.572985e+05
  -6.225571e+04  -4.242501e+05
   4.928025e+05  -5.527748e+05
   8.602024e+05  -2.321123e+05
   6.571926e+05   4.216223e+05
  -1.122740e+05   8.993493e+05
  -1.007731e+06   6.806282e+05
  -1.348389e+06  -2.482980e+05
  -7.191733e+05  -1.220092e+06
   5.331849e+05  -1.413063e+06
   1.467513e+06  -6.691612e+05
   1.416476e+06   3.261234e+05
   6.277305e+05   7.810071e+05
  -8.908415e+04   6.017906e+05
  -2.532313e+05   3.381387e+05
  -8.308355e+04   4.357397e+05
  -6.248174e+04   7.406597e+05
  -3.665932e+05   7.491188e+05
  -7.433387e+05   2.011430e+05
  -7.978712e+05  -6.213343e+05
  -3.515267e+05  -1.112749e+06
   3.514499e+05  -8.573700e+05
   7.634818e+05  -2.260734e+04
   5.082544e+05   7.336235e+05
  -1.876436e+05   8.307515e+05
  -6.578522e+05   2.866726e+05
  -4.910255e+05  -3.580445e+05
   2.554481e+04  -6.172538e+05
   2.698633e+05  -4.792906e+05
   3.138614e+04  -2.636492e+05
  -2.529196e+05  -1.993225e+05
  -3.598650e+04  -2.283199e+05
   6.634572e+05  -1.468042e+05
   1.206641e+06   1.570529e+05
   9.714106e+05   5.768266e+05
   2.245015e+04   8.341567e+05
  -8.953964e+05   6.923313e+05
  -1.070753e+06   2.075546e+05
  -5.116546e+05  -2.515808e+05
   1.325132e+05  -3.275858e+05
   2.954549e+05  -4.032145e+04
   1.750122e+04   2.295582e+05
  -2.666640e+05   1.525122e+05
  -2.858730e+05  -1.953052e+05
  -1.380358e+05  -4.267257e+05
  -4.355860e+04  -2.804665e+05
  -8.424662e+04   7.215439e+04
  -1.796353e+05   1.925376e+05
  -1.704457e+05  -1.315689e+05
   8.073871e+04  -5.906941e+05
   5.145610e+05  -6.392009e+05
   7.762207e+05  -1.129848e+05
   4.926246e+05   5.255245e+05
  -2.261864e+05   6.603076e+05
  -7.219598e+05   2.000607e+05
  -4.379385e+05  -3.342365e+05
   4.014189e+05  -3.982908e+05
   9.514520e+05   2.444069e+04
   6.345022e+05   4.953517e+05
  -2.556762e+05   6.115002e+05
  -8.899132e+05   3.312577e+05
  -7.525548e+05  -8.404644e+04
  -9.599324e+04  -3.087437e+05
   3.800154e+05  -1.781465e+05
   2.266507e+05   1.617126e+05
  -3.459876e+05   3.074412e+05
  -6.978389e+05  -4.377218e+04
  -3.976183e+05  -6.938439e+05
   3.419698e+05  -1.007535e+06
   8.732936e+05  -5.333776e+05
   7.538002e+05   4.373254e+05
   1.428924e+05   1.063745e+06
  -4.231138e+05   7.877912e+05
  -5.570236e+05  -8.193927e+04
  -2.840058e+05  -7.024122e+05
   1.048718e+05  -5.889990e+05
   3.298244e+05  -6.439283e+04
   2.913356e+05   2.218637e+05
   1.088852e+05   8.492078e+04
   2.421164e+04  -6.142327e+04
   1.570448e+05   1.610776e+05
   3.116749e+05   5.624022e+05
   1.406477e+05   6.429189e+05
  -4.052800e+05   2.501483e+05
  -8.848472e+05  -2.558478e+05
  -7.838374e+05  -4.812153e+05
  -1.218877e+05  -4.102532e+05
   5.099835e+05  -2.582417e+05
   5.863953e+05  -1.253198e+05
   2.086250e+05   1.889254e+04
  -8.646530e+04   1.343522e+05
  -8.986625e+03   1.302232e+05
   1.682225e+05   6.087880e+04
   2.767619e+04   7.792294e+04
  -3.997720e+05   1.430097e+05
  -6.195075e+05   6.005458e+03
  -2.526413e+05  -3.987934e+05
   4.899912e+05  -7.031717e+05
   9.889451e+05  -4.691198e+05
   8.306073e+05   2.369225e+05
   1.803321e+05   8.312189e+05
  -4.311208e+05   8.258218e+05
  -6.128627e+05   3.292314e+05
  -3.924765e+05  -1.334017e+05
  -8.105750e+04  -2.094027e+05
   4.693199e+04  -3.290636e+04
  -4.689426e+04   1.808106e+04
  -1.888923e+05  -2.123791e+05
  -1.625624e+05  -4.771473e+05
   9.703858e+04  -4.036668e+05
   4.060699e+05   6.703789e+04
   4.472858e+05   5.566598e+05
   7.708743e+04   6.066284e+05
  -4.448229e+05   1.506318e+05
  -6.211623e+05  -4.165016e+05
  -2.199375e+05  -6.389192e+05
   4.114690e+05  -4.081123e+05
   6.609049e+05   2.693429e+04
   3.232084e+05   3.487452e+05
  -1.565630e+05   4.011070e+05
  -2.131233e+05   2.251286e+05
   1.520270e+05   6.065813e+03
   3.860444e+05  -3.225092e+04
   9.041368e+04   1.784838e+05
  -4.793930e+05   4.169678e+05
  -7.355729e+05   3.471784e+05
  -4.513705e+05  -8.615108e+04
   4.269043e+04  -5.150112e+05
   3.079470e+05  -5.167971e+05
   2.427074e+05  -1.013426e+05
   3.587333e+04   2.844822e+05
  -1.345249e+05   2.589516e+05
  -2.095778e+05  -8.636289e+04
  -1.595294e+05  -3.382623e+05
   2.350339e+04  -2.495907e+05
   2.316380e+05   2.191652e+04
   2.867747e+05   1.546844e+05
   1.467899e+05   5.031024e+04
  -2.223940e+04  -8.383829e+04
  -5.322814e+04  -1.688210e+04
   5.355967e+03   2.094855e+05
  -2.681453e+04   3.181465e+05
  -1.844460e+05   1.256287e+05
  -2.699534e+05  -2.196301e+05
  -9.600181e+04  -3.785549e+05
   2.379978e+05  -1.904092e+05
   3.947901e+05   1.558268e+05
   1.574393e+05   3.365443e+05
  -2.933710e+05   2.256172e+05
  -5.216760e+05  -3.024475e+04
  -2.895071e+05  -2.153704e+05
   1.658336e+05  -2.395784e+05
   3.722545e+05  -1.432715e+05
   1.449088e+05  -1.628233e+04
  -2.067184e+05   4.104367e+04
  -2.421738e+05  -3.595492e+04
   9.957504e+04  -1.762783e+05
   4.418143e+05  -1.705991e+05
