
 $NMID
 id='ANONYMOUS ', fmtdat='(2E16.6)'
 volume=1.0
 tramp=1.0
 $END
  -3.575598e+07  -7.550069e+05
  -2.195469e+07  -2.049827e+07
   3.418791e+06  -2.348693e+07
   1.690561e+07  -1.118843e+07
   1.136113e+07   2.340161e+06
  -1.084300e+06   6.129765e+06
  -6.653391e+06   7.263387e+05
  -3.148938e+06  -6.061481e+06
   3.140107e+06  -7.458668e+06
   6.401663e+06  -2.417334e+06
   4.940309e+06   4.341416e+06
   4.935711e+05   6.348810e+06
  -2.995335e+06   1.639567e+06
  -2.103356e+06  -4.624876e+06
   2.331101e+06  -5.411873e+06
   5.389163e+06   3.284011e+05
   3.348496e+06   6.766491e+06
  -2.256257e+06   8.008982e+06
  -6.684692e+06   3.792404e+06
  -6.884994e+06  -1.788747e+06
  -3.593272e+06  -4.984160e+06
   9.169431e+04  -4.901099e+06
   1.291476e+06  -3.106990e+06
  -2.951112e+05  -2.038410e+06
  -1.725310e+06  -2.858595e+06
   2.995630e+05  -4.058031e+06
   5.029351e+06  -3.033486e+06
   7.623488e+06   4.486639e+05
   4.811726e+06   3.519480e+06
  -7.680805e+05   3.575829e+06
  -3.620587e+06   1.189248e+06
  -1.800257e+06  -1.084393e+06
   1.659887e+06  -1.539298e+06
   3.103027e+06  -1.085193e+05
   1.883334e+06   2.240835e+06
  -3.223450e+05   3.658837e+06
  -1.766510e+06   2.368535e+06
  -1.619742e+06  -8.685845e+05
  -2.779466e+05  -2.476875e+06
   6.205882e+05  -3.290266e+05
  -2.983830e+05   2.694516e+06
  -2.041338e+06   2.036348e+06
  -1.910558e+06  -1.991035e+06
   9.332840e+05  -4.037231e+06
   3.732323e+06  -8.567864e+05
   3.096905e+06   4.158253e+06
  -9.414977e+05   5.315104e+06
  -4.856269e+06   1.546514e+06
  -5.250068e+06  -3.064078e+06
  -1.870772e+06  -4.497845e+06
   2.487402e+06  -2.444692e+06
   4.354974e+06   6.944148e+05
   2.377022e+06   2.433849e+06
  -1.376851e+06   1.761587e+06
  -3.195483e+06  -3.674654e+05
  -1.572800e+06  -1.727640e+06
   1.106445e+06  -9.889587e+05
   1.527809e+06   6.848390e+05
  -4.331797e+05   1.043713e+06
  -1.783942e+06  -3.609567e+05
  -4.296725e+05  -1.738309e+06
   2.293587e+06  -1.453264e+06
   3.460556e+06   3.186922e+05
   1.792945e+06   2.405045e+06
  -1.507536e+06   3.761142e+06
  -4.234603e+06   3.436631e+06
  -4.786766e+06   9.007351e+05
  -3.029676e+06  -2.690726e+06
  -4.047273e+05  -4.714717e+06
   1.150851e+06  -3.782057e+06
   1.030934e+06  -1.522969e+06
   4.896866e+05  -5.188174e+05
   9.366805e+05  -1.009449e+06
   2.116276e+06  -9.958220e+05
   2.547900e+06   5.979252e+05
   1.434716e+06   2.323797e+06
  -4.987342e+05   2.162472e+06
  -1.845190e+06   4.424911e+04
  -1.615796e+06  -2.172169e+06
   2.033677e+05  -2.651178e+06
   2.458233e+06  -1.068784e+06
   3.359779e+06   1.370117e+06
   2.057558e+06   2.961157e+06
  -2.504788e+05   2.848469e+06
  -1.534709e+06   1.693176e+06
  -1.366534e+06   8.454315e+05
  -1.287964e+06   7.666879e+05
  -2.434556e+06   6.116674e+05
  -3.693067e+06  -5.145253e+05
  -3.017256e+06  -2.324273e+06
  -1.294686e+05  -3.609528e+06
   2.916339e+06  -3.388240e+06
   3.837266e+06  -1.631172e+06
   2.277739e+06   6.935035e+05
  -9.770086e+04   2.076237e+06
  -1.243704e+06   1.558646e+06
  -4.756102e+05  -1.459872e+05
   1.064159e+06  -1.100205e+06
   1.617640e+06  -2.997683e+05
   6.589117e+05   1.025813e+06
  -5.730375e+05   1.003837e+06
  -5.742150e+05  -3.046443e+05
   6.386732e+05  -9.074285e+05
   1.611049e+06   4.558183e+05
   1.131898e+06   2.597448e+06
  -6.198810e+05   3.282896e+06
  -2.475314e+06   1.723441e+06
  -3.268767e+06  -8.315338e+05
  -2.472711e+06  -2.550320e+06
  -5.301598e+05  -2.554542e+06
   1.207873e+06  -1.321369e+06
   1.474307e+06  -1.182745e+05
   4.409531e+05   4.894421e+04
  -3.251695e+05  -6.641099e+05
   3.004751e+05  -1.114921e+06
   1.556233e+06  -4.964324e+05
   1.741351e+06   6.679158e+05
   4.121708e+05   1.163972e+06
  -1.006741e+06   5.563783e+05
  -9.083549e+05  -3.840497e+05
   6.638233e+05  -6.421889e+05
   2.088470e+06   6.036459e+04
   1.833365e+06   1.204698e+06
  -8.133433e+04   1.945851e+06
  -2.096989e+06   1.617301e+06
  -2.512824e+06   2.740916e+05
  -1.065818e+06  -1.074298e+06
   7.817775e+05  -1.229250e+06
   1.270374e+06  -1.315077e+05
   1.074597e+05   8.999007e+05
  -1.330857e+06   6.267822e+05
  -1.543494e+06  -6.439290e+05
  -4.113165e+05  -1.465201e+06
   8.826932e+05  -9.898725e+05
   1.161248e+06   1.366481e+05
   3.307615e+05   6.526465e+05
  -6.351694e+05   7.568910e+04
  -6.216290e+05  -9.146254e+05
   5.470577e+05  -1.240333e+06
   1.800245e+06  -4.286448e+05
   1.784844e+06   9.708482e+05
   3.272990e+05   1.834696e+06
  -1.252996e+06   1.456406e+06
  -1.528968e+06   2.221348e+05
  -4.975618e+05  -7.582267e+05
   5.652217e+05  -7.528965e+05
   6.400580e+05  -6.457809e+04
  -3.977281e+04   4.408695e+05
  -5.288374e+05   3.149379e+05
  -3.064250e+05  -8.242073e+04
   2.899730e+05  -9.324787e+04
   5.094783e+05   4.624546e+05
  -9.440332e+04   1.028228e+06
  -1.199992e+06   8.153516e+05
  -1.853206e+06  -3.629362e+05
  -1.288422e+06  -1.737675e+06
   2.140084e+05  -2.194055e+06
   1.474656e+06  -1.347565e+06
   1.607301e+06   5.425667e+04
   9.025930e+05   8.978534e+05
   3.245061e+05   8.000221e+05
   3.154471e+05   3.328250e+05
   4.229588e+05   2.370076e+05
   5.153630e+04   5.949989e+05
  -7.482703e+05   8.187257e+05
  -1.319472e+06   3.488460e+05
  -1.027602e+06  -6.764424e+05
   1.696522e+05  -1.412283e+06
   1.558677e+06  -1.027674e+06
   2.055732e+06   4.242641e+05
   1.070241e+06   1.866145e+06
  -8.161016e+05   2.106460e+06
  -2.208806e+06   9.832085e+05
  -2.157563e+06  -4.942641e+05
  -1.006251e+06  -1.201365e+06
   1.044938e+05  -9.794339e+05
   4.447294e+05  -5.788826e+05
   2.472958e+05  -6.628040e+05
   1.892311e+05  -1.068548e+06
   5.840364e+05  -1.071981e+06
   1.109973e+06  -2.494279e+05
   1.167460e+06   9.918514e+05
   4.717730e+05   1.713375e+06
  -5.852739e+05   1.287661e+06
  -1.166308e+06   1.213937e+04
  -7.504247e+05  -1.106464e+06
   2.780108e+05  -1.241254e+06
   9.491376e+05  -4.533042e+05
   7.085642e+05   4.801113e+05
  -1.478573e+04   8.777801e+05
  -3.535713e+05   7.147278e+05
  -2.478666e+04   4.270885e+05
   3.596529e+05   3.356114e+05
   3.244394e+04   3.560351e+05
  -9.852176e+05   1.940889e+05
  -1.781271e+06  -2.887767e+05
  -1.441302e+06  -8.967027e+05
  -3.740920e+04  -1.223810e+06
   1.338636e+06  -9.828678e+05
   1.612322e+06  -2.951726e+05
   7.748756e+05   3.401089e+05
  -1.963684e+05   4.565074e+05
  -4.293049e+05   6.977755e+04
   1.311245e+04  -3.130049e+05
   4.380999e+05  -2.068273e+05
   4.156758e+05   3.163107e+05
   1.384520e+05   6.769143e+05
   5.646538e+03   4.385196e+05
   1.327784e+05  -1.378550e+05
   3.124691e+05  -3.288959e+05
   2.569983e+05   1.999844e+05
  -1.766246e+05   9.093221e+05
  -8.115592e+05   9.321073e+05
  -1.129154e+06   9.067085e+04
  -6.623658e+05  -8.331195e+05
   3.848520e+05  -9.445299e+05
   1.080765e+06  -2.124747e+05
   6.414852e+05   5.494511e+05
  -6.183456e+05   5.922151e+05
  -1.464369e+06  -5.794552e+04
  -1.002255e+06  -7.656201e+05
   3.683028e+05  -9.509587e+05
   1.375866e+06  -5.284959e+05
   1.180831e+06   1.243919e+05
   1.574916e+05   4.834756e+05
  -5.786506e+05   2.755784e+05
  -3.192985e+05  -2.435309e+05
   5.686657e+05  -4.283703e+05
   1.059901e+06   1.420010e+05
   5.243040e+05   1.103828e+06
  -6.344041e+05   1.503695e+06
  -1.392649e+06   7.319557e+05
  -1.124768e+06  -7.309831e+05
  -1.509427e+05  -1.645422e+06
   6.888538e+05  -1.206102e+06
   8.516160e+05   1.237321e+05
   4.276475e+05   1.080083e+06
  -1.465897e+05   9.128372e+05
  -4.916122e+05   9.719478e+04
  -4.648665e+05  -3.577990e+05
  -1.980081e+05  -1.420305e+05
  -2.623466e+04   1.021315e+05
  -1.790593e+05  -2.370289e+05
  -4.258191e+05  -8.695270e+05
  -2.223662e+05  -9.943781e+05
   5.851446e+05  -3.621400e+05
   1.346445e+06   4.418817e+05
   1.211062e+06   7.755858e+05
   1.664633e+05   6.249229e+05
  -8.299796e+05   3.652824e+05
  -9.151430e+05   1.727191e+05
  -2.859306e+05  -2.391277e+04
   1.545172e+05  -1.988781e+05
  -2.119377e+04  -2.142722e+05
  -2.993516e+05  -1.205433e+05
  -2.108321e+04  -1.244081e+05
   6.678208e+05  -1.825227e+05
   9.424775e+05   4.339782e+04
   2.956163e+05   6.255612e+05
  -8.383117e+05   1.021549e+06
  -1.515246e+06   6.167109e+05
  -1.201854e+06  -4.476955e+05
  -2.043313e+05  -1.290740e+06
   7.022122e+05  -1.216102e+06
   9.591635e+05  -4.324753e+05
   5.991789e+05   2.522305e+05
   9.147100e+04   3.257787e+05
  -1.139894e+05   2.613241e+04
   5.504596e+04  -5.198993e+04
   2.929525e+05   3.206009e+05
   2.349133e+05   7.363210e+05
  -1.840759e+05   6.021288e+05
  -6.275812e+05  -1.566478e+05
  -6.240775e+05  -9.115056e+05
  -2.925725e+04  -9.331009e+05
   7.202946e+05  -1.624340e+05
   9.110289e+05   7.183722e+05
   2.638426e+05   9.918759e+05
  -6.670067e+05   5.643953e+05
  -9.876207e+05  -1.013557e+05
  -4.419804e+05  -5.287098e+05
   2.679151e+05  -5.629701e+05
   3.072159e+05  -3.161612e+05
  -2.709473e+05  -3.034421e+04
  -6.018221e+05   1.731797e+04
  -1.114590e+05  -2.730495e+05
   7.600391e+05  -6.087918e+05
   1.111376e+06  -5.037007e+05
   6.421479e+05   1.380215e+05
  -1.062122e+05   7.689912e+05
  -4.752262e+05   7.480195e+05
  -3.434613e+05   1.056545e+05
  -1.659528e+04  -4.548221e+05
   2.333234e+05  -3.660595e+05
   3.200431e+05   1.800357e+05
   2.143302e+05   5.296080e+05
  -6.658578e+04   3.496612e+05
  -3.525926e+05  -6.486915e+04
  -4.121987e+05  -2.344407e+05
  -2.175020e+05  -6.630670e+04
   7.738715e+03   1.051128e+05
   7.261657e+04  -2.523713e+04
   5.094634e+04  -3.479657e+05
   1.352174e+05  -4.551110e+05
   3.200214e+05  -1.193509e+05
   3.563656e+05   4.010107e+05
   5.950127e+04   5.978548e+05
  -3.965511e+05   2.585941e+05
  -5.712281e+05  -2.921312e+05
  -1.999753e+05  -5.409460e+05
   4.544842e+05  -3.165642e+05
   7.756964e+05   1.020344e+05
   4.162424e+05   3.519800e+05
  -2.739094e+05   3.281920e+05
  -5.738169e+05   1.589988e+05
  -1.965486e+05   5.064238e+03
   3.598384e+05  -2.513671e+04
   3.871271e+05   1.090228e+05
  -1.926794e+05   2.889207e+05
  -7.379365e+05   2.332166e+05
