
 $NMID
 id='ANONYMOUS ', fmtdat='(2E16.6)'
 volume=1.0
 tramp=1.0
 $END
  -2.368957e+07   6.968825e+05
  -1.656643e+07  -9.839594e+06
  -1.171230e+06  -1.479268e+07
   9.640372e+06  -1.120905e+07
   9.021999e+06  -2.208959e+06
   1.145595e+06   4.357625e+06
  -4.937536e+06   2.962557e+06
  -4.384101e+06  -3.634280e+06
   5.447980e+05  -7.264028e+06
   4.480049e+06  -3.605094e+06
   4.203126e+06   3.090476e+06
   6.851649e+05   5.347625e+06
  -2.445189e+06   1.088603e+06
  -2.175726e+06  -4.570545e+06
   1.192130e+06  -5.481970e+06
   4.170166e+06  -8.493547e+05
   3.413913e+06   4.700410e+06
  -7.559587e+05   6.239242e+06
  -4.553336e+06   3.064472e+06
  -4.709607e+06  -1.375420e+06
  -1.858564e+06  -3.343949e+06
   4.405026e+05  -2.381007e+06
  -2.104765e+05  -1.125349e+06
  -2.444682e+06  -1.895048e+06
  -2.718728e+06  -3.988019e+06
   6.890076e+05  -4.695051e+06
   5.438069e+06  -2.563577e+06
   7.120564e+06   1.001652e+06
   3.788668e+06   3.289494e+06
  -1.633722e+06   2.802692e+06
  -4.046615e+06   2.540275e+05
  -1.483134e+06  -2.180026e+06
   2.871318e+06  -2.376440e+06
   4.386145e+06   1.053374e+05
   2.042935e+06   3.248953e+06
  -1.069714e+06   4.033046e+06
  -1.853756e+06   1.557286e+06
  -4.546596e+05  -1.544171e+06
   8.167865e+05  -1.788403e+06
   5.236660e+05   1.021731e+06
  -8.233610e+05   3.384271e+06
  -1.935211e+06   2.278741e+06
  -1.889594e+06  -1.140483e+06
  -4.752179e+05  -2.948157e+06
   1.468905e+06  -1.124343e+06
   2.086584e+06   2.228971e+06
   6.948594e+04   3.464217e+06
  -3.338100e+06   1.328995e+06
  -4.842486e+06  -2.100412e+06
  -2.477711e+06  -3.845392e+06
   1.911056e+06  -2.769214e+06
   4.358910e+06  -1.557475e+05
   2.902942e+06   1.768284e+06
  -5.634423e+05   1.727477e+06
  -2.561814e+06   2.493646e+05
  -1.604836e+06  -1.013625e+06
   6.847538e+05  -8.549940e+05
   1.630227e+06   4.085234e+05
   3.341883e+05   1.352451e+06
  -1.510067e+06   9.215689e+05
  -1.547080e+06  -5.069569e+05
   5.388564e+05  -1.469024e+06
   2.473241e+06  -7.772624e+05
   1.808555e+06   1.324586e+06
  -1.280124e+06   3.188769e+06
  -4.092168e+06   3.042940e+06
  -4.320240e+06   5.851844e+05
  -2.328055e+06  -2.557633e+06
  -2.715333e+05  -4.200705e+06
   4.845549e+05  -3.636979e+06
   4.647987e+05  -2.154243e+06
   8.597045e+05  -1.354361e+06
   1.946150e+06  -1.250048e+06
   2.907340e+06  -5.264813e+05
   2.760154e+06   1.354881e+06
   1.226531e+06   3.000425e+06
  -9.684853e+05   2.537757e+06
  -2.404358e+06  -3.770887e+04
  -1.913178e+06  -2.556756e+06
   3.003416e+05  -2.842961e+06
   2.533990e+06  -8.405388e+05
   3.002753e+06   1.578472e+06
   1.544074e+06   2.624715e+06
  -2.984074e+05   2.117145e+06
  -1.021810e+06   1.180394e+06
  -7.817983e+05   8.406736e+05
  -9.969384e+05   1.062451e+06
  -2.390116e+06   9.653047e+05
  -3.793098e+06  -1.931419e+05
  -3.251353e+06  -2.176985e+06
  -3.317522e+05  -3.766253e+06
   2.995958e+06  -3.662474e+06
   4.105479e+06  -1.660522e+06
   2.337975e+06   9.426630e+05
  -3.600621e+05   2.275492e+06
  -1.490488e+06   1.526807e+06
  -4.584273e+05  -2.474570e+05
   1.171667e+06  -1.132258e+06
   1.597020e+06  -3.311636e+05
   5.705269e+05   9.892410e+05
  -6.641682e+05   1.073153e+06
  -8.004266e+05  -2.697613e+05
   3.380610e+05  -1.283637e+06
   1.714998e+06  -2.844776e+05
   1.920377e+06   2.205950e+06
   3.191615e+05   3.790872e+06
  -2.237553e+06   2.720429e+06
  -3.866511e+06  -2.474984e+05
  -3.217966e+06  -2.680384e+06
  -8.184630e+05  -2.924970e+06
   1.315922e+06  -1.483971e+06
   1.617879e+06  -1.176453e+05
   4.692089e+05   3.174562e+04
  -3.765876e+05  -6.818998e+05
   1.969487e+05  -1.107092e+06
   1.468024e+06  -5.773144e+05
   1.788613e+06   4.908606e+05
   5.519101e+05   1.095994e+06
  -1.002380e+06   6.662791e+05
  -1.087901e+06  -3.595725e+05
   6.021227e+05  -9.070817e+05
   2.391634e+06  -2.646502e+05
   2.299564e+06   1.197668e+06
   1.494035e+05   2.273255e+06
  -2.186078e+06   1.969320e+06
  -2.683998e+06   4.531411e+05
  -1.159003e+06  -1.014516e+06
   7.165862e+05  -1.215249e+06
   1.196017e+06  -1.664258e+05
   7.577295e+04   8.684877e+05
  -1.351012e+06   6.896234e+05
  -1.671098e+06  -5.473220e+05
  -6.223310e+05  -1.514487e+06
   7.862077e+05  -1.209224e+06
   1.269053e+06  -5.807582e+04
   4.860904e+05   6.232852e+05
  -5.998963e+05   1.251377e+05
  -6.633562e+05  -9.283683e+05
   5.658136e+05  -1.316943e+06
   1.904987e+06  -4.836605e+05
   1.907944e+06   9.762680e+05
   4.243793e+05   1.906192e+06
  -1.211493e+06   1.594141e+06
  -1.583264e+06   3.552923e+05
  -6.081338e+05  -7.477182e+05
   5.371000e+05  -8.501362e+05
   7.417490e+05  -8.405047e+04
   2.772931e+04   5.998765e+05
  -6.595700e+05   4.860916e+05
  -5.383623e+05  -1.190857e+05
   2.050424e+05  -3.002631e+05
   6.353430e+05   3.227499e+05
   5.546446e+04   1.078126e+06
  -1.200509e+06   9.552814e+05
  -1.987111e+06  -2.805918e+05
  -1.441211e+06  -1.780401e+06
   1.307304e+05  -2.371304e+06
   1.525305e+06  -1.596369e+06
   1.811412e+06  -9.075118e+04
   1.148545e+06   1.002458e+06
   4.275780e+05   1.054429e+06
   2.374795e+05   4.731573e+05
   3.286377e+05   1.808178e+05
   6.886502e+04   5.443187e+05
  -7.137950e+05   9.402881e+05
  -1.425208e+06   5.141417e+05
  -1.238195e+06  -7.010197e+05
   4.739365e+04  -1.637875e+06
   1.633615e+06  -1.257596e+06
   2.264883e+06   3.352124e+05
   1.295613e+06   1.922093e+06
  -6.701476e+05   2.277972e+06
  -2.231979e+06   1.226523e+06
  -2.378030e+06  -3.137095e+05
  -1.288219e+06  -1.231734e+06
  -1.790182e+04  -1.188075e+06
   5.473534e+05  -7.633662e+05
   4.107082e+05  -6.992258e+05
   2.390810e+05  -1.036220e+06
   5.428829e+05  -1.086257e+06
   1.115802e+06  -2.882976e+05
   1.261329e+06   1.018688e+06
   5.617515e+05   1.814773e+06
  -5.859333e+05   1.398212e+06
  -1.255883e+06   8.465645e+04
  -8.809704e+05  -1.097037e+06
   1.570501e+05  -1.329451e+06
   8.965020e+05  -6.279857e+05
   7.689225e+05   3.261390e+05
   1.318824e+05   8.531530e+05
  -2.116792e+05   7.996740e+05
   4.645117e+04   5.117402e+05
   3.747985e+05   3.712784e+05
   3.540131e+04   3.918553e+05
  -9.971900e+05   2.714801e+05
  -1.851216e+06  -1.996341e+05
  -1.578242e+06  -8.480985e+05
  -1.758611e+05  -1.243722e+06
   1.288234e+06  -1.080586e+06
   1.672452e+06  -4.465284e+05
   8.739879e+05   2.186079e+05
  -1.439484e+05   4.450650e+05
  -4.265798e+05   1.403581e+05
   3.069012e+04  -2.674385e+05
   4.922341e+05  -2.204356e+05
   4.441250e+05   3.204008e+05
   9.473637e+04   7.385689e+05
  -5.308051e+04   4.716549e+05
   1.465526e+05  -2.115570e+05
   3.875698e+05  -4.353832e+05
   3.034123e+05   1.957320e+05
  -1.907063e+05   1.010857e+06
  -8.267821e+05   1.017066e+06
  -1.108304e+06   9.040230e+04
  -6.461368e+05  -8.657351e+05
   3.716313e+05  -9.487081e+05
   1.089196e+06  -1.932702e+05
   6.951302e+05   5.870391e+05
  -6.141764e+05   6.772123e+05
  -1.607206e+06   4.791559e+04
  -1.218433e+06  -7.562849e+05
   2.719906e+05  -1.106210e+06
   1.476458e+06  -7.434888e+05
   1.348495e+06   2.261133e+04
   2.322476e+05   5.324350e+05
  -5.996477e+05   3.592400e+05
  -3.249673e+05  -2.219637e+05
   6.318074e+05  -4.398304e+05
   1.132035e+06   1.743352e+05
   5.270047e+05   1.193954e+06
  -7.122287e+05   1.601509e+06
  -1.507662e+06   7.791793e+05
  -1.229712e+06  -7.745713e+05
  -2.117239e+05  -1.782672e+06
   6.984973e+05  -1.368914e+06
   9.393790e+05   4.897514e+04
   5.573036e+05   1.142361e+06
  -5.547549e+04   1.031768e+06
  -5.073235e+05   1.536371e+05
  -5.656955e+05  -3.823771e+05
  -2.743660e+05  -1.662030e+05
  -2.825231e+03   1.288601e+05
  -1.214830e+05  -2.077997e+05
  -4.608633e+05  -9.034788e+05
  -3.448782e+05  -1.077850e+06
   5.388368e+05  -4.270044e+05
   1.479409e+06   4.284797e+05
   1.400038e+06   7.926477e+05
   2.117676e+05   6.543248e+05
  -9.377111e+05   4.163097e+05
  -1.002492e+06   2.410255e+05
  -2.623771e+05   2.028705e+04
   1.811501e+05  -2.124393e+05
  -9.742157e+04  -2.654313e+05
  -3.977567e+05  -1.613187e+05
   1.626751e+03  -1.382062e+05
   7.900580e+05  -1.882362e+05
   1.005855e+06   4.052812e+04
   2.312544e+05   6.497470e+05
  -9.388346e+05   1.077651e+06
  -1.561315e+06   6.548044e+05
  -1.215158e+06  -4.855939e+05
  -2.276953e+05  -1.393775e+06
   7.013035e+05  -1.304187e+06
   1.017415e+06  -4.430331e+05
   6.610762e+05   2.956071e+05
   7.607049e+04   3.466843e+05
  -1.829902e+05  -1.212207e+04
   3.591866e+04  -1.062763e+05
   3.574500e+05   3.161280e+05
   3.005094e+05   7.855870e+05
  -1.968629e+05   6.359002e+05
  -6.912322e+05  -2.010114e+05
  -6.501100e+05  -1.009558e+06
   2.239793e+04  -9.919927e+05
   8.098658e+05  -1.246900e+05
   9.723976e+05   8.106906e+05
   2.628766e+05   1.054333e+06
  -7.129025e+05   5.719463e+05
  -1.029609e+06  -1.041328e+05
  -4.497446e+05  -5.107699e+05
   2.689878e+05  -5.499975e+05
   2.672538e+05  -3.330510e+05
  -3.522311e+05  -5.011521e+04
  -6.623613e+05   2.316856e+04
  -1.055690e+05  -2.783044e+05
   8.015000e+05  -6.808724e+05
   1.129489e+06  -6.152733e+05
   6.324608e+05   8.300568e+04
  -1.006289e+05   8.034647e+05
  -4.380666e+05   7.904719e+05
  -3.043668e+05   7.846121e+04
   4.357071e+03  -5.128088e+05
   2.531064e+05  -3.651982e+05
   3.505119e+05   2.406277e+05
   2.335043e+05   5.658606e+05
  -7.765689e+04   3.263593e+05
  -3.771018e+05  -8.606187e+04
  -4.289273e+05  -2.035645e+05
  -2.350061e+05  -3.153970e+04
  -1.673087e+04   6.901821e+04
   7.788452e+04  -1.185073e+05
   1.245910e+05  -4.091183e+05
   2.434822e+05  -4.288792e+05
   3.743038e+05  -3.328441e+04
   3.163530e+05   4.877959e+05
  -2.208765e+04   6.479344e+05
  -4.482721e+05   2.580751e+05
  -5.817815e+05  -3.383426e+05
  -1.969933e+05  -5.989885e+05
   4.646649e+05  -3.413765e+05
   8.014394e+05   1.184666e+05
   4.372396e+05   3.706015e+05
  -2.868396e+05   3.156675e+05
  -5.966421e+05   1.307924e+05
  -1.665588e+05   1.317468e+03
   4.464694e+05   1.232806e+04
   4.406048e+05   1.724249e+05
  -2.521563e+05   3.503821e+05
  -8.700815e+05   2.612246e+05
