
 $NMID
 id='ANONYMOUS ', fmtdat='(2E16.6)'
 volume=1.0
 tramp=1.0
 $END
  -2.778215e+07   8.265264e+05
  -1.903845e+07  -1.284312e+07
  -3.368471e+05  -1.784753e+07
   1.195614e+07  -1.187356e+07
   1.017056e+07  -1.127732e+06
   6.479996e+05   5.076404e+06
  -5.672382e+06   2.502146e+06
  -4.281226e+06  -4.482908e+06
   1.290127e+06  -7.658233e+06
   5.210163e+06  -3.466920e+06
   4.577645e+06   3.498806e+06
   6.847467e+05   5.786259e+06
  -2.636634e+06   1.285800e+06
  -2.196836e+06  -4.734732e+06
   1.568655e+06  -5.679849e+06
   4.693519e+06  -5.988405e+05
   3.589116e+06   5.425226e+06
  -1.118417e+06   6.991229e+06
  -5.247071e+06   3.455288e+06
  -5.464825e+06  -1.432108e+06
  -2.461841e+06  -3.809994e+06
   2.374220e+05  -3.119865e+06
   9.140631e+04  -1.776594e+06
  -1.939945e+06  -2.114470e+06
  -2.460570e+06  -3.870154e+06
   6.591765e+05  -4.645820e+06
   5.484222e+06  -2.723241e+06
   7.441023e+06   8.910149e+05
   4.173956e+06   3.415074e+06
  -1.424389e+06   3.038657e+06
  -4.004865e+06   4.681941e+05
  -1.544567e+06  -1.941481e+06
   2.684601e+06  -2.145805e+06
   4.161032e+06   1.341271e+05
   2.000942e+06   3.087379e+06
  -9.286776e+05   4.009834e+06
  -1.846635e+06   1.815839e+06
  -7.419907e+05  -1.345227e+06
   5.175384e+05  -1.967879e+06
   4.931565e+05   6.837881e+05
  -7.561705e+05   3.270951e+06
  -2.046246e+06   2.281923e+06
  -1.990292e+06  -1.411496e+06
  -1.464515e+05  -3.406738e+06
   2.149222e+06  -1.192448e+06
   2.511000e+06   2.783422e+06
  -1.293189e+05   4.128132e+06
  -3.851787e+06   1.490124e+06
  -5.142698e+06  -2.431251e+06
  -2.405018e+06  -4.184079e+06
   2.154077e+06  -2.784949e+06
   4.533812e+06   9.040548e+04
   2.874946e+06   2.037806e+06
  -8.047247e+05   1.821551e+06
  -2.840312e+06   1.089114e+05
  -1.674176e+06  -1.242082e+06
   8.164478e+05  -9.311613e+05
   1.662000e+06   5.070682e+05
   1.140421e+05   1.345768e+06
  -1.696542e+06   6.072514e+05
  -1.346935e+06  -9.179186e+05
   1.041638e+06  -1.594600e+06
   2.877188e+06  -5.433865e+05
   1.910230e+06   1.667869e+06
  -1.364396e+06   3.452689e+06
  -4.249931e+06   3.238841e+06
  -4.568568e+06   6.971058e+05
  -2.588656e+06  -2.646395e+06
  -3.264267e+05  -4.463550e+06
   6.855500e+05  -3.819669e+06
   6.702816e+05  -2.078033e+06
   8.321462e+05  -1.151407e+06
   1.751762e+06  -1.166999e+06
   2.764188e+06  -6.168122e+05
   2.744231e+06   1.216229e+06
   1.271583e+06   2.904018e+06
  -9.018523e+05   2.483237e+06
  -2.320217e+06  -5.788109e+04
  -1.857865e+06  -2.554164e+06
   3.060375e+05  -2.870247e+06
   2.582590e+06  -9.125995e+05
   3.174941e+06   1.564587e+06
   1.738867e+06   2.776669e+06
  -2.644629e+05   2.378227e+06
  -1.170967e+06   1.380442e+06
  -9.686124e+05   8.970239e+05
  -1.127524e+06   1.026720e+06
  -2.500177e+06   8.909336e+05
  -3.901262e+06  -3.083825e+05
  -3.287943e+06  -2.310843e+06
  -2.621989e+05  -3.852815e+06
   3.098316e+06  -3.685287e+06
   4.168368e+06  -1.672923e+06
   2.375574e+06   9.172595e+05
  -3.207474e+05   2.275943e+06
  -1.472779e+06   1.562008e+06
  -4.682212e+05  -2.290152e+05
   1.185980e+06  -1.145941e+06
   1.653040e+06  -3.248281e+05
   6.076997e+05   1.026730e+06
  -6.674966e+05   1.076335e+06
  -7.613826e+05  -3.045883e+05
   4.575211e+05  -1.232820e+06
   1.779290e+06  -7.555444e+04
   1.774982e+06   2.430702e+06
   3.047873e+04   3.818440e+06
  -2.434683e+06   2.535368e+06
  -3.852844e+06  -4.601863e+05
  -3.097000e+06  -2.778716e+06
  -7.340409e+05  -2.933049e+06
   1.341472e+06  -1.475356e+06
   1.628494e+06  -1.079677e+05
   4.764646e+05   4.018145e+04
  -3.692969e+05  -7.028292e+05
   2.372515e+05  -1.147191e+06
   1.544173e+06  -5.693754e+05
   1.835682e+06   5.657244e+05
   5.266582e+05   1.156673e+06
  -1.044116e+06   6.494820e+05
  -1.070491e+06  -3.940702e+05
   6.582651e+05  -8.638603e+05
   2.403083e+06  -1.567723e+05
   2.239075e+06   1.272186e+06
   6.347722e+04   2.267421e+06
  -2.256699e+06   1.920010e+06
  -2.731019e+06   3.979087e+05
  -1.167159e+06  -1.071130e+06
   7.611009e+05  -1.255515e+06
   1.254476e+06  -1.599663e+05
   8.306204e+04   9.019293e+05
  -1.393846e+06   6.854538e+05
  -1.689487e+06  -6.051275e+05
  -5.736376e+05  -1.560479e+06
   8.533820e+05  -1.186301e+06
   1.287391e+06   5.781149e+03
   4.548526e+05   6.602085e+05
  -6.330666e+05   1.122795e+05
  -6.675147e+05  -9.613543e+05
   5.899708e+05  -1.335078e+06
   1.942506e+06  -4.697996e+05
   1.929716e+06   1.020560e+06
   3.987952e+05   1.952834e+06
  -1.274184e+06   1.602370e+06
  -1.624461e+06   3.202973e+05
  -5.923076e+05  -7.808181e+05
   5.706342e+05  -8.470346e+05
   7.369122e+05  -7.133375e+04
  -3.128446e+03   5.788902e+05
  -6.570739e+05   4.437230e+05
  -4.892323e+05  -1.287438e+05
   2.483102e+05  -2.575231e+05
   6.283239e+05   3.807869e+05
   9.463257e+03   1.107697e+06
  -1.250019e+06   9.428333e+05
  -2.016709e+06  -3.273367e+05
  -1.435314e+06  -1.838843e+06
   1.763196e+05  -2.400482e+06
   1.577942e+06  -1.568602e+06
   1.819225e+06  -3.614450e+04
   1.107247e+06   1.020983e+06
   3.957243e+05   1.022948e+06
   2.583038e+05   4.455773e+05
   3.686207e+05   1.987185e+05
   6.810999e+04   5.777245e+05
  -7.555720e+05   9.370364e+05
  -1.452966e+06   4.750594e+05
  -1.216947e+06  -7.320585e+05
   1.002554e+05  -1.634608e+06
   1.682303e+06  -1.224496e+06
   2.282700e+06   3.903511e+05
   1.263204e+06   1.984857e+06
  -7.507452e+05   2.307419e+06
  -2.313894e+06   1.187123e+06
  -2.399453e+06  -3.950083e+05
  -1.243335e+06  -1.281718e+06
   3.139836e+04  -1.173645e+06
   5.485219e+05  -7.285433e+05
   3.824564e+05  -7.010648e+05
   2.347682e+05  -1.074359e+06
   5.763327e+05  -1.116545e+06
   1.152606e+06  -2.818798e+05
   1.269591e+06   1.053274e+06
   5.418117e+05   1.850736e+06
  -6.156729e+05   1.408954e+06
  -1.274628e+06   5.695733e+04
  -8.683449e+05  -1.145070e+06
   2.059185e+05  -1.352609e+06
   9.515729e+05  -5.979244e+05
   7.834607e+05   3.862274e+05
   9.273561e+04   8.957104e+05
  -2.663321e+05   8.078772e+05
   2.136181e+04   5.077195e+05
   3.798566e+05   3.748707e+05
   3.301131e+04   3.947340e+05
  -1.031002e+06   2.546389e+05
  -1.895393e+06  -2.413296e+05
  -1.589619e+06  -9.022140e+05
  -1.360892e+05  -1.286167e+06
   1.353221e+06  -1.085376e+06
   1.718222e+06  -4.083152e+05
   8.791229e+05   2.687372e+05
  -1.643545e+05   4.650108e+05
  -4.453776e+05   1.236235e+05
   2.438262e+04  -2.879741e+05
   4.933176e+05  -2.195349e+05
   4.490571e+05   3.319410e+05
   1.050219e+05   7.423531e+05
  -4.122538e+04   4.738080e+05
   1.519393e+05  -1.965093e+05
   3.863563e+05  -4.139282e+05
   3.006036e+05   2.072055e+05
  -2.011991e+05   1.013993e+06
  -8.577058e+05   1.022670e+06
  -1.151213e+06   9.085133e+04
  -6.673187e+05  -8.858630e+05
   3.908402e+05  -9.778311e+05
   1.121525e+06  -2.012516e+05
   6.983067e+05   6.000696e+05
  -6.416145e+05   6.729453e+05
  -1.623674e+06   6.597265e+03
  -1.193986e+06  -7.986580e+05
   3.199271e+05  -1.101782e+06
   1.509065e+06  -6.957969e+05
   1.349344e+06   6.595639e+04
   2.138679e+05   5.403140e+05
  -6.186789e+05   3.434015e+05
  -3.340189e+05  -2.370132e+05
   6.364373e+05  -4.451899e+05
   1.145555e+06   1.785353e+05
   5.343576e+05   1.208446e+06
  -7.231451e+05   1.618331e+06
  -1.527890e+06   7.796882e+05
  -1.234205e+06  -7.962657e+05
  -1.881698e+05  -1.804342e+06
   7.312470e+05  -1.363449e+06
   9.483746e+05   7.980149e+04
   5.309155e+05   1.170233e+06
  -9.358261e+04   1.035688e+06
  -5.230672e+05   1.397445e+05
  -5.523554e+05  -3.951590e+05
  -2.591936e+05  -1.698176e+05
  -1.146001e+04   1.264140e+05
  -1.429065e+05  -2.203264e+05
  -4.607239e+05  -9.261732e+05
  -3.124870e+05  -1.096081e+06
   5.744515e+05  -4.227295e+05
   1.487980e+06   4.579927e+05
   1.387220e+06   8.278725e+05
   2.020376e+05   6.701492e+05
  -9.408149e+05   4.063550e+05
  -1.014109e+06   2.212414e+05
  -2.801949e+05   8.695895e+03
   1.805879e+05  -2.131844e+05
  -7.513926e+04  -2.635745e+05
  -3.796266e+05  -1.615593e+05
  -3.667766e+03  -1.377781e+05
   7.813348e+05  -1.836184e+05
   1.020154e+06   4.942933e+04
   2.539491e+05   6.610302e+05
  -9.465127e+05   1.087722e+06
  -1.602475e+06   6.575245e+05
  -1.247015e+06  -4.947258e+05
  -2.184532e+05  -1.410995e+06
   7.331374e+05  -1.318918e+06
   1.035670e+06  -4.480436e+05
   6.614445e+05   2.982609e+05
   8.068528e+04   3.515009e+05
  -1.669584e+05  -5.745640e+03
   4.593227e+04  -9.498151e+04
   3.496313e+05   3.323974e+05
   2.858995e+05   8.013927e+05
  -2.036318e+05   6.452570e+05
  -6.921162e+05  -2.005851e+05
  -6.548569e+05  -1.017357e+06
   1.460236e+04  -1.003978e+06
   8.083448e+05  -1.321427e+05
   9.784138e+05   8.164639e+05
   2.650216e+05   1.071042e+06
  -7.248217e+05   5.836032e+05
  -1.050371e+06  -1.121785e+05
  -4.614873e+05  -5.344798e+05
   2.785415e+05  -5.708010e+05
   2.896706e+05  -3.401968e+05
  -3.387653e+05  -5.132611e+04
  -6.667255e+05   1.697483e+04
  -1.096304e+05  -2.857822e+05
   8.214084e+05  -6.772276e+05
   1.168702e+06  -5.983102e+05
   6.584047e+05   1.030114e+05
  -1.098538e+05   8.193499e+05
  -4.677048e+05   8.043957e+05
  -3.243050e+05   9.014947e+04
   3.101464e+03  -5.114083e+05
   2.566020e+05  -3.754719e+05
   3.489971e+05   2.335253e+05
   2.318070e+05   5.754164e+05
  -7.667789e+04   3.428268e+05
  -3.807269e+05  -8.522129e+04
  -4.389467e+05  -2.213198e+05
  -2.393241e+05  -4.426202e+04
  -8.461225e+03   8.035835e+04
   8.432224e+04  -9.478025e+04
   1.118981e+05  -4.001977e+05
   2.198493e+05  -4.436401e+05
   3.660138e+05  -5.518584e+04
   3.319143e+05   4.771516e+05
  -3.846395e+03   6.498273e+05
  -4.485339e+05   2.624118e+05
  -5.940308e+05  -3.382355e+05
  -1.992580e+05  -6.020346e+05
   4.791760e+05  -3.432900e+05
   8.186625e+05   1.214243e+05
   4.431079e+05   3.796912e+05
  -2.926580e+05   3.278481e+05
  -6.080870e+05   1.400584e+05
  -1.803414e+05   3.646759e+03
   4.336724e+05   8.112451e+03
   4.352309e+05   1.639323e+05
  -2.475579e+05   3.397788e+05
  -8.621935e+05   2.515791e+05
