
 $NMID
 id='ANONYMOUS ', fmtdat='(2E16.6)'
 volume=1.0
 tramp=1.0
 $END
  -7.412443e+06   1.254240e+05
  -5.249122e+06  -3.063496e+06
  -4.179567e+05  -4.653047e+06
   3.082138e+06  -3.605311e+06
   2.947219e+06  -7.456103e+05
   3.938671e+05   1.411186e+06
  -1.621249e+06   9.771656e+05
  -1.437482e+06  -1.186059e+06
   1.969445e+05  -2.375015e+06
   1.462725e+06  -1.167375e+06
   1.323569e+06   1.013281e+06
   1.752188e+05   1.720788e+06
  -7.870443e+05   3.177206e+05
  -6.552905e+05  -1.506993e+06
   4.235855e+05  -1.778325e+06
   1.345888e+06  -2.690174e+05
   1.076642e+06   1.514341e+06
  -2.620287e+05   1.987322e+06
  -1.452023e+06   9.458604e+05
  -1.462224e+06  -4.665950e+05
  -5.399168e+05  -1.046210e+06
   1.501971e+05  -7.019311e+05
  -1.135691e+05  -3.369548e+05
  -8.226690e+05  -6.638745e+05
  -8.448713e+05  -1.362241e+06
   2.945668e+05  -1.524038e+06
   1.796380e+06  -7.516859e+05
   2.277978e+06   4.147842e+05
   1.168484e+06   1.093426e+06
  -5.737535e+05   8.619872e+05
  -1.314491e+06   8.807701e+03
  -4.356219e+05  -7.462660e+05
   9.969585e+05  -7.429458e+05
   1.448537e+06   1.055092e+05
   6.156202e+05   1.103403e+06
  -4.171456e+05   1.295133e+06
  -6.124191e+05   4.621082e+05
  -9.374122e+04  -5.092293e+05
   3.038509e+05  -5.413196e+05
   1.397369e+05   3.684464e+05
  -3.269234e+05   1.097588e+06
  -6.539828e+05   7.226893e+05
  -6.086182e+05  -3.714196e+05
  -1.664046e+05  -9.515975e+05
   4.378855e+05  -3.803290e+05
   6.488719e+05   6.882865e+05
   2.858049e+04   1.090651e+06
  -1.057969e+06   4.044401e+05
  -1.546291e+06  -7.088873e+05
  -7.803018e+05  -1.266425e+06
   6.418353e+05  -8.899294e+05
   1.424777e+06  -1.995633e+04
   9.404849e+05   5.978803e+05
  -1.834265e+05   5.628750e+05
  -8.258778e+05   7.317160e+04
  -5.176926e+05  -3.313200e+05
   2.204583e+05  -2.714703e+05
   5.296040e+05   1.462579e+05
   1.072667e+05   4.592245e+05
  -5.090430e+05   3.150976e+05
  -5.371435e+05  -1.663228e+05
   1.496650e+05  -4.909275e+05
   7.996393e+05  -2.606826e+05
   5.834490e+05   4.246431e+05
  -4.401771e+05   1.006796e+06
  -1.353691e+06   9.297895e+05
  -1.391779e+06   1.366350e+05
  -7.089740e+05  -8.447806e+05
  -4.136062e+04  -1.350736e+06
   1.823531e+05  -1.177313e+06
   1.701063e+05  -7.140563e+05
   3.131895e+05  -4.438881e+05
   6.719222e+05  -3.759580e+05
   9.613539e+05  -1.163679e+05
   8.748766e+05   4.915756e+05
   3.498611e+05   1.000509e+06
  -3.590340e+05   8.150537e+05
  -7.915362e+05  -4.847138e+04
  -5.932036e+05  -8.637177e+05
   1.350379e+05  -9.216045e+05
   8.303552e+05  -2.365771e+05
   9.436994e+05   5.475850e+05
   4.610625e+05   8.547281e+05
  -1.143678e+05   6.644065e+05
  -3.267443e+05   3.638953e+05
  -2.490104e+05   2.696149e+05
  -3.317829e+05   3.429696e+05
  -7.886169e+05   2.939363e+05
  -1.232753e+06  -1.002546e+05
  -1.035340e+06  -7.425602e+05
  -6.663821e+04  -1.230382e+06
   1.018538e+06  -1.157417e+06
   1.356594e+06  -4.876916e+05
   7.454186e+05   3.395022e+05
  -1.517649e+05   7.350708e+05
  -5.066704e+05   4.739475e+05
  -1.444796e+05  -8.777971e+04
   3.958064e+05  -3.530644e+05
   5.216010e+05  -8.992406e+04
   1.719104e+05   3.255211e+05
  -2.309137e+05   3.411173e+05
  -2.625139e+05  -9.833377e+04
   1.213899e+05  -4.248885e+05
   5.701780e+05  -8.923670e+04
   6.201658e+05   7.368675e+05
   7.589157e+04   1.255445e+06
  -7.626831e+05   8.822327e+05
  -1.271143e+06  -1.184264e+05
  -1.027824e+06  -9.181380e+05
  -2.336596e+05  -9.696656e+05
   4.483134e+05  -4.680467e+05
   5.292188e+05  -1.741211e+04
   1.525931e+05   1.578653e+04
  -1.152622e+05  -2.263650e+05
   7.396232e+04  -3.576134e+05
   4.813215e+05  -1.731785e+05
   5.774330e+05   1.761145e+05
   1.705980e+05   3.618389e+05
  -3.337068e+05   2.073914e+05
  -3.532656e+05  -1.303676e+05
   2.068539e+05  -2.940241e+05
   7.889169e+05  -6.240692e+04
   7.425264e+05   4.199743e+05
   2.378327e+04   7.489243e+05
  -7.375681e+05   6.201507e+05
  -8.813540e+05   1.178247e+05
  -3.668006e+05  -3.420859e+05
   2.447048e+05  -3.860624e+05
   3.883435e+05  -4.174167e+04
   1.421363e+04   2.813336e+05
  -4.470683e+05   2.091969e+05
  -5.395151e+05  -1.959532e+05
  -1.886687e+05  -5.018503e+05
   2.691526e+05  -3.893787e+05
   4.170633e+05  -7.623516e+03
   1.547015e+05   2.088651e+05
  -1.953679e+05   3.552321e+04
  -2.050646e+05  -3.090026e+05
   1.997552e+05  -4.215994e+05
   6.258466e+05  -1.346676e+05
   6.097052e+05   3.400654e+05
   1.168240e+05   6.254949e+05
  -4.118378e+05   5.063133e+05
  -5.202719e+05   9.920593e+04
  -1.913565e+05  -2.506411e+05
   1.843899e+05  -2.721861e+05
   2.442607e+05  -1.805988e+04
   2.125232e+03   1.993522e+05
  -2.243172e+05   1.526307e+05
  -1.782919e+05  -4.820940e+04
   7.003010e+04  -1.007844e+05
   2.065268e+05   1.099653e+05
   8.397109e+03   3.526992e+05
  -4.016441e+05   2.987478e+05
  -6.446354e+05  -1.136588e+05
  -4.493059e+05  -5.964522e+05
   7.017450e+04  -7.720984e+05
   5.171088e+05  -5.049309e+05
   5.947250e+05  -9.313550e+03
   3.651922e+05   3.438662e+05
   1.256624e+05   3.542745e+05
   6.770592e+04   1.586984e+05
   1.024942e+05   5.989719e+04
   1.676886e+04   1.759325e+05
  -2.428404e+05   2.994104e+05
  -4.720500e+05   1.525265e+05
  -3.975564e+05  -2.446475e+05
   3.421307e+04  -5.368585e+05
   5.483421e+05  -3.929373e+05
   7.358969e+05   1.353393e+05
   4.022007e+05   6.417821e+05
  -2.420323e+05   7.360750e+05
  -7.408212e+05   3.770450e+05
  -7.743844e+05  -1.275348e+05
  -4.096615e+05  -4.182092e+05
   7.465819e+03  -3.917729e+05
   1.909914e+05  -2.443059e+05
   1.458001e+05  -2.207186e+05
   9.052557e+04  -3.315181e+05
   1.877776e+05  -3.463852e+05
   3.654572e+05  -8.122004e+04
   3.987219e+05   3.465628e+05
   1.618104e+05   5.980911e+05
  -2.074967e+05   4.488994e+05
  -4.109544e+05   1.355058e+04
  -2.759549e+05  -3.669472e+05
   6.441559e+04  -4.324589e+05
   2.984462e+05  -1.979749e+05
   2.485382e+05   1.114255e+05
   3.672990e+04   2.789493e+05
  -7.527563e+04   2.603574e+05
   9.876956e+03   1.693427e+05
   1.169209e+05   1.257925e+05
   6.436340e+03   1.282524e+05
  -3.273465e+05   7.796501e+04
  -5.999795e+05  -8.499337e+04
  -5.052768e+05  -2.935635e+05
  -4.574406e+04  -4.069912e+05
   4.297574e+05  -3.379644e+05
   5.503097e+05  -1.281941e+05
   2.845201e+05   7.908388e+04
  -5.038920e+04   1.427479e+05
  -1.405458e+05   4.226397e+04
   1.312892e+04  -8.486273e+04
   1.636820e+05  -6.524312e+04
   1.407340e+05   1.095262e+05
   2.004817e+04   2.414581e+05
  -2.468403e+04   1.523464e+05
   5.116450e+04  -6.848363e+04
   1.337440e+05  -1.383115e+05
   9.706565e+04   6.731094e+04
  -7.526525e+04   3.274676e+05
  -2.810307e+05   3.215916e+05
  -3.593339e+05   1.644918e+04
  -1.982096e+05  -2.886237e+05
   1.312414e+05  -3.030964e+05
   3.550249e+05  -4.910171e+04
   2.191501e+05   1.999624e+05
  -2.078197e+05   2.143284e+05
  -5.260556e+05  -2.396155e+03
  -3.913946e+05  -2.615953e+05
   1.004717e+05  -3.601863e+05
   4.920632e+05  -2.277847e+05
   4.420043e+05   2.250931e+04
   7.032845e+04   1.773211e+05
  -1.999553e+05   1.112581e+05
  -1.030600e+05  -7.518132e+04
   2.115511e+05  -1.345770e+05
   3.660839e+05   7.146000e+04
   1.556342e+05   3.952919e+05
  -2.527643e+05   5.119561e+05
  -5.010905e+05   2.344479e+05
  -3.913742e+05  -2.677828e+05
  -4.749215e+04  -5.841795e+05
   2.445367e+05  -4.392496e+05
   3.068029e+05   2.600417e+04
   1.696904e+05   3.796530e+05
  -2.907448e+04   3.376532e+05
  -1.671303e+05   4.509034e+04
  -1.810628e+05  -1.322867e+05
  -8.865391e+04  -5.855410e+04
  -2.139270e+03   4.269226e+04
  -3.571154e+04  -6.728657e+04
  -1.391389e+05  -2.993509e+05
  -1.012556e+05  -3.567850e+05
   1.790796e+05  -1.341818e+05
   4.777392e+05   1.574363e+05
   4.488374e+05   2.758850e+05
   6.168402e+04   2.156942e+05
  -3.120516e+05   1.238310e+05
  -3.305998e+05   6.700211e+04
  -8.508430e+04   4.897641e+03
   6.205720e+04  -6.673455e+04
  -2.981015e+04  -8.934734e+04
  -1.290210e+05  -5.911718e+04
   2.908489e+03  -4.479816e+04
   2.613593e+05  -5.036496e+04
   3.269695e+05   2.564235e+04
   6.523706e+04   2.130524e+05
  -3.200919e+05   3.382505e+05
  -5.150463e+05   1.940835e+05
  -3.877043e+05  -1.728006e+05
  -5.668217e+04  -4.570625e+05
   2.435144e+05  -4.163859e+05
   3.363547e+05  -1.310516e+05
   2.117148e+05   1.053729e+05
   1.990496e+04   1.135162e+05
  -6.048816e+04  -7.893488e+03
   1.299836e+04  -3.564344e+04
   1.137798e+05   1.072060e+05
   8.923685e+04   2.600037e+05
  -7.196129e+04   2.043786e+05
  -2.226628e+05  -7.513405e+04
  -1.982049e+05  -3.375201e+05
   2.101076e+04  -3.219860e+05
   2.657087e+05  -2.879139e+04
   3.059077e+05   2.772035e+05
   7.191632e+04   3.462065e+05
  -2.389435e+05   1.764591e+05
  -3.332738e+05  -4.645235e+04
  -1.400153e+05  -1.703184e+05
   9.347012e+04  -1.745601e+05
   8.958908e+04  -1.056185e+05
  -1.154144e+05  -2.188001e+04
  -2.164375e+05  -8.809926e+02
  -3.066778e+04  -9.144834e+04
   2.695484e+05  -2.124631e+05
   3.748261e+05  -1.886561e+05
   2.042193e+05   3.279864e+04
  -4.234157e+04   2.600036e+05
  -1.507241e+05   2.523640e+05
  -9.814551e+04   2.152369e+04
   8.706672e+03  -1.673227e+05
   8.680715e+04  -1.150148e+05
   1.107773e+05   8.403925e+04
   6.901642e+04   1.871970e+05
  -2.903945e+04   1.040262e+05
  -1.215208e+05  -3.317312e+04
  -1.373048e+05  -7.037213e+04
  -7.659580e+04  -1.227865e+04
  -6.465851e+03   2.091125e+04
   2.783225e+04  -3.987333e+04
   4.784011e+04  -1.318041e+05
   8.650333e+04  -1.340842e+05
   1.220783e+05  -3.444461e+03
   9.462788e+04   1.635698e+05
  -1.756279e+04   2.099710e+05
  -1.495934e+05   7.766281e+04
  -1.841499e+05  -1.178040e+05
  -5.596230e+04  -1.978107e+05
   1.550684e+05  -1.055931e+05
   2.586355e+05   4.857405e+04
   1.375639e+05   1.259249e+05
  -9.682808e+04   9.836428e+04
  -1.950671e+05   3.429471e+04
  -5.312805e+04  -1.312790e+03
   1.463234e+05   1.124053e+04
   1.413635e+05   6.334483e+04
  -8.808197e+04   1.114544e+05
  -2.887037e+05   7.354780e+04
