
 $NMID
 id='ANONYMOUS ', fmtdat='(2E16.6)'
 volume=1.0
 tramp=1.0
 $END
  -5.604300e+07   9.129754e+05
  -3.435797e+07  -3.395795e+07
   6.615013e+06  -3.798721e+07
   2.713184e+07  -1.523584e+07
   1.660105e+07   6.480701e+06
  -3.031621e+06   9.353731e+06
  -9.837425e+06  -9.036277e+05
  -3.065053e+06  -9.656268e+06
   5.928796e+06  -9.542570e+06
   9.589458e+06  -2.265000e+06
   7.112321e+06   6.081284e+06
   9.628311e+05   8.622828e+06
  -3.962301e+06   2.789180e+06
  -2.752213e+06  -5.476706e+06
   3.626543e+06  -6.699089e+06
   7.893594e+06   1.141451e+06
   4.652802e+06   1.010142e+07
  -3.535386e+06   1.185501e+07
  -9.970308e+06   6.065234e+06
  -1.079370e+07  -1.887995e+06
  -6.669770e+06  -7.348992e+06
  -7.992794e+05  -8.537586e+06
   2.733308e+06  -6.008584e+06
   1.655924e+06  -2.747614e+06
  -1.238620e+06  -2.268395e+06
  -2.864047e+05  -4.284441e+06
   5.448071e+06  -4.496096e+06
   9.745870e+06  -5.981207e+05
   7.115953e+06   4.063929e+06
   2.536732e+05   5.064514e+06
  -3.773417e+06   2.582831e+06
  -2.483570e+06  -4.582162e+04
   7.092940e+05  -1.037646e+06
   2.420743e+06  -5.131890e+05
   2.261973e+06   1.510671e+06
   6.938001e+05   4.010564e+06
  -1.778878e+06   3.861814e+06
  -3.175016e+06  -1.190718e+05
  -1.690859e+06  -3.600997e+06
   7.491196e+05  -1.841977e+06
   3.367778e+05   2.551346e+06
  -2.452805e+06   2.396277e+06
  -2.528377e+06  -3.129249e+06
   2.244776e+06  -6.160843e+06
   6.828175e+06  -1.156753e+06
   5.202422e+06   6.776078e+06
  -1.722087e+06   8.510612e+06
  -7.361010e+06   2.540896e+06
  -7.081897e+06  -4.329025e+06
  -2.015233e+06  -6.039319e+06
   3.441082e+06  -2.833446e+06
   5.365983e+06   1.400085e+06
   2.560382e+06   3.450756e+06
  -2.350256e+06   2.264417e+06
  -4.553675e+06  -8.174283e+05
  -2.021683e+06  -2.671611e+06
   1.687133e+06  -1.404539e+06
   1.792744e+06   9.954528e+05
  -1.259056e+06   9.854760e+05
  -2.520106e+06  -1.622957e+06
   4.646898e+05  -3.389659e+06
   4.503170e+06  -2.004398e+06
   5.310896e+06   1.194789e+06
   2.413013e+06   3.902331e+06
  -1.735627e+06   5.316933e+06
  -5.006012e+06   4.950415e+06
  -6.222309e+06   1.830781e+06
  -4.631753e+06  -3.130126e+06
  -1.032554e+06  -6.209760e+06
   1.763735e+06  -4.862390e+06
   1.724874e+06  -1.327979e+06
   2.095525e+05   1.756730e+05
   5.506905e+04  -1.016562e+06
   1.682371e+06  -1.798042e+06
   2.881900e+06  -2.113455e+05
   2.073921e+06   2.005098e+06
   1.006046e+04   2.224893e+06
  -1.638156e+06   2.232638e+05
  -1.770995e+06  -2.133850e+06
  -3.470807e+04  -3.013256e+06
   2.804170e+06  -1.703913e+06
   4.537502e+06   1.169067e+06
   3.285373e+06   3.749405e+06
   1.963452e+04   4.235234e+06
  -2.228888e+06   2.752115e+06
  -2.202397e+06   1.191697e+06
  -1.833591e+06   7.511054e+05
  -2.994494e+06   5.629327e+05
  -4.462099e+06  -6.897061e+05
  -3.620221e+06  -2.768071e+06
  -2.048849e+05  -4.233618e+06
   3.236507e+06  -4.055930e+06
   4.265992e+06  -2.226347e+06
   2.728812e+06   4.181126e+05
   2.882357e+05   2.301117e+06
  -1.123092e+06   1.991198e+06
  -5.766837e+05  -3.853460e+04
   1.107349e+06  -1.359206e+06
   1.948490e+06  -4.364797e+05
   9.534969e+05   1.220198e+06
  -5.251071e+05   1.155096e+06
  -4.643893e+05  -3.927855e+05
   1.061454e+06  -7.622696e+05
   1.932555e+06   1.234171e+06
   7.728486e+05   3.535226e+06
  -1.514104e+06   3.560522e+06
  -3.189227e+06   1.260300e+06
  -3.457138e+06  -1.396016e+06
  -2.421740e+06  -2.814714e+06
  -5.171808e+05  -2.699840e+06
   1.262976e+06  -1.529108e+06
   1.627028e+06  -2.532507e+05
   5.088055e+05   4.000694e+04
  -3.813573e+05  -7.704689e+05
   4.016146e+05  -1.385060e+06
   1.949941e+06  -6.252658e+05
   2.107871e+06   8.775121e+05
   4.227050e+05   1.450834e+06
  -1.200523e+06   6.094755e+05
  -9.316895e+05  -4.580676e+05
   8.657851e+05  -5.612855e+05
   2.266518e+06   2.868481e+05
   1.836315e+06   1.377116e+06
  -2.217304e+05   2.049840e+06
  -2.362043e+06   1.748926e+06
  -2.861864e+06   3.244151e+05
  -1.274512e+06  -1.285759e+06
   9.243807e+05  -1.558994e+06
   1.601622e+06  -2.176458e+05
   2.200663e+05   1.109651e+06
  -1.555300e+06   7.821404e+05
  -1.787664e+06  -7.810398e+05
  -3.764736e+05  -1.703227e+06
   1.112184e+06  -1.029813e+06
   1.306258e+06   3.003422e+05
   2.686362e+05   8.040611e+05
  -8.211209e+05   6.938785e+04
  -7.765925e+05  -1.078006e+06
   5.753763e+05  -1.480776e+06
   2.068347e+06  -5.896162e+05
   2.119577e+06   1.056456e+06
   4.269817e+05   2.139200e+06
  -1.464248e+06   1.719416e+06
  -1.781678e+06   2.427545e+05
  -5.324879e+05  -8.912892e+05
   6.699828e+05  -8.409611e+05
   6.561888e+05  -8.691472e+04
  -1.168263e+05   3.790792e+05
  -5.092691e+05   2.260192e+05
  -1.337297e+05  -6.829672e+04
   4.622029e+05   6.704534e+04
   5.472633e+05   6.833876e+05
  -1.937376e+05   1.229869e+06
  -1.415458e+06   9.463763e+05
  -2.158401e+06  -3.976393e+05
  -1.542924e+06  -1.987991e+06
   1.890624e+05  -2.506687e+06
   1.650279e+06  -1.485329e+06
   1.750807e+06   1.051759e+05
   9.017994e+05   9.171441e+05
   3.369278e+05   6.746018e+05
   4.927295e+05   2.223050e+05
   6.496504e+05   3.124925e+05
   1.053340e+05   7.861477e+05
  -8.916451e+05   9.444910e+05
  -1.492990e+06   3.579561e+05
  -1.097076e+06  -7.322534e+05
   2.368103e+05  -1.514809e+06
   1.765033e+06  -1.134936e+06
   2.331708e+06   4.671321e+05
   1.203459e+06   2.154799e+06
  -1.008104e+06   2.460733e+06
  -2.612746e+06   1.104318e+06
  -2.441153e+06  -6.465657e+05
  -1.009801e+06  -1.371192e+06
   1.989423e+05  -9.832979e+05
   3.973399e+05  -5.345728e+05
   7.272960e+04  -7.784712e+05
   8.841160e+04  -1.350177e+06
   6.730722e+05  -1.340673e+06
   1.331605e+06  -3.485577e+05
   1.398681e+06   1.096741e+06
   6.038665e+05   1.950261e+06
  -6.215276e+05   1.495079e+06
  -1.329430e+06   1.682764e+04
  -8.592421e+05  -1.314528e+06
   3.823020e+05  -1.449336e+06
   1.195549e+06  -4.378186e+05
   8.494896e+05   7.073207e+05
  -1.099731e+05   1.113454e+06
  -5.420646e+05   8.173891e+05
  -8.180232e+04   4.319884e+05
   4.528572e+05   3.402449e+05
   6.784342e+04   3.951630e+05
  -1.184105e+06   2.348601e+05
  -2.137790e+06  -3.116897e+05
  -1.687868e+06  -1.047242e+06
   1.706775e+04  -1.484632e+06
   1.625640e+06  -1.203995e+06
   1.889821e+06  -3.146639e+05
   8.699386e+05   4.989336e+05
  -2.609889e+05   5.927064e+05
  -5.288495e+05   4.263605e+04
  -3.914869e+04  -4.350503e+05
   4.529915e+05  -2.743145e+05
   5.036351e+05   3.455026e+05
   2.754956e+05   7.421940e+05
   1.088547e+05   4.931989e+05
   1.405672e+05  -9.877977e+04
   2.830524e+05  -3.047338e+05
   2.882634e+05   2.360472e+05
  -1.289170e+05   1.021148e+06
  -9.122832e+05   1.117793e+06
  -1.408368e+06   2.066004e+05
  -9.001135e+05  -9.305106e+05
   4.094764e+05  -1.188290e+06
   1.296663e+06  -3.742017e+05
   7.690224e+05   5.786773e+05
  -7.167414e+05   6.812013e+05
  -1.642378e+06  -7.671290e+04
  -1.047817e+06  -8.788765e+05
   4.902188e+05  -1.027028e+06
   1.541915e+06  -5.112437e+05
   1.273885e+06   1.826415e+05
   1.438364e+05   5.286916e+05
  -6.687285e+05   2.859790e+05
  -4.048097e+05  -2.998477e+05
   5.925905e+05  -5.543033e+05
   1.226491e+06   5.610106e+04
   7.244158e+05   1.206366e+06
  -5.683254e+05   1.776929e+06
  -1.514047e+06   9.517605e+05
  -1.315295e+06  -7.562666e+05
  -2.451412e+05  -1.848650e+06
   7.426014e+05  -1.348225e+06
   9.594487e+05   1.727329e+05
   4.606837e+05   1.227425e+06
  -2.199895e+05   1.002008e+06
  -5.836264e+05   9.301187e+04
  -4.817388e+05  -3.808923e+05
  -1.630665e+05  -1.368893e+05
  -5.209173e+04   9.693360e+04
  -3.081769e+05  -3.062512e+05
  -5.506627e+05  -9.934157e+05
  -2.063162e+05  -1.111232e+06
   7.455166e+05  -4.204212e+05
   1.533761e+06   4.531574e+05
   1.329814e+06   8.423584e+05
   2.035183e+05   7.221893e+05
  -8.646055e+05   4.519818e+05
  -1.011507e+06   2.037103e+05
  -3.840620e+05  -5.426090e+04
   1.417014e+05  -2.377394e+05
   4.660739e+04  -2.064860e+05
  -2.612996e+05  -8.435246e+04
  -6.140839e+04  -1.358525e+05
   6.634730e+05  -2.651053e+05
   1.086953e+06  -1.695076e+04
   4.883434e+05   7.098520e+05
  -8.289363e+05   1.250123e+06
  -1.755042e+06   8.366013e+05
  -1.494037e+06  -4.033461e+05
  -3.258883e+05  -1.447793e+06
   7.665985e+05  -1.450363e+06
   1.075194e+06  -5.957374e+05
   6.825256e+05   2.146595e+05
   1.554404e+05   3.685369e+05
  -5.543894e+04   8.130877e+04
   8.980366e+04  -6.967428e+03
   3.118857e+05   3.796911e+05
   2.685060e+05   8.321970e+05
  -1.648225e+05   7.128827e+05
  -7.055267e+05  -9.454254e+04
  -8.029357e+05  -9.537251e+05
  -1.696723e+05  -1.068328e+06
   7.616032e+05  -2.967398e+05
   1.099087e+06   7.003279e+05
   4.045635e+05   1.121047e+06
  -7.172330e+05   7.372498e+05
  -1.171910e+06  -4.056969e+04
  -5.798034e+05  -6.342633e+05
   2.801700e+05  -7.297565e+05
   4.001355e+05  -3.965011e+05
  -2.379015e+05   4.438646e+03
  -6.673846e+05   6.172246e+04
  -1.671550e+05  -3.189423e+05
   8.375270e+05  -7.236991e+05
   1.307660e+06  -5.800600e+05
   8.146047e+05   1.780389e+05
  -7.406666e+04   9.117673e+05
  -5.657987e+05   9.112027e+05
  -4.561827e+05   1.942265e+05
  -7.969258e+04  -4.870192e+05
   2.316864e+05  -4.690824e+05
   3.679641e+05   1.245719e+05
   2.830311e+05   5.906076e+05
  -3.712825e+04   4.611268e+05
  -4.074487e+05  -2.684331e+04
  -5.079283e+05  -2.899137e+05
  -2.545971e+05  -1.044390e+05
   4.947678e+04   1.689581e+05
   8.780474e+04   7.240406e+04
  -4.838654e+04  -3.538878e+05
  -1.622233e+03  -5.919046e+05
   3.118692e+05  -2.701974e+05
   5.113217e+05   3.566478e+05
   2.157941e+05   6.634609e+05
  -4.039224e+05   3.480182e+05
  -7.103103e+05  -2.564308e+05
  -2.907411e+05  -5.790258e+05
   5.209547e+05  -3.976430e+05
   9.292577e+05   4.213954e+04
   5.143885e+05   3.763614e+05
  -2.920872e+05   4.390466e+05
  -6.608358e+05   2.746767e+05
  -2.747545e+05   3.025097e+04
   3.347295e+05  -9.750196e+04
   4.157316e+05   3.097198e+04
  -1.473381e+05   2.935787e+05
  -7.325629e+05   3.053360e+05
