
 $NMID
 id='ANONYMOUS ', fmtdat='(2E16.6)'
 volume=1.0
 tramp=1.0
 $END
   2.295793e+07   2.242356e+05
   1.432248e+07   1.219511e+07
  -1.481548e+06   1.469608e+07
  -1.025585e+07   7.969358e+06
  -7.384342e+06  -5.332117e+05
   2.519410e+05  -3.897952e+06
   4.237496e+06  -1.098751e+06
   2.548026e+06   3.650565e+06
  -1.488260e+06   5.249555e+06
  -4.038859e+06   2.047582e+06
  -3.424185e+06  -2.794459e+06
  -4.798225e+05  -4.350941e+06
   2.058289e+06  -1.094753e+06
   1.669043e+06   3.285270e+06
  -1.271609e+06   3.913043e+06
  -3.531338e+06   8.177069e+04
  -2.446047e+06  -4.321698e+06
   1.222620e+06  -5.312633e+06
   4.300830e+06  -2.562721e+06
   4.480642e+06   1.204232e+06
   2.184334e+06   3.271918e+06
  -2.278618e+05   2.986867e+06
  -6.664017e+05   1.697111e+06
   7.512171e+05   1.258747e+06
   1.642582e+06   2.203499e+06
  -1.483392e+05   3.123491e+06
  -3.692683e+06   2.254250e+06
  -5.463543e+06  -2.918875e+05
  -3.327576e+06  -2.457107e+06
   7.258154e+05  -2.512542e+06
   2.773882e+06  -7.824691e+05
   1.353426e+06   1.018986e+06
  -1.377806e+06   1.454088e+06
  -2.561679e+06   2.100817e+05
  -1.532036e+06  -1.803497e+06
   2.964438e+05  -2.807648e+06
   1.311505e+06  -1.571897e+06
   9.782105e+05   8.474884e+05
  -4.611749e+04   1.717720e+06
  -5.254608e+05  -6.924639e+04
   2.135963e+05  -2.161940e+06
   1.379944e+06  -1.572858e+06
   1.364171e+06   1.198703e+06
  -3.230689e+05   2.584066e+06
  -2.126982e+06   6.042222e+05
  -1.965627e+06  -2.553578e+06
   4.451002e+05  -3.356260e+06
   3.132461e+06  -1.077598e+06
   3.709129e+06   1.882556e+06
   1.562778e+06   3.005049e+06
  -1.578970e+06   1.868344e+06
  -3.108264e+06  -1.896371e+05
  -1.854140e+06  -1.511223e+06
   7.699845e+05  -1.249422e+06
   2.134256e+06   8.787883e+04
   1.138109e+06   1.049815e+06
  -6.901478e+05   6.876615e+05
  -1.130226e+06  -3.863805e+05
   8.303523e+04  -7.861460e+05
   1.141125e+06  -6.504557e+04
   5.264887e+05   8.758501e+05
  -1.207852e+06   9.800372e+05
  -2.194690e+06   3.643510e+04
  -1.276707e+06  -1.439889e+06
   9.877931e+05  -2.603132e+06
   2.973606e+06  -2.485482e+06
   3.354310e+06  -6.608270e+05
   2.084282e+06   1.894561e+06
   3.392341e+05   3.293769e+06
  -5.961944e+05   2.681212e+06
  -5.300813e+05   1.227618e+06
  -3.628891e+05   6.051332e+05
  -8.646133e+05   8.867724e+05
  -1.723119e+06   7.309586e+05
  -1.969224e+06  -5.228534e+05
  -1.107289e+06  -1.820407e+06
   3.841231e+05  -1.708471e+06
   1.476101e+06  -1.085701e+05
   1.330938e+06   1.598432e+06
  -8.529479e+04   1.980806e+06
  -1.789800e+06   7.915817e+05
  -2.400779e+06  -9.832580e+05
  -1.416169e+06  -2.053627e+06
   1.800140e+05  -1.899503e+06
   9.884003e+05  -1.100333e+06
   8.294675e+05  -5.955524e+05
   8.187327e+05  -6.326680e+05
   1.704791e+06  -5.857847e+05
   2.680494e+06   1.919902e+05
   2.285079e+06   1.549703e+06
   2.484373e+05   2.628620e+06
  -2.017064e+06   2.597527e+06
  -2.795380e+06   1.307937e+06
  -1.703222e+06  -4.968494e+05
   6.120368e+04  -1.574585e+06
   9.233038e+05  -1.174921e+06
   3.567352e+05   1.186182e+05
  -7.636852e+05   8.436244e+05
  -1.159628e+06   2.676441e+05
  -4.830275e+05  -7.260989e+05
   4.065252e+05  -7.706800e+05
   4.789703e+05   1.769758e+05
  -3.348101e+05   7.416316e+05
  -1.143443e+06  -1.002690e+05
  -1.042023e+06  -1.693855e+06
   1.016455e+05  -2.438095e+06
   1.610832e+06  -1.527506e+06
   2.479985e+06   3.338987e+05
   2.040193e+06   1.754566e+06
   5.469026e+05   1.898936e+06
  -8.528827e+05   1.032982e+06
  -1.098953e+06   1.336318e+05
  -3.260157e+05  -1.888914e+04
   2.679609e+05   4.719594e+05
  -1.624328e+05   8.063156e+05
  -1.086778e+06   4.148203e+05
  -1.278834e+06  -3.914007e+05
  -3.604417e+05  -8.075371e+05
   7.037247e+05  -4.600189e+05
   7.114714e+05   2.303011e+05
  -4.228882e+05   5.398019e+05
  -1.555421e+06   1.144894e+05
  -1.467587e+06  -7.826335e+05
  -7.401123e+04  -1.468526e+06
   1.467622e+06  -1.315737e+06
   1.838539e+06  -3.194671e+05
   8.178585e+05   7.300458e+05
  -5.200514e+05   9.037924e+05
  -8.981370e+05   1.312520e+05
  -9.345858e+04  -6.452604e+05
   9.466503e+05  -5.071402e+05
   1.158262e+06   3.921331e+05
   3.913071e+05   1.046469e+06
  -5.733959e+05   7.867132e+05
  -8.571606e+05  -1.226691e+04
  -2.948638e+05  -4.459087e+05
   4.431300e+05  -8.456498e+04
   4.858816e+05   6.410647e+05
  -3.581747e+05   9.294325e+05
  -1.308718e+06   3.793051e+05
  -1.345555e+06  -6.459927e+05
  -3.137698e+05  -1.328128e+06
   8.485642e+05  -1.116521e+06
   1.105254e+06  -2.359158e+05
   4.075974e+05   5.269935e+05
  -3.747796e+05   5.836808e+05
  -4.867231e+05   7.823848e+04
  -1.544969e+04  -3.525412e+05
   3.890541e+05  -2.948836e+05
   2.822368e+05   3.901952e+04
  -1.676705e+05   1.159890e+05
  -3.964640e+05  -2.768012e+05
   2.403728e+03  -7.433443e+05
   8.340508e+05  -6.524827e+05
   1.373242e+06   1.837865e+05
   1.015691e+06   1.220378e+06
  -6.482371e+04   1.627945e+06
  -1.025118e+06   1.076461e+06
  -1.201841e+06   5.217104e+04
  -7.426498e+05  -6.339148e+05
  -2.987929e+05  -6.251686e+05
  -2.272310e+05  -2.731989e+05
  -2.824990e+05  -1.536972e+05
  -5.065316e+04  -4.130845e+05
   5.019467e+05  -6.345342e+05
   9.543769e+05  -3.319952e+05
   8.094804e+05   4.514615e+05
  -3.980665e+04   1.067457e+06
  -1.098201e+06   8.423268e+05
  -1.538516e+06  -2.156026e+05
  -8.808635e+05  -1.315870e+06
   4.853282e+05  -1.573194e+06
   1.557073e+06  -8.288513e+05
   1.612154e+06   2.403079e+05
   8.300054e+05   8.281115e+05
  -3.817345e+03   7.522398e+05
  -3.173038e+05   4.829055e+05
  -1.993661e+05   5.070206e+05
  -1.248322e+05   7.731139e+05
  -3.838483e+05   7.898753e+05
  -7.941069e+05   2.185439e+05
  -8.941123e+05  -6.860754e+05
  -4.149819e+05  -1.243894e+06
   3.813410e+05  -9.730573e+05
   8.589745e+05  -6.421941e+04
   6.022319e+05   7.671222e+05
  -1.320887e+05   9.161031e+05
  -6.469579e+05   3.911522e+05
  -5.265264e+05  -2.852685e+05
  -4.633654e+04  -6.162616e+05
   1.945081e+05  -5.351959e+05
  -1.741367e+04  -3.251776e+05
  -2.736690e+05  -2.414070e+05
  -3.498728e+04  -2.644903e+05
   7.027747e+05  -1.842949e+05
   1.302458e+06   1.361659e+05
   1.093431e+06   5.876983e+05
   9.518427e+04   8.763077e+05
  -9.207388e+05   7.640605e+05
  -1.160395e+06   2.968981e+05
  -5.839781e+05  -1.873506e+05
   1.180665e+05  -3.271455e+05
   3.016685e+05  -7.844006e+04
  -1.096970e+04   2.158318e+05
  -3.248204e+05   1.669089e+05
  -3.150794e+05  -2.177210e+05
  -1.094474e+05  -5.045925e+05
  -2.287059e+03  -3.297038e+05
  -9.005686e+04   1.219261e+05
  -2.270186e+05   2.778395e+05
  -2.002251e+05  -1.321638e+05
   1.009633e+05  -6.857710e+05
   5.583833e+05  -7.145443e+05
   8.056279e+05  -9.182933e+04
   4.964441e+05   5.937919e+05
  -2.504314e+05   6.906009e+05
  -7.780548e+05   1.752493e+05
  -4.928464e+05  -3.864334e+05
   4.242896e+05  -4.637771e+05
   1.086465e+06  -3.192431e+04
   7.962018e+05   5.086489e+05
  -2.059800e+05   7.270422e+05
  -9.886292e+05   4.778500e+05
  -8.898807e+05  -2.131355e+04
  -1.486495e+05  -3.516503e+05
   4.094945e+05  -2.367411e+05
   2.365813e+05   1.613737e+05
  -4.145305e+05   3.311813e+05
  -7.892753e+05  -7.850781e+04
  -4.134289e+05  -8.064301e+05
   4.333359e+05  -1.132047e+06
   1.013254e+06  -5.833602e+05
   8.600074e+05   5.033349e+05
   1.753149e+05   1.214381e+06
  -4.573169e+05   9.297522e+05
  -6.340494e+05  -4.216364e+04
  -3.734744e+05  -7.743090e+05
   4.984303e+04  -6.855536e+05
   3.513394e+05  -9.829363e+04
   3.722054e+05   2.446981e+05
   1.683388e+05   9.755111e+04
   8.395544e+03  -7.962862e+04
   1.178253e+05   1.633823e+05
   3.405410e+05   6.229770e+05
   2.234277e+05   7.242542e+05
  -3.961696e+05   2.889603e+05
  -1.015811e+06  -2.720123e+05
  -9.430114e+05  -5.195545e+05
  -1.491887e+05  -4.506348e+05
   6.139214e+05  -3.052863e+05
   6.731889e+05  -1.715135e+05
   1.970879e+05   7.204702e+02
  -1.126954e+05   1.531211e+05
   4.402029e+04   1.614208e+05
   2.474555e+05   8.207152e+04
   1.357490e+04   9.407943e+04
  -5.082859e+05   1.590463e+05
  -6.970446e+05  -2.236151e+03
  -2.137470e+05  -4.552990e+05
   6.015232e+05  -7.800658e+05
   1.087034e+06  -4.954331e+05
   8.842355e+05   3.025819e+05
   1.929372e+05   9.509865e+05
  -4.694972e+05   9.168792e+05
  -6.951734e+05   3.426386e+05
  -4.576472e+05  -1.733167e+05
  -7.176857e+04  -2.390175e+05
   1.023562e+05  -1.710858e+04
  -2.909841e+04   5.141132e+04
  -2.355702e+05  -2.176159e+05
  -2.087842e+05  -5.328258e+05
   1.183149e+05  -4.488773e+05
   4.766638e+05   1.037340e+05
   4.873452e+05   6.656391e+05
   3.523305e+04   6.920357e+05
  -5.421117e+05   1.321091e+05
  -6.980804e+05  -5.153015e+05
  -2.190947e+05  -7.254313e+05
   4.787332e+05  -4.288365e+05
   7.258222e+05   4.639599e+04
   3.322503e+05   3.649619e+05
  -1.805025e+05   4.090818e+05
  -2.017338e+05   2.369781e+05
   2.190183e+05   1.436993e+04
   4.488211e+05  -3.333354e+04
   8.578047e+04   1.960442e+05
  -5.385478e+05   4.797799e+05
  -7.853276e+05   4.210345e+05
  -4.597241e+05  -7.038096e+04
   5.372721e+04  -5.659559e+05
   3.115572e+05  -5.592552e+05
   2.370489e+05  -7.425612e+04
   2.203775e+04   3.444658e+05
  -1.646432e+05   2.709167e+05
  -2.479057e+05  -1.355832e+05
  -1.753133e+05  -3.847180e+05
   4.426781e+04  -2.485914e+05
   2.640469e+05   4.178352e+04
   3.050377e+05   1.496939e+05
   1.603168e+05   3.214376e+04
   1.035630e+03  -6.808019e+04
  -4.578181e+04   4.476317e+04
  -4.265440e+04   2.740621e+05
  -1.168564e+05   3.333227e+05
  -2.490088e+05   7.565824e+04
  -2.632245e+05  -3.064960e+05
  -4.004108e+04  -4.493239e+05
   2.932821e+05  -2.000487e+05
   4.254270e+05   2.080549e+05
   1.611619e+05   4.005985e+05
  -3.207281e+05   2.466073e+05
  -5.699462e+05  -5.692861e+04
  -3.157967e+05  -2.469306e+05
   1.939518e+05  -2.412391e+05
   4.183626e+05  -1.231469e+05
   1.342269e+05  -4.941033e+03
  -2.846369e+05   2.416059e+04
  -3.010803e+05  -8.153646e+04
   1.425674e+05  -2.340145e+05
   5.590045e+05  -2.040624e+05
