
 $NMID
 id='ANONYMOUS ', fmtdat='(2E16.6)'
 volume=1.0
 tramp=1.0
 $END
   3.053426e+07   4.148486e+05
   1.978726e+07   1.588390e+07
  -1.313359e+06   1.979776e+07
  -1.395240e+07   1.143895e+07
  -1.068486e+07  -2.364820e+05
   2.326916e+04  -5.467630e+06
   6.099457e+06  -1.797765e+06
   3.830904e+06   5.141056e+06
  -2.106717e+06   7.617626e+06
  -5.727610e+06   3.017093e+06
  -4.627869e+06  -3.910417e+06
  -4.722482e+05  -6.017188e+06
   2.790970e+06  -1.333920e+06
   2.034880e+06   4.790074e+06
  -1.991335e+06   5.590576e+06
  -4.972927e+06   1.786073e+05
  -3.394799e+06  -5.996702e+06
   1.678575e+06  -7.348322e+06
   5.838703e+06  -3.456334e+06
   5.919909e+06   1.695569e+06
   2.742379e+06   4.268073e+06
  -2.627643e+05   3.697148e+06
  -5.056072e+05   2.221292e+06
   1.375086e+06   2.184630e+06
   2.121345e+06   3.663765e+06
  -6.969351e+05   4.470419e+06
  -5.457244e+06   2.669262e+06
  -7.514613e+06  -9.776064e+05
  -4.299008e+06  -3.582445e+06
   1.309406e+06  -3.169765e+06
   3.909414e+06  -5.701941e+05
   1.563525e+06   1.726665e+06
  -2.449957e+06   1.876409e+06
  -3.849876e+06  -1.921114e+05
  -1.883504e+06  -2.899705e+06
   8.575184e+05  -3.893877e+06
   1.877575e+06  -1.952859e+06
   9.798434e+05   1.210342e+06
  -3.216165e+05   2.114838e+06
  -5.057984e+05  -3.827110e+05
   7.203047e+05  -3.084652e+06
   2.130318e+06  -2.161386e+06
   1.943147e+06   1.660755e+06
  -2.893058e+05   3.641657e+06
  -2.702475e+06   1.044909e+06
  -2.640868e+06  -3.306709e+06
   5.022326e+05  -4.535774e+06
   4.241509e+06  -1.411642e+06
   5.145547e+06   2.802737e+06
   2.131633e+06   4.389928e+06
  -2.358018e+06   2.635038e+06
  -4.510166e+06  -4.171826e+05
  -2.683788e+06  -2.261907e+06
   1.038831e+06  -1.791981e+06
   2.974688e+06   1.198246e+05
   1.621804e+06   1.447612e+06
  -9.371281e+05   9.303931e+05
  -1.616060e+06  -6.144332e+05
   9.861835e+04  -1.264144e+06
   1.759819e+06  -2.572171e+05
   1.045584e+06   1.227624e+06
  -1.493335e+06   1.540312e+06
  -3.107025e+06   1.967034e+05
  -1.845886e+06  -1.970440e+06
   1.518330e+06  -3.540002e+06
   4.371046e+06  -3.203483e+06
   4.691130e+06  -6.354386e+05
   2.670737e+06   2.751365e+06
   2.267051e+05   4.583254e+06
  -9.468908e+05   3.820231e+06
  -8.531721e+05   1.905630e+06
  -7.713804e+05   9.373362e+05
  -1.547114e+06   1.067278e+06
  -2.596703e+06   6.495276e+05
  -2.658666e+06  -1.115927e+06
  -1.237888e+06  -2.776458e+06
   8.575655e+05  -2.365336e+06
   2.180689e+06   1.010885e+05
   1.712316e+06   2.507323e+06
  -3.627034e+05   2.808772e+06
  -2.585292e+06   8.900006e+05
  -3.207493e+06  -1.605401e+06
  -1.773676e+06  -2.902336e+06
   3.256419e+05  -2.537008e+06
   1.331983e+06  -1.460874e+06
   1.129755e+06  -8.650681e+05
   1.220915e+06  -9.210237e+05
   2.528349e+06  -7.334222e+05
   3.858497e+06   4.950299e+05
   3.158803e+06   2.433009e+06
   1.044582e+05   3.813170e+06
  -3.177209e+06   3.524256e+06
  -4.143799e+06   1.544957e+06
  -2.330479e+06  -9.237749e+05
   3.226127e+05  -2.215932e+06
   1.454770e+06  -1.525208e+06
   4.633007e+05   2.171836e+05
  -1.190077e+06   1.100817e+06
  -1.660443e+06   2.687889e+05
  -5.962482e+05  -1.049149e+06
   6.726556e+05  -1.037103e+06
   6.948847e+05   3.317902e+05
  -5.593283e+05   1.123961e+06
  -1.745383e+06  -1.499747e+05
  -1.512804e+06  -2.561121e+06
   2.938949e+05  -3.683091e+06
   2.548928e+06  -2.224516e+06
   3.687186e+06   7.003820e+05
   2.838083e+06   2.823850e+06
   5.841057e+05   2.858489e+06
  -1.354152e+06   1.397157e+06
  -1.594048e+06   6.333356e+04
  -4.675843e+05  -5.690150e+04
   3.354827e+05   7.068594e+05
  -2.944731e+05   1.137278e+06
  -1.575730e+06   5.028344e+05
  -1.800345e+06  -6.575571e+05
  -4.577477e+05  -1.181304e+06
   1.059268e+06  -5.895621e+05
   1.011834e+06   4.289278e+05
  -6.959384e+05   7.791176e+05
  -2.328950e+06   1.188538e+04
  -2.087537e+06  -1.332331e+06
   5.385076e+04  -2.185237e+06
   2.282883e+06  -1.768657e+06
   2.693994e+06  -2.784747e+05
   1.111173e+06   1.114119e+06
  -8.098950e+05   1.232464e+06
  -1.271862e+06   1.150561e+05
  -6.349518e+04  -9.084754e+05
   1.404334e+06  -6.281822e+05
   1.636324e+06   6.735306e+05
   4.782366e+05   1.558581e+06
  -9.050216e+05   1.105529e+06
  -1.255357e+06  -8.737285e+04
  -3.967242e+05  -6.755329e+05
   6.425768e+05  -7.942019e+04
   6.269929e+05   9.764341e+05
  -6.240628e+05   1.297201e+06
  -1.927692e+06   3.997169e+05
  -1.867094e+06  -1.072183e+06
  -3.193726e+05  -1.942084e+06
   1.325320e+06  -1.529202e+06
   1.615012e+06  -2.429614e+05
   5.420104e+05   7.957348e+05
  -5.986480e+05   8.040584e+05
  -7.115068e+05   4.602191e+04
   3.596581e+04  -5.385241e+05
   6.368552e+05  -3.831756e+05
   4.294747e+05   1.330385e+05
  -2.749218e+05   2.003832e+05
  -5.861669e+05  -4.309319e+05
   5.764202e+04  -1.093821e+06
   1.274228e+06  -8.723159e+05
   1.971463e+06   4.034073e+05
   1.344008e+06   1.865445e+06
  -2.625750e+05   2.348062e+06
  -1.604858e+06   1.461995e+06
  -1.766921e+06  -4.778811e+04
  -1.019453e+06  -1.022720e+06
  -3.448435e+05  -9.706152e+05
  -2.657489e+05  -4.198639e+05
  -3.847100e+05  -2.240001e+05
  -4.716371e+04  -5.918177e+05
   7.887329e+05  -8.858208e+05
   1.439025e+06  -3.946931e+05
   1.145487e+06   7.587206e+05
  -1.739449e+05   1.575349e+06
  -1.695616e+06   1.120566e+06
  -2.217486e+06  -4.747336e+05
  -1.150441e+06  -2.002303e+06
   8.492635e+05  -2.239059e+06
   2.335722e+06  -1.060450e+06
   2.328962e+06   5.037213e+05
   1.137259e+06   1.304404e+06
  -9.191755e+04   1.119385e+06
  -5.419517e+05   6.687512e+05
  -3.624442e+05   6.821048e+05
  -2.534342e+05   1.074039e+06
  -6.168534e+05   1.094177e+06
  -1.156823e+06   2.390580e+05
  -1.214962e+06  -1.080459e+06
  -4.672290e+05  -1.837759e+06
   6.536446e+05  -1.362162e+06
   1.251528e+06  -3.626878e+03
   8.023061e+05   1.168962e+06
  -2.724968e+05   1.321798e+06
  -9.777666e+05   5.268356e+05
  -7.547722e+05  -4.446383e+05
  -3.114100e+04  -9.012137e+05
   3.224758e+05  -7.766179e+05
   9.223621e+03  -4.860429e+05
  -3.659140e+05  -3.765468e+05
  -2.167105e+04  -3.869114e+05
   1.033481e+06  -2.064513e+05
   1.868489e+06   3.162323e+05
   1.527814e+06   9.568670e+05
   6.522898e+04   1.281617e+06
  -1.393646e+06   1.020490e+06
  -1.710715e+06   3.225508e+05
  -8.443156e+05  -3.216671e+05
   1.903459e+05  -4.618988e+05
   4.482434e+05  -9.363909e+04
  -2.845232e+04   2.986005e+05
  -4.854344e+05   2.032520e+05
  -4.325270e+05  -3.426782e+05
  -9.560689e+04  -7.301645e+05
   3.982359e+04  -4.647447e+05
  -1.532384e+05   1.745142e+05
  -3.786242e+05   3.773929e+05
  -2.834808e+05  -2.168588e+05
   2.254534e+05  -9.834717e+05
   8.820176e+05  -9.765967e+05
   1.158250e+06  -5.706804e+04
   6.456661e+05   8.966589e+05
  -4.217802e+05   9.644914e+05
  -1.124455e+06   1.738749e+05
  -6.680244e+05  -6.093771e+05
   6.598319e+05  -6.332891e+05
   1.585893e+06   6.331151e+04
   1.117314e+06   8.311769e+05
  -3.722434e+05   1.052556e+06
  -1.499875e+06   6.010558e+05
  -1.303751e+06  -1.270248e+05
  -1.806037e+05  -5.328349e+05
   6.214196e+05  -3.049710e+05
   3.248639e+05   2.516058e+05
  -6.331184e+05   4.243696e+05
  -1.121955e+06  -2.024424e+05
  -4.997227e+05  -1.200371e+06
   7.480980e+05  -1.573088e+06
   1.519590e+06  -7.254766e+05
   1.185219e+06   8.182800e+05
   1.237800e+05   1.773361e+06
  -7.646721e+05   1.301546e+06
  -9.226384e+05  -1.238923e+05
  -4.659865e+05  -1.167215e+06
   1.439879e+05  -1.001448e+06
   5.220435e+05  -1.107923e+05
   5.160339e+05   4.032567e+05
   2.354996e+05   1.700772e+05
   2.028769e+04  -1.190008e+05
   1.500671e+05   2.322597e+05
   4.255779e+05   9.294642e+05
   2.519807e+05   1.081415e+06
  -5.962899e+05   3.892183e+05
  -1.440533e+06  -5.012715e+05
  -1.316126e+06  -8.596646e+05
  -1.720838e+05  -6.675178e+05
   9.243057e+05  -3.682959e+05
   9.970395e+05  -1.765996e+05
   2.853857e+05   1.050947e+04
  -1.795955e+05   2.048235e+05
   4.976177e+04   2.518310e+05
   3.510924e+05   1.610270e+05
   5.312570e+03   1.348997e+05
  -7.558913e+05   1.614671e+05
  -1.002134e+06  -7.846270e+04
  -2.509261e+05  -6.626879e+05
   9.511021e+05  -1.047269e+06
   1.607783e+06  -6.024487e+05
   1.229058e+06   5.203151e+05
   1.737883e+05   1.390296e+06
  -7.691826e+05   1.275172e+06
  -1.033245e+06   4.162165e+05
  -6.377439e+05  -3.055436e+05
  -7.447311e+04  -3.486958e+05
   1.503511e+05   1.371014e+02
  -5.254264e+04   7.996776e+04
  -3.238374e+05  -3.423186e+05
  -2.471176e+05  -7.957205e+05
   2.183618e+05  -6.304981e+05
   6.705978e+05   2.085168e+05
   6.200151e+05   1.010562e+06
  -2.971185e+04   9.887418e+05
  -7.897811e+05   1.195216e+05
  -9.404281e+05  -8.199402e+05
  -2.354000e+05  -1.062258e+06
   7.294388e+05  -5.612360e+05
   1.035975e+06   1.408303e+05
   4.435531e+05   5.516146e+05
  -2.947134e+05   5.655362e+05
  -3.088211e+05   3.266715e+05
   3.173393e+05   5.470141e+04
   6.517264e+05   2.601231e+03
   1.029534e+05   2.874892e+05
  -8.286741e+05   6.360151e+05
  -1.178528e+06   5.371796e+05
  -6.563995e+05  -1.353503e+05
   1.339574e+05  -8.068302e+05
   4.987222e+05  -7.793107e+05
   3.366587e+05  -8.695484e+04
  -1.162049e+04   4.969153e+05
  -2.622508e+05   3.683749e+05
  -3.354720e+05  -2.278788e+05
  -2.110064e+05  -5.723139e+05
   8.401666e+04  -3.462363e+05
   3.721916e+05   9.042214e+04
   4.276080e+05   2.409655e+05
   2.330314e+05   5.931282e+04
   5.310683e+03  -8.929876e+04
  -8.424704e+04   6.941016e+04
  -1.041821e+05   3.826619e+05
  -2.060249e+05   4.450160e+05
  -3.551418e+05   6.671581e+04
  -3.291491e+05  -4.653837e+05
   1.528615e+03  -6.380265e+05
   4.429109e+05  -2.503012e+05
   5.819750e+05   3.433740e+05
   1.834878e+05   5.929906e+05
  -4.857105e+05   3.233546e+05
  -8.083679e+05  -1.402889e+05
  -4.269470e+05  -3.870927e+05
   2.987258e+05  -3.224221e+05
   6.062454e+05  -1.298631e+05
   1.876970e+05   9.368237e+02
  -4.121816e+05  -1.003588e+04
  -4.178385e+05  -1.597553e+05
   2.414550e+05  -3.180720e+05
   8.355605e+05  -2.217918e+05
