
 $NMID
 id='ANONYMOUS ', fmtdat='(2E16.6)'
 volume=1.0
 tramp=1.0
 $END
  -5.850997e+07   8.090581e+05
  -3.588699e+07  -3.537516e+07
   6.840908e+06  -3.961318e+07
   2.832439e+07  -1.603724e+07
   1.742842e+07   6.623066e+06
  -3.094168e+06   9.789750e+06
  -1.032192e+07  -8.388010e+05
  -3.302549e+06  -1.009180e+07
   6.157446e+06  -1.009118e+07
   1.005273e+07  -2.443421e+06
   7.453567e+06   6.397941e+06
   9.809303e+05   9.076367e+06
  -4.175344e+06   2.891981e+06
  -2.884245e+06  -5.824251e+06
   3.808567e+06  -7.094203e+06
   8.280434e+06   1.164832e+06
   4.885211e+06   1.058583e+07
  -3.702292e+06   1.242129e+07
  -1.044291e+07   6.321813e+06
  -1.126484e+07  -2.026081e+06
  -6.901227e+06  -7.693944e+06
  -7.868812e+05  -8.859478e+06
   2.804803e+06  -6.216393e+06
   1.612795e+06  -2.915180e+06
  -1.355817e+06  -2.510441e+06
  -2.342262e+05  -4.585982e+06
   5.832809e+06  -4.684254e+06
   1.029014e+07  -5.254938e+05
   7.438765e+06   4.332026e+06
   1.751048e+05   5.303219e+06
  -4.041083e+06   2.635085e+06
  -2.595722e+06  -1.460549e+05
   8.617602e+05  -1.143137e+06
   2.664056e+06  -4.928765e+05
   2.383858e+06   1.697843e+06
   6.412141e+05   4.275390e+06
  -1.912657e+06   4.015998e+06
  -3.267862e+06  -1.884205e+05
  -1.690637e+06  -3.764530e+06
   7.834090e+05  -1.845709e+06
   2.892157e+05   2.752222e+06
  -2.612710e+06   2.540365e+06
  -2.665649e+06  -3.271989e+06
   2.304576e+06  -6.449041e+06
   7.077663e+06  -1.224170e+06
   5.411783e+06   7.061464e+06
  -1.787930e+06   8.879573e+06
  -7.702465e+06   2.640820e+06
  -7.454749e+06  -4.562629e+06
  -2.144645e+06  -6.374274e+06
   3.629585e+06  -3.009636e+06
   5.688582e+06   1.460183e+06
   2.735776e+06   3.634743e+06
  -2.447448e+06   2.392049e+06
  -4.781713e+06  -8.459371e+05
  -2.134730e+06  -2.795116e+06
   1.765748e+06  -1.472574e+06
   1.904637e+06   1.049632e+06
  -1.287939e+06   1.069590e+06
  -2.655520e+06  -1.638428e+06
   4.167445e+05  -3.511255e+06
   4.654920e+06  -2.114634e+06
   5.558995e+06   1.211228e+06
   2.542588e+06   4.072634e+06
  -1.855671e+06   5.580452e+06
  -5.327318e+06   5.179252e+06
  -6.568767e+06   1.874471e+06
  -4.833221e+06  -3.333756e+06
  -1.043019e+06  -6.548973e+06
   1.855001e+06  -5.137721e+06
   1.804550e+06  -1.448535e+06
   2.596976e+05   1.308323e+05
   1.446444e+05  -1.081443e+06
   1.849544e+06  -1.847784e+06
   3.062357e+06  -1.429937e+05
   2.159161e+06   2.189490e+06
  -4.634204e+04   2.381513e+06
  -1.779960e+06   2.115319e+05
  -1.879342e+06  -2.308202e+06
  -4.278770e+03  -3.207903e+06
   2.988199e+06  -1.766729e+06
   4.770660e+06   1.284933e+06
   3.418494e+06   3.967044e+06
  -6.208461e+03   4.432705e+06
  -2.337977e+06   2.866909e+06
  -2.298734e+06   1.252626e+06
  -1.930413e+06   8.079100e+05
  -3.178579e+06   6.013747e+05
  -4.734898e+06  -7.414911e+05
  -3.835099e+06  -2.952788e+06
  -1.986136e+05  -4.502775e+06
   3.469958e+06  -4.293700e+06
   4.558826e+06  -2.325998e+06
   2.890867e+06   4.835154e+05
   2.659008e+05   2.453098e+06
  -1.224279e+06   2.096757e+06
  -6.091975e+05  -5.270685e+04
   1.192355e+06  -1.433914e+06
   2.068003e+06  -4.510367e+05
   9.956841e+05   1.296996e+06
  -5.734494e+05   1.225423e+06
  -5.077615e+05  -4.195973e+05
   1.112138e+06  -8.329125e+05
   2.056186e+06   1.266832e+06
   8.573014e+05   3.732648e+06
  -1.566852e+06   3.812840e+06
  -3.384162e+06   1.390258e+06
  -3.705933e+06  -1.469414e+06
  -2.599969e+06  -3.021164e+06
  -5.447583e+05  -2.897026e+06
   1.360499e+06  -1.621715e+06
   1.737418e+06  -2.539204e+05
   5.413742e+05   4.553896e+04
  -4.023715e+05  -8.214094e+05
   4.277466e+05  -1.465953e+06
   2.065820e+06  -6.557612e+05
   2.234000e+06   9.329133e+05
   4.493123e+05   1.538047e+06
  -1.277934e+06   6.463264e+05
  -9.986301e+05  -4.922109e+05
   9.195415e+05  -6.092738e+05
   2.426528e+06   2.997453e+05
   1.971290e+06   1.478286e+06
  -2.368071e+05   2.198500e+06
  -2.527690e+06   1.861434e+06
  -3.051038e+06   3.335762e+05
  -1.349142e+06  -1.369331e+06
   9.864630e+05  -1.645497e+06
   1.694381e+06  -2.222803e+05
   2.232558e+05   1.175251e+06
  -1.656631e+06   8.221643e+05
  -1.900041e+06  -8.354415e+05
  -4.018578e+05  -1.814796e+06
   1.182099e+06  -1.101535e+06
   1.393437e+06   3.144234e+05
   2.915921e+05   8.542395e+05
  -8.683007e+05   7.236913e+04
  -8.181525e+05  -1.149096e+06
   6.226872e+05  -1.570243e+06
   2.204611e+06  -6.122835e+05
   2.247541e+06   1.137370e+06
   4.429243e+05   2.277055e+06
  -1.563553e+06   1.822355e+06
  -1.896382e+06   2.531553e+05
  -5.666165e+05  -9.497338e+05
   7.154833e+05  -8.946026e+05
   7.046081e+05  -8.774266e+04
  -1.227881e+05   4.138806e+05
  -5.530538e+05   2.474928e+05
  -1.585033e+05  -7.859073e+04
   4.849183e+05   5.795603e+04
   5.856411e+05   7.190933e+05
  -2.039108e+05   1.307110e+06
  -1.508724e+06   1.002574e+06
  -2.295316e+06  -4.330969e+05
  -1.631015e+06  -2.123511e+06
   2.154123e+05  -2.669655e+06
   1.767432e+06  -1.580006e+06
   1.872241e+06   1.164527e+05
   9.661226e+05   9.903943e+05
   3.563070e+05   7.386829e+05
   5.123541e+05   2.492314e+05
   6.791387e+05   3.304321e+05
   1.072435e+05   8.298177e+05
  -9.509779e+05   1.003298e+06
  -1.594554e+06   3.788824e+05
  -1.172221e+06  -7.888354e+05
   2.561242e+05  -1.621876e+06
   1.887384e+06  -1.205606e+06
   2.484247e+06   5.085573e+05
   1.275614e+06   2.299568e+06
  -1.077682e+06   2.614992e+06
  -2.781929e+06   1.168936e+06
  -2.601425e+06  -6.926001e+05
  -1.081186e+06  -1.466803e+06
   2.114830e+05  -1.058269e+06
   4.354876e+05  -5.763964e+05
   9.622071e+04  -8.250620e+05
   1.075449e+05  -1.426936e+06
   7.205284e+05  -1.417186e+06
   1.414677e+06  -3.621314e+05
   1.480707e+06   1.176140e+06
   6.307357e+05   2.080271e+06
  -6.714697e+05   1.588197e+06
  -1.416813e+06   1.230893e+04
  -9.108125e+05  -1.400351e+06
   4.078372e+05  -1.541296e+06
   1.268283e+06  -4.691747e+05
   9.013785e+05   7.446474e+05
  -1.132259e+05   1.178890e+06
  -5.705067e+05   8.704608e+05
  -8.550035e+04   4.647729e+05
   4.777464e+05   3.670567e+05
   6.843771e+04   4.219761e+05
  -1.258281e+06   2.454949e+05
  -2.269128e+06  -3.406474e+05
  -1.791703e+06  -1.120462e+06
   1.867085e+04  -1.576227e+06
   1.728910e+06  -1.271602e+06
   2.011610e+06  -3.300899e+05
   9.274180e+05   5.270105e+05
  -2.768260e+05   6.257206e+05
  -5.613305e+05   4.664800e+04
  -3.709732e+04  -4.573746e+05
   4.867315e+05  -2.873266e+05
   5.330750e+05   3.708319e+05
   2.817035e+05   7.928676e+05
   1.063794e+05   5.253030e+05
   1.517410e+05  -1.090922e+05
   3.093917e+05  -3.280727e+05
   3.070105e+05   2.523937e+05
  -1.470070e+05   1.088436e+06
  -9.772743e+05   1.183590e+06
  -1.491808e+06   2.082883e+05
  -9.446576e+05  -9.950986e+05
   4.420011e+05  -1.256236e+06
   1.377084e+06  -3.846976e+05
   8.140054e+05   6.228250e+05
  -7.655370e+05   7.229348e+05
  -1.752257e+06  -8.761190e+04
  -1.120540e+06  -9.414442e+05
   5.218404e+05  -1.097850e+06
   1.648433e+06  -5.453854e+05
   1.362879e+06   1.974891e+05
   1.536058e+05   5.661346e+05
  -7.134924e+05   3.042807e+05
  -4.273862e+05  -3.190925e+05
   6.372115e+05  -5.828017e+05
   1.304325e+06   7.237753e+04
   7.572184e+05   1.290945e+06
  -6.234495e+05   1.885027e+06
  -1.621379e+06   9.988387e+05
  -1.395462e+06  -8.164266e+05
  -2.483213e+05  -1.972316e+06
   8.002006e+05  -1.435489e+06
   1.023127e+06   1.856498e+05
   4.880879e+05   1.310626e+06
  -2.350350e+05   1.070557e+06
  -6.209530e+05   9.836498e+04
  -5.151686e+05  -4.104936e+05
  -1.775470e+05  -1.491779e+05
  -5.445121e+04   1.047799e+05
  -3.199203e+05  -3.237295e+05
  -5.781005e+05  -1.059966e+06
  -2.187049e+05  -1.187276e+06
   7.902772e+05  -4.454652e+05
   1.632304e+06   4.927365e+05
   1.417238e+06   9.066717e+05
   2.131949e+05   7.696351e+05
  -9.288591e+05   4.747512e+05
  -1.081121e+06   2.122584e+05
  -4.051450e+05  -5.664215e+04
   1.543333e+05  -2.515563e+05
   4.562115e+04  -2.235162e+05
  -2.834827e+05  -9.588438e+04
  -6.203105e+04  -1.451161e+05
   7.147905e+05  -2.745455e+05
   1.156807e+06  -8.954127e+03
   5.063946e+05   7.569320e+05
  -8.967503e+05   1.321209e+06
  -1.870117e+06   8.751383e+05
  -1.580281e+06  -4.421991e+05
  -3.344810e+05  -1.544965e+06
   8.245223e+05  -1.537640e+06
   1.148477e+06  -6.228569e+05
   7.257798e+05   2.369485e+05
   1.603427e+05   3.930571e+05
  -6.435469e+04   8.173665e+04
   9.436460e+04  -1.127454e+04
   3.327014e+05   4.051396e+05
   2.826773e+05   8.885386e+05
  -1.815600e+05   7.565723e+05
  -7.512724e+05  -1.099604e+05
  -8.441273e+05  -1.024864e+06
  -1.665589e+05  -1.137259e+06
   8.159168e+05  -3.042732e+05
   1.162713e+06   7.587590e+05
   4.189724e+05   1.195854e+06
  -7.693975e+05   7.754760e+05
  -1.244564e+06  -5.287397e+04
  -6.101861e+05  -6.750878e+05
   3.023634e+05  -7.698653e+05
   4.239546e+05  -4.188761e+05
  -2.583553e+05   1.285614e+02
  -7.124428e+05   5.984293e+04
  -1.740394e+05  -3.395448e+05
   8.972399e+05  -7.654503e+05
   1.392853e+06  -6.130926e+05
   8.616041e+05   1.904383e+05
  -8.558410e+04   9.682630e+05
  -6.041203e+05   9.648617e+05
  -4.813096e+05   2.005269e+05
  -7.816884e+04  -5.209756e+05
   2.506969e+05  -4.948091e+05
   3.905056e+05   1.401292e+05
   2.963093e+05   6.310844e+05
  -4.351474e+04   4.862302e+05
  -4.331649e+05  -3.363445e+04
  -5.376313e+05  -3.088511e+05
  -2.707810e+05  -1.100847e+05
   4.962438e+04   1.761582e+05
   9.411292e+04   6.997024e+04
  -4.179236e+04  -3.792537e+05
   1.125194e+04  -6.235869e+05
   3.357618e+05  -2.762002e+05
   5.345885e+05   3.882953e+05
   2.162287e+05   7.075365e+05
  -4.347933e+05   3.648240e+05
  -7.507586e+05  -2.810622e+05
  -3.025010e+05  -6.203155e+05
   5.561530e+05  -4.190679e+05
   9.860135e+05   5.353579e+04
   5.434851e+05   4.045122e+05
  -3.137480e+05   4.617148e+05
  -7.037539e+05   2.833021e+05
  -2.888890e+05   2.997398e+04
   3.618741e+05  -9.658130e+04
   4.437064e+05   4.184579e+04
  -1.639595e+05   3.140696e+05
  -7.894940e+05   3.183134e+05
