
 $NMID
 id='ANONYMOUS ', fmtdat='(2E16.6)'
 volume=1.0
 tramp=1.0
 $END
   2.307480e+07  -1.687843e+06
   1.547843e+07   1.211645e+07
  -8.677422e+05   1.552680e+07
  -1.044052e+07   8.107393e+06
  -7.554098e+06  -1.075341e+06
   4.321883e+05  -4.054510e+06
   4.312898e+06  -6.834937e+05
   2.264965e+06   3.836368e+06
  -1.775455e+06   4.906723e+06
  -4.042898e+06   1.810880e+06
  -3.361929e+06  -2.496230e+06
  -6.359711e+05  -3.967737e+06
   1.765778e+06  -1.204478e+06
   1.483534e+06   2.780563e+06
  -1.293414e+06   3.516542e+06
  -3.505668e+06   3.063812e+04
  -2.500765e+06  -4.187329e+06
   1.024659e+06  -5.283229e+06
   4.067560e+06  -2.840767e+06
   4.519185e+06   6.893438e+05
   2.663048e+06   2.929904e+06
   3.349625e+05   3.179208e+06
  -6.300764e+05   2.194479e+06
   1.661047e+05   1.394314e+06
   1.078555e+06   1.703239e+06
  -2.948029e+04   2.480091e+06
  -2.949118e+06   2.101122e+06
  -4.747775e+06   1.052497e+05
  -3.200125e+06  -1.926140e+06
   2.333161e+05  -2.227453e+06
   2.108945e+06  -9.045439e+05
   1.107208e+06   5.173250e+05
  -9.458075e+05   9.023236e+05
  -1.835026e+06   1.406561e+05
  -1.208111e+06  -1.248826e+06
   1.175240e+03  -2.213530e+06
   9.269293e+05  -1.597621e+06
   1.067383e+06   3.470736e+05
   3.843343e+05   1.494956e+06
  -2.979821e+05   3.162415e+05
   7.902873e+04  -1.616464e+06
   1.201785e+06  -1.350938e+06
   1.321285e+06   1.197877e+06
  -4.323058e+05   2.692927e+06
  -2.436318e+06   8.058352e+05
  -2.272030e+06  -2.514680e+06
   3.183195e+05  -3.520396e+06
   3.037523e+06  -1.270560e+06
   3.478519e+06   1.719629e+06
   1.359248e+06   2.792258e+06
  -1.490984e+06   1.636162e+06
  -2.781478e+06  -2.953923e+05
  -1.589038e+06  -1.467149e+06
   8.189567e+05  -1.185986e+06
   2.063438e+06   9.343465e+04
   1.083948e+06   1.036507e+06
  -6.601231e+05   6.827417e+05
  -9.822000e+05  -3.785051e+05
   2.888607e+05  -6.822153e+05
   1.207197e+06   2.108916e+05
   3.372866e+05   1.193887e+06
  -1.472874e+06   1.099787e+06
  -2.288603e+06  -5.316970e+04
  -1.284110e+06  -1.482369e+06
   7.489133e+05  -2.460694e+06
   2.467201e+06  -2.365790e+06
   2.949871e+06  -8.218558e+05
   2.055577e+06   1.505755e+06
   5.003172e+05   2.933671e+06
  -5.735964e+05   2.446894e+06
  -6.348076e+05   9.925446e+05
  -3.040932e+05   2.847182e+05
  -4.984033e+05   6.036508e+05
  -1.207493e+06   6.908348e+05
  -1.555519e+06  -2.351374e+05
  -9.603674e+05  -1.330846e+06
   2.135185e+05  -1.309448e+06
   1.102541e+06  -7.321225e+04
   1.051342e+06   1.274460e+06
  -1.891077e+04   1.634889e+06
  -1.461485e+06   7.773977e+05
  -2.156837e+06  -6.705698e+05
  -1.462441e+06  -1.738441e+06
  -1.921068e+04  -1.823756e+06
   8.784351e+05  -1.186238e+06
   8.477876e+05  -6.266436e+05
   8.046458e+05  -5.358331e+05
   1.515659e+06  -4.680283e+05
   2.338431e+06   1.851963e+05
   1.976249e+06   1.337997e+06
   2.148094e+05   2.244212e+06
  -1.681693e+06   2.215791e+06
  -2.301713e+06   1.164618e+06
  -1.424401e+06  -3.213315e+05
  -3.084958e+04  -1.266138e+06
   6.851812e+05  -1.006285e+06
   2.901058e+05   6.435716e+04
  -6.116827e+05   7.170426e+05
  -9.912102e+05   2.503707e+05
  -4.563780e+05  -6.039137e+05
   3.103023e+05  -6.304638e+05
   3.519236e+05   1.852869e+05
  -4.043993e+05   5.826098e+05
  -1.061107e+06  -2.727142e+05
  -7.913718e+05  -1.640032e+06
   3.309616e+05  -2.092120e+06
   1.539383e+06  -1.133054e+06
   2.069472e+06   4.426140e+05
   1.597533e+06   1.512203e+06
   4.021509e+05   1.560981e+06
  -6.957062e+05   8.603949e+05
  -9.009315e+05   1.311234e+05
  -2.748412e+05  -1.226951e+04
   2.242497e+05   4.020457e+05
  -1.483591e+05   7.114166e+05
  -9.567890e+05   3.718836e+05
  -1.113983e+06  -3.567291e+05
  -2.948665e+05  -7.155119e+05
   6.116803e+05  -3.750448e+05
   5.678407e+05   2.188298e+05
  -4.125597e+05   4.170311e+05
  -1.308413e+06   1.146673e+04
  -1.165412e+06  -7.022187e+05
   2.277695e+03  -1.209226e+06
   1.251387e+06  -1.069563e+06
   1.549934e+06  -2.582472e+05
   7.048885e+05   6.289894e+05
  -4.361521e+05   7.997210e+05
  -7.877189e+05   1.373467e+05
  -1.057852e+05  -5.534110e+05
   8.039553e+05  -4.388520e+05
   9.832001e+05   3.489913e+05
   3.001732e+05   9.007989e+05
  -5.253813e+05   6.411689e+05
  -7.289610e+05  -5.694024e+04
  -2.194377e+05  -4.018212e+05
   4.019005e+05  -6.777989e+04
   4.225825e+05   5.510347e+05
  -2.950014e+05   7.937856e+05
  -1.103490e+06   3.348170e+05
  -1.146473e+06  -5.357394e+05
  -2.722296e+05  -1.129168e+06
   7.266670e+05  -9.531962e+05
   9.425398e+05  -1.929241e+05
   3.316326e+05   4.543866e+05
  -3.280357e+05   4.835603e+05
  -3.868117e+05   5.655497e+04
   2.565440e+04  -2.710849e+05
   3.223017e+05  -1.977564e+05
   1.775900e+05   5.403805e+04
  -1.984517e+05   6.561398e+04
  -3.424231e+05  -2.832702e+05
   2.507680e+04  -6.542391e+05
   7.221184e+05  -5.541847e+05
   1.169147e+06   1.584953e+05
   8.676401e+05   1.033530e+06
  -5.219579e+04   1.369031e+06
  -8.694097e+05   8.835488e+05
  -9.971478e+05   1.599758e+04
  -5.787134e+05  -5.236873e+05
  -2.163895e+05  -4.693538e+05
  -2.105352e+05  -1.774259e+05
  -2.875190e+05  -1.275979e+05
  -6.403649e+04  -3.756859e+05
   4.389670e+05  -5.416509e+05
   8.132476e+05  -2.621900e+05
   6.595330e+05   3.867226e+05
  -6.353308e+04   8.829748e+05
  -9.371756e+05   6.924210e+05
  -1.293643e+06  -1.922986e+05
  -7.300305e+05  -1.127678e+06
   4.386944e+05  -1.346796e+06
   1.347686e+06  -6.909070e+05
   1.360898e+06   2.398524e+05
   6.565254e+05   7.189201e+05
  -4.411657e+04   6.067026e+05
  -2.549316e+05   3.605816e+05
  -1.139451e+05   4.115185e+05
  -6.383952e+04   6.737921e+05
  -3.199475e+05   6.956782e+05
  -6.829919e+05   2.016457e+05
  -7.633545e+05  -5.703640e+05
  -3.569488e+05  -1.045315e+06
   3.148204e+05  -8.199420e+05
   7.243239e+05  -4.712604e+04
   5.073971e+05   6.664908e+05
  -1.334965e+05   7.873616e+05
  -5.876387e+05   3.140616e+05
  -4.690473e+05  -2.847558e+05
  -1.956778e+04  -5.603322e+05
   2.065902e+05  -4.640104e+05
   7.730347e+03  -2.642837e+05
  -2.377036e+05  -1.903060e+05
  -3.547189e+04  -2.184649e+05
   6.108387e+05  -1.601447e+05
   1.127066e+06   1.106791e+05
   9.326161e+05   5.080892e+05
   6.427002e+04   7.705277e+05
  -8.029353e+05   6.691177e+05
  -9.971891e+05   2.397246e+05
  -4.976445e+05  -1.946873e+05
   1.055133e+05  -2.987990e+05
   2.699563e+05  -5.764392e+04
   1.255784e+04   1.990137e+05
  -2.583001e+05   1.457192e+05
  -2.715727e+05  -1.784673e+05
  -1.189244e+05  -4.073397e+05
  -2.720773e+04  -2.663953e+05
  -7.997229e+04   8.577416e+04
  -1.817102e+05   2.061928e+05
  -1.687247e+05  -1.175668e+05
   7.259836e+04  -5.687767e+05
   4.700901e+05  -6.130772e+05
   7.058362e+05  -1.102281e+05
   4.526561e+05   4.868595e+05
  -1.986603e+05   6.092628e+05
  -6.637592e+05   1.846469e+05
  -4.191349e+05  -3.130899e+05
   3.641789e+05  -3.912304e+05
   9.109648e+05  -1.339356e+04
   6.429238e+05   4.463864e+05
  -2.042425e+05   6.035592e+05
  -8.398187e+05   3.679656e+05
  -7.350042e+05  -4.353558e+04
  -1.105131e+05  -2.951683e+05
   3.525903e+05  -1.890084e+05
   2.111590e+05   1.407201e+05
  -3.313234e+05   2.887246e+05
  -6.603369e+05  -4.213334e+04
  -3.723514e+05  -6.574831e+05
   3.256286e+05  -9.544417e+05
   8.278283e+05  -5.100897e+05
   7.237532e+05   4.066036e+05
   1.564394e+05   1.011669e+06
  -3.839357e+05   7.696734e+05
  -5.347759e+05  -5.067889e+04
  -3.009089e+05  -6.582687e+05
   6.668839e+04  -5.723678e+05
   3.059107e+05  -7.684730e+04
   2.959302e+05   2.070137e+05
   1.209845e+05   8.282899e+04
   1.553882e+04  -6.361839e+04
   1.304045e+05   1.392158e+05
   3.004575e+05   5.227476e+05
   1.671929e+05   6.107611e+05
  -3.577518e+05   2.499634e+05
  -8.497435e+05  -2.235610e+05
  -7.735082e+05  -4.390896e+05
  -1.272016e+05  -3.831990e+05
   4.943459e+05  -2.552013e+05
   5.600661e+05  -1.382407e+05
   1.852939e+05   4.245079e+03
  -8.534196e+04   1.279667e+05
   1.286300e+04   1.327373e+05
   1.808663e+05   6.446445e+04
   2.024478e+04   7.478022e+04
  -3.978324e+05   1.367508e+05
  -5.854782e+05   1.186287e+04
  -2.186231e+05  -3.708493e+05
   4.703364e+05  -6.652362e+05
   9.164218e+05  -4.492547e+05
   7.685044e+05   2.207619e+05
   1.790326e+05   7.888488e+05
  -3.884201e+05   7.849371e+05
  -5.751590e+05   3.104411e+05
  -3.778822e+05  -1.301269e+05
  -7.233667e+04  -1.969996e+05
   6.101369e+04  -2.094117e+04
  -3.757471e+04   3.108281e+04
  -1.921050e+05  -1.918633e+05
  -1.709008e+05  -4.493409e+05
   8.873505e+04  -3.806049e+05
   3.904707e+05   6.926136e+04
   4.229789e+05   5.331112e+05
   6.265388e+04   5.724151e+05
  -4.311302e+05   1.326678e+05
  -5.906173e+05  -4.014157e+05
  -2.072749e+05  -6.014591e+05
   3.865965e+05  -3.803679e+05
   6.181641e+05   1.981992e+04
   3.016045e+05   3.127365e+05
  -1.406995e+05   3.661466e+05
  -1.830967e+05   2.128195e+05
   1.611803e+05   9.265726e+03
   3.700646e+05  -3.455835e+04
   8.289811e+04   1.645964e+05
  -4.474112e+05   4.060637e+05
  -6.769340e+05   3.543129e+05
  -4.124607e+05  -6.108970e+04
   3.336490e+04  -4.824678e+05
   2.686656e+05  -4.881085e+05
   2.119509e+05  -8.762872e+04
   3.001802e+04   2.763471e+05
  -1.266672e+05   2.387390e+05
  -2.014935e+05  -9.341651e+04
  -1.544838e+05  -3.187873e+05
   2.260216e+04  -2.233587e+05
   2.195203e+05   2.365876e+04
   2.689230e+05   1.315406e+05
   1.396366e+05   3.582924e+04
  -1.451946e+04  -6.744358e+04
  -4.990176e+04   9.459259e+03
  -1.236192e+04   2.088500e+05
  -5.064105e+04   2.861671e+05
  -1.831739e+05   9.457248e+04
  -2.397113e+05  -2.225884e+05
  -7.006317e+04  -3.605201e+05
   2.306289e+05  -1.769260e+05
   3.668301e+05   1.519957e+05
   1.468433e+05   3.230208e+05
  -2.701081e+05   2.161349e+05
  -4.861989e+05  -2.768303e+04
  -2.732932e+05  -2.002129e+05
   1.538245e+05  -2.182318e+05
   3.469681e+05  -1.273778e+05
   1.251786e+05  -1.490717e+04
  -2.125397e+05   3.014183e+04
  -2.372347e+05  -4.739132e+04
   1.052625e+05  -1.792798e+05
   4.390067e+05  -1.684437e+05
