
 $NMID
 id='ANONYMOUS ', fmtdat='(2E16.6)'
 volume=1.0
 tramp=1.0
 $END
  -9.399377e+06  -1.854687e+05
  -6.832697e+06  -3.681158e+06
  -7.749576e+05  -5.864764e+06
   3.994532e+06  -4.996750e+06
   4.119528e+06  -1.309731e+06
   6.935432e+05   1.912947e+06
  -2.274181e+06   1.518045e+06
  -2.123885e+06  -1.599908e+06
   2.255637e+05  -3.415055e+06
   2.025566e+06  -1.695685e+06
   1.748239e+06   1.440096e+06
   1.235013e+05   2.389941e+06
  -1.099501e+06   3.327092e+05
  -8.138434e+05  -2.224989e+06
   6.529238e+05  -2.541827e+06
   1.845652e+06  -4.037323e+05
   1.440458e+06   2.056946e+06
  -3.792273e+05   2.660772e+06
  -1.937784e+06   1.171511e+06
  -1.829820e+06  -7.358149e+05
  -5.138083e+05  -1.356235e+06
   2.857122e+05  -7.215279e+05
  -3.169023e+05  -3.035829e+05
  -1.349374e+06  -1.042759e+06
  -1.177487e+06  -2.167766e+06
   6.136914e+05  -2.224886e+06
   2.687906e+06  -8.595932e+05
   3.176286e+06   8.583956e+05
   1.474889e+06   1.643631e+06
  -9.861566e+05   1.096113e+06
  -1.925568e+06  -2.113141e+05
  -5.107911e+05  -1.225096e+06
   1.641738e+06  -1.049042e+06
   2.205664e+06   3.264625e+05
   7.834879e+05   1.753912e+06
  -8.078802e+05   1.852817e+06
  -9.236701e+05   5.179927e+05
   4.529676e+04  -7.993935e+05
   5.943232e+05  -6.633344e+05
   1.380300e+05   6.846958e+05
  -6.367100e+05   1.613379e+06
  -9.985883e+05   1.004433e+06
  -8.499044e+05  -5.007798e+05
  -3.165710e+05  -1.287563e+06
   4.272018e+05  -5.663701e+05
   7.890883e+05   8.292651e+05
   7.505974e+04   1.386567e+06
  -1.392307e+06   4.816707e+05
  -2.126607e+06  -1.052536e+06
  -1.077745e+06  -1.830873e+06
   9.488678e+05  -1.262709e+06
   2.062569e+06   1.308941e+04
   1.360809e+06   8.852299e+05
  -2.310481e+05   8.021828e+05
  -1.137132e+06   1.027859e+05
  -7.271445e+05  -4.514790e+05
   2.963902e+05  -3.632602e+05
   7.633093e+05   2.323214e+05
   1.885266e+05   7.153704e+05
  -7.508808e+05   5.459572e+05
  -8.937097e+05  -1.748458e+05
   7.359718e+04  -7.183751e+05
   1.083067e+06  -4.301863e+05
   8.150151e+05   5.495330e+05
  -6.943555e+05   1.346342e+06
  -2.010744e+06   1.168257e+06
  -1.957846e+06   3.884401e+04
  -8.665624e+05  -1.256234e+06
   7.423969e+04  -1.888668e+06
   3.000587e+05  -1.668556e+06
   2.606087e+05  -1.083803e+06
   5.421768e+05  -6.903779e+05
   1.109745e+06  -4.886253e+05
   1.468654e+06  -1.814811e+04
   1.223941e+06   8.698176e+05
   3.795469e+05   1.539663e+06
  -6.465282e+05   1.172932e+06
  -1.192613e+06  -1.585813e+05
  -8.000228e+05  -1.341787e+06
   2.924378e+05  -1.332040e+06
   1.220852e+06  -2.379922e+05
   1.264566e+06   8.922186e+05
   5.323112e+05   1.228649e+06
  -2.220390e+05   8.652322e+05
  -4.418805e+05   4.438232e+05
  -3.201213e+05   3.706221e+05
  -4.810517e+05   4.970423e+05
  -1.159791e+06   3.877077e+05
  -1.776173e+06  -2.251083e+05
  -1.445222e+06  -1.150228e+06
  -1.380629e+03  -1.793373e+06
   1.582443e+06  -1.596591e+06
   2.023561e+06  -5.743099e+05
   1.043437e+06   5.845583e+05
  -3.166167e+05   1.060388e+06
  -7.988576e+05   6.278755e+05
  -1.975580e+05  -1.502929e+05
   6.133414e+05  -4.736125e+05
   7.572879e+05  -8.516132e+04
   2.087193e+05   4.793532e+05
  -3.748315e+05   4.764440e+05
  -3.941856e+05  -1.644888e+05
   1.860955e+05  -6.446500e+05
   8.489335e+05  -1.544197e+05
   9.126083e+05   1.084842e+06
   8.598676e+04   1.878396e+06
  -1.165787e+06   1.306713e+06
  -1.886852e+06  -2.343695e+05
  -1.469129e+06  -1.439113e+06
  -2.714375e+05  -1.458392e+06
   7.014660e+05  -6.464141e+05
   7.776786e+05   2.654790e+04
   2.211110e+05   3.573391e+04
  -1.504031e+05  -3.385290e+05
   1.276956e+05  -5.081224e+05
   6.996333e+05  -2.148813e+05
   8.220610e+05   2.881236e+05
   2.285630e+05   5.313645e+05
  -4.997698e+05   2.804482e+05
  -5.162024e+05  -2.189258e+05
   3.200743e+05  -4.326825e+05
   1.175436e+06  -4.808828e+04
   1.078044e+06   6.771526e+05
  -1.454401e+04   1.116367e+06
  -1.131419e+06   8.593446e+05
  -1.298382e+06   1.043353e+05
  -5.064475e+05  -5.209855e+05
   3.804718e+05  -5.320801e+05
   5.551355e+05  -2.884270e+04
  -8.044373e+03   4.023191e+05
  -6.649027e+05   2.662829e+05
  -7.726321e+05  -3.228474e+05
  -2.469088e+05  -7.473600e+05
   4.157808e+05  -5.602230e+05
   6.151407e+05   7.933685e+03
   2.210607e+05   3.139801e+05
  -2.804125e+05   3.998994e+04
  -2.707779e+05  -4.638256e+05
   3.280602e+05  -5.947807e+05
   9.228420e+05  -1.402968e+05
   8.574688e+05   5.469496e+05
   1.194483e+05   9.185318e+05
  -6.363004e+05   7.048339e+05
  -7.650404e+05   1.076439e+05
  -2.643229e+05  -3.790439e+05
   2.885234e+05  -3.857496e+05
   3.646257e+05  -4.520356e+03
  -9.225025e+03   3.047815e+05
  -3.521115e+05   2.157926e+05
  -2.762993e+05  -9.211286e+04
   1.027772e+05  -1.614027e+05
   3.011850e+05   1.633963e+05
  -5.244979e+03   5.140965e+05
  -6.061397e+05   4.065413e+05
  -9.305447e+05  -2.158773e+05
  -6.057330e+05  -9.048865e+05
   1.661298e+05  -1.122826e+06
   7.988995e+05  -7.035296e+05
   8.793843e+05   2.928381e+04
   5.175965e+05   5.431954e+05
   1.547954e+05   5.500629e+05
   7.159889e+04   2.485251e+05
   1.315919e+05   8.789096e+04
   9.805873e+03   2.483213e+05
  -3.744441e+05   4.202577e+05
  -7.050350e+05   1.911194e+05
  -5.698165e+05  -3.936888e+05
   8.902180e+04  -7.933238e+05
   8.347569e+05  -5.368175e+05
   1.067769e+06   2.558724e+05
   5.418693e+05   9.679641e+05
  -4.020547e+05   1.055274e+06
  -1.104729e+06   4.990215e+05
  -1.127036e+06  -2.384513e+05
  -5.800497e+05  -6.460919e+05
   3.660910e+04  -5.865964e+05
   3.108715e+05  -3.518361e+05
   2.484683e+05  -3.050589e+05
   1.660378e+05  -4.633942e+05
   2.976738e+05  -4.820753e+05
   5.335345e+05  -8.679578e+04
   5.502399e+05   5.390164e+05
   1.852258e+05   8.863176e+05
  -3.413272e+05   6.375602e+05
  -6.023229e+05  -1.185673e+04
  -3.767230e+05  -5.532282e+05
   1.205575e+05  -6.263863e+05
   4.434882e+05  -2.766357e+05
   3.552237e+05   1.667628e+05
   4.342062e+04   4.031214e+05
  -1.175855e+05   3.782259e+05
   5.114886e+03   2.546094e+05
   1.569701e+05   1.957499e+05
  -3.160218e+03   1.885668e+05
  -4.793943e+05   8.956517e+04
  -8.619450e+05  -1.691061e+05
  -7.137816e+05  -4.649199e+05
  -4.315125e+04  -5.925582e+05
   6.439988e+05  -4.566937e+05
   8.109058e+05  -1.488070e+05
   4.139932e+05   1.278196e+05
  -7.963903e+04   1.995510e+05
  -2.062906e+05   5.540479e+04
   2.845640e+04  -1.150918e+05
   2.475772e+05  -7.877910e+04
   1.947476e+05   1.714801e+05
   7.779938e+01   3.548055e+05
  -5.687733e+04   2.193070e+05
   8.239892e+04  -1.014114e+05
   2.145567e+05  -1.968636e+05
   1.378523e+05   1.055231e+05
  -1.417746e+05   4.736385e+05
  -4.359291e+05   4.443052e+05
  -5.143965e+05  -9.698577e+03
  -2.549688e+05  -4.360284e+05
   2.152270e+05  -4.231822e+05
   5.146764e+05  -3.476138e+04
   3.011888e+05   3.126064e+05
  -3.191730e+05   2.976809e+05
  -7.723562e+05  -4.300304e+04
  -5.615833e+05  -4.141635e+05
   1.693853e+05  -5.262598e+05
   7.418993e+05  -3.035408e+05
   6.525455e+05   6.456959e+04
   9.209070e+04   2.676586e+05
  -3.009349e+05   1.502354e+05
  -1.419239e+05  -1.150592e+05
   3.233692e+05  -1.737481e+05
   5.263459e+05   1.414300e+05
   1.853361e+05   5.920844e+05
  -4.210334e+05   7.209828e+05
  -7.549178e+05   2.930761e+05
  -5.477842e+05  -4.275840e+05
  -1.815627e+04  -8.592631e+05
   3.955871e+05  -6.256920e+05
   4.487955e+05   5.883944e+04
   2.217594e+05   5.695366e+05
  -6.454515e+04   4.965768e+05
  -2.464883e+05   5.531584e+04
  -2.585549e+05  -2.109187e+05
  -1.301774e+05  -9.610417e+04
  -4.832175e+03   6.449642e+04
  -3.879333e+04  -9.569927e+04
  -1.751376e+05  -4.469947e+05
  -1.246665e+05  -5.328171e+05
   2.652015e+05  -1.838356e+05
   6.861355e+05   2.711616e+05
   6.394413e+05   4.426708e+05
   7.294134e+04   3.192273e+05
  -4.724452e+05   1.525966e+05
  -4.915809e+05   7.163247e+04
  -1.204299e+05   4.401224e+03
   9.862077e+04  -9.116080e+04
  -4.227010e+04  -1.379389e+05
  -1.901922e+05  -1.028772e+05
   1.111830e+04  -6.511829e+04
   3.937018e+05  -4.662911e+04
   4.739936e+05   6.798922e+04
   6.590270e+04   3.136492e+05
  -5.033558e+05   4.602972e+05
  -7.630636e+05   2.337951e+05
  -5.409996e+05  -2.889300e+05
  -3.955388e+04  -6.732189e+05
   3.896033e+05  -5.845554e+05
   5.015949e+05  -1.568066e+05
   3.002796e+05   1.768000e+05
   1.590173e+04   1.668116e+05
  -9.334363e+04  -2.235973e+04
   2.055487e+04  -5.638990e+04
   1.606278e+05   1.648426e+05
   1.105352e+05   3.879533e+05
  -1.242811e+05   2.902465e+05
  -3.191085e+05  -1.345724e+05
  -2.543820e+05  -5.144708e+05
   6.710931e+04  -4.660984e+05
   3.937220e+05  -1.078397e+04
   4.186194e+05   4.379558e+05
   6.963006e+04   5.106419e+05
  -3.647766e+05   2.309055e+05
  -4.785254e+05  -9.886364e+04
  -1.860225e+05  -2.554866e+05
   1.503559e+05  -2.401148e+05
   1.340199e+05  -1.456837e+05
  -1.725848e+05  -4.575399e+04
  -3.174214e+05  -2.182281e+04
  -3.461642e+04  -1.345968e+05
   4.124927e+05  -2.871909e+05
   5.591896e+05  -2.480049e+05
   2.896038e+05   5.982870e+04
  -8.504888e+04   3.731332e+05
  -2.363280e+05   3.533029e+05
  -1.379517e+05   1.905528e+04
   3.147629e+04  -2.456039e+05
   1.376198e+05  -1.564404e+05
   1.536557e+05   1.383961e+05
   8.309847e+04   2.794929e+05
  -5.238953e+04   1.436852e+05
  -1.737663e+05  -6.179285e+04
  -1.927617e+05  -1.105760e+05
  -1.112375e+05  -2.109774e+04
  -1.351974e+04   2.489557e+04
   4.560644e+04  -6.522038e+04
   9.033569e+04  -1.905976e+05
   1.487819e+05  -1.797230e+05
   1.805166e+05   1.718510e+04
   1.145758e+05   2.529962e+05
  -5.502623e+04   3.042013e+05
  -2.278541e+05   9.655235e+04
  -2.536612e+05  -1.917823e+05
  -6.052227e+04  -2.956554e+05
   2.339061e+05  -1.396058e+05
   3.692172e+05   9.624120e+04
   1.876901e+05   1.960320e+05
  -1.494829e+05   1.304339e+05
  -2.853622e+05   2.731970e+04
  -7.263787e+04  -6.929030e+03
   2.183277e+05   3.534937e+04
   2.021669e+05   1.122055e+05
  -1.445345e+05   1.578900e+05
  -4.367229e+05   7.975979e+04
