
 $NMID
 id='ANONYMOUS ', fmtdat='(2E16.6)'
 volume=1.0
 tramp=1.0
 $END
  -5.405621e+07  -1.055865e+06
  -3.152862e+07  -3.475835e+07
   8.450322e+06  -3.660669e+07
   2.697405e+07  -1.281564e+07
   1.533452e+07   7.761431e+06
  -3.708933e+06   8.811980e+06
  -9.259359e+06  -1.849049e+06
  -2.017885e+06  -9.462449e+06
   6.381633e+06  -8.340177e+06
   9.204971e+06  -1.345787e+06
   6.426238e+06   5.984086e+06
   6.074484e+05   8.008372e+06
  -3.763676e+06   2.587500e+06
  -2.300610e+06  -4.911423e+06
   3.753941e+06  -5.808132e+06
   7.390639e+06   1.618549e+06
   3.865197e+06   9.792542e+06
  -3.939830e+06   1.105887e+07
  -9.745535e+06   5.416795e+06
  -1.032232e+07  -2.068213e+06
  -6.377364e+06  -7.275369e+06
  -6.232952e+05  -8.512236e+06
   3.125778e+06  -5.966508e+06
   2.305368e+06  -2.410589e+06
  -7.179005e+05  -1.600457e+06
  -3.286463e+05  -3.576993e+06
   4.771689e+06  -4.059311e+06
   8.836257e+06  -5.378130e+05
   6.591658e+06   3.833885e+06
   4.318025e+05   4.783128e+06
  -3.247235e+06   2.563476e+06
  -2.334306e+06   3.085271e+05
   1.838946e+05  -6.238796e+05
   1.688065e+06  -5.185616e+05
   1.946666e+06   1.003329e+06
   8.324026e+05   3.445542e+06
  -1.628930e+06   3.693003e+06
  -3.253519e+06   6.358757e+04
  -1.817858e+06  -3.495131e+06
   7.646036e+05  -2.110618e+06
   4.590742e+05   2.025290e+06
  -2.251752e+06   1.987494e+06
  -2.169000e+06  -3.128055e+06
   2.647356e+06  -5.778936e+06
   6.894430e+06  -7.438477e+05
   4.803565e+06   6.832762e+06
  -2.104074e+06   8.162495e+06
  -7.132599e+06   2.155227e+06
  -6.318466e+06  -4.333546e+06
  -1.433921e+06  -5.613444e+06
   3.302431e+06  -2.311422e+06
   4.703248e+06   1.651459e+06
   1.997223e+06   3.330320e+06
  -2.416550e+06   1.949300e+06
  -4.230402e+06  -1.048958e+06
  -1.711873e+06  -2.657881e+06
   1.675005e+06  -1.247168e+06
   1.523085e+06   1.011176e+06
  -1.405999e+06   7.130565e+05
  -2.268237e+06  -1.961208e+06
   9.166136e+05  -3.414615e+06
   4.670738e+06  -1.641979e+06
   5.019631e+06   1.581477e+06
   2.035204e+06   3.898198e+06
  -1.732929e+06   4.887432e+06
  -4.590032e+06   4.439430e+06
  -5.727723e+06   1.613604e+06
  -4.302003e+06  -2.924240e+06
  -8.392007e+05  -5.711818e+06
   1.896469e+06  -4.313108e+06
   1.742208e+06  -9.038885e+05
   2.757802e+04   4.512988e+05
  -3.040731e+05  -8.373258e+05
   1.248113e+06  -1.749518e+06
   2.496327e+06  -4.130665e+05
   1.889707e+06   1.570626e+06
   1.486850e+05   1.840829e+06
  -1.248753e+06   2.086638e+05
  -1.426036e+06  -1.773451e+06
  -1.496020e+04  -2.599218e+06
   2.491575e+06  -1.542075e+06
   4.133851e+06   1.050853e+06
   3.023678e+06   3.517444e+06
  -5.872514e+04   4.023221e+06
  -2.225930e+06   2.575909e+06
  -2.189402e+06   1.005742e+06
  -1.739948e+06   5.170450e+05
  -2.673463e+06   3.113550e+05
  -3.898568e+06  -8.112261e+05
  -3.067864e+06  -2.569521e+06
  -3.110264e+04  -3.693000e+06
   2.909357e+06  -3.434644e+06
   3.722002e+06  -1.888751e+06
   2.391639e+06   3.276787e+05
   3.127841e+05   1.975574e+06
  -9.396178e+05   1.759478e+06
  -5.155971e+05  -7.139278e+03
   9.659848e+05  -1.171637e+06
   1.737945e+06  -3.370182e+05
   8.518045e+05   1.112100e+06
  -4.492989e+05   9.865631e+05
  -3.162417e+05  -3.649991e+05
   1.057902e+06  -5.071785e+05
   1.632764e+06   1.402755e+06
   3.190035e+05   3.273035e+06
  -1.741030e+06   2.916833e+06
  -2.913556e+06   6.850162e+05
  -2.805056e+06  -1.500802e+06
  -1.823559e+06  -2.472744e+06
  -3.108450e+05  -2.259088e+06
   1.103858e+06  -1.275164e+06
   1.392906e+06  -1.989071e+05
   4.392339e+05   4.967882e+04
  -3.036688e+05  -6.818900e+05
   4.211988e+05  -1.218509e+06
   1.768828e+06  -4.837712e+05
   1.826493e+06   8.809026e+05
   2.919340e+05   1.312151e+06
  -1.073505e+06   4.730108e+05
  -7.470122e+05  -4.301648e+05
   7.976512e+05  -3.812058e+05
   1.885357e+06   4.116196e+05
   1.429082e+06   1.247996e+06
  -3.132957e+05   1.686318e+06
  -2.084895e+06   1.377426e+06
  -2.473770e+06   1.724007e+05
  -1.068881e+06  -1.181246e+06
   8.716176e+05  -1.366057e+06
   1.447717e+06  -1.482870e+05
   1.838933e+05   9.979552e+05
  -1.383205e+06   6.395472e+05
  -1.518469e+06  -7.580979e+05
  -2.243493e+05  -1.491293e+06
   1.033995e+06  -8.064631e+05
   1.104878e+06   3.603559e+05
   1.624787e+05   7.227992e+05
  -7.414720e+05   2.364194e+04
  -6.511995e+05  -9.665616e+05
   5.317287e+05  -1.274194e+06
   1.805852e+06  -4.647502e+05
   1.813341e+06   9.720070e+05
   3.038688e+05   1.874774e+06
  -1.341020e+06   1.443953e+06
  -1.558418e+06   1.347510e+05
  -4.128661e+05  -7.987000e+05
   6.169902e+05  -6.936979e+05
   5.428225e+05  -5.892546e+04
  -1.345813e+05   2.726648e+05
  -4.048016e+05   1.286685e+05
  -3.176111e+04  -4.597844e+04
   4.371276e+05   1.459422e+05
   4.242587e+05   6.657831e+05
  -2.489907e+05   1.066357e+06
  -1.270107e+06   7.615142e+05
  -1.855277e+06  -4.205733e+05
  -1.275383e+06  -1.772181e+06
   2.403579e+05  -2.150782e+06
   1.464795e+06  -1.194868e+06
   1.470456e+06   1.737503e+05
   6.944433e+05   7.834598e+05
   2.554347e+05   5.062489e+05
   4.663165e+05   1.559240e+05
   6.050725e+05   3.131397e+05
   7.212614e+04   7.190838e+05
  -8.183657e+05   7.769205e+05
  -1.289336e+06   2.319201e+05
  -8.837626e+05  -6.561440e+05
   2.778282e+05  -1.253689e+06
   1.554129e+06  -8.908396e+05
   1.979813e+06   4.859147e+05
   9.439444e+05   1.907156e+06
  -9.906913e+05   2.095352e+06
  -2.322516e+06   8.399085e+05
  -2.065069e+06  -6.804267e+05
  -7.649600e+05  -1.215566e+06
   2.351449e+05  -7.868527e+05
   3.191402e+05  -4.004097e+05
   1.672881e+04  -6.795919e+05
   8.525643e+04  -1.208890e+06
   6.364271e+05  -1.169859e+06
   1.183992e+06  -2.699615e+05
   1.185391e+06   9.860334e+05
   4.679971e+05   1.700207e+06
  -5.758311e+05   1.272467e+06
  -1.143457e+06  -3.511337e+04
  -6.880087e+05  -1.182091e+06
   4.091908e+05  -1.241880e+06
   1.083722e+06  -2.988080e+05
   7.136883e+05   6.997279e+05
  -1.741680e+05   9.911318e+05
  -5.475104e+05   6.790663e+05
  -1.050577e+05   3.474757e+05
   3.914791e+05   2.962610e+05
   5.330019e+04   3.387333e+05
  -1.048731e+06   1.581764e+05
  -1.862928e+06  -3.477511e+05
  -1.425102e+06  -9.752357e+05
   9.507992e+04  -1.305574e+06
   1.481166e+06  -9.995372e+05
   1.655046e+06  -1.884872e+05
   7.213272e+05   5.020083e+05
  -2.625988e+05   5.241427e+05
  -4.693024e+05   1.473902e+03
  -3.297243e+04  -4.048472e+05
   3.854976e+05  -2.322764e+05
   4.302592e+05   3.128695e+05
   2.498718e+05   6.413614e+05
   1.110100e+05   4.285204e+05
   1.194390e+05  -5.797576e+04
   2.261119e+05  -2.269064e+05
   2.347185e+05   2.160965e+05
  -1.249790e+05   8.669415e+05
  -8.230266e+05   9.438254e+05
  -1.262571e+06   1.566346e+05
  -7.890389e+05  -8.308009e+05
   3.902806e+05  -1.045333e+06
   1.155091e+06  -3.161771e+05
   6.527709e+05   5.115808e+05
  -6.474246e+05   5.592088e+05
  -1.398818e+06  -1.338371e+05
  -8.317174e+05  -7.964534e+05
   4.857688e+05  -8.410810e+05
   1.333442e+06  -3.468363e+05
   1.060624e+06   2.194572e+05
   9.086057e+04   4.510613e+05
  -5.882743e+05   2.099421e+05
  -3.506055e+05  -2.818126e+05
   5.120055e+05  -4.782724e+05
   1.060808e+06   5.820172e+04
   6.222197e+05   1.049430e+06
  -5.041812e+05   1.531394e+06
  -1.315522e+06   8.024955e+05
  -1.114769e+06  -6.751565e+05
  -1.649202e+05  -1.590894e+06
   6.751819e+05  -1.121259e+06
   8.128586e+05   1.968633e+05
   3.386596e+05   1.070491e+06
  -2.453724e+05   8.372870e+05
  -5.124050e+05   5.050141e+04
  -3.826847e+05  -3.348767e+05
  -1.134565e+05  -1.132027e+05
  -5.604518e+04   7.406593e+04
  -2.890281e+05  -2.903613e+05
  -4.580084e+05  -8.776365e+05
  -1.182496e+05  -9.542962e+05
   6.851284e+05  -3.332868e+05
   1.301653e+06   4.313153e+05
   1.093166e+06   7.598166e+05
   1.511426e+05   6.323035e+05
  -7.328656e+05   3.691897e+05
  -8.661539e+05   1.388036e+05
  -3.477602e+05  -7.270941e+04
   1.193032e+05  -2.038682e+05
   7.257629e+04  -1.606581e+05
  -1.939742e+05  -6.151796e+04
  -6.092860e+04  -1.174065e+05
   5.469843e+05  -2.245285e+05
   9.407532e+05   4.249677e+03
   4.458038e+05   6.315815e+05
  -7.183431e+05   1.075787e+06
  -1.554161e+06   6.973517e+05
  -1.314835e+06  -3.701912e+05
  -2.570352e+05  -1.250913e+06
   7.048013e+05  -1.239821e+06
   9.429020e+05  -5.068083e+05
   5.795401e+05   1.848828e+05
   1.375554e+05   3.226179e+05
  -2.550536e+04   8.776461e+04
   8.566496e+04   1.676571e+04
   2.450506e+05   3.427128e+05
   1.991593e+05   7.228651e+05
  -1.536526e+05   6.169334e+05
  -6.012595e+05  -7.824254e+04
  -6.878681e+05  -8.228173e+05
  -1.525808e+05  -9.300407e+05
   6.480029e+05  -2.665136e+05
   9.418840e+05   6.043423e+05
   3.409438e+05   9.784729e+05
  -6.322370e+05   6.398610e+05
  -1.023576e+06  -5.510945e+04
  -4.995913e+05  -5.804147e+05
   2.621786e+05  -6.477483e+05
   3.774501e+05  -3.368360e+05
  -1.806598e+05   9.790954e+03
  -5.702750e+05   4.221377e+04
  -1.450789e+05  -2.843362e+05
   7.385458e+05  -6.006698e+05
   1.161034e+06  -4.487908e+05
   7.219249e+05   1.941572e+05
  -8.341477e+04   7.944838e+05
  -5.317657e+05   7.811855e+05
  -4.242866e+05   1.734921e+05
  -7.168086e+04  -4.121129e+05
   2.066148e+05  -4.131616e+05
   3.144755e+05   9.307980e+04
   2.342166e+05   5.149424e+05
  -3.774900e+04   4.179129e+05
  -3.523320e+05  -2.239420e+04
  -4.382195e+05  -2.778978e+05
  -2.163889e+05  -1.101073e+05
   4.913703e+04   1.654479e+05
   7.190013e+04   1.014971e+05
  -6.652535e+04  -2.936290e+05
  -3.150953e+04  -5.385726e+05
   2.633223e+05  -2.687886e+05
   4.652445e+05   2.936524e+05
   2.122915e+05   5.759695e+05
  -3.450437e+05   3.033174e+05
  -6.231981e+05  -2.224978e+05
  -2.503881e+05  -4.971458e+05
   4.650840e+05  -3.343098e+05
   8.147030e+05   4.727895e+04
   4.421987e+05   3.356709e+05
  -2.626193e+05   3.895133e+05
  -5.835059e+05   2.432718e+05
  -2.559851e+05   2.255646e+04
   2.666194e+05  -9.720954e+04
   3.496139e+05   9.148968e+03
  -1.115333e+05   2.359194e+05
  -6.041895e+05   2.507188e+05
