
 $NMID
 id='ANONYMOUS ', fmtdat='(2E16.6)'
 volume=1.0
 tramp=1.0
 $END
   6.727530e+06  -3.137882e+06
   5.301236e+06   3.233391e+06
   1.192164e+05   5.153141e+06
  -2.880371e+06   2.094230e+06
  -1.745249e+06  -1.218884e+06
   5.642761e+05  -1.496284e+06
   1.204576e+06   1.094807e+05
   3.830160e+05   1.131161e+06
  -5.116799e+05   9.586667e+05
  -1.004030e+06   2.843479e+05
  -1.067161e+06  -4.375135e+05
  -4.698728e+05  -9.043695e+05
   4.790821e+05  -6.690643e+05
   7.667999e+05   1.197686e+05
   3.999822e+04   5.227330e+05
  -7.597677e+05   1.547004e+04
  -6.913426e+05  -8.001928e+05
   6.657644e+04  -1.126059e+06
   8.323978e+05  -8.694743e+05
   1.290770e+06  -2.508453e+05
   1.264288e+06   6.267912e+05
   5.212575e+05   1.326884e+06
  -5.501066e+05   1.087348e+06
  -8.856082e+05  -2.911547e+04
  -1.129456e+05  -7.484382e+05
   6.897296e+05  -1.521554e+05
   3.820851e+05   9.633417e+05
  -6.631705e+05   1.134068e+06
  -1.189651e+06   1.648022e+05
  -7.710899e+05  -8.501820e+05
  -2.319796e+04  -1.087187e+06
   5.036546e+05  -6.762369e+05
   7.085292e+05  -5.361229e+04
   4.849124e+05   4.554598e+05
  -1.401734e+05   4.872634e+05
  -5.294026e+05  -6.008447e+04
  -6.681224e+04  -5.556239e+05
   7.394874e+05  -2.669662e+05
   7.594400e+05   4.971176e+05
  -6.279079e+04   7.080949e+05
  -5.521892e+05   1.784959e+05
  -1.248747e+05  -1.324798e+05
   3.018353e+05   3.255279e+05
  -1.928923e+05   7.757677e+05
  -1.047223e+06   3.305994e+05
  -1.072647e+06  -6.363865e+05
  -1.848699e+05  -1.075998e+06
   6.211509e+05  -7.054077e+05
   6.911771e+05  -1.159806e+05
   2.812251e+05   2.089111e+05
  -1.166680e+05   2.525848e+05
  -2.691995e+05   6.916725e+04
  -8.434773e+04  -2.610242e+05
   3.429094e+05  -3.890666e+05
   5.718428e+05  -5.434272e+04
   2.740103e+05   3.767703e+05
  -1.761703e+05   3.366771e+05
  -1.449626e+05  -3.342263e+04
   2.610326e+05  -5.468113e+04
   3.013239e+05   3.921323e+05
  -2.332614e+05   6.495980e+05
  -6.844809e+05   3.201728e+05
  -5.728337e+05  -1.771011e+05
  -2.650698e+05  -3.770232e+05
  -2.108145e+05  -4.378496e+05
  -1.695510e+05  -6.087409e+05
   2.277741e+05  -6.116867e+05
   6.498397e+05  -1.506367e+05
   5.087581e+05   3.694714e+05
  -3.264741e+04   3.084601e+05
  -2.152707e+05  -2.165904e+05
   2.042053e+05  -4.434646e+05
   6.263765e+05  -3.252894e+04
   4.854112e+05   5.354454e+05
  -5.930300e+04   6.831464e+05
  -4.683844e+05   3.797638e+05
  -4.608028e+05  -4.470777e+04
  -1.327870e+05  -3.098475e+05
   2.393418e+05  -2.638497e+05
   3.409704e+05   8.507558e+04
   2.938820e+04   4.353743e+05
  -4.317608e+05   3.844394e+05
  -5.670059e+05  -6.439454e+04
  -2.526801e+05  -4.340788e+05
   1.269094e+05  -3.755612e+05
   2.018177e+05  -9.319038e+04
   5.192872e+04   9.297933e+03
  -2.730936e+04  -1.299630e+05
   5.501313e+04  -2.629915e+05
   1.987305e+05  -2.135286e+05
   3.279127e+05   1.447097e+03
   3.659649e+05   2.804724e+05
   1.851606e+05   4.537935e+05
  -1.695119e+05   3.354282e+05
  -3.693743e+05  -1.897456e+04
  -1.901764e+05  -2.434868e+05
   1.185325e+05  -9.072975e+04
   1.472692e+05   1.983840e+05
  -9.139783e+04   2.199328e+05
  -2.235778e+05  -1.688951e+04
  -1.019997e+05  -1.595448e+05
   3.313171e+04  -8.317877e+04
   8.796757e+03  -1.538440e+04
  -3.537449e+04  -7.487336e+04
   2.475148e+04  -7.949505e+04
   5.784429e+04   6.109112e+04
  -4.310263e+04   1.214634e+05
  -1.151216e+05  -5.542547e+04
   3.971349e+03  -2.407577e+05
   1.691125e+05  -1.576066e+05
   1.510002e+05   7.644914e+04
   1.236494e+04   1.429783e+05
  -1.117328e+04   1.959346e+04
   9.099476e+04  -3.004412e+04
   1.054528e+05   9.546462e+04
  -3.929901e+04   1.985324e+05
  -1.696889e+05   1.149918e+05
  -1.496215e+05  -6.594245e+04
  -4.207804e+04  -1.725563e+05
   5.233433e+04  -1.478116e+05
   1.169554e+05  -2.072480e+04
   1.245157e+05   1.454726e+05
   1.484162e+04   2.203657e+05
  -1.492300e+05   9.219468e+04
  -1.780803e+05  -1.384708e+05
  -1.760999e+04  -2.091061e+05
   1.302687e+05  -3.150260e+04
   7.466027e+04   1.656413e+05
  -9.622097e+04   1.383323e+05
  -1.524822e+05  -5.736506e+04
  -3.870282e+04  -1.795522e+05
   9.325176e+04  -1.249088e+05
   1.133100e+05   4.312690e+03
   3.700727e+04   8.397582e+04
  -5.233586e+04   7.348039e+04
  -8.341458e+04  -1.653953e+04
  -1.381037e+04  -1.231156e+05
   1.226774e+05  -1.246606e+05
   1.933424e+05   3.120809e+04
   9.535332e+04   2.053615e+05
  -9.216286e+04   2.005850e+05
  -1.809062e+05   1.948337e+04
  -1.016719e+05  -1.324231e+05
   3.232573e+04  -1.124701e+05
   9.206234e+04   1.094811e+04
   6.138267e+04   9.822410e+04
  -1.316464e+04   1.023219e+05
  -9.162996e+04   4.781613e+04
  -1.245564e+05  -3.705792e+04
  -6.965867e+04  -1.002901e+05
   2.409699e+04  -7.556506e+04
   3.939577e+04   1.250842e+04
  -4.409943e+04   3.581132e+04
  -9.380172e+04  -6.475727e+04
  -5.130935e+03  -1.704458e+05
   1.411428e+05  -1.388751e+05
   1.904763e+05  -1.102476e+03
   1.191015e+05   9.790136e+04
   2.827889e+04   1.036849e+05
  -1.716341e+04   8.236375e+04
  -3.554975e+04   7.794158e+04
  -4.180068e+04   6.330523e+04
  -2.755928e+04   3.072163e+04
  -2.210081e+04   1.381973e+04
  -6.394316e+04   3.090331e+03
  -1.031444e+05  -5.007724e+04
  -4.272881e+04  -1.154531e+05
   9.373160e+04  -8.210127e+04
   1.460530e+05   6.846203e+04
   2.694152e+04   1.853689e+05
  -1.435245e+05   1.268801e+05
  -1.885906e+05  -5.223134e+04
  -9.148042e+04  -1.772474e+05
   2.205099e+04  -1.686377e+05
   6.704088e+04  -9.299012e+04
   7.088821e+04  -3.253846e+04
   8.319047e+04   5.137212e+02
   1.042207e+05   2.378245e+04
   1.102810e+05   4.344430e+04
   8.461026e+04   6.876079e+04
   1.424470e+04   1.048869e+05
  -8.937945e+04   1.166256e+05
  -1.608623e+05   5.666726e+04
  -1.286930e+05  -5.164819e+04
  -9.485968e+03  -1.137166e+05
   9.248458e+04  -7.371731e+04
   9.910101e+04   1.609630e+04
   3.355804e+04   6.390628e+04
  -3.162032e+04   4.224136e+04
  -5.797191e+04  -3.239374e+03
  -5.109546e+04  -1.982123e+04
  -2.908362e+04   3.971649e+03
  -1.272392e+04   3.432600e+04
  -1.810297e+04   1.768502e+04
  -2.996766e+04  -6.420646e+04
  -7.298084e+03  -1.487386e+05
   5.748990e+04  -1.374260e+05
   1.100053e+05  -1.428645e+04
   9.557140e+04   1.144521e+05
   2.952650e+04   1.361125e+05
  -2.509939e+04   5.951474e+04
  -3.331002e+04  -1.441173e+04
  -1.123599e+04  -2.432988e+04
   9.814816e+03   2.895317e+03
   9.347240e+03   2.167461e+04
  -1.804745e+04   2.357947e+04
  -4.992641e+04   1.610339e+04
  -4.158526e+04   5.161113e+02
   1.625937e+04  -9.185620e+03
   5.879923e+04   9.690791e+03
   1.678658e+04   4.137338e+04
  -7.766520e+04   3.011878e+04
  -1.126070e+05  -4.081855e+04
  -3.874517e+04  -1.026612e+05
   6.344204e+04  -7.681398e+04
   8.800340e+04   1.995501e+04
   2.926621e+04   8.763731e+04
  -3.489027e+04   5.722841e+04
  -4.804652e+04  -3.841265e+04
  -1.609163e+04  -1.074928e+05
   3.161601e+04  -8.809490e+04
   6.824694e+04   3.886581e+03
   6.559853e+04   9.068896e+04
   1.612160e+04   9.685933e+04
  -3.604631e+04   2.181644e+04
  -3.100063e+04  -5.013794e+04
   2.577900e+04  -3.573936e+04
   5.549655e+04   4.937177e+04
   1.067989e+03   1.044878e+05
  -9.587942e+04   6.110946e+04
  -1.369273e+05  -4.140795e+04
  -7.270588e+04  -1.093930e+05
   4.885907e+04  -9.615079e+04
   1.294976e+05  -2.932152e+04
   1.063566e+05   3.785766e+04
   5.000078e+03   6.991051e+04
  -8.261245e+04   5.514842e+04
  -8.511576e+04   5.359460e+03
  -2.304893e+04  -4.289195e+04
   2.221855e+04  -5.237654e+04
   1.241896e+04  -2.510329e+04
  -5.686051e+03  -3.578368e+03
   2.208724e+04  -1.831401e+04
   7.375650e+04  -4.405851e+04
   8.305465e+04  -2.644901e+04
   3.385006e+04   4.655833e+04
  -2.374617e+04   1.160310e+05
  -4.721230e+04   1.093288e+05
  -4.539837e+04   2.402860e+04
  -4.007125e+04  -6.152333e+04
  -2.774461e+04  -7.244861e+04
  -2.860366e+03  -2.092615e+04
   1.519070e+04   1.523356e+04
   9.949737e+03  -5.048103e+03
   7.659676e+02  -3.558084e+04
   1.353620e+04  -1.184990e+04
   3.098780e+04   5.456584e+04
   9.462864e+03   8.499287e+04
  -5.278013e+04   3.220738e+04
  -9.659246e+04  -6.284373e+04
  -6.625882e+04  -1.205519e+05
   2.432308e+04  -1.030587e+05
   1.034686e+05  -3.375031e+04
   1.120602e+05   3.868701e+04
   5.510630e+04   7.494708e+04
  -9.857154e+03   6.120293e+04
  -3.021888e+04   1.785653e+04
  -8.192422e+03  -1.103510e+04
   6.326125e+03   1.401379e+03
  -2.190500e+04   3.226177e+04
  -6.454784e+04   3.265852e+04
  -5.995643e+04  -1.284901e+04
   7.024286e+03  -6.368987e+04
   7.735842e+04  -6.557398e+04
   8.222025e+04  -8.060145e+03
   1.906777e+04   6.259032e+04
  -5.267225e+04   8.358678e+04
  -7.910728e+04   3.233645e+04
  -5.453949e+04  -4.801531e+04
  -5.717010e+03  -8.426486e+04
   3.806981e+04  -4.732834e+04
   5.465725e+04   1.299036e+04
   3.543353e+04   2.451821e+04
  -1.978941e+02  -1.846324e+04
  -1.186297e+04  -4.817656e+04
   1.916738e+04  -1.249133e+04
   5.924390e+04   5.682715e+04
   5.416173e+04   8.652734e+04
  -5.035074e+03   5.237092e+04
  -6.449858e+04  -2.498034e+03
  -6.584028e+04  -3.008222e+04
  -1.225438e+04  -2.492062e+04
   3.649447e+04  -6.414248e+03
   3.239648e+04   1.339349e+04
  -1.084824e+04   2.783805e+04
  -4.085446e+04   2.426572e+04
  -2.894955e+04  -1.855941e+03
   2.802281e+03  -3.068314e+04
   1.572486e+04  -3.597547e+04
   2.361092e+03  -1.713877e+04
  -9.464362e+03   1.807453e+03
   4.081800e+03   4.824943e+03
   3.144339e+04   1.611270e+03
   3.897948e+04   9.306092e+03
   1.082166e+04   2.652534e+04
  -3.127597e+04   3.244522e+04
  -4.908260e+04   1.030027e+04
  -2.612284e+04  -2.940546e+04
   1.670741e+04  -5.060767e+04
   4.241612e+04  -2.463530e+04
   3.263347e+04   3.264359e+04
   8.585630e+02   6.620081e+04
  -2.528452e+04   3.884066e+04
  -2.975452e+04  -2.109750e+04
  -1.641331e+04  -4.720319e+04
  -6.975575e+01  -1.325727e+04
   4.514238e+03   3.460416e+04
  -8.777437e+03   3.478585e+04
  -2.838816e+04  -1.583224e+04
  -2.716120e+04  -6.193930e+04
