
 $NMID
 id='ANONYMOUS ', fmtdat='(2E16.6)'
 volume=1.0
 tramp=1.0
 $END
   4.283566e+07   2.223673e+05
   2.619824e+07   2.518266e+07
  -4.561841e+06   2.847674e+07
  -2.039707e+07   1.256689e+07
  -1.311164e+07  -3.735704e+06
   1.747310e+06  -7.186020e+06
   7.693385e+06  -1.522141e+05
   3.094708e+06   7.259509e+06
  -4.069091e+06   8.134903e+06
  -7.463909e+06   2.362257e+06
  -5.693914e+06  -4.917480e+06
  -6.862735e+05  -7.118094e+06
   3.312481e+06  -2.043999e+06
   2.339620e+06   4.901210e+06
  -2.755028e+06   5.848251e+06
  -6.245488e+06  -6.029501e+05
  -3.813870e+06  -7.914918e+06
   2.679396e+06  -9.355784e+06
   7.825907e+06  -4.608496e+06
   8.265993e+06   1.811726e+06
   4.676712e+06   5.821268e+06
   2.055226e+05   6.178695e+06
  -1.804224e+06   4.098711e+06
  -3.588544e+05   2.251242e+06
   1.604667e+06   2.640868e+06
  -6.624712e+04   4.158178e+06
  -5.180394e+06   3.576779e+06
  -8.378540e+06  -5.844681e+04
  -5.620668e+06  -3.697455e+06
   4.125326e+05  -4.097123e+06
   3.679190e+06  -1.685696e+06
   2.055489e+06   7.247934e+05
  -1.310850e+06   1.396975e+06
  -2.876957e+06   2.938291e+05
  -2.061974e+06  -1.969493e+06
  -7.584472e+04  -3.800588e+06
   1.763422e+06  -2.910605e+06
   2.176539e+06   6.104350e+05
   7.691664e+05   2.882394e+06
  -6.909426e+05   8.539646e+05
   5.062062e+04  -2.662919e+06
   2.172599e+06  -2.179388e+06
   2.121074e+06   2.371715e+06
  -1.392487e+06   4.752606e+06
  -4.802814e+06   9.340766e+05
  -3.810727e+06  -5.081074e+06
   1.230848e+06  -6.420876e+06
   5.735223e+06  -1.887910e+06
   5.893464e+06   3.493736e+06
   1.937056e+06   5.020116e+06
  -2.798230e+06   2.582858e+06
  -4.695969e+06  -9.146818e+05
  -2.447587e+06  -2.754044e+06
   1.696922e+06  -1.915934e+06
   3.649804e+06   5.187230e+05
   1.722379e+06   2.033977e+06
  -1.302196e+06   1.121950e+06
  -1.615308e+06  -7.781446e+05
   7.061988e+05  -1.001996e+06
   2.010339e+06   7.948492e+05
   9.836927e+04   2.280356e+06
  -3.057519e+06   1.620305e+06
  -4.089263e+06  -6.197770e+05
  -2.006705e+06  -2.917764e+06
   1.576026e+06  -4.321852e+06
   4.499275e+06  -4.003082e+06
   5.299863e+06  -1.250290e+06
   3.609703e+06   2.843519e+06
   6.467176e+05   5.241351e+06
  -1.337371e+06   4.157639e+06
  -1.243054e+06   1.460614e+06
  -3.721737e+05   3.019631e+05
  -6.298407e+05   1.046681e+06
  -1.982470e+06   1.300561e+06
  -2.688646e+06  -3.062079e+05
  -1.681496e+06  -2.213912e+06
   3.050105e+05  -2.194343e+06
   1.773458e+06  -1.234585e+05
   1.687136e+06   2.146297e+06
  -1.026811e+05   2.780377e+06
  -2.578610e+06   1.304937e+06
  -3.786984e+06  -1.288624e+06
  -2.502549e+06  -3.236385e+06
   1.503199e+05  -3.339292e+06
   1.777242e+06  -2.068589e+06
   1.655599e+06  -9.700213e+05
   1.472189e+06  -7.678018e+05
   2.627816e+06  -6.091905e+05
   3.970325e+06   5.542548e+05
   3.247487e+06   2.462551e+06
   1.788204e+05   3.831278e+06
  -3.012475e+06   3.648154e+06
  -3.984961e+06   1.869974e+06
  -2.444574e+06  -5.845299e+05
  -5.009346e+04  -2.162383e+06
   1.191730e+06  -1.721059e+06
   5.079311e+05   1.064130e+05
  -1.075393e+06   1.195779e+06
  -1.728049e+06   3.528327e+05
  -7.634157e+05  -1.090105e+06
   5.476300e+05  -1.055624e+06
   5.312777e+05   3.314928e+05
  -7.787384e+05   8.515854e+05
  -1.714294e+06  -7.232575e+05
  -1.015842e+06  -2.909341e+06
   9.031072e+05  -3.370113e+06
   2.700002e+06  -1.575970e+06
   3.337114e+06   9.957708e+05
   2.479985e+06   2.616326e+06
   5.497109e+05   2.602464e+06
  -1.218058e+06   1.407918e+06
  -1.528309e+06   1.790580e+05
  -4.649969e+05  -4.108179e+04
   3.469911e+05   7.000830e+05
  -3.332257e+05   1.208546e+06
  -1.691141e+06   5.452412e+05
  -1.867016e+06  -7.329730e+05
  -4.159305e+05  -1.256812e+06
   1.071792e+06  -5.737562e+05
   9.148327e+05   4.074654e+05
  -7.340054e+05   6.176433e+05
  -2.153395e+06  -1.257639e+05
  -1.844991e+06  -1.251513e+06
   1.153057e+05  -1.983052e+06
   2.178789e+06  -1.679442e+06
   2.633138e+06  -3.101379e+05
   1.143797e+06   1.139648e+06
  -8.255495e+05   1.346520e+06
  -1.383366e+06   1.665951e+05
  -1.482316e+05  -9.724150e+05
   1.406876e+06  -6.866755e+05
   1.630605e+06   6.827630e+05
   4.068554e+05   1.541844e+06
  -9.536397e+05   1.004331e+06
  -1.206468e+06  -1.878181e+05
  -3.070305e+05  -6.996427e+05
   7.030938e+05  -7.031128e+04
   6.805404e+05   9.755880e+05
  -5.548775e+05   1.332967e+06
  -1.898541e+06   4.965813e+05
  -1.912036e+06  -9.924350e+05
  -3.737767e+05  -1.941182e+06
   1.317551e+06  -1.556372e+06
   1.613014e+06  -2.401322e+05
   5.113260e+05   7.975697e+05
  -5.970760e+05   7.829913e+05
  -6.423446e+05   7.510401e+04
   6.697396e+04  -4.187149e+05
   5.217821e+05  -2.867824e+05
   2.471332e+05   7.540243e+04
  -3.505604e+05   3.919215e+04
  -5.276496e+05  -5.373207e+05
   1.221148e+05  -1.102581e+06
   1.273208e+06  -8.721944e+05
   1.967247e+06   3.633832e+05
   1.392503e+06   1.820376e+06
  -1.886297e+05   2.308056e+06
  -1.525143e+06   1.407634e+06
  -1.657259e+06  -5.769023e+04
  -9.118293e+05  -8.928916e+05
  -3.411634e+05  -7.501786e+05
  -3.860513e+05  -2.930639e+05
  -5.073310e+05  -2.647760e+05
  -7.585119e+04  -6.662253e+05
   7.933881e+05  -8.726483e+05
   1.382051e+06  -3.654925e+05
   1.063198e+06   6.878581e+05
  -1.800837e+05   1.453118e+06
  -1.626929e+06   1.080635e+06
  -2.160407e+06  -4.246564e+05
  -1.130423e+06  -1.962981e+06
   8.726643e+05  -2.237922e+06
   2.346477e+06  -1.039691e+06
   2.259807e+06   5.332301e+05
   1.014838e+06   1.251512e+06
  -1.290702e+05   9.792981e+05
  -4.208250e+05   5.682540e+05
  -1.797203e+05   7.100955e+05
  -1.471481e+05   1.173004e+06
  -6.099858e+05   1.172035e+06
  -1.188676e+06   2.916039e+05
  -1.257858e+06  -1.022254e+06
  -5.309990e+05  -1.795805e+06
   5.897045e+05  -1.366219e+06
   1.224244e+06  -2.101940e+04
   7.955817e+05   1.176492e+06
  -3.078617e+05   1.316383e+06
  -1.033472e+06   4.512897e+05
  -7.598671e+05  -5.587213e+05
   4.564821e+04  -9.615539e+05
   4.177896e+05  -7.511872e+05
   4.155726e+04  -4.268021e+05
  -3.979858e+05  -3.346400e+05
  -4.942677e+04  -3.709525e+05
   1.056539e+06  -2.159860e+05
   1.914132e+06   2.856617e+05
   1.536356e+06   9.420454e+05
   2.302268e+04   1.317185e+06
  -1.437820e+06   1.070151e+06
  -1.708951e+06   3.117894e+05
  -8.082383e+05  -3.926779e+05
   2.179197e+05  -5.070588e+05
   4.644191e+05  -6.238998e+04
   8.561867e+03   3.589818e+05
  -4.407016e+05   2.367467e+05
  -4.505153e+05  -3.229056e+05
  -1.957437e+05  -7.007628e+05
  -4.757851e+04  -4.596224e+05
  -1.332915e+05   1.252616e+05
  -2.986256e+05   3.236131e+05
  -2.717219e+05  -2.122734e+05
   1.509956e+05  -9.542902e+05
   8.435243e+05  -1.007053e+06
   1.234339e+06  -1.392827e+05
   7.567013e+05   8.666166e+05
  -3.888672e+05   1.037457e+06
  -1.160367e+06   2.795041e+05
  -6.930391e+05  -5.548159e+05
   6.489275e+05  -6.287817e+05
   1.527809e+06   5.258528e+04
   1.023453e+06   7.965998e+05
  -4.040800e+05   9.792501e+05
  -1.429263e+06   5.322483e+05
  -1.213547e+06  -1.357688e+05
  -1.560063e+05  -4.975004e+05
   6.085736e+05  -2.823072e+05
   3.513454e+05   2.631726e+05
  -5.753264e+05   4.795414e+05
  -1.123112e+06  -1.028918e+05
  -6.067785e+05  -1.138574e+06
   5.983064e+05  -1.609965e+06
   1.431263e+06  -8.243672e+05
   1.200288e+06   7.304933e+05
   1.990059e+05   1.717655e+06
  -6.977059e+05   1.262564e+06
  -8.905323e+05  -1.353125e+05
  -4.469711e+05  -1.129509e+06
   1.670662e+05  -9.444013e+05
   5.246151e+05  -9.820714e+04
   4.732211e+05   3.618327e+05
   1.855549e+05   1.374813e+05
   3.457842e+04  -9.938546e+04
   2.280248e+05   2.634394e+05
   4.775513e+05   9.120126e+05
   2.230457e+05   1.032810e+06
  -6.414103e+05   3.855617e+05
  -1.417365e+06  -4.350093e+05
  -1.259117e+06  -7.887048e+05
  -1.846714e+05  -6.591538e+05
   8.387011e+05  -4.049333e+05
   9.479843e+05  -1.913422e+05
   3.219327e+05   3.421199e+04
  -1.477834e+05   2.144520e+05
  -1.618925e+03   2.091043e+05
   2.865087e+05   1.033527e+05
   3.708337e+04   1.296550e+05
  -6.646626e+05   2.200255e+05
  -9.962223e+05  -1.432751e+04
  -3.719437e+05  -6.566281e+05
   8.268208e+05  -1.113316e+06
   1.599592e+06  -7.083336e+05
   1.314204e+06   4.232965e+05
   2.596633e+05   1.346905e+06
  -7.172019e+05   1.307349e+06
  -9.998178e+05   5.003037e+05
  -6.326180e+05  -2.335394e+05
  -1.175341e+05  -3.418915e+05
   9.273085e+04  -4.917422e+04
  -6.667240e+04   3.484033e+04
  -3.013950e+05  -3.397451e+05
  -2.519665e+05  -7.691051e+05
   1.730405e+05  -6.442049e+05
   6.580262e+05   1.286762e+05
   6.976069e+05   9.224241e+05
   8.855730e+04   9.837303e+05
  -7.347232e+05   2.188499e+05
  -9.868587e+05  -7.040505e+05
  -3.236985e+05  -1.037956e+06
   6.818715e+05  -6.339082e+05
   1.056910e+06   7.192053e+04
   4.960730e+05   5.657823e+05
  -2.698430e+05   6.270988e+05
  -3.403548e+05   3.466440e+05
   2.586104e+05   1.333999e+04
   6.258367e+05  -3.894753e+04
   1.341895e+05   2.896189e+05
  -7.833032e+05   6.565052e+05
  -1.178784e+06   5.382994e+05
  -7.059837e+05  -1.496184e+05
   8.885698e+04  -8.222746e+05
   5.037394e+05  -8.105381e+05
   3.858017e+05  -1.401880e+05
   4.444346e+04   4.667647e+05
  -2.303667e+05   4.064803e+05
  -3.402174e+05  -1.561973e+05
  -2.438451e+05  -5.503856e+05
   5.393500e+04  -3.920501e+05
   3.736335e+05   4.790440e+04
   4.483474e+05   2.524665e+05
   2.308181e+05   7.897096e+04
  -2.319572e+04  -1.297409e+05
  -7.596330e+04  -1.128850e+04
  -9.961315e+03   3.516385e+05
  -8.123394e+04   5.094561e+05
  -3.176814e+05   1.793707e+05
  -4.187494e+05  -3.824928e+05
  -1.231495e+05  -6.234053e+05
   3.973893e+05  -2.955671e+05
   6.259231e+05   2.748172e+05
   2.384414e+05   5.537270e+05
  -4.768277e+05   3.496490e+05
  -8.337968e+05  -7.442204e+04
  -4.551409e+05  -3.579881e+05
   2.788953e+05  -3.713979e+05
   6.055622e+05  -2.061944e+05
   2.258137e+05  -1.517282e+04
  -3.503975e+05   5.621906e+04
  -3.992027e+05  -7.595832e+04
   1.722993e+05  -2.924808e+05
   7.327963e+05  -2.671385e+05
