
 $NMID
 id='ANONYMOUS ', fmtdat='(2E16.6)'
 volume=1.0
 tramp=1.0
 $END
  -9.043428e+06   6.967424e+05
  -6.339833e+06  -4.291976e+06
  -1.200196e+05  -5.993670e+06
   3.922602e+06  -3.711024e+06
   3.224976e+06  -1.158578e+05
   1.177498e+05   1.606745e+06
  -1.758564e+06   5.897027e+05
  -1.189125e+06  -1.459079e+06
   5.141359e+05  -2.235771e+06
   1.628246e+06  -9.764347e+05
   1.428202e+06   1.001892e+06
   2.908191e+05   1.693481e+06
  -7.215958e+05   4.581151e+05
  -6.302959e+05  -1.299713e+06
   5.051269e+05  -1.634351e+06
   1.476270e+06  -1.429144e+05
   1.142253e+06   1.705497e+06
  -3.191403e+05   2.239300e+06
  -1.636897e+06   1.209273e+06
  -1.805201e+06  -2.982859e+05
  -9.719355e+05  -1.151462e+06
  -8.992733e+04  -1.113240e+06
   6.656364e+04  -7.428110e+05
  -3.986726e+05  -6.830575e+05
  -6.136267e+05  -1.028885e+06
   1.427831e+05  -1.261822e+06
   1.488679e+06  -8.375093e+05
   2.132074e+06   1.300794e+05
   1.292047e+06   8.988603e+05
  -2.712028e+05   8.743779e+05
  -1.034154e+06   2.099951e+05
  -4.247228e+05  -4.277491e+05
   6.626097e+05  -5.077764e+05
   1.061187e+06   1.984962e+04
   5.731385e+05   7.597975e+05
  -1.360520e+05   1.088743e+06
  -4.531257e+05   6.238240e+05
  -3.059819e+05  -2.495757e+05
   4.189670e+03  -5.755617e+05
   1.116466e+05   6.626297e+04
  -1.620672e+05   8.573012e+05
  -5.830626e+05   6.558022e+05
  -6.050831e+05  -4.469990e+05
   3.074178e+04  -1.097754e+06
   8.157197e+05  -3.938276e+05
   8.740410e+05   9.221631e+05
  -5.790034e+04   1.376680e+06
  -1.224315e+06   5.140764e+05
  -1.546852e+06  -7.363620e+05
  -6.828160e+05  -1.250899e+06
   6.418389e+05  -7.915734e+05
   1.305898e+06   6.188208e+04
   8.147110e+05   6.075670e+05
  -2.609554e+05   5.277327e+05
  -8.594324e+05   2.228959e+04
  -5.016777e+05  -3.754517e+05
   2.457144e+05  -2.776821e+05
   4.665682e+05   1.469133e+05
  -2.846017e+04   3.569157e+05
  -5.247613e+05   7.999134e+04
  -3.148720e+05  -3.769611e+05
   4.464075e+05  -5.046118e+05
   9.398442e+05  -1.147506e+05
   5.952910e+05   5.576404e+05
  -3.583169e+05   1.072965e+06
  -1.187364e+06   1.023400e+06
  -1.337719e+06   2.930266e+05
  -8.390686e+05  -7.198257e+05
  -1.727618e+05  -1.309070e+06
   2.008063e+05  -1.129514e+06
   2.293428e+05  -5.737975e+05
   2.196329e+05  -2.711810e+05
   4.195672e+05  -3.047628e+05
   7.089245e+05  -2.084596e+05
   7.480067e+05   2.720564e+05
   3.760505e+05   7.444824e+05
  -2.041829e+05   6.520122e+05
  -5.948548e+05  -1.345553e+04
  -5.003370e+05  -6.786183e+05
   5.857922e+04  -7.887789e+05
   7.062104e+05  -2.979238e+05
   9.437316e+05   3.828245e+05
   5.862500e+05   7.867292e+05
  -1.832200e+04   7.499095e+05
  -3.513766e+05   4.783741e+05
  -3.262314e+05   2.942417e+05
  -3.542332e+05   2.889209e+05
  -7.275265e+05   2.421321e+05
  -1.125073e+06  -9.140501e+04
  -9.462169e+05  -6.545882e+05
  -8.145922e+04  -1.090338e+06
   8.596525e+05  -1.051649e+06
   1.150187e+06  -5.035432e+05
   6.644168e+05   2.170298e+05
  -5.626915e+04   6.194118e+05
  -3.723028e+05   4.483821e+05
  -1.210646e+05  -4.846113e+04
   3.188645e+05  -3.203781e+05
   4.587572e+05  -9.884812e+04
   1.841072e+05   2.798525e+05
  -1.661544e+05   2.886314e+05
  -1.845390e+05  -9.445223e+04
   1.664668e+05  -3.177481e+05
   5.170715e+05   5.019771e+04
   4.619327e+05   7.432083e+05
  -6.228555e+04   1.066501e+06
  -7.270405e+05   6.570138e+05
  -1.069787e+06  -1.664361e+05
  -8.377431e+05  -7.721785e+05
  -1.973152e+05  -8.051247e+05
   3.638120e+05  -4.182617e+05
   4.473524e+05  -4.542511e+04
   1.337957e+05   6.279186e+03
  -1.007691e+05  -1.969992e+05
   7.259093e+04  -3.272608e+05
   4.428777e+05  -1.628026e+05
   5.172278e+05   1.648049e+05
   1.386597e+05   3.254872e+05
  -2.946787e+05   1.681633e+05
  -2.800414e+05  -1.199200e+05
   2.084660e+05  -2.253344e+05
   6.722422e+05  -1.491702e+04
   6.035923e+05   3.661155e+05
   2.547700e+02   6.227910e+05
  -6.314740e+05   5.283991e+05
  -7.618058e+05   1.154709e+05
  -3.322463e+05  -2.982611e+05
   2.093346e+05  -3.618014e+05
   3.572723e+05  -5.477083e+04
   3.017264e+04   2.526815e+05
  -3.900920e+05   1.940608e+05
  -4.716925e+05  -1.722228e+05
  -1.513766e+05  -4.355000e+05
   2.458651e+05  -3.188675e+05
   3.529043e+05   1.599837e+04
   1.106937e+05   1.856946e+05
  -1.885042e+05   2.054492e+04
  -1.883096e+05  -2.802974e+05
   1.687369e+05  -3.813648e+05
   5.500962e+05  -1.378894e+05
   5.486282e+05   2.826654e+05
   1.173300e+05   5.500145e+05
  -3.562341e+05   4.542312e+05
  -4.532469e+05   9.311000e+04
  -1.597275e+05  -2.138219e+05
   1.601867e+05  -2.285301e+05
   1.917093e+05  -1.718355e+04
  -1.860362e+04   1.489446e+05
  -1.824607e+05   1.037144e+05
  -1.138907e+05  -4.362637e+04
   9.261723e+04  -5.977591e+04
   1.817078e+05   1.264390e+05
  -4.799237e+03   3.242006e+05
  -3.594900e+05   2.702024e+05
  -5.739225e+05  -9.080544e+04
  -4.121959e+05  -5.176753e+05
   4.123529e+04  -6.738328e+05
   4.369712e+05  -4.355870e+05
   5.021684e+05  -8.404138e+03
   2.998107e+05   2.724428e+05
   1.093087e+05   2.601593e+05
   8.807893e+04   1.069213e+05
   1.253646e+05   6.046334e+04
   2.880757e+04   1.784658e+05
  -2.174913e+05   2.721806e+05
  -4.152673e+05   1.332537e+05
  -3.416337e+05  -2.052808e+05
   3.293939e+04  -4.563885e+05
   4.769848e+05  -3.439922e+05
   6.437641e+05   1.087636e+05
   3.525080e+05   5.623426e+05
  -2.207297e+05   6.549481e+05
  -6.599707e+05   3.318233e+05
  -6.709234e+05  -1.189963e+05
  -3.333956e+05  -3.593870e+05
   1.868303e+04  -3.149776e+05
   1.429620e+05  -1.902196e+05
   8.341168e+04  -1.975654e+05
   4.896013e+04  -3.146299e+05
   1.599522e+05  -3.265248e+05
   3.298005e+05  -8.722428e+04
   3.635534e+05   2.907763e+05
   1.592735e+05   5.178625e+05
  -1.670840e+05   3.969377e+05
  -3.565533e+05   1.511069e+04
  -2.436455e+05  -3.278973e+05
   6.512663e+04  -3.837908e+05
   2.809054e+05  -1.588883e+05
   2.263881e+05   1.275624e+05
   1.564010e+04   2.658853e+05
  -9.215394e+04   2.276067e+05
  -2.812208e+02   1.351924e+05
   1.141599e+05   9.974904e+04
   1.471505e+04   1.111121e+05
  -2.986331e+05   7.553408e+04
  -5.484751e+05  -6.470866e+04
  -4.526059e+05  -2.569817e+05
  -2.940356e+04  -3.725825e+05
   3.926041e+05  -3.149645e+05
   4.874074e+05  -1.121270e+05
   2.444482e+05   8.909972e+04
  -5.023540e+04   1.403851e+05
  -1.307954e+05   3.100291e+04
  -2.821927e+03  -9.171583e+04
   1.308984e+05  -6.927032e+04
   1.313202e+05   8.927509e+04
   4.687375e+04   2.042811e+05
   2.381964e+03   1.315036e+05
   4.202339e+04  -4.934656e+04
   1.018661e+05  -1.073365e+05
   8.690894e+04   6.240627e+04
  -4.719472e+04   2.869584e+05
  -2.423589e+05   2.961730e+05
  -3.419769e+05   3.822373e+04
  -2.071945e+05  -2.474212e+05
   1.060944e+05  -2.901359e+05
   3.238351e+05  -7.516072e+04
   2.021355e+05   1.614240e+05
  -1.806517e+05   1.910877e+05
  -4.530752e+05   2.879755e+03
  -3.250884e+05  -2.245327e+05
   9.763788e+04  -3.038862e+05
   4.207888e+05  -1.854116e+05
   3.704153e+05   2.351461e+04
   5.556804e+04   1.488668e+05
  -1.746993e+05   9.208331e+04
  -9.811989e+04  -6.998550e+04
   1.722594e+05  -1.331704e+05
   3.239474e+05   3.680830e+04
   1.667967e+05   3.322673e+05
  -1.812792e+05   4.627326e+05
  -4.180123e+05   2.358824e+05
  -3.516555e+05  -2.116045e+05
  -6.460040e+04  -5.027564e+05
   1.986459e+05  -3.802249e+05
   2.653820e+05   2.623093e+04
   1.459024e+05   3.286298e+05
  -3.420201e+04   2.859217e+05
  -1.509716e+05   3.624463e+04
  -1.485457e+05  -1.080931e+05
  -6.361133e+04  -4.471417e+04
  -5.714078e+03   3.254642e+04
  -5.397743e+04  -6.690534e+04
  -1.380620e+05  -2.598128e+05
  -8.151859e+04  -3.038223e+05
   1.714916e+05  -1.196838e+05
   4.175894e+05   1.206510e+05
   3.832849e+05   2.259449e+05
   5.937571e+04   1.899461e+05
  -2.528348e+05   1.199977e+05
  -2.806057e+05   6.369009e+04
  -8.694279e+04  -9.544751e+02
   4.529699e+04  -6.106426e+04
  -1.240474e+04  -6.896001e+04
  -9.606197e+04  -3.902055e+04
  -5.543654e+03  -3.886276e+04
   2.067802e+05  -5.956884e+04
   2.883204e+05   5.061270e+03
   9.202373e+04   1.851975e+05
  -2.478959e+05   3.172139e+05
  -4.532747e+05   2.036457e+05
  -3.676207e+05  -1.234500e+05
  -7.501409e+04  -3.931952e+05
   2.011790e+05  -3.801144e+05
   2.891928e+05  -1.401990e+05
   1.861044e+05   7.452230e+04
   2.915306e+04   9.899033e+04
  -3.717401e+04   5.347377e+03
   1.674890e+04  -1.965863e+04
   9.523724e+04   9.563468e+04
   7.983879e+04   2.241890e+05
  -5.147411e+04   1.841547e+05
  -1.926816e+05  -4.547920e+04
  -1.959545e+05  -2.737273e+05
  -1.480424e+04  -2.819481e+05
   2.183432e+05  -5.257347e+04
   2.832541e+05   2.122679e+05
   8.935982e+04   2.992944e+05
  -1.974416e+05   1.773626e+05
  -3.017393e+05  -2.093476e+04
  -1.401828e+05  -1.549203e+05
   7.529280e+04  -1.727637e+05
   8.873000e+04  -1.000048e+05
  -8.548951e+04  -8.148264e+03
  -1.851425e+05   1.100353e+04
  -3.671618e+04  -8.140682e+04
   2.262876e+05  -1.945893e+05
   3.333810e+05  -1.692622e+05
   1.962376e+05   3.128407e+04
  -2.384495e+04   2.347301e+05
  -1.341673e+05   2.342391e+05
  -1.001193e+05   3.585386e+04
  -7.990038e+03  -1.393471e+05
   6.719025e+04  -1.130040e+05
   9.875868e+04   5.414585e+04
   7.079999e+04   1.597498e+05
  -1.600171e+04   1.049943e+05
  -1.075709e+05  -1.725904e+04
  -1.284580e+05  -6.497675e+04
  -6.820679e+04  -1.613261e+04
   3.091501e+03   2.940841e+04
   2.429128e+04  -1.270603e+04
   1.658962e+04  -1.064501e+05
   3.992699e+04  -1.346805e+05
   9.527556e+04  -3.427704e+04
   1.079583e+05   1.197988e+05
   1.978746e+04   1.800269e+05
  -1.192622e+05   8.140814e+04
  -1.753835e+05  -8.419485e+04
  -6.494905e+04  -1.640537e+05
   1.350078e+05  -1.018204e+05
   2.362766e+05   2.360634e+04
   1.300305e+05   1.030068e+05
  -7.918054e+04   1.009620e+05
  -1.712842e+05   5.247935e+04
  -5.747732e+04   4.859560e+03
   1.110461e+05  -7.058856e+03
   1.183420e+05   3.286268e+04
  -5.940437e+04   9.022956e+04
  -2.267487e+05   7.633596e+04
