
 $NMID
 id='ANONYMOUS ', fmtdat='(2E16.6)'
 volume=1.0
 tramp=1.0
 $END
   2.637839e+07  -2.807741e+06
   1.829904e+07   1.309209e+07
  -3.141601e+05   1.783448e+07
  -1.175991e+07   9.949962e+06
  -8.919717e+06  -8.805547e+05
   3.084647e+05  -5.020777e+06
   5.208679e+06  -1.313235e+06
   3.108226e+06   4.425047e+06
  -1.747720e+06   6.147711e+06
  -4.751758e+06   2.454132e+06
  -4.123374e+06  -2.979494e+06
  -7.897601e+05  -4.885901e+06
   2.277738e+06  -1.492420e+06
   2.062018e+06   3.405671e+06
  -1.290291e+06   4.352071e+06
  -4.073216e+06   2.335165e+05
  -3.019219e+06  -4.746823e+06
   1.087156e+06  -6.036454e+06
   4.641609e+06  -3.192402e+06
   5.132112e+06   8.647800e+05
   2.960227e+06   3.365087e+06
   3.282763e+05   3.567820e+06
  -6.790502e+05   2.421028e+06
   3.193118e+05   1.557240e+06
   1.395605e+06   2.000448e+06
   6.240543e+04   2.995938e+06
  -3.469316e+06   2.634080e+06
  -5.731175e+06   2.769455e+05
  -3.946474e+06  -2.288848e+06
   2.640474e+05  -2.840594e+06
   2.668998e+06  -1.254343e+06
   1.455535e+06   6.634196e+05
  -1.179959e+06   1.258662e+06
  -2.317292e+06   2.104192e+05
  -1.420298e+06  -1.646841e+06
   1.715380e+05  -2.754581e+06
   1.217262e+06  -1.799978e+06
   1.236083e+06   5.977574e+05
   3.947572e+05   1.818519e+06
  -3.603350e+05   2.731172e+05
   7.464590e+04  -2.008438e+06
   1.375931e+06  -1.633042e+06
   1.631157e+06   1.379799e+06
  -2.650238e+05   3.169118e+06
  -2.663229e+06   1.081807e+06
  -2.745863e+06  -2.714788e+06
   9.705972e+04  -4.002359e+06
   3.396234e+06  -1.610068e+06
   4.166935e+06   1.791992e+06
   1.768848e+06   3.211529e+06
  -1.710811e+06   2.075627e+06
  -3.380602e+06  -1.845861e+05
  -1.987068e+06  -1.762563e+06
   9.563823e+05  -1.587711e+06
   2.527340e+06  -1.726144e+04
   1.383027e+06   1.276024e+06
  -7.673777e+05   9.304251e+05
  -1.255124e+06  -4.370372e+05
   2.557646e+05  -9.521409e+05
   1.493331e+06   8.133284e+04
   6.140171e+05   1.365840e+06
  -1.533824e+06   1.388343e+06
  -2.629505e+06   7.158801e+04
  -1.542781e+06  -1.636540e+06
   8.458018e+05  -2.820010e+06
   2.875869e+06  -2.741408e+06
   3.425650e+06  -9.671947e+05
   2.384421e+06   1.754681e+06
   6.078428e+05   3.468784e+06
  -6.381312e+05   2.930984e+06
  -7.596203e+05   1.196150e+06
  -4.061701e+05   3.157243e+05
  -6.056179e+05   7.006717e+05
  -1.420828e+06   8.565529e+05
  -1.884311e+06  -2.408983e+05
  -1.226092e+06  -1.628820e+06
   2.343902e+05  -1.679129e+06
   1.419455e+06  -1.724370e+05
   1.392683e+06   1.538601e+06
   3.111706e+04   2.024684e+06
  -1.763207e+06   9.761340e+05
  -2.572991e+06  -7.833463e+05
  -1.705711e+06  -2.037452e+06
  -1.302870e+04  -2.097906e+06
   9.932290e+05  -1.330810e+06
   9.308275e+05  -7.025710e+05
   8.894516e+05  -6.568821e+05
   1.744035e+06  -6.379261e+05
   2.745564e+06   1.085008e+05
   2.382730e+06   1.508528e+06
   3.571761e+05   2.664198e+06
  -1.909082e+06   2.699694e+06
  -2.734110e+06   1.456072e+06
  -1.756010e+06  -3.666373e+05
  -7.236953e+04  -1.554680e+06
   8.533743e+05  -1.257492e+06
   4.131076e+05   7.509134e+04
  -7.056261e+05   9.276260e+05
  -1.224223e+06   3.753318e+05
  -5.990579e+05  -7.337695e+05
   3.805889e+05  -8.509602e+05
   5.150940e+05   1.644724e+05
  -3.789935e+05   7.880109e+05
  -1.265820e+06  -1.414772e+05
  -1.077773e+06  -1.851567e+06
   2.209449e+05  -2.555909e+06
   1.750560e+06  -1.496946e+06
   2.511881e+06   4.248572e+05
   2.010833e+06   1.781074e+06
   5.548241e+05   1.877704e+06
  -8.212864e+05   1.043317e+06
  -1.102848e+06   1.650702e+05
  -3.364115e+05  -2.083223e+04
   3.102576e+05   4.669951e+05
  -1.111026e+05   8.705970e+05
  -1.123463e+06   5.218563e+05
  -1.396628e+06  -3.502800e+05
  -4.504680e+05  -8.710395e+05
   7.004052e+05  -5.546829e+05
   7.498613e+05   1.786724e+05
  -3.946828e+05   5.350313e+05
  -1.537763e+06   1.342049e+05
  -1.458680e+06  -7.533221e+05
  -8.959150e+04  -1.461341e+06
   1.448350e+06  -1.360309e+06
   1.868152e+06  -3.770092e+05
   8.886233e+05   7.433419e+05
  -4.930684e+05   9.960081e+05
  -9.592617e+05   2.024768e+05
  -1.717605e+05  -6.741332e+05
   9.435961e+05  -5.891071e+05
   1.222034e+06   3.597296e+05
   4.366335e+05   1.090895e+06
  -5.958329e+05   8.489360e+05
  -9.219647e+05   7.848191e+03
  -3.504060e+05  -4.820055e+05
   4.349462e+05  -1.566742e+05
   5.379025e+05   5.789383e+05
  -2.773045e+05   9.315802e+05
  -1.267942e+06   4.500429e+05
  -1.381818e+06  -5.794893e+05
  -3.784320e+05  -1.338487e+06
   8.343884e+05  -1.182559e+06
   1.152820e+06  -2.717019e+05
   4.588144e+05   5.598903e+05
  -3.632224e+05   6.432516e+05
  -5.060418e+05   1.161414e+05
  -4.670919e+04  -3.401129e+05
   3.493186e+05  -2.977747e+05
   2.464976e+05   1.841378e+04
  -1.770381e+05   8.679818e+04
  -3.865021e+05  -2.891005e+05
  -2.184149e+03  -7.400255e+05
   8.126531e+05  -6.694871e+05
   1.376724e+06   1.361464e+05
   1.061584e+06   1.186096e+06
  -1.957493e+04   1.642217e+06
  -1.021024e+06   1.110199e+06
  -1.216686e+06   5.834155e+04
  -7.335344e+05  -6.485951e+05
  -2.712679e+05  -6.196968e+05
  -2.166450e+05  -2.417643e+05
  -2.913306e+05  -1.269814e+05
  -5.539158e+04  -4.022795e+05
   4.972906e+05  -6.238747e+05
   9.266356e+05  -3.233530e+05
   7.731075e+05   4.376706e+05
  -4.155982e+04   1.042107e+06
  -1.067358e+06   8.476259e+05
  -1.533094e+06  -1.743933e+05
  -9.299678e+05  -1.293955e+06
   4.301549e+05  -1.612856e+06
   1.554339e+06  -8.975940e+05
   1.651407e+06   2.043375e+05
   8.580849e+05   8.347818e+05
  -3.568565e+03   7.611439e+05
  -3.137082e+05   4.706075e+05
  -1.692093e+05   4.932843e+05
  -8.211005e+04   7.828859e+05
  -3.551833e+05   8.222619e+05
  -7.942471e+05   2.576630e+05
  -9.252361e+05  -6.553417e+05
  -4.638416e+05  -1.236349e+06
   3.472097e+05  -9.958804e+05
   8.672679e+05  -9.962037e+04
   6.418020e+05   7.538984e+05
  -1.030729e+05   9.396987e+05
  -6.544817e+05   4.277584e+05
  -5.581711e+05  -2.708319e+05
  -7.595724e+04  -6.333819e+05
   1.791779e+05  -5.631444e+05
  -1.924368e+04  -3.383854e+05
  -2.675264e+05  -2.343500e+05
  -3.116589e+04  -2.568711e+05
   6.979834e+05  -2.021688e+05
   1.302377e+06   9.172517e+04
   1.119581e+06   5.511140e+05
   1.417743e+05   8.845323e+05
  -8.908698e+05   8.129352e+05
  -1.170893e+06   3.445771e+05
  -6.141779e+05  -1.718264e+05
   1.025758e+05  -3.356817e+05
   3.046742e+05  -8.841370e+04
  -9.315343e+03   2.104367e+05
  -3.311032e+05   1.619464e+05
  -3.190069e+05  -2.181176e+05
  -1.094433e+05  -4.963326e+05
  -6.843197e+03  -3.233772e+05
  -9.491893e+04   1.163481e+05
  -2.187368e+05   2.728016e+05
  -1.864334e+05  -1.187743e+05
   9.261176e+04  -6.653922e+05
   5.227390e+05  -7.193940e+05
   7.769027e+05  -1.277327e+05
   5.051240e+05   5.611928e+05
  -2.187513e+05   6.914689e+05
  -7.601541e+05   1.972560e+05
  -4.977004e+05  -3.771263e+05
   4.197630e+05  -4.778084e+05
   1.098095e+06  -4.991418e+04
   8.129941e+05   5.070965e+05
  -2.006642e+05   7.438843e+05
  -9.960557e+05   5.015986e+05
  -9.015958e+05  -5.614694e+03
  -1.579299e+05  -3.552589e+05
   4.085553e+05  -2.568562e+05
   2.486468e+05   1.449135e+05
  -3.961745e+05   3.377052e+05
  -7.831698e+05  -5.341998e+04
  -4.302883e+05  -7.870163e+05
   4.062500e+05  -1.134761e+06
   1.000263e+06  -6.010672e+05
   8.714770e+05   4.895457e+05
   1.986008e+05   1.216122e+06
  -4.440880e+05   9.448073e+05
  -6.429371e+05  -2.599498e+04
  -3.981440e+05  -7.708201e+05
   2.799183e+04  -6.980961e+05
   3.464348e+05  -1.145510e+05
   3.807070e+05   2.388013e+05
   1.754792e+05   9.882564e+04
   8.903471e+03  -8.672136e+04
   1.232580e+05   1.452926e+05
   3.608820e+05   6.117594e+05
   2.484931e+05   7.347748e+05
  -3.871737e+05   3.136338e+05
  -1.028814e+06  -2.508144e+05
  -9.630842e+05  -5.083661e+05
  -1.601967e+05  -4.469288e+05
   6.131421e+05  -3.104066e+05
   6.748332e+05  -1.861424e+05
   1.974367e+05  -1.187636e+04
  -1.123517e+05   1.558606e+05
   4.440726e+04   1.734419e+05
   2.469526e+05   8.436369e+04
   1.442435e+04   8.458267e+04
  -5.035825e+05   1.584452e+05
  -6.928874e+05   1.758099e+04
  -2.196990e+05  -4.345598e+05
   5.826891e+05  -7.853377e+05
   1.066728e+06  -5.254722e+05
   8.796695e+05   2.745273e+05
   2.103957e+05   9.439875e+05
  -4.417218e+05   9.261903e+05
  -6.757814e+05   3.550695e+05
  -4.545651e+05  -1.625780e+05
  -7.723772e+04  -2.287144e+05
   9.870976e+04  -7.876519e+03
  -3.185460e+04   5.817592e+04
  -2.461354e+05  -2.123638e+05
  -2.282016e+05  -5.293190e+05
   1.016894e+05  -4.513298e+05
   4.745216e+05   9.258989e+04
   4.986389e+05   6.507666e+05
   4.898559e+04   6.833889e+05
  -5.355702e+05   1.359929e+05
  -7.022252e+05  -5.021047e+05
  -2.324776e+05  -7.148913e+05
   4.630545e+05  -4.335100e+05
   7.196806e+05   2.597928e+04
   3.432423e+05   3.447121e+05
  -1.588973e+05   4.064184e+05
  -1.852128e+05   2.498153e+05
   2.224296e+05   2.297479e+04
   4.463093e+05  -3.939669e+04
   8.865945e+04   1.901279e+05
  -5.289758e+05   4.940942e+05
  -7.780438e+05   4.516420e+05
  -4.635988e+05  -4.806966e+04
   3.782046e+04  -5.662484e+05
   2.912690e+05  -5.717867e+05
   2.238600e+05  -8.278072e+04
   2.273061e+04   3.421413e+05
  -1.553553e+05   2.689946e+05
  -2.435580e+05  -1.361010e+05
  -1.827710e+05  -3.795895e+05
   3.334089e+04  -2.431472e+05
   2.624047e+05   3.710931e+04
   3.129729e+05   1.368619e+05
   1.656329e+05   2.622166e+04
  -4.566093e+03  -6.007849e+04
  -5.664090e+04   5.379824e+04
  -4.725612e+04   2.684683e+05
  -1.109740e+05   3.171552e+05
  -2.381020e+05   6.793647e+04
  -2.555130e+05  -2.973757e+05
  -4.000802e+04  -4.363965e+05
   2.874694e+05  -1.998690e+05
   4.208686e+05   1.967082e+05
   1.642825e+05   3.938353e+05
  -3.116556e+05   2.545816e+05
  -5.642800e+05  -4.113379e+04
  -3.202490e+05  -2.372494e+05
   1.827952e+05  -2.431440e+05
   4.089723e+05  -1.310997e+05
   1.305495e+05  -1.153516e+04
  -2.843862e+05   2.113124e+04
  -2.990566e+05  -8.283075e+04
   1.456335e+05  -2.356774e+05
   5.620599e+05  -2.072341e+05
