
 $NMID
 id='ANONYMOUS ', fmtdat='(2E16.6)'
 volume=1.0
 tramp=1.0
 $END
   2.982942e+07   4.272650e+05
   1.870915e+07   1.594240e+07
  -1.902557e+06   1.919009e+07
  -1.347690e+07   1.040659e+07
  -9.763778e+06  -7.118740e+05
   3.137882e+05  -5.087042e+06
   5.584381e+06  -1.379582e+06
   3.300712e+06   4.829626e+06
  -2.050206e+06   6.859129e+06
  -5.322392e+06   2.636115e+06
  -4.407760e+06  -3.654428e+06
  -5.648335e+05  -5.632581e+06
   2.635164e+06  -1.376071e+06
   2.044144e+06   4.304988e+06
  -1.769794e+06   5.090454e+06
  -4.640681e+06   7.164827e+04
  -3.167906e+06  -5.681254e+06
   1.628045e+06  -6.958573e+06
   5.614076e+06  -3.343983e+06
   5.813110e+06   1.563563e+06
   2.828455e+06   4.216836e+06
  -2.547576e+05   3.838943e+06
  -7.904499e+05   2.241633e+06
   9.945016e+05   1.772874e+06
   2.042509e+06   2.997164e+06
  -3.302435e+05   4.060131e+06
  -4.867223e+06   2.788424e+06
  -7.058512e+06  -5.376817e+05
  -4.231370e+06  -3.231435e+06
   9.992836e+05  -3.158811e+06
   3.573426e+06  -8.718580e+05
   1.653665e+06   1.369614e+06
  -1.895008e+06   1.796186e+06
  -3.347831e+06   1.377483e+05
  -1.915804e+06  -2.397011e+06
   4.626485e+05  -3.609205e+06
   1.693977e+06  -2.009001e+06
   1.196986e+06   1.061207e+06
  -9.144939e+04   2.160623e+06
  -6.181555e+05  -1.196069e+05
   3.826148e+05  -2.793480e+06
   1.856413e+06  -2.022972e+06
   1.775833e+06   1.578551e+06
  -4.407916e+05   3.397539e+06
  -2.776263e+06   8.214359e+05
  -2.547026e+06  -3.326077e+06
   6.036621e+05  -4.388355e+06
   4.095765e+06  -1.369493e+06
   4.813282e+06   2.547110e+06
   1.981005e+06   3.984846e+06
  -2.113587e+06   2.407936e+06
  -4.072037e+06  -3.302844e+05
  -2.408312e+06  -2.016877e+06
   1.010612e+06  -1.613009e+06
   2.775110e+06   1.434780e+05
   1.474671e+06   1.368271e+06
  -9.002394e+05   8.724655e+05
  -1.463397e+06  -5.299725e+05
   1.342031e+05  -1.040143e+06
   1.527912e+06  -7.591740e+04
   7.141250e+05   1.177924e+06
  -1.588049e+06   1.311691e+06
  -2.899791e+06   4.450727e+04
  -1.674823e+06  -1.901619e+06
   1.329478e+06  -3.382690e+06
   3.928841e+06  -3.174477e+06
   4.377514e+06  -7.910991e+05
   2.666705e+06   2.493506e+06
   3.773056e+05   4.285547e+06
  -8.258439e+05   3.503318e+06
  -7.331658e+05   1.629574e+06
  -5.298622e+05   7.925529e+05
  -1.188464e+06   1.098539e+06
  -2.269318e+06   8.527809e+05
  -2.519030e+06  -7.701261e+05
  -1.345642e+06  -2.402125e+06
   5.770586e+05  -2.184390e+06
   1.918873e+06  -6.163918e+04
   1.660078e+06   2.136643e+06
  -1.815428e+05   2.566159e+06
  -2.339888e+06   9.678006e+05
  -3.084014e+06  -1.334268e+06
  -1.801607e+06  -2.685447e+06
   2.487197e+05  -2.461888e+06
   1.287957e+06  -1.433034e+06
   1.093938e+06  -7.898895e+05
   1.100884e+06  -8.222771e+05
   2.262651e+06  -7.178273e+05
   3.513595e+06   3.337986e+05
   2.947600e+06   2.099401e+06
   2.378852e+05   3.447462e+06
  -2.726368e+06   3.327896e+06
  -3.686744e+06   1.610745e+06
  -2.186895e+06  -7.027404e+05
   1.422568e+05  -2.035778e+06
   1.231137e+06  -1.485641e+06
   4.441545e+05   1.652445e+05
  -1.024742e+06   1.062591e+06
  -1.510121e+06   3.078786e+05
  -6.003698e+05  -9.500595e+05
   5.518395e+05  -9.737077e+05
   6.096128e+05   2.615110e+05
  -4.816103e+05   9.646404e+05
  -1.522899e+06  -1.764776e+05
  -1.331097e+06  -2.276529e+06
   2.206905e+05  -3.220310e+06
   2.190936e+06  -1.963105e+06
   3.259448e+06   5.261023e+05
   2.611532e+06   2.379066e+06
   6.429946e+05   2.509178e+06
  -1.149537e+06   1.321638e+06
  -1.434523e+06   1.388139e+05
  -4.245474e+05  -3.227406e+04
   3.299925e+05   6.265769e+05
  -2.404950e+05   1.046485e+06
  -1.430324e+06   5.051032e+05
  -1.652944e+06  -5.522683e+05
  -4.385925e+05  -1.061435e+06
   9.378352e+05  -5.649558e+05
   9.134159e+05   3.401003e+05
  -5.929205e+05   6.955274e+05
  -2.057080e+06   8.316644e+04
  -1.893620e+06  -1.093037e+06
  -3.445496e+04  -1.931640e+06
   1.971921e+06  -1.668241e+06
   2.413173e+06  -3.552163e+05
   1.044224e+06   9.751642e+05
  -7.023734e+05   1.159346e+06
  -1.169101e+06   1.461104e+05
  -9.781189e+04  -8.377503e+05
   1.252089e+06  -6.257844e+05
   1.498183e+06   5.530427e+05
   4.733525e+05   1.380881e+06
  -7.790112e+05   1.005881e+06
  -1.118324e+06  -5.015586e+04
  -3.625414e+05  -5.932572e+05
   5.883480e+05  -8.746690e+04
   6.105866e+05   8.643357e+05
  -5.083380e+05   1.205849e+06
  -1.729354e+06   4.484115e+05
  -1.737658e+06  -8.924154e+05
  -3.652145e+05  -1.746420e+06
   1.144512e+06  -1.431137e+06
   1.448339e+06  -2.739055e+05
   5.102100e+05   6.976980e+05
  -5.111660e+05   7.427628e+05
  -6.312794e+05   7.709355e+04
   8.333983e+03  -4.636594e+05
   5.321154e+05  -3.616392e+05
   3.650424e+05   7.795731e+04
  -2.395852e+05   1.547786e+05
  -5.235910e+05  -3.817513e+05
   2.603083e+04  -9.844149e+05
   1.118896e+06  -8.315983e+05
   1.795781e+06   2.876972e+05
   1.290388e+06   1.632744e+06
  -1.387226e+05   2.127089e+06
  -1.378305e+06   1.371761e+06
  -1.574937e+06   2.586060e+04
  -9.468025e+05  -8.542163e+05
  -3.634132e+05  -8.232249e+05
  -2.873881e+05  -3.570858e+05
  -3.735532e+05  -2.067027e+05
  -6.197072e+04  -5.478312e+05
   6.798582e+05  -8.235983e+05
   1.271027e+06  -4.064363e+05
   1.051219e+06   6.236892e+05
  -9.185731e+04   1.404367e+06
  -1.474481e+06   1.069181e+06
  -2.011453e+06  -3.368604e+05
  -1.107659e+06  -1.758034e+06
   6.928163e+05  -2.047888e+06
   2.071174e+06  -1.033188e+06
   2.103890e+06   3.732636e+05
   1.053785e+06   1.117353e+06
  -3.850235e+04   9.845996e+05
  -4.349025e+05   6.147543e+05
  -2.727684e+05   6.493447e+05
  -1.811141e+05   1.005258e+06
  -5.244985e+05   1.023352e+06
  -1.046073e+06   2.624538e+05
  -1.146740e+06  -9.261787e+05
  -5.005565e+05  -1.640310e+06
   5.315417e+05  -1.258312e+06
   1.126047e+06  -5.217292e+04
   7.627513e+05   1.027908e+06
  -2.060359e+05   1.198172e+06
  -8.675813e+05   4.907679e+05
  -6.874758e+05  -3.960994e+05
  -4.021790e+04  -8.163611e+05
   2.790883e+05  -6.991688e+05
  -7.725319e+03  -4.253831e+05
  -3.525751e+05  -3.220455e+05
  -3.948867e+04  -3.476424e+05
   9.301351e+05  -2.219646e+05
   1.707811e+06   2.186236e+05
   1.414812e+06   8.083915e+05
   9.274721e+04   1.157235e+06
  -1.234537e+06   9.745385e+05
  -1.531404e+06   3.485078e+05
  -7.604385e+05  -2.708200e+05
   1.645812e+05  -4.291453e+05
   4.013460e+05  -9.303807e+04
  -1.385552e+04   2.842254e+05
  -4.255866e+05   2.098575e+05
  -4.068852e+05  -2.921411e+05
  -1.321323e+05  -6.586474e+05
   3.643215e+03  -4.273114e+05
  -1.241558e+05   1.555874e+05
  -3.092862e+05   3.511469e+05
  -2.617835e+05  -1.834885e+05
   1.528387e+05  -8.962059e+05
   7.572776e+05  -9.209985e+05
   1.063966e+06  -1.004647e+05
   6.365582e+05   7.906360e+05
  -3.472836e+05   9.010117e+05
  -1.024050e+06   2.119862e+05
  -6.330541e+05  -5.188987e+05
   5.709970e+05  -5.943470e+05
   1.423449e+06  -4.821886e+03
   1.022965e+06   6.967441e+05
  -2.986946e+05   9.465296e+05
  -1.313723e+06   5.880646e+05
  -1.163784e+06  -6.309912e+04
  -1.800699e+05  -4.660421e+05
   5.460032e+05  -2.938207e+05
   3.058225e+05   2.202039e+05
  -5.508628e+05   4.200051e+05
  -1.028302e+06  -1.257729e+05
  -5.172893e+05  -1.063855e+06
   5.965709e+05  -1.464904e+06
   1.338492e+06  -7.326953e+05
   1.107989e+06   6.826827e+05
   1.915357e+05   1.592157e+06
  -6.293456e+05   1.199623e+06
  -8.300586e+05  -7.901572e+04
  -4.609024e+05  -1.028609e+06
   9.435400e+04  -8.965348e+05
   4.666512e+05  -1.157792e+05
   4.755799e+05   3.348049e+05
   2.122743e+05   1.352137e+05
   1.514576e+04  -1.033010e+05
   1.549489e+05   2.166501e+05
   4.271763e+05   8.252840e+05
   2.637886e+05   9.559300e+05
  -5.324331e+05   3.674272e+05
  -1.318725e+06  -3.884153e+05
  -1.213195e+06  -7.123442e+05
  -1.814850e+05  -5.958455e+05
   8.088681e+05  -3.782870e+05
   8.859259e+05  -2.008406e+05
   2.624318e+05   6.918929e+03
  -1.501009e+05   1.954580e+05
   4.797554e+04   2.133455e+05
   3.157517e+05   1.171257e+05
   1.580369e+04   1.233079e+05
  -6.649598e+05   1.903684e+05
  -9.114659e+05  -2.385793e+04
  -2.718272e+05  -5.984659e+05
   8.050842e+05  -1.000537e+06
   1.437393e+06  -6.192626e+05
   1.150682e+06   4.165212e+05
   2.243123e+05   1.247924e+06
  -6.430284e+05   1.187631e+06
  -9.189606e+05   4.296072e+05
  -5.913742e+05  -2.400374e+05
  -8.777837e+04  -3.145203e+05
   1.294561e+05  -1.894511e+04
  -4.333001e+04   6.466115e+04
  -3.003438e+05  -2.952551e+05
  -2.538521e+05  -7.051389e+05
   1.681623e+05  -5.829695e+05
   6.170042e+05   1.493789e+05
   6.161209e+05   8.811375e+05
   2.924529e+04   9.024264e+05
  -7.070580e+05   1.578413e+05
  -8.952775e+05  -6.902815e+05
  -2.672964e+05  -9.534472e+05
   6.362673e+05  -5.489178e+05
   9.493363e+05   8.037456e+04
   4.277663e+05   4.893200e+05
  -2.469459e+05   5.338425e+05
  -2.747249e+05   3.065473e+05
   2.810853e+05   2.593180e+04
   5.869918e+05  -3.002931e+04
   1.083427e+05   2.588336e+05
  -7.192316e+05   6.102444e+05
  -1.044955e+06   5.258544e+05
  -6.047290e+05  -1.061184e+05
   8.605479e+04  -7.393126e+05
   4.264966e+05  -7.257397e+05
   3.141013e+05  -9.560501e+04
   1.943604e+04   4.480840e+05
  -2.212885e+05   3.510772e+05
  -3.175342e+05  -1.814364e+05
  -2.180723e+05  -5.079151e+05
   6.223343e+04  -3.261511e+05
   3.428635e+05   6.113283e+04
   3.969947e+05   2.064315e+05
   2.102545e+05   4.878327e+04
  -4.200081e+01  -9.048524e+04
  -6.528322e+04   5.170989e+04
  -6.110656e+04   3.513162e+05
  -1.534222e+05   4.309029e+05
  -3.209349e+05   9.599853e+04
  -3.363352e+05  -4.011589e+05
  -4.450123e+04  -5.836888e+05
   3.865735e+05  -2.532667e+05
   5.508046e+05   2.809564e+05
   1.994378e+05   5.262704e+05
  -4.276504e+05   3.141701e+05
  -7.444851e+05  -8.876029e+04
  -4.062672e+05  -3.316104e+05
   2.589533e+05  -3.118348e+05
   5.489042e+05  -1.520333e+05
   1.776074e+05  -5.313987e+03
  -3.668181e+05   2.242882e+04
  -3.863448e+05  -1.130052e+05
   1.922318e+05  -2.966737e+05
   7.316193e+05  -2.460304e+05
