
 $NMID
 id='ANONYMOUS ', fmtdat='(2E16.6)'
 volume=1.0
 tramp=1.0
 $END
   4.512377e+07  -4.653821e+05
   2.802444e+07   2.617304e+07
  -4.376583e+06   3.012455e+07
  -2.134761e+07   1.352754e+07
  -1.389456e+07  -3.803461e+06
   1.755949e+06  -7.616680e+06
   8.121734e+06  -2.368748e+05
   3.343488e+06   7.629938e+06
  -4.207495e+06   8.611665e+06
  -7.842283e+06   2.572799e+06
  -6.058720e+06  -5.089969e+06
  -8.213797e+05  -7.467070e+06
   3.444079e+06  -2.202859e+06
   2.510644e+06   5.102523e+06
  -2.835030e+06   6.173089e+06
  -6.590029e+06  -5.580874e+05
  -4.123791e+06  -8.282814e+06
   2.691103e+06  -9.890053e+06
   8.169191e+06  -4.972916e+06
   8.729904e+06   1.766955e+06
   5.032373e+06   6.043117e+06
   3.401472e+05   6.513981e+06
  -1.837614e+06   4.379417e+06
  -3.902600e+05   2.398598e+06
   1.674461e+06   2.736643e+06
  -1.884769e+04   4.334403e+06
  -5.362010e+06   3.813131e+06
  -8.773635e+06   6.440509e+04
  -5.956093e+06  -3.787780e+06
   3.488858e+05  -4.296476e+06
   3.805688e+06  -1.824334e+06
   2.150165e+06   7.042712e+05
  -1.342013e+06   1.442262e+06
  -2.977839e+06   3.285115e+05
  -2.165180e+06  -2.017206e+06
  -1.380851e+05  -3.958959e+06
   1.794790e+06  -3.085925e+06
   2.300837e+06   5.785809e+05
   8.758636e+05   3.005046e+06
  -6.934772e+05   9.326967e+05
   1.906555e+04  -2.765679e+06
   2.253176e+06  -2.305668e+06
   2.264435e+06   2.473434e+06
  -1.410347e+06   5.037585e+06
  -5.067920e+06   1.068006e+06
  -4.104524e+06  -5.295955e+06
   1.200351e+06  -6.791899e+06
   6.008925e+06  -2.076766e+06
   6.237241e+06   3.597265e+06
   2.088589e+06   5.254286e+06
  -2.913703e+06   2.741507e+06
  -4.940747e+06  -9.159854e+05
  -2.597026e+06  -2.874152e+06
   1.767939e+06  -2.040592e+06
   3.850072e+06   4.995426e+05
   1.839759e+06   2.122496e+06
  -1.355278e+06   1.200272e+06
  -1.703058e+06  -8.012483e+05
   7.471220e+05  -1.063097e+06
   2.140101e+06   8.291398e+05
   1.275581e+05   2.428806e+06
  -3.217511e+06   1.761657e+06
  -4.326867e+06  -6.048358e+05
  -2.154270e+06  -3.052363e+06
   1.591517e+06  -4.560471e+06
   4.657133e+06  -4.258534e+06
   5.537956e+06  -1.389813e+06
   3.832001e+06   2.923331e+06
   7.543406e+05   5.487962e+06
  -1.359065e+06   4.383330e+06
  -1.304696e+06   1.540928e+06
  -3.914985e+05   2.979024e+05
  -6.291416e+05   1.082833e+06
  -2.035136e+06   1.383708e+06
  -2.802095e+06  -2.741894e+05
  -1.782036e+06  -2.278780e+06
   2.873014e+05  -2.285609e+06
   1.841640e+06  -1.447519e+05
   1.781006e+06   2.221842e+06
  -7.311996e+04   2.906333e+06
  -2.677723e+06   1.402410e+06
  -3.985234e+06  -1.291186e+06
  -2.677105e+06  -3.355763e+06
   1.027076e+05  -3.512734e+06
   1.837495e+06  -2.207104e+06
   1.733556e+06  -1.045773e+06
   1.542490e+06  -8.206830e+05
   2.749933e+06  -6.639909e+05
   4.166548e+06   5.387343e+05
   3.428305e+06   2.543996e+06
   2.287561e+05   4.008567e+06
  -3.110499e+06   3.850183e+06
  -4.143113e+06   2.003214e+06
  -2.561374e+06  -5.765876e+05
  -8.221877e+04  -2.254736e+06
   1.219920e+06  -1.813752e+06
   5.316884e+05   1.022938e+05
  -1.108778e+06   1.262902e+06
  -1.805227e+06   3.909751e+05
  -8.154289e+05  -1.130703e+06
   5.587145e+05  -1.109047e+06
   5.557894e+05   3.443866e+05
  -8.166264e+05   8.977418e+05
  -1.812830e+06  -7.530137e+05
  -1.089511e+06  -3.053533e+06
   9.305939e+05  -3.543404e+06
   2.827297e+06  -1.666580e+06
   3.502869e+06   1.021990e+06
   2.611748e+06   2.716598e+06
   5.965001e+05   2.714305e+06
  -1.257741e+06   1.484323e+06
  -1.594740e+06   2.046683e+05
  -4.870582e+05  -3.786933e+04
   3.706433e+05   7.288669e+05
  -3.356617e+05   1.271004e+06
  -1.766493e+06   5.917315e+05
  -1.965341e+06  -7.480631e+05
  -4.494031e+05  -1.313728e+06
   1.116309e+06  -6.116632e+05
   9.590726e+05   4.182804e+05
  -7.662649e+05   6.509115e+05
  -2.254577e+06  -1.163897e+05
  -1.937412e+06  -1.294433e+06
   1.057634e+05  -2.074106e+06
   2.263374e+06  -1.776810e+06
   2.751859e+06  -3.515409e+05
   1.210842e+06   1.181220e+06
  -8.482764e+05   1.421339e+06
  -1.448115e+06   1.924058e+05
  -1.686204e+05  -1.016120e+06
   1.464597e+06  -7.348961e+05
   1.714374e+06   6.981407e+05
   4.402140e+05   1.611069e+06
  -9.909153e+05   1.060228e+06
  -1.265916e+06  -1.870739e+05
  -3.273437e+05  -7.312977e+05
   7.365302e+05  -8.165489e+04
   7.233442e+05   1.013237e+06
  -5.651586e+05   1.400439e+06
  -1.980051e+06   5.408042e+05
  -2.011497e+06  -1.016776e+06
  -4.126041e+05  -2.027490e+06
   1.362664e+06  -1.643730e+06
   1.686486e+06  -2.682503e+05
   5.432443e+05   8.302051e+05
  -6.171110e+05   8.254699e+05
  -6.694296e+05   8.481854e+04
   6.888607e+04  -4.366184e+05
   5.424976e+05  -3.009045e+05
   2.540012e+05   7.872386e+04
  -3.717244e+05   4.224603e+04
  -5.587095e+05  -5.610165e+05
   1.180518e+05  -1.157253e+06
   1.324288e+06  -9.261559e+05
   2.062624e+06   3.595911e+05
   1.476864e+06   1.889810e+06
  -1.728671e+05   2.416320e+06
  -1.581665e+06   1.486907e+06
  -1.733683e+06  -4.564171e+04
  -9.592097e+05  -9.247802e+05
  -3.607392e+05  -7.772484e+05
  -4.075102e+05  -2.978607e+05
  -5.374006e+05  -2.707483e+05
  -8.815733e+04  -6.981129e+05
   8.224314e+05  -9.216748e+05
   1.442868e+06  -3.948397e+05
   1.117039e+06   7.096792e+05
  -1.764067e+05   1.520822e+06
  -1.691825e+06   1.145775e+06
  -2.264152e+06  -4.226051e+05
  -1.202454e+06  -2.043186e+06
   8.912861e+05  -2.352458e+06
   2.446755e+06  -1.112424e+06
   2.370600e+06   5.369958e+05
   1.071743e+06   1.301039e+06
  -1.285526e+05   1.024247e+06
  -4.340009e+05   5.947564e+05
  -1.762555e+05   7.425161e+05
  -1.377221e+05   1.229937e+06
  -6.249755e+05   1.235093e+06
  -1.241303e+06   3.193322e+05
  -1.327384e+06  -1.055281e+06
  -5.750729e+05  -1.872634e+06
   6.018398e+05  -1.435401e+06
   1.280589e+06  -3.448790e+04
   8.450292e+05   1.223906e+06
  -3.097063e+05   1.381977e+06
  -1.080071e+06   4.824544e+05
  -8.035459e+05  -5.796886e+05
   3.855501e+04  -1.010016e+06
   4.323334e+05  -7.919465e+05
   4.090003e+04  -4.465705e+05
  -4.201195e+05  -3.448731e+05
  -5.583098e+04  -3.871200e+05
   1.104460e+06  -2.375598e+05
   2.007587e+06   2.780868e+05
   1.618145e+06   9.701420e+05
   3.727684e+04   1.380372e+06
  -1.494527e+06   1.137087e+06
  -1.786242e+06   3.437574e+05
  -8.507420e+05  -4.050537e+05
   2.227929e+05  -5.346681e+05
   4.865887e+05  -6.965557e+04
   1.454948e+04   3.765874e+05
  -4.574926e+05   2.524467e+05
  -4.751569e+05  -3.327437e+05
  -2.138805e+05  -7.293485e+05
  -5.642353e+04  -4.790904e+05
  -1.387948e+05   1.310481e+05
  -3.085693e+05   3.391314e+05
  -2.862266e+05  -2.197581e+05
   1.473666e+05  -9.987723e+05
   8.715892e+05  -1.062913e+06
   1.291188e+06  -1.615237e+05
   8.030585e+05   8.970176e+05
  -3.945384e+05   1.091265e+06
  -1.211051e+06   3.075257e+05
  -7.309428e+05  -5.721755e+05
   6.728780e+05  -6.647561e+05
   1.598798e+06   4.020546e+04
   1.077061e+06   8.245570e+05
  -4.151354e+05   1.028437e+06
  -1.490744e+06   5.691113e+05
  -1.270153e+06  -1.315651e+05
  -1.672538e+05  -5.189474e+05
   6.343772e+05  -3.010744e+05
   3.713189e+05   2.716984e+05
  -5.951801e+05   5.081405e+05
  -1.175197e+06  -9.398349e+04
  -6.482734e+05  -1.182606e+06
   6.059260e+05  -1.690010e+06
   1.486427e+06  -8.785028e+05
   1.263066e+06   7.503217e+05
   2.266863e+05   1.793877e+06
  -7.167976e+05   1.327061e+06
  -9.332898e+05  -1.334038e+05
  -4.784330e+05  -1.177550e+06
   1.668028e+05  -9.896009e+05
   5.485391e+05  -1.079031e+05
   4.974450e+05   3.738302e+05
   1.939616e+05   1.421642e+05
   3.583199e+04  -1.042393e+05
   2.437304e+05   2.728167e+05
   5.102186e+05   9.486842e+05
   2.426386e+05   1.078491e+06
  -6.686907e+05   4.109783e+05
  -1.486814e+06  -4.398558e+05
  -1.323899e+06  -8.123210e+05
  -2.002246e+05  -6.878845e+05
   8.714626e+05  -4.319018e+05
   9.892617e+05  -2.095103e+05
   3.386723e+05   3.243279e+04
  -1.516292e+05   2.257337e+05
  -1.451695e+03   2.189317e+05
   2.985375e+05   1.051399e+05
   4.072481e+04   1.346848e+05
  -6.906005e+05   2.368627e+05
  -1.041940e+06  -3.479027e+03
  -3.987657e+05  -6.814432e+05
   8.503451e+05  -1.173456e+06
   1.665539e+06  -7.602707e+05
   1.380585e+06   4.260912e+05
   2.868283e+05   1.405137e+06
  -7.358568e+05   1.375980e+06
  -1.039508e+06   5.353276e+05
  -6.633474e+05  -2.365447e+05
  -1.273711e+05  -3.558436e+05
   9.443053e+04  -5.251620e+04
  -7.056546e+04   3.638565e+04
  -3.184743e+05  -3.529766e+05
  -2.713098e+05  -8.019785e+05
   1.733023e+05  -6.757483e+05
   6.885665e+05   1.264105e+05
   7.400527e+05   9.552886e+05
   1.053905e+05   1.026896e+06
  -7.640522e+05   2.379551e+05
  -1.039514e+06  -7.236326e+05
  -3.511145e+05  -1.081383e+06
   7.051285e+05  -6.715080e+05
   1.106622e+06   6.259003e+04
   5.265922e+05   5.867245e+05
  -2.745057e+05   6.602752e+05
  -3.531585e+05   3.673914e+05
   2.689012e+05   1.140643e+04
   6.535796e+05  -4.764946e+04
   1.442027e+05   3.013856e+05
  -8.120427e+05   6.950737e+05
  -1.228696e+06   5.757159e+05
  -7.420922e+05  -1.488823e+05
   8.332281e+04  -8.614238e+05
   5.187077e+05  -8.546124e+05
   4.027051e+05  -1.527794e+05
   5.204917e+04   4.866200e+05
  -2.356742e+05   4.282620e+05
  -3.566863e+05  -1.583720e+05
  -2.613025e+05  -5.727164e+05
   5.098699e+04  -4.115520e+05
   3.909874e+05   4.534435e+04
   4.726877e+05   2.596423e+05
   2.427828e+05   8.080492e+04
  -2.695529e+04  -1.360137e+05
  -8.086900e+04  -1.300259e+04
  -5.244987e+03   3.659378e+05
  -7.590247e+04   5.335331e+05
  -3.279852e+05   1.929540e+05
  -4.429436e+05  -3.927695e+05
  -1.378767e+05  -6.489740e+05
   4.112500e+05  -3.137625e+05
   6.579730e+05   2.790397e+05
   2.558663e+05   5.754955e+05
  -4.950268e+05   3.714040e+05
  -8.731974e+05  -6.746973e+04
  -4.803379e+05  -3.690178e+05
   2.869031e+05  -3.924789e+05
   6.305842e+05  -2.238123e+05
   2.368722e+05  -1.923580e+04
  -3.637369e+05   6.287655e+04
  -4.168763e+05  -7.386138e+04
   1.762810e+05  -3.062146e+05
   7.614130e+05  -2.864454e+05
