
 $NMID
 id='ANONYMOUS ', fmtdat='(2E16.6)'
 volume=1.0
 tramp=1.0
 $END
   2.479304e+07  -9.059572e+05
   1.737026e+07   1.092032e+07
   8.459165e+05   1.587186e+07
  -1.051543e+07   1.121142e+07
  -9.394987e+06   1.550477e+06
  -8.577266e+05  -4.623860e+06
   5.207399e+06  -2.607921e+06
   4.188393e+06   3.997944e+06
  -9.704823e+05   7.234776e+06
  -4.736454e+06   3.398044e+06
  -4.220865e+06  -3.183094e+06
  -6.319797e+05  -5.352010e+06
   2.429296e+06  -1.133518e+06
   2.045294e+06   4.482406e+06
  -1.392253e+06   5.372237e+06
  -4.304703e+06   6.841367e+05
  -3.376933e+06  -4.901655e+06
   9.105003e+05  -6.392875e+06
   4.712918e+06  -3.154982e+06
   4.886331e+06   1.318047e+06
   2.104847e+06   3.393056e+06
  -2.554630e+05   2.634397e+06
   1.059760e+05   1.460857e+06
   2.067721e+06   2.024717e+06
   2.388117e+06   3.818418e+06
  -7.159294e+05   4.445379e+06
  -5.236265e+06   2.461424e+06
  -6.944281e+06  -9.603401e+05
  -3.792548e+06  -3.215650e+06
   1.460388e+06  -2.753676e+06
   3.820955e+06  -2.934958e+05
   1.388714e+06   1.969727e+06
  -2.707004e+06   2.083613e+06
  -4.072996e+06  -2.071750e+05
  -1.862137e+06  -3.053230e+06
   1.008763e+06  -3.807815e+06
   1.757777e+06  -1.596927e+06
   5.397184e+05   1.340887e+06
  -6.249865e+05   1.754760e+06
  -4.271505e+05  -8.083260e+05
   8.137871e+05  -3.152767e+06
   1.939936e+06  -2.164495e+06
   1.876135e+06   1.247945e+06
   2.949722e+05   3.107541e+06
  -1.771305e+06   1.174333e+06
  -2.255754e+06  -2.399814e+06
   5.338267e+03  -3.686880e+06
   3.459822e+06  -1.371339e+06
   4.796323e+06   2.213662e+06
   2.315564e+06   3.897670e+06
  -1.992408e+06   2.656929e+06
  -4.290050e+06  -2.241665e+04
  -2.766721e+06  -1.877817e+06
   6.794729e+05  -1.722851e+06
   2.616527e+06  -1.618996e+05
   1.584145e+06   1.104295e+06
  -7.268042e+05   8.642147e+05
  -1.580926e+06  -4.620955e+05
  -1.823405e+05  -1.321247e+06
   1.594287e+06  -7.155622e+05
   1.416384e+06   7.495988e+05
  -7.864492e+05   1.525233e+06
  -2.617177e+06   6.334737e+05
  -1.805396e+06  -1.460598e+06
   1.280616e+06  -3.177905e+06
   4.012237e+06  -2.971145e+06
   4.253062e+06  -5.869608e+05
   2.336212e+06   2.491366e+06
   2.607030e+05   4.149409e+06
  -5.991968e+05   3.589496e+06
  -5.937981e+05   2.036414e+06
  -8.517058e+05   1.170056e+06
  -1.784350e+06   1.097579e+06
  -2.697532e+06   4.911636e+05
  -2.591481e+06  -1.262346e+06
  -1.140561e+06  -2.827273e+06
   9.331311e+05  -2.373458e+06
   2.254501e+06   9.160377e+04
   1.761535e+06   2.475611e+06
  -3.273641e+05   2.726967e+06
  -2.449695e+06   8.108832e+05
  -2.935387e+06  -1.522330e+06
  -1.559371e+06  -2.585912e+06
   2.650952e+05  -2.152290e+06
   1.047235e+06  -1.237369e+06
   8.508727e+05  -8.448296e+05
   1.041243e+06  -9.979041e+05
   2.364640e+06  -8.621351e+05
   3.692307e+06   2.865843e+05
   3.110717e+06   2.192782e+06
   2.367609e+05   3.657196e+06
  -2.966011e+06   3.480491e+06
  -3.977662e+06   1.541649e+06
  -2.236822e+06  -9.160125e+05
   3.557406e+05  -2.164026e+06
   1.432215e+06  -1.453721e+06
   4.375160e+05   2.319651e+05
  -1.141403e+06   1.074029e+06
  -1.561071e+06   2.972279e+05
  -5.553668e+05  -9.685507e+05
   6.513478e+05  -1.018068e+06
   7.447007e+05   2.923764e+05
  -4.108413e+05   1.209602e+06
  -1.702579e+06   1.447619e+05
  -1.753951e+06  -2.272112e+06
  -1.009369e+05  -3.676816e+06
   2.304212e+06  -2.493305e+06
   3.709455e+06   4.065442e+05
   2.983769e+06   2.674213e+06
   6.960740e+05   2.820858e+06
  -1.293121e+06   1.397275e+06
  -1.554183e+06   8.523923e+04
  -4.527108e+05  -4.070121e+04
   3.488000e+05   6.688082e+05
  -2.202687e+05   1.081131e+06
  -1.452055e+06   5.358805e+05
  -1.736124e+06  -5.283167e+05
  -5.059541e+05  -1.090371e+06
   9.912908e+05  -6.187040e+05
   1.029373e+06   3.793552e+05
  -6.231183e+05   8.419835e+05
  -2.307920e+06   1.628600e+05
  -2.156840e+06  -1.224106e+06
  -6.388310e+04  -2.181425e+06
   2.160230e+06  -1.832614e+06
   2.602440e+06  -3.709129e+05
   1.104102e+06   1.014901e+06
  -7.205929e+05   1.177652e+06
  -1.176857e+06   1.457307e+05
  -6.806863e+04  -8.476359e+05
   1.323747e+06  -6.426518e+05
   1.605619e+06   5.751558e+05
   5.528150e+05   1.486295e+06
  -8.069083e+05   1.140322e+06
  -1.231033e+06   5.834204e+03
  -4.437169e+05  -6.259252e+05
   5.938977e+05  -1.084696e+05
   6.267109e+05   9.131157e+05
  -5.698152e+05   1.262437e+06
  -1.848234e+06   4.320135e+05
  -1.825646e+06  -9.807422e+05
  -3.703045e+05  -1.854995e+06
   1.212474e+06  -1.517715e+06
   1.543943e+06  -3.032598e+05
   5.661185e+05   7.426715e+05
  -5.434275e+05   8.071506e+05
  -7.089703e+05   6.242575e+04
   8.756784e+02  -5.661947e+05
   6.408995e+05  -4.322411e+05
   4.877973e+05   1.326068e+05
  -2.282894e+05   2.665854e+05
  -6.056806e+05  -3.490136e+05
  -1.677822e+04  -1.051992e+06
   1.188280e+06  -8.948023e+05
   1.915662e+06   3.176838e+05
   1.355291e+06   1.753188e+06
  -1.795439e+05   2.284583e+06
  -1.511499e+06   1.494983e+06
  -1.742779e+06   3.265850e+04
  -1.063257e+06  -9.892969e+05
  -3.724477e+05  -1.000941e+06
  -2.275161e+05  -4.383120e+05
  -3.345873e+05  -1.819154e+05
  -6.159098e+04  -5.386363e+05
   7.179594e+05  -8.913175e+05
   1.388349e+06  -4.532918e+05
   1.165223e+06   7.066100e+05
  -9.729161e+04   1.568753e+06
  -1.608516e+06   1.166320e+06
  -2.175044e+06  -3.797930e+05
  -1.200741e+06  -1.892016e+06
   7.118532e+05  -2.192115e+06
   2.198078e+06  -1.128997e+06
   2.288764e+06   3.742114e+05
   1.195503e+06   1.227298e+06
  -2.784320e+04   1.133825e+06
  -5.388962e+05   7.031345e+05
  -3.873390e+05   6.594949e+05
  -2.363396e+05   1.006066e+06
  -5.481834e+05   1.050061e+06
  -1.090332e+06   2.605305e+05
  -1.198961e+06  -1.008591e+06
  -5.044566e+05  -1.763269e+06
   5.942684e+05  -1.336698e+06
   1.214356e+06  -5.052673e+04
   8.251446e+05   1.087620e+06
  -1.920775e+05   1.286113e+06
  -8.982848e+05   5.780516e+05
  -7.450182e+05  -3.524928e+05
  -9.837405e+04  -8.442400e+05
   2.415018e+05  -7.720487e+05
  -2.327332e+04  -4.906044e+05
  -3.557482e+05  -3.614016e+05
  -2.720135e+04  -3.766601e+05
   9.764554e+05  -2.402415e+05
   1.794036e+06   2.339397e+05
   1.508218e+06   8.600773e+05
   1.344468e+05   1.217994e+06
  -1.279887e+06   1.024343e+06
  -1.633099e+06   3.880392e+05
  -8.407905e+05  -2.471978e+05
   1.522055e+05  -4.361336e+05
   4.215292e+05  -1.214479e+05
  -2.737353e+04   2.650578e+05
  -4.741898e+05   2.030846e+05
  -4.236779e+05  -3.180256e+05
  -8.564053e+04  -7.076885e+05
   5.105463e+04  -4.494912e+05
  -1.477881e+05   1.927142e+05
  -3.785602e+05   3.988734e+05
  -2.868902e+05  -1.977279e+05
   2.019927e+05  -9.658235e+05
   8.200828e+05  -9.664149e+05
   1.082527e+06  -7.590411e+04
   6.183531e+05   8.443373e+05
  -3.752268e+05   9.186342e+05
  -1.059339e+06   1.770640e+05
  -6.588697e+05  -5.773701e+05
   6.115396e+05  -6.392523e+05
   1.549963e+06  -2.800635e+03
   1.145497e+06   7.655093e+05
  -3.016452e+05   1.056524e+06
  -1.444401e+06   6.678942e+05
  -1.293809e+06  -6.380724e+04
  -2.054949e+05  -5.184629e+05
   5.900489e+05  -3.285947e+05
   3.138936e+05   2.235067e+05
  -6.117044e+05   4.144321e+05
  -1.086581e+06  -1.834515e+05
  -4.918486e+05  -1.154971e+06
   7.072865e+05  -1.529890e+06
   1.462232e+06  -7.253242e+05
   1.168659e+06   7.686765e+05
   1.667459e+05   1.720495e+06
  -7.050513e+05   1.298892e+06
  -9.052970e+05  -7.546910e+04
  -5.054905e+05  -1.117355e+06
   8.744295e+04  -9.917083e+05
   4.968714e+05  -1.341072e+05
   5.294904e+05   3.818627e+05
   2.522110e+05   1.665372e+05
   9.410325e+03  -1.228748e+05
   1.258559e+05   2.041709e+05
   4.299655e+05   8.817584e+05
   2.991509e+05   1.048366e+06
  -5.401980e+05   4.023465e+05
  -1.415352e+06  -4.452301e+05
  -1.323721e+06  -7.976625e+05
  -1.896814e+05  -6.377001e+05
   9.047741e+05  -3.792773e+05
   9.698029e+05  -2.067918e+05
   2.617485e+05  -1.171524e+04
  -1.757674e+05   2.006642e+05
   7.728349e+04   2.568136e+05
   3.681650e+05   1.622606e+05
  -8.321351e+02   1.310992e+05
  -7.535065e+05   1.648544e+05
  -9.689720e+05  -5.617911e+04
  -2.248232e+05  -6.271760e+05
   9.153297e+05  -1.022179e+06
   1.522376e+06  -6.094973e+05
   1.171720e+06   4.823659e+05
   1.946057e+05   1.345050e+06
  -7.037720e+05   1.247484e+06
  -9.873533e+05   4.133981e+05
  -6.277874e+05  -2.933300e+05
  -7.067435e+04  -3.342406e+05
   1.654293e+05   1.289650e+04
  -4.251766e+04   9.633435e+04
  -3.348372e+05  -3.167015e+05
  -2.700280e+05  -7.649818e+05
   1.996583e+05  -6.104219e+05
   6.578713e+05   2.017085e+05
   6.099291e+05   9.774149e+05
  -3.019289e+04   9.527129e+05
  -7.738049e+05   1.111018e+05
  -9.211161e+05  -7.908943e+05
  -2.390545e+05  -1.019585e+06
   6.941759e+05  -5.436700e+05
   9.940244e+05   1.160486e+05
   4.313744e+05   5.054480e+05
  -2.673581e+05   5.336352e+05
  -2.709991e+05   3.208620e+05
   3.288780e+05   5.532337e+04
   6.361871e+05  -9.812555e+03
   9.987533e+04   2.708281e+05
  -7.865018e+05   6.394309e+05
  -1.110687e+06   5.674298e+05
  -6.191348e+05  -9.573078e+04
   1.106493e+05  -7.756324e+05
   4.437895e+05  -7.598375e+05
   3.009138e+05  -7.915591e+04
  -1.112613e+04   4.889671e+05
  -2.476606e+05   3.510425e+05
  -3.296913e+05  -2.314441e+05
  -2.151721e+05  -5.492148e+05
   7.635715e+04  -3.191776e+05
   3.608207e+05   8.679738e+04
   4.143053e+05   2.087617e+05
   2.279132e+05   3.967797e+04
   1.122954e+04  -7.060510e+04
  -8.246833e+04   1.004506e+05
  -1.194234e+05   3.827884e+05
  -2.246035e+05   4.109951e+05
  -3.510026e+05   3.681592e+04
  -3.019864e+05  -4.630933e+05
   2.070577e+04  -6.174094e+05
   4.316049e+05  -2.423542e+05
   5.573090e+05   3.300985e+05
   1.810733e+05   5.764213e+05
  -4.562458e+05   3.222084e+05
  -7.733465e+05  -1.242064e+05
  -4.165608e+05  -3.644369e+05
   2.801464e+05  -3.045349e+05
   5.767609e+05  -1.225897e+05
   1.660874e+05  -1.778470e+03
  -4.191296e+05  -1.763298e+04
  -4.145688e+05  -1.673381e+05
   2.448949e+05  -3.249579e+05
   8.321103e+05  -2.309033e+05
