
 $NMID
 id='ANONYMOUS ', fmtdat='(2E16.6)'
 volume=1.0
 tramp=1.0
 $END
  -5.294891e+07   3.957505e+05
  -3.222309e+07  -3.236752e+07
   6.538765e+06  -3.586314e+07
   2.579689e+07  -1.420183e+07
   1.568497e+07   6.262114e+06
  -2.934929e+06   8.837372e+06
  -9.320074e+06  -9.289822e+05
  -2.831751e+06  -9.174702e+06
   5.702755e+06  -8.996230e+06
   9.104629e+06  -2.066196e+06
   6.668625e+06   5.817277e+06
   8.233643e+05   8.163602e+06
  -3.768402e+06   2.595704e+06
  -2.537197e+06  -5.213325e+06
   3.505349e+06  -6.310637e+06
   7.462927e+06   1.147476e+06
   4.311525e+06   9.597068e+06
  -3.449300e+06   1.118107e+07
  -9.476680e+06   5.644157e+06
  -1.017607e+07  -1.878269e+06
  -6.233349e+06  -6.990288e+06
  -6.926521e+05  -8.060184e+06
   2.613881e+06  -5.661977e+06
   1.583950e+06  -2.615601e+06
  -1.128456e+06  -2.185423e+06
  -2.036110e+05  -4.051441e+06
   5.200916e+06  -4.173281e+06
   9.209394e+06  -4.507120e+05
   6.676495e+06   3.910667e+06
   1.864170e+05   4.771965e+06
  -3.585601e+06   2.382818e+06
  -2.326298e+06  -7.494173e+04
   7.062915e+05  -9.560423e+05
   2.299890e+06  -4.305457e+05
   2.102856e+06   1.466780e+06
   5.940699e+05   3.790684e+06
  -1.716704e+06   3.622819e+06
  -2.981546e+06  -1.357428e+05
  -1.559737e+06  -3.401957e+06
   7.060826e+05  -1.725340e+06
   2.708953e+05   2.411571e+06
  -2.352802e+06   2.238635e+06
  -2.367484e+06  -2.984439e+06
   2.169612e+06  -5.815829e+06
   6.460432e+06  -1.051862e+06
   4.863343e+06   6.440174e+06
  -1.693510e+06   8.031336e+06
  -6.977379e+06   2.337105e+06
  -6.656964e+06  -4.167153e+06
  -1.846269e+06  -5.742028e+06
   3.290896e+06  -2.649345e+06
   5.072009e+06   1.384698e+06
   2.394125e+06   3.300304e+06
  -2.244153e+06   2.127468e+06
  -4.303012e+06  -8.133468e+05
  -1.892379e+06  -2.547450e+06
   1.607196e+06  -1.314490e+06
   1.688871e+06   9.634569e+05
  -1.202857e+06   9.325845e+05
  -2.384421e+06  -1.552061e+06
   4.511630e+05  -3.211418e+06
   4.271260e+06  -1.871280e+06
   5.020282e+06   1.170717e+06
   2.252716e+06   3.713090e+06
  -1.695802e+06   5.005970e+06
  -4.787327e+06   4.618156e+06
  -5.897536e+06   1.659747e+06
  -4.338318e+06  -3.003898e+06
  -9.074875e+05  -5.878968e+06
   1.721389e+06  -4.587200e+06
   1.655787e+06  -1.248741e+06
   2.141059e+05   1.703150e+05
   7.568713e+04  -9.432580e+05
   1.609300e+06  -1.661625e+06
   2.714969e+06  -1.554659e+05
   1.922688e+06   1.922124e+06
  -2.762028e+04   2.098015e+06
  -1.553901e+06   1.805442e+05
  -1.643387e+06  -2.047330e+06
   8.443648e+03  -2.849263e+06
   2.669012e+06  -1.573658e+06
   4.269884e+06   1.156721e+06
   3.062555e+06   3.574807e+06
  -2.137856e+04   3.999318e+06
  -2.129365e+06   2.580309e+06
  -2.093557e+06   1.109687e+06
  -1.746527e+06   6.943986e+05
  -2.844318e+06   4.980349e+05
  -4.216697e+06  -7.074515e+05
  -3.392666e+06  -2.665645e+06
  -1.396049e+05  -4.010137e+06
   3.116035e+06  -3.794948e+06
   4.063620e+06  -2.047396e+06
   2.571061e+06   4.318162e+05
   2.388085e+05   2.175945e+06
  -1.087733e+06   1.864457e+06
  -5.431190e+05  -4.367100e+04
   1.064949e+06  -1.269851e+06
   1.848262e+06  -3.894877e+05
   8.868084e+05   1.163685e+06
  -5.124626e+05   1.084911e+06
  -4.364652e+05  -3.805691e+05
   1.017517e+06  -7.154697e+05
   1.825677e+06   1.187670e+06
   6.990223e+05   3.363774e+06
  -1.478773e+06   3.368113e+06
  -3.047560e+06   1.162849e+06
  -3.266002e+06  -1.370086e+06
  -2.257451e+06  -2.705980e+06
  -4.506329e+05  -2.566865e+06
   1.216958e+06  -1.429197e+06
   1.542652e+06  -2.166343e+05
   4.811861e+05   4.459403e+04
  -3.511140e+05  -7.341542e+05
   3.958933e+05  -1.306398e+06
   1.852225e+06  -5.693133e+05
   1.985817e+06   8.552634e+05
   3.842312e+05   1.379030e+06
  -1.144273e+06   5.624411e+05
  -8.768381e+05  -4.473144e+05
   8.296600e+05  -5.225055e+05
   2.146982e+06   3.027266e+05
   1.722218e+06   1.333113e+06
  -2.394358e+05   1.941600e+06
  -2.261953e+06   1.625015e+06
  -2.714429e+06   2.693424e+05
  -1.190995e+06  -1.232861e+06
   8.926026e+05  -1.463836e+06
   1.517321e+06  -1.876554e+05
   1.948790e+05   1.051120e+06
  -1.481416e+06   7.204084e+05
  -1.683237e+06  -7.621962e+05
  -3.355350e+05  -1.619253e+06
   1.067537e+06  -9.633067e+05
   1.235658e+06   3.005586e+05
   2.458947e+05   7.660266e+05
  -7.775118e+05   5.647006e+04
  -7.207123e+05  -1.029443e+06
   5.638494e+05  -1.392792e+06
   1.964451e+06  -5.301273e+05
   1.991564e+06   1.027460e+06
   3.765149e+05   2.030154e+06
  -1.408038e+06   1.609291e+06
  -1.690555e+06   2.074200e+05
  -4.936251e+05  -8.512603e+05
   6.452746e+05  -7.881494e+05
   6.225683e+05  -7.261716e+04
  -1.173366e+05   3.590025e+05
  -4.879816e+05   2.061257e+05
  -1.263309e+05  -7.045330e+04
   4.392478e+05   6.650399e+04
   5.120480e+05   6.543918e+05
  -1.985748e+05   1.163337e+06
  -1.352635e+06   8.779183e+05
  -2.038091e+06  -4.047817e+05
  -1.434246e+06  -1.901909e+06
   2.126341e+05  -2.370483e+06
   1.583696e+06  -1.384710e+06
   1.658180e+06   1.239258e+05
   8.411663e+05   8.836682e+05
   3.063897e+05   6.458248e+05
   4.600248e+05   2.160647e+05
   6.105342e+05   3.016027e+05
   9.055765e+04   7.445894e+05
  -8.569572e+05   8.831724e+05
  -1.419745e+06   3.187725e+05
  -1.028954e+06  -7.101440e+05
   2.461742e+05  -1.432942e+06
   1.687625e+06  -1.051083e+06
   2.201723e+06   4.739748e+05
   1.111496e+06   2.056683e+06
  -9.858401e+05   2.317711e+06
  -2.488540e+06   1.012804e+06
  -2.304802e+06  -6.443788e+05
  -9.391742e+05  -1.314237e+06
   2.031480e+05  -9.308639e+05
   3.863490e+05  -4.999898e+05
   8.032872e+04  -7.325489e+05
   1.002849e+05  -1.274427e+06
   6.531234e+05  -1.260047e+06
   1.264118e+06  -3.130918e+05
   1.308944e+06   1.056289e+06
   5.454592e+05   1.853812e+06
  -6.082510e+05   1.406624e+06
  -1.259063e+06  -1.700713e+03
  -7.970642e+05  -1.255787e+06
   3.802422e+05  -1.368290e+06
   1.138478e+06  -4.011819e+05
   7.973965e+05   6.793172e+05
  -1.164357e+05   1.053714e+06
  -5.231448e+05   7.690892e+05
  -8.365728e+04   4.093043e+05
   4.233646e+05   3.279934e+05
   5.850636e+04   3.748220e+05
  -1.123957e+06   2.074800e+05
  -2.019349e+06  -3.221722e+05
  -1.584535e+06  -1.013325e+06
   3.404378e+04  -1.405936e+06
   1.553391e+06  -1.119534e+06
   1.793813e+06  -2.739519e+05
   8.191034e+05   4.833921e+05
  -2.536363e+05   5.579214e+05
  -5.017521e+05   3.421836e+04
  -3.210746e+04  -4.112435e+05
   4.325145e+05  -2.528561e+05
   4.720246e+05   3.335943e+05
   2.497221e+05   7.050099e+05
   9.570219e+04   4.669726e+05
   1.355513e+05  -9.191437e+04
   2.738085e+05  -2.840148e+05
   2.698506e+05   2.276109e+05
  -1.367129e+05   9.643285e+05
  -8.781735e+05   1.045631e+06
  -1.333930e+06   1.778755e+05
  -8.385868e+05  -8.910917e+05
   4.021014e+05  -1.118577e+06
   1.230450e+06  -3.371454e+05
   7.196023e+05   5.580587e+05
  -6.877028e+05   6.357902e+05
  -1.554847e+06  -9.485024e+04
  -9.814612e+05  -8.478135e+05
   4.783769e+05  -9.677253e+05
   1.468764e+06  -4.638981e+05
   1.205163e+06   1.907932e+05
   1.290924e+05   5.033298e+05
  -6.374268e+05   2.622898e+05
  -3.793715e+05  -2.884754e+05
   5.679152e+05  -5.156206e+05
   1.158912e+06   6.994193e+04
   6.682336e+05   1.150468e+06
  -5.619974e+05   1.672387e+06
  -1.445251e+06   8.792534e+05
  -1.234198e+06  -7.337615e+05
  -2.066371e+05  -1.753124e+06
   7.219589e+05  -1.266505e+06
   9.069166e+05   1.763125e+05
   4.200574e+05   1.168983e+06
  -2.218907e+05   9.470442e+05
  -5.540122e+05   8.074757e+04
  -4.510355e+05  -3.680675e+05
  -1.526492e+05  -1.329222e+05
  -5.073279e+04   9.161983e+04
  -2.875454e+05  -2.922285e+05
  -5.078505e+05  -9.470529e+05
  -1.806675e+05  -1.055983e+06
   7.108920e+05  -3.894114e+05
   1.445746e+06   4.499171e+05
   1.247929e+06   8.165292e+05
   1.831594e+05   6.863911e+05
  -8.249151e+05   4.150344e+05
  -9.607833e+05   1.789190e+05
  -3.629940e+05  -5.541432e+04
   1.374130e+05  -2.226835e+05
   4.693713e+04  -1.963549e+05
  -2.460544e+05  -8.501625e+04
  -5.591125e+04  -1.289128e+05
   6.317064e+05  -2.402591e+05
   1.028446e+06  -1.285997e+03
   4.518498e+05   6.764234e+05
  -8.012532e+05   1.170298e+06
  -1.670939e+06   7.684002e+05
  -1.406987e+06  -4.007470e+05
  -2.883079e+05  -1.374207e+06
   7.445882e+05  -1.362324e+06
   1.024722e+06  -5.487759e+05
   6.423422e+05   2.129443e+05
   1.418318e+05   3.502838e+05
  -5.334127e+04   7.470295e+04
   8.575240e+04  -6.200394e+03
   2.906697e+05   3.639609e+05
   2.430786e+05   7.916773e+05
  -1.654597e+05   6.719879e+05
  -6.656168e+05  -9.967872e+04
  -7.457198e+05  -9.130553e+05
  -1.455730e+05  -1.011845e+06
   7.239194e+05  -2.691751e+05
   1.029303e+06   6.777844e+05
   3.673129e+05   1.065536e+06
  -6.879410e+05   6.872999e+05
  -1.107795e+06  -5.387892e+04
  -5.405351e+05  -6.069770e+05
   2.738934e+05  -6.862892e+05
   3.832564e+05  -3.706291e+05
  -2.253356e+05  -3.369091e+02
  -6.323655e+05   4.895304e+04
  -1.538742e+05  -3.036176e+05
   8.025423e+05  -6.735728e+05
   1.245708e+06  -5.325399e+05
   7.688039e+05   1.780114e+05
  -8.205942e+04   8.615129e+05
  -5.468717e+05   8.553583e+05
  -4.330052e+05   1.783072e+05
  -6.806042e+04  -4.616014e+05
   2.251316e+05  -4.402465e+05
   3.455700e+05   1.234298e+05
   2.596949e+05   5.625995e+05
  -4.062633e+04   4.351512e+05
  -3.847461e+05  -3.109598e+04
  -4.772389e+05  -2.805485e+05
  -2.401268e+05  -1.019772e+05
   4.505446e+04   1.596677e+05
   8.370433e+04   6.890386e+04
  -3.967541e+04  -3.344707e+05
   6.365847e+03  -5.576502e+05
   2.972859e+05  -2.499420e+05
   4.771863e+05   3.436933e+05
   1.941648e+05   6.290656e+05
  -3.867084e+05   3.230787e+05
  -6.676642e+05  -2.519721e+05
  -2.665834e+05  -5.515466e+05
   4.980731e+05  -3.694137e+05
   8.780001e+05   5.213308e+04
   4.814590e+05   3.628348e+05
  -2.815959e+05   4.111184e+05
  -6.279988e+05   2.507701e+05
  -2.598726e+05   2.560424e+04
   3.177775e+05  -8.623466e+04
   3.920619e+05   3.591795e+04
  -1.445016e+05   2.752232e+05
  -6.980122e+05   2.774798e+05
