
 $NMID
 id='ANONYMOUS ', fmtdat='(2E16.6)'
 volume=1.0
 tramp=1.0
 $END
  -3.408490e+07   2.339752e+05
  -2.172750e+07  -1.855910e+07
   2.224861e+06  -2.240400e+07
   1.570032e+07  -1.158762e+07
   1.115449e+07   1.466316e+06
  -6.331042e+05   5.899469e+06
  -6.419631e+06   1.140689e+06
  -3.430110e+06  -5.687958e+06
   2.672463e+06  -7.490265e+06
   6.102401e+06  -2.701195e+06
   4.905024e+06   4.046861e+06
   6.437838e+05   6.161082e+06
  -2.842103e+06   1.607045e+06
  -2.143632e+06  -4.564034e+06
   2.106747e+06  -5.456533e+06
   5.246504e+06   6.096459e+04
   3.508294e+06   6.425984e+06
  -1.871398e+06   7.839740e+06
  -6.301261e+06   3.865327e+06
  -6.620182e+06  -1.550787e+06
  -3.477895e+06  -4.643917e+06
  -9.311876e+03  -4.536630e+06
   9.724474e+05  -2.889792e+06
  -6.375325e+05  -2.078436e+06
  -1.873077e+06  -3.025709e+06
   3.230036e+05  -4.135958e+06
   5.028033e+06  -3.008808e+06
   7.516919e+06   4.181076e+05
   4.692165e+06   3.376601e+06
  -8.225462e+05   3.416562e+06
  -3.613468e+06   1.067755e+06
  -1.719094e+06  -1.204162e+06
   1.828941e+06  -1.631950e+06
   3.264943e+06  -8.663505e+04
   1.916531e+06   2.339842e+06
  -3.612653e+05   3.677612e+06
  -1.701515e+06   2.282704e+06
  -1.442707e+06  -8.867263e+05
  -1.787180e+05  -2.330896e+06
   5.641590e+05  -1.521998e+05
  -3.543601e+05   2.773237e+06
  -2.003340e+06   2.101386e+06
  -1.949539e+06  -1.835157e+06
   6.626985e+05  -3.923066e+06
   3.412367e+06  -9.962102e+05
   3.050088e+06   3.825186e+06
  -6.951222e+05   5.095794e+06
  -4.620695e+06   1.614223e+06
  -5.250330e+06  -2.855775e+06
  -2.026421e+06  -4.393902e+06
   2.374964e+06  -2.525845e+06
   4.371466e+06   5.195764e+05
   2.494496e+06   2.302760e+06
  -1.225978e+06   1.771180e+06
  -3.106412e+06  -2.251160e+05
  -1.607511e+06  -1.586990e+06
   1.024709e+06  -9.788140e+05
   1.546422e+06   6.223391e+05
  -3.209481e+05   1.095157e+06
  -1.770533e+06  -1.560057e+05
  -6.262611e+05  -1.579949e+06
   2.034101e+06  -1.523889e+06
   3.352941e+06   9.152305e+04
   1.856628e+06   2.228264e+06
  -1.402163e+06   3.714237e+06
  -4.149452e+06   3.453822e+06
  -4.698172e+06   9.420545e+05
  -2.974399e+06  -2.604949e+06
  -4.709186e+05  -4.622824e+06
   9.906981e+05  -3.786747e+06
   9.351081e+05  -1.644331e+06
   5.512312e+05  -6.453984e+05
   1.075303e+06  -1.035754e+06
   2.206360e+06  -9.323124e+05
   2.561246e+06   6.811767e+05
   1.408941e+06   2.387301e+06
  -5.466858e+05   2.194180e+06
  -1.908391e+06   3.467940e+04
  -1.662604e+06  -2.205382e+06
   1.879043e+05  -2.665263e+06
   2.439305e+06  -1.062738e+06
   3.316201e+06   1.338396e+06
   2.037859e+06   2.863905e+06
  -1.914101e+05   2.746717e+06
  -1.421967e+06   1.662491e+06
  -1.273593e+06   8.864774e+05
  -1.247040e+06   8.354320e+05
  -2.431763e+06   6.926174e+05
  -3.724033e+06  -4.245628e+05
  -3.084275e+06  -2.267911e+06
  -1.990470e+05  -3.631394e+06
   2.889532e+06  -3.459843e+06
   3.846789e+06  -1.677502e+06
   2.279111e+06   6.973188e+05
  -1.140835e+05   2.090902e+06
  -1.247735e+06   1.556230e+06
  -4.622845e+05  -1.533402e+05
   1.065136e+06  -1.106941e+06
   1.601646e+06  -3.192771e+05
   6.538418e+05   1.003764e+06
  -5.701143e+05   1.005048e+06
  -5.994689e+05  -3.036901e+05
   6.022374e+05  -9.671905e+05
   1.650213e+06   3.465823e+05
   1.281168e+06   2.550791e+06
  -4.626625e+05   3.378788e+06
  -2.445205e+06   1.895414e+06
  -3.374809e+06  -7.197551e+05
  -2.602750e+06  -2.547981e+06
  -5.932272e+05  -2.602264e+06
   1.206115e+06  -1.357499e+06
   1.487205e+06  -1.365768e+05
   4.443505e+05   3.906056e+04
  -3.363836e+05  -6.635277e+05
   2.757336e+05  -1.116071e+06
   1.536826e+06  -5.236733e+05
   1.750830e+06   6.242259e+05
   4.386386e+05   1.146201e+06
  -1.002489e+06   5.728214e+05
  -9.302628e+05  -3.816114e+05
   6.637525e+05  -6.879125e+05
   2.142963e+06   2.780268e+03
   1.909944e+06   1.196102e+06
  -3.687516e+04   1.996148e+06
  -2.096042e+06   1.686545e+06
  -2.531390e+06   3.264761e+05
  -1.089717e+06  -1.049671e+06
   7.544256e+05  -1.233016e+06
   1.252819e+06  -1.531690e+05
   1.111348e+05   8.890290e+05
  -1.325279e+06   6.464874e+05
  -1.565630e+06  -6.149047e+05
  -4.532351e+05  -1.466469e+06
   8.608365e+05  -1.025657e+06
   1.175105e+06   1.021748e+05
   3.520436e+05   6.454668e+05
  -6.352216e+05   8.332227e+04
  -6.363572e+05  -9.173438e+05
   5.415714e+05  -1.260135e+06
   1.814157e+06  -4.551166e+05
   1.813474e+06   9.529403e+05
   3.611719e+05   1.840533e+06
  -1.229301e+06   1.489044e+06
  -1.530091e+06   2.588382e+05
  -5.165898e+05  -7.476474e+05
   5.545063e+05  -7.664375e+05
   6.473518e+05  -6.797577e+04
  -3.761611e+04   4.641216e+05
  -5.520096e+05   3.364832e+05
  -3.363140e+05  -9.545752e+04
   2.889613e+05  -1.299759e+05
   5.416754e+05   4.425089e+05
  -6.096432e+04   1.044957e+06
  -1.195285e+06   8.529653e+05
  -1.880423e+06  -3.311260e+05
  -1.331991e+06  -1.730819e+06
   1.765952e+05  -2.220901e+06
   1.466679e+06  -1.396768e+06
   1.635741e+06   1.747398e+04
   9.433837e+05   9.004100e+05
   3.437072e+05   8.257341e+05
   3.097060e+05   3.419093e+05
   4.206048e+05   2.224047e+05
   6.796505e+04   5.923506e+05
  -7.353615e+05   8.515613e+05
  -1.337746e+06   3.900771e+05
  -1.069557e+06  -6.711284e+05
   1.389357e+05  -1.451071e+06
   1.563685e+06  -1.080390e+06
   2.093930e+06   3.903199e+05
   1.122240e+06   1.867087e+06
  -7.765561e+05   2.144361e+06
  -2.206332e+06   1.042356e+06
  -2.195343e+06  -4.489772e+05
  -1.054591e+06  -1.198165e+06
   8.260495e+04  -1.008548e+06
   4.535014e+05  -6.042566e+05
   2.570122e+05  -6.663938e+05
   1.775599e+05  -1.066360e+06
   5.637010e+05  -1.083622e+06
   1.108695e+06  -2.700150e+05
   1.192516e+06   9.813250e+05
   5.038377e+05   1.721720e+06
  -5.705629e+05   1.308721e+06
  -1.178864e+06   3.320431e+04
  -7.814697e+05  -1.100216e+06
   2.496780e+05  -1.259760e+06
   9.433639e+05  -4.877931e+05
   7.282595e+05   4.560387e+05
   1.456838e+04   8.814952e+05
  -3.318869e+05   7.342097e+05
  -1.345547e+04   4.379972e+05
   3.679793e+05   3.338893e+05
   3.921136e+04   3.608138e+05
  -9.884145e+05   2.193110e+05
  -1.801400e+06  -2.537455e+05
  -1.473874e+06  -8.759728e+05
  -6.803999e+04  -1.232498e+06
   1.324851e+06  -1.016454e+06
   1.620232e+06  -3.333351e+05
   7.940660e+05   3.199676e+05
  -1.837819e+05   4.614079e+05
  -4.312818e+05   8.444521e+04
   6.031998e+03  -3.091010e+05
   4.391434e+05  -2.157544e+05
   4.248172e+05   3.096392e+05
   1.454679e+05   6.800131e+05
   6.607040e+03   4.402253e+05
   1.343740e+05  -1.484625e+05
   3.204170e+05  -3.435516e+05
   2.689753e+05   1.990670e+05
  -1.655607e+05   9.272009e+05
  -8.049606e+05   9.575106e+05
  -1.131687e+06   1.097398e+05
  -6.761750e+05  -8.281455e+05
   3.696437e+05  -9.549348e+05
   1.080547e+06  -2.296111e+05
   6.564879e+05   5.446415e+05
  -6.113488e+05   6.123298e+05
  -1.485157e+06  -2.697986e+04
  -1.038865e+06  -7.559626e+05
   3.480320e+05  -9.775567e+05
   1.386381e+06  -5.703757e+05
   1.204974e+06   1.008830e+05
   1.712004e+05   4.889216e+05
  -5.802249e+05   2.919175e+05
  -3.245039e+05  -2.381247e+05
   5.703781e+05  -4.377214e+05
   1.070828e+06   1.310212e+05
   5.410467e+05   1.106554e+06
  -6.207978e+05   1.524217e+06
  -1.394965e+06   7.580456e+05
  -1.147837e+06  -7.202066e+05
  -1.808989e+05  -1.660781e+06
   6.758937e+05  -1.235314e+06
   8.664564e+05   1.057840e+05
   4.564837e+05   1.086014e+06
  -1.284167e+05   9.316034e+05
  -4.956166e+05   1.097482e+05
  -4.803240e+05  -3.571784e+05
  -2.063348e+05  -1.442483e+05
  -2.310739e+04   1.054534e+05
  -1.792447e+05  -2.307343e+05
  -4.430027e+05  -8.687542e+05
  -2.471512e+05  -1.003843e+06
   5.786025e+05  -3.796427e+05
   1.369179e+06   4.231705e+05
   1.243450e+06   7.644130e+05
   1.810316e+05   6.281235e+05
  -8.367412e+05   3.818923e+05
  -9.246151e+05   1.920408e+05
  -2.867566e+05  -1.440049e+04
   1.538977e+05  -2.018502e+05
  -3.057113e+04  -2.210824e+05
  -3.100152e+05  -1.231803e+05
  -2.066086e+04  -1.259701e+05
   6.780254e+05  -1.912033e+05
   9.517860e+05   2.989831e+04
   3.006370e+05   6.226604e+05
  -8.338283e+05   1.040018e+06
  -1.514149e+06   6.458881e+05
  -1.213026e+06  -4.319765e+05
  -2.259278e+05  -1.300686e+06
   6.865892e+05  -1.239802e+06
   9.608934e+05  -4.493010e+05
   6.097265e+05   2.492330e+05
   9.496292e+04   3.273257e+05
  -1.190272e+05   2.276848e+04
   5.451371e+04  -5.845128e+04
   3.049629e+05   3.186699e+05
   2.514062e+05   7.412609e+05
  -1.774667e+05   6.090769e+05
  -6.360725e+05  -1.532095e+05
  -6.397000e+05  -9.130799e+05
  -3.852508e+04  -9.382623e+05
   7.257560e+05  -1.688095e+05
   9.279460e+05   7.145654e+05
   2.795855e+05   9.954761e+05
  -6.634912e+05   5.768395e+05
  -9.961338e+05  -8.647620e+04
  -4.536489e+05  -5.221360e+05
   2.594347e+05  -5.685559e+05
   3.007164e+05  -3.246904e+05
  -2.783172e+05  -2.936843e+04
  -6.089630e+05   2.650025e+04
  -1.160688e+05  -2.722503e+05
   7.576284e+05  -6.282109e+05
   1.111043e+06  -5.327875e+05
   6.471898e+05   1.224291e+05
  -9.400635e+04   7.758856e+05
  -4.619867e+05   7.630974e+05
  -3.386218e+05   1.110227e+05
  -2.104492e+04  -4.600721e+05
   2.293344e+05  -3.707050e+05
   3.248417e+05   1.809582e+05
   2.245742e+05   5.312108e+05
  -6.097280e+04   3.495793e+05
  -3.560096e+05  -6.165294e+04
  -4.196320e+05  -2.260208e+05
  -2.218421e+05  -6.026788e+04
   8.509457e+03   1.016089e+05
   7.575627e+04  -3.419730e+04
   5.333388e+04  -3.526112e+05
   1.360359e+05  -4.530346e+05
   3.205783e+05  -1.162614e+05
   3.581348e+05   4.019732e+05
   6.159623e+04   6.002166e+05
  -3.976420e+05   2.646161e+05
  -5.775738e+05  -2.874257e+05
  -2.078534e+05  -5.441383e+05
   4.522173e+05  -3.271952e+05
   7.815286e+05   9.136611e+04
   4.245918e+05   3.482010e+05
  -2.698239e+05   3.321868e+05
  -5.735499e+05   1.660341e+05
  -1.941470e+05   9.335263e+03
   3.663996e+05  -2.504009e+04
   3.922137e+05   1.098142e+05
  -1.953979e+05   2.960282e+05
  -7.479446e+05   2.444366e+05
