
 $NMID
 id='ANONYMOUS ', fmtdat='(2E16.6)'
 volume=1.0
 tramp=1.0
 $END
  -4.797242e+07  -3.831661e+04
  -2.974506e+07  -2.798421e+07
   4.734084e+06  -3.202261e+07
   2.289245e+07  -1.443344e+07
   1.498449e+07   3.981585e+06
  -1.835248e+06   8.110683e+06
  -8.756886e+06   2.535026e+05
  -3.595137e+06  -8.220888e+06
   4.603955e+06  -9.288530e+06
   8.457523e+06  -2.740866e+06
   6.388824e+06   5.514408e+06
   7.436651e+05   7.985631e+06
  -3.671353e+06   2.243714e+06
  -2.524651e+06  -5.588721e+06
   3.185016e+06  -6.655532e+06
   7.089797e+06   6.326756e+05
   4.360275e+06   8.924139e+06
  -2.950141e+06   1.059316e+07
  -8.755710e+06   5.249301e+06
  -9.251247e+06  -1.972025e+06
  -5.241963e+06  -6.433728e+06
  -3.151937e+05  -6.824790e+06
   1.852414e+06  -4.611701e+06
   2.786041e+05  -2.716381e+06
  -1.757350e+06  -3.191872e+06
   2.368956e+05  -4.733934e+06
   5.943403e+06  -3.885931e+06
   9.412690e+06   2.362550e+05
   6.225558e+06   4.194166e+06
  -5.552441e+05   4.478925e+06
  -4.141350e+06   1.707565e+06
  -2.186503e+06  -9.148544e+05
   1.662202e+06  -1.505292e+06
   3.330211e+06  -1.660907e+05
   2.246236e+06   2.324288e+06
  -2.911738e+04   4.256872e+06
  -1.965805e+06   3.218896e+06
  -2.316574e+06  -6.573365e+05
  -8.010340e+05  -3.136722e+06
   6.866169e+05  -8.772768e+05
  -1.969879e+05   3.021151e+06
  -2.518350e+06   2.463268e+06
  -2.419082e+06  -2.664357e+06
   1.509661e+06  -5.400853e+06
   5.352420e+06  -1.155249e+06
   4.305539e+06   5.652104e+06
  -1.329130e+06   7.238077e+06
  -6.445035e+06   2.134956e+06
  -6.673323e+06  -3.998614e+06
  -2.190419e+06  -5.743738e+06
   3.208520e+06  -2.931113e+06
   5.366622e+06   1.077730e+06
   2.804083e+06   3.145930e+06
  -1.897331e+06   2.167868e+06
  -4.116169e+06  -5.780520e+05
  -1.955715e+06  -2.273517e+06
   1.459364e+06  -1.249068e+06
   1.831441e+06   8.987100e+05
  -8.005749e+05   1.180824e+06
  -2.333757e+06  -8.463522e+05
  -2.140274e+05  -2.589374e+06
   3.400709e+06  -1.911538e+06
   4.652943e+06   6.297377e+05
   2.312932e+06   3.280865e+06
  -1.798624e+06   4.872471e+06
  -5.133634e+06   4.468433e+06
  -5.987175e+06   1.351565e+06
  -4.018513e+06  -3.224142e+06
  -6.784828e+05  -5.909198e+06
   1.526020e+06  -4.729660e+06
   1.431645e+06  -1.725880e+06
   5.062884e+05  -3.802927e+05
   8.253365e+05  -1.127782e+06
   2.303125e+06  -1.344442e+06
   3.002800e+06   4.734942e+05
   1.789653e+06   2.570587e+06
  -4.530765e+05   2.457172e+06
  -2.034357e+06   4.455661e+04
  -1.847744e+06  -2.513903e+06
   1.944957e+05  -3.146841e+06
   2.931726e+06  -1.405845e+06
   4.231659e+06   1.513591e+06
   2.780638e+06   3.650047e+06
  -1.676127e+05   3.737494e+06
  -1.976506e+06   2.333535e+06
  -1.859325e+06   1.128717e+06
  -1.693977e+06   8.921488e+05
  -3.027247e+06   6.687838e+05
  -4.538423e+06  -6.914474e+05
  -3.672798e+06  -2.865786e+06
  -1.293286e+05  -4.381176e+06
   3.519824e+06  -4.099776e+06
   4.576108e+06  -2.029668e+06
   2.739240e+06   7.302832e+05
  -2.065968e+04   2.442512e+06
  -1.390286e+06   1.900018e+06
  -5.521483e+05  -1.385491e+05
   1.256596e+06  -1.320745e+06
   1.960275e+06  -3.603312e+05
   8.328713e+05   1.238137e+06
  -6.514918e+05   1.167156e+06
  -6.010899e+05  -4.129704e+05
   9.238453e+05  -9.909955e+05
   2.002063e+06   8.316918e+05
   1.176093e+06   3.366577e+06
  -1.074436e+06   3.910908e+06
  -3.161638e+06   1.817002e+06
  -3.854295e+06  -1.198825e+06
  -2.802318e+06  -3.077553e+06
  -5.642941e+05  -3.009842e+06
   1.425492e+06  -1.580135e+06
   1.741879e+06  -1.664126e+05
   5.281467e+05   5.343504e+04
  -3.774839e+05  -8.086515e+05
   4.017688e+05  -1.370475e+06
   1.931676e+06  -5.901218e+05
   2.111815e+06   8.670258e+05
   4.477208e+05   1.436720e+06
  -1.242169e+06   6.228256e+05
  -1.036106e+06  -5.067385e+05
   8.771680e+05  -7.113813e+05
   2.497338e+06   1.946091e+05
   2.100619e+06   1.500191e+06
  -1.855117e+05   2.289815e+06
  -2.541252e+06   1.877739e+06
  -3.016155e+06   2.987530e+05
  -1.281947e+06  -1.315096e+06
   9.577822e+05  -1.510438e+06
   1.565405e+06  -1.672194e+05
   1.430852e+05   1.099249e+06
  -1.617862e+06   7.480990e+05
  -1.848171e+06  -8.140959e+05
  -4.345512e+05  -1.773678e+06
   1.114544e+06  -1.133038e+06
   1.380386e+06   2.411263e+05
   3.339141e+05   8.100574e+05
  -8.113338e+05   6.198657e+04
  -7.556494e+05  -1.138115e+06
   6.710422e+05  -1.514147e+06
   2.184763e+06  -5.228048e+05
   2.162140e+06   1.176522e+06
   3.863265e+05   2.223605e+06
  -1.532861e+06   1.750885e+06
  -1.842615e+06   2.447997e+05
  -5.636524e+05  -9.183565e+05
   7.022609e+05  -8.762745e+05
   7.321030e+05  -5.783754e+04
  -1.047268e+05   4.912789e+05
  -6.285841e+05   3.105399e+05
  -2.900047e+05  -1.196593e+05
   4.186079e+05  -6.260537e+04
   6.167737e+05   6.241203e+05
  -1.516425e+05   1.272714e+06
  -1.477384e+06   9.811483e+05
  -2.247745e+06  -4.550556e+05
  -1.557025e+06  -2.110474e+06
   2.642073e+05  -2.634482e+06
   1.778468e+06  -1.578493e+06
   1.901269e+06   1.028381e+05
   1.022778e+06   1.049406e+06
   3.602341e+05   8.720741e+05
   4.227019e+05   3.362975e+05
   5.792667e+05   2.996402e+05
   8.708637e+04   7.622121e+05
  -9.233155e+05   9.952900e+05
  -1.602350e+06   3.987507e+05
  -1.214026e+06  -8.174920e+05
   2.392047e+05  -1.675595e+06
   1.895020e+06  -1.211390e+06
   2.470852e+06   5.330917e+05
   1.256123e+06   2.276732e+06
  -1.043483e+06   2.551273e+06
  -2.709894e+06   1.148352e+06
  -2.582777e+06  -6.582651e+05
  -1.137866e+06  -1.465101e+06
   1.779935e+05  -1.128500e+06
   5.070918e+05  -6.367659e+05
   2.236967e+05  -7.917775e+05
   1.843519e+05  -1.325694e+06
   7.123587e+05  -1.326475e+06
   1.360488e+06  -3.126111e+05
   1.414438e+06   1.192971e+06
   5.673873e+05   2.062806e+06
  -7.040376e+05   1.546633e+06
  -1.402125e+06  -4.408547e+03
  -8.896692e+05  -1.364735e+06
   3.772369e+05  -1.506048e+06
   1.198792e+06  -5.049411e+05
   8.722013e+05   6.510546e+05
  -6.210153e+04   1.107542e+06
  -4.939908e+05   8.633203e+05
  -6.075687e+04   4.917477e+05
   4.477870e+05   3.873089e+05
   5.048072e+04   4.247604e+05
  -1.214562e+06   2.331877e+05
  -2.188422e+06  -3.573911e+05
  -1.743139e+06  -1.109059e+06
  -3.933637e+03  -1.515294e+06
   1.663927e+06  -1.202852e+06
   1.964569e+06  -3.241876e+05
   9.255635e+05   4.681135e+05
  -2.536681e+05   5.796949e+05
  -5.367776e+05   6.626497e+04
  -1.216882e+04  -4.067176e+05
   5.034858e+05  -2.603737e+05
   5.086990e+05   3.741265e+05
   2.094799e+05   7.959258e+05
   4.481174e+04   5.181328e+05
   1.601367e+05  -1.421030e+05
   3.579627e+05  -3.600316e+05
   3.128384e+05   2.515622e+05
  -1.924083e+05   1.089347e+06
  -9.864022e+05   1.138841e+06
  -1.413164e+06   1.441117e+05
  -8.491022e+05  -9.981880e+05
   4.582237e+05  -1.179714e+06
   1.324800e+06  -3.031069e+05
   7.793154e+05   6.457298e+05
  -7.546517e+05   7.085819e+05
  -1.749818e+06  -9.207117e+04
  -1.158119e+06  -9.407823e+05
   4.862949e+05  -1.120579e+06
   1.656143e+06  -5.792833e+05
   1.391700e+06   1.867917e+05
   1.663621e+05   5.762754e+05
  -7.058631e+05   3.101763e+05
  -3.980269e+05  -3.069862e+05
   6.651179e+05  -5.327096e+05
   1.276233e+06   1.407455e+05
   6.671354e+05   1.306622e+06
  -7.124955e+05   1.818754e+06
  -1.645258e+06   9.094452e+05
  -1.353360e+06  -8.571062e+05
  -1.916514e+05  -1.964745e+06
   8.268326e+05  -1.428572e+06
   1.020598e+06   1.745333e+05
   4.881935e+05   1.306510e+06
  -2.161971e+05   1.083506e+06
  -6.064185e+05   1.028983e+05
  -5.321342e+05  -4.295537e+05
  -2.063756e+05  -1.674654e+05
  -4.318310e+04   1.142019e+05
  -2.594678e+05  -2.985774e+05
  -5.279752e+05  -1.049202e+06
  -2.307753e+05  -1.190860e+06
   7.428403e+05  -4.344856e+05
   1.609795e+06   5.272343e+05
   1.422123e+06   9.333301e+05
   1.995899e+05   7.582958e+05
  -9.650130e+05   4.405281e+05
  -1.089321e+06   1.971211e+05
  -3.713239e+05  -4.090821e+04
   1.719550e+05  -2.389972e+05
   9.124826e+03  -2.448260e+05
  -3.216260e+05  -1.317068e+05
  -3.943420e+04  -1.475917e+05
   7.611721e+05  -2.307641e+05
   1.136000e+06   3.622569e+04
   4.135230e+05   7.474205e+05
  -9.619036e+05   1.247859e+06
  -1.836013e+06   7.817963e+05
  -1.489174e+06  -5.001956e+05
  -2.688917e+05  -1.540476e+06
   8.434183e+05  -1.481628e+06
   1.148248e+06  -5.522660e+05
   7.145625e+05   2.810610e+05
   1.274320e+05   3.909441e+05
  -1.027013e+05   4.870003e+04
   8.202370e+04  -4.048365e+04
   3.393307e+05   3.981921e+05
   2.710511e+05   8.870193e+05
  -2.102288e+05   7.303679e+05
  -7.439296e+05  -1.624247e+05
  -7.725997e+05  -1.063094e+06
  -8.224422e+04  -1.116656e+06
   8.356846e+05  -2.311150e+05
   1.106080e+06   8.203983e+05
   3.497702e+05   1.186760e+06
  -7.858561e+05   7.097517e+05
  -1.204047e+06  -9.968765e+04
  -5.603596e+05  -6.533061e+05
   3.152361e+05  -7.124047e+05
   3.958093e+05  -3.943385e+05
  -2.915153e+05  -2.535046e+04
  -7.144677e+05   3.090667e+04
  -1.492361e+05  -3.312851e+05
   9.081096e+05  -7.335251e+05
   1.361559e+06  -5.954301e+05
   8.082567e+05   1.791525e+05
  -1.153392e+05   9.361912e+05
  -5.891325e+05   9.208565e+05
  -4.394882e+05   1.593498e+05
  -3.955844e+04  -5.300186e+05
   2.674144e+05  -4.589485e+05
   3.798032e+05   1.844832e+05
   2.673818e+05   6.321856e+05
  -6.407260e+04   4.455353e+05
  -4.229062e+05  -6.169904e+04
  -5.105451e+05  -2.955869e+05
  -2.653197e+05  -9.485176e+04
   2.840518e+04   1.464177e+05
   9.547198e+04   1.536628e+04
   2.117583e+04  -3.929012e+05
   9.539483e+04  -5.693510e+05
   3.552634e+05  -1.960306e+05
   4.643926e+05   4.364444e+05
   1.285729e+05   7.038110e+05
  -4.562541e+05   3.270868e+05
  -7.058401e+05  -3.218049e+05
  -2.593762e+05  -6.337849e+05
   5.506322e+05  -3.915737e+05
   9.480725e+05   9.796354e+04
   5.122266e+05   4.159598e+05
  -3.214698e+05   4.184749e+05
  -6.897405e+05   2.251142e+05
  -2.571630e+05   1.767625e+04
   3.955567e+05  -5.088127e+04
   4.468763e+05   9.648941e+04
  -2.058737e+05   3.244082e+05
  -8.401107e+05   2.815948e+05
