
 $NMID
 id='ANONYMOUS ', fmtdat='(2E16.6)'
 volume=1.0
 tramp=1.0
 $END
   5.285040e+07   2.644958e+06
   2.941034e+07   3.493882e+07
  -9.580768e+06   3.530794e+07
  -2.646569e+07   1.144685e+07
  -1.432653e+07  -8.052716e+06
   3.938481e+06  -8.309469e+06
   8.720795e+06   2.133586e+06
   1.558113e+06   9.094515e+06
  -6.305683e+06   7.714609e+06
  -8.828088e+06   9.910295e+05
  -6.112334e+06  -5.935978e+06
  -4.805527e+05  -7.776894e+06
   3.740681e+06  -2.482323e+06
   2.246963e+06   4.723279e+06
  -3.651588e+06   5.460594e+06
  -7.054729e+06  -1.781053e+06
  -3.480310e+06  -9.571607e+06
   4.110057e+06  -1.061007e+07
   9.647158e+06  -5.024669e+06
   1.008134e+07   2.297972e+06
   6.076299e+06   7.375305e+06
   2.882779e+05   8.449126e+06
  -3.389124e+06   5.685922e+06
  -2.370782e+06   2.022617e+06
   8.209703e+05   1.319659e+06
   4.660256e+05   3.481086e+06
  -4.638193e+06   4.053772e+06
  -8.664414e+06   5.377555e+05
  -6.433276e+06  -3.835988e+06
  -3.873408e+05  -4.806572e+06
   3.239994e+06  -2.628525e+06
   2.447002e+06  -3.354550e+05
   3.482234e+04   7.424309e+05
  -1.584032e+06   7.296710e+05
  -2.043877e+06  -8.697204e+05
  -9.395885e+05  -3.426287e+06
   1.672575e+06  -3.654208e+06
   3.330030e+06   5.414121e+04
   1.745359e+06   3.584423e+06
  -9.442624e+05   2.117078e+06
  -5.998043e+05  -1.996586e+06
   2.135077e+06  -1.907928e+06
   1.989036e+06   3.067287e+06
  -2.781926e+06   5.455378e+06
  -6.766218e+06   3.927279e+05
  -4.452821e+06  -6.859512e+06
   2.337770e+06  -7.869330e+06
   7.018029e+06  -1.907479e+06
   6.017302e+06   4.276385e+06
   1.285302e+06   5.368366e+06
  -3.163495e+06   2.148712e+06
  -4.428194e+06  -1.617267e+06
  -1.820915e+06  -3.165928e+06
   2.376730e+06  -1.776327e+06
   4.041541e+06   1.122175e+06
   1.562464e+06   2.596532e+06
  -1.657049e+06   1.159352e+06
  -1.430959e+06  -9.672016e+05
   1.352699e+06  -5.577658e+05
   2.021835e+06   2.004350e+06
  -1.127484e+06   3.208712e+06
  -4.615982e+06   1.342201e+06
  -4.758694e+06  -1.719841e+06
  -1.825898e+06  -3.824446e+06
   1.749217e+06  -4.744749e+06
   4.485520e+06  -4.333047e+06
   5.613733e+06  -1.547929e+06
   4.208259e+06   2.920381e+06
   7.805067e+05   5.576645e+06
  -1.868521e+06   4.093359e+06
  -1.615477e+06   7.612064e+05
   1.231180e+05  -4.277792e+05
   3.984609e+05   9.525045e+05
  -1.221453e+06   1.853874e+06
  -2.518423e+06   4.964900e+05
  -1.958831e+06  -1.496692e+06
  -2.462356e+05  -1.829799e+06
   1.183249e+06  -3.041011e+05
   1.433811e+06   1.634094e+06
   6.964823e+04   2.517885e+06
  -2.431208e+06   1.536229e+06
  -4.063983e+06  -1.031358e+06
  -2.931264e+06  -3.486073e+06
   1.408251e+05  -3.949043e+06
   2.250512e+06  -2.461175e+06
   2.150961e+06  -8.975613e+05
   1.653150e+06  -4.481106e+05
   2.533256e+06  -2.897862e+05
   3.722909e+06   7.640058e+05
   2.949687e+06   2.439202e+06
   6.701064e+04   3.532712e+06
  -2.745222e+06   3.339593e+06
  -3.568466e+06   1.894398e+06
  -2.352139e+06  -2.747730e+05
  -3.643111e+05  -1.938189e+06
   8.854668e+05  -1.750708e+06
   5.149846e+05  -1.608618e+03
  -9.143307e+05   1.154542e+06
  -1.674372e+06   3.332871e+05
  -8.317206e+05  -1.085315e+06
   4.093485e+05  -9.670915e+05
   2.869321e+05   3.168365e+05
  -9.797711e+05   4.252974e+05
  -1.465201e+06  -1.377937e+06
  -2.193300e+05  -3.066188e+06
   1.643564e+06  -2.654822e+06
   2.673069e+06  -5.828642e+05
   2.596769e+06   1.375536e+06
   1.756789e+06   2.255060e+06
   3.568605e+05   2.116031e+06
  -1.027560e+06   1.249320e+06
  -1.338107e+06   2.255556e+05
  -4.212616e+05  -4.126695e+04
   2.976250e+05   6.482831e+05
  -4.071939e+05   1.165400e+06
  -1.700552e+06   4.607695e+05
  -1.741612e+06  -8.429336e+05
  -2.717546e+05  -1.248266e+06
   1.017362e+06  -4.559582e+05
   7.087875e+05   3.844426e+05
  -7.328139e+05   3.465704e+05
  -1.757357e+06  -3.597232e+05
  -1.360659e+06  -1.125698e+06
   2.551115e+05  -1.577073e+06
   1.947468e+06  -1.339119e+06
   2.354012e+06  -1.999516e+05
   1.027566e+06   1.124220e+06
  -8.398268e+05   1.318349e+06
  -1.398582e+06   1.400299e+05
  -1.817404e+05  -9.706083e+05
   1.322576e+06  -6.271248e+05
   1.450945e+06   7.089219e+05
   2.219793e+05   1.404483e+06
  -9.656527e+05   7.579511e+05
  -1.032992e+06  -3.360224e+05
  -1.471214e+05  -6.742531e+05
   7.113359e+05  -1.747169e+04
   6.348847e+05   9.245246e+05
  -4.942258e+05   1.234622e+06
  -1.730119e+06   4.741615e+05
  -1.754772e+06  -9.093032e+05
  -3.119546e+05  -1.792672e+06
   1.268661e+06  -1.391573e+06
   1.482572e+06  -1.420690e+05
   3.965184e+05   7.520868e+05
  -5.779934e+05   6.641470e+05
  -5.142162e+05   7.579313e+04
   1.085432e+05  -2.429440e+05
   3.557283e+05  -1.358277e+05
   2.129954e+04   5.900257e+03
  -3.979190e+05  -1.652987e+05
  -3.855439e+05  -6.316549e+05
   2.360435e+05  -1.007933e+06
   1.203120e+06  -7.369990e+05
   1.777745e+06   3.792047e+05
   1.243737e+06   1.680608e+06
  -1.951010e+05   2.059580e+06
  -1.366895e+06   1.159174e+06
  -1.388843e+06  -1.345639e+05
  -6.794001e+05  -7.075520e+05
  -2.856045e+05  -4.556441e+05
  -4.805154e+05  -1.515947e+05
  -5.853840e+05  -3.185165e+05
  -6.543934e+04  -6.973474e+05
   7.708281e+05  -7.453128e+05
   1.215129e+06  -2.393346e+05
   8.513910e+05   5.952877e+05
  -2.329105e+05   1.182743e+06
  -1.458419e+06   8.702263e+05
  -1.893054e+06  -4.300872e+05
  -9.208245e+05  -1.800931e+06
   9.276433e+05  -2.000827e+06
   2.202763e+06  -8.165833e+05
   1.960787e+06   6.211975e+05
   7.354724e+05   1.124415e+06
  -1.968194e+05   7.302328e+05
  -2.701068e+05   3.944715e+05
   4.831448e+03   6.821882e+05
  -7.625321e+04   1.181395e+06
  -6.086905e+05   1.129622e+06
  -1.138072e+06   2.677639e+05
  -1.152668e+06  -9.300750e+05
  -4.749507e+05  -1.622145e+06
   5.312080e+05  -1.228811e+06
   1.089753e+06   1.681166e+04
   6.638710e+05   1.119754e+06
  -3.817254e+05   1.180035e+06
  -1.022741e+06   2.764953e+05
  -6.669551e+05  -6.734455e+05
   1.758353e+05  -9.389982e+05
   5.214729e+05  -6.325892e+05
   9.027424e+04  -3.199832e+05
  -3.863004e+05  -2.797540e+05
  -5.958472e+04  -3.252989e+05
   1.001820e+06  -1.570837e+05
   1.788099e+06   3.193381e+05
   1.369814e+06   9.163767e+05
  -8.974588e+04   1.241236e+06
  -1.415611e+06   9.630698e+05
  -1.573013e+06   1.933115e+05
  -6.754748e+05  -4.733180e+05
   2.562857e+05  -5.017709e+05
   4.434250e+05   5.730492e+02
   2.862231e+04   3.982463e+05
  -3.660765e+05   2.360289e+05
  -4.179971e+05  -2.951735e+05
  -2.596163e+05  -6.228672e+05
  -1.198472e+05  -4.217726e+05
  -1.025955e+05   5.446921e+04
  -1.955462e+05   2.262570e+05
  -2.251799e+05  -2.012472e+05
   9.823407e+04  -8.368123e+05
   7.768608e+05  -9.164954e+05
   1.223919e+06  -1.561878e+05
   7.762621e+05   8.004420e+05
  -3.715945e+05   1.012906e+06
  -1.119728e+06   3.166625e+05
  -6.385260e+05  -4.800030e+05
   6.098531e+05  -5.398737e+05
   1.329377e+06   1.039035e+05
   7.952896e+05   7.314411e+05
  -4.460672e+05   7.921945e+05
  -1.247779e+06   3.470325e+05
  -1.001171e+06  -1.850470e+05
  -9.400152e+04  -4.208667e+05
   5.533111e+05  -2.049719e+05
   3.373712e+05   2.712320e+05
  -4.868716e+05   4.761109e+05
  -1.028458e+06  -3.554537e+04
  -6.242692e+05  -1.006090e+06
   4.569783e+05  -1.493201e+06
   1.253679e+06  -8.020618e+05
   1.084746e+06   6.264502e+05
   1.889352e+05   1.521100e+06
  -6.193463e+05   1.081532e+06
  -7.707214e+05  -1.760357e+05
  -3.365826e+05  -1.009517e+06
   2.190195e+05  -7.897504e+05
   4.858615e+05  -5.086028e+04
   3.700899e+05   3.038175e+05
   1.093230e+05   9.474339e+04
   5.089948e+04  -6.646161e+04
   2.809621e+05   2.908817e+05
   4.527093e+05   8.391477e+05
   1.263355e+05   8.978663e+05
  -6.540075e+05   3.154009e+05
  -1.252800e+06  -3.882436e+05
  -1.054256e+06  -6.966981e+05
  -1.524112e+05  -6.023158e+05
   6.919871e+05  -3.769299e+05
   8.211961e+05  -1.499616e+05
   3.318121e+05   7.503656e+04
  -1.100809e+05   2.017803e+05
  -6.588423e+04   1.402142e+05
   1.883453e+05   3.954389e+04
   6.343330e+04   1.162548e+05
  -5.193837e+05   2.408114e+05
  -9.067220e+05   1.221289e+04
  -4.444097e+05  -6.179683e+05
   6.728136e+05  -1.059795e+06
   1.491825e+06  -6.909565e+05
   1.281819e+06   3.452299e+05
   2.727101e+05   1.199574e+06
  -6.604090e+05   1.199864e+06
  -9.047132e+05   5.060420e+05
  -5.656482e+05  -1.623595e+05
  -1.397321e+05  -3.128529e+05
   2.581359e+04  -9.910059e+04
  -7.550809e+04  -2.251266e+04
  -2.345257e+05  -3.201944e+05
  -2.012409e+05  -6.848953e+05
   1.384232e+05  -5.984057e+05
   5.859299e+05   5.845973e+04
   6.861624e+05   7.816857e+05
   1.672060e+05   9.045297e+05
  -6.261619e+05   2.798379e+05
  -9.276501e+05  -5.629064e+05
  -3.471993e+05  -9.417535e+05
   6.040464e+05  -6.312365e+05
   9.897875e+05   3.960222e+04
   4.843402e+05   5.591263e+05
  -2.519707e+05   6.303816e+05
  -3.634831e+05   3.209728e+05
   1.727980e+05  -2.552618e+04
   5.472924e+05  -5.422741e+04
   1.437461e+05   2.752081e+05
  -6.969221e+05   5.888207e+05
  -1.102355e+06   4.379126e+05
  -6.923793e+05  -1.886625e+05
   7.023072e+04  -7.670687e+05
   5.056106e+05  -7.514433e+05
   4.171529e+05  -1.663277e+05
   8.319163e+04   3.983834e+05
  -1.962991e+05   4.050586e+05
  -3.132863e+05  -7.896450e+04
  -2.350232e+05  -4.917984e+05
   3.690770e+04  -4.086059e+05
   3.433423e+05   1.387760e+04
   4.202016e+05   2.656882e+05
   2.034979e+05   1.047186e+05
  -4.438470e+04  -1.664686e+05
  -5.459748e+04  -1.033427e+05
   8.149134e+04   2.920355e+05
   3.715384e+04   5.412693e+05
  -2.638478e+05   2.770166e+05
  -4.697859e+05  -2.821290e+05
  -2.233293e+05  -5.667440e+05
   3.289178e+05  -3.047580e+05
   6.122490e+05   2.066206e+05
   2.556504e+05   4.766441e+05
  -4.436940e+05   3.269893e+05
  -7.906799e+05  -3.509875e+04
  -4.323097e+05  -3.175945e+05
   2.530487e+05  -3.821108e+05
   5.668220e+05  -2.452784e+05
   2.505536e+05  -1.892907e+04
  -2.578972e+05   1.127552e+05
  -3.455741e+05   6.626492e+03
   9.230338e+04  -2.348951e+05
   5.701085e+05  -2.668012e+05
