
 $NMID
 id='ANONYMOUS ', fmtdat='(2E16.6)'
 volume=1.0
 tramp=1.0
 $END
  -5.863619e+07  -4.086992e+05
  -3.458628e+07  -3.685865e+07
   8.455896e+06  -3.953213e+07
   2.872137e+07  -1.451351e+07
   1.663657e+07   7.756854e+06
  -3.711766e+06   9.513458e+06
  -9.959304e+06  -1.605723e+06
  -2.513310e+06  -1.005325e+07
   6.512812e+06  -9.266655e+06
   9.866966e+06  -1.792885e+06
   7.159761e+06   6.383721e+06
   8.679158e+05   8.785521e+06
  -4.106433e+06   2.885464e+06
  -2.741655e+06  -5.411256e+06
   3.841677e+06  -6.524786e+06
   8.033368e+06   1.520306e+06
   4.449300e+06   1.053083e+07
  -4.011089e+06   1.210151e+07
  -1.049755e+07   6.059882e+06
  -1.126298e+07  -2.139011e+06
  -6.956758e+06  -7.870170e+06
  -6.730279e+05  -9.173447e+06
   3.280555e+06  -6.343129e+06
   2.202611e+06  -2.544293e+06
  -1.109198e+06  -1.839682e+06
  -4.860973e+05  -4.125730e+06
   5.318458e+06  -4.667822e+06
   9.856807e+06  -7.549625e+05
   7.332357e+06   4.147514e+06
   4.356712e+05   5.313914e+06
  -3.707618e+06   2.880114e+06
  -2.664228e+06   2.286307e+05
   2.836777e+05  -9.456460e+05
   2.084259e+06  -7.264417e+05
   2.332210e+06   1.197264e+06
   9.656142e+05   3.961335e+06
  -1.799887e+06   4.075823e+06
  -3.535691e+06  -3.887772e+04
  -1.919281e+06  -3.860690e+06
   9.048459e+05  -2.178740e+06
   5.675653e+05   2.405774e+06
  -2.419252e+06   2.322211e+06
  -2.444114e+06  -3.310364e+06
   2.675838e+06  -6.258509e+06
   7.335073e+06  -8.742683e+05
   5.261233e+06   7.308633e+06
  -2.123928e+06   8.834223e+06
  -7.713309e+06   2.461813e+06
  -7.059217e+06  -4.546967e+06
  -1.811210e+06  -6.084543e+06
   3.507718e+06  -2.686735e+06
   5.238265e+06   1.572742e+06
   2.357115e+06   3.517922e+06
  -2.526594e+06   2.178984e+06
  -4.618588e+06  -1.008431e+06
  -1.939330e+06  -2.814160e+06
   1.785910e+06  -1.391124e+06
   1.727334e+06   1.032997e+06
  -1.407506e+06   8.163433e+05
  -2.439028e+06  -1.959534e+06
   8.693108e+05  -3.563013e+06
   4.915799e+06  -1.820796e+06
   5.419439e+06   1.544432e+06
   2.300828e+06   4.139079e+06
  -1.807622e+06   5.420387e+06
  -5.016294e+06   5.043611e+06
  -6.323690e+06   1.896300e+06
  -4.793093e+06  -3.186076e+06
  -1.051691e+06  -6.306627e+06
   1.902680e+06  -4.805081e+06
   1.779121e+06  -1.106352e+06
   2.075416e+04   3.464605e+05
  -2.412360e+05  -1.059380e+06
   1.502829e+06  -2.005274e+06
   2.885799e+06  -4.512081e+05
   2.201090e+06   1.818283e+06
   1.926426e+05   2.158020e+06
  -1.482462e+06   3.163301e+05
  -1.735308e+06  -1.968236e+06
  -1.042419e+05  -2.948249e+06
   2.774212e+06  -1.780147e+06
   4.629822e+06   1.110561e+06
   3.388993e+06   3.842820e+06
  -1.606636e+04   4.403506e+06
  -2.384790e+06   2.829287e+06
  -2.333917e+06   1.137859e+06
  -1.860182e+06   6.494046e+05
  -2.942383e+06   4.814053e+05
  -4.374106e+06  -7.274094e+05
  -3.536786e+06  -2.735285e+06
  -1.974023e+05  -4.137449e+06
   3.133400e+06  -3.986099e+06
   4.144371e+06  -2.263410e+06
   2.721857e+06   3.215507e+05
   3.939707e+05   2.257038e+06
  -1.035927e+06   2.019953e+06
  -5.856264e+05  -7.654586e+03
   1.056568e+06  -1.358299e+06
   1.929500e+06  -4.363539e+05
   9.734181e+05   1.221238e+06
  -4.780661e+05   1.139269e+06
  -3.963741e+05  -3.705455e+05
   1.086551e+06  -6.284151e+05
   1.816057e+06   1.398211e+06
   5.401438e+05   3.520195e+06
  -1.668406e+06   3.306067e+06
  -3.108952e+06   9.842595e+05
  -3.220664e+06  -1.447608e+06
  -2.243381e+06  -2.658498e+06
  -4.982488e+05  -2.546620e+06
   1.196020e+06  -1.497235e+06
   1.575042e+06  -2.806995e+05
   4.961354e+05   3.654355e+04
  -3.713228e+05  -7.512226e+05
   4.176608e+05  -1.366607e+06
   1.944009e+06  -6.020250e+05
   2.063615e+06   8.966929e+05
   3.839038e+05   1.436311e+06
  -1.174839e+06   5.805298e+05
  -8.744557e+05  -4.357359e+05
   8.453393e+05  -4.848260e+05
   2.136650e+06   3.233721e+05
   1.707849e+06   1.305330e+06
  -2.311122e+05   1.923970e+06
  -2.269563e+06   1.669370e+06
  -2.772631e+06   3.149212e+05
  -1.242910e+06  -1.270909e+06
   9.239654e+05  -1.549411e+06
   1.602248e+06  -2.105418e+05
   2.305453e+05   1.109965e+06
  -1.525019e+06   7.718067e+05
  -1.734167e+06  -7.734789e+05
  -3.352420e+05  -1.649667e+06
   1.096274e+06  -9.597012e+05
   1.246057e+06   3.283178e+05
   2.260134e+05   7.844868e+05
  -8.184875e+05   5.443298e+04
  -7.670229e+05  -1.058577e+06
   5.498145e+05  -1.455945e+06
   2.016724e+06  -5.958397e+05
   2.079713e+06   1.019390e+06
   4.212476e+05   2.090599e+06
  -1.436112e+06   1.676033e+06
  -1.736292e+06   2.256791e+05
  -5.038274e+05  -8.690189e+05
   6.547037e+05  -8.085953e+05
   6.192894e+05  -9.670358e+04
  -1.158850e+05   3.261047e+05
  -4.511906e+05   1.949934e+05
  -7.465748e+04  -3.289680e+04
   4.610970e+05   1.276815e+05
   5.006503e+05   6.992191e+05
  -2.182864e+05   1.194315e+06
  -1.384335e+06   9.132457e+05
  -2.102117e+06  -3.869655e+05
  -1.510742e+06  -1.935202e+06
   1.714489e+05  -2.434071e+06
   1.585689e+06  -1.426375e+06
   1.668425e+06   1.066205e+05
   8.493175e+05   8.473310e+05
   3.420993e+05   5.871062e+05
   5.288480e+05   1.886095e+05
   6.673989e+05   3.323841e+05
   1.005545e+05   7.934823e+05
  -8.751163e+05   9.099807e+05
  -1.435703e+06   3.345935e+05
  -1.043344e+06  -6.902370e+05
   2.317158e+05  -1.433826e+06
   1.700548e+06  -1.087517e+06
   2.254150e+06   4.479609e+05
   1.156153e+06   2.091529e+06
  -1.004176e+06   2.388434e+06
  -2.553295e+06   1.052460e+06
  -2.348997e+06  -6.478962e+05
  -9.401875e+05  -1.313787e+06
   1.996555e+05  -9.076868e+05
   3.420417e+05  -4.959847e+05
   1.821857e+04  -7.828069e+05
   6.792913e+04  -1.356267e+06
   6.680555e+05  -1.328061e+06
   1.314129e+06  -3.460579e+05
   1.374976e+06   1.061323e+06
   6.011131e+05   1.895095e+06
  -5.936922e+05   1.459498e+06
  -1.287567e+06   1.659501e+04
  -8.262549e+05  -1.287383e+06
   3.920815e+05  -1.404652e+06
   1.178761e+06  -3.898357e+05
   8.149621e+05   7.317870e+05
  -1.441221e+05   1.096957e+06
  -5.617792e+05   7.762998e+05
  -8.757291e+04   3.981672e+05
   4.532427e+05   3.234338e+05
   7.406136e+04   3.826815e+05
  -1.163340e+06   2.226786e+05
  -2.098128e+06  -3.106328e+05
  -1.641874e+06  -1.026141e+06
   4.241631e+04  -1.453819e+06
   1.609415e+06  -1.175349e+06
   1.841167e+06  -2.919627e+05
   8.264126e+05   5.111319e+05
  -2.707694e+05   5.881299e+05
  -5.179977e+05   2.670469e+04
  -4.225120e+04  -4.471655e+05
   4.314287e+05  -2.794959e+05
   4.962725e+05   3.347790e+05
   2.992029e+05   7.239793e+05
   1.320962e+05   4.871304e+05
   1.268065e+05  -8.102171e+04
   2.467418e+05  -2.844181e+05
   2.757228e+05   2.293840e+05
  -1.051554e+05   9.909536e+05
  -8.856080e+05   1.096428e+06
  -1.405107e+06   2.126855e+05
  -9.099756e+05  -9.118312e+05
   4.017485e+05  -1.181711e+06
   1.286409e+06  -3.879929e+05
   7.586498e+05   5.527585e+05
  -6.983684e+05   6.588175e+05
  -1.581500e+06  -7.597662e+04
  -9.878539e+05  -8.429644e+05
   4.877182e+05  -9.708483e+05
   1.476029e+06  -4.724953e+05
   1.209578e+06   1.805083e+05
   1.320224e+05   5.021566e+05
  -6.468530e+05   2.683016e+05
  -4.000816e+05  -3.005312e+05
   5.665222e+05  -5.593999e+05
   1.203453e+06   2.961741e+04
   7.387898e+05   1.168703e+06
  -5.186106e+05   1.752782e+06
  -1.460489e+06   9.581670e+05
  -1.289451e+06  -7.172625e+05
  -2.572016e+05  -1.790787e+06
   7.061897e+05  -1.302079e+06
   9.220715e+05   1.749377e+05
   4.384595e+05   1.184397e+06
  -2.228071e+05   9.539739e+05
  -5.687306e+05   8.268152e+04
  -4.565913e+05  -3.565955e+05
  -1.445646e+05  -1.192052e+05
  -5.421978e+04   8.647485e+04
  -3.210075e+05  -3.172212e+05
  -5.489608e+05  -9.698424e+05
  -1.892286e+05  -1.065219e+06
   7.430926e+05  -3.998804e+05
   1.489643e+06   4.269163e+05
   1.278010e+06   8.003206e+05
   1.987241e+05   7.031244e+05
  -8.202773e+05   4.546383e+05
  -9.718354e+05   2.015045e+05
  -3.836225e+05  -6.616038e+04
   1.298949e+05  -2.367365e+05
   5.961756e+04  -1.824221e+05
  -2.379850e+05  -5.921853e+04
  -6.975223e+04  -1.337663e+05
   6.232950e+05  -2.813913e+05
   1.062596e+06  -3.142533e+04
   5.114427e+05   7.031290e+05
  -7.802373e+05   1.245336e+06
  -1.721307e+06   8.396834e+05
  -1.489318e+06  -3.777771e+05
  -3.406057e+05  -1.405721e+06
   7.413879e+05  -1.423255e+06
   1.047461e+06  -6.041687e+05
   6.681907e+05   1.892752e+05
   1.637952e+05   3.614761e+05
  -4.005561e+04   1.000346e+05
   8.813563e+04   9.745389e+03
   2.943904e+05   3.688918e+05
   2.604693e+05   8.039222e+05
  -1.512061e+05   7.018514e+05
  -6.895821e+05  -6.913573e+04
  -8.095361e+05  -9.118855e+05
  -1.979466e+05  -1.050502e+06
   7.344808e+05  -3.218100e+05
   1.091863e+06   6.550671e+05
   4.183248e+05   1.094351e+06
  -6.940243e+05   7.417730e+05
  -1.154237e+06  -2.595889e+04
  -5.767967e+05  -6.305946e+05
   2.746686e+05  -7.314026e+05
   4.041694e+05  -3.874841e+05
  -2.163297e+05   2.160703e+04
  -6.457191e+05   7.193716e+04
  -1.709036e+05  -3.151734e+05
   8.071790e+05  -7.106399e+05
   1.277433e+06  -5.575302e+05
   8.073549e+05   1.873697e+05
  -6.425583e+04   8.967518e+05
  -5.610250e+05   8.939483e+05
  -4.663124e+05   1.994488e+05
  -9.567376e+04  -4.700387e+05
   2.215037e+05  -4.708037e+05
   3.656111e+05   1.005982e+05
   2.848097e+05   5.727730e+05
  -3.319324e+04   4.665805e+05
  -4.009761e+05  -1.483650e+04
  -4.987781e+05  -2.910344e+05
  -2.449173e+05  -1.094835e+05
   5.288365e+04   1.805942e+05
   7.522235e+04   9.665126e+04
  -7.851750e+04  -3.432512e+05
  -3.303242e+04  -6.087007e+05
   3.032008e+05  -3.014293e+05
   5.325485e+05   3.313877e+05
   2.482029e+05   6.538823e+05
  -3.847254e+05   3.553871e+05
  -7.107954e+05  -2.356035e+05
  -3.011311e+05  -5.578435e+05
   5.092921e+05  -3.935656e+05
   9.190673e+05   2.740247e+04
   5.105835e+05   3.626989e+05
  -2.850190e+05   4.436639e+05
  -6.519154e+05   2.885871e+05
  -2.817143e+05   2.970342e+04
   3.123344e+05  -1.200980e+05
   4.061400e+05   3.630572e+03
  -1.204137e+05   2.828745e+05
  -6.858926e+05   3.169720e+05
