
 $NMID
 id='ANONYMOUS ', fmtdat='(2E16.6)'
 volume=1.0
 tramp=1.0
 $END
   5.872850e+07  -5.679679e+05
   3.545524e+07   3.669984e+07
  -7.920754e+06   4.006558e+07
  -2.894073e+07   1.488703e+07
  -1.702579e+07  -7.891862e+06
   3.713994e+06  -9.736326e+06
   1.019062e+07   1.673355e+06
   2.551663e+06   1.026283e+07
  -6.695402e+06   9.351074e+06
  -1.001054e+07   1.789436e+06
  -7.175050e+06  -6.325724e+06
  -8.831186e+05  -8.708691e+06
   4.014659e+06  -2.909345e+06
   2.623928e+06   5.320115e+06
  -3.939559e+06   6.478034e+06
  -8.116383e+06  -1.516287e+06
  -4.523994e+06  -1.054532e+07
   3.936974e+06  -1.216792e+07
   1.042346e+07  -6.192941e+06
   1.126292e+07   1.930194e+06
   7.132612e+06   7.680853e+06
   9.571889e+05   9.183784e+06
  -3.151389e+06   6.577954e+06
  -2.383624e+06   2.765481e+06
   8.101042e+05   1.813188e+06
   3.979053e+05   3.909190e+06
  -5.122194e+06   4.507236e+06
  -9.604759e+06   7.801230e+05
  -7.258592e+06  -3.997805e+06
  -5.740493e+05  -5.154904e+06
   3.471773e+06  -2.819803e+06
   2.488467e+06  -3.604897e+05
  -2.650105e+05   6.663954e+05
  -1.869971e+06   5.438170e+05
  -2.112892e+06  -1.094698e+06
  -9.428595e+05  -3.727626e+06
   1.668416e+06  -4.037393e+06
   3.483485e+06  -1.636628e+05
   2.050895e+06   3.710696e+06
  -7.313243e+05   2.279185e+06
  -4.992444e+05  -2.206419e+06
   2.422896e+06  -2.234167e+06
   2.471458e+06   3.340175e+06
  -2.673568e+06   6.392168e+06
  -7.449323e+06   1.064837e+06
  -5.441625e+06  -7.253621e+06
   2.009990e+06  -8.942823e+06
   7.685444e+06  -2.565569e+06
   7.025030e+06   4.547288e+06
   1.737729e+06   6.104747e+06
  -3.551735e+06   2.632330e+06
  -5.210319e+06  -1.672794e+06
  -2.299323e+06  -3.593244e+06
   2.569828e+06  -2.213253e+06
   4.648377e+06   1.007965e+06
   1.957004e+06   2.843593e+06
  -1.784159e+06   1.411112e+06
  -1.700659e+06  -1.066823e+06
   1.507633e+06  -8.516609e+05
   2.563946e+06   2.038271e+06
  -8.387438e+05   3.754173e+06
  -5.007524e+06   1.968416e+06
  -5.529214e+06  -1.539630e+06
  -2.353625e+06  -4.177537e+06
   1.754487e+06  -5.367492e+06
   4.896391e+06  -4.943688e+06
   6.193853e+06  -1.896830e+06
   4.745494e+06   3.067726e+06
   1.057827e+06   6.199074e+06
  -1.948692e+06   4.775540e+06
  -1.888722e+06   1.070137e+06
  -8.547715e+04  -4.780800e+05
   3.058181e+05   8.768789e+05
  -1.335218e+06   1.891337e+06
  -2.696516e+06   4.704931e+05
  -2.064368e+06  -1.691205e+06
  -1.699213e+05  -2.002689e+06
   1.377065e+06  -2.289140e+05
   1.591644e+06   1.933343e+06
   6.122037e+04   2.842935e+06
  -2.682722e+06   1.727988e+06
  -4.518981e+06  -1.050967e+06
  -3.376302e+06  -3.744420e+06
  -5.199987e+04  -4.369375e+06
   2.336437e+06  -2.866115e+06
   2.348914e+06  -1.170738e+06
   1.891479e+06  -6.257095e+05
   2.927642e+06  -4.135221e+05
   4.294921e+06   7.933074e+05
   3.423201e+06   2.744774e+06
   1.157089e+05   4.048969e+06
  -3.118027e+06   3.823907e+06
  -4.036674e+06   2.135555e+06
  -2.612603e+06  -3.175528e+05
  -3.672688e+05  -2.148648e+06
   9.961458e+05  -1.931503e+06
   5.587379e+05   2.627868e+02
  -1.035778e+06   1.298270e+06
  -1.892822e+06   4.074592e+05
  -9.530224e+05  -1.192293e+06
   4.764504e+05  -1.086201e+06
   3.633187e+05   4.008801e+05
  -1.150375e+06   6.034309e+05
  -1.849718e+06  -1.475346e+06
  -4.643435e+05  -3.588213e+06
   1.826441e+06  -3.281824e+06
   3.201152e+06  -8.573961e+05
   3.142792e+06   1.582057e+06
   2.067664e+06   2.696991e+06
   3.842847e+05   2.486701e+06
  -1.188558e+06   1.418922e+06
  -1.522563e+06   2.417735e+05
  -4.825530e+05  -4.525801e+04
   3.478716e+05   7.415865e+05
  -4.300033e+05   1.345103e+06
  -1.923089e+06   5.736258e+05
  -2.024267e+06  -9.191312e+05
  -3.548074e+05  -1.431532e+06
   1.168125e+06  -5.444402e+05
   8.337259e+05   4.609558e+05
  -8.721109e+05   4.468526e+05
  -2.093941e+06  -4.089322e+05
  -1.606288e+06  -1.351399e+06
   3.105960e+05  -1.871005e+06
   2.265897e+06  -1.559828e+06
   2.712887e+06  -2.416802e+05
   1.199290e+06   1.269373e+06
  -9.201500e+05   1.513906e+06
  -1.577681e+06   1.975180e+05
  -2.225921e+05  -1.084500e+06
   1.501298e+06  -7.304848e+05
   1.684518e+06   7.974110e+05
   2.828556e+05   1.635417e+06
  -1.118425e+06   9.154523e+05
  -1.227326e+06  -3.677612e+05
  -1.997090e+05  -7.923406e+05
   8.113698e+05  -4.556234e+04
   7.344808e+05   1.044533e+06
  -5.567223e+05   1.406735e+06
  -1.969464e+06   5.456158e+05
  -2.007328e+06  -1.027646e+06
  -3.736254e+05  -2.048708e+06
   1.438157e+06  -1.613761e+06
   1.707334e+06  -1.834351e+05
   4.724924e+05   8.683286e+05
  -6.626630e+05   7.761393e+05
  -5.966312e+05   7.226345e+04
   1.453537e+05  -3.100427e+05
   4.516643e+05  -1.506178e+05
   4.292966e+04   6.050592e+04
  -4.861970e+05  -1.385171e+05
  -4.887103e+05  -7.180010e+05
   2.449456e+05  -1.178682e+06
   1.376760e+06  -8.653222e+05
   2.044901e+06   4.211570e+05
   1.436475e+06   1.916278e+06
  -2.197761e+05   2.365180e+06
  -1.586550e+06   1.344382e+06
  -1.623699e+06  -1.610008e+05
  -7.800195e+05  -8.546196e+05
  -2.830025e+05  -5.605452e+05
  -5.043424e+05  -1.615108e+05
  -6.672806e+05  -3.226026e+05
  -9.778532e+04  -7.828193e+05
   8.804625e+05  -8.727872e+05
   1.414081e+06  -2.838083e+05
   9.867257e+05   7.065663e+05
  -2.806061e+05   1.389042e+06
  -1.690574e+06   1.013071e+06
  -2.185316e+06  -4.926472e+05
  -1.079320e+06  -2.074747e+06
   1.038443e+06  -2.323956e+06
   2.530573e+06  -9.766577e+05
   2.286961e+06   7.010721e+05
   8.712223e+05   1.324506e+06
  -2.441756e+05   8.775267e+05
  -3.512712e+05   4.467013e+05
  -1.052938e+04   7.372998e+05
  -6.688464e+04   1.319545e+06
  -6.688110e+05   1.294565e+06
  -1.289688e+06   3.222316e+05
  -1.319245e+06  -1.056242e+06
  -5.477664e+05  -1.854969e+06
   6.059427e+05  -1.407050e+06
   1.256624e+06   1.444717e+04
   7.829768e+05   1.281823e+06
  -4.192359e+05   1.374375e+06
  -1.183307e+06   3.588719e+05
  -8.041308e+05  -7.459859e+05
   1.621474e+05  -1.092351e+06
   5.819626e+05  -7.633137e+05
   1.083599e+05  -3.880254e+05
  -4.332852e+05  -3.167444e+05
  -6.442287e+04  -3.701695e+05
   1.146034e+06  -1.983965e+05
   2.049582e+06   3.383338e+05
   1.585791e+06   1.038214e+06
  -7.093069e+04   1.435573e+06
  -1.598820e+06   1.130730e+06
  -1.812987e+06   2.452261e+05
  -8.080730e+05  -5.327187e+05
   2.729325e+05  -5.804192e+05
   5.156863e+05  -1.464824e+04
   4.646528e+04   4.390682e+05
  -4.183300e+05   2.603097e+05
  -4.777270e+05  -3.335979e+05
  -2.830335e+05  -6.952775e+05
  -1.272929e+05  -4.642780e+05
  -1.327877e+05   6.798212e+04
  -2.492414e+05   2.535664e+05
  -2.632902e+05  -2.325037e+05
   1.218726e+05  -9.529119e+05
   8.823723e+05  -1.052123e+06
   1.375394e+06  -2.004233e+05
   8.787559e+05   8.905526e+05
  -4.028195e+05   1.151635e+06
  -1.254428e+06   3.701894e+05
  -7.247714e+05  -5.480404e+05
   6.984866e+05  -6.284658e+05
   1.540832e+06   1.177176e+05
   9.343334e+05   8.607899e+05
  -5.154457e+05   9.393144e+05
  -1.462090e+06   4.116692e+05
  -1.174042e+06  -2.199898e+05
  -1.097490e+05  -4.958130e+05
   6.425920e+05  -2.444503e+05
   3.905786e+05   2.997048e+05
  -5.515175e+05   5.316840e+05
  -1.161524e+06  -4.427167e+04
  -6.993506e+05  -1.136052e+06
   5.238161e+05  -1.684366e+06
   1.425511e+06  -9.025868e+05
   1.234652e+06   7.190004e+05
   2.116167e+05   1.741906e+06
  -7.202479e+05   1.245301e+06
  -8.988701e+05  -1.982586e+05
  -3.956489e+05  -1.169997e+06
   2.515471e+05  -9.285528e+05
   5.618429e+05  -6.794133e+04
   4.280596e+05   3.626989e+05
   1.280967e+05   1.254457e+05
   5.999991e+04  -8.410532e+04
   3.216089e+05   3.072633e+05
   5.196660e+05   9.514874e+05
   1.509196e+05   1.048409e+06
  -7.424708e+05   3.837076e+05
  -1.436965e+06  -4.477306e+05
  -1.217075e+06  -8.147996e+05
  -1.795256e+05  -6.904773e+05
   7.984403e+05  -4.166622e+05
   9.493093e+05  -1.694496e+05
   3.827282e+05   6.908777e+04
  -1.273682e+05   2.246415e+05
  -7.536953e+04   1.822475e+05
   2.149658e+05   6.864634e+04
   6.788077e+04   1.264228e+05
  -5.970992e+05   2.523301e+05
  -1.030336e+06   1.362581e+04
  -4.978882e+05  -6.781079e+05
   7.668726e+05  -1.188874e+06
   1.685819e+06  -7.958282e+05
   1.443589e+06   3.770309e+05
   3.049613e+05   1.365583e+06
  -7.462572e+05   1.373463e+06
  -1.021391e+06   5.726213e+05
  -6.376089e+05  -1.932987e+05
  -1.560915e+05  -3.495036e+05
   2.658782e+04  -9.210312e+04
  -9.572324e+04  -1.366808e+04
  -2.778521e+05  -3.717082e+05
  -2.338190e+05  -7.900604e+05
   1.561230e+05  -6.781545e+05
   6.589812e+05   7.647052e+04
   7.664506e+05   8.882891e+05
   1.829936e+05   1.012511e+06
  -7.034882e+05   3.003105e+05
  -1.040551e+06  -6.452391e+05
  -3.915109e+05  -1.063568e+06
   6.784062e+05  -7.114267e+05
   1.120922e+06   3.931736e+04
   5.599280e+05   6.227424e+05
  -2.714324e+05   7.131440e+05
  -4.043064e+05   3.788787e+05
   1.990264e+05  -1.040969e+04
   6.244684e+05  -5.637716e+04
   1.644257e+05   3.073210e+05
  -7.981911e+05   6.733893e+05
  -1.264153e+06   5.192736e+05
  -7.952145e+05  -1.937089e+05
   7.478713e+04  -8.713393e+05
   5.641902e+05  -8.684973e+05
   4.571176e+05  -1.998445e+05
   8.419767e+04   4.497142e+05
  -2.171470e+05   4.551111e+05
  -3.439954e+05  -9.811976e+04
  -2.664360e+05  -5.594963e+05
   3.125547e+04  -4.561494e+05
   3.853543e+05   1.844675e+04
   4.869479e+05   2.935508e+05
   2.410261e+05   1.150564e+05
  -5.815629e+04  -1.773453e+05
  -8.517658e+04  -1.063133e+05
   7.395360e+04   3.181512e+05
   4.387346e+04   5.819807e+05
  -2.797226e+05   2.941382e+05
  -5.095962e+05  -3.116656e+05
  -2.397441e+05  -6.226277e+05
   3.719714e+05  -3.367714e+05
   6.841631e+05   2.312407e+05
   2.819854e+05   5.394523e+05
  -5.021376e+05   3.760563e+05
  -8.913547e+05  -3.518837e+04
  -4.905256e+05  -3.584747e+05
   2.781489e+05  -4.304249e+05
   6.316389e+05  -2.767931e+05
   2.779537e+05  -3.155035e+04
  -2.904835e+05   1.069682e+05
  -3.811950e+05  -6.812239e+03
   1.214284e+05  -2.597171e+05
   6.603670e+05  -2.824464e+05
