
 $NMID
 id='ANONYMOUS ', fmtdat='(2E16.6)'
 volume=1.0
 tramp=1.0
 $END
   3.647056e+07  -8.144834e+05
   2.287927e+07   2.142903e+07
  -3.603026e+06   2.469298e+07
  -1.750610e+07   1.071980e+07
  -1.126211e+07  -3.549006e+06
   1.607418e+06  -6.246573e+06
   6.612241e+06   9.704135e+04
   2.480298e+06   6.299265e+06
  -3.638322e+06   6.743996e+06
  -6.373214e+06   1.868381e+06
  -4.813979e+06  -4.045821e+06
  -6.516618e+05  -5.869141e+06
   2.682511e+06  -1.809697e+06
   1.899071e+06   3.890115e+06
  -2.360875e+06   4.748066e+06
  -5.294462e+06  -5.594413e+05
  -3.241790e+06  -6.665570e+06
   2.213040e+06  -7.917410e+06
   6.546943e+06  -4.027877e+06
   7.039994e+06   1.293412e+06
   4.221942e+06   4.777852e+06
   4.704711e+05   5.368730e+06
  -1.538093e+06   3.769498e+06
  -6.687095e+05   1.989059e+06
   1.017985e+06   1.950204e+06
   5.067357e+03   3.154938e+06
  -3.975259e+06   2.944035e+06
  -6.717227e+06   1.687243e+05
  -4.718349e+06  -2.856695e+06
   6.227154e+04  -3.344982e+06
   2.755193e+06  -1.523027e+06
   1.618150e+06   3.223639e+05
  -8.631513e+05   8.700941e+05
  -2.026854e+06   1.990974e+05
  -1.550931e+06  -1.376326e+06
  -2.035151e+05  -2.902252e+06
   1.305614e+06  -2.480988e+06
   1.911723e+06   2.511439e+05
   8.988875e+05   2.334927e+06
  -4.573528e+05   9.488534e+05
  -2.804937e+04  -1.947210e+06
   1.750936e+06  -1.712160e+06
   1.778318e+06   2.029339e+06
  -1.250429e+06   4.104758e+06
  -4.260624e+06   9.042109e+05
  -3.410055e+06  -4.296143e+06
   9.773966e+05  -5.541033e+06
   4.815831e+06  -1.703304e+06
   4.864074e+06   2.882169e+06
   1.515225e+06   4.147276e+06
  -2.337923e+06   2.061680e+06
  -3.807749e+06  -8.493168e+05
  -1.925116e+06  -2.339600e+06
   1.481339e+06  -1.612392e+06
   3.076120e+06   4.467592e+05
   1.441301e+06   1.741821e+06
  -1.092749e+06   9.638011e+05
  -1.295498e+06  -6.644851e+05
   7.187176e+05  -8.048763e+05
   1.756248e+06   8.348220e+05
  -1.675838e+04   2.130048e+06
  -2.750734e+06   1.444216e+06
  -3.529804e+06  -5.931336e+05
  -1.699018e+06  -2.512099e+06
   1.222604e+06  -3.576468e+06
   3.548853e+06  -3.303978e+06
   4.272275e+06  -1.129826e+06
   3.037260e+06   2.206973e+06
   6.208054e+05   4.254118e+06
  -1.146896e+06   3.399986e+06
  -1.136745e+06   1.097998e+06
  -2.924719e+05   5.555893e+04
  -3.214058e+05   7.110472e+05
  -1.378176e+06   1.076040e+06
  -2.040312e+06  -9.426432e+04
  -1.343742e+06  -1.601453e+06
   1.617739e+05  -1.641056e+06
   1.296129e+06  -8.795089e+04
   1.274952e+06   1.641294e+06
  -5.359248e+04   2.169056e+06
  -2.008469e+06   1.097628e+06
  -3.075395e+06  -9.281425e+05
  -2.140046e+06  -2.581081e+06
   2.925037e+04  -2.794283e+06
   1.457920e+06  -1.795995e+06
   1.422147e+06  -8.290616e+05
   1.243614e+06  -5.871483e+05
   2.120188e+06  -4.400913e+05
   3.166816e+06   4.800437e+05
   2.568503e+06   1.980130e+06
   1.216828e+05   3.031057e+06
  -2.373479e+06   2.865901e+06
  -3.106643e+06   1.492705e+06
  -1.919387e+06  -4.014805e+05
  -9.272232e+04  -1.661357e+06
   8.843159e+05  -1.367858e+06
   4.013158e+05   5.742117e+04
  -8.258314e+05   9.456896e+05
  -1.377149e+06   2.927295e+05
  -6.373412e+05  -8.599123e+05
   4.123659e+05  -8.260822e+05
   3.845228e+05   2.800196e+05
  -6.956804e+05   6.338971e+05
  -1.402912e+06  -7.091147e+05
  -7.103715e+05  -2.439567e+06
   9.078149e+05  -2.662947e+06
   2.255973e+06  -1.103527e+06
   2.594198e+06   9.232549e+05
   1.842765e+06   2.094671e+06
   3.746406e+05   2.017618e+06
  -9.506471e+05   1.090466e+06
  -1.188069e+06   1.440721e+05
  -3.669004e+05  -3.445857e+04
   2.705805e+05   5.535528e+05
  -2.731827e+05   9.722957e+05
  -1.362125e+06   4.393053e+05
  -1.495389e+06  -6.028689e+05
  -3.219194e+05  -1.017984e+06
   8.538482e+05  -4.449949e+05
   6.971241e+05   3.323048e+05
  -6.096616e+05   4.485962e+05
  -1.678623e+06  -1.689359e+05
  -1.387951e+06  -1.017053e+06
   1.447026e+05  -1.532511e+06
   1.729055e+06  -1.279112e+06
   2.073339e+06  -2.210635e+05
   9.069095e+05   9.154374e+05
  -6.561106e+05   1.085860e+06
  -1.115833e+06   1.439783e+05
  -1.353290e+05  -7.748863e+05
   1.113167e+06  -5.443229e+05
   1.285437e+06   5.568935e+05
   2.934730e+05   1.229158e+06
  -7.837513e+05   7.730109e+05
  -9.549455e+05  -1.827634e+05
  -2.241157e+05  -5.692962e+05
   5.661928e+05  -5.425576e+04
   5.376599e+05   7.696094e+05
  -4.335338e+05   1.046154e+06
  -1.489363e+06   3.898748e+05
  -1.503813e+06  -7.828106e+05
  -2.887293e+05  -1.534505e+06
   1.053692e+06  -1.225728e+06
   1.281532e+06  -1.755957e+05
   3.947094e+05   6.397490e+05
  -4.794549e+05   6.116443e+05
  -4.918034e+05   5.537059e+04
   7.386666e+04  -3.062144e+05
   3.990674e+05  -1.887797e+05
   1.489171e+05   6.771915e+04
  -3.103494e+05  -9.401974e+02
  -4.091799e+05  -4.605747e+05
   1.224272e+05  -8.793758e+05
   1.017009e+06  -6.756383e+05
   1.547703e+06   3.005563e+05
   1.088587e+06   1.440944e+06
  -1.615824e+05   1.810355e+06
  -1.211336e+06   1.081137e+06
  -1.291518e+06  -7.559093e+04
  -6.791340e+05  -7.024365e+05
  -2.398026e+05  -5.549087e+05
  -3.137732e+05  -1.991934e+05
  -4.265918e+05  -2.116510e+05
  -6.411563e+04  -5.409613e+05
   6.417730e+05  -6.790319e+05
   1.089540e+06  -2.600028e+05
   8.084493e+05   5.519223e+05
  -1.735967e+05   1.123582e+06
  -1.289537e+06   8.212926e+05
  -1.688202e+06  -3.548542e+05
  -8.664873e+05  -1.558452e+06
   7.174731e+05  -1.763858e+06
   1.871552e+06  -7.965652e+05
   1.772946e+06   4.569329e+05
   7.616755e+05   1.002186e+06
  -1.331066e+05   7.494112e+05
  -3.245417e+05   4.132461e+05
  -1.098834e+05   5.479557e+05
  -9.697986e+04   9.370319e+05
  -4.855093e+05   9.371919e+05
  -9.451169e+05   2.328549e+05
  -9.884511e+05  -8.056719e+05
  -4.113898e+05  -1.411877e+06
   4.666295e+05  -1.070257e+06
   9.616060e+05  -5.914073e+03
   6.172516e+05   9.407437e+05
  -2.642339e+05   1.041097e+06
  -8.405658e+05   3.371838e+05
  -6.073921e+05  -4.721286e+05
   5.546797e+04  -7.797298e+05
   3.592651e+05  -5.939846e+05
   4.883036e+04  -3.289677e+05
  -3.136835e+05  -2.585465e+05
  -3.841352e+04  -2.887424e+05
   8.425039e+05  -1.633038e+05
   1.517664e+06   2.363901e+05
   1.206120e+06   7.573400e+05
   1.241496e+02   1.052695e+06
  -1.152297e+06   8.460279e+05
  -1.356273e+06   2.278508e+05
  -6.353187e+05  -3.357707e+05
   1.791168e+05  -4.104995e+05
   3.744065e+05  -3.963235e+04
   1.512489e+04   2.935216e+05
  -3.406685e+05   1.856211e+05
  -3.555203e+05  -2.554172e+05
  -1.644552e+05  -5.425830e+05
  -4.972630e+04  -3.556151e+05
  -1.079087e+05   8.580183e+04
  -2.285051e+05   2.340990e+05
  -2.083594e+05  -1.717049e+05
   1.190153e+05  -7.404411e+05
   6.676393e+05  -7.890939e+05
   9.846702e+05  -1.194373e+05
   6.081962e+05   6.776818e+05
  -3.055979e+05   8.279043e+05
  -9.189061e+05   2.327663e+05
  -5.428586e+05  -4.337058e+05
   5.187778e+05  -4.893059e+05
   1.196894e+06   6.083382e+04
   7.802116e+05   6.433160e+05
  -3.434127e+05   7.595730e+05
  -1.129384e+06   3.864118e+05
  -9.420054e+05  -1.299579e+05
  -1.103739e+05  -3.905923e+05
   4.836420e+05  -2.118172e+05
   2.814293e+05   2.111489e+05
  -4.435339e+05   3.788431e+05
  -8.786336e+05  -7.319161e+04
  -4.839051e+05  -8.854435e+05
   4.574853e+05  -1.262064e+06
   1.115548e+06  -6.493917e+05
   9.379870e+05   5.722732e+05
   1.495204e+05   1.344376e+06
  -5.557893e+05   9.785964e+05
  -6.980349e+05  -1.214599e+05
  -3.348456e+05  -8.926057e+05
   1.512686e+05  -7.360342e+05
   4.172571e+05  -6.982477e+04
   3.584536e+05   2.866518e+05
   1.327897e+05   1.083439e+05
   3.279576e+04  -7.597674e+04
   1.955340e+05   2.098569e+05
   3.773410e+05   7.184866e+05
   1.564618e+05   8.126672e+05
  -5.204865e+05   3.019278e+05
  -1.107105e+06  -3.478720e+05
  -9.711288e+05  -6.283899e+05
  -1.408062e+05  -5.209054e+05
   6.483417e+05  -3.114294e+05
   7.413821e+05  -1.401564e+05
   2.635575e+05   3.195391e+04
  -1.120739e+05   1.676046e+05
  -1.726262e+04   1.619754e+05
   2.076573e+05   7.913195e+04
   3.339071e+04   9.878927e+04
  -5.052989e+05   1.703974e+05
  -7.811628e+05  -9.589268e+03
  -3.104845e+05  -5.116183e+05
   6.357703e+05  -8.746154e+05
   1.262332e+06  -5.639956e+05
   1.043774e+06   3.224302e+05
   2.043597e+05   1.052747e+06
  -5.682904e+05   1.028585e+06
  -7.823402e+05   3.986065e+05
  -4.905000e+05  -1.777721e+05
  -9.704614e+04  -2.663219e+05
   5.831822e+04  -4.233794e+04
  -5.978516e+04   1.927497e+04
  -2.302462e+05  -2.732805e+05
  -1.901538e+05  -6.052029e+05
   1.331499e+05  -5.065237e+05
   5.096951e+05   9.389244e+04
   5.500849e+05   7.129152e+05
   8.274233e+04   7.681456e+05
  -5.643787e+05   1.803190e+05
  -7.728160e+05  -5.407786e+05
  -2.604693e+05  -8.124342e+05
   5.306971e+05  -5.045083e+05
   8.335705e+05   5.275337e+04
   3.978489e+05   4.508739e+05
  -2.098326e+05   5.028582e+05
  -2.769069e+05   2.772026e+05
   1.898717e+05   1.042002e+04
   4.870374e+05  -2.997311e+04
   1.093380e+05   2.283747e+05
  -6.160278e+05   5.115617e+05
  -9.382534e+05   4.141752e+05
  -5.680364e+05  -1.241310e+05
   6.861789e+04  -6.489713e+05
   4.052726e+05  -6.427322e+05
   3.117233e+05  -1.213945e+05
   3.856174e+04   3.592494e+05
  -1.771434e+05   3.238588e+05
  -2.623960e+05  -1.129306e+05
  -1.917238e+05  -4.309967e+05
   3.697460e+04  -3.159586e+05
   2.918116e+05   3.333483e+04
   3.572568e+05   2.047759e+05
   1.831632e+05   6.890613e+04
  -2.601736e+04  -1.081930e+05
  -6.534365e+04  -2.602458e+04
   4.106433e+03   2.640429e+05
  -3.980747e+04   4.041007e+05
  -2.363601e+05   1.573092e+05
  -3.377089e+05  -2.832689e+05
  -1.138739e+05  -4.810815e+05
   3.048563e+05  -2.345944e+05
   4.950265e+05   2.069520e+05
   1.901252e+05   4.282820e+05
  -3.769545e+05   2.760015e+05
  -6.582188e+05  -5.255760e+04
  -3.594375e+05  -2.798639e+05
   2.163877e+05  -2.988561e+05
   4.746509e+05  -1.717997e+05
   1.850159e+05  -1.609502e+04
  -2.600948e+05   4.858226e+04
  -3.044043e+05  -4.943312e+04
   1.280130e+05  -2.188197e+05
   5.588069e+05  -2.039309e+05
