
 $NMID
 id='ANONYMOUS ', fmtdat='(2E16.6)'
 volume=1.0
 tramp=1.0
 $END
   5.794200e+07  -1.434567e+06
   3.578296e+07   3.581521e+07
  -7.157295e+06   3.988320e+07
  -2.861952e+07   1.520549e+07
  -1.720011e+07  -7.672261e+06
   3.552973e+06  -9.803074e+06
   1.027404e+07   1.559848e+06
   2.683447e+06   1.027230e+07
  -6.666965e+06   9.427383e+06
  -1.000465e+07   1.877437e+06
  -7.135746e+06  -6.202204e+06
  -8.979635e+05  -8.586585e+06
   3.907943e+06  -2.884063e+06
   2.528184e+06   5.259548e+06
  -3.949665e+06   6.457766e+06
  -8.105024e+06  -1.430364e+06
  -4.587864e+06  -1.041962e+07
   3.778837e+06  -1.210056e+07
   1.021828e+07  -6.242026e+06
   1.110381e+07   1.742315e+06
   7.140412e+06   7.411763e+06
   1.158081e+06   9.003680e+06
  -2.931740e+06   6.623662e+06
  -2.367565e+06   2.948678e+06
   6.352734e+05   1.894883e+06
   2.815992e+05   3.789237e+06
  -5.011621e+06   4.331848e+06
  -9.374669e+06   7.385152e+05
  -7.122217e+06  -3.875191e+06
  -6.110905e+05  -4.969201e+06
   3.321744e+06  -2.690117e+06
   2.318027e+06  -3.761469e+05
  -3.563587e+05   4.989165e+05
  -1.802637e+06   3.643787e+05
  -1.939625e+06  -1.102088e+06
  -8.516841e+05  -3.571294e+06
   1.576269e+06  -3.941932e+06
   3.348214e+06  -2.730659e+05
   2.069126e+06   3.536888e+06
  -5.787239e+05   2.254573e+06
  -3.914950e+05  -2.101233e+06
   2.428629e+06  -2.180732e+06
   2.495104e+06   3.307912e+06
  -2.568757e+06   6.429060e+06
  -7.376570e+06   1.243556e+06
  -5.514446e+06  -7.070108e+06
   1.844912e+06  -8.899791e+06
   7.557237e+06  -2.630661e+06
   6.973313e+06   4.490417e+06
   1.720744e+06   6.087779e+06
  -3.556388e+06   2.615432e+06
  -5.200263e+06  -1.700812e+06
  -2.295324e+06  -3.617828e+06
   2.549862e+06  -2.243915e+06
   4.633152e+06   9.656637e+05
   1.976548e+06   2.821181e+06
  -1.754633e+06   1.419103e+06
  -1.690436e+06  -1.079243e+06
   1.534235e+06  -9.103617e+05
   2.653841e+06   2.005969e+06
  -7.235210e+05   3.824094e+06
  -4.953384e+06   2.095364e+06
  -5.552964e+06  -1.455512e+06
  -2.400043e+06  -4.134402e+06
   1.704652e+06  -5.284102e+06
   4.804635e+06  -4.827264e+06
   6.062972e+06  -1.863106e+06
   4.651378e+06   2.972177e+06
   1.042312e+06   6.082520e+06
  -1.946836e+06   4.748615e+06
  -1.943639e+06   1.092765e+06
  -1.736648e+05  -5.226173e+05
   2.739072e+05   7.417560e+05
  -1.265437e+06   1.755073e+06
  -2.559762e+06   4.182210e+05
  -1.931147e+06  -1.649091e+06
  -1.060681e+05  -1.907794e+06
   1.339611e+06  -1.444090e+05
   1.494737e+06   1.945918e+06
   1.020002e+04   2.777775e+06
  -2.621906e+06   1.663279e+06
  -4.403740e+06  -1.029566e+06
  -3.323435e+06  -3.648081e+06
  -9.822159e+04  -4.289574e+06
   2.262693e+06  -2.857266e+06
   2.320438e+06  -1.197380e+06
   1.900155e+06  -6.289218e+05
   2.920463e+06  -3.810857e+05
   4.246147e+06   8.331295e+05
   3.349966e+06   2.755202e+06
   5.508887e+04   3.998445e+06
  -3.128322e+06   3.712627e+06
  -3.983185e+06   2.025823e+06
  -2.530895e+06  -3.418789e+05
  -3.184074e+05  -2.079515e+06
   9.904247e+05  -1.856370e+06
   5.363621e+05   3.760830e+03
  -1.032706e+06   1.251537e+06
  -1.866467e+06   3.832109e+05
  -9.287890e+05  -1.169861e+06
   4.868614e+05  -1.049532e+06
   3.554977e+05   4.257443e+05
  -1.183826e+06   6.148198e+05
  -1.890984e+06  -1.485057e+06
  -4.620227e+05  -3.624967e+06
   1.893751e+06  -3.312060e+06
   3.272084e+06  -8.307592e+05
   3.133863e+06   1.659222e+06
   1.981094e+06   2.754495e+06
   3.067551e+05   2.475433e+06
  -1.198045e+06   1.366958e+06
  -1.494910e+06   2.054756e+05
  -4.746959e+05  -5.259139e+04
   3.319361e+05   7.376890e+05
  -4.352377e+05   1.329363e+06
  -1.904389e+06   5.546004e+05
  -1.999414e+06  -9.296987e+05
  -3.408024e+05  -1.427044e+06
   1.166470e+06  -5.230305e+05
   8.163080e+05   4.831222e+05
  -8.927344e+05   4.367317e+05
  -2.088539e+06  -4.597024e+05
  -1.561183e+06  -1.397677e+06
   3.637829e+05  -1.858717e+06
   2.280411e+06  -1.496011e+06
   2.685014e+06  -1.892171e+05
   1.171059e+06   1.269354e+06
  -9.169786e+05   1.485160e+06
  -1.555526e+06   1.869700e+05
  -2.118942e+05  -1.063690e+06
   1.488524e+06  -6.998630e+05
   1.656573e+06   8.153466e+05
   2.538202e+05   1.633288e+06
  -1.134558e+06   8.974126e+05
  -1.224106e+06  -3.881992e+05
  -1.902085e+05  -7.996679e+05
   8.043259e+05  -4.145270e+04
   7.103143e+05   1.037455e+06
  -5.682043e+05   1.373646e+06
  -1.944205e+06   5.048360e+05
  -1.959325e+06  -1.042089e+06
  -3.380531e+05  -2.025611e+06
   1.443947e+06  -1.574077e+06
   1.692959e+06  -1.556161e+05
   4.551522e+05   8.708076e+05
  -6.706090e+05   7.581240e+05
  -5.882555e+05   5.216664e+04
   1.654427e+05  -3.106983e+05
   4.647588e+05  -1.269888e+05
   3.574385e+04   8.751877e+04
  -5.013264e+05  -1.313978e+05
  -4.890203e+05  -7.250408e+05
   2.580798e+05  -1.172173e+06
   1.375841e+06  -8.356564e+05
   2.012066e+06   4.488288e+05
   1.385864e+06   1.912052e+06
  -2.598438e+05   2.327658e+06
  -1.599382e+06   1.296050e+06
  -1.607529e+06  -1.993304e+05
  -7.420590e+05  -8.746614e+05
  -2.402475e+05  -5.624480e+05
  -4.771022e+05  -1.519062e+05
  -6.599054e+05  -3.113204e+05
  -9.533552e+04  -7.713097e+05
   8.864575e+05  -8.515822e+05
   1.408982e+06  -2.519268e+05
   9.571023e+05   7.269585e+05
  -3.160505e+05   1.373237e+06
  -1.695290e+06   9.680323e+05
  -2.149245e+06  -5.293898e+05
  -1.031650e+06  -2.073259e+06
   1.062784e+06  -2.287945e+06
   2.522300e+06  -9.303277e+05
   2.258137e+06   7.378945e+05
   8.363660e+05   1.342292e+06
  -2.744710e+05   8.720129e+05
  -3.703684e+05   4.208342e+05
  -1.989810e+04   7.031152e+05
  -7.329566e+04   1.288566e+06
  -6.704305e+05   1.269266e+06
  -1.273444e+06   3.033738e+05
  -1.280967e+06  -1.059967e+06
  -5.073690e+05  -1.835706e+06
   6.212224e+05  -1.374330e+06
   1.241429e+06   3.740466e+04
   7.568036e+05   1.281426e+06
  -4.360061e+05   1.359150e+06
  -1.186738e+06   3.462931e+05
  -8.009403e+05  -7.483200e+05
   1.673530e+05  -1.088982e+06
   5.899734e+05  -7.607051e+05
   1.211628e+05  -3.877929e+05
  -4.177323e+05  -3.159835e+05
  -5.558535e+04  -3.636251e+05
   1.135706e+06  -1.823097e+05
   2.018682e+06   3.596376e+05
   1.551745e+06   1.050523e+06
  -8.627059e+04   1.425457e+06
  -1.591921e+06   1.100764e+06
  -1.799730e+06   2.152578e+05
  -8.023884e+05  -5.437349e+05
   2.720882e+05  -5.737673e+05
   5.149235e+05  -9.446121e+03
   4.759050e+04   4.292483e+05
  -4.137237e+05   2.445734e+05
  -4.647905e+05  -3.350373e+05
  -2.642400e+05  -6.784951e+05
  -1.171746e+05  -4.490170e+05
  -1.397600e+05   6.308598e+04
  -2.592706e+05   2.364702e+05
  -2.566599e+05  -2.358931e+05
   1.400975e+05  -9.311579e+05
   8.854297e+05  -1.022247e+06
   1.351746e+06  -1.874789e+05
   8.506993e+05   8.792485e+05
  -4.060641e+05   1.128219e+06
  -1.231675e+06   3.513342e+05
  -7.010189e+05  -5.504726e+05
   7.016031e+05  -6.100404e+05
   1.522546e+06   1.481539e+05
   9.080918e+05   8.799461e+05
  -5.344125e+05   9.274640e+05
  -1.464120e+06   3.762177e+05
  -1.161150e+06  -2.482380e+05
  -9.640909e+04  -4.963742e+05
   6.431287e+05  -2.306976e+05
   3.833814e+05   2.986240e+05
  -5.467666e+05   5.089844e+05
  -1.134765e+06  -6.243189e+04
  -6.649107e+05  -1.120479e+06
   5.404563e+05  -1.637409e+06
   1.411527e+06  -8.580398e+05
   1.198485e+06   7.292003e+05
   1.743160e+05   1.717266e+06
  -7.380793e+05   1.212665e+06
  -8.887599e+05  -2.142378e+05
  -3.688192e+05  -1.167238e+06
   2.708780e+05  -9.193117e+05
   5.589302e+05  -5.928902e+04
   4.128337e+05   3.721123e+05
   1.208443e+05   1.336576e+05
   6.327705e+04  -8.462248e+04
   3.171847e+05   2.974508e+05
   4.968705e+05   9.424029e+05
   1.269718e+05   1.044724e+06
  -7.406479e+05   3.750924e+05
  -1.406370e+06  -4.689603e+05
  -1.182945e+06  -8.338717e+05
  -1.659435e+05  -6.844576e+05
   7.924005e+05  -3.876918e+05
   9.406908e+05  -1.462150e+05
   3.807289e+05   6.863009e+04
  -1.284633e+05   2.157530e+05
  -8.280773e+04   1.871297e+05
   2.042996e+05   8.115698e+04
   6.413080e+04   1.216999e+05
  -5.875871e+05   2.269840e+05
  -1.010945e+06  -3.700330e+03
  -4.802211e+05  -6.614742e+05
   7.690724e+05  -1.146595e+06
   1.665589e+06  -7.598167e+05
   1.408266e+06   3.839702e+05
   2.740023e+05   1.344522e+06
  -7.554084e+05   1.340394e+06
  -1.008022e+06   5.455651e+05
  -6.179703e+05  -2.025842e+05
  -1.477152e+05  -3.422362e+05
   2.137519e+04  -8.191172e+04
  -1.008240e+05  -1.239039e+04
  -2.693252e+05  -3.753603e+05
  -2.156405e+05  -7.851769e+05
   1.633736e+05  -6.622253e+05
   6.398438e+05   8.843191e+04
   7.316629e+05   8.807878e+05
   1.636770e+05   9.880862e+05
  -6.873128e+05   2.775354e+05
  -1.003064e+06  -6.491383e+05
  -3.669214e+05  -1.046301e+06
   6.724131e+05  -6.862511e+05
   1.098798e+06   5.367722e+04
   5.462098e+05   6.171651e+05
  -2.709353e+05   6.974732e+05
  -4.026676e+05   3.731750e+05
   1.919635e+05   1.593136e+03
   6.133398e+05  -4.217581e+04
   1.580410e+05   3.021760e+05
  -7.978371e+05   6.477476e+05
  -1.258932e+06   4.949408e+05
  -7.856155e+05  -1.964535e+05
   8.550856e+04  -8.546846e+05
   5.670043e+05  -8.514719e+05
   4.472544e+05  -1.972919e+05
   7.155964e+04   4.387541e+05
  -2.167388e+05   4.421741e+05
  -3.287027e+05  -1.025086e+05
  -2.517452e+05  -5.533862e+05
   3.163258e+04  -4.461624e+05
   3.750470e+05   2.438793e+04
   4.789447e+05   2.947916e+05
   2.396743e+05   1.175885e+05
  -6.031899e+04  -1.718403e+05
  -9.434895e+04  -1.067032e+05
   6.280220e+04   3.029290e+05
   4.233018e+04   5.580653e+05
  -2.656525e+05   2.801764e+05
  -4.867422e+05  -3.043768e+05
  -2.242864e+05  -6.022451e+05
   3.673462e+05  -3.206647e+05
   6.633610e+05   2.337598e+05
   2.646860e+05   5.308356e+05
  -4.990423e+05   3.630606e+05
  -8.720078e+05  -4.544693e+04
  -4.756092e+05  -3.585445e+05
   2.750431e+05  -4.183996e+05
   6.184595e+05  -2.634072e+05
   2.728178e+05  -3.229735e+04
  -2.804169e+05   9.183592e+04
  -3.654435e+05  -1.618930e+04
   1.286218e+05  -2.456570e+05
   6.526729e+05  -2.543495e+05
