
 $NMID
 id='ANONYMOUS ', fmtdat='(2E16.6)'
 volume=1.0
 tramp=1.0
 $END
  -6.119146e+07  -1.622279e+06
  -3.564214e+07  -3.942301e+07
   9.620512e+06  -4.140907e+07
   3.067673e+07  -1.458231e+07
   1.753219e+07   8.708278e+06
  -4.168236e+06   1.002541e+07
  -1.060904e+07  -2.029123e+06
  -2.373522e+06  -1.080067e+07
   7.294969e+06  -9.611991e+06
   1.053127e+07  -1.566979e+06
   7.261438e+06   6.890640e+06
   5.760960e+05   9.159315e+06
  -4.318168e+06   2.857545e+06
  -2.541884e+06  -5.735194e+06
   4.362416e+06  -6.694663e+06
   8.435137e+06   1.846455e+06
   4.360146e+06   1.117706e+07
  -4.538004e+06   1.256757e+07
  -1.109566e+07   6.069521e+06
  -1.164996e+07  -2.453248e+06
  -7.099379e+06  -8.264040e+06
  -6.317010e+05  -9.546580e+06
   3.469974e+06  -6.687526e+06
   2.477887e+06  -2.836043e+06
  -8.333323e+05  -2.042177e+06
  -2.159126e+05  -4.184454e+06
   5.624812e+06  -4.499730e+06
   1.013070e+07  -3.758116e+05
   7.417996e+06   4.506327e+06
   3.255256e+05   5.399658e+06
  -3.809756e+06   2.749280e+06
  -2.603612e+06   1.954022e+05
   4.102611e+05  -7.328885e+05
   2.084131e+06  -4.574177e+05
   2.173425e+06   1.316445e+06
   7.727694e+05   3.981956e+06
  -1.925020e+06   4.124790e+06
  -3.584577e+06  -8.327486e+03
  -1.935047e+06  -3.938760e+06
   8.415938e+05  -2.280234e+06
   3.837666e+05   2.391240e+06
  -2.648112e+06   2.273351e+06
  -2.474796e+06  -3.572892e+06
   2.981634e+06  -6.581048e+06
   7.755415e+06  -8.605450e+05
   5.395230e+06   7.740556e+06
  -2.402337e+06   9.243726e+06
  -8.113346e+06   2.390189e+06
  -7.210390e+06  -5.026930e+06
  -1.626512e+06  -6.482811e+06
   3.829118e+06  -2.656980e+06
   5.442573e+06   1.931987e+06
   2.315167e+06   3.853647e+06
  -2.757048e+06   2.233196e+06
  -4.829788e+06  -1.215235e+06
  -1.951534e+06  -3.038893e+06
   1.917088e+06  -1.408993e+06
   1.759425e+06   1.184266e+06
  -1.583682e+06   8.686315e+05
  -2.621506e+06  -2.170271e+06
   9.507138e+05  -3.862014e+06
   5.248609e+06  -1.893978e+06
   5.717288e+06   1.768984e+06
   2.323466e+06   4.433458e+06
  -2.053197e+06   5.551609e+06
  -5.358749e+06   4.981958e+06
  -6.578120e+06   1.722971e+06
  -4.828923e+06  -3.418881e+06
  -8.481215e+05  -6.547809e+06
   2.213300e+06  -4.953936e+06
   2.007369e+06  -1.098048e+06
   1.042917e+05   4.568269e+05
  -2.132389e+05  -9.419594e+05
   1.539982e+06  -1.896791e+06
   2.871993e+06  -3.245444e+05
   2.080805e+06   1.920534e+06
   5.106146e+04   2.141305e+06
  -1.504172e+06   1.654596e+05
  -1.611375e+06  -2.144174e+06
   6.971107e+04  -3.016193e+06
   2.908787e+06  -1.690153e+06
   4.695298e+06   1.312655e+06
   3.370868e+06   4.063464e+06
  -1.237384e+05   4.559529e+06
  -2.542078e+06   2.896030e+06
  -2.485328e+06   1.144342e+06
  -2.006167e+06   6.059771e+05
  -3.110585e+06   3.385708e+05
  -4.512159e+06  -9.979331e+05
  -3.515066e+06  -3.035838e+06
   3.884560e+04  -4.293792e+06
   3.464295e+06  -3.922273e+06
   4.371607e+06  -2.078867e+06
   2.744324e+06   4.675905e+05
   2.727448e+05   2.294580e+06
  -1.153046e+06   1.988020e+06
  -5.872314e+05  -3.409722e+04
   1.159338e+06  -1.327215e+06
   2.016681e+06  -3.492773e+05
   9.479936e+05   1.297530e+06
  -5.608580e+05   1.128813e+06
  -3.849041e+05  -4.429462e+05
   1.227092e+06  -6.216795e+05
   1.912264e+06   1.585322e+06
   4.000172e+05   3.793205e+06
  -2.011085e+06   3.437832e+06
  -3.415497e+06   8.429446e+05
  -3.300320e+06  -1.772339e+06
  -2.116455e+06  -2.956350e+06
  -3.135232e+05  -2.672068e+06
   1.324826e+06  -1.456063e+06
   1.626819e+06  -1.866337e+05
   5.089755e+05   6.801946e+04
  -3.391387e+05  -8.009444e+05
   5.049058e+05  -1.404172e+06
   2.051574e+06  -5.302005e+05
   2.104830e+06   1.047662e+06
   3.227573e+05   1.526802e+06
  -1.261373e+06   5.334204e+05
  -8.762900e+05  -5.255592e+05
   9.394856e+05  -4.574663e+05
   2.221461e+06   5.011021e+05
   1.672635e+06   1.502482e+06
  -3.965811e+05   1.989898e+06
  -2.471235e+06   1.573559e+06
  -2.889202e+06   1.480705e+05
  -1.218168e+06  -1.389628e+06
   1.032775e+06  -1.558605e+06
   1.669788e+06  -1.431417e+05
   1.859279e+05   1.153094e+06
  -1.620078e+06   7.110717e+05
  -1.755345e+06  -9.104105e+05
  -2.416024e+05  -1.746812e+06
   1.218784e+06  -9.355832e+05
   1.292224e+06   4.306487e+05
   1.878501e+05   8.482478e+05
  -8.592976e+05   1.930072e+04
  -7.362824e+05  -1.136111e+06
   6.489599e+05  -1.468381e+06
   2.110950e+06  -4.958543e+05
   2.084467e+06   1.172522e+06
   3.125304e+05   2.185623e+06
  -1.587086e+06   1.652125e+06
  -1.816167e+06   1.275510e+05
  -4.682530e+05  -9.397667e+05
   7.344942e+05  -7.987698e+05
   6.420447e+05  -4.884386e+04
  -1.644328e+05   3.361471e+05
  -4.966916e+05   1.514919e+05
  -6.043620e+04  -7.243387e+04
   5.037656e+05   1.489483e+05
   4.972051e+05   7.691026e+05
  -2.973219e+05   1.239398e+06
  -1.491383e+06   8.655518e+05
  -2.151548e+06  -5.270202e+05
  -1.445206e+06  -2.088910e+06
   3.300620e+05  -2.500655e+06
   1.740284e+06  -1.367441e+06
   1.723528e+06   2.331231e+05
   8.008534e+05   9.471948e+05
   2.758220e+05   6.230051e+05
   5.165280e+05   1.992866e+05
   6.851898e+05   3.615136e+05
   7.336447e+04   8.255762e+05
  -9.642254e+05   8.927841e+05
  -1.513463e+06   2.507907e+05
  -1.025770e+06  -7.912315e+05
   3.493148e+05  -1.471734e+06
   1.835566e+06  -1.013363e+06
   2.301984e+06   6.092557e+05
   1.066804e+06   2.243986e+06
  -1.187188e+06   2.424662e+06
  -2.719002e+06   9.407089e+05
  -2.403466e+06  -8.289487e+05
  -8.824753e+05  -1.443383e+06
   2.908718e+05  -9.333761e+05
   4.008864e+05  -4.672900e+05
   5.468265e+04  -7.763214e+05
   1.293279e+05  -1.385878e+06
   7.579844e+05  -1.339508e+06
   1.375842e+06  -2.881211e+05
   1.353578e+06   1.174388e+06
   5.037395e+05   1.989996e+06
  -7.016908e+05   1.467158e+06
  -1.333955e+06  -6.529110e+04
  -7.819761e+05  -1.388202e+06
   4.938137e+05  -1.441844e+06
   1.264363e+06  -3.426995e+05
   8.253448e+05   8.112672e+05
  -2.057816e+05   1.147653e+06
  -6.381289e+05   7.908421e+05
  -1.280355e+05   4.127125e+05
   4.436833e+05   3.546568e+05
   5.197124e+04   3.952273e+05
  -1.219580e+06   1.666910e+05
  -2.155069e+06  -4.375560e+05
  -1.640734e+06  -1.161700e+06
   1.253853e+05  -1.517156e+06
   1.733229e+06  -1.134527e+06
   1.931526e+06  -1.915671e+05
   8.406229e+05   5.901990e+05
  -3.080575e+05   6.013720e+05
  -5.461018e+05  -9.425722e+02
  -3.065156e+04  -4.606063e+05
   4.558762e+05  -2.558331e+05
   4.912659e+05   3.728212e+05
   2.643763e+05   7.478467e+05
   1.095597e+05   4.956377e+05
   1.454639e+05  -7.099057e+04
   2.814875e+05  -2.632007e+05
   2.719316e+05   2.560905e+05
  -1.710906e+05   1.006465e+06
  -9.773610e+05   1.079308e+06
  -1.457628e+06   1.555366e+05
  -8.879866e+05  -9.775398e+05
   4.718405e+05  -1.198671e+06
   1.338333e+06  -3.365737e+05
   7.440654e+05   6.123630e+05
  -7.649770e+05   6.395552e+05
  -1.632988e+06  -1.851690e+05
  -9.649308e+05  -9.520948e+05
   5.802323e+05  -9.825916e+05
   1.572311e+06  -3.855339e+05
   1.243954e+06   2.784549e+05
   9.897977e+04   5.331905e+05
  -6.921767e+05   2.364234e+05
  -4.008143e+05  -3.312777e+05
   6.087856e+05  -5.371299e+05
   1.227755e+06   9.947502e+04
   6.878634e+05   1.234012e+06
  -6.312933e+05   1.759242e+06
  -1.550650e+06   8.921524e+05
  -1.278027e+06  -8.160985e+05
  -1.505824e+05  -1.857297e+06
   8.170160e+05  -1.294499e+06
   9.481899e+05   2.437533e+05
   3.760755e+05   1.258749e+06
  -3.009045e+05   9.803663e+05
  -5.983226e+05   5.215424e+04
  -4.430733e+05  -4.051148e+05
  -1.348023e+05  -1.418283e+05
  -6.607239e+04   8.873701e+04
  -3.232831e+05  -3.336857e+05
  -5.098651e+05  -1.028825e+06
  -1.214893e+05  -1.121868e+06
   7.978386e+05  -3.797480e+05
   1.506649e+06   5.353042e+05
   1.262489e+06   9.169862e+05
   1.629830e+05   7.389828e+05
  -8.685073e+05   4.064062e+05
  -1.016482e+06   1.413985e+05
  -4.003600e+05  -8.485566e+04
   1.461762e+05  -2.316380e+05
   8.328643e+04  -1.948186e+05
  -2.298574e+05  -8.707880e+04
  -6.462351e+04  -1.364939e+05
   6.490547e+05  -2.381211e+05
   1.091975e+06   3.017123e+04
   4.915817e+05   7.356795e+05
  -8.672783e+05   1.222802e+06
  -1.815532e+06   7.703347e+05
  -1.506418e+06  -4.608159e+05
  -2.632784e+05  -1.460826e+06
   8.466314e+05  -1.423787e+06
   1.105418e+06  -5.606209e+05
   6.677027e+05   2.352091e+05
   1.485898e+05   3.762009e+05
  -3.559910e+04   9.131464e+04
   1.006410e+05   1.390152e+04
   2.824332e+05   4.052153e+05
   2.170265e+05   8.487043e+05
  -1.949578e+05   7.110001e+05
  -6.952679e+05  -1.132124e+05
  -7.702690e+05  -9.767672e+05
  -1.451817e+05  -1.078170e+06
   7.597401e+05  -2.818605e+05
   1.071973e+06   7.323756e+05
   3.665714e+05   1.142326e+06
  -7.485033e+05   7.211384e+05
  -1.183414e+06  -8.950223e+04
  -5.658885e+05  -6.789594e+05
   3.154521e+05  -7.400102e+05
   4.399132e+05  -3.854405e+05
  -2.153051e+05  -1.312754e+03
  -6.653156e+05   3.210427e+04
  -1.600308e+05  -3.310445e+05
   8.750358e+05  -6.807653e+05
   1.359604e+06  -5.023756e+05
   8.315476e+05   2.332011e+05
  -1.159041e+05   9.184240e+05
  -6.298098e+05   8.965771e+05
  -4.866712e+05   1.910247e+05
  -6.675648e+04  -4.811840e+05
   2.492468e+05  -4.702103e+05
   3.589096e+05   1.230358e+05
   2.579381e+05   6.042826e+05
  -5.199904e+04   4.777255e+05
  -4.067300e+05  -3.781226e+04
  -5.034637e+05  -3.282157e+05
  -2.516787e+05  -1.294369e+05
   5.336583e+04   1.861448e+05
   8.869272e+04   1.091746e+05
  -5.755852e+04  -3.406868e+05
  -1.508983e+04  -6.103012e+05
   3.084202e+05  -2.906466e+05
   5.188208e+05   3.548550e+05
   2.195115e+05   6.675806e+05
  -4.099218e+05   3.380172e+05
  -7.111797e+05  -2.758996e+05
  -2.729648e+05  -5.846443e+05
   5.466466e+05  -3.771792e+05
   9.398927e+05   7.614474e+04
   5.033153e+05   4.004679e+05
  -3.118435e+05   4.410498e+05
  -6.784386e+05   2.627946e+05
  -2.920997e+05   2.228353e+04
   3.159496e+05  -9.528948e+04
   4.035867e+05   2.937778e+04
  -1.451326e+05   2.714231e+05
  -7.185636e+05   2.681985e+05
