
 $NMID
 id='ANONYMOUS ', fmtdat='(2E16.6)'
 volume=1.0
 tramp=1.0
 $END
  -2.424202e+07   1.431551e+06
  -1.740404e+07  -9.848268e+06
  -1.555851e+06  -1.535681e+07
   9.837471e+06  -1.166700e+07
   9.333506e+06  -2.234766e+06
   1.186250e+06   4.531646e+06
  -5.100242e+06   3.008611e+06
  -4.495984e+06  -3.759410e+06
   5.771124e+05  -7.419435e+06
   4.590990e+06  -3.698297e+06
   4.322289e+06   3.073569e+06
   7.682708e+05   5.397501e+06
  -2.434125e+06   1.154281e+06
  -2.213383e+06  -4.570635e+06
   1.198606e+06  -5.557068e+06
   4.275184e+06  -9.014650e+05
   3.558111e+06   4.760976e+06
  -6.736322e+05   6.395736e+06
  -4.577161e+06   3.238623e+06
  -4.827225e+06  -1.246846e+06
  -2.032241e+06  -3.307323e+06
   2.841619e+05  -2.461574e+06
  -2.651085e+05  -1.271743e+06
  -2.394796e+06  -1.992115e+06
  -2.663445e+06  -3.984220e+06
   6.722303e+05  -4.668079e+06
   5.392207e+06  -2.607039e+06
   7.133710e+06   9.053542e+05
   3.868676e+06   3.225772e+06
  -1.548180e+06   2.805257e+06
  -3.992422e+06   2.960966e+05
  -1.459318e+06  -2.119199e+06
   2.858009e+06  -2.312469e+06
   4.338870e+06   1.286984e+05
   2.014862e+06   3.210530e+06
  -1.033170e+06   3.996635e+06
  -1.800884e+06   1.598250e+06
  -4.740080e+05  -1.461294e+06
   7.317828e+05  -1.768058e+06
   4.684558e+05   9.663558e+05
  -8.149082e+05   3.346439e+06
  -1.937378e+06   2.294949e+06
  -1.944827e+06  -1.158148e+06
  -5.018051e+05  -3.060872e+06
   1.558893e+06  -1.241669e+06
   2.241432e+06   2.237424e+06
   1.524601e+05   3.589392e+06
  -3.379195e+06   1.441661e+06
  -4.932227e+06  -2.082318e+06
  -2.523135e+06  -3.888485e+06
   1.931334e+06  -2.806200e+06
   4.409074e+06  -1.579031e+05
   2.935519e+06   1.799841e+06
  -5.804472e+05   1.776047e+06
  -2.618825e+06   2.776404e+05
  -1.648961e+06  -1.031117e+06
   6.891872e+05  -8.873074e+05
   1.646281e+06   4.125647e+05
   3.009561e+05   1.379685e+06
  -1.580280e+06   9.015541e+05
  -1.574558e+06  -5.972961e+05
   5.933948e+05  -1.563735e+06
   2.562691e+06  -8.077942e+05
   1.876000e+06   1.352978e+06
  -1.236920e+06   3.236953e+06
  -4.061474e+06   3.102012e+06
  -4.325039e+06   6.546808e+05
  -2.384259e+06  -2.514170e+06
  -3.346440e+05  -4.218458e+06
   4.744334e+05  -3.685874e+06
   5.005146e+05  -2.167043e+06
   8.784094e+05  -1.315032e+06
   1.915684e+06  -1.209021e+06
   2.857728e+06  -5.278071e+05
   2.731234e+06   1.319959e+06
   1.225429e+06   2.962891e+06
  -9.536988e+05   2.513342e+06
  -2.385733e+06  -4.514090e+04
  -1.906330e+06  -2.549071e+06
   2.859105e+05  -2.839316e+06
   2.518774e+06  -8.656924e+05
   3.023165e+06   1.533375e+06
   1.602485e+06   2.604207e+06
  -2.442003e+05   2.147254e+06
  -1.007030e+06   1.234758e+06
  -7.971957e+05   8.781025e+05
  -1.015928e+06   1.076508e+06
  -2.407098e+06   9.754789e+05
  -3.815133e+06  -1.805797e+05
  -3.273850e+06  -2.173302e+06
  -3.462650e+05  -3.776130e+06
   2.984845e+06  -3.679460e+06
   4.092935e+06  -1.680884e+06
   2.335205e+06   9.211314e+05
  -3.442049e+05   2.262733e+06
  -1.471646e+06   1.529603e+06
  -4.566670e+05  -2.406149e+05
   1.163680e+06  -1.137014e+06
   1.600421e+06  -3.433335e+05
   5.838836e+05   9.841911e+05
  -6.583006e+05   1.072957e+06
  -7.979745e+05  -2.775955e+05
   3.592732e+05  -1.290800e+06
   1.750580e+06  -2.661726e+05
   1.932726e+06   2.249693e+06
   2.893037e+05   3.825140e+06
  -2.280039e+06   2.719274e+06
  -3.883921e+06  -2.692113e+05
  -3.211502e+06  -2.693781e+06
  -8.136023e+05  -2.925797e+06
   1.311298e+06  -1.485768e+06
   1.614848e+06  -1.229492e+05
   4.700787e+05   3.027711e+04
  -3.798444e+05  -6.826374e+05
   1.925058e+05  -1.116663e+06
   1.474299e+06  -5.911151e+05
   1.803347e+06   4.875589e+05
   5.592943e+05   1.104069e+06
  -1.005858e+06   6.715555e+05
  -1.088150e+06  -3.625251e+05
   6.121211e+05  -9.078733e+05
   2.400491e+06  -2.569447e+05
   2.297433e+06   1.206307e+06
   1.423888e+05   2.276885e+06
  -2.190115e+06   1.973077e+06
  -2.688863e+06   4.594297e+05
  -1.168525e+06  -1.014727e+06
   7.107213e+05  -1.226906e+06
   1.201693e+06  -1.780416e+05
   8.501432e+04   8.695234e+05
  -1.351309e+06   6.980552e+05
  -1.679071e+06  -5.458682e+05
  -6.248068e+05  -1.521909e+06
   7.935529e+05  -1.214539e+06
   1.277347e+06  -5.495585e+04
   4.874395e+05   6.303028e+05
  -6.046280e+05   1.302250e+05
  -6.702828e+05  -9.270927e+05
   5.598635e+05  -1.320884e+06
   1.904414e+06  -4.924590e+05
   1.914911e+06   9.695721e+05
   4.327907e+05   1.909271e+06
  -1.210302e+06   1.603762e+06
  -1.588450e+06   3.602988e+05
  -6.112435e+05  -7.508583e+05
   5.381033e+05  -8.538853e+05
   7.402015e+05  -8.363728e+04
   2.180424e+04   5.991695e+05
  -6.615236e+05   4.797325e+05
  -5.305759e+05  -1.257292e+05
   2.165615e+05  -2.997654e+05
   6.419289e+05   3.295429e+05
   5.637912e+04   1.085718e+06
  -1.202468e+06   9.617377e+05
  -1.992816e+06  -2.753152e+05
  -1.450430e+06  -1.779013e+06
   1.246410e+05  -2.374901e+06
   1.526919e+06  -1.599710e+06
   1.814262e+06  -8.924566e+04
   1.144103e+06   1.004242e+06
   4.196364e+05   1.049075e+06
   2.372166e+05   4.629378e+05
   3.371551e+05   1.755296e+05
   7.556849e+04   5.473601e+05
  -7.149437e+05   9.451963e+05
  -1.428471e+06   5.153625e+05
  -1.237425e+06  -7.022043e+05
   5.032702e+04  -1.639614e+06
   1.635963e+06  -1.261054e+06
   2.269168e+06   3.319287e+05
   1.302373e+06   1.925528e+06
  -6.678286e+05   2.289352e+06
  -2.238728e+06   1.236493e+06
  -2.386640e+06  -3.137982e+05
  -1.288566e+06  -1.237732e+06
  -1.192887e+04  -1.189126e+06
   5.483030e+05  -7.571580e+05
   4.019953e+05  -6.939992e+05
   2.279641e+05  -1.038680e+06
   5.377054e+05  -1.094255e+06
   1.117593e+06  -2.959018e+05
   1.267053e+06   1.014759e+06
   5.685584e+05   1.815052e+06
  -5.819432e+05   1.401583e+06
  -1.258374e+06   8.733132e+04
  -8.871736e+05  -1.099540e+06
   1.559262e+05  -1.336505e+06
   9.044732e+05  -6.327393e+05
   7.789843e+05   3.294596e+05
   1.348864e+05   8.624443e+05
  -2.154364e+05   8.073983e+05
   4.345585e+04   5.130509e+05
   3.760166e+05   3.683780e+05
   3.667556e+04   3.910724e+05
  -1.000526e+06   2.765809e+05
  -1.858594e+06  -1.920712e+05
  -1.585740e+06  -8.462252e+05
  -1.800181e+05  -1.251534e+06
   1.289247e+06  -1.092135e+06
   1.678075e+06  -4.518961e+05
   8.802987e+05   2.218704e+05
  -1.419501e+05   4.502748e+05
  -4.301067e+05   1.416397e+05
   2.548935e+04  -2.687514e+05
   4.900151e+05  -2.212720e+05
   4.461540e+05   3.187748e+05
   9.908830e+04   7.345057e+05
  -4.908224e+04   4.685929e+05
   1.484770e+05  -2.097367e+05
   3.877685e+05  -4.315887e+05
   3.042864e+05   1.960980e+05
  -1.876352e+05   1.009852e+06
  -8.241079e+05   1.021945e+06
  -1.110521e+06   1.007983e+05
  -6.532520e+05  -8.601075e+05
   3.653926e+05  -9.541020e+05
   1.088332e+06  -2.026503e+05
   6.971375e+05   5.840536e+05
  -6.145944e+05   6.804836e+05
  -1.610252e+06   4.934846e+04
  -1.219396e+06  -7.598283e+05
   2.754217e+05  -1.109931e+06
   1.481128e+06  -7.434971e+05
   1.350609e+06   2.453935e+04
   2.315973e+05   5.338284e+05
  -6.017183e+05   3.605429e+05
  -3.283793e+05  -2.209508e+05
   6.278399e+05  -4.419959e+05
   1.131293e+06   1.682988e+05
   5.326369e+05   1.188890e+06
  -7.031967e+05   1.602467e+06
  -1.502587e+06   7.847579e+05
  -1.231993e+06  -7.702404e+05
  -2.167699e+05  -1.782549e+06
   6.972480e+05  -1.370616e+06
   9.423855e+05   4.896935e+04
   5.594771e+05   1.144792e+06
  -5.703549e+04   1.034838e+06
  -5.095802e+05   1.551668e+05
  -5.648923e+05  -3.831256e+05
  -2.721620e+05  -1.676148e+05
  -4.125513e+03   1.293908e+05
  -1.270911e+05  -2.051846e+05
  -4.658570e+05  -9.021834e+05
  -3.451387e+05  -1.080737e+06
   5.416567e+05  -4.322682e+05
   1.481490e+06   4.251212e+05
   1.401204e+06   7.925002e+05
   2.142088e+05   6.552040e+05
  -9.349229e+05   4.169137e+05
  -1.002946e+06   2.423208e+05
  -2.659550e+05   2.212117e+04
   1.795780e+05  -2.123167e+05
  -9.417813e+04  -2.673594e+05
  -3.940638e+05  -1.622467e+05
   3.640796e+02  -1.367772e+05
   7.858778e+05  -1.881556e+05
   1.005964e+06   3.604541e+04
   2.379665e+05   6.447475e+05
  -9.313328e+05   1.079720e+06
  -1.559373e+06   6.646898e+05
  -1.218786e+06  -4.760541e+05
  -2.329038e+05  -1.392048e+06
   6.968997e+05  -1.309147e+06
   1.014211e+06  -4.485759e+05
   6.601488e+05   2.925928e+05
   7.848445e+04   3.451628e+05
  -1.788396e+05  -1.298980e+04
   3.876935e+04  -1.058334e+05
   3.585884e+05   3.175150e+05
   3.023491e+05   7.864713e+05
  -1.935293e+05   6.368103e+05
  -6.894843e+05  -1.976847e+05
  -6.531878e+05  -1.004122e+06
   1.581174e+04  -9.891016e+05
   8.050795e+05  -1.279240e+05
   9.734712e+05   8.043678e+05
   2.684921e+05   1.051851e+06
  -7.083543e+05   5.759909e+05
  -1.030707e+06  -9.819364e+04
  -4.554415e+05  -5.091859e+05
   2.642961e+05  -5.536632e+05
   2.674884e+05  -3.374366e+05
  -3.492007e+05  -5.107380e+04
  -6.615103e+05   2.506938e+04
  -1.079442e+05  -2.774438e+05
   7.999344e+05  -6.837092e+05
   1.132072e+06  -6.204527e+05
   6.376500e+05   7.955795e+04
  -9.644698e+04   8.048190e+05
  -4.361863e+05   7.959446e+05
  -3.042364e+05   8.418927e+04
   2.624655e+03  -5.105305e+05
   2.498500e+05  -3.668749e+05
   3.486843e+05   2.376894e+05
   2.358297e+05   5.647535e+05
  -7.349814e+04   3.278420e+05
  -3.764547e+05  -8.375682e+04
  -4.324350e+05  -2.025414e+05
  -2.369418e+05  -3.192574e+04
  -1.334283e+04   6.927960e+04
   8.196029e+04  -1.156624e+05
   1.221756e+05  -4.046509e+05
   2.351123e+05  -4.267011e+05
   3.680657e+05  -3.653479e+04
   3.175981e+05   4.808162e+05
  -1.665833e+04   6.430466e+05
  -4.451057e+05   2.593750e+05
  -5.826967e+05  -3.331616e+05
  -1.991535e+05  -5.962372e+05
   4.637552e+05  -3.443110e+05
   8.020680e+05   1.130274e+05
   4.392652e+05   3.682437e+05
  -2.836956e+05   3.183191e+05
  -5.943432e+05   1.356061e+05
  -1.677270e+05   4.415775e+03
   4.422315e+05   1.212273e+04
   4.374131e+05   1.698266e+05
  -2.510063e+05   3.475930e+05
  -8.663224e+05   2.604886e+05
