
 $NMID
 id='ANONYMOUS ', fmtdat='(2E16.6)'
 volume=1.0
 tramp=1.0
 $END
   2.665098e+07  -2.027779e+05
   1.790608e+07   1.254004e+07
   1.232328e+04   1.697020e+07
  -1.153105e+07   1.120745e+07
  -9.687589e+06   1.058707e+06
  -5.887397e+05  -4.821511e+06
   5.419594e+06  -2.391327e+06
   4.081173e+06   4.290496e+06
  -1.255718e+06   7.349523e+06
  -5.006596e+06   3.297540e+06
  -4.361021e+06  -3.434541e+06
  -5.868707e+05  -5.602126e+06
   2.580744e+06  -1.193621e+06
   2.097246e+06   4.623483e+06
  -1.541138e+06   5.477800e+06
  -4.498371e+06   5.347211e+05
  -3.378020e+06  -5.249060e+06
   1.165337e+06  -6.691861e+06
   5.098757e+06  -3.223904e+06
   5.228705e+06   1.502092e+06
   2.257883e+06   3.739883e+06
  -3.524924e+05   2.973680e+06
  -1.283558e+05   1.621137e+06
   1.925240e+06   1.997577e+06
   2.426906e+06   3.785252e+06
  -6.708930e+05   4.546045e+06
  -5.387348e+06   2.603320e+06
  -7.237713e+06  -9.638236e+05
  -3.995622e+06  -3.387775e+06
   1.463370e+06  -2.952607e+06
   3.945571e+06  -4.090369e+05
   1.514470e+06   1.944528e+06
  -2.637211e+06   2.129324e+06
  -4.091176e+06  -1.296516e+05
  -1.957819e+06  -3.044662e+06
   9.478494e+05  -3.928867e+06
   1.842415e+06  -1.730096e+06
   6.996235e+05   1.374187e+06
  -5.749461e+05   1.927859e+06
  -5.164439e+05  -7.110511e+05
   7.557910e+05  -3.213396e+06
   1.999499e+06  -2.205950e+06
   1.895289e+06   1.367647e+06
   1.165426e+05   3.238739e+06
  -2.028756e+06   1.073925e+06
  -2.326754e+06  -2.709327e+06
   1.941619e+05  -3.929914e+06
   3.725080e+06  -1.360222e+06
   4.939712e+06   2.396197e+06
   2.299578e+06   4.053305e+06
  -2.093260e+06   2.681284e+06
  -4.382792e+06  -1.031215e+05
  -2.772010e+06  -1.971798e+06
   7.778881e+05  -1.737631e+06
   2.726726e+06  -7.729402e+04
   1.595063e+06   1.202581e+06
  -7.956335e+05   8.814320e+05
  -1.606579e+06  -4.969307e+05
  -1.309133e+05  -1.293981e+06
   1.605863e+06  -6.031042e+05
   1.293203e+06   8.332792e+05
  -9.772310e+05   1.484758e+06
  -2.739663e+06   5.018422e+05
  -1.808570e+06  -1.608223e+06
   1.369909e+06  -3.323555e+06
   4.171993e+06  -3.098460e+06
   4.448375e+06  -6.142441e+05
   2.471461e+06   2.616968e+06
   2.578250e+05   4.335825e+06
  -6.864212e+05   3.684123e+06
  -6.331438e+05   2.014567e+06
  -8.018306e+05   1.148630e+06
  -1.734605e+06   1.160954e+06
  -2.732881e+06   5.899386e+05
  -2.691289e+06  -1.221171e+06
  -1.229164e+06  -2.863041e+06
   8.999225e+05  -2.435200e+06
   2.276168e+06   5.997675e+04
   1.807220e+06   2.502634e+06
  -3.190608e+05   2.799169e+06
  -2.530850e+06   8.617586e+05
  -3.072660e+06  -1.567763e+06
  -1.641977e+06  -2.724421e+06
   3.038051e+05  -2.292489e+06
   1.153782e+06  -1.301160e+06
   9.335589e+05  -8.445941e+05
   1.087645e+06  -9.879405e+05
   2.427231e+06  -8.540554e+05
   3.785355e+06   3.210077e+05
   3.180992e+06   2.264726e+06
   2.329911e+05   3.748871e+06
  -3.039447e+06   3.569703e+06
  -4.077001e+06   1.601640e+06
  -2.313794e+06  -9.182349e+05
   3.325171e+05  -2.226405e+06
   1.454920e+06  -1.514513e+06
   4.568005e+05   2.305862e+05
  -1.166022e+06   1.109569e+06
  -1.610037e+06   3.019770e+05
  -5.787977e+05  -1.006516e+06
   6.594747e+05  -1.046807e+06
   7.439086e+05   2.945241e+05
  -4.347330e+05   1.196661e+06
  -1.710485e+06   8.296020e+04
  -1.715612e+06  -2.342984e+06
  -4.028555e+04  -3.698898e+06
   2.350843e+06  -2.466405e+06
   3.742257e+06   4.445127e+05
   3.014852e+06   2.709341e+06
   7.094955e+05   2.861139e+06
  -1.315611e+06   1.432108e+06
  -1.589602e+06   9.563416e+04
  -4.634543e+05  -4.186595e+04
   3.554606e+05   6.859321e+05
  -2.380229e+05   1.110761e+06
  -1.502446e+06   5.402115e+05
  -1.777061e+06  -5.598441e+05
  -5.042857e+05  -1.123848e+06
   1.018036e+06  -6.263147e+05
   1.042948e+06   3.859495e+05
  -6.370753e+05   8.406503e+05
  -2.337383e+06   1.515319e+05
  -2.180898e+06  -1.241272e+06
  -5.983940e+04  -2.208492e+06
   2.203172e+06  -1.861848e+06
   2.659761e+06  -3.743752e+05
   1.127094e+06   1.047687e+06
  -7.501744e+05   1.212644e+06
  -1.218944e+06   1.432601e+05
  -7.114479e+04  -8.787142e+05
   1.360787e+06  -6.575614e+05
   1.639288e+06   5.964383e+05
   5.523627e+05   1.517927e+06
  -8.307513e+05   1.150141e+06
  -1.249495e+06  -7.655655e+03
  -4.405038e+05  -6.406264e+05
   6.144113e+05  -1.044104e+05
   6.431967e+05   9.399806e+05
  -5.832167e+05   1.296883e+06
  -1.895177e+06   4.456789e+05
  -1.872607e+06  -1.005580e+06
  -3.764021e+05  -1.902428e+06
   1.247933e+06  -1.550735e+06
   1.580644e+06  -3.031088e+05
   5.724173e+05   7.611690e+05
  -5.586708e+05   8.213232e+05
  -7.201784e+05   6.698666e+04
   5.782403e+02  -5.657627e+05
   6.411556e+05  -4.356078e+05
   4.829379e+05   1.226608e+05
  -2.342629e+05   2.515935e+05
  -6.069337e+05  -3.675183e+05
  -5.736880e+03  -1.074139e+06
   1.219562e+06  -9.106349e+05
   1.960459e+06   3.289262e+05
   1.386533e+06   1.797586e+06
  -1.839908e+05   2.336419e+06
  -1.542116e+06   1.521431e+06
  -1.771442e+06   3.033463e+04
  -1.078920e+06  -9.979038e+05
  -3.874168e+05  -1.002660e+06
  -2.497511e+05  -4.423186e+05
  -3.522910e+05  -1.978624e+05
  -6.011668e+04  -5.604317e+05
   7.380351e+05  -9.073862e+05
   1.415065e+06  -4.579912e+05
   1.184444e+06   7.162780e+05
  -1.005432e+05   1.591822e+06
  -1.641698e+06   1.186015e+06
  -2.220628e+06  -3.898443e+05
  -1.220426e+06  -1.936186e+06
   7.403116e+05  -2.238789e+06
   2.254198e+06  -1.142997e+06
   2.331669e+06   3.925025e+05
   1.207876e+06   1.249428e+06
  -3.024598e+04   1.143694e+06
  -5.368706e+05   7.128270e+05
  -3.816977e+05   6.852060e+05
  -2.401970e+05   1.043955e+06
  -5.687039e+05   1.080439e+06
  -1.122745e+06   2.656668e+05
  -1.229804e+06  -1.033393e+06
  -5.172010e+05  -1.805337e+06
   6.075349e+05  -1.368816e+06
   1.240917e+06  -4.954086e+04
   8.385556e+05   1.116988e+06
  -2.055398e+05   1.312867e+06
  -9.237138e+05   5.769875e+05
  -7.556827e+05  -3.759837e+05
  -8.605352e+04  -8.667382e+05
   2.590987e+05  -7.816156e+05
  -2.123760e+04  -4.943491e+05
  -3.678633e+05  -3.684926e+05
  -2.994880e+04  -3.851930e+05
   1.002995e+06  -2.415224e+05
   1.841004e+06   2.461120e+05
   1.541243e+06   8.854848e+05
   1.261624e+05   1.248595e+06
  -1.321175e+06   1.045626e+06
  -1.672067e+06   3.889001e+05
  -8.520156e+05  -2.622218e+05
   1.627034e+05  -4.489335e+05
   4.319650e+05  -1.184362e+05
  -2.824795e+04   2.790926e+05
  -4.829907e+05   2.113774e+05
  -4.349238e+05  -3.260305e+05
  -9.641442e+04  -7.263132e+05
   4.488010e+04  -4.634728e+05
  -1.474912e+05   1.924591e+05
  -3.781321e+05   4.049931e+05
  -2.918583e+05  -2.023861e+05
   2.015154e+05  -9.880739e+05
   8.407761e+05  -9.905644e+05
   1.120042e+06  -7.791780e+04
   6.421653e+05   8.689673e+05
  -3.880581e+05   9.476063e+05
  -1.093630e+06   1.858393e+05
  -6.769578e+05  -5.891702e+05
   6.271266e+05  -6.515129e+05
   1.580445e+06  -1.655323e+02
   1.160779e+06   7.799805e+05
  -3.128545e+05   1.070574e+06
  -1.470110e+06   6.735418e+05
  -1.313834e+06  -6.731994e+04
  -2.072213e+05  -5.265324e+05
   6.027853e+05  -3.319590e+05
   3.224395e+05   2.326151e+05
  -6.244638e+05   4.300444e+05
  -1.116119e+06  -1.821372e+05
  -5.124561e+05  -1.182817e+06
   7.166069e+05  -1.573576e+06
   1.495019e+06  -7.504464e+05
   1.198340e+06   7.832067e+05
   1.737311e+05   1.759081e+06
  -7.181673e+05   1.325275e+06
  -9.221348e+05  -8.072439e+04
  -5.123273e+05  -1.140686e+06
   9.335600e+04  -1.007398e+06
   5.086973e+05  -1.336915e+05
   5.377808e+05   3.866445e+05
   2.537860e+05   1.657051e+05
   1.069860e+04  -1.229357e+05
   1.344863e+05   2.165300e+05
   4.423980e+05   9.048781e+05
   3.009190e+05   1.067593e+06
  -5.590232e+05   4.067763e+05
  -1.447167e+06  -4.536921e+05
  -1.348606e+06  -8.117611e+05
  -1.930811e+05  -6.530793e+05
   9.203270e+05  -3.921816e+05
   9.888714e+05  -2.113562e+05
   2.705206e+05  -6.625619e+03
  -1.779034e+05   2.071002e+05
   7.472850e+04   2.561363e+05
   3.721829e+05   1.584662e+05
   2.181976e+03   1.351814e+05
  -7.651347e+05   1.760117e+05
  -9.938190e+05  -5.471145e+04
  -2.402209e+05  -6.480270e+05
   9.313619e+05  -1.054933e+06
   1.564738e+06  -6.284979e+05
   1.210467e+06   4.927085e+05
   2.043823e+05   1.376850e+06
  -7.216690e+05   1.279371e+06
  -1.012745e+06   4.291682e+05
  -6.441537e+05  -2.951198e+05
  -7.571216e+04  -3.437459e+05
   1.656508e+05   5.953642e+03
  -4.318224e+04   9.302229e+04
  -3.390759e+05  -3.241544e+05
  -2.748221e+05  -7.814536e+05
   2.029312e+05  -6.274284e+05
   6.749378e+05   2.003499e+05
   6.322636e+05   9.974550e+05
  -2.250167e+04   9.800061e+05
  -7.914206e+05   1.233348e+05
  -9.495973e+05  -8.034999e+05
  -2.505750e+05  -1.046109e+06
   7.112625e+05  -5.631973e+05
   1.022194e+06   1.168817e+05
   4.440245e+05   5.231058e+05
  -2.762890e+05   5.525398e+05
  -2.829655e+05   3.277226e+05
   3.321741e+05   5.086237e+04
   6.503596e+05  -1.289732e+04
   1.041784e+05   2.792917e+05
  -8.038442e+05   6.552506e+05
  -1.139058e+06   5.759363e+05
  -6.375714e+05  -1.045317e+05
   1.126474e+05  -7.969953e+05
   4.594312e+05  -7.785935e+05
   3.159469e+05  -8.284129e+04
  -6.196238e+03   4.998846e+05
  -2.534684e+05   3.636555e+05
  -3.403444e+05  -2.310253e+05
  -2.222930e+05  -5.622378e+05
   7.861599e+04  -3.324982e+05
   3.710626e+05   8.603235e+04
   4.246321e+05   2.176176e+05
   2.318484e+05   4.351536e+04
   1.080326e+04  -7.779813e+04
  -8.002456e+04   9.445060e+04
  -1.125555e+05   3.925505e+05
  -2.217826e+05   4.323606e+05
  -3.609228e+05   4.968031e+04
  -3.203558e+05  -4.709243e+05
   1.018363e+04  -6.362358e+05
   4.401612e+05  -2.530554e+05
   5.767604e+05   3.351907e+05
   1.904346e+05   5.892096e+05
  -4.686030e+05   3.309101e+05
  -7.966592e+05  -1.248235e+05
  -4.290280e+05  -3.730659e+05
   2.883129e+05  -3.164623e+05
   5.943577e+05  -1.309020e+05
   1.746873e+05  -9.121930e+02
  -4.256308e+05  -9.970482e+03
  -4.256358e+05  -1.634235e+05
   2.435774e+05  -3.321746e+05
   8.440051e+05  -2.423952e+05
