
 $NMID
 id='ANONYMOUS ', fmtdat='(2E16.6)'
 volume=1.0
 tramp=1.0
 $END
  -2.448340e+07   1.426767e+06
  -1.769831e+07  -9.678695e+06
  -1.805105e+06  -1.544834e+07
   9.852685e+06  -1.210392e+07
   9.595835e+06  -2.559688e+06
   1.377425e+06   4.651207e+06
  -5.213089e+06   3.297778e+06
  -4.774521e+06  -3.767030e+06
   4.350437e+05  -7.735309e+06
   4.678693e+06  -3.928813e+06
   4.474344e+06   3.155768e+06
   8.040359e+05   5.604018e+06
  -2.532353e+06   1.189166e+06
  -2.332415e+06  -4.762110e+06
   1.178548e+06  -5.794010e+06
   4.375711e+06  -9.920847e+05
   3.674408e+06   4.853006e+06
  -6.711949e+05   6.542264e+06
  -4.683455e+06   3.278078e+06
  -4.897062e+06  -1.336149e+06
  -1.978071e+06  -3.384832e+06
   3.556136e+05  -2.418982e+06
  -3.397221e+05  -1.199589e+06
  -2.604679e+06  -2.066886e+06
  -2.817059e+06  -4.222575e+06
   7.356316e+05  -4.897639e+06
   5.647576e+06  -2.675619e+06
   7.409139e+06   9.896228e+05
   3.982952e+06   3.361792e+06
  -1.654820e+06   2.897910e+06
  -4.189911e+06   2.731126e+05
  -1.513168e+06  -2.268828e+06
   3.049689e+06  -2.466009e+06
   4.607456e+06   1.548310e+05
   2.106558e+06   3.438051e+06
  -1.149008e+06   4.217588e+06
  -1.916940e+06   1.616413e+06
  -4.399366e+05  -1.586424e+06
   8.334065e+05  -1.814746e+06
   4.872535e+05   1.093668e+06
  -8.885008e+05   3.532233e+06
  -2.022799e+06   2.394895e+06
  -2.026508e+06  -1.164721e+06
  -6.066366e+05  -3.114099e+06
   1.476871e+06  -1.294675e+06
   2.253138e+06   2.210107e+06
   2.067150e+05   3.602291e+06
  -3.421613e+06   1.464673e+06
  -5.094253e+06  -2.120392e+06
  -2.650030e+06  -4.013529e+06
   1.982761e+06  -2.944920e+06
   4.597079e+06  -2.099350e+05
   3.096527e+06   1.854676e+06
  -5.526953e+05   1.869348e+06
  -2.698711e+06   3.305583e+05
  -1.734319e+06  -1.043918e+06
   6.876350e+05  -9.278617e+05
   1.731046e+06   4.154372e+05
   3.709338e+05   1.466845e+06
  -1.632058e+06   1.025429e+06
  -1.720279e+06  -5.415886e+05
   5.033461e+05  -1.619340e+06
   2.606150e+06  -8.930724e+05
   1.941948e+06   1.351262e+06
  -1.304364e+06   3.326011e+06
  -4.252531e+06   3.179764e+06
  -4.486675e+06   6.319018e+05
  -2.427195e+06  -2.633581e+06
  -3.174643e+05  -4.375973e+06
   4.749735e+05  -3.837363e+06
   5.061373e+05  -2.296476e+06
   9.539414e+05  -1.413165e+06
   2.064471e+06  -1.260827e+06
   3.022168e+06  -5.099524e+05
   2.853229e+06   1.426733e+06
   1.264004e+06   3.132390e+06
  -1.020913e+06   2.649161e+06
  -2.523133e+06  -4.544373e+04
  -2.008793e+06  -2.681129e+06
   3.062416e+05  -2.976284e+06
   2.636037e+06  -8.853009e+05
   3.127754e+06   1.627011e+06
   1.624342e+06   2.710413e+06
  -2.777027e+05   2.195178e+06
  -1.033782e+06   1.242744e+06
  -8.028303e+05   8.998252e+05
  -1.042828e+06   1.129018e+06
  -2.502251e+06   1.025686e+06
  -3.972396e+06  -1.859568e+05
  -3.412783e+06  -2.268845e+06
  -3.602360e+05  -3.942152e+06
   3.126260e+06  -3.835829e+06
   4.289980e+06  -1.739291e+06
   2.440899e+06   9.805606e+05
  -3.778171e+05   2.372263e+06
  -1.556547e+06   1.597295e+06
  -4.819013e+05  -2.516961e+05
   1.217010e+06  -1.187894e+06
   1.668940e+06  -3.643854e+05
   6.073391e+05   1.024733e+06
  -6.890727e+05   1.132676e+06
  -8.484560e+05  -2.764156e+05
   3.459432e+05  -1.365835e+06
   1.817124e+06  -3.273351e+05
   2.051672e+06   2.315732e+06
   3.543783e+05   4.013563e+06
  -2.361402e+06   2.886915e+06
  -4.081330e+06  -2.579842e+05
  -3.386862e+06  -2.826521e+06
  -8.573633e+05  -3.074159e+06
   1.381329e+06  -1.553485e+06
   1.697088e+06  -1.227967e+05
   4.939655e+05   3.327140e+04
  -3.989485e+05  -7.101182e+05
   1.921455e+05  -1.160356e+06
   1.528244e+06  -6.203293e+05
   1.883124e+06   4.944914e+05
   5.984423e+05   1.144385e+06
  -1.039433e+06   7.104250e+05
  -1.143162e+06  -3.667558e+05
   6.267561e+05  -9.523568e+05
   2.509521e+06  -2.820417e+05
   2.415592e+06   1.256815e+06
   1.594663e+05   2.388655e+06
  -2.290039e+06   2.071138e+06
  -2.815067e+06   4.832863e+05
  -1.224327e+06  -1.057648e+06
   7.382379e+05  -1.278605e+06
   1.250351e+06  -1.875947e+05
   8.893757e+04   9.035671e+05
  -1.407676e+06   7.303466e+05
  -1.756903e+06  -5.632328e+05
  -6.654708e+05  -1.589534e+06
   8.186130e+05  -1.281878e+06
   1.338262e+06  -7.431687e+04
   5.240710e+05   6.506114e+05
  -6.171892e+05   1.390118e+05
  -6.922043e+05  -9.603395e+05
   5.866629e+05  -1.370447e+06
   1.986446e+06  -5.065178e+05
   1.995983e+06   1.015909e+06
   4.511450e+05   1.993766e+06
  -1.262821e+06   1.677031e+06
  -1.662998e+06   3.818458e+05
  -6.490520e+05  -7.826148e+05
   5.552546e+05  -8.984070e+05
   7.787263e+05  -9.428309e+04
   3.311197e+04   6.278806e+05
  -6.901759e+05   5.091006e+05
  -5.643958e+05  -1.278194e+05
   2.162379e+05  -3.173327e+05
   6.676532e+05   3.377136e+05
   5.960807e+04   1.129158e+06
  -1.255328e+06   1.000520e+06
  -2.079181e+06  -2.909513e+05
  -1.510473e+06  -1.860785e+06
   1.340554e+05  -2.485580e+06
   1.599270e+06  -1.679560e+06
   1.905247e+06  -9.729839e+04
   1.209298e+06   1.059538e+06
   4.450313e+05   1.117046e+06
   2.400250e+05   4.992112e+05
   3.376970e+05   1.848516e+05
   6.941417e+04   5.665681e+05
  -7.500667e+05   9.841150e+05
  -1.494730e+06   5.348988e+05
  -1.295188e+06  -7.411138e+05
   5.346981e+04  -1.719269e+06
   1.712265e+06  -1.316476e+06
   2.372106e+06   3.504101e+05
   1.361981e+06   2.009775e+06
  -6.921527e+05   2.387137e+06
  -2.333055e+06   1.293796e+06
  -2.497146e+06  -3.201915e+05
  -1.359435e+06  -1.291659e+06
  -2.117946e+04  -1.252164e+06
   5.795225e+05  -8.027055e+05
   4.360149e+05  -7.279325e+05
   2.495470e+05  -1.079987e+06
   5.635865e+05  -1.136888e+06
   1.165159e+06  -3.043637e+05
   1.321308e+06   1.064322e+06
   5.910281e+05   1.899149e+06
  -6.109992e+05   1.465240e+06
  -1.315296e+06   9.285065e+04
  -9.268064e+05  -1.144658e+06
   1.579772e+05  -1.393840e+06
   9.348911e+05  -6.659066e+05
   8.075830e+05   3.329754e+05
   1.458308e+05   8.908902e+05
  -2.137241e+05   8.405966e+05
   5.171907e+04   5.402354e+05
   3.902833e+05   3.913954e+05
   3.444452e+04   4.113302e+05
  -1.042682e+06   2.850605e+05
  -1.934766e+06  -2.067957e+05
  -1.653437e+06  -8.837026e+05
  -1.916631e+05  -1.298524e+06
   1.341183e+06  -1.132875e+06
   1.750248e+06  -4.747465e+05
   9.193814e+05   2.215556e+05
  -1.476850e+05   4.640943e+05
  -4.459447e+05   1.495065e+05
   3.468498e+04  -2.776954e+05
   5.198427e+05  -2.300143e+05
   4.656295e+05   3.369262e+05
   9.426958e+04   7.755537e+05
  -5.941995e+04   4.941525e+05
   1.555981e+05  -2.235690e+05
   4.089684e+05  -4.571963e+05
   3.150842e+05   2.056204e+05
  -2.048777e+05   1.058082e+06
  -8.645735e+05   1.061519e+06
  -1.152346e+06   9.140926e+04
  -6.703008e+05  -9.053152e+05
   3.882048e+05  -9.886373e+05
   1.137155e+06  -1.983016e+05
   7.276082e+05   6.167780e+05
  -6.429271e+05   7.113124e+05
  -1.687424e+06   5.257917e+04
  -1.283024e+06  -7.927334e+05
   2.818843e+05  -1.164066e+06
   1.549524e+06  -7.855304e+05
   1.417284e+06   2.049987e+04
   2.459278e+05   5.591412e+05
  -6.270396e+05   3.796947e+05
  -3.391808e+05  -2.292801e+05
   6.624490e+05  -4.578098e+05
   1.184117e+06   1.850042e+05
   5.481033e+05   1.251327e+06
  -7.504121e+05   1.676068e+06
  -1.582265e+06   8.137230e+05
  -1.289110e+06  -8.137196e+05
  -2.213752e+05  -1.870090e+06
   7.325256e+05  -1.437529e+06
   9.855696e+05   4.839603e+04
   5.872803e+05   1.196540e+06
  -5.349846e+04   1.083066e+06
  -5.294756e+05   1.626397e+05
  -5.952743e+05  -4.009844e+05
  -2.907811e+05  -1.746857e+05
  -1.615985e+03   1.367575e+05
  -1.226734e+05  -2.145148e+05
  -4.821142e+05  -9.451982e+05
  -3.667319e+05  -1.130775e+06
   5.597530e+05  -4.493166e+05
   1.551866e+06   4.486953e+05
   1.471676e+06   8.309725e+05
   2.221113e+05   6.851169e+05
  -9.866461e+05   4.357046e+05
  -1.052097e+06   2.538347e+05
  -2.722407e+05   2.330343e+04
   1.910581e+05  -2.228788e+05
  -1.056450e+05  -2.811984e+05
  -4.200582e+05  -1.715464e+05
   4.000259e+03  -1.440511e+05
   8.321061e+05  -1.946246e+05
   1.052777e+06   4.364743e+04
   2.358714e+05   6.794605e+05
  -9.876835e+05   1.126454e+06
  -1.633114e+06   6.830657e+05
  -1.267804e+06  -5.115469e+05
  -2.361809e+05  -1.461377e+06
   7.342061e+05  -1.364409e+06
   1.065416e+06  -4.602234e+05
   6.921656e+05   3.122350e+05
   7.741432e+04   3.622772e+05
  -1.950461e+05  -1.588950e+04
   3.645590e+04  -1.141911e+05
   3.762176e+05   3.298786e+05
   3.166174e+05   8.224805e+05
  -2.063606e+05   6.649710e+05
  -7.242888e+05  -2.130941e+05
  -6.785013e+05  -1.060027e+06
   2.792232e+04  -1.038788e+06
   8.510353e+05  -1.265667e+05
   1.017359e+06   8.535926e+05
   2.722047e+05   1.104717e+06
  -7.479823e+05   5.956953e+05
  -1.076368e+06  -1.109296e+05
  -4.682275e+05  -5.320828e+05
   2.815368e+05  -5.716307e+05
   2.759231e+05  -3.477945e+05
  -3.733645e+05  -5.465770e+04
  -6.949840e+05   2.285845e+04
  -1.089808e+05  -2.910597e+05
   8.401607e+05  -7.137500e+05
   1.180649e+06  -6.473985e+05
   6.592134e+05   8.412891e+04
  -1.059393e+05   8.405714e+05
  -4.561175e+05   8.267393e+05
  -3.151960e+05   7.921734e+04
   7.044904e+03  -5.390324e+05
   2.663013e+05  -3.803105e+05
   3.673095e+05   2.559638e+05
   2.437283e+05   5.932350e+05
  -8.243721e+04   3.387816e+05
  -3.949620e+05  -9.176607e+04
  -4.483604e+05  -2.110215e+05
  -2.463809e+05  -3.115086e+04
  -1.919953e+04   6.940099e+04
   8.180953e+04  -1.297279e+05
   1.355322e+05  -4.306946e+05
   2.620144e+05  -4.454240e+05
   3.943844e+05  -2.842695e+04
   3.266427e+05   5.153976e+05
  -2.976268e+04   6.794157e+05
  -4.717075e+05   2.682588e+05
  -6.068846e+05  -3.573368e+05
  -2.039627e+05  -6.290618e+05
   4.860868e+05  -3.566973e+05
   8.374599e+05   1.262204e+05
   4.568910e+05   3.886061e+05
  -3.005711e+05   3.281114e+05
  -6.243699e+05   1.337703e+05
  -1.721689e+05   7.665560e+02
   4.713850e+05   1.570386e+04
   4.632128e+05   1.845831e+05
  -2.673305e+05   3.693385e+05
  -9.169855e+05   2.731234e+05
