
 $NMID
 id='ANONYMOUS ', fmtdat='(2E16.6)'
 volume=1.0
 tramp=1.0
 $END
   5.168116e+06  -4.157351e+04
   2.690690e+06   4.239165e+06
  -1.716722e+06   3.896309e+06
  -3.207501e+06   2.462036e+05
  -1.166082e+06  -2.078474e+06
   1.063788e+06  -1.211008e+06
   1.104204e+06   6.776628e+05
  -2.063303e+05   1.229182e+06
  -1.077076e+06   4.954750e+05
  -1.023110e+06  -3.414031e+05
  -4.811616e+05  -7.532926e+05
   1.710141e+05  -7.357623e+05
   5.444500e+05  -2.975074e+05
   2.623350e+05   2.130736e+05
  -3.810856e+05   1.701928e+05
  -5.429677e+05  -4.299081e+05
   2.892495e+04  -8.324390e+05
   6.768920e+05  -5.980924e+05
   8.759471e+05  -9.706733e+04
   8.054621e+05   3.032953e+05
   6.267081e+05   7.146045e+05
   8.379520e+04   1.060503e+06
  -7.254599e+05   8.168000e+05
  -1.022635e+06  -4.596534e+04
  -4.281696e+05  -6.321383e+05
   2.922714e+05  -2.950778e+05
   2.421869e+05   3.710351e+05
  -3.673618e+05   4.024246e+05
  -6.747337e+05  -1.860994e+05
  -4.149620e+05  -6.474707e+05
   6.349174e+03  -6.658294e+05
   3.253537e+05  -4.952067e+05
   5.515487e+05  -2.518813e+05
   5.369551e+05   1.174844e+05
   1.733501e+05   3.424990e+05
  -1.297493e+05   1.063888e+05
   9.652469e+04  -2.580887e+05
   5.399680e+05  -1.215094e+05
   4.800030e+05   4.089002e+05
  -4.482449e+04   5.968735e+05
  -2.715798e+05   2.802494e+05
   1.993181e+03   1.217991e+05
   6.153091e+04   4.282318e+05
  -4.840386e+05   5.646693e+05
  -9.480673e+05   7.835276e+03
  -5.970873e+05  -7.208954e+05
   2.091024e+05  -7.879615e+05
   5.601915e+05  -2.258266e+05
   2.466237e+05   2.445533e+05
  -1.740247e+05   2.370281e+05
  -2.709639e+05  -4.082197e+04
  -8.851414e+04  -3.066815e+05
   2.096508e+05  -4.150191e+05
   4.704274e+05  -2.220756e+05
   4.423650e+05   2.215932e+05
   6.329917e+04   4.724041e+05
  -2.373355e+05   2.104295e+05
  -4.101740e+04  -1.640043e+05
   3.436814e+05  -1.661604e+04
   2.394750e+05   5.136287e+05
  -3.524104e+05   6.383908e+05
  -6.977919e+05   1.002791e+05
  -4.201942e+05  -4.452631e+05
   2.803444e+03  -4.354352e+05
   7.618745e+04  -1.453778e+05
  -1.805631e+03  -6.881368e+04
   1.275520e+05  -1.198381e+05
   2.667912e+05   3.130096e+04
   4.003602e+04   2.334959e+05
  -3.452571e+05   7.703242e+04
  -3.258042e+05  -3.494904e+05
   1.518248e+05  -5.033733e+05
   5.367132e+05  -1.680321e+05
   4.463770e+05   2.811467e+05
   8.225544e+04   4.358461e+05
  -1.828133e+05   2.921204e+05
  -2.392171e+05   6.065565e+04
  -1.591947e+05  -1.153878e+05
  -1.481419e+04  -1.491760e+05
   8.000104e+04  -8.227434e+03
   1.422772e+03   1.545285e+05
  -1.745320e+05   1.028752e+05
  -1.992337e+05  -1.435388e+05
   2.691816e+03  -2.865846e+05
   2.078495e+05  -1.596865e+05
   2.114877e+05   5.827373e+04
   7.489919e+04   1.418729e+05
  -4.454940e+04   1.055625e+05
  -1.069065e+05   5.874283e+04
  -1.125140e+05  -3.719503e+03
  -1.590123e+04  -9.272577e+04
   1.318657e+05  -9.870907e+04
   1.434345e+05   2.762810e+04
  -3.005067e+04   1.244205e+05
  -1.594873e+05   5.125573e+04
  -6.409956e+04  -6.618237e+04
   9.362610e+04  -3.887889e+04
   6.661416e+04   6.633513e+04
  -7.921323e+04   5.456918e+04
  -1.028726e+05  -5.289220e+04
  -7.018666e+03  -7.837901e+04
   5.707385e+03  -2.954316e+04
  -5.689412e+04  -7.533978e+04
   3.141145e+04  -1.836292e+05
   2.704202e+05  -1.075121e+05
   3.336336e+05   1.855608e+05
   5.603908e+04   3.738106e+05
  -2.723623e+05   2.254222e+05
  -3.027164e+05  -6.406315e+04
  -9.163573e+04  -1.711519e+05
   5.750199e+04  -8.216767e+04
   4.423020e+04  -9.866847e+03
   7.841386e+03  -2.363411e+04
   2.161801e+04  -1.592379e+04
   1.273508e+04   3.925273e+04
  -4.161402e+04   4.186672e+04
  -6.384558e+04  -3.037738e+04
  -3.304582e+04  -8.071938e+04
  -1.050517e+04  -7.189867e+04
   5.442081e+03  -6.992381e+04
   8.058287e+04  -8.546062e+04
   1.793739e+05  -3.828101e+04
   1.681889e+05   7.713948e+04
   3.024736e+04   1.439072e+05
  -7.965635e+04   1.018017e+05
  -6.063850e+04   4.006848e+04
  -3.192307e+03   4.122627e+04
  -2.005071e+04   5.499620e+04
  -7.125882e+04   1.228959e+04
  -6.315501e+04  -4.322574e+04
  -1.509778e+04  -3.737653e+04
  -6.873762e+03   4.045664e+03
  -3.446135e+04   9.289676e+03
  -3.747204e+04  -1.825743e+04
  -1.842889e+04  -3.147511e+04
  -2.052073e+04  -3.903588e+04
  -2.347991e+04  -7.306607e+04
   2.571988e+04  -9.816507e+04
   9.884498e+04  -5.576452e+04
   1.108404e+05   2.544155e+04
   5.272937e+04   6.172872e+04
   2.356570e+03   4.183489e+04
   1.190029e+03   2.824141e+04
   1.246042e+04   4.213484e+04
   7.409704e+03   4.450107e+04
   1.043998e+03   2.974750e+04
  -1.065803e+04   3.610686e+04
  -5.539802e+04   5.130631e+04
  -1.030706e+05   1.255143e+04
  -7.434605e+04  -7.023504e+04
   2.959985e+04  -9.354051e+04
   9.421488e+04  -1.218866e+04
   4.249082e+04   7.780826e+04
  -5.742771e+04   7.094515e+04
  -9.573187e+04  -9.141464e+03
  -6.205059e+04  -7.100194e+04
  -1.425617e+04  -8.632035e+04
   2.833189e+04  -8.033722e+04
   7.505148e+04  -5.055742e+04
   9.624091e+04   1.185693e+04
   6.069565e+04   5.917276e+04
   1.215235e+04   4.281380e+04
   1.377681e+04   8.632208e+03
   3.355275e+04   3.742322e+04
  -1.422088e+04   1.005965e+05
  -1.132997e+05   8.237884e+04
  -1.385281e+05  -3.921844e+04
  -3.385244e+04  -1.379037e+05
   9.713173e+04  -1.069790e+05
   1.277521e+05   4.870632e+03
   5.946705e+04   8.014251e+04
  -2.005497e+04   8.247481e+04
  -6.394827e+04   5.390661e+04
  -8.060093e+04   1.962336e+04
  -6.899547e+04  -2.477090e+04
  -2.083539e+04  -6.058698e+04
   3.143152e+04  -5.712762e+04
   4.006726e+04  -2.807202e+04
   1.322658e+04  -1.585354e+04
   3.880889e+03  -2.198677e+04
   2.724475e+04  -7.438489e+03
   4.155275e+04   3.527441e+04
   1.727528e+04   6.230906e+04
  -2.194773e+04   4.214705e+04
  -3.980639e+04  -3.569716e+03
  -2.995118e+04  -3.650869e+04
  -5.743687e+03  -4.345477e+04
   1.903126e+04  -2.913027e+04
   2.834587e+04  -8.864742e+02
   1.441060e+04   2.428418e+04
  -9.690044e+02   2.661069e+04
   1.129810e+04   1.251707e+04
   3.515692e+04   1.087224e+04
   1.893972e+04   2.769065e+04
  -4.538712e+04   3.257526e+04
  -9.352865e+04   5.506587e+03
  -6.880531e+04  -3.114585e+04
   2.484199e+03  -4.607873e+04
   5.013563e+04  -3.800925e+04
   4.751024e+04  -2.117920e+04
   2.171616e+04   3.665759e+02
  -1.504005e+03   1.940867e+04
  -1.774180e+04   1.443548e+04
  -1.946775e+04  -1.610642e+04
   1.880377e+03  -3.278323e+04
   2.782864e+04  -6.670730e+03
   2.746840e+04   2.784985e+04
   6.580019e+03   1.753564e+04
   4.500308e+03  -2.400071e+04
   3.094514e+04  -2.823359e+04
   4.302487e+04   2.669289e+04
   5.846743e+03   7.869994e+04
  -5.318181e+04   6.555642e+04
  -7.619395e+04   3.231217e+03
  -4.282566e+04  -4.625379e+04
   1.508231e+04  -5.130242e+04
   5.163509e+04  -2.457879e+04
   4.093902e+04   1.166413e+04
  -1.044782e+04   3.769539e+04
  -6.234974e+04   3.135573e+04
  -6.518062e+04  -1.076637e+04
  -1.056887e+04  -5.263861e+04
   4.921412e+04  -5.167511e+04
   5.576037e+04  -1.264628e+04
   1.340065e+04   1.749873e+04
  -1.977127e+04   9.751921e+03
  -6.160763e+03  -1.594238e+04
   3.223713e+04  -2.233002e+04
   5.098755e+04   4.167227e+03
   3.304441e+04   4.700943e+04
  -7.089708e+03   7.371428e+04
  -4.527727e+04   5.488363e+04
  -5.934029e+04  -7.331543e+03
  -3.717712e+04  -6.485761e+04
   7.804567e+03  -6.317561e+04
   3.881816e+04  -5.793929e+03
   3.003190e+04   4.408266e+04
  -4.683788e+03   3.947014e+04
  -2.847101e+04   2.945648e+03
  -2.303669e+04  -1.481202e+04
  -3.707164e+03  -5.313985e+03
   3.579867e+03  -6.516080e+02
  -8.954639e+03  -1.630194e+04
  -2.400941e+04  -3.189831e+04
  -1.608943e+04  -2.883869e+04
   2.083090e+04  -1.481816e+04
   5.920335e+04  -2.296961e+03
   6.041290e+04   1.126602e+04
   1.880519e+04   2.799757e+04
  -2.666408e+04   3.478836e+04
  -3.621336e+04   2.136284e+04
  -1.535461e+04   4.024193e+02
  -1.229669e+03  -7.721627e+03
  -9.601354e+03  -3.206679e+03
  -1.736092e+04  -3.750108e+03
  -4.480369e+02  -1.568949e+04
   3.088577e+04  -2.249705e+04
   4.477473e+04  -5.539986e+03
   2.361482e+04   3.076964e+04
  -2.115882e+04   5.782805e+04
  -6.033899e+04   4.666362e+04
  -6.613138e+04  -3.038302e+03
  -3.144984e+04  -5.557780e+04
   1.941664e+04  -6.832300e+04
   4.717273e+04  -3.464262e+04
   3.508793e+04   8.250097e+03
   5.572798e+03   2.154940e+04
  -7.931987e+03   7.609009e+03
   1.641110e+03  -6.125706e+02
   1.433682e+04   1.350025e+04
   1.150147e+04   3.074101e+04
  -7.333376e+03   2.501303e+04
  -2.930712e+04  -3.746652e+03
  -3.639915e+04  -3.242936e+04
  -1.477798e+04  -3.962475e+04
   2.689434e+04  -2.036007e+04
   5.184135e+04   1.409591e+04
   2.912360e+04   4.123835e+04
  -2.330896e+04   3.941136e+04
  -5.076131e+04   7.672377e+03
  -2.674306e+04  -2.739229e+04
   1.345480e+04  -3.488979e+04
   1.956124e+04  -1.192702e+04
  -9.309703e+03   1.337411e+04
  -2.915914e+04   1.277160e+04
  -1.189809e+04  -1.278877e+04
   2.318967e+04  -3.589793e+04
   4.067539e+04  -3.087962e+04
   2.996168e+04   1.509216e+03
   6.177839e+03   3.418828e+04
  -1.342038e+04   3.828985e+04
  -2.050327e+04   1.117661e+04
  -1.267191e+04  -1.970383e+04
   5.607755e+03  -2.443386e+04
   2.053316e+04  -1.956336e+03
   1.848963e+04   2.067145e+04
   7.994678e+02   2.048045e+04
  -1.640296e+04   3.381909e+03
  -1.900925e+04  -7.107481e+03
  -8.880912e+03  -4.555016e+02
   1.664395e+01   9.385103e+03
  -2.037321e+03   3.528300e+03
  -8.950397e+03  -1.686183e+04
  -5.258936e+03  -3.010211e+04
   1.343227e+04  -1.846654e+04
   2.918747e+04   1.032080e+04
   1.917671e+04   2.955180e+04
  -1.336941e+04   2.162176e+04
  -3.544772e+04  -3.986417e+03
  -2.037407e+04  -2.283211e+04
   1.816956e+04  -2.138011e+04
   3.971362e+04  -5.892646e+03
   2.365427e+04   1.033411e+04
  -9.027916e+03   1.911173e+04
  -2.341191e+04   1.691850e+04
  -9.711319e+03   4.252544e+03
   1.159590e+04  -8.674006e+03
   1.634927e+04  -6.107186e+03
   8.210899e+01   1.254818e+04
  -2.169528e+04   2.340504e+04
