
 $NMID
 id='ANONYMOUS ', fmtdat='(2E16.6)'
 volume=1.0
 tramp=1.0
 $END
  -4.040215e+07   2.152736e+06
  -2.674149e+07  -2.182371e+07
   2.068326e+06  -2.723584e+07
   1.869074e+07  -1.380128e+07
   1.327929e+07   2.263906e+06
  -9.497166e+05   7.142243e+06
  -7.661297e+06   9.817213e+05
  -3.804449e+06  -6.887202e+06
   3.396310e+06  -8.541266e+06
   7.206489e+06  -2.979900e+06
   5.757748e+06   4.516983e+06
   9.114484e+05   6.949627e+06
  -3.125834e+06   2.016403e+06
  -2.422873e+06  -4.925211e+06
   2.463735e+06  -6.086273e+06
   6.156833e+06   1.066532e+05
   4.195246e+06   7.438792e+06
  -2.016009e+06   9.197330e+06
  -7.211329e+06   4.800929e+06
  -7.848082e+06  -1.361122e+06
  -4.551202e+06  -5.180850e+06
  -5.157525e+05  -5.556841e+06
   1.155097e+06  -3.864039e+06
  -1.847991e+05  -2.517102e+06
  -1.718020e+06  -3.037406e+06
   2.067412e+05  -4.279268e+06
   5.212057e+06  -3.478024e+06
   8.237977e+06   5.218578e+04
   5.475039e+06   3.489810e+06
  -4.909260e+05   3.836635e+06
  -3.676417e+06   1.449548e+06
  -1.856313e+06  -9.341912e+05
   1.711252e+06  -1.452646e+06
   3.165004e+06  -9.078403e+04
   1.976536e+06   2.225350e+06
  -1.362732e+05   3.799811e+06
  -1.662529e+06   2.723421e+06
  -1.818089e+06  -6.073313e+05
  -6.265950e+05  -2.582770e+06
   4.792917e+05  -5.571114e+05
  -2.478816e+05   2.769839e+06
  -2.171186e+06   2.279215e+06
  -2.262335e+06  -2.167491e+06
   8.749250e+05  -4.731667e+06
   4.321522e+06  -1.358842e+06
   3.907508e+06   4.478798e+06
  -6.791663e+05   6.169041e+06
  -5.357427e+06   2.109681e+06
  -5.994850e+06  -3.173085e+06
  -2.225400e+06  -4.958614e+06
   2.704582e+06  -2.777856e+06
   4.850714e+06   6.816852e+05
   2.693056e+06   2.670799e+06
  -1.507139e+06   2.049461e+06
  -3.617126e+06  -2.632252e+05
  -1.850486e+06  -1.877693e+06
   1.190103e+06  -1.170288e+06
   1.694516e+06   7.236852e+05
  -5.686745e+05   1.199179e+06
  -2.146120e+06  -4.435292e+05
  -5.544025e+05  -2.163288e+06
   2.646228e+06  -1.905316e+06
   4.030995e+06   1.935393e+05
   2.192616e+06   2.660488e+06
  -1.412395e+06   4.245138e+06
  -4.394392e+06   3.979624e+06
  -5.156471e+06   1.288337e+06
  -3.499648e+06  -2.698149e+06
  -7.279961e+05  -5.121029e+06
   1.137517e+06  -4.243735e+06
   1.192196e+06  -1.697365e+06
   5.695815e+05  -4.449720e+05
   8.890970e+05  -9.745941e+05
   2.101688e+06  -1.110155e+06
   2.654408e+06   4.897560e+05
   1.569295e+06   2.346644e+06
  -4.542804e+05   2.238515e+06
  -1.909863e+06   4.278860e+04
  -1.735083e+06  -2.280784e+06
   1.317232e+05  -2.832141e+06
   2.571165e+06  -1.268497e+06
   3.703185e+06   1.265778e+06
   2.462758e+06   3.081018e+06
  -3.617109e+04   3.173771e+06
  -1.574427e+06   2.038159e+06
  -1.512107e+06   1.064877e+06
  -1.441568e+06   8.940769e+05
  -2.671867e+06   7.273623e+05
  -4.060748e+06  -4.569187e+05
  -3.359516e+06  -2.442247e+06
  -2.405927e+05  -3.914313e+06
   3.050449e+06  -3.747484e+06
   4.056997e+06  -1.882917e+06
   2.444466e+06   6.369389e+05
  -2.129352e+04   2.187059e+06
  -1.242602e+06   1.698293e+06
  -4.978469e+05  -1.281703e+05
   1.102998e+06  -1.207860e+06
   1.739499e+06  -3.793949e+05
   7.618415e+05   1.073062e+06
  -5.791016e+05   1.073718e+06
  -6.023431e+05  -3.531437e+05
   7.554803e+05  -9.999017e+05
   1.860423e+06   5.450097e+05
   1.290235e+06   2.930174e+06
  -7.258841e+05   3.647426e+06
  -2.781044e+06   1.878352e+06
  -3.582961e+06  -9.165635e+05
  -2.672086e+06  -2.743351e+06
  -5.920123e+05  -2.738682e+06
   1.259929e+06  -1.447380e+06
   1.568769e+06  -1.705328e+05
   4.762352e+05   3.859111e+04
  -3.665820e+05  -7.131829e+05
   2.979172e+05  -1.233429e+06
   1.688235e+06  -5.964446e+05
   1.923632e+06   6.870805e+05
   4.735112e+05   1.269090e+06
  -1.090275e+06   6.186686e+05
  -9.759730e+05  -4.197544e+05
   7.495352e+05  -7.031613e+05
   2.282241e+06   6.683180e+04
   1.979756e+06   1.302420e+06
  -8.689562e+04   2.105181e+06
  -2.245291e+06   1.779792e+06
  -2.710620e+06   3.524225e+05
  -1.189881e+06  -1.137148e+06
   8.030510e+05  -1.368027e+06
   1.379072e+06  -1.966825e+05
   1.549700e+05   9.676002e+05
  -1.423716e+06   7.168229e+05
  -1.691314e+06  -6.677375e+05
  -4.660148e+05  -1.590614e+06
   9.603509e+05  -1.086262e+06
   1.271676e+06   1.474953e+05
   3.587723e+05   7.197785e+05
  -7.056283e+05   9.947065e+04
  -7.052083e+05  -9.803341e+05
   5.562104e+05  -1.361221e+06
   1.934210e+06  -5.174357e+05
   1.959426e+06   9.972654e+05
   4.063528e+05   1.978672e+06
  -1.321134e+06   1.614690e+06
  -1.652645e+06   2.773472e+05
  -5.492293e+05  -8.144731e+05
   6.025040e+05  -8.228193e+05
   6.763682e+05  -7.154036e+04
  -6.577919e+04   4.723390e+05
  -5.762298e+05   3.199686e+05
  -3.023166e+05  -1.123452e+05
   3.563626e+05  -1.050808e+05
   5.828899e+05   5.157891e+05
  -8.217751e+04   1.138840e+06
  -1.288263e+06   9.207766e+05
  -2.021966e+06  -3.449001e+05
  -1.445660e+06  -1.846594e+06
   1.747926e+05  -2.374200e+06
   1.568436e+06  -1.479871e+06
   1.735124e+06   3.871355e+04
   9.662786e+05   9.510407e+05
   3.351617e+05   8.279101e+05
   3.490564e+05   3.133248e+05
   4.952670e+05   2.319090e+05
   9.314972e+04   6.548218e+05
  -7.955468e+05   9.148111e+05
  -1.429357e+06   4.043921e+05
  -1.118436e+06  -7.143570e+05
   1.692342e+05  -1.530117e+06
   1.671767e+06  -1.144462e+06
   2.235254e+06   4.138436e+05
   1.200887e+06   2.006091e+06
  -8.435129e+05   2.318635e+06
  -2.387417e+06   1.122133e+06
  -2.354774e+06  -5.031034e+05
  -1.095414e+06  -1.296950e+06
   1.211158e+05  -1.054134e+06
   4.697494e+05  -6.046073e+05
   2.201380e+05  -6.991435e+05
   1.455343e+05  -1.163164e+06
   5.942284e+05  -1.191253e+06
   1.197738e+06  -3.120168e+05
   1.291088e+06   1.035305e+06
   5.566522e+05   1.836406e+06
  -5.963201e+05   1.404490e+06
  -1.262344e+06   3.744775e+04
  -8.436900e+05  -1.190347e+06
   2.797884e+05  -1.363990e+06
   1.045809e+06  -5.142548e+05
   8.056001e+05   5.234932e+05
   3.801394e+03   9.806517e+05
  -3.888603e+05   8.005379e+05
  -3.301356e+04   4.611217e+05
   3.993325e+05   3.428976e+05
   4.773535e+04   3.798787e+05
  -1.071120e+06   2.433976e+05
  -1.951887e+06  -2.565240e+05
  -1.591452e+06  -9.386708e+05
  -6.831470e+04  -1.347218e+06
   1.433951e+06  -1.119331e+06
   1.750165e+06  -3.573696e+05
   8.584954e+05   3.709201e+05
  -1.987590e+05   5.151580e+05
  -4.747319e+05   8.499331e+04
  -1.326274e+04  -3.443498e+05
   4.559037e+05  -2.347067e+05
   4.601247e+05   3.257560e+05
   1.806220e+05   7.093855e+05
   3.115927e+04   4.598349e+05
   1.467473e+05  -1.428531e+05
   3.307614e+05  -3.433120e+05
   2.859848e+05   2.140895e+05
  -1.610633e+05   9.796843e+05
  -8.513407e+05   1.036463e+06
  -1.229156e+06   1.552393e+05
  -7.569847e+05  -8.667065e+05
   3.771306e+05  -1.046136e+06
   1.159113e+06  -2.839691e+05
   7.069638e+05   5.680049e+05
  -6.571396e+05   6.578927e+05
  -1.584402e+06  -3.478328e+04
  -1.089146e+06  -8.202475e+05
   3.957581e+05  -1.039057e+06
   1.486596e+06  -5.854756e+05
   1.276230e+06   1.248470e+05
   1.725055e+05   5.214692e+05
  -6.261519e+05   3.071844e+05
  -3.600810e+05  -2.558007e+05
   5.899780e+05  -4.794666e+05
   1.140387e+06   1.121428e+05
   6.051464e+05   1.159392e+06
  -6.209973e+05   1.631909e+06
  -1.464439e+06   8.325408e+05
  -1.229267e+06  -7.496259e+05
  -2.082871e+05  -1.764456e+06
   7.160463e+05  -1.311749e+06
   9.278340e+05   1.219053e+05
   4.820825e+05   1.164025e+06
  -1.532831e+05   9.932269e+05
  -5.374027e+05   1.159632e+05
  -5.001019e+05  -3.801350e+05
  -2.037491e+05  -1.543279e+05
  -3.218703e+04   1.106225e+05
  -2.206568e+05  -2.451667e+05
  -4.906153e+05  -9.242201e+05
  -2.514510e+05  -1.074429e+06
   6.375947e+05  -4.163604e+05
   1.460842e+06   4.410129e+05
   1.314979e+06   8.133724e+05
   1.979330e+05   6.732225e+05
  -8.727866e+05   4.091184e+05
  -9.815106e+05   2.041328e+05
  -3.234639e+05  -1.615590e+04
   1.556698e+05  -2.155776e+05
  -1.164216e+04  -2.346787e+05
  -3.072993e+05  -1.265766e+05
  -3.075044e+04  -1.291922e+05
   6.963931e+05  -2.087593e+05
   1.015328e+06   1.436119e+04
   3.580027e+05   6.506784e+05
  -8.537402e+05   1.121688e+06
  -1.614459e+06   7.264925e+05
  -1.317699e+06  -4.245081e+05
  -2.618232e+05  -1.377514e+06
   7.201855e+05  -1.339098e+06
   1.013596e+06  -5.039681e+05
   6.452554e+05   2.488657e+05
   1.139649e+05   3.442747e+05
  -1.042344e+05   2.936229e+04
   6.994386e+04  -5.269427e+04
   3.226956e+05   3.464761e+05
   2.691704e+05   7.916094e+05
  -1.760862e+05   6.543133e+05
  -6.704455e+05  -1.443083e+05
  -6.988945e+05  -9.478851e+05
  -7.461677e+04  -9.923773e+05
   7.518715e+05  -2.017407e+05
   9.964033e+05   7.306501e+05
   3.232515e+05   1.053149e+06
  -6.905992e+05   6.357102e+05
  -1.069861e+06  -6.984839e+04
  -5.070701e+05  -5.585847e+05
   2.625119e+05  -6.271033e+05
   3.298757e+05  -3.615226e+05
  -2.771470e+05  -2.949797e+04
  -6.431121e+05   3.653515e+04
  -1.345057e+05  -2.892570e+05
   8.012352e+05  -6.769632e+05
   1.198654e+06  -5.761067e+05
   7.147566e+05   1.277985e+05
  -8.586064e+04   8.345621e+05
  -4.944942e+05   8.334052e+05
  -3.705541e+05   1.428446e+05
  -3.386299e+04  -4.789974e+05
   2.321440e+05  -4.057323e+05
   3.404508e+05   1.742073e+05
   2.484029e+05   5.616872e+05
  -4.976852e+04   3.853272e+05
  -3.778706e+05  -5.414958e+04
  -4.607258e+05  -2.435872e+05
  -2.419588e+05  -7.080214e+04
   2.379854e+04   1.164328e+05
   9.237625e+04  -1.297030e+04
   3.585821e+04  -3.567722e+05
   1.011763e+05  -4.870767e+05
   3.173288e+05  -1.512453e+05
   3.985886e+05   3.959686e+05
   9.949043e+04   6.235791e+05
  -4.088873e+05   2.912087e+05
  -6.247949e+05  -2.834689e+05
  -2.338232e+05  -5.671894e+05
   4.810432e+05  -3.593678e+05
   8.400533e+05   7.546681e+04
   4.617272e+05   3.628115e+05
  -2.775890e+05   3.692893e+05
  -6.065191e+05   2.008543e+05
  -2.176313e+05   2.073393e+04
   3.675562e+05  -3.599892e+04
   4.047717e+05   9.779769e+04
  -1.954161e+05   3.014197e+05
  -7.709981e+05   2.605403e+05
