
 $NMID
 id='ANONYMOUS ', fmtdat='(2E16.6)'
 volume=1.0
 tramp=1.0
 $END
  -5.653586e+07   2.445162e+04
  -3.386920e+07  -3.512602e+07
   7.620180e+06  -3.824436e+07
   2.766586e+07  -1.451126e+07
   1.638203e+07   7.172352e+06
  -3.397295e+06   9.308791e+06
  -9.777896e+06  -1.328166e+06
  -2.674770e+06  -9.764502e+06
   6.228999e+06  -9.224325e+06
   9.620609e+06  -1.922562e+06
   6.990748e+06   6.177360e+06
   8.484000e+05   8.565372e+06
  -3.977222e+06   2.776428e+06
  -2.651016e+06  -5.356328e+06
   3.738475e+06  -6.471127e+06
   7.848421e+06   1.369918e+06
   4.422493e+06   1.019766e+07
  -3.790088e+06   1.178581e+07
  -1.011471e+07   5.926953e+06
  -1.085786e+07  -2.021846e+06
  -6.699038e+06  -7.516093e+06
  -7.151277e+05  -8.743237e+06
   2.993144e+06  -6.111695e+06
   1.964470e+06  -2.623926e+06
  -1.086855e+06  -2.009927e+06
  -3.461435e+05  -4.098308e+06
   5.287640e+06  -4.455096e+06
   9.610966e+06  -6.164968e+05
   7.080359e+06   4.061304e+06
   3.385258e+05   5.090705e+06
  -3.654899e+06   2.666095e+06
  -2.509845e+06   1.066311e+05
   4.770700e+05  -9.221079e+05
   2.172849e+06  -5.721254e+05
   2.217486e+06   1.319145e+06
   7.973519e+05   3.887141e+06
  -1.763920e+06   3.896127e+06
  -3.305495e+06  -6.084917e+04
  -1.784408e+06  -3.665928e+06
   8.014755e+05  -2.001976e+06
   4.259685e+05   2.403105e+06
  -2.411474e+06   2.289520e+06
  -2.429661e+06  -3.195133e+06
   2.472571e+06  -6.122665e+06
   7.011963e+06  -9.799210e+05
   5.139253e+06   6.970509e+06
  -1.938803e+06   8.552485e+06
  -7.439757e+06   2.431157e+06
  -6.924999e+06  -4.417752e+06
  -1.826853e+06  -5.982572e+06
   3.445837e+06  -2.681495e+06
   5.200406e+06   1.517671e+06
   2.382640e+06   3.459595e+06
  -2.426175e+06   2.175596e+06
  -4.515596e+06  -9.319953e+05
  -1.933578e+06  -2.721385e+06
   1.720155e+06  -1.368616e+06
   1.719657e+06   1.015748e+06
  -1.339316e+06   8.793401e+05
  -2.448377e+06  -1.802200e+06
   6.851521e+05  -3.455682e+06
   4.675727e+06  -1.873043e+06
   5.294545e+06   1.391293e+06
   2.300581e+06   3.985965e+06
  -1.769886e+06   5.267349e+06
  -4.942526e+06   4.873326e+06
  -6.166424e+06   1.798000e+06
  -4.615923e+06  -3.118569e+06
  -9.893429e+05  -6.150654e+06
   1.846184e+06  -4.739627e+06
   1.752729e+06  -1.173979e+06
   1.171276e+05   2.860243e+05
  -1.060642e+05  -9.918414e+05
   1.543974e+06  -1.849021e+06
   2.807691e+06  -3.199073e+05
   2.073035e+06   1.866278e+06
   8.893036e+04   2.128684e+06
  -1.513985e+06   2.445069e+05
  -1.687428e+06  -2.017566e+06
  -4.546784e+04  -2.913940e+06
   2.738972e+06  -1.691347e+06
   4.488461e+06   1.137469e+06
   3.262680e+06   3.742804e+06
  -1.412769e+04   4.250990e+06
  -2.284450e+06   2.741400e+06
  -2.246517e+06   1.136272e+06
  -1.828243e+06   6.703843e+05
  -2.920315e+06   4.814127e+05
  -4.327291e+06  -7.368912e+05
  -3.482873e+06  -2.730535e+06
  -1.582807e+05  -4.102137e+06
   3.152943e+06  -3.907823e+06
   4.129865e+06  -2.163163e+06
   2.661159e+06   3.764932e+05
   3.209483e+05   2.225059e+06
  -1.064869e+06   1.953373e+06
  -5.676672e+05  -2.369833e+04
   1.067624e+06  -1.320464e+06
   1.904025e+06  -4.131147e+05
   9.382137e+05   1.202229e+06
  -4.985095e+05   1.116675e+06
  -4.133594e+05  -3.823299e+05
   1.072679e+06  -6.690344e+05
   1.838256e+06   1.325230e+06
   6.039270e+05   3.486931e+06
  -1.619015e+06   3.356756e+06
  -3.119178e+06   1.054511e+06
  -3.256355e+06  -1.444465e+06
  -2.243125e+06  -2.709021e+06
  -4.635940e+05  -2.569503e+06
   1.215850e+06  -1.467298e+06
   1.566755e+06  -2.473024e+05
   4.916271e+05   4.211529e+04
  -3.614598e+05  -7.486918e+05
   4.139887e+05  -1.347210e+06
   1.915969e+06  -5.866139e+05
   2.039217e+06   8.899300e+05
   3.822005e+05   1.421723e+06
  -1.170158e+06   5.713795e+05
  -8.770904e+05  -4.485488e+05
   8.489265e+05  -5.002580e+05
   2.153004e+06   3.295846e+05
   1.714111e+06   1.336167e+06
  -2.487879e+05   1.940733e+06
  -2.285779e+06   1.646639e+06
  -2.761473e+06   2.847184e+05
  -1.222670e+06  -1.264973e+06
   9.182055e+05  -1.517710e+06
   1.573744e+06  -1.986796e+05
   2.141541e+05   1.089195e+06
  -1.515306e+06   7.479972e+05
  -1.718085e+06  -7.793521e+05
  -3.298904e+05  -1.647821e+06
   1.095880e+06  -9.625509e+05
   1.248843e+06   3.245301e+05
   2.328895e+05   7.837007e+05
  -8.055774e+05   5.393808e+04
  -7.469981e+05  -1.052816e+06
   5.629441e+05  -1.432193e+06
   2.003869e+06  -5.624020e+05
   2.046298e+06   1.034433e+06
   3.962292e+05   2.075195e+06
  -1.436931e+06   1.650013e+06
  -1.726208e+06   2.121616e+05
  -4.985264e+05  -8.684452e+05
   6.575183e+05  -8.011676e+05
   6.230661e+05  -8.285689e+04
  -1.215146e+05   3.415678e+05
  -4.718378e+05   1.955623e+05
  -9.470962e+04  -5.384301e+04
   4.579707e+05   1.027158e+05
   5.076940e+05   6.873973e+05
  -2.156704e+05   1.187722e+06
  -1.381106e+06   8.971212e+05
  -2.082412e+06  -4.046457e+05
  -1.476862e+06  -1.934877e+06
   2.001452e+05  -2.416033e+06
   1.599243e+06  -1.407068e+06
   1.671607e+06   1.239386e+05
   8.428967e+05   8.726141e+05
   3.205021e+05   6.156574e+05
   4.984654e+05   1.997414e+05
   6.465593e+05   3.204695e+05
   9.565360e+04   7.764032e+05
  -8.755809e+05   8.995638e+05
  -1.437709e+06   3.221899e+05
  -1.037367e+06  -7.080734e+05
   2.478607e+05  -1.439177e+06
   1.708324e+06  -1.068610e+06
   2.239432e+06   4.713711e+05
   1.133422e+06   2.091692e+06
  -1.010677e+06   2.366504e+06
  -2.542745e+06   1.030860e+06
  -2.339522e+06  -6.606227e+05
  -9.373694e+05  -1.327005e+06
   2.094233e+05  -9.216426e+05
   3.667000e+05  -4.952545e+05
   4.647251e+04  -7.604723e+05
   8.442143e+04  -1.325295e+06
   6.680888e+05  -1.302993e+06
   1.299285e+06  -3.295498e+05
   1.347978e+06   1.068381e+06
   5.720260e+05   1.887225e+06
  -6.081463e+05   1.440066e+06
  -1.281162e+06   3.204270e+03
  -8.129413e+05  -1.283573e+06
   3.946954e+05  -1.395311e+06
   1.170966e+06  -3.931181e+05
   8.115121e+05   7.164248e+05
  -1.360280e+05   1.085461e+06
  -5.520550e+05   7.771503e+05
  -8.952488e+04   4.051330e+05
   4.404527e+05   3.277614e+05
   6.595508e+04   3.807052e+05
  -1.152894e+06   2.133270e+05
  -2.072838e+06  -3.240130e+05
  -1.620993e+06  -1.031802e+06
   4.396976e+04  -1.441473e+06
   1.596788e+06  -1.152248e+06
   1.831308e+06  -2.784136e+05
   8.270049e+05   5.061870e+05
  -2.660165e+05   5.779041e+05
  -5.145474e+05   2.830803e+04
  -3.804516e+04  -4.334497e+05
   4.340826e+05  -2.667636e+05
   4.865849e+05   3.373243e+05
   2.762995e+05   7.179024e+05
   1.154819e+05   4.791491e+05
   1.326746e+05  -8.486438e+04
   2.616875e+05  -2.823881e+05
   2.734591e+05   2.311133e+05
  -1.235253e+05   9.819461e+05
  -8.900992e+05   1.075688e+06
  -1.380517e+06   1.955936e+05
  -8.799654e+05  -9.080029e+05
   4.064856e+05  -1.158334e+06
   1.267705e+06  -3.644306e+05
   7.421890e+05   5.598436e+05
  -6.998726e+05   6.491566e+05
  -1.577027e+06  -9.205968e+04
  -9.853855e+05  -8.552944e+05
   4.919148e+05  -9.728712e+05
   1.483462e+06  -4.632666e+05
   1.212752e+06   1.928652e+05
   1.284491e+05   5.061154e+05
  -6.475493e+05   2.640982e+05
  -3.923994e+05  -2.977605e+05
   5.704213e+05  -5.399195e+05
   1.187606e+06   5.129152e+04
   7.064826e+05   1.166509e+06
  -5.450252e+05   1.721234e+06
  -1.461978e+06   9.215058e+05
  -1.267124e+06  -7.321410e+05
  -2.286907e+05  -1.782288e+06
   7.222133e+05  -1.288590e+06
   9.195684e+05   1.808533e+05
   4.270537e+05   1.185631e+06
  -2.287756e+05   9.551508e+05
  -5.658536e+05   8.004725e+04
  -4.538168e+05  -3.659548e+05
  -1.472348e+05  -1.273614e+05
  -5.388713e+04   8.917939e+04
  -3.081188e+05  -3.074581e+05
  -5.300227e+05  -9.655730e+05
  -1.809782e+05  -1.067757e+06
   7.347743e+05  -3.955900e+05
   1.474685e+06   4.449963e+05
   1.266215e+06   8.173392e+05
   1.901159e+05   6.998208e+05
  -8.267773e+05   4.346610e+05
  -9.720699e+05   1.878280e+05
  -3.771581e+05  -6.254766e+04
   1.343007e+05  -2.306032e+05
   5.649270e+04  -1.901914e+05
  -2.406335e+05  -7.289691e+04
  -6.363360e+04  -1.317744e+05
   6.291799e+05  -2.606235e+05
   1.051627e+06  -1.463159e+04
   4.860114e+05   6.940178e+05
  -7.957314e+05   1.213346e+06
  -1.708706e+06   8.067601e+05
  -1.457741e+06  -3.927209e+05
  -3.136211e+05  -1.398069e+06
   7.509173e+05  -1.400026e+06
   1.042923e+06  -5.787906e+05
   6.577854e+05   2.027853e+05
   1.537766e+05   3.579580e+05
  -4.483917e+04   8.824659e+04
   8.871545e+04   3.132407e+03
   2.926366e+05   3.702936e+05
   2.504988e+05   8.033897e+05
  -1.602504e+05   6.908030e+05
  -6.803311e+05  -8.523873e+04
  -7.806752e+05  -9.176693e+05
  -1.727373e+05  -1.036825e+06
   7.320547e+05  -2.969756e+05
   1.065090e+06   6.706147e+05
   3.939864e+05   1.086651e+06
  -6.956694e+05   7.184413e+05
  -1.138218e+06  -4.174215e+04
  -5.621939e+05  -6.245332e+05
   2.768665e+05  -7.141950e+05
   3.983147e+05  -3.814644e+05
  -2.200434e+05   1.013632e+04
  -6.422760e+05   5.942708e+04
  -1.633935e+05  -3.116480e+05
   8.112129e+05  -6.940163e+05
   1.272246e+06  -5.445777e+05
   7.946281e+05   1.862268e+05
  -7.512117e+04   8.847117e+05
  -5.604260e+05   8.798577e+05
  -4.539513e+05   1.910133e+05
  -8.193624e+04  -4.675499e+05
   2.248828e+05  -4.584948e+05
   3.566168e+05   1.118887e+05
   2.727825e+05   5.714059e+05
  -3.707356e+04   4.546916e+05
  -3.948522e+05  -2.322948e+04
  -4.912349e+05  -2.894331e+05
  -2.441291e+05  -1.078981e+05
   5.022965e+04   1.721575e+05
   8.086815e+04   8.607111e+04
  -6.051655e+04  -3.389511e+05
  -1.608870e+04  -5.870263e+05
   3.003087e+05  -2.791703e+05
   5.084003e+05   3.377431e+05
   2.238498e+05   6.441881e+05
  -3.875090e+05   3.408078e+05
  -6.933099e+05  -2.451482e+05
  -2.848486e+05  -5.574928e+05
   5.078106e+05  -3.830357e+05
   9.042918e+05   4.080477e+04
   4.985639e+05   3.656895e+05
  -2.853516e+05   4.304766e+05
  -6.440432e+05   2.715497e+05
  -2.736013e+05   2.802836e+04
   3.147241e+05  -1.036602e+05
   3.998760e+05   1.919643e+04
  -1.327940e+05   2.786475e+05
  -6.941068e+05   2.964975e+05
