
 $NMID
 id='ANONYMOUS ', fmtdat='(2E16.6)'
 volume=1.0
 tramp=1.0
 $END
   3.146765e+07  -7.098565e+04
   1.891135e+07   1.952474e+07
  -4.193974e+06   2.131432e+07
  -1.540850e+07   8.116647e+06
  -9.152900e+06  -3.984214e+06
   1.882482e+06  -5.198377e+06
   5.462175e+06   7.315258e+05
   1.502837e+06   5.448514e+06
  -3.473925e+06   5.152840e+06
  -5.367315e+06   1.078913e+06
  -3.895135e+06  -3.438077e+06
  -4.717507e+05  -4.769177e+06
   2.211094e+06  -1.545331e+06
   1.469634e+06   2.985129e+06
  -2.088166e+06   3.608656e+06
  -4.377151e+06  -7.584070e+05
  -2.469924e+06  -5.679288e+06
   2.104151e+06  -6.567823e+06
   5.626629e+06  -3.306966e+06
   6.042088e+06   1.115795e+06
   3.734131e+06   4.171603e+06
   4.129027e+05   4.860796e+06
  -1.651679e+06   3.411322e+06
  -1.093463e+06   1.479601e+06
   5.914917e+05   1.130646e+06
   1.809526e+05   2.277524e+06
  -2.943360e+06   2.468434e+06
  -5.343322e+06   3.362453e+05
  -3.937045e+06  -2.258269e+06
  -1.893686e+05  -2.824323e+06
   2.028265e+06  -1.474377e+06
   1.385585e+06  -5.866412e+04
  -2.761448e+05   5.008390e+05
  -1.208602e+06   3.023406e+05
  -1.221844e+06  -7.392526e+05
  -4.341929e+05  -2.156609e+06
   9.782093e+05  -2.164228e+06
   1.831502e+06   2.667306e+04
   9.947499e+05   2.030586e+06
  -4.344582e+05   1.113123e+06
  -2.266587e+05  -1.332930e+06
   1.347084e+06  -1.272379e+06
   1.356946e+06   1.780305e+06
  -1.371043e+06   3.418083e+06
  -3.904369e+06   5.604810e+05
  -2.870853e+06  -3.873339e+06
   1.069180e+06  -4.766121e+06
   4.139632e+06  -1.359550e+06
   3.858067e+06   2.461740e+06
   1.016608e+06   3.337189e+06
  -1.923855e+06   1.494297e+06
  -2.901013e+06  -8.503164e+05
  -1.328841e+06  -1.933279e+06
   1.352168e+06  -1.216330e+06
   2.517900e+06   5.172209e+05
   1.080072e+06   1.516894e+06
  -9.574056e+05   7.639652e+05
  -9.587420e+05  -5.683350e+05
   7.491275e+05  -4.960701e+05
   1.373522e+06   1.002149e+06
  -3.718510e+05   1.933075e+06
  -2.603107e+06   1.054909e+06
  -2.955202e+06  -7.696885e+05
  -1.286525e+06  -2.220260e+06
   9.851911e+05  -2.930777e+06
   2.752051e+06  -2.706898e+06
   3.429960e+06  -9.975926e+05
   2.565661e+06   1.733672e+06
   5.481785e+05   3.422179e+06
  -1.031299e+06   2.641994e+06
  -9.829888e+05   6.572660e+05
  -7.364353e+04  -1.627657e+05
   5.480039e+04   5.417785e+05
  -8.570571e+05   1.018735e+06
  -1.555232e+06   1.720137e+05
  -1.144325e+06  -1.039480e+06
  -4.266096e+04  -1.180282e+06
   8.425383e+05  -1.284530e+05
   9.329594e+05   1.128245e+06
   1.969374e+04   1.620880e+06
  -1.524036e+06   9.369629e+05
  -2.493968e+06  -6.349371e+05
  -1.814087e+06  -2.081229e+06
   5.580185e+03  -2.364482e+06
   1.268885e+06  -1.527561e+06
   1.250957e+06  -6.355154e+05
   1.020952e+06  -3.740373e+05
   1.629226e+06  -2.651430e+05
   2.410474e+06   4.160030e+05
   1.936505e+06   1.525948e+06
   8.170753e+04   2.285147e+06
  -1.762078e+06   2.170218e+06
  -2.301307e+06   1.196022e+06
  -1.477987e+06  -2.135826e+05
  -1.736794e+05  -1.236110e+06
   5.949221e+05  -1.083191e+06
   3.149423e+05   1.384121e+04
  -5.961539e+05   7.325556e+05
  -1.060520e+06   2.278561e+05
  -5.210166e+05  -6.693266e+05
   2.796803e+05  -6.200585e+05
   2.302749e+05   2.155674e+05
  -6.013465e+05   3.745479e+05
  -1.029147e+06  -7.400445e+05
  -3.365557e+05  -1.948943e+06
   9.095365e+05  -1.876133e+06
   1.747128e+06  -5.862786e+05
   1.816770e+06   8.135055e+05
   1.244156e+06   1.518047e+06
   2.512718e+05   1.433685e+06
  -6.801244e+05   8.140166e+05
  -8.722872e+05   1.341865e+05
  -2.737228e+05  -2.434759e+04
   2.001557e+05   4.176313e+05
  -2.318018e+05   7.503417e+05
  -1.067739e+06   3.251790e+05
  -1.135715e+06  -4.980658e+05
  -2.118642e+05  -7.931616e+05
   6.530534e+05  -3.168505e+05
   4.880980e+05   2.524402e+05
  -4.755564e+05   2.782825e+05
  -1.201253e+06  -1.887472e+05
  -9.527373e+05  -7.503475e+05
   1.439250e+05  -1.082326e+06
   1.277667e+06  -9.129549e+05
   1.539064e+06  -1.534663e+05
   6.795721e+05   7.063964e+05
  -5.126485e+05   8.441936e+05
  -8.763853e+05   1.094433e+05
  -1.181995e+05  -6.061049e+05
   8.448447e+05  -4.143312e+05
   9.563115e+05   4.370162e+05
   1.812715e+05   9.196791e+05
  -6.132497e+05   5.355747e+05
  -6.967814e+05  -1.830536e+05
  -1.291772e+05  -4.380776e+05
   4.488333e+05  -2.960451e+04
   4.144133e+05   5.871029e+05
  -3.156653e+05   7.961742e+05
  -1.116366e+06   3.095856e+05
  -1.137521e+06  -5.793275e+05
  -2.173503e+05  -1.156346e+06
   8.030282e+05  -9.170220e+05
   9.623383e+05  -1.154838e+05
   2.766064e+05   4.851152e+05
  -3.678840e+05   4.455105e+05
  -3.472146e+05   4.434630e+04
   6.950557e+04  -1.908179e+05
   2.646305e+05  -1.071496e+05
   5.250184e+04   3.242703e+04
  -2.566903e+05  -5.666060e+04
  -2.831753e+05  -3.842399e+05
   1.218088e+05  -6.621821e+05
   7.710006e+05  -4.976480e+05
   1.159233e+06   2.289573e+05
   8.191755e+05   1.080052e+06
  -1.160682e+05   1.345208e+06
  -8.942805e+05   7.807444e+05
  -9.317326e+05  -7.301076e+04
  -4.670753e+05  -4.892988e+05
  -1.749870e+05  -3.443119e+05
  -2.755497e+05  -1.110593e+05
  -3.598471e+05  -1.780257e+05
  -5.280714e+04  -4.321983e+05
   4.894975e+05  -4.998967e+05
   8.021138e+05  -1.765798e+05
   5.762413e+05   3.974150e+05
  -1.418791e+05   8.019365e+05
  -9.542728e+05   5.919822e+05
  -1.246652e+06  -2.670556e+05
  -6.278395e+05  -1.167670e+06
   5.668473e+05  -1.317336e+06
   1.418718e+06  -5.705847e+05
   1.303165e+06   3.725518e+05
   5.199798e+05   7.425453e+05
  -1.197021e+05   5.140982e+05
  -2.066811e+05   2.742501e+05
  -2.732892e+04   4.214291e+05
  -4.830111e+04   7.368022e+05
  -3.734475e+05   7.246903e+05
  -7.237985e+05   1.817920e+05
  -7.486130e+05  -5.971326e+05
  -3.150696e+05  -1.051885e+06
   3.412962e+05  -8.007141e+05
   7.137754e+05   6.034700e+02
   4.510689e+05   7.165682e+05
  -2.220953e+05   7.773078e+05
  -6.538254e+05   2.180955e+05
  -4.523799e+05  -4.000743e+05
   7.656699e+04  -6.053383e+05
   3.088397e+05  -4.333709e+05
   5.112158e+04  -2.261852e+05
  -2.442935e+05  -1.831036e+05
  -3.584688e+04  -2.119603e+05
   6.425641e+05  -1.172562e+05
   1.153979e+06   1.834133e+05
   9.013982e+05   5.774510e+05
  -2.621769e+04   8.035152e+05
  -8.908487e+05   6.398841e+05
  -1.021022e+06   1.522581e+05
  -4.609818e+05  -2.835593e+05
   1.485309e+05  -3.217730e+05
   2.870749e+05  -1.523842e+04
   2.107580e+04   2.409626e+05
  -2.420821e+05   1.473095e+05
  -2.703077e+05  -1.886110e+05
  -1.521316e+05  -3.993978e+05
  -6.324127e+04  -2.661699e+05
  -7.471253e+04   4.698500e+04
  -1.471364e+05   1.561509e+05
  -1.519482e+05  -1.293602e+05
   7.099939e+04  -5.461433e+05
   4.974341e+05  -5.973909e+05
   7.683090e+05  -1.074131e+05
   4.881583e+05   5.061353e+05
  -2.275899e+05   6.441608e+05
  -7.056063e+05   2.011184e+05
  -4.119439e+05  -3.130280e+05
   3.911137e+05  -3.604930e+05
   8.786711e+05   5.453813e+04
   5.476029e+05   4.793795e+05
  -2.764250e+05   5.419265e+05
  -8.283902e+05   2.551646e+05
  -6.758510e+05  -1.104299e+05
  -7.043501e+04  -2.826242e+05
   3.615486e+05  -1.460635e+05
   2.182328e+05   1.661781e+05
  -3.182338e+05   2.990849e+05
  -6.604933e+05  -3.077064e+04
  -3.907360e+05  -6.500627e+05
   3.064947e+05  -9.563593e+05
   8.152443e+05  -5.097923e+05
   7.038238e+05   4.100990e+05
   1.236879e+05   9.927947e+05
  -4.051624e+05   7.162172e+05
  -5.123475e+05  -1.025774e+05
  -2.356949e+05  -6.616729e+05
   1.295782e+05  -5.323125e+05
   3.155552e+05  -4.377721e+04
   2.519448e+05   2.052669e+05
   8.162640e+04   7.188663e+04
   3.035248e+04  -4.984502e+04
   1.713076e+05   1.707881e+05
   2.934326e+05   5.383227e+05
   9.868242e+04   5.957644e+05
  -4.099491e+05   2.198074e+05
  -8.203169e+05  -2.507955e+05
  -7.036145e+05  -4.583542e+05
  -1.046768e+05  -3.901324e+05
   4.612448e+05  -2.397566e+05
   5.419412e+05  -1.024895e+05
   2.102129e+05   3.494778e+04
  -7.519684e+04   1.278847e+05
  -3.211746e+04   1.066369e+05
   1.334998e+05   4.194402e+04
   3.507972e+04   7.316084e+04
  -3.506143e+05   1.429555e+05
  -5.852694e+05   6.204001e+03
  -2.692366e+05  -3.860895e+05
   4.449616e+05  -6.731583e+05
   9.521885e+05  -4.463763e+05
   8.102310e+05   2.204770e+05
   1.717338e+05   7.786632e+05
  -4.204436e+05   7.781981e+05
  -5.811699e+05   3.201761e+05
  -3.653709e+05  -1.143343e+05
  -8.489530e+04  -1.992124e+05
   2.473538e+04  -4.825963e+04
  -4.990917e+04  -1.572189e+03
  -1.625157e+05  -2.070651e+05
  -1.379835e+05  -4.480835e+05
   9.037144e+04  -3.840964e+05
   3.780598e+05   4.898076e+04
   4.322623e+05   5.119598e+05
   9.415634e+04   5.766452e+05
  -4.074075e+05   1.633438e+05
  -5.909104e+05  -3.752145e+05
  -2.172274e+05  -6.051739e+05
   3.880885e+05  -3.984185e+05
   6.332848e+05   2.505411e+04
   3.122572e+05   3.482240e+05
  -1.547665e+05   3.970161e+05
  -2.222041e+05   2.122281e+05
   1.223442e+05  -4.465740e+03
   3.575779e+05  -3.164658e+04
   9.046722e+04   1.735425e+05
  -4.530356e+05   3.848291e+05
  -7.097668e+05   3.014268e+05
  -4.424858e+05  -1.044038e+05
   4.323432e+04  -4.922790e+05
   3.132950e+05  -4.893341e+05
   2.524643e+05  -1.061081e+05
   4.436997e+04   2.601022e+05
  -1.256992e+05   2.546194e+05
  -1.976790e+05  -6.310013e+04
  -1.507227e+05  -3.185188e+05
   2.094571e+04  -2.527962e+05
   2.194796e+05   1.369595e+04
   2.733307e+05   1.617756e+05
   1.360991e+05   6.047208e+04
  -2.809396e+04  -9.553774e+04
  -4.589675e+04  -4.791473e+04
   3.250401e+04   1.879668e+05
   8.367365e+03   3.254506e+05
  -1.665896e+05   1.542649e+05
  -2.814822e+05  -1.882345e+05
  -1.231183e+05  -3.578978e+05
   2.160909e+05  -1.886013e+05
   3.849813e+05   1.374187e+05
   1.571903e+05   3.105828e+05
  -2.832895e+05   2.124321e+05
  -5.029626e+05  -2.409688e+04
  -2.767918e+05  -2.043269e+05
   1.591789e+05  -2.390206e+05
   3.584138e+05  -1.500268e+05
   1.521867e+05  -1.557309e+04
  -1.749660e+05   5.632085e+04
  -2.218726e+05  -1.182908e+04
   7.496649e+04  -1.543351e+05
   3.870532e+05  -1.627585e+05
