
 $NMID
 id='ANONYMOUS ', fmtdat='(2E16.6)'
 volume=1.0
 tramp=1.0
 $END
  -3.237034e+07  -7.434245e+05
  -1.982072e+07  -1.825737e+07
   2.921763e+06  -2.104372e+07
   1.503667e+07  -1.033605e+07
   1.023436e+07   1.737719e+06
  -8.142527e+05   5.446724e+06
  -5.931178e+06   8.524574e+05
  -2.989575e+06  -5.347741e+06
   2.631084e+06  -6.846903e+06
   5.720173e+06  -2.343990e+06
   4.540780e+06   3.904875e+06
   5.210981e+05   5.809870e+06
  -2.729917e+06   1.490428e+06
  -2.001806e+06  -4.280074e+06
   2.021979e+06  -5.033174e+06
   4.887816e+06   1.976521e+05
   3.134770e+06   6.113436e+06
  -1.953113e+06   7.320388e+06
  -6.058209e+06   3.497973e+06
  -6.271602e+06  -1.636047e+06
  -3.212134e+06  -4.554430e+06
   1.634057e+05  -4.385726e+06
   1.119378e+06  -2.683649e+06
  -4.987508e+05  -1.802673e+06
  -1.795882e+06  -2.724418e+06
   2.454350e+05  -3.883285e+06
   4.738350e+06  -2.867325e+06
   7.113781e+06   4.123570e+05
   4.425886e+06   3.254782e+06
  -7.937967e+05   3.298857e+06
  -3.440596e+06   1.068372e+06
  -1.703916e+06  -1.109072e+06
   1.607847e+06  -1.583430e+06
   3.027917e+06  -1.799407e+05
   1.864162e+06   2.146085e+06
  -2.841775e+05   3.491650e+06
  -1.654515e+06   2.181338e+06
  -1.450429e+06  -8.898077e+05
  -1.609551e+05  -2.294603e+06
   6.311388e+05  -1.899452e+05
  -2.639178e+05   2.612357e+06
  -1.869167e+06   1.952853e+06
  -1.767879e+06  -1.759562e+06
   7.607614e+05  -3.622660e+06
   3.275054e+06  -7.570561e+05
   2.759595e+06   3.743153e+06
  -8.322468e+05   4.782407e+06
  -4.414776e+06   1.409065e+06
  -4.870837e+06  -2.753367e+06
  -1.825892e+06  -4.107850e+06
   2.230420e+06  -2.313794e+06
   4.040309e+06   5.250905e+05
   2.270795e+06   2.152000e+06
  -1.185829e+06   1.604270e+06
  -2.895762e+06  -2.836717e+05
  -1.455482e+06  -1.516557e+06
   9.881544e+05  -8.927670e+05
   1.426918e+06   5.885283e+05
  -3.097929e+05   9.593891e+05
  -1.579435e+06  -2.188576e+05
  -4.526631e+05  -1.451275e+06
   1.979713e+06  -1.300326e+06
   3.107462e+06   2.046543e+05
   1.661681e+06   2.135670e+06
  -1.370692e+06   3.491727e+06
  -3.932803e+06   3.243515e+06
  -4.452495e+06   8.586191e+05
  -2.808118e+06  -2.504048e+06
  -4.062883e+05  -4.369895e+06
   9.703746e+05  -3.511428e+06
   8.567293e+05  -1.476858e+06
   4.435789e+05  -5.986643e+05
   9.526826e+05  -1.033912e+06
   2.073351e+06  -9.483651e+05
   2.448733e+06   5.958443e+05
   1.377455e+06   2.228986e+06
  -4.682761e+05   2.077265e+06
  -1.773792e+06   7.502057e+04
  -1.574218e+06  -2.033519e+06
   1.604733e+05  -2.500253e+06
   2.303425e+06  -1.010139e+06
   3.140763e+06   1.276404e+06
   1.906689e+06   2.740741e+06
  -2.331652e+05   2.611164e+06
  -1.394404e+06   1.542856e+06
  -1.220684e+06   7.886892e+05
  -1.161804e+06   7.497098e+05
  -2.259096e+06   6.298752e+05
  -3.467294e+06  -4.081702e+05
  -2.872335e+06  -2.120633e+06
  -1.864426e+05  -3.387179e+06
   2.692189e+06  -3.238791e+06
   3.598873e+06  -1.589038e+06
   2.153884e+06   6.417117e+05
  -8.376015e+04   1.972918e+06
  -1.164335e+06   1.478891e+06
  -4.416250e+05  -1.408401e+05
   9.935153e+05  -1.044178e+06
   1.501488e+06  -2.958484e+05
   6.138533e+05   9.500204e+05
  -5.264384e+05   9.465951e+05
  -5.501580e+05  -2.699867e+05
   5.506062e+05  -8.695961e+05
   1.489841e+06   3.493903e+05
   1.139469e+06   2.353749e+06
  -4.383788e+05   3.081884e+06
  -2.233952e+06   1.718919e+06
  -3.100404e+06  -6.590758e+05
  -2.419875e+06  -2.334549e+06
  -5.694900e+05  -2.406970e+06
   1.117235e+06  -1.274278e+06
   1.390279e+06  -1.374449e+05
   4.147523e+05   3.563389e+04
  -3.141901e+05  -6.183490e+05
   2.644141e+05  -1.039632e+06
   1.440079e+06  -4.803630e+05
   1.627531e+06   5.906794e+05
   4.002794e+05   1.068056e+06
  -9.328391e+05   5.316355e+05
  -8.630025e+05  -3.466003e+05
   6.069904e+05  -6.290816e+05
   1.975005e+06  -3.699641e+03
   1.771611e+06   1.090864e+06
  -2.220060e+04   1.843136e+06
  -1.939503e+06   1.572944e+06
  -2.356078e+06   3.093539e+05
  -1.013817e+06  -9.815505e+05
   7.125003e+05  -1.152321e+06
   1.176218e+06  -1.360919e+05
   1.026344e+05   8.376732e+05
  -1.238665e+06   6.043451e+05
  -1.456428e+06  -5.729448e+05
  -4.192356e+05  -1.359092e+06
   7.963799e+05  -9.458661e+05
   1.083890e+06   9.666861e+04
   3.214374e+05   5.954057e+05
  -5.935565e+05   7.259429e+04
  -5.950184e+05  -8.579104e+05
   5.035068e+05  -1.179948e+06
   1.694756e+06  -4.303403e+05
   1.696275e+06   8.870384e+05
   3.384518e+05   1.717670e+06
  -1.146661e+06   1.387771e+06
  -1.424348e+06   2.403665e+05
  -4.791387e+05  -6.941311e+05
   5.147531e+05  -7.126587e+05
   6.016931e+05  -7.008480e+04
  -2.702330e+04   4.236328e+05
  -5.004209e+05   3.173902e+05
  -3.084023e+05  -7.158323e+04
   2.599858e+05  -1.067657e+05
   4.925873e+05   4.127616e+05
  -6.104565e+04   9.678628e+05
  -1.112714e+06   7.935380e+05
  -1.753074e+06  -3.064700e+05
  -1.245212e+06  -1.613035e+06
   1.583727e+05  -2.071059e+06
   1.357630e+06  -1.303210e+06
   1.516433e+06   8.874075e+03
   8.825045e+05   8.237858e+05
   3.365107e+05   7.575908e+05
   3.039266e+05   3.214382e+05
   3.942285e+05   2.186800e+05
   5.854376e+04   5.571643e+05
  -6.839750e+05   7.911281e+05
  -1.239963e+06   3.654562e+05
  -9.964678e+05  -6.150473e+05
   1.206441e+05  -1.343852e+06
   1.449175e+06  -1.008358e+06
   1.949901e+06   3.570400e+05
   1.046136e+06   1.734733e+06
  -7.245141e+05   1.993949e+06
  -2.053005e+06   9.677467e+05
  -2.037729e+06  -4.147280e+05
  -9.793729e+05  -1.103554e+06
   6.814398e+04  -9.289630e+05
   4.085044e+05  -5.667574e+05
   2.325914e+05  -6.358431e+05
   1.681096e+05  -1.005770e+06
   5.308366e+05  -1.012921e+06
   1.037802e+06  -2.511130e+05
   1.116410e+06   9.143079e+05
   4.749002e+05   1.605730e+06
  -5.286689e+05   1.223272e+06
  -1.097396e+06   3.358481e+04
  -7.262067e+05  -1.024196e+06
   2.341154e+05  -1.169557e+06
   8.751322e+05  -4.457351e+05
   6.691036e+05   4.307101e+05
   4.822145e+03   8.175053e+05
  -3.118236e+05   6.746713e+05
  -9.646486e+03   4.023207e+05
   3.471598e+05   3.113683e+05
   3.891242e+04   3.371878e+05
  -9.219269e+05   2.024240e+05
  -1.681210e+06  -2.388256e+05
  -1.373205e+06  -8.157372e+05
  -5.820483e+04  -1.145706e+06
   1.239509e+06  -9.447585e+05
   1.507398e+06  -3.094146e+05
   7.318057e+05   2.987383e+05
  -1.760816e+05   4.294726e+05
  -3.998112e+05   7.565698e+04
   8.709015e+03  -2.935097e+05
   4.093376e+05  -2.057047e+05
   3.977045e+05   2.888683e+05
   1.422673e+05   6.393910e+05
   1.063879e+04   4.163446e+05
   1.203076e+05  -1.372369e+05
   2.901772e+05  -3.232695e+05
   2.499517e+05   1.841292e+05
  -1.485188e+05   8.672068e+05
  -7.499353e+05   8.954124e+05
  -1.063387e+06   9.990811e+04
  -6.368333e+05  -7.781793e+05
   3.484225e+05  -8.948205e+05
   1.015800e+06  -2.156848e+05
   6.163253e+05   5.064936e+05
  -5.684071e+05   5.703721e+05
  -1.380411e+06  -2.061667e+04
  -9.648249e+05  -6.950355e+05
   3.201584e+05  -9.037297e+05
   1.281861e+06  -5.325793e+05
   1.116495e+06   8.769240e+04
   1.607583e+05   4.515220e+05
  -5.377922e+05   2.714801e+05
  -3.024088e+05  -2.243375e+05
   5.324954e+05  -4.144527e+05
   1.004502e+06   1.175115e+05
   5.132809e+05   1.035494e+06
  -5.739603e+05   1.432022e+06
  -1.302149e+06   7.167981e+05
  -1.075751e+06  -6.677143e+05
  -1.757876e+05  -1.549113e+06
   6.232713e+05  -1.152943e+06
   8.040201e+05   9.679520e+04
   4.265779e+05   1.007693e+06
  -1.164531e+05   8.625476e+05
  -4.604630e+05   1.012217e+05
  -4.481395e+05  -3.272468e+05
  -1.921664e+05  -1.288512e+05
  -2.072283e+04   9.610868e+04
  -1.681240e+05  -2.223813e+05
  -4.159752e+05  -8.119984e+05
  -2.321413e+05  -9.299069e+05
   5.405934e+05  -3.495287e+05
   1.278372e+06   3.893368e+05
   1.159945e+06   7.040704e+05
   1.695477e+05   5.852812e+05
  -7.776978e+05   3.636097e+05
  -8.594781e+05   1.829839e+05
  -2.668198e+05  -1.748602e+04
   1.425507e+05  -1.907946e+05
  -2.919731e+04  -1.997414e+05
  -2.898811e+05  -1.069110e+05
  -2.115231e+04  -1.194348e+05
   6.312976e+05  -1.876815e+05
   8.906215e+05   2.454544e+04
   2.859594e+05   5.887859e+05
  -7.756096e+05   9.806683e+05
  -1.417442e+06   6.064743e+05
  -1.140609e+06  -4.044241e+05
  -2.173918e+05  -1.215345e+06
   6.394516e+05  -1.159377e+06
   8.994376e+05  -4.245695e+05
   5.727991e+05   2.282701e+05
   9.091855e+04   3.076970e+05
  -1.118361e+05   2.801690e+04
   4.792544e+04  -5.111081e+04
   2.828840e+05   2.948276e+05
   2.361212e+05   6.891338e+05
  -1.642247e+05   5.710942e+05
  -5.976319e+05  -1.379402e+05
  -6.057894e+05  -8.518869e+05
  -4.167021e+04  -8.823399e+05
   6.806845e+05  -1.659829e+05
   8.747820e+05   6.634544e+05
   2.660688e+05   9.323887e+05
  -6.211243e+05   5.439136e+05
  -9.335390e+05  -7.910498e+04
  -4.235287e+05  -4.908901e+05
   2.452205e+05  -5.340240e+05
   2.830527e+05  -3.006643e+05
  -2.594412e+05  -2.089464e+04
  -5.688052e+05   2.848280e+04
  -1.092803e+05  -2.559779e+05
   7.048186e+05  -5.890305e+05
   1.034445e+06  -4.956204e+05
   6.036578e+05   1.187100e+05
  -8.677743e+04   7.264384e+05
  -4.329360e+05   7.112697e+05
  -3.217284e+05   1.019676e+05
  -2.447959e+04  -4.311553e+05
   2.150117e+05  -3.492878e+05
   3.081064e+05   1.654647e+05
   2.121537e+05   4.960238e+05
  -5.897897e+04   3.299171e+05
  -3.347414e+05  -5.556238e+04
  -3.906402e+05  -2.126832e+05
  -2.048382e+05  -5.694841e+04
   6.123164e+03   9.874197e+04
   6.385252e+04  -2.856712e+04
   4.280290e+04  -3.340362e+05
   1.257731e+05  -4.344601e+05
   3.054006e+05  -1.164515e+05
   3.439916e+05   3.772588e+05
   6.428087e+04   5.677012e+05
  -3.715402e+05   2.518971e+05
  -5.449613e+05  -2.678362e+05
  -1.989991e+05  -5.089290e+05
   4.226413e+05  -3.063679e+05
   7.337707e+05   8.409014e+04
   3.987319e+05   3.250325e+05
  -2.541150e+05   3.130286e+05
  -5.398370e+05   1.580994e+05
  -1.838142e+05   6.426026e+03
   3.432473e+05  -3.120498e+04
   3.706816e+05   9.685663e+04
  -1.766488e+05   2.796476e+05
  -6.948628e+05   2.374757e+05
