
 $NMID
 id='ANONYMOUS ', fmtdat='(2E16.6)'
 volume=1.0
 tramp=1.0
 $END
   1.807973e+07   8.177063e+05
   1.234642e+07   6.786011e+06
   1.245902e+06   1.057472e+07
  -7.000365e+06   9.445734e+06
  -7.284349e+06   3.010778e+06
  -1.478295e+06  -3.326127e+06
   3.931127e+06  -3.178713e+06
   4.149368e+06   2.622257e+06
   9.234142e+04   6.455120e+06
  -3.559115e+06   3.425347e+06
  -3.473344e+06  -2.693175e+06
  -4.349442e+05  -4.685512e+06
   2.206595e+06  -7.144242e+05
   1.921892e+06   4.312613e+06
  -9.011385e+05   4.994208e+06
  -3.406038e+06   9.229698e+05
  -2.850849e+06  -3.818801e+06
   6.000907e+05  -5.071501e+06
   3.734629e+06  -2.257683e+06
   3.606271e+06   1.526137e+06
   8.990825e+05   2.828729e+06
  -8.571110e+05   1.430621e+06
   4.417421e+05   2.647800e+05
   2.897034e+06   1.578990e+06
   2.846136e+06   4.066617e+06
  -8.467115e+05   4.603941e+06
  -5.331109e+06   2.118570e+06
  -6.513290e+06  -1.377978e+06
  -3.091758e+06  -3.218242e+06
   1.963291e+06  -2.415672e+06
   4.021233e+06   1.339630e+05
   1.332415e+06   2.463304e+06
  -3.058347e+06   2.526032e+06
  -4.528133e+06  -1.732854e+05
  -1.956873e+06  -3.412548e+06
   1.335315e+06  -3.934484e+06
   1.897137e+06  -1.141473e+06
   7.304017e+04   1.798524e+06
  -1.239509e+06   1.537153e+06
  -5.623783e+05  -1.415847e+06
   9.721147e+05  -3.409781e+06
   1.817757e+06  -2.132954e+06
   1.638858e+06   8.528004e+05
   7.029649e+05   2.274346e+06
  -6.447750e+05   8.653381e+05
  -1.360965e+06  -1.617812e+06
  -1.046388e+05  -2.531333e+06
   2.683330e+06  -9.158387e+05
   4.225695e+06   1.834138e+06
   2.325658e+06   3.391924e+06
  -1.650828e+06   2.576565e+06
  -3.992174e+06   2.882515e+05
  -2.760543e+06  -1.478395e+06
   3.217572e+05  -1.512564e+06
   2.138489e+06  -2.927551e+05
   1.410909e+06   7.679631e+05
  -5.427833e+05   6.981542e+05
  -1.518696e+06  -3.329997e+05
  -5.512120e+05  -1.301527e+06
   1.224472e+06  -1.203662e+06
   1.672107e+06   1.263377e+04
   2.387627e+04   1.185203e+06
  -1.902639e+06   9.032942e+05
  -1.542196e+06  -9.413101e+05
   1.280525e+06  -2.724531e+06
   3.909007e+06  -2.565954e+06
   3.930373e+06  -2.598655e+05
   1.851395e+06   2.488458e+06
   2.645231e+04   3.778677e+06
  -3.677665e+05   3.267744e+06
  -2.593275e+05   2.141660e+06
  -8.829300e+05   1.539256e+06
  -2.154882e+06   1.281641e+06
  -3.028147e+06   3.303529e+05
  -2.678154e+06  -1.569671e+06
  -1.056389e+06  -3.077571e+06
   1.093898e+06  -2.511341e+06
   2.434402e+06   7.538644e+04
   1.846239e+06   2.539561e+06
  -3.782654e+05   2.719006e+06
  -2.439940e+06   6.423121e+05
  -2.660453e+06  -1.670237e+06
  -1.158542e+06  -2.442548e+06
   4.359654e+05  -1.735159e+06
   8.778310e+05  -8.496574e+05
   5.672758e+05  -6.963561e+05
   8.382169e+05  -1.025240e+06
   2.207979e+06  -9.369070e+05
   3.530908e+06   1.829807e+05
   3.026387e+06   2.060387e+06
   2.755742e+05   3.554410e+06
  -2.905265e+06   3.421262e+06
  -3.966728e+06   1.459645e+06
  -2.200007e+06  -1.025878e+06
   4.693603e+05  -2.204710e+06
   1.523037e+06  -1.396531e+06
   4.286365e+05   2.784560e+05
  -1.158454e+06   1.044615e+06
  -1.493146e+06   2.714121e+05
  -4.728239e+05  -9.388762e+05
   6.753477e+05  -1.017853e+06
   8.118083e+05   2.389018e+05
  -2.158949e+05   1.281126e+06
  -1.566596e+06   4.674645e+05
  -1.940638e+06  -1.909398e+06
  -5.377782e+05  -3.618219e+06
   1.993339e+06  -2.769272e+06
   3.734962e+06   1.019951e+05
   3.175080e+06   2.568989e+06
   8.044260e+05   2.845812e+06
  -1.293230e+06   1.407082e+06
  -1.561553e+06   7.347960e+04
  -4.449488e+05  -3.648623e+04
   3.503169e+05   6.477880e+05
  -1.828209e+05   1.014816e+06
  -1.350649e+06   5.134816e+05
  -1.654464e+06  -4.487623e+05
  -5.240639e+05  -1.004739e+06
   9.413691e+05  -6.304329e+05
   1.061848e+06   3.387498e+05
  -5.388017e+05   9.065003e+05
  -2.302239e+06   3.112391e+05
  -2.259188e+06  -1.136689e+06
  -1.788781e+05  -2.208009e+06
   2.093067e+06  -1.894239e+06
   2.557032e+06  -4.160537e+05
   1.076201e+06   9.546251e+05
  -6.861473e+05   1.102905e+06
  -1.095381e+06   1.235743e+05
  -3.275264e+04  -8.065608e+05
   1.281576e+06  -6.264571e+05
   1.575763e+06   5.166784e+05
   6.097137e+05   1.428163e+06
  -7.168391e+05   1.168518e+06
  -1.203410e+06   9.174434e+04
  -4.856375e+05  -5.713184e+05
   5.441969e+05  -1.136101e+05
   6.051943e+05   8.830894e+05
  -5.644612e+05   1.235817e+06
  -1.818310e+06   4.211119e+05
  -1.789968e+06  -9.579992e+05
  -3.765924e+05  -1.805013e+06
   1.152323e+06  -1.491687e+06
   1.494535e+06  -3.320041e+05
   5.820639e+05   7.031170e+05
  -5.072055e+05   8.081727e+05
  -7.274250e+05   7.473220e+04
  -4.885029e+04  -6.045567e+05
   6.528014e+05  -5.033655e+05
   5.775690e+05   1.136347e+05
  -1.497657e+05   3.307489e+05
  -6.070175e+05  -2.621049e+05
  -7.135741e+04  -1.006498e+06
   1.134557e+06  -8.980449e+05
   1.878948e+06   2.828619e+05
   1.342695e+06   1.703416e+06
  -1.506847e+05   2.257836e+06
  -1.464391e+06   1.529190e+06
  -1.745581e+06   9.631933e+04
  -1.132046e+06  -9.819149e+05
  -4.255831e+05  -1.071961e+06
  -1.944003e+05  -5.040254e+05
  -2.621333e+05  -1.701935e+05
  -4.551842e+04  -4.902759e+05
   6.721086e+05  -8.887857e+05
   1.361537e+06  -4.977892e+05
   1.202096e+06   6.795674e+05
  -3.313790e+04   1.586144e+06
  -1.562934e+06   1.203327e+06
  -2.160248e+06  -3.328049e+05
  -1.228444e+06  -1.827275e+06
   6.291627e+05  -2.144500e+06
   2.101859e+06  -1.157303e+06
   2.262798e+06   2.839532e+05
   1.260292e+06   1.170045e+06
   4.209985e+04   1.165384e+06
  -5.494695e+05   7.667434e+05
  -4.559179e+05   6.683672e+05
  -2.759283e+05   9.535067e+05
  -5.255131e+05   9.965540e+05
  -1.047518e+06   2.473090e+05
  -1.178289e+06  -9.887487e+05
  -5.075593e+05  -1.734370e+06
   5.788092e+05  -1.322676e+06
   1.196057e+06  -7.365762e+04
   8.297035e+05   1.033346e+06
  -1.384034e+05   1.251428e+06
  -8.193455e+05   6.104584e+05
  -7.102340e+05  -2.700419e+05
  -1.426645e+05  -7.754679e+05
   1.654541e+05  -7.522659e+05
  -6.020602e+04  -4.999752e+05
  -3.457210e+05  -3.690848e+05
  -2.441468e+04  -3.780615e+05
   9.338560e+05  -2.477393e+05
   1.732431e+06   2.082780e+05
   1.484876e+06   8.096570e+05
   1.738634e+05   1.156352e+06
  -1.207325e+06   9.938182e+05
  -1.577783e+06   4.209545e+05
  -8.287065e+05  -1.795770e+05
   1.320183e+05  -4.005508e+05
   3.935426e+05  -1.405178e+05
  -4.911486e+04   2.348335e+05
  -4.839702e+05   1.995868e+05
  -4.137490e+05  -3.121161e+05
  -5.553241e+04  -7.176965e+05
   8.130617e+04  -4.558229e+05
  -1.403371e+05   2.184844e+05
  -3.886623e+05   4.371288e+05
  -2.902220e+05  -1.854223e+05
   2.050964e+05  -9.708192e+05
   7.986751e+05  -9.506024e+05
   1.027424e+06  -4.575885e+04
   5.715606e+05   8.403032e+05
  -3.720475e+05   8.716903e+05
  -1.026276e+06   1.387418e+05
  -6.511200e+05  -5.770633e+05
   5.841601e+05  -6.398085e+05
   1.537150e+06  -4.369361e+04
   1.183667e+06   7.181488e+05
  -2.401569e+05   1.064675e+06
  -1.411417e+06   7.291729e+05
  -1.302226e+06  -1.183100e+04
  -2.301302e+05  -5.123953e+05
   5.684519e+05  -3.466694e+05
   2.954652e+05   2.088905e+05
  -6.230010e+05   4.001597e+05
  -1.077398e+06  -2.021048e+05
  -4.632065e+05  -1.160320e+06
   7.319933e+05  -1.511627e+06
   1.465189e+06  -7.058633e+05
   1.161820e+06   7.658306e+05
   1.748761e+05   1.709140e+06
  -6.813049e+05   1.310000e+06
  -8.957330e+05  -4.100337e+04
  -5.335056e+05  -1.089759e+06
   4.055403e+04  -9.903902e+05
   4.765145e+05  -1.478592e+05
   5.520124e+05   3.718584e+05
   2.793748e+05   1.634807e+05
  -4.102227e+03  -1.268591e+05
   8.341245e+04   1.936568e+05
   4.160722e+05   8.648137e+05
   3.379498e+05   1.031250e+06
  -4.929717e+05   3.978289e+05
  -1.409270e+06  -4.284219e+05
  -1.345889e+06  -7.696467e+05
  -1.945918e+05  -6.217872e+05
   9.191950e+05  -3.865922e+05
   9.647022e+05  -2.249404e+05
   2.321031e+05  -2.290392e+04
  -1.835640e+05   1.999175e+05
   1.137791e+05   2.599977e+05
   4.035301e+05   1.663493e+05
  -1.238921e+04   1.355364e+05
  -7.837053e+05   1.648473e+05
  -9.573780e+05  -6.247264e+04
  -1.747301e+05  -6.283400e+05
   9.385918e+05  -1.004102e+06
   1.488116e+06  -5.774486e+05
   1.125222e+06   5.039855e+05
   1.858679e+05   1.339265e+06
  -6.861116e+05   1.222423e+06
  -9.811692e+05   3.894482e+05
  -6.321983e+05  -3.050049e+05
  -5.657499e+04  -3.340873e+05
   1.979932e+05   2.298500e+04
  -2.433694e+04   1.144482e+05
  -3.444782e+05  -2.974580e+05
  -2.826775e+05  -7.514089e+05
   2.045285e+05  -5.992777e+05
   6.643428e+05   2.178503e+05
   5.928721e+05   9.928228e+05
  -6.446859e+04   9.498372e+05
  -7.939626e+05   8.667250e+04
  -9.111216e+05  -8.124621e+05
  -2.169668e+05  -1.012834e+06
   6.980925e+05  -5.172146e+05
   9.706877e+05   1.270698e+05
   4.029695e+05   4.833616e+05
  -2.702446e+05   4.990810e+05
  -2.438898e+05   3.030973e+05
   3.570272e+05   5.637075e+04
   6.381613e+05  -8.450059e+03
   8.768851e+04   2.652740e+05
  -7.755737e+05   6.377928e+05
  -1.066642e+06   5.770582e+05
  -5.772956e+05  -8.010821e+04
   1.143183e+05  -7.568389e+05
   4.165896e+05  -7.328659e+05
   2.756465e+05  -4.932646e+04
  -2.179907e+04   5.001276e+05
  -2.548079e+05   3.338017e+05
  -3.359352e+05  -2.534101e+05
  -2.096520e+05  -5.453683e+05
   8.946557e+04  -2.947128e+05
   3.594458e+05   9.713959e+04
   3.954901e+05   1.911900e+05
   2.202038e+05   2.318366e+04
   3.025474e+04  -5.390764e+04
  -6.801530e+04   1.407545e+05
  -1.482126e+05   4.064554e+05
  -2.813069e+05   3.945805e+05
  -3.782342e+05  -5.038517e+03
  -2.745674e+05  -4.994153e+05
   6.456933e+04  -6.293984e+05
   4.441430e+05  -2.312652e+05
   5.397074e+05   3.491977e+05
   1.692452e+05   5.849562e+05
  -4.449188e+05   3.125248e+05
  -7.535938e+05  -1.394624e+05
  -4.046497e+05  -3.637588e+05
   2.834525e+05  -2.819307e+05
   5.713657e+05  -9.518670e+04
   1.454167e+05   8.905497e+03
  -4.497709e+05  -2.933468e+04
  -4.305842e+05  -1.910805e+05
   2.601638e+05  -3.461869e+05
   8.620314e+05  -2.393096e+05
