
 $NMID
 id='ANONYMOUS ', fmtdat='(2E16.6)'
 volume=1.0
 tramp=1.0
 $END
  -2.237382e+06  -3.644173e+06
   1.424284e+06  -3.965055e+06
   3.296070e+06  -9.325463e+05
   1.937687e+06   1.869030e+06
  -3.614053e+05   1.787242e+06
  -9.904606e+05  -5.023469e+04
   3.372530e+03  -1.022135e+06
   9.107207e+05  -4.132532e+05
   8.600591e+05   5.385646e+05
   2.847077e+05   8.228111e+05
  -2.231268e+05   5.536376e+05
  -4.353743e+05   1.765366e+05
  -2.505831e+05  -8.238787e+04
   2.097892e+05  -5.049898e+04
   4.309093e+05   3.159650e+05
   4.094605e+04   6.591631e+05
  -6.176780e+05   5.446267e+05
  -9.113550e+05   3.541864e+04
  -7.095116e+05  -4.462855e+05
  -3.243047e+05  -6.958730e+05
   8.331772e+04  -7.616292e+05
   5.168838e+05  -5.902014e+05
   7.626263e+05  -1.318042e+05
   5.703549e+05   3.109376e+05
   1.485318e+05   3.507892e+05
  -3.471848e+04   1.030908e+05
   8.154642e+04   3.522482e+04
   1.490490e+05   2.461349e+05
   3.273004e+04   3.774288e+05
  -6.252077e+04   2.590924e+05
  -8.013710e+04   1.309328e+05
  -1.955293e+05   1.277497e+05
  -3.517405e+05   5.643916e+04
  -2.536985e+05  -1.399506e+05
   4.476831e+04  -1.849222e+05
   9.632207e+04   1.777566e+04
  -1.935979e+05   1.231699e+05
  -3.297430e+05  -9.409860e+04
  -3.566621e+04  -3.278005e+05
   2.517974e+05  -2.550890e+05
   1.271060e+05  -8.716009e+04
  -5.416893e+04  -1.541239e+05
   2.158368e+05  -2.509733e+05
   6.356054e+05   4.638849e+04
   4.688550e+05   5.753434e+05
  -2.676615e+05   6.885602e+05
  -7.261969e+05   1.816338e+05
  -4.087272e+05  -3.933461e+05
   2.068540e+05  -4.665942e+05
   4.175941e+05  -9.719025e+04
   1.528969e+05   2.692534e+05
  -1.850464e+05   3.455434e+05
  -3.209851e+05   1.356273e+05
  -2.365860e+05  -1.869630e+05
  -6.830876e+03  -3.544744e+05
   1.927087e+05  -1.970735e+05
   1.423798e+05   8.791721e+04
  -1.001863e+05   9.523036e+04
  -1.514175e+05  -2.171863e+05
   1.740173e+05  -3.895059e+05
   5.140331e+05  -9.077548e+04
   4.272781e+05   3.855808e+05
   1.247855e+04   5.303354e+05
  -2.769024e+05   2.932921e+05
  -2.812774e+05   2.128870e+04
  -2.130554e+05  -1.054726e+05
  -1.731627e+05  -1.901116e+05
  -2.129063e+04  -2.490828e+05
   2.315513e+05  -1.328831e+05
   3.046482e+05   1.326392e+05
   7.304280e+04   2.704947e+05
  -1.972164e+05   1.379317e+05
  -2.214358e+05  -7.375810e+04
  -6.504116e+04  -1.449827e+05
   4.351838e+04  -1.041946e+05
   6.157055e+04  -7.054306e+04
   8.616887e+04  -3.537197e+04
   1.179569e+05   3.957912e+04
   9.207636e+04   8.294361e+04
   4.530457e+04   4.606190e+04
   4.991581e+04   3.424074e+04
   4.839665e+04   1.333836e+05
  -5.973457e+04   2.245546e+05
  -2.144399e+05   1.499413e+05
  -2.556250e+05  -3.325545e+04
  -1.580321e+05  -1.475463e+05
  -4.129428e+04  -1.636989e+05
   3.281017e+04  -1.804557e+05
   1.062879e+05  -1.938239e+05
   1.736972e+05  -1.007637e+05
   1.565598e+05   7.589165e+04
   5.659689e+04   1.703629e+05
  -1.602403e+04   1.133454e+05
  -8.373476e+03   1.758260e+04
   1.213333e+04  -1.364924e+04
  -2.646232e+03  -5.293092e+03
  -1.070161e+04   4.092807e+03
   7.533818e+03   3.588862e+04
   1.343247e+03   7.230734e+04
  -2.844922e+04   4.098506e+04
  -9.561187e+02  -2.781869e+04
   7.268099e+04   9.762831e+03
   3.634144e+04   1.626810e+05
  -1.696807e+05   2.074479e+05
  -3.409213e+05  -9.644599e+03
  -2.443420e+05  -3.018623e+05
   5.504765e+04  -3.582100e+05
   2.689115e+05  -1.503225e+05
   2.464485e+05   6.708032e+04
   1.009932e+05   1.176943e+05
  -4.548565e+03   6.749853e+04
  -3.239593e+04   3.116446e+04
  -1.216337e+04   1.484888e+04
   3.578732e+04   3.142960e+03
   6.552056e+04   3.262362e+04
   1.746378e+04   9.423592e+04
  -7.385665e+04   9.335334e+04
  -8.838367e+04  -1.671694e+02
   1.866222e+03  -6.820502e+04
   6.502202e+04  -9.307716e+03
  -5.476577e+03   9.820114e+04
  -1.296881e+05   1.034482e+05
  -1.572472e+05  -8.691573e+03
  -7.150165e+04  -1.205886e+05
   2.379586e+04  -1.488130e+05
   6.647859e+04  -1.068334e+05
   7.481916e+04  -3.263704e+04
   5.894311e+04   4.274955e+04
   9.260684e+03   6.771105e+04
  -3.307127e+04   1.098272e+04
  -2.911844e+03  -6.444283e+04
   7.542166e+04  -5.579969e+04
   9.536085e+04   3.717149e+04
   1.765793e+04   1.026246e+05
  -6.767641e+04   6.812381e+04
  -6.644907e+04  -1.153150e+04
   5.396534e+02  -4.425834e+04
   4.645993e+04  -1.208847e+04
   3.100710e+04   3.965518e+04
  -2.123155e+04   6.649192e+04
  -6.979354e+04   4.373054e+04
  -8.063540e+04  -2.620883e+04
  -3.641278e+04  -9.010845e+04
   3.213006e+04  -7.784773e+04
   5.682275e+04   2.224619e+03
   1.529926e+04   5.208370e+04
  -2.786145e+04   1.198516e+04
  -7.320483e+03  -5.114933e+04
   4.653577e+04  -3.977218e+04
   5.083287e+04   3.366628e+04
  -1.068078e+04   7.159228e+04
  -6.921573e+04   2.969696e+04
  -6.454479e+04  -4.128795e+04
  -5.215771e+03  -7.905907e+04
   6.257391e+04  -6.619795e+04
   9.704723e+04  -9.212771e+03
   7.127480e+04   6.822815e+04
  -6.981682e+03   1.069036e+05
  -7.668086e+04   5.827593e+04
  -7.301592e+04  -3.377717e+04
  -1.041784e+04  -6.442821e+04
   2.824803e+04  -6.944599e+03
   2.109951e+03   4.481715e+04
  -3.490652e+04   1.045433e+04
  -1.750504e+04  -6.217522e+04
   3.946397e+04  -7.043662e+04
   7.005926e+04   1.951502e+03
   4.342361e+04   7.979193e+04
  -1.894093e+04   1.009637e+05
  -8.312239e+04   6.265768e+04
  -1.159113e+05  -1.474266e+04
  -8.239993e+04  -1.007081e+05
   1.529123e+04  -1.380489e+05
   1.054326e+05  -8.376827e+04
   1.069720e+05   2.012526e+04
   2.923976e+04   7.456928e+04
  -3.342896e+04   4.264635e+04
  -1.851461e+04  -8.205071e+03
   3.397158e+04  -5.504218e+03
   4.563936e+04   3.537528e+04
  -1.642395e+03   5.066502e+04
  -5.773218e+04   1.963832e+04
  -6.977558e+04  -2.516855e+04
  -2.835127e+04  -5.106481e+04
   3.577926e+04  -4.589991e+04
   7.569673e+04  -5.554110e+03
   5.895235e+04   5.460406e+04
  -3.124413e+03   8.613916e+04
  -6.008066e+04   5.065419e+04
  -7.106466e+04  -2.216323e+04
  -4.430415e+04  -5.909192e+04
  -1.770389e+04  -3.373287e+04
  -1.030240e+04   2.426011e+03
  -7.909875e+03  -7.617246e+03
   1.026391e+04  -5.330139e+04
   4.564669e+04  -7.588687e+04
   7.722490e+04  -4.071260e+04
   7.554702e+04   3.002871e+04
   2.917338e+04   8.466373e+04
  -3.278866e+04   8.631804e+04
  -5.870760e+04   3.930179e+04
  -3.094233e+04  -1.475221e+04
   9.595775e+03  -3.304715e+04
   1.515837e+04  -1.291696e+04
  -7.982827e+03   9.937862e+03
  -1.817091e+04   8.929561e+03
  -4.716826e+03  -2.546399e+03
   2.788411e+03   1.787833e+03
  -1.058962e+04   1.952636e+04
  -2.307513e+04   2.435455e+04
  -1.910813e+04   3.586257e+03
  -1.400624e+04  -2.838192e+04
  -1.676070e+04  -4.975013e+04
  -6.714405e+03  -4.748963e+04
   2.368159e+04  -1.934621e+04
   3.778926e+04   1.966818e+04
   7.594442e+03   3.550263e+04
  -2.771463e+04   5.257929e+03
  -7.355534e+03  -4.466525e+04
   5.613490e+04  -5.473396e+04
   8.209695e+04  -1.303322e+03
   3.055723e+04   6.788699e+04
  -4.292916e+04   8.519895e+04
  -6.327056e+04   3.912250e+04
  -2.745833e+04  -1.925334e+04
   1.023131e+04  -3.847282e+04
   1.538727e+04  -1.571062e+04
  -1.177293e+03   1.448592e+04
  -1.870150e+04   2.031491e+04
  -2.809374e+04  -3.546024e+03
  -2.073595e+04  -3.611719e+04
   9.857816e+03  -4.493929e+04
   4.640010e+04  -1.267512e+04
   5.260127e+04   3.970128e+04
   1.384983e+04   6.428749e+04
  -3.955177e+04   3.420113e+04
  -6.116355e+04  -2.265670e+04
  -3.516110e+04  -5.087073e+04
   1.054063e+04  -2.958298e+04
   3.374715e+04   6.059032e+03
   1.954285e+04   1.164375e+04
  -4.420584e+03  -1.152235e+04
   1.220777e+03  -2.325234e+04
   3.615785e+04  -4.049845e+02
   5.204231e+04   3.446213e+04
   1.197541e+04   4.613113e+04
  -5.251850e+04   3.005790e+04
  -7.249108e+04   7.546200e+03
  -2.936177e+04  -9.362462e+03
   2.153031e+04  -2.501565e+04
   2.725445e+04  -3.565482e+04
   3.572976e+03  -2.521653e+04
  -1.512476e+03   4.756878e+03
   1.671249e+04   2.467975e+04
   2.089810e+04   1.520452e+04
  -2.619181e+03  -1.555502e+03
  -2.346288e+04   5.768504e+03
  -1.863703e+04   2.552985e+04
  -5.199300e+03   1.576572e+04
  -4.048916e+03  -2.922592e+04
  -3.273664e+03  -5.944855e+04
   1.551304e+04  -3.367931e+04
   3.674719e+04   2.247629e+04
   2.997496e+04   4.938404e+04
  -3.882091e+02   2.964650e+04
  -1.749493e+04   1.726523e+03
  -5.580467e+03   8.541177e+02
   8.437206e+03   1.649827e+04
  -3.112762e+03   1.814857e+04
  -2.857484e+04   4.396040e+02
  -3.532352e+04  -1.537388e+04
  -1.378721e+04  -1.399876e+04
   1.434591e+04  -2.332238e+03
   2.490490e+04   5.387349e+03
   1.316560e+04   5.412821e+03
  -9.487814e+03   3.188983e+03
  -2.703491e+04   9.978909e+02
  -2.692364e+04  -6.082801e+03
  -8.314553e+03  -1.999292e+04
   1.479401e+04  -2.945003e+04
   2.593241e+04  -1.886692e+04
   2.320414e+04   7.989941e+03
   1.793434e+04   2.342907e+04
   1.697135e+04   8.813089e+03
   1.536065e+04  -1.366037e+04
   8.212678e+03  -3.639881e+03
  -5.302083e+02   3.946576e+04
  -6.645961e+03   6.592209e+04
  -1.375615e+04   3.859612e+04
  -2.420845e+04  -1.444599e+04
  -2.876959e+04  -3.572805e+04
  -1.736320e+04  -1.370852e+04
   2.197023e+03   9.949379e+03
   9.086200e+03   5.749653e+03
  -3.793540e+03  -7.630784e+03
  -1.858329e+04  -4.555570e+03
  -1.467150e+04   4.249749e+03
   5.116656e+03  -4.028775e+03
   1.896870e+04  -1.946007e+04
   1.303270e+04  -1.313532e+04
  -4.692482e+03   1.280438e+04
  -1.675590e+04   2.360018e+04
  -1.474740e+04   3.908139e+03
  -3.617446e+03  -1.914762e+04
   6.376775e+03  -1.725444e+04
   8.712217e+03  -4.157903e+02
   5.014561e+03   3.880601e+03
   2.788655e+03  -6.285721e+03
   6.383731e+03  -8.617651e+03
   1.004415e+04   6.261240e+03
   4.585382e+03   2.180103e+04
  -8.327580e+03   2.099378e+04
  -1.574986e+04   7.172364e+03
  -1.112620e+04  -5.841476e+03
  -4.562511e+03  -1.146594e+04
  -7.491768e+03  -1.172992e+04
  -1.342816e+04  -1.013714e+04
  -6.273626e+03  -9.711904e+03
   1.403185e+04  -1.182402e+04
   2.822215e+04  -1.180982e+04
