
 $NMID
 id='ANONYMOUS ', fmtdat='(2E16.6)'
 volume=1.0
 tramp=1.0
 $END
  -3.795003e+07   1.386451e+06
  -2.501627e+07  -2.038244e+07
   1.890842e+06  -2.539888e+07
   1.757376e+07  -1.324678e+07
   1.271101e+07   1.742682e+06
  -7.000925e+05   6.749513e+06
  -7.313583e+06   1.203950e+06
  -3.838854e+06  -6.483452e+06
   3.101597e+06  -8.363735e+06
   6.877184e+06  -3.002756e+06
   5.476159e+06   4.398072e+06
   7.733059e+05   6.745255e+06
  -3.052905e+06   1.831291e+06
  -2.300031e+06  -4.936056e+06
   2.387233e+06  -5.994123e+06
   5.887896e+06   4.431558e+04
   3.990309e+06   7.116254e+06
  -1.963887e+06   8.761704e+06
  -6.899148e+06   4.452240e+06
  -7.364959e+06  -1.477762e+06
  -4.071404e+06  -4.962366e+06
  -3.081800e+05  -5.070691e+06
   9.684007e+05  -3.447826e+06
  -5.124447e+05  -2.483795e+06
  -1.806895e+06  -3.270325e+06
   3.875531e+05  -4.359162e+06
   5.336391e+06  -3.233205e+06
   8.084339e+06   3.590420e+05
   5.164121e+06   3.556270e+06
  -7.351790e+05   3.654193e+06
  -3.759035e+06   1.178891e+06
  -1.759989e+06  -1.171460e+06
   1.957903e+06  -1.551531e+06
   3.381882e+06   3.077664e+04
   1.937831e+06   2.449959e+06
  -3.686943e+05   3.845009e+06
  -1.738885e+06   2.517435e+06
  -1.580187e+06  -7.718290e+05
  -3.588435e+05  -2.453515e+06
   4.707017e+05  -2.925548e+05
  -4.138283e+05   2.870482e+06
  -2.196219e+06   2.252315e+06
  -2.190892e+06  -2.052656e+06
   7.265672e+05  -4.475357e+06
   3.907446e+06  -1.290386e+06
   3.580073e+06   4.187881e+06
  -6.443000e+05   5.764554e+06
  -5.092244e+06   1.917812e+06
  -5.795322e+06  -3.125152e+06
  -2.195412e+06  -4.860592e+06
   2.648888e+06  -2.751539e+06
   4.801172e+06   6.417186e+05
   2.708432e+06   2.599262e+06
  -1.393561e+06   1.995427e+06
  -3.469111e+06  -2.346064e+05
  -1.801742e+06  -1.778720e+06
   1.129857e+06  -1.109511e+06
   1.685298e+06   7.088585e+05
  -4.501286e+05   1.234735e+06
  -2.070320e+06  -2.553075e+05
  -7.057219e+05  -1.933679e+06
   2.351068e+06  -1.828199e+06
   3.817924e+06   9.235195e+04
   2.113390e+06   2.499746e+06
  -1.471828e+06   4.075322e+06
  -4.443233e+06   3.767135e+06
  -5.069575e+06   1.088542e+06
  -3.277899e+06  -2.745440e+06
  -5.689099e+05  -5.011511e+06
   1.114928e+06  -4.162363e+06
   1.126177e+06  -1.775024e+06
   6.503184e+05  -5.813394e+05
   1.096200e+06  -9.858881e+05
   2.259171e+06  -9.588960e+05
   2.659589e+06   6.936689e+05
   1.460013e+06   2.492954e+06
  -5.923925e+05   2.279735e+06
  -1.998949e+06  -1.953593e+04
  -1.720303e+06  -2.377873e+06
   2.190151e+05  -2.844213e+06
   2.598664e+06  -1.153311e+06
   3.580121e+06   1.389322e+06
   2.273647e+06   3.061666e+06
  -1.257955e+05   3.017838e+06
  -1.522808e+06   1.890257e+06
  -1.423333e+06   1.017853e+06
  -1.401990e+06   9.047387e+05
  -2.663647e+06   7.177522e+05
  -4.038797e+06  -5.002502e+05
  -3.316414e+06  -2.485301e+06
  -1.755192e+05  -3.921673e+06
   3.140344e+06  -3.692589e+06
   4.126568e+06  -1.771343e+06
   2.422439e+06   7.394397e+05
  -1.244881e+05   2.207188e+06
  -1.321628e+06   1.650491e+06
  -4.881358e+05  -1.562069e+05
   1.144066e+06  -1.176945e+06
   1.731949e+06  -3.403356e+05
   7.142519e+05   1.076708e+06
  -6.163896e+05   1.065438e+06
  -6.297464e+05  -3.570166e+05
   7.185236e+05  -1.041517e+06
   1.850236e+06   4.522606e+05
   1.350845e+06   2.870457e+06
  -6.407142e+05   3.697327e+06
  -2.766228e+06   1.977579e+06
  -3.645916e+06  -8.953556e+05
  -2.721422e+06  -2.817602e+06
  -5.706500e+05  -2.803323e+06
   1.308963e+06  -1.435238e+06
   1.589512e+06  -1.296482e+05
   4.778012e+05   4.721244e+04
  -3.551740e+05  -7.198995e+05
   3.073194e+05  -1.214691e+06
   1.673933e+06  -5.645157e+05
   1.900952e+06   6.966313e+05
   4.652813e+05   1.257705e+06
  -1.094735e+06   6.066287e+05
  -9.895780e+05  -4.351905e+05
   7.506411e+05  -7.251624e+05
   2.318747e+06   6.647937e+04
   2.017049e+06   1.342590e+06
  -9.794828e+04   2.147636e+06
  -2.291227e+06   1.774340e+06
  -2.732378e+06   3.141389e+05
  -1.170692e+06  -1.148009e+06
   8.192159e+05  -1.335761e+06
   1.360531e+06  -1.678405e+05
   1.243013e+05   9.579146e+05
  -1.434532e+06   6.871304e+05
  -1.685634e+06  -6.874308e+05
  -4.620563e+05  -1.599664e+06
   9.619711e+05  -1.094965e+06
   1.278047e+06   1.413405e+05
   3.674216e+05   7.163955e+05
  -6.943541e+05   8.880853e+04
  -6.805468e+05  -9.932056e+05
   5.914879e+05  -1.349542e+06
   1.952614e+06  -4.728031e+05
   1.942029e+06   1.041805e+06
   3.706842e+05   1.988126e+06
  -1.345210e+06   1.595270e+06
  -1.658508e+06   2.588718e+05
  -5.463486e+05  -8.196826e+05
   6.123718e+05  -8.195620e+05
   6.911816e+05  -5.885893e+04
  -6.465251e+04   4.944609e+05
  -6.030982e+05   3.331874e+05
  -3.385671e+05  -1.255842e+05
   3.414060e+05  -1.316100e+05
   5.878471e+05   5.028194e+05
  -8.475974e+04   1.137963e+06
  -1.303822e+06   9.059771e+05
  -2.023316e+06  -3.802802e+05
  -1.415614e+06  -1.879230e+06
   2.193297e+05  -2.386207e+06
   1.604650e+06  -1.475697e+06
   1.760097e+06   5.583842e+04
   9.818119e+05   9.886413e+05
   3.320316e+05   8.784234e+05
   3.247869e+05   3.472515e+05
   4.678394e+05   2.341513e+05
   7.737469e+04   6.443383e+05
  -8.088111e+05   9.100967e+05
  -1.450242e+06   3.936609e+05
  -1.130805e+06  -7.443058e+05
   1.860331e+05  -1.556867e+06
   1.704227e+06  -1.134688e+06
   2.247348e+06   4.530372e+05
   1.181632e+06   2.032964e+06
  -8.706561e+05   2.311186e+06
  -2.403364e+06   1.097064e+06
  -2.365530e+06  -5.264144e+05
  -1.106670e+06  -1.320706e+06
   1.240314e+05  -1.081722e+06
   5.005141e+05  -6.228840e+05
   2.670063e+05  -6.963470e+05
   1.842514e+05  -1.146029e+06
   6.135947e+05  -1.170296e+06
   1.198655e+06  -2.858468e+05
   1.272752e+06   1.066491e+06
   5.220708e+05   1.856655e+06
  -6.282949e+05   1.399759e+06
  -1.270548e+06   1.822409e+04
  -8.306438e+05  -1.201671e+06
   2.907147e+05  -1.362894e+06
   1.041194e+06  -5.152004e+05
   7.963210e+05   5.123784e+05
   4.780935e+03   9.684986e+05
  -3.803965e+05   7.993358e+05
  -3.083419e+04   4.723367e+05
   3.908492e+05   3.582340e+05
   3.789286e+04   3.857089e+05
  -1.072544e+06   2.275554e+05
  -1.944525e+06  -2.901107e+05
  -1.580794e+06  -9.645619e+05
  -5.788060e+04  -1.342106e+06
   1.443771e+06  -1.091352e+06
   1.757709e+06  -3.375553e+05
   8.602251e+05   3.675023e+05
  -2.016325e+05   5.039505e+05
  -4.728848e+05   8.477701e+04
  -1.775246e+02  -3.348010e+05
   4.696408e+05  -2.246134e+05
   4.542691e+05   3.365735e+05
   1.532028e+05   7.219688e+05
   8.291058e+03   4.645661e+05
   1.518105e+05  -1.517707e+05
   3.507693e+05  -3.521885e+05
   2.863784e+05   2.199119e+05
  -1.886910e+05   9.881665e+05
  -8.759089e+05   1.022216e+06
  -1.221301e+06   1.203767e+05
  -7.259545e+05  -8.877449e+05
   4.003344e+05  -1.029823e+06
   1.161217e+06  -2.476118e+05
   6.977984e+05   5.897843e+05
  -6.689412e+05   6.521039e+05
  -1.599079e+06  -5.563652e+04
  -1.100442e+06  -8.403157e+05
   4.016648e+05  -1.049912e+06
   1.509296e+06  -5.830187e+05
   1.294715e+06   1.375299e+05
   1.718868e+05   5.309813e+05
  -6.330561e+05   3.042600e+05
  -3.515212e+05  -2.594484e+05
   6.104663e+05  -4.631669e+05
   1.143555e+06   1.470912e+05
   5.717684e+05   1.184715e+06
  -6.738651e+05   1.624030e+06
  -1.498252e+06   7.984212e+05
  -1.221669e+06  -7.845775e+05
  -1.728075e+05  -1.783803e+06
   7.465240e+05  -1.314714e+06
   9.340886e+05   1.311227e+05
   4.725294e+05   1.179512e+06
  -1.606171e+05   1.003497e+06
  -5.391599e+05   1.112387e+05
  -5.055299e+05  -3.944261e+05
  -2.126485e+05  -1.621920e+05
  -3.016169e+04   1.138272e+05
  -2.015495e+05  -2.447227e+05
  -4.697340e+05  -9.371954e+05
  -2.450662e+05  -1.088198e+06
   6.351821e+05  -4.081658e+05
   1.464372e+06   4.730878e+05
   1.320240e+06   8.442785e+05
   1.873302e+05   6.792804e+05
  -8.977285e+05   3.940276e+05
  -9.961739e+05   1.902862e+05
  -3.160960e+05  -1.687745e+04
   1.651117e+05  -2.130252e+05
  -2.010640e+04  -2.422511e+05
  -3.205222e+05  -1.404622e+05
  -2.277739e+04  -1.319434e+05
   7.202223e+05  -1.911874e+05
   1.020078e+06   4.020181e+04
   3.265969e+05   6.614027e+05
  -8.962613e+05   1.103405e+06
  -1.631762e+06   6.863377e+05
  -1.301005e+06  -4.640544e+05
  -2.288476e+05  -1.394738e+06
   7.503996e+05  -1.327569e+06
   1.031388e+06  -4.760531e+05
   6.463184e+05   2.719756e+05
   1.012167e+05   3.491054e+05
  -1.176570e+05   2.003244e+04
   6.670339e+04  -6.028866e+04
   3.231666e+05   3.512810e+05
   2.589585e+05   8.019179e+05
  -1.943071e+05   6.516687e+05
  -6.744713e+05  -1.687429e+05
  -6.751009e+05  -9.782763e+05
  -3.884021e+04  -9.996115e+05
   7.695776e+05  -1.745421e+05
   9.831633e+05   7.690411e+05
   2.936153e+05   1.066816e+06
  -7.117701e+05   6.151616e+05
  -1.069028e+06  -9.817044e+04
  -4.899227e+05  -5.652283e+05
   2.781356e+05  -6.135229e+05
   3.297257e+05  -3.528164e+05
  -2.901448e+05  -3.934522e+04
  -6.512605e+05   2.082296e+04
  -1.248522e+05  -2.921642e+05
   8.210727e+05  -6.651493e+05
   1.208411e+06  -5.613155e+05
   7.043405e+05   1.360378e+05
  -1.061445e+05   8.333435e+05
  -5.062777e+05   8.223141e+05
  -3.652011e+05   1.264109e+05
  -1.766500e+04  -4.879898e+05
   2.453216e+05  -3.970518e+05
   3.401289e+05   1.931388e+05
   2.357927e+05   5.713157e+05
  -6.216452e+04   3.773864e+05
  -3.788561e+05  -6.752354e+04
  -4.540033e+05  -2.484103e+05
  -2.413720e+05  -7.016420e+04
   1.548388e+04   1.099129e+05
   9.189768e+04  -2.781353e+04
   5.806059e+04  -3.658692e+05
   1.340277e+05  -4.778595e+05
   3.306093e+05  -1.265534e+05
   3.792029e+05   4.208035e+05
   6.763893e+04   6.327226e+05
  -4.237750e+05   2.789782e+05
  -6.158156e+05  -3.069469e+05
  -2.172784e+05  -5.807292e+05
   4.892529e+05  -3.488959e+05
   8.377025e+05   1.002710e+05
   4.532178e+05   3.760713e+05
  -2.882572e+05   3.573639e+05
  -6.126657e+05   1.784598e+05
  -2.113751e+05   1.373451e+04
   3.826804e+05  -2.015058e+04
   4.103602e+05   1.190050e+05
  -2.124224e+05   3.064487e+05
  -7.972475e+05   2.452069e+05
