
 $NMID
 id='ANONYMOUS ', fmtdat='(2E16.6)'
 volume=1.0
 tramp=1.0
 $END
   3.828571e+07  -1.638107e+06
   2.455606e+07   2.109521e+07
  -2.639993e+06   2.552112e+07
  -1.753084e+07   1.236616e+07
  -1.194347e+07  -2.458516e+06
   1.104747e+06  -6.493090e+06
   6.879671e+06  -6.736475e+05
   3.256098e+06   6.295445e+06
  -3.137246e+06   7.617157e+06
  -6.566878e+06   2.593089e+06
  -5.374754e+06  -4.171200e+06
  -9.504196e+05  -6.431655e+06
   2.920741e+06  -1.969308e+06
   2.383972e+06   4.407104e+06
  -2.164774e+06   5.500648e+06
  -5.643130e+06  -1.836346e+05
  -3.837116e+06  -6.921576e+06
   1.938432e+06  -8.541240e+06
   6.812486e+06  -4.485124e+06
   7.478670e+06   1.301072e+06
   4.370578e+06   5.027933e+06
   3.855234e+05   5.446132e+06
  -1.370089e+06   3.638259e+06
  -2.523210e+04   2.037697e+06
   1.712788e+06   2.452823e+06
   9.899552e+04   3.903289e+06
  -4.661607e+06   3.490295e+06
  -7.686007e+06   2.589728e+05
  -5.243633e+06  -3.153001e+06
   2.942401e+05  -3.737390e+06
   3.374726e+06  -1.637203e+06
   1.917021e+06   6.877332e+05
  -1.248038e+06   1.449685e+06
  -2.766737e+06   4.013435e+05
  -2.020620e+06  -1.819303e+06
  -1.716134e+05  -3.549664e+06
   1.519727e+06  -2.683044e+06
   1.932576e+06   5.534188e+05
   7.190865e+05   2.575644e+06
  -6.132421e+05   6.849898e+05
  -3.380574e+04  -2.532694e+06
   1.890004e+06  -2.126696e+06
   2.043942e+06   2.009342e+06
  -9.524612e+05   4.311741e+06
  -4.159255e+06   1.061881e+06
  -3.607277e+06  -4.341690e+06
   7.804812e+05  -5.773738e+06
   5.056339e+06  -1.948519e+06
   5.530554e+06   2.868716e+06
   2.057069e+06   4.465182e+06
  -2.401830e+06   2.527324e+06
  -4.354431e+06  -5.501230e+05
  -2.418098e+06  -2.356112e+06
   1.400704e+06  -1.825837e+06
   3.315686e+06   2.658387e+05
   1.669502e+06   1.729153e+06
  -1.111656e+06   1.073116e+06
  -1.529269e+06  -6.166824e+05
   5.259019e+05  -9.727459e+05
   1.839807e+06   5.224926e+05
   2.805077e+05   1.958405e+06
  -2.573888e+06   1.600815e+06
  -3.680637e+06  -2.996540e+05
  -1.961683e+06  -2.493876e+06
   1.247791e+06  -3.992420e+06
   3.960623e+06  -3.847769e+06
   4.787986e+06  -1.349248e+06
   3.382398e+06   2.458885e+06
   8.074575e+05   4.753964e+06
  -9.854860e+05   3.865474e+06
  -1.015186e+06   1.452151e+06
  -3.510096e+05   3.812231e+05
  -6.267060e+05   1.033109e+06
  -1.852958e+06   1.255929e+06
  -2.525313e+06  -2.309884e+05
  -1.641007e+06  -2.034505e+06
   2.216425e+05  -2.081528e+06
   1.685248e+06  -1.957744e+05
   1.687355e+06   1.934716e+06
   2.385601e+04   2.587859e+06
  -2.329758e+06   1.297332e+06
  -3.516570e+06  -1.045111e+06
  -2.394459e+06  -2.847412e+06
   7.583825e+03  -3.013629e+06
   1.504889e+06  -1.926008e+06
   1.425495e+06  -9.562184e+05
   1.288487e+06  -7.965244e+05
   2.383201e+06  -7.124521e+05
   3.686809e+06   3.001207e+05
   3.122407e+06   2.105497e+06
   3.586885e+05   3.534006e+06
  -2.615387e+06   3.524333e+06
  -3.614178e+06   1.908907e+06
  -2.289668e+06  -4.525359e+05
  -1.211539e+05  -2.014785e+06
   1.046358e+06  -1.641086e+06
   4.738222e+05   8.544383e+04
  -9.472272e+05   1.155692e+06
  -1.574750e+06   4.057045e+05
  -7.436142e+05  -9.688003e+05
   4.653132e+05  -1.006720e+06
   5.266558e+05   2.737361e+05
  -6.428992e+05   8.514091e+05
  -1.608857e+06  -5.149708e+05
  -1.136064e+06  -2.583050e+06
   5.809942e+05  -3.178866e+06
   2.376565e+06  -1.665808e+06
   3.167238e+06   7.012981e+05
   2.476973e+06   2.299811e+06
   6.575020e+05   2.404497e+06
  -1.067268e+06   1.369358e+06
  -1.414597e+06   2.355785e+05
  -4.328707e+05  -1.510488e+04
   3.567083e+05   6.303364e+05
  -2.426457e+05   1.126232e+06
  -1.524040e+06   5.849220e+05
  -1.755417e+06  -5.735648e+05
  -4.527333e+05  -1.130899e+06
   9.593837e+05  -5.882781e+05
   8.788851e+05   3.281802e+05
  -6.370791e+05   6.266074e+05
  -2.013067e+06   1.796132e+04
  -1.801379e+06  -1.061265e+06
  -1.105569e+04  -1.860171e+06
   1.934895e+06  -1.681025e+06
   2.426261e+06  -4.240339e+05
   1.113274e+06   9.918663e+05
  -6.944890e+05   1.275649e+06
  -1.259907e+06   2.176285e+05
  -1.768726e+05  -8.872238e+05
   1.266543e+06  -7.026180e+05
   1.544211e+06   5.443820e+05
   4.656786e+05   1.403978e+06
  -8.205829e+05   9.884032e+05
  -1.127743e+06  -9.780891e+04
  -3.296237e+05  -6.255316e+05
   6.399185e+05  -1.011629e+05
   6.751808e+05   8.683141e+05
  -4.515425e+05   1.260502e+06
  -1.735924e+06   5.498190e+05
  -1.818230e+06  -8.270966e+05
  -4.420681e+05  -1.777276e+06
   1.138101e+06  -1.505943e+06
   1.479010e+06  -3.073387e+05
   5.179582e+05   7.094985e+05
  -5.105880e+05   7.578146e+05
  -5.985814e+05   1.021037e+05
   3.280407e+04  -4.030909e+05
   4.771364e+05  -3.069988e+05
   2.544265e+05   5.732252e+04
  -3.087467e+05   7.016443e+04
  -5.194662e+05  -4.554554e+05
   4.783748e+04  -1.023123e+06
   1.131476e+06  -8.739182e+05
   1.840211e+06   2.364370e+05
   1.379959e+06   1.616412e+06
  -5.950104e+04   2.151015e+06
  -1.343130e+06   1.390535e+06
  -1.547188e+06   3.858030e+04
  -9.060323e+05  -7.882976e+05
  -3.623292e+05  -6.995382e+05
  -3.633419e+05  -2.681538e+05
  -4.685738e+05  -2.173993e+05
  -1.000036e+05  -6.048274e+05
   6.865579e+05  -8.502304e+05
   1.264042e+06  -4.161207e+05
   1.030831e+06   5.849694e+05
  -8.519078e+04   1.366467e+06
  -1.453708e+06   1.091854e+06
  -2.028148e+06  -2.823166e+05
  -1.152406e+06  -1.759404e+06
   6.864140e+05  -2.115089e+06
   2.113352e+06  -1.087185e+06
   2.124545e+06   3.685923e+05
   1.019453e+06   1.105810e+06
  -5.931168e+04   9.265493e+05
  -3.692501e+05   5.624337e+05
  -1.495167e+05   6.687920e+05
  -8.887042e+04   1.085022e+06
  -5.054537e+05   1.107749e+06
  -1.082047e+06   3.256439e+05
  -1.214300e+06  -8.866954e+05
  -5.801243e+05  -1.639289e+06
   4.804113e+05  -1.296101e+06
   1.134603e+06  -8.292770e+04
   7.983135e+05   1.045046e+06
  -2.112614e+05   1.233116e+06
  -9.235597e+05   4.783645e+05
  -7.281368e+05  -4.643485e+05
  -1.501738e+04  -8.827180e+05
   3.356018e+05  -7.165859e+05
   1.060240e+04  -4.023277e+05
  -3.835204e+05  -2.939485e+05
  -6.281190e+04  -3.429961e+05
   9.634251e+05  -2.538005e+05
   1.781239e+06   1.678256e+05
   1.470074e+06   7.920086e+05
   9.427550e+04   1.211810e+06
  -1.269977e+06   1.058794e+06
  -1.563843e+06   3.796821e+05
  -7.699089e+05  -3.117140e+05
   1.731458e+05  -4.746666e+05
   4.234693e+05  -8.512615e+04
   2.103554e+04   3.260342e+05
  -4.008633e+05   2.398900e+05
  -4.322746e+05  -2.774990e+05
  -2.080231e+05  -6.439205e+05
  -5.890156e+04  -4.257468e+05
  -1.172777e+05   1.288626e+05
  -2.661533e+05   3.233977e+05
  -2.640175e+05  -1.820403e+05
   9.636221e+04  -8.959632e+05
   7.320333e+05  -9.738048e+05
   1.128456e+06  -1.827758e+05
   7.344260e+05   7.681494e+05
  -3.106541e+05   9.730548e+05
  -1.057645e+06   3.071713e+05
  -6.691262e+05  -4.831786e+05
   5.679584e+05  -6.165375e+05
   1.422267e+06  -3.261529e+04
   9.997664e+05   6.835314e+05
  -3.162758e+05   9.338969e+05
  -1.299228e+06   5.772830e+05
  -1.138983e+06  -5.780609e+04
  -1.742741e+05  -4.549436e+05
   5.486415e+05  -2.960309e+05
   3.355953e+05   2.244289e+05
  -5.147358e+05   4.696291e+05
  -1.047008e+06  -4.674667e+04
  -6.114769e+05  -1.030906e+06
   4.857464e+05  -1.520984e+06
   1.292690e+06  -8.298152e+05
   1.149560e+06   6.221920e+05
   2.681983e+05   1.586269e+06
  -5.846805e+05   1.210682e+06
  -8.338418e+05  -7.591621e+04
  -4.761868e+05  -1.024503e+06
   1.004351e+05  -8.877259e+05
   4.793497e+05  -1.198184e+05
   4.626561e+05   3.128632e+05
   1.852742e+05   1.194033e+05
   2.459589e+04  -9.541743e+04
   2.153769e+05   2.305809e+05
   4.846357e+05   8.217075e+05
   2.653569e+05   9.477741e+05
  -5.678276e+05   3.894343e+05
  -1.338233e+06  -3.340007e+05
  -1.214373e+06  -6.689181e+05
  -2.044708e+05  -6.011151e+05
   7.646399e+05  -4.173504e+05
   8.723614e+05  -2.268678e+05
   2.948412e+05   1.317175e+04
  -1.291051e+05   2.060184e+05
   1.641381e+04   1.965248e+05
   2.792022e+05   8.476676e+04
   3.787235e+04   1.195017e+05
  -6.147467e+05   2.349765e+05
  -9.246600e+05   3.253663e+04
  -3.656720e+05  -5.919425e+05
   7.213869e+05  -1.069802e+06
   1.446004e+06  -7.282221e+05
   1.231390e+06   3.352062e+05
   3.032114e+05   1.239206e+06
  -6.008748e+05   1.244975e+06
  -9.044050e+05   5.073524e+05
  -6.001303e+05  -1.902508e+05
  -1.222858e+05  -3.120407e+05
   9.091340e+04  -4.677106e+04
  -5.692055e+04   4.021631e+04
  -2.991855e+05  -2.978969e+05
  -2.738834e+05  -7.010331e+05
   1.313927e+05  -6.047887e+05
   6.191330e+05   9.257936e+04
   6.880558e+05   8.281797e+05
   1.211030e+05   9.091958e+05
  -6.768994e+05   2.320300e+05
  -9.482455e+05  -6.130111e+05
  -3.452782e+05  -9.481138e+05
   6.044903e+05  -6.157705e+05
   9.810380e+05   1.883917e+04
   4.825154e+05   4.971095e+05
  -2.210120e+05   5.882723e+05
  -2.936687e+05   3.354331e+05
   2.474669e+05   1.399955e+03
   5.807781e+05  -6.533126e+04
   1.359326e+05   2.614611e+05
  -6.952958e+05   6.476109e+05
  -1.061737e+06   5.598882e+05
  -6.549682e+05  -1.010600e+05
   4.415053e+04  -7.648041e+05
   4.234784e+05  -7.726215e+05
   3.456566e+05  -1.427505e+05
   6.056045e+04   4.342738e+05
  -1.961933e+05   3.848966e+05
  -3.245184e+05  -1.344134e+05
  -2.516514e+05  -4.994949e+05
   3.383509e+04  -3.613471e+05
   3.491881e+05   2.924753e+04
   4.253512e+05   2.092019e+05
   2.172697e+05   5.864842e+04
  -2.398477e+04  -1.152358e+05
  -6.931085e+04   2.576846e+03
   5.044128e+01   3.319297e+05
  -6.373087e+04   4.721957e+05
  -2.917849e+05   1.715433e+05
  -4.002123e+05  -3.433277e+05
  -1.336962e+05  -5.753675e+05
   3.582085e+05  -2.907728e+05
   5.906545e+05   2.298789e+05
   2.449586e+05   5.054210e+05
  -4.242720e+05   3.459377e+05
  -7.742505e+05  -3.273843e+04
  -4.376218e+05  -3.110599e+05
   2.419575e+05  -3.534642e+05
   5.515160e+05  -2.143693e+05
   2.043677e+05  -2.304721e+04
  -3.297931e+05   6.514243e+04
  -3.777346e+05  -5.772513e+04
   1.506526e+05  -2.844397e+05
   6.761153e+05  -2.838879e+05
