
 $NMID
 id='ANONYMOUS ', fmtdat='(2E16.6)'
 volume=1.0
 tramp=1.0
 $END
   6.895043e+06  -2.430893e+05
   4.717105e+06   3.152133e+06
   9.863092e+04   4.407627e+06
  -2.925393e+06   2.951486e+06
  -2.493460e+06   3.031646e+05
  -1.679310e+05  -1.245926e+06
   1.386505e+06  -6.324375e+05
   1.065794e+06   1.090258e+06
  -2.923062e+05   1.891671e+06
  -1.273969e+06   8.693904e+05
  -1.143738e+06  -8.564181e+05
  -1.865921e+05  -1.434218e+06
   6.543440e+05  -3.267206e+05
   5.652177e+05   1.167200e+06
  -3.664046e+05   1.410216e+06
  -1.156411e+06   1.595881e+05
  -9.003088e+05  -1.333185e+06
   2.611910e+05  -1.731635e+06
   1.294387e+06  -8.657986e+05
   1.361140e+06   3.475672e+05
   6.172631e+05   9.480665e+05
  -6.224365e+04   7.794834e+05
  -2.934663e+04   4.329988e+05
   4.878852e+05   5.028580e+05
   6.337257e+05   9.432593e+05
  -1.397701e+05   1.158511e+06
  -1.353363e+06   7.023611e+05
  -1.855956e+06  -1.931722e+05
  -1.050313e+06  -8.381453e+05
   3.458778e+05  -7.675100e+05
   9.991985e+05  -1.366607e+05
   3.994020e+05   4.772169e+05
  -6.516233e+05   5.514785e+05
  -1.034363e+06  -7.704497e+03
  -5.155086e+05  -7.567946e+05
   2.118160e+05  -1.003956e+06
   4.564934e+05  -4.591541e+05
   1.948075e+05   3.385762e+05
  -1.242171e+05   4.986475e+05
  -1.340637e+05  -1.674152e+05
   1.693780e+05  -8.183505e+05
   4.970624e+05  -5.742188e+05
   4.946378e+05   3.432720e+05
   4.265583e+04   8.374763e+05
  -5.286934e+05   2.906116e+05
  -6.239005e+05  -6.885397e+05
   2.701665e+04  -1.020658e+06
   9.526551e+05  -3.767945e+05
   1.281544e+06   5.853953e+05
   6.101412e+05   1.025582e+06
  -5.219266e+05   6.967424e+05
  -1.121053e+06  -4.279545e+03
  -7.175001e+05  -4.916497e+05
   1.937545e+05  -4.508679e+05
   7.018721e+05  -3.413364e+04
   4.162133e+05   3.024166e+05
  -2.004353e+05   2.323395e+05
  -4.131258e+05  -1.188517e+05
  -3.506805e+04  -3.289804e+05
   4.111248e+05  -1.550757e+05
   3.297817e+05   2.165453e+05
  -2.531649e+05   3.893508e+05
  -7.058492e+05   1.397633e+05
  -4.742943e+05  -4.068393e+05
   3.282006e+05  -8.616207e+05
   1.044261e+06  -8.208920e+05
   1.133664e+06  -1.891923e+05
   6.532524e+05   6.509436e+05
   9.615869e+04   1.108228e+06
  -1.560813e+05   9.470647e+05
  -1.543396e+05   5.143334e+05
  -1.960739e+05   2.907006e+05
  -4.275344e+05   3.032796e+05
  -6.861110e+05   1.703517e+05
  -6.913451e+05  -2.884950e+05
  -3.324914e+05  -7.168687e+05
   2.110056e+05  -6.234535e+05
   5.768784e+05   1.034970e+03
   4.744397e+05   6.246080e+05
  -6.285846e+04   7.147471e+05
  -6.391183e+05   2.380176e+05
  -7.964880e+05  -3.775696e+05
  -4.413439e+05  -6.858155e+05
   6.057433e+04  -5.923231e+05
   2.886033e+05  -3.444905e+05
   2.370469e+05  -2.228486e+05
   2.738716e+05  -2.575442e+05
   6.147827e+05  -2.312321e+05
   9.677842e+05   5.974877e+04
   8.249068e+05   5.586395e+05
   8.209968e+04   9.542350e+05
  -7.520801e+05   9.283858e+05
  -1.027762e+06   4.344460e+05
  -5.954164e+05  -2.174491e+05
   6.871598e+04  -5.681864e+05
   3.595102e+05  -3.956397e+05
   1.181254e+05   5.511691e+04
  -2.895451e+05   2.903764e+05
  -4.092518e+05   8.741855e+04
  -1.550959e+05  -2.532438e+05
   1.610560e+05  -2.708344e+05
   1.903089e+05   7.107790e+04
  -1.062202e+05   3.061797e+05
  -4.369053e+05   2.663897e+04
  -4.479969e+05  -5.913691e+05
  -2.608846e+04  -9.418465e+05
   5.878025e+05  -6.376099e+05
   9.544251e+05   9.485142e+04
   7.808601e+05   6.723450e+05
   1.966546e+05   7.231878e+05
  -3.258538e+05   3.724373e+05
  -4.038729e+05   3.438739e+04
  -1.183369e+05  -7.899546e+03
   9.481876e+04   1.726939e+05
  -5.418663e+04   2.853673e+05
  -3.807512e+05   1.473464e+05
  -4.572988e+05  -1.327134e+05
  -1.352138e+05  -2.844812e+05
   2.560195e+05  -1.658481e+05
   2.675221e+05   9.217989e+04
  -1.579524e+05   2.168788e+05
  -5.937663e+05   5.093184e+04
  -5.610765e+05  -3.034843e+05
  -2.726385e+04  -5.611457e+05
   5.500750e+05  -4.865982e+05
   6.753269e+05  -1.111278e+05
   2.938720e+05   2.607065e+05
  -1.839986e+05   3.146434e+05
  -3.108254e+05   4.441319e+04
  -2.426700e+04  -2.240030e+05
   3.429389e+05  -1.762380e+05
   4.215012e+05   1.425009e+05
   1.491678e+05   3.839025e+05
  -2.057688e+05   2.975513e+05
  -3.186406e+05   4.492897e+03
  -1.155945e+05  -1.612886e+05
   1.564600e+05  -3.056650e+04
   1.700354e+05   2.354726e+05
  -1.401849e+05   3.340755e+05
  -4.798579e+05   1.255375e+05
  -4.834116e+05  -2.444927e+05
  -1.075986e+05  -4.826177e+05
   3.089296e+05  -4.028920e+05
   4.012883e+05  -8.647832e+04
   1.502583e+05   1.909406e+05
  -1.376620e+05   2.126658e+05
  -1.827222e+05   2.144580e+04
  -2.814350e+03  -1.433869e+05
   1.600867e+05  -1.138631e+05
   1.222437e+05   2.830811e+04
  -5.911826e+04   6.436170e+04
  -1.565517e+05  -9.104973e+04
  -7.278369e+03  -2.738786e+05
   3.054217e+05  -2.392232e+05
   5.014483e+05   7.197933e+04
   3.642374e+05   4.495274e+05
  -3.273001e+04   5.961370e+05
  -3.837419e+05   3.962478e+05
  -4.505680e+05   1.770119e+04
  -2.796342e+05  -2.474194e+05
  -1.039225e+05  -2.516696e+05
  -6.676948e+04  -1.099707e+05
  -9.193814e+04  -4.829449e+04
  -1.896092e+04  -1.428829e+05
   1.828418e+05  -2.353810e+05
   3.574749e+05  -1.245789e+05
   3.051086e+05   1.752384e+05
  -1.667772e+04   4.052677e+05
  -4.109531e+05   3.113805e+05
  -5.676609e+05  -8.605579e+04
  -3.222438e+05  -4.860553e+05
   1.756476e+05  -5.750874e+05
   5.680050e+05  -3.045213e+05
   5.962523e+05   8.675092e+04
   3.141910e+05   3.113476e+05
  -1.648868e+03   2.907616e+05
  -1.320155e+05   1.837481e+05
  -9.180684e+04   1.766041e+05
  -5.402547e+04   2.679846e+05
  -1.383589e+05   2.793340e+05
  -2.847289e+05   7.481670e+04
  -3.197322e+05  -2.556143e+05
  -1.428447e+05  -4.566530e+05
   1.463049e+05  -3.523717e+05
   3.157881e+05  -2.002739e+04
   2.203243e+05   2.798388e+05
  -4.492782e+04   3.359276e+05
  -2.326759e+05   1.521314e+05
  -1.951878e+05  -9.219435e+04
  -2.665473e+04  -2.210712e+05
   6.218353e+04  -2.008499e+05
  -7.915909e+03  -1.255677e+05
  -9.599381e+04  -9.137034e+04
  -1.001624e+04  -9.777523e+04
   2.543346e+05  -6.756102e+04
   4.708769e+05   5.153783e+04
   3.980759e+05   2.164628e+05
   3.936470e+04   3.178810e+05
  -3.307446e+05   2.748101e+05
  -4.239550e+05   1.089143e+05
  -2.186920e+05  -6.242601e+04
   3.889781e+04  -1.157765e+05
   1.095967e+05  -3.254105e+04
  -5.179400e+03   7.160605e+04
  -1.214932e+05   5.677284e+04
  -1.128215e+05  -8.039193e+04
  -2.942597e+04  -1.840710e+05
   8.122305e+03  -1.181216e+05
  -3.645033e+04   4.948072e+04
  -9.352400e+04   1.048360e+05
  -7.540931e+04  -4.979859e+04
   4.510528e+04  -2.525139e+05
   2.080263e+05  -2.574937e+05
   2.852405e+05  -2.728006e+04
   1.694699e+05   2.171347e+05
  -9.287057e+04   2.442099e+05
  -2.775851e+05   5.463096e+04
  -1.760148e+05  -1.457444e+05
   1.559654e+05  -1.696725e+05
   4.023883e+05  -9.217849e+03
   2.996674e+05   1.920078e+05
  -7.389700e+04   2.742639e+05
  -3.704400e+05   1.796225e+05
  -3.346534e+05  -9.739441e+03
  -5.564694e+04  -1.328081e+05
   1.516629e+05  -8.799141e+04
   8.379945e+04   5.737418e+04
  -1.560435e+05   1.135212e+05
  -2.852747e+05  -3.912732e+04
  -1.381598e+05  -2.977201e+05
   1.722494e+05  -4.051303e+05
   3.757611e+05  -2.004980e+05
   3.098975e+05   1.919462e+05
   5.497491e+04   4.467454e+05
  -1.749046e+05   3.415490e+05
  -2.353145e+05  -1.531426e+04
  -1.370676e+05  -2.875031e+05
   1.815282e+04  -2.569891e+05
   1.288992e+05  -3.701273e+04
   1.389405e+05   9.519769e+04
   6.524391e+04   4.064894e+04
   2.166792e+03  -3.131413e+04
   3.618438e+04   5.437629e+04
   1.184111e+05   2.277679e+05
   8.266286e+04   2.701103e+05
  -1.404120e+05   1.070905e+05
  -3.711910e+05  -1.067350e+05
  -3.479222e+05  -1.986457e+05
  -5.311132e+04  -1.652166e+05
   2.315797e+05  -1.053701e+05
   2.504197e+05  -5.965212e+04
   6.922158e+04  -3.224209e+03
  -4.389372e+04   5.381838e+04
   2.006356e+04   6.470319e+04
   9.518151e+04   3.796911e+04
   1.565967e+03   3.428951e+04
  -1.931740e+05   4.950486e+04
  -2.533991e+05  -7.653079e+03
  -6.585648e+04  -1.633582e+05
   2.301371e+05  -2.744689e+05
   3.947623e+05  -1.701101e+05
   3.117206e+05   1.175505e+05
   6.065623e+04   3.491810e+05
  -1.759436e+05   3.303937e+05
  -2.551055e+05   1.158299e+05
  -1.656694e+05  -7.092777e+04
  -2.160958e+04  -8.697890e+04
   4.171116e+04   3.721327e+02
  -1.068089e+04   2.369644e+04
  -8.817631e+04  -8.065858e+04
  -7.462970e+04  -1.973566e+05
   4.765921e+04  -1.610939e+05
   1.729009e+05   4.655960e+04
   1.673232e+05   2.496823e+05
   8.338367e+02   2.495557e+05
  -2.003410e+05   3.661833e+04
  -2.467540e+05  -1.982890e+05
  -7.055472e+04  -2.647383e+05
   1.774348e+05  -1.480881e+05
   2.611596e+05   2.323568e+04
   1.166537e+05   1.306396e+05
  -6.679925e+04   1.427968e+05
  -7.032858e+04   8.543805e+04
   8.444813e+04   1.091514e+04
   1.653825e+05  -7.320990e+03
   2.840940e+04   7.049338e+04
  -2.006599e+05   1.717578e+05
  -2.869326e+05   1.535208e+05
  -1.635000e+05  -2.284195e+04
   2.366807e+04  -2.037835e+05
   1.124578e+05  -2.013813e+05
   8.021414e+04  -2.347296e+04
   1.651563e+03   1.270812e+05
  -6.213559e+04   9.434033e+04
  -8.792867e+04  -5.638526e+04
  -6.012756e+04  -1.417494e+05
   1.774304e+04  -8.543131e+04
   9.497405e+04   1.944987e+04
   1.096909e+05   5.298321e+04
   5.939158e+04   9.867741e+03
   1.981479e+03  -2.008098e+04
  -2.001936e+04   2.397745e+04
  -2.582854e+04   1.002369e+05
  -5.295457e+04   1.115827e+05
  -9.112509e+04   1.543846e+04
  -8.479165e+04  -1.173276e+05
  -1.948525e+03  -1.617644e+05
   1.102584e+05  -6.726253e+04
   1.490727e+05   8.144446e+04
   5.226568e+04   1.486261e+05
  -1.173473e+05   8.725303e+04
  -2.037671e+05  -2.659941e+04
  -1.116579e+05  -9.228042e+04
   7.134594e+04  -8.263726e+04
   1.505014e+05  -3.738164e+04
   4.473414e+04  -1.472832e+03
  -1.079427e+05   2.440796e+02
  -1.090918e+05  -3.863553e+04
   5.973246e+04  -8.573649e+04
   2.128748e+05  -6.676872e+04
