
 $NMID
 id='ANONYMOUS ', fmtdat='(2E16.6)'
 volume=1.0
 tramp=1.0
 $END
  -4.326229e+07  -1.974293e+06
  -2.510311e+07  -2.688139e+07
   6.192482e+06  -2.859017e+07
   2.113907e+07  -1.134767e+07
   1.274086e+07   4.728962e+06
  -2.269117e+06   7.079816e+06
  -7.583133e+06  -4.480668e+05
  -2.521057e+06  -7.391797e+06
   4.510791e+06  -7.670735e+06
   7.502558e+06  -1.845658e+06
   5.466736e+06   5.102908e+06
   4.495271e+05   7.049981e+06
  -3.357439e+06   1.982090e+06
  -2.154456e+06  -4.777396e+06
   2.954821e+06  -5.520870e+06
   6.157596e+06   9.649669e+05
   3.404220e+06   8.062307e+06
  -3.124719e+06   9.202007e+06
  -8.055020e+06   4.301925e+06
  -8.293384e+06  -2.107764e+06
  -4.598321e+06  -6.087929e+06
   6.248910e+03  -6.408237e+06
   2.177583e+06  -4.169904e+06
   7.504002e+05  -2.082667e+06
  -1.393084e+06  -2.352619e+06
   5.321765e+04  -3.933467e+06
   5.035408e+06  -3.447762e+06
   8.204384e+06   1.589338e+05
   5.515286e+06   3.770617e+06
  -3.705091e+05   4.120352e+06
  -3.560599e+06   1.735307e+06
  -2.080544e+06  -5.749790e+05
   1.051164e+06  -1.252640e+06
   2.591977e+06  -3.302075e+05
   1.988439e+06   1.779106e+06
   1.417361e+05   3.665386e+06
  -1.796680e+06   2.921858e+06
  -2.324102e+06  -5.848567e+05
  -8.298341e+05  -2.971779e+06
   7.733482e+05  -1.024383e+06
   1.932017e+04   2.489507e+06
  -2.150604e+06   2.017446e+06
  -1.963202e+06  -2.471923e+06
   1.725652e+06  -4.661501e+06
   5.009198e+06  -6.385761e+05
   3.635042e+06   5.350761e+06
  -1.585873e+06   6.419049e+06
  -5.836705e+06   1.657596e+06
  -5.634813e+06  -3.674146e+06
  -1.636151e+06  -4.963497e+06
   2.829302e+06  -2.358101e+06
   4.473250e+06   1.112962e+06
   2.196479e+06   2.789831e+06
  -1.802339e+06   1.783442e+06
  -3.584568e+06  -7.019935e+05
  -1.587547e+06  -2.110133e+06
   1.349924e+06  -1.058458e+06
   1.516234e+06   8.199693e+05
  -8.034698e+05   8.626311e+05
  -1.900171e+06  -1.025856e+06
   1.940604e+05  -2.338718e+06
   3.267709e+06  -1.404369e+06
   4.041363e+06   9.124622e+05
   1.819705e+06   3.035976e+06
  -1.683892e+06   4.228293e+06
  -4.481876e+06   3.834880e+06
  -5.244939e+06   1.124777e+06
  -3.538917e+06  -2.884312e+06
  -5.140542e+05  -5.173084e+06
   1.491395e+06  -3.984037e+06
   1.291474e+06  -1.259780e+06
   2.676256e+05  -1.717735e+05
   4.586408e+05  -1.011510e+06
   1.839204e+06  -1.330610e+06
   2.595918e+06   2.178378e+05
   1.650616e+06   2.073315e+06
  -2.393000e+05   2.078320e+06
  -1.627632e+06   1.297195e+05
  -1.560750e+06  -2.026721e+06
   1.266185e+05  -2.658891e+06
   2.517636e+06  -1.251664e+06
   3.704655e+06   1.307765e+06
   2.419811e+06   3.263665e+06
  -2.456070e+05   3.348460e+06
  -1.873901e+06   2.019840e+06
  -1.718469e+06   8.728156e+05
  -1.471518e+06   6.474170e+05
  -2.540588e+06   4.733918e+05
  -3.792542e+06  -6.663687e+05
  -3.042651e+06  -2.459703e+06
  -6.951904e+04  -3.670114e+06
   2.959899e+06  -3.423153e+06
   3.845693e+06  -1.736178e+06
   2.354922e+06   5.690355e+05
   5.882368e+04   2.072053e+06
  -1.146556e+06   1.660262e+06
  -4.966329e+05  -9.387832e+04
   1.041873e+06  -1.133678e+06
   1.676311e+06  -3.025519e+05
   7.295524e+05   1.077139e+06
  -5.274025e+05   1.003921e+06
  -4.657083e+05  -3.206663e+05
   7.954657e+05  -7.268923e+05
   1.580571e+06   8.487202e+05
   7.720787e+05   2.852519e+06
  -1.064751e+06   3.105235e+06
  -2.625778e+06   1.293560e+06
  -3.078654e+06  -1.093306e+06
  -2.232129e+06  -2.518668e+06
  -4.517655e+05  -2.451604e+06
   1.181003e+06  -1.316389e+06
   1.458935e+06  -1.510511e+05
   4.441007e+05   5.000441e+04
  -3.132920e+05  -6.766261e+05
   3.628444e+05  -1.154894e+06
   1.653067e+06  -4.747139e+05
   1.770816e+06   7.693814e+05
   3.519712e+05   1.222684e+06
  -1.037826e+06   5.134801e+05
  -8.418526e+05  -4.040331e+05
   7.179412e+05  -5.314626e+05
   2.009817e+06   2.044259e+05
   1.679751e+06   1.223116e+06
  -1.719755e+05   1.847402e+06
  -2.106106e+06   1.526026e+06
  -2.513966e+06   2.273306e+05
  -1.065283e+06  -1.128154e+06
   8.348374e+05  -1.283504e+06
   1.349793e+06  -1.249848e+05
   1.279109e+05   9.477513e+05
  -1.365153e+06   6.256946e+05
  -1.535337e+06  -7.002555e+05
  -3.317533e+05  -1.477299e+06
   9.430052e+05  -9.105424e+05
   1.132168e+06   2.292792e+05
   2.564241e+05   6.750650e+05
  -6.806908e+05   4.118033e+04
  -6.279457e+05  -9.519250e+05
   5.584438e+05  -1.262905e+06
   1.824964e+06  -4.352659e+05
   1.807062e+06   9.916150e+05
   3.095905e+05   1.866645e+06
  -1.303815e+06   1.453170e+06
  -1.547934e+06   1.825658e+05
  -4.612244e+05  -7.745734e+05
   5.895481e+05  -7.266831e+05
   6.027767e+05  -6.394615e+04
  -7.568941e+04   3.704186e+05
  -4.779449e+05   2.435640e+05
  -1.994095e+05  -5.895337e+04
   3.432776e+05   1.000896e+04
   4.699646e+05   5.483672e+05
  -1.645798e+05   1.047441e+06
  -1.242512e+06   7.929100e+05
  -1.867767e+06  -3.994200e+05
  -1.285344e+06  -1.774051e+06
   2.335986e+05  -2.194603e+06
   1.480824e+06  -1.292694e+06
   1.560328e+06   1.011850e+05
   8.312533e+05   8.510891e+05
   3.143531e+05   6.860700e+05
   3.888838e+05   2.746803e+05
   4.966369e+05   2.832567e+05
   5.202932e+04   6.549334e+05
  -7.864368e+05   8.057728e+05
  -1.319362e+06   3.017648e+05
  -9.810579e+05  -6.738745e+05
   2.130684e+05  -1.358458e+06
   1.571951e+06  -9.765115e+05
   2.040921e+06   4.595716e+05
   1.017479e+06   1.899169e+06
  -9.047887e+05   2.107756e+06
  -2.271948e+06   9.172636e+05
  -2.126874e+06  -5.785775e+05
  -9.113666e+05  -1.208633e+06
   1.521278e+05  -9.025947e+05
   3.908707e+05  -5.172414e+05
   1.600893e+05  -6.875974e+05
   1.609612e+05  -1.140132e+06
   6.204479e+05  -1.115946e+06
   1.152382e+06  -2.508731e+05
   1.181214e+06   1.005039e+06
   4.672084e+05   1.725660e+06
  -5.918752e+05   1.290676e+06
  -1.164617e+06  -1.168739e+04
  -7.220755e+05  -1.147708e+06
   3.398333e+05  -1.244229e+06
   1.006139e+06  -3.822590e+05
   7.027294e+05   5.781105e+05
  -9.062072e+04   9.233477e+05
  -4.377703e+05   6.938855e+05
  -5.487437e+04   3.933497e+05
   3.781630e+05   3.263570e+05
   4.141635e+04   3.547656e+05
  -1.020533e+06   1.739355e+05
  -1.828702e+06  -3.287210e+05
  -1.440017e+06  -9.436169e+05
   2.792137e+04  -1.261399e+06
   1.415710e+06  -9.842874e+05
   1.639596e+06  -2.444504e+05
   7.486865e+05   4.099940e+05
  -2.314208e+05   4.842290e+05
  -4.465676e+05   3.842596e+04
  -1.103762e+02  -3.572575e+05
   4.225271e+05  -2.220502e+05
   4.253901e+05   3.198162e+05
   1.859843e+05   6.762175e+05
   4.818693e+04   4.447834e+05
   1.248911e+05  -1.073049e+05
   2.767167e+05  -2.937257e+05
   2.497940e+05   2.103116e+05
  -1.589924e+05   9.052363e+05
  -8.309466e+05   9.423450e+05
  -1.201103e+06   1.049487e+05
  -7.178538e+05  -8.516511e+05
   4.013958e+05  -9.937899e+05
   1.129599e+06  -2.486678e+05
   6.528703e+05   5.424014e+05
  -6.366026e+05   5.805866e+05
  -1.447260e+06  -9.126528e+04
  -9.374777e+05  -7.798936e+05
   4.174490e+05  -9.072108e+05
   1.363550e+06  -4.559872e+05
   1.136908e+06   1.627907e+05
   1.313874e+05   4.715293e+05
  -5.853585e+05   2.476382e+05
  -3.313427e+05  -2.652451e+05
   5.561702e+05  -4.537110e+05
   1.074953e+06   1.138787e+05
   5.682808e+05   1.100309e+06
  -5.944922e+05   1.535008e+06
  -1.381358e+06   7.675675e+05
  -1.132250e+06  -7.185864e+05
  -1.552550e+05  -1.640468e+06
   6.897075e+05  -1.181088e+06
   8.392391e+05   1.565056e+05
   3.909070e+05   1.083484e+06
  -1.888833e+05   8.838762e+05
  -5.030949e+05   7.494234e+04
  -4.350523e+05  -3.492576e+05
  -1.655971e+05  -1.273507e+05
  -3.731192e+04   8.943357e+04
  -2.220064e+05  -2.690337e+05
  -4.389728e+05  -8.849562e+05
  -1.795414e+05  -9.816563e+05
   6.319763e+05  -3.450468e+05
   1.339787e+06   4.444753e+05
   1.171934e+06   7.744231e+05
   1.588937e+05   6.342085e+05
  -7.996004e+05   3.733116e+05
  -9.026080e+05   1.595951e+05
  -3.115385e+05  -4.932248e+04
   1.421877e+05  -2.042664e+05
   1.472965e+04  -1.886148e+05
  -2.617036e+05  -9.260531e+04
  -3.733046e+04  -1.257129e+05
   6.279443e+05  -2.062408e+05
   9.532582e+05   3.175361e+04
   3.578075e+05   6.446747e+05
  -8.042082e+05   1.057818e+06
  -1.553721e+06   6.476566e+05
  -1.263681e+06  -4.316682e+05
  -2.254657e+05  -1.291162e+06
   7.170367e+05  -1.235171e+06
   9.687388e+05  -4.644799e+05
   6.000644e+05   2.285861e+05
   1.099569e+05   3.311890e+05
  -8.245916e+04   5.680654e+04
   6.443733e+04  -2.188279e+04
   2.731755e+05   3.314967e+05
   2.196446e+05   7.368394e+05
  -1.769781e+05   6.148523e+05
  -6.266756e+05  -1.270793e+05
  -6.578894e+05  -8.900558e+05
  -7.705178e+04  -9.483383e+05
   7.041381e+05  -2.086614e+05
   9.367649e+05   6.835443e+05
   2.953211e+05   1.001893e+06
  -6.661445e+05   6.008308e+05
  -1.014911e+06  -8.955249e+04
  -4.648421e+05  -5.611331e+05
   2.761239e+05  -6.030838e+05
   3.423256e+05  -3.219330e+05
  -2.385155e+05  -9.173149e+03
  -5.965057e+05   2.732638e+04
  -1.248584e+05  -2.830536e+05
   7.605653e+05  -6.095781e+05
   1.141635e+06  -4.781741e+05
   6.776406e+05   1.701503e+05
  -1.024094e+05   7.880204e+05
  -5.084907e+05   7.638307e+05
  -3.851661e+05   1.286576e+05
  -4.053277e+04  -4.450394e+05
   2.289477e+05  -3.900954e+05
   3.255858e+05   1.465594e+05
   2.234792e+05   5.308848e+05
  -6.085344e+04   3.830291e+05
  -3.582195e+05  -4.926574e+04
  -4.233959e+05  -2.580592e+05
  -2.162812e+05  -8.592825e+04
   2.081655e+04   1.338304e+05
   6.537186e+04   2.748386e+04
   7.054351e+02  -3.357224e+05
   7.410229e+04  -5.039251e+05
   3.091369e+05  -1.849141e+05
   4.101222e+05   3.683426e+05
   1.226037e+05   6.042705e+05
  -3.828873e+05   2.813501e+05
  -6.016708e+05  -2.716267e+05
  -2.233773e+05  -5.321205e+05
   4.658907e+05  -3.245991e+05
   8.025611e+05   8.591642e+04
   4.306527e+05   3.519761e+05
  -2.769653e+05   3.564071e+05
  -5.891408e+05   1.926866e+05
  -2.242529e+05   8.157362e+03
   3.289191e+05  -5.942157e+04
   3.807847e+05   6.776575e+04
  -1.587539e+05   2.736984e+05
  -6.914612e+05   2.478763e+05
