
 $NMID
 id='ANONYMOUS ', fmtdat='(2E16.6)'
 volume=1.0
 tramp=1.0
 $END
   2.708924e+07   4.244978e+05
   1.742487e+07   1.362853e+07
  -9.476388e+05   1.721221e+07
  -1.195969e+07   1.042378e+07
  -9.351996e+06   3.233978e+05
  -1.985218e+05  -4.736188e+06
   5.284671e+06  -1.919197e+06
   3.630217e+06   4.346951e+06
  -1.522145e+06   6.921589e+06
  -4.968035e+06   2.921112e+06
  -4.231893e+06  -3.457920e+06
  -5.281030e+05  -5.474570e+06
   2.555798e+06  -1.211001e+06
   2.019759e+06   4.399598e+06
  -1.591205e+06   5.172837e+06
  -4.406857e+06   3.148487e+05
  -3.152877e+06  -5.280062e+06
   1.365473e+06  -6.580186e+06
   5.187135e+06  -3.117708e+06
   5.296199e+06   1.561394e+06
   2.351086e+06   3.874336e+06
  -3.885140e+05   3.218310e+06
  -4.202803e+05   1.758020e+06
   1.541784e+06   1.811505e+06
   2.258336e+06   3.391262e+06
  -5.239054e+05   4.274765e+06
  -5.091595e+06   2.608418e+06
  -7.014281e+06  -8.164691e+05
  -3.971088e+06  -3.286594e+06
   1.289903e+06  -2.977093e+06
   3.745694e+06  -5.695878e+05
   1.555795e+06   1.705373e+06
  -2.290202e+06   1.991143e+06
  -3.736276e+06  -1.546071e+03
  -1.920907e+06  -2.742227e+06
   7.490962e+05  -3.743247e+06
   1.773111e+06  -1.787520e+06
   8.771536e+05   1.265597e+06
  -4.130080e+05   1.994844e+06
  -5.781740e+05  -4.886914e+05
   5.911199e+05  -3.001709e+06
   1.897914e+06  -2.081550e+06
   1.780808e+06   1.412955e+06
  -1.201232e+05   3.175414e+06
  -2.237573e+06   8.890026e+05
  -2.286912e+06  -2.894942e+06
   3.953713e+05  -3.966355e+06
   3.774720e+06  -1.279334e+06
   4.743135e+06   2.412239e+06
   2.105410e+06   3.917681e+06
  -2.044791e+06   2.500047e+06
  -4.142472e+06  -1.878702e+05
  -2.555024e+06  -1.929772e+06
   8.440653e+05  -1.627546e+06
   2.660227e+06   2.472983e+04
   1.492417e+06   1.233578e+06
  -8.179312e+05   8.437449e+05
  -1.508807e+06  -4.959079e+05
  -4.187238e+04  -1.151079e+06
   1.503072e+06  -3.923303e+05
   1.020774e+06   9.037836e+05
  -1.171129e+06   1.334565e+06
  -2.699270e+06   2.944882e+05
  -1.683368e+06  -1.676073e+06
   1.346024e+06  -3.255689e+06
   4.003723e+06  -3.039274e+06
   4.327194e+06  -6.401520e+05
   2.472645e+06   2.535707e+06
   2.713848e+05   4.218634e+06
  -7.297907e+05   3.511667e+06
  -6.388733e+05   1.813163e+06
  -6.650399e+05   1.004792e+06
  -1.495486e+06   1.136907e+06
  -2.517819e+06   6.863211e+05
  -2.585180e+06  -1.030960e+06
  -1.255638e+06  -2.639133e+06
   7.568426e+05  -2.300083e+06
   2.097062e+06   2.646794e+03
   1.718866e+06   2.306991e+06
  -2.615887e+05   2.651738e+06
  -2.410500e+06   8.765883e+05
  -3.006321e+06  -1.463331e+06
  -1.644476e+06  -2.663400e+06
   3.026186e+05  -2.298483e+06
   1.191247e+06  -1.299526e+06
   9.699171e+05  -7.860502e+05
   1.059459e+06  -8.949759e+05
   2.301765e+06  -7.794626e+05
   3.588140e+06   3.219764e+05
   3.013585e+06   2.150839e+06
   2.269887e+05   3.546540e+06
  -2.854081e+06   3.395074e+06
  -3.843059e+06   1.567019e+06
  -2.219054e+06  -8.219649e+05
   2.551400e+05  -2.112449e+06
   1.344161e+06  -1.472971e+06
   4.439487e+05   2.026748e+05
  -1.088609e+06   1.067322e+06
  -1.535262e+06   2.938718e+05
  -5.699588e+05  -9.655827e+05
   6.046764e+05  -9.975814e+05
   6.767391e+05   2.697960e+05
  -4.314095e+05   1.075906e+06
  -1.580773e+06  -1.063069e+04
  -1.522629e+06  -2.242850e+06
   4.431399e+04  -3.413240e+06
   2.212788e+06  -2.218038e+06
   3.463930e+06   4.518544e+05
   2.799091e+06   2.511036e+06
   6.747472e+05   2.660782e+06
  -1.223222e+06   1.359551e+06
  -1.496953e+06   1.101580e+05
  -4.381325e+05  -3.741749e+04
   3.371933e+05   6.473404e+05
  -2.351374e+05   1.057583e+06
  -1.439011e+06   5.096561e+05
  -1.684117e+06  -5.449123e+05
  -4.653513e+05  -1.070998e+06
   9.623685e+05  -5.875866e+05
   9.702066e+05   3.565337e+05
  -5.997747e+05   7.655597e+05
  -2.172399e+06   1.281549e+05
  -2.024182e+06  -1.149119e+06
  -5.511090e+04  -2.050616e+06
   2.061282e+06  -1.747277e+06
   2.504041e+06  -3.590797e+05
   1.067318e+06   9.959336e+05
  -7.174979e+05   1.161465e+06
  -1.171149e+06   1.367938e+05
  -7.659816e+04  -8.438836e+05
   1.288638e+06  -6.287240e+05
   1.546001e+06   5.656232e+05
   5.101847e+05   1.427517e+06
  -7.876323e+05   1.067270e+06
  -1.167106e+06  -2.109768e+04
  -4.005635e+05  -6.041537e+05
   5.885877e+05  -9.351492e+04
   6.143776e+05   8.903654e+05
  -5.429913e+05   1.232559e+06
  -1.790023e+06   4.352591e+05
  -1.778047e+06  -9.411767e+05
  -3.621145e+05  -1.799262e+06
   1.179950e+06  -1.467797e+06
   1.492528e+06  -2.845974e+05
   5.353328e+05   7.178710e+05
  -5.266000e+05   7.719637e+05
  -6.707242e+05   7.102578e+04
  -4.398074e+02  -5.135617e+05
   5.826117e+05  -4.013885e+05
   4.301741e+05   9.782986e+04
  -2.249745e+05   2.080058e+05
  -5.578999e+05  -3.614142e+05
   6.434546e+03  -1.012193e+06
   1.152356e+06  -8.583875e+05
   1.852017e+06   3.062520e+05
   1.317090e+06   1.694201e+06
  -1.625475e+05   2.203558e+06
  -1.442466e+06   1.430819e+06
  -1.655274e+06   3.099161e+04
  -1.007918e+06  -9.178181e+05
  -3.756942e+05  -9.129689e+05
  -2.605426e+05  -4.046160e+05
  -3.491771e+05  -2.000034e+05
  -5.648015e+04  -5.423524e+05
   6.981586e+05  -8.535609e+05
   1.326323e+06  -4.289658e+05
   1.108275e+06   6.626364e+05
  -9.152709e+04   1.483569e+06
  -1.538689e+06   1.115198e+06
  -2.089932e+06  -3.598056e+05
  -1.149195e+06  -1.822135e+06
   7.047670e+05  -2.111559e+06
   2.130055e+06  -1.073162e+06
   2.188934e+06   3.738411e+05
   1.123085e+06   1.166319e+06
  -2.814484e+04   1.056201e+06
  -4.836578e+05   6.632290e+05
  -3.342528e+05   6.604402e+05
  -2.165234e+05   1.006374e+06
  -5.410367e+05   1.032042e+06
  -1.068021e+06   2.562082e+05
  -1.169805e+06  -9.701557e+05
  -4.986107e+05  -1.701888e+06
   5.652440e+05  -1.295775e+06
   1.168316e+06  -4.971866e+04
   7.891634e+05   1.056224e+06
  -2.005559e+05   1.236666e+06
  -8.773441e+05   5.292379e+05
  -7.078680e+05  -3.736809e+05
  -6.530277e+04  -8.237107e+05
   2.587923e+05  -7.287210e+05
  -1.772220e+04  -4.559414e+05
  -3.540902e+05  -3.436393e+05
  -3.290324e+04  -3.627839e+05
   9.513827e+05  -2.271513e+05
   1.746588e+06   2.321085e+05
   1.456316e+06   8.357919e+05
   1.094544e+05   1.182154e+06
  -1.257867e+06   9.911822e+05
  -1.578252e+06   3.639857e+05
  -7.948576e+05  -2.574438e+05
   1.607620e+05  -4.292136e+05
   4.088354e+05  -1.056539e+05
  -2.453526e+04   2.748846e+05
  -4.512750e+05   2.066752e+05
  -4.142096e+05  -3.062700e+05
  -1.072771e+05  -6.867588e+05
   2.907721e+04  -4.414457e+05
  -1.338366e+05   1.749684e+05
  -3.422104e+05   3.777980e+05
  -2.735743e+05  -1.901786e+05
   1.784689e+05  -9.320881e+05
   7.905794e+05  -9.409193e+05
   1.073591e+06  -8.087946e+04
   6.240397e+05   8.224096e+05
  -3.662246e+05   9.072515e+05
  -1.043966e+06   1.886560e+05
  -6.453328e+05  -5.499482e+05
   5.909254e+05  -6.144015e+05
   1.483900e+06  -3.219031e+03
   1.082515e+06   7.273910e+05
  -2.975958e+05   9.975041e+05
  -1.374225e+06   6.275164e+05
  -1.226010e+06  -6.150236e+04
  -1.931911e+05  -4.905830e+05
   5.662316e+05  -3.100057e+05
   3.076349e+05   2.230874e+05
  -5.840239e+05   4.169244e+05
  -1.059043e+06  -1.578188e+05
  -5.024193e+05  -1.113467e+06
   6.570978e+05  -1.498688e+06
   1.404038e+06  -7.269954e+05
   1.137690e+06   7.280236e+05
   1.767760e+05   1.656541e+06
  -6.670700e+05   1.248116e+06
  -8.649921e+05  -7.724477e+04
  -4.815823e+05  -1.070677e+06
   8.968782e+04  -9.409472e+05
   4.800949e+05  -1.235736e+05
   5.029198e+05   3.569101e+05
   2.334743e+05   1.489662e+05
   1.136645e+04  -1.122980e+05
   1.370819e+05   2.135452e+05
   4.257213e+05   8.548810e+05
   2.812000e+05   9.992376e+05
  -5.349716e+05   3.805113e+05
  -1.365893e+06  -4.183986e+05
  -1.267485e+06  -7.538566e+05
  -1.839737e+05  -6.162171e+05
   8.581535e+05  -3.795617e+05
   9.271097e+05  -2.034135e+05
   2.597833e+05  -3.377715e+02
  -1.637863e+05   1.985799e+05
   6.465083e+04   2.326104e+05
   3.443207e+05   1.376525e+05
   7.050006e+03   1.284879e+05
  -7.116644e+05   1.792674e+05
  -9.407593e+05  -4.249120e+04
  -2.450979e+05  -6.176438e+05
   8.648338e+05  -1.011915e+06
   1.482445e+06  -6.085338e+05
   1.160702e+06   4.561024e+05
   2.070767e+05   1.298118e+06
  -6.764529e+05   1.214889e+06
  -9.559876e+05   4.188424e+05
  -6.108954e+05  -2.679461e+05
  -7.809500e+04  -3.258516e+05
   1.501527e+05  -4.877222e+03
  -4.062340e+04   8.005801e+04
  -3.164562e+05  -3.047935e+05
  -2.608333e+05  -7.342090e+05
   1.859582e+05  -5.966950e+05
   6.393451e+05   1.768555e+05
   6.126173e+05   9.329541e+05
  -3.739747e+03   9.308369e+05
  -7.442056e+05   1.339117e+05
  -9.091333e+05  -7.442556e+05
  -2.504003e+05  -9.889680e+05
   6.687240e+05  -5.447512e+05
   9.719049e+05   1.019504e+05
   4.259746e+05   4.993528e+05
  -2.609221e+05   5.321721e+05
  -2.733979e+05   3.104763e+05
   3.067868e+05   3.884950e+04
   6.123039e+05  -1.926405e+04
   1.027557e+05   2.658263e+05
  -7.537490e+05   6.234226e+05
  -1.076146e+06   5.427505e+05
  -6.087401e+05  -1.042257e+05
   1.010604e+05  -7.571877e+05
   4.370475e+05  -7.391798e+05
   3.088365e+05  -8.342916e+04
   3.881673e+03   4.703474e+05
  -2.368487e+05   3.506646e+05
  -3.256921e+05  -2.077042e+05
  -2.155259e+05  -5.294662e+05
   7.240866e+04  -3.225265e+05
   3.527635e+05   7.513495e+04
   4.032742e+05   2.087900e+05
   2.174644e+05   4.424248e+04
   8.067856e+03  -8.119768e+04
  -7.003433e+04   7.710682e+04
  -9.048843e+04   3.708026e+05
  -1.940883e+05   4.246378e+05
  -3.411202e+05   6.591084e+04
  -3.202501e+05  -4.370171e+05
  -9.712888e+03  -6.051624e+05
   4.112769e+05  -2.478830e+05
   5.546574e+05   3.088917e+05
   1.897490e+05   5.534136e+05
  -4.428315e+05   3.164573e+05
  -7.594958e+05  -1.099116e+05
  -4.105896e+05  -3.497099e+05
   2.721147e+05  -3.071075e+05
   5.653097e+05  -1.347862e+05
   1.716950e+05  -1.112962e+03
  -3.958831e+05   3.697383e+03
  -4.033457e+05  -1.408062e+05
   2.182696e+05  -3.131530e+05
   7.837281e+05  -2.405115e+05
