
 $NMID
 id='ANONYMOUS ', fmtdat='(2E16.6)'
 volume=1.0
 tramp=1.0
 $END
  -2.494642e+07  -9.421279e+05
  -1.533684e+07  -1.360651e+07
   1.917236e+06  -1.594971e+07
   1.141269e+07  -8.493564e+06
   8.131682e+06   6.945881e+05
  -3.547167e+05   4.232238e+06
  -4.713567e+06   1.087817e+06
  -2.708668e+06  -4.098554e+06
   1.820711e+06  -5.748593e+06
   4.504602e+06  -2.136570e+06
   3.619125e+06   3.161939e+06
   3.467394e+05   4.746678e+06
  -2.257828e+06   1.074255e+06
  -1.648279e+06  -3.703797e+06
   1.568063e+06  -4.279169e+06
   3.888970e+06   1.114006e+03
   2.565775e+06   4.803343e+06
  -1.463835e+06   5.787707e+06
  -4.738497e+06   2.687050e+06
  -4.814023e+06  -1.427226e+06
  -2.253046e+06  -3.580618e+06
   3.167069e+05  -3.174316e+06
   6.882308e+05  -1.807700e+06
  -8.703627e+05  -1.479182e+06
  -1.724838e+06  -2.584279e+06
   3.474767e+05  -3.457898e+06
   4.191609e+06  -2.276484e+06
   5.970561e+06   6.038981e+05
   3.493223e+06   2.832567e+06
  -9.549944e+05   2.655779e+06
  -3.085141e+06   6.477051e+05
  -1.385407e+06  -1.233380e+06
   1.664288e+06  -1.525940e+06
   2.871249e+06  -6.580136e+04
   1.582377e+06   2.078372e+06
  -4.792776e+05   3.046948e+06
  -1.474162e+06   1.635663e+06
  -9.577792e+05  -9.557336e+05
   1.591497e+05  -1.823125e+06
   5.334821e+05   1.474307e+05
  -3.782959e+05   2.383128e+06
  -1.596818e+06   1.686881e+06
  -1.461448e+06  -1.350106e+06
   4.108332e+05  -2.835923e+06
   2.310337e+06  -6.360198e+05
   2.064385e+06   2.827709e+06
  -5.719553e+05   3.661038e+06
  -3.458606e+06   1.077740e+06
  -4.022137e+06  -2.217412e+06
  -1.621466e+06  -3.386882e+06
   1.819695e+06  -2.003109e+06
   3.436686e+06   3.335458e+05
   1.998092e+06   1.729797e+06
  -8.828062e+05   1.333337e+06
  -2.330243e+06  -1.728455e+05
  -1.205296e+06  -1.175157e+06
   7.813098e+05  -7.142684e+05
   1.226864e+06   4.737415e+05
  -1.214254e+05   8.806010e+05
  -1.279891e+06   5.896047e+04
  -5.943440e+05  -9.791553e+05
   1.327465e+06  -1.072043e+06
   2.418251e+06  -6.744271e+03
   1.375260e+06   1.608470e+06
  -1.173669e+06   2.819252e+06
  -3.367315e+06   2.607202e+06
  -3.703155e+06   5.860197e+05
  -2.193621e+06  -2.154770e+06
  -2.347056e+05  -3.617549e+06
   7.462019e+05  -2.933158e+06
   6.229818e+05  -1.366588e+06
   4.508717e+05  -6.815094e+05
   1.039093e+06  -9.316676e+05
   1.962452e+06  -6.891786e+05
   2.139606e+06   7.096048e+05
   1.100835e+06   2.081923e+06
  -5.413201e+05   1.857806e+06
  -1.648090e+06   1.815714e+04
  -1.380482e+06  -1.852305e+06
   2.034889e+05  -2.178223e+06
   2.005348e+06  -7.719065e+05
   2.579538e+06   1.192014e+06
   1.459830e+06   2.296802e+06
  -2.599901e+05   2.056409e+06
  -1.100489e+06   1.170323e+06
  -9.174642e+05   6.444686e+05
  -9.318953e+05   6.847135e+05
  -1.923000e+06   5.832650e+05
  -2.969461e+06  -3.259966e+05
  -2.466065e+06  -1.817089e+06
  -1.526157e+05  -2.926546e+06
   2.360976e+06  -2.783661e+06
   3.154610e+06  -1.305416e+06
   1.844369e+06   6.420382e+05
  -1.617041e+05   1.731811e+06
  -1.079093e+06   1.234769e+06
  -3.754883e+05  -1.575657e+05
   8.934658e+05  -8.868518e+05
   1.289251e+06  -2.309689e+05
   4.874212e+05   8.202725e+05
  -4.951296e+05   8.170887e+05
  -5.232353e+05  -2.357578e+05
   4.174174e+05  -8.226269e+05
   1.291497e+06   1.525353e+05
   1.109684e+06   1.933858e+06
  -2.135417e+05   2.729661e+06
  -1.873508e+06   1.650930e+06
  -2.758291e+06  -4.779919e+05
  -2.189011e+06  -2.053890e+06
  -5.135470e+05  -2.141889e+06
   9.946906e+05  -1.103606e+06
   1.218851e+06  -9.227977e+04
   3.577712e+05   3.473887e+04
  -2.717149e+05  -5.389018e+05
   2.201813e+05  -8.853701e+05
   1.221675e+06  -4.055426e+05
   1.393951e+06   4.962305e+05
   3.538875e+05   9.112944e+05
  -8.111934e+05   4.688825e+05
  -7.800893e+05  -3.054497e+05
   5.083114e+05  -5.939109e+05
   1.752482e+06  -5.336747e+04
   1.602015e+06   9.523952e+05
   7.359136e+03   1.645795e+06
  -1.697956e+06   1.391542e+06
  -2.052836e+06   2.650461e+05
  -8.677479e+05  -8.437265e+05
   6.163160e+05  -9.693211e+05
   9.923243e+05  -1.010002e+05
   6.606920e+04   7.146586e+05
  -1.074695e+06   5.118080e+05
  -1.264202e+06  -4.926744e+05
  -3.814687e+05  -1.180611e+06
   6.776505e+05  -8.443859e+05
   9.518901e+05   5.949511e+04
   3.003957e+05   5.136807e+05
  -5.043711e+05   7.073385e+04
  -5.116202e+05  -7.423115e+05
   4.458087e+05  -1.020004e+06
   1.474440e+06  -3.587507e+05
   1.462193e+06   7.818242e+05
   2.839770e+05   1.486950e+06
  -9.921878e+05   1.195860e+06
  -1.231849e+06   2.080250e+05
  -4.204090e+05  -6.031906e+05
   4.489744e+05  -6.247006e+05
   5.429155e+05  -5.259053e+04
  -1.061801e+04   4.029172e+05
  -4.615576e+05   3.080987e+05
  -3.190093e+05  -7.130759e+04
   1.986229e+05  -1.366079e+05
   4.407943e+05   3.222026e+05
  -2.928693e+04   8.319147e+05
  -9.565256e+05   6.919628e+05
  -1.518796e+06  -2.663174e+05
  -1.071855e+06  -1.401280e+06
   1.486271e+05  -1.801548e+06
   1.190033e+06  -1.144445e+06
   1.337394e+06   2.377144e+02
   7.907998e+05   7.406634e+05
   2.936635e+05   7.080393e+05
   2.334632e+05   3.080436e+05
   3.104419e+05   1.752529e+05
   4.704405e+04   4.589103e+05
  -5.821019e+05   6.884853e+05
  -1.079915e+06   3.324131e+05
  -8.848180e+05  -5.391870e+05
   9.250691e+04  -1.190899e+06
   1.262314e+06  -8.905305e+05
   1.702088e+06   3.107425e+05
   9.184648e+05   1.506392e+06
  -6.125605e+05   1.729371e+06
  -1.770050e+06   8.504191e+05
  -1.781761e+06  -3.445641e+05
  -8.819025e+05  -9.649947e+05
   4.577776e+04  -8.395842e+05
   3.813771e+05  -5.177398e+05
   2.455791e+05  -5.441116e+05
   1.699026e+05  -8.450546e+05
   4.580487e+05  -8.575909e+05
   8.889216e+05  -2.072621e+05
   9.583520e+05   8.019519e+05
   4.004901e+05   1.398674e+06
  -4.699302e+05   1.059705e+06
  -9.575540e+05   2.857932e+04
  -6.346736e+05  -8.818209e+05
   1.890857e+05  -1.014387e+06
   7.415995e+05  -4.088203e+05
   5.798728e+05   3.401142e+05
   2.778428e+04   6.919322e+05
  -2.425563e+05   5.926263e+05
   4.583098e+02   3.636252e+05
   2.921155e+05   2.769238e+05
   2.833294e+04   2.937090e+05
  -7.887667e+05   1.771275e+05
  -1.442150e+06  -2.050973e+05
  -1.189524e+06  -7.030254e+05
  -6.717459e+04  -9.833662e+05
   1.056713e+06  -8.108869e+05
   1.304053e+06  -2.758665e+05
   6.446961e+05   2.382007e+05
  -1.426111e+05   3.605113e+05
  -3.409747e+05   7.558331e+04
   1.536298e+04  -2.357962e+05
   3.631505e+05  -1.684228e+05
   3.386314e+05   2.528338e+05
   9.859773e+04   5.573810e+05
  -1.230828e+04   3.599791e+05
   1.079630e+05  -1.315727e+05
   2.699626e+05  -2.955167e+05
   2.210570e+05   1.563266e+05
  -1.414761e+05   7.559433e+05
  -6.520058e+05   7.711226e+05
  -8.981211e+05   7.337169e+04
  -5.257643e+05  -6.754726e+05
   3.041059e+05  -7.561623e+05
   8.658745e+05  -1.641972e+05
   5.272216e+05   4.487940e+05
  -4.916866e+05   4.958647e+05
  -1.207545e+06  -1.583608e+04
  -8.605396e+05  -6.062963e+05
   2.651382e+05  -8.012611e+05
   1.124707e+06  -4.828552e+05
   9.894029e+05   6.957656e+04
   1.469033e+05   3.993795e+05
  -4.683539e+05   2.430722e+05
  -2.567308e+05  -1.898250e+05
   4.729884e+05  -3.465003e+05
   8.681726e+05   1.228422e+05
   4.197866e+05   9.079502e+05
  -5.289331e+05   1.228628e+06
  -1.144241e+06   5.974750e+05
  -9.269219e+05  -5.956429e+05
  -1.375834e+05  -1.351501e+06
   5.519698e+05  -1.008360e+06
   7.042232e+05   7.746785e+04
   3.781625e+05   8.797028e+05
  -9.139451e+04   7.626510e+05
  -3.975823e+05   9.390465e+04
  -4.001846e+05  -2.925148e+05
  -1.798214e+05  -1.204373e+05
  -1.454005e+04   8.844339e+04
  -1.269182e+05  -1.820454e+05
  -3.494014e+05  -7.045228e+05
  -2.110503e+05  -8.170864e+05
   4.546204e+05  -3.064966e+05
   1.111957e+06   3.492678e+05
   1.019590e+06   6.234778e+05
   1.459438e+05   5.068956e+05
  -6.923006e+05   3.063035e+05
  -7.548961e+05   1.573041e+05
  -2.215418e+05  -6.806248e+03
   1.310729e+05  -1.621957e+05
  -3.848499e+04  -1.842723e+05
  -2.675243e+05  -1.070400e+05
  -1.130320e+04  -1.039910e+05
   5.676561e+05  -1.484812e+05
   7.710740e+05   3.386692e+04
   2.182953e+05   5.071670e+05
  -6.979449e+05   8.317988e+05
  -1.223267e+06   5.027694e+05
  -9.636832e+05  -3.682896e+05
  -1.700830e+05  -1.059448e+06
   5.602300e+05  -9.961968e+05
   7.827440e+05  -3.492336e+05
   4.968529e+05   2.132864e+05
   6.929902e+04   2.667891e+05
  -1.106006e+05   1.097355e+04
   3.831878e+04  -5.663187e+04
   2.521795e+05   2.547550e+05
   2.059664e+05   6.023853e+05
  -1.513307e+05   4.909135e+05
  -5.199299e+05  -1.377664e+05
  -5.058947e+05  -7.562040e+05
  -8.506110e+03  -7.621520e+05
   6.006147e+05  -1.191435e+05
   7.447731e+05   5.995746e+05
   2.104975e+05   8.096042e+05
  -5.455071e+05   4.530760e+05
  -8.007967e+05  -8.154293e+04
  -3.555342e+05  -4.176369e+05
   2.144416e+05  -4.467297e+05
   2.349325e+05  -2.574386e+05
  -2.384717e+05  -2.925642e+04
  -4.974453e+05   1.597733e+04
  -8.749955e+04  -2.194262e+05
   6.185109e+05  -5.061944e+05
   8.925120e+05  -4.329345e+05
   5.098229e+05   9.527021e+04
  -8.354353e+04   6.236379e+05
  -3.692619e+05   6.089137e+05
  -2.635182e+05   7.676034e+04
  -7.665646e+03  -3.792984e+05
   1.917252e+05  -2.922595e+05
   2.642226e+05   1.603729e+05
   1.766168e+05   4.330066e+05
  -5.640072e+04   2.728715e+05
  -2.885083e+05  -5.779621e+04
  -3.336119e+05  -1.788668e+05
  -1.782973e+05  -4.324173e+04
  -7.574132e+02   7.421911e+04
   5.905677e+04  -4.598876e+04
   6.100882e+04  -2.952387e+05
   1.383172e+05  -3.566054e+05
   2.709842e+05  -7.149848e+04
   2.737067e+05   3.446094e+05
   2.501755e+04   4.917028e+05
  -3.310483e+05   2.066156e+05
  -4.594212e+05  -2.460720e+05
  -1.592531e+05  -4.482537e+05
   3.657669e+05  -2.598600e+05
   6.269230e+05   8.607299e+04
   3.383129e+05   2.864134e+05
  -2.226776e+05   2.585950e+05
  -4.648413e+05   1.188605e+05
  -1.483870e+05   2.737484e+03
   3.118824e+05  -9.668311e+03
   3.241839e+05   1.048683e+05
  -1.705084e+05   2.480111e+05
  -6.261385e+05   1.942056e+05
