
 $NMID
 id='ANONYMOUS ', fmtdat='(2E16.6)'
 volume=1.0
 tramp=1.0
 $END
  -3.744090e+07  -8.391379e+05
  -2.289637e+07  -2.171674e+07
   3.771556e+06  -2.466472e+07
   1.779970e+07  -1.147221e+07
   1.180659e+07   2.685790e+06
  -1.247083e+06   6.355372e+06
  -6.906604e+06   5.514237e+05
  -3.106420e+06  -6.367668e+06
   3.411940e+06  -7.610096e+06
   6.672808e+06  -2.376614e+06
   5.087248e+06   4.494911e+06
   5.043705e+05   6.519214e+06
  -3.054785e+06   1.705487e+06
  -2.098881e+06  -4.712168e+06
   2.486678e+06  -5.512329e+06
   5.607579e+06   4.197228e+05
   3.438953e+06   7.073131e+06
  -2.389282e+06   8.348953e+06
  -6.978380e+06   3.979167e+06
  -7.210820e+06  -1.815594e+06
  -3.829756e+06  -5.188601e+06
   3.148409e+04  -5.187645e+06
   1.394945e+06  -3.338402e+06
  -1.617364e+05  -2.131161e+06
  -1.679015e+06  -2.871048e+06
   3.037343e+05  -4.100618e+06
   5.117318e+06  -3.104818e+06
   7.801989e+06   4.414127e+05
   4.958137e+06   3.596214e+06
  -7.270245e+05   3.657702e+06
  -3.638113e+06   1.236718e+06
  -1.823999e+06  -1.032890e+06
   1.625301e+06  -1.482929e+06
   3.073447e+06  -1.057041e+05
   1.911437e+06   2.204930e+06
  -2.571741e+05   3.690681e+06
  -1.770268e+06   2.486036e+06
  -1.722037e+06  -8.036879e+05
  -3.666507e+05  -2.552771e+06
   6.250236e+05  -4.327256e+05
  -2.829068e+05   2.695376e+06
  -2.102743e+06   2.066467e+06
  -1.954367e+06  -2.089457e+06
   1.062981e+06  -4.209953e+06
   3.987063e+06  -8.652967e+05
   3.238954e+06   4.395865e+06
  -1.045734e+06   5.582150e+06
  -5.085121e+06   1.595851e+06
  -5.397650e+06  -3.222455e+06
  -1.862202e+06  -4.658678e+06
   2.587361e+06  -2.466198e+06
   4.448283e+06   7.832001e+05
   2.392252e+06   2.525653e+06
  -1.454570e+06   1.781114e+06
  -3.296283e+06  -4.236784e+05
  -1.598470e+06  -1.797722e+06
   1.155747e+06  -1.003057e+06
   1.544207e+06   7.175518e+05
  -5.038105e+05   1.032752e+06
  -1.842275e+06  -4.670605e+05
  -3.524352e+05  -1.867129e+06
   2.481377e+06  -1.490421e+06
   3.621339e+06   3.984182e+05
   1.842517e+06   2.540672e+06
  -1.552582e+06   3.900110e+06
  -4.340191e+06   3.554018e+06
  -4.930593e+06   9.499333e+05
  -3.151713e+06  -2.754678e+06
  -4.289023e+05  -4.850924e+06
   1.216852e+06  -3.878850e+06
   1.090061e+06  -1.525145e+06
   4.797115e+05  -4.838673e+05
   8.995311e+05  -1.012154e+06
   2.115618e+06  -1.032604e+06
   2.579617e+06   5.747848e+05
   1.459253e+06   2.325596e+06
  -4.882266e+05   2.163712e+06
  -1.834641e+06   3.109430e+04
  -1.608181e+06  -2.196097e+06
   2.111093e+05  -2.684494e+06
   2.500986e+06  -1.098176e+06
   3.452883e+06   1.384448e+06
   2.144838e+06   3.044450e+06
  -2.414727e+05   2.965841e+06
  -1.600348e+06   1.780820e+06
  -1.443008e+06   8.793044e+05
  -1.347338e+06   7.677341e+05
  -2.504652e+06   5.937419e+05
  -3.779776e+06  -5.613277e+05
  -3.069355e+06  -2.398456e+06
  -1.049388e+05  -3.683907e+06
   2.992335e+06  -3.438977e+06
   3.906928e+06  -1.654495e+06
   2.312396e+06   6.958953e+05
  -9.121496e+04   2.100088e+06
  -1.248765e+06   1.583305e+06
  -4.743021e+05  -1.430491e+05
   1.084848e+06  -1.109691e+06
   1.646866e+06  -2.928382e+05
   6.700948e+05   1.046453e+06
  -5.782454e+05   1.004119e+06
  -5.577734e+05  -3.249226e+05
   6.907881e+05  -8.931506e+05
   1.648213e+06   5.396889e+05
   1.094802e+06   2.701808e+06
  -7.192417e+05   3.325372e+06
  -2.566435e+06   1.683813e+06
  -3.305544e+06  -9.038705e+05
  -2.467297e+06  -2.607918e+06
  -5.109582e+05  -2.589142e+06
   1.230103e+06  -1.338216e+06
   1.493411e+06  -1.193823e+05
   4.477375e+05   4.974909e+04
  -3.222953e+05  -6.800573e+05
   3.233812e+05  -1.137217e+06
   1.598784e+06  -4.913050e+05
   1.767265e+06   7.046127e+05
   3.976919e+05   1.191184e+06
  -1.034709e+06   5.444104e+05
  -9.058596e+05  -4.092620e+05
   7.010861e+05  -6.358181e+05
   2.124385e+06   1.024192e+05
   1.836240e+06   1.249257e+06
  -1.138747e+05   1.968966e+06
  -2.147672e+06   1.619018e+06
  -2.556312e+06   2.585150e+05
  -1.077115e+06  -1.102342e+06
   8.060548e+05  -1.250972e+06
   1.299179e+06  -1.275858e+05
   1.047661e+05   9.184896e+05
  -1.361597e+06   6.264606e+05
  -1.562980e+06  -6.732589e+05
  -3.954515e+05  -1.493315e+06
   9.141472e+05  -9.861096e+05
   1.173387e+06   1.639674e+05
   3.144993e+05   6.693188e+05
  -6.593085e+05   6.209863e+04
  -6.276131e+05  -9.475290e+05
   5.707408e+05  -1.266177e+06
   1.842429e+06  -4.266390e+05
   1.815341e+06   1.001848e+06
   3.205492e+05   1.872994e+06
  -1.288490e+06   1.474113e+06
  -1.555486e+06   2.130823e+05
  -4.919059e+05  -7.728770e+05
   5.843625e+05  -7.529829e+05
   6.405523e+05  -5.593366e+04
  -5.927153e+04   4.392286e+05
  -5.405965e+05   3.003970e+05
  -2.935623e+05  -9.228348e+04
   3.136617e+05  -8.314405e+04
   5.192087e+05   4.899155e+05
  -1.101695e+05   1.056652e+06
  -1.235494e+06   8.249362e+05
  -1.890562e+06  -3.844688e+05
  -1.304541e+06  -1.781888e+06
   2.306061e+05  -2.231529e+06
   1.508116e+06  -1.354002e+06
   1.627662e+06   7.106534e+04
   9.006658e+05   9.089634e+05
   3.217300e+05   7.933086e+05
   3.318073e+05   3.257981e+05
   4.474664e+05   2.485267e+05
   5.643741e+04   6.191558e+05
  -7.717313e+05   8.347692e+05
  -1.351406e+06   3.454402e+05
  -1.041001e+06  -6.951912e+05
   1.872505e+05  -1.433812e+06
   1.598841e+06  -1.034077e+06
   2.092004e+06   4.484420e+05
   1.071709e+06   1.914125e+06
  -8.583908e+05   2.144009e+06
  -2.266773e+06   9.798872e+05
  -2.189671e+06  -5.298722e+05
  -9.999584e+05  -1.231815e+06
   1.234967e+05  -9.837799e+05
   4.482343e+05  -5.733891e+05
   2.373095e+05  -6.734786e+05
   1.881645e+05  -1.097184e+06
   6.029623e+05  -1.096980e+06
   1.137735e+06  -2.506717e+05
   1.185829e+06   1.016304e+06
   4.709366e+05   1.747492e+06
  -6.029240e+05   1.307034e+06
  -1.186922e+06   8.671036e+02
  -7.541688e+05  -1.139082e+06
   3.005603e+05  -1.264835e+06
   9.824157e+05  -4.453826e+05
   7.228769e+05   5.114373e+05
  -3.163785e+04   9.060530e+05
  -3.813894e+05   7.256021e+05
  -3.480875e+04   4.282941e+05
   3.694828e+05   3.394735e+05
   3.493661e+04   3.624798e+05
  -1.012141e+06   1.928028e+05
  -1.824942e+06  -3.062878e+05
  -1.465214e+06  -9.288010e+05
  -1.984994e+04  -1.256932e+06
   1.382682e+06  -9.980285e+05
   1.648751e+06  -2.836659e+05
   7.841283e+05   3.653434e+05
  -2.072156e+05   4.715270e+05
  -4.425624e+05   6.426917e+04
   7.377890e+03  -3.270654e+05
   4.405314e+05  -2.125872e+05
   4.243222e+05   3.219815e+05
   1.497301e+05   6.858801e+05
   1.371344e+04   4.446966e+05
   1.355902e+05  -1.342162e+05
   3.154479e+05  -3.248883e+05
   2.628416e+05   2.086301e+05
  -1.787912e+05   9.258563e+05
  -8.351676e+05   9.504429e+05
  -1.166496e+06   9.458574e+04
  -6.844224e+05  -8.522219e+05
   3.964155e+05  -9.717293e+05
   1.109193e+06  -2.232173e+05
   6.530728e+05   5.586485e+05
  -6.350022e+05   5.990532e+05
  -1.487467e+06  -7.121346e+04
  -1.004671e+06  -7.885862e+05
   3.900417e+05  -9.600873e+05
   1.402954e+06  -5.171622e+05
   1.193953e+06   1.415836e+05
   1.520819e+05   4.913251e+05
  -5.928254e+05   2.716808e+05
  -3.269853e+05  -2.538947e+05
   5.770994e+05  -4.382158e+05
   1.079674e+06   1.424293e+05
   5.382636e+05   1.121982e+06
  -6.402961e+05   1.531643e+06
  -1.414196e+06   7.468416e+05
  -1.142328e+06  -7.437081e+05
  -1.489133e+05  -1.672542e+06
   7.063162e+05  -1.219178e+06
   8.652785e+05   1.368169e+05
   4.231699e+05   1.103643e+06
  -1.643661e+05   9.244283e+05
  -5.052196e+05   9.239276e+04
  -4.645531e+05  -3.662313e+05
  -1.924199e+05  -1.443226e+05
  -2.999728e+04   1.011981e+05
  -1.924546e+05  -2.468244e+05
  -4.332260e+05  -8.886968e+05
  -2.117727e+05  -1.011337e+06
   6.078756e+05  -3.646780e+05
   1.366312e+06   4.551541e+05
   1.220355e+06   7.950440e+05
   1.663547e+05   6.390466e+05
  -8.380950e+05   3.690858e+05
  -9.295765e+05   1.689016e+05
  -2.981537e+05  -2.943720e+04
   1.544766e+05  -2.017949e+05
  -1.191602e+04  -2.141294e+05
  -2.945479e+05  -1.202331e+05
  -2.452650e+04  -1.269296e+05
   6.703052e+05  -1.864694e+05
   9.605981e+05   4.484754e+04
   3.133536e+05   6.383911e+05
  -8.467662e+05   1.042041e+06
  -1.550330e+06   6.309000e+05
  -1.234061e+06  -4.523947e+05
  -2.082632e+05  -1.312723e+06
   7.211966e+05  -1.240243e+06
   9.784194e+05  -4.443868e+05
   6.079566e+05   2.540466e+05
   9.604683e+04   3.326120e+05
  -1.076084e+05   3.132947e+04
   6.010343e+04  -4.656587e+04
   2.930684e+05   3.311495e+05
   2.322651e+05   7.512711e+05
  -1.878820e+05   6.139411e+05
  -6.359104e+05  -1.558360e+05
  -6.372431e+05  -9.229867e+05
  -3.768141e+04  -9.496020e+05
   7.267423e+05  -1.718778e+05
   9.277255e+05   7.245284e+05
   2.726210e+05   1.010292e+06
  -6.782475e+05   5.800998e+05
  -1.010100e+06  -1.024902e+05
  -4.548203e+05  -5.459880e+05
   2.746579e+05  -5.816491e+05
   3.219442e+05  -3.235248e+05
  -2.668017e+05  -2.831569e+04
  -6.107754e+05   1.766636e+04
  -1.162483e+05  -2.796784e+05
   7.753214e+05  -6.166605e+05
   1.140533e+06  -5.041786e+05
   6.624610e+05   1.478478e+05
  -1.088177e+05   7.856975e+05
  -4.926219e+05   7.646758e+05
  -3.579642e+05   1.140521e+05
  -2.032155e+04  -4.590909e+05
   2.362187e+05  -3.769538e+05
   3.243563e+05   1.761921e+05
   2.183581e+05   5.392766e+05
  -6.573977e+04   3.627191e+05
  -3.586979e+05  -6.342755e+04
  -4.221916e+05  -2.446461e+05
  -2.218456e+05  -7.261222e+04
   1.199336e+04   1.128157e+05
   7.529811e+04  -1.301805e+04
   4.241599e+04  -3.480557e+05
   1.224411e+05  -4.699348e+05
   3.195621e+05  -1.345447e+05
   3.713608e+05   3.985448e+05
   7.319800e+04   6.061686e+05
  -3.998907e+05   2.661422e+05
  -5.859386e+05  -2.927701e+05
  -2.063976e+05  -5.478047e+05
   4.656827e+05  -3.230017e+05
   7.939602e+05   1.014311e+05
   4.253494e+05   3.587364e+05
  -2.788782e+05   3.392656e+05
  -5.855561e+05   1.680845e+05
  -2.058340e+05   6.966204e+03
   3.569884e+05  -2.992948e+04
   3.892421e+05   1.033303e+05
  -1.903140e+05   2.875293e+05
  -7.399112e+05   2.350494e+05
