
 $NMID
 id='ANONYMOUS ', fmtdat='(2E16.6)'
 volume=1.0
 tramp=1.0
 $END
  -3.530428e+07   1.477654e+06
  -2.351654e+07  -1.842006e+07
   1.268764e+06  -2.348666e+07
   1.605072e+07  -1.284191e+07
   1.197621e+07   1.046715e+06
  -3.473257e+05   6.248609e+06
  -6.782723e+06   1.456464e+06
  -3.858002e+06  -5.906413e+06
   2.615960e+06  -8.027965e+06
   6.367031e+06  -3.071484e+06
   5.228485e+06   4.058883e+06
   8.303930e+05   6.389586e+06
  -2.854675e+06   1.728767e+06
  -2.251025e+06  -4.738618e+06
   2.138141e+06  -5.803353e+06
   5.543176e+06  -1.158168e+05
   3.896684e+06   6.636684e+06
  -1.696109e+06   8.303964e+06
  -6.437763e+06   4.270193e+06
  -6.911093e+06  -1.365949e+06
  -3.756957e+06  -4.627147e+06
  -2.492022e+05  -4.620761e+06
   7.553807e+05  -3.086762e+06
  -7.952736e+05  -2.372129e+06
  -1.921595e+06  -3.313530e+06
   4.020556e+05  -4.328618e+06
   5.230425e+06  -3.104217e+06
   7.785183e+06   3.880664e+05
   4.886562e+06   3.391283e+06
  -8.055927e+05   3.434541e+06
  -3.683487e+06   1.036325e+06
  -1.674804e+06  -1.267565e+06
   2.031737e+06  -1.637475e+06
   3.455192e+06   1.233435e+04
   1.959429e+06   2.489527e+06
  -3.935706e+05   3.807464e+06
  -1.688191e+06   2.376902e+06
  -1.409494e+06  -8.249974e+05
  -2.169874e+05  -2.301957e+06
   4.679808e+05  -1.111098e+05
  -4.421154e+05   2.889076e+06
  -2.109312e+06   2.235111e+06
  -2.122740e+06  -1.862639e+06
   5.274514e+05  -4.173784e+06
   3.494490e+06  -1.256076e+06
   3.318821e+06   3.827510e+06
  -5.225674e+05   5.345603e+06
  -4.755598e+06   1.822036e+06
  -5.570750e+06  -2.903134e+06
  -2.220800e+06  -4.619438e+06
   2.470109e+06  -2.713750e+06
   4.644622e+06   4.856035e+05
   2.711394e+06   2.397351e+06
  -1.212657e+06   1.910068e+06
  -3.259354e+06  -1.347740e+05
  -1.753644e+06  -1.600834e+06
   1.025274e+06  -1.044958e+06
   1.643406e+06   6.306727e+05
  -3.161285e+05   1.210572e+06
  -1.938677e+06  -7.404065e+04
  -8.082782e+05  -1.676909e+06
   2.051580e+06  -1.746520e+06
   3.566602e+06  -5.422889e+04
   2.052420e+06   2.282162e+06
  -1.393451e+06   3.908702e+06
  -4.298858e+06   3.651620e+06
  -4.880560e+06   1.042691e+06
  -3.118256e+06  -2.649661e+06
  -5.636787e+05  -4.807141e+06
   9.652819e+05  -4.026426e+06
   9.921536e+05  -1.818574e+06
   6.663251e+05  -7.028823e+05
   1.200696e+06  -1.019770e+06
   2.311052e+06  -8.877110e+05
   2.626859e+06   7.632339e+05
   1.411457e+06   2.501208e+06
  -6.134732e+05   2.263890e+06
  -2.003372e+06  -1.147428e+04
  -1.721363e+06  -2.337253e+06
   2.036206e+05  -2.783211e+06
   2.527258e+06  -1.106180e+06
   3.447028e+06   1.361158e+06
   2.163241e+06   2.930672e+06
  -1.201806e+05   2.848550e+06
  -1.417166e+06   1.780980e+06
  -1.310980e+06   9.939115e+05
  -1.321937e+06   9.214147e+05
  -2.579679e+06   7.517043e+05
  -3.943218e+06  -4.293664e+05
  -3.268470e+06  -2.380865e+06
  -2.160236e+05  -3.829642e+06
   3.046183e+06  -3.642821e+06
   4.037501e+06  -1.753608e+06
   2.365929e+06   7.329487e+05
  -1.401083e+05   2.171699e+06
  -1.298550e+06   1.610534e+06
  -4.647802e+05  -1.570436e+05
   1.116672e+06  -1.147545e+06
   1.666794e+06  -3.412658e+05
   6.836476e+05   1.031506e+06
  -5.931624e+05   1.038923e+06
  -6.278742e+05  -3.348415e+05
   6.512162e+05  -1.045801e+06
   1.793773e+06   3.472141e+05
   1.415336e+06   2.722358e+06
  -4.754958e+05   3.640490e+06
  -2.631196e+06   2.056408e+06
  -3.618878e+06  -7.639722e+05
  -2.761788e+06  -2.724917e+06
  -6.134865e+05  -2.764955e+06
   1.276279e+06  -1.429010e+06
   1.561990e+06  -1.418089e+05
   4.686560e+05   3.761720e+04
  -3.513074e+05  -6.980637e+05
   2.831299e+05  -1.173285e+06
   1.607384e+06  -5.595824e+05
   1.843532e+06   6.428119e+05
   4.683761e+05   1.197667e+06
  -1.053810e+06   5.956321e+05
  -9.735005e+05  -4.162779e+05
   7.246788e+05  -7.343126e+05
   2.289967e+06   1.692948e+04
   2.022728e+06   1.291188e+06
  -5.385933e+04   2.124336e+06
  -2.224281e+06   1.780024e+06
  -2.670840e+06   3.463367e+05
  -1.153481e+06  -1.095492e+06
   7.782953e+05  -1.295257e+06
   1.305742e+06  -1.740619e+05
   1.179103e+05   9.212804e+05
  -1.389791e+06   6.780488e+05
  -1.650897e+06  -6.448369e+05
  -4.826352e+05  -1.548527e+06
   9.085072e+05  -1.087985e+06
   1.243380e+06   1.052829e+05
   3.717163e+05   6.799296e+05
  -6.696761e+05   8.273786e+04
  -6.642115e+05  -9.721824e+05
   5.799175e+05  -1.325437e+06
   1.914611e+06  -4.727291e+05
   1.909162e+06   1.006149e+06
   3.823516e+05   1.938238e+06
  -1.290349e+06   1.573060e+06
  -1.610638e+06   2.810731e+05
  -5.459438e+05  -7.823060e+05
   5.827836e+05  -8.034853e+05
   6.754015e+05  -6.338388e+04
  -5.786224e+04   4.941265e+05
  -6.008810e+05   3.424571e+05
  -3.546297e+05  -1.258812e+05
   3.251312e+05  -1.525495e+05
   5.915180e+05   4.729807e+05
  -6.015753e+04   1.117257e+06
  -1.267428e+06   9.066946e+05
  -1.989101e+06  -3.506311e+05
  -1.407209e+06  -1.827541e+06
   1.862860e+05  -2.344074e+06
   1.552141e+06  -1.475550e+06
   1.733706e+06   2.072312e+04
   9.957367e+05   9.589875e+05
   3.516341e+05   8.771958e+05
   3.177545e+05   3.550384e+05
   4.489214e+05   2.260960e+05
   8.134699e+04   6.283634e+05
  -7.799765e+05   9.105311e+05
  -1.427747e+06   4.141193e+05
  -1.137287e+06  -7.215170e+05
   1.548180e+05  -1.546639e+06
   1.664043e+06  -1.144129e+06
   2.217062e+06   4.173897e+05
   1.185672e+06   1.977767e+06
  -8.202916e+05   2.270402e+06
  -2.333192e+06   1.106008e+06
  -2.324803e+06  -4.753601e+05
  -1.114938e+06  -1.274617e+06
   9.626483e+04  -1.072173e+06
   4.895205e+05  -6.326913e+05
   2.719344e+05  -6.900811e+05
   1.788186e+05  -1.117131e+06
   5.869105e+05  -1.144639e+06
   1.166793e+06  -2.889233e+05
   1.256891e+06   1.033515e+06
   5.303125e+05   1.815147e+06
  -6.021204e+05   1.378339e+06
  -1.244358e+06   3.286562e+04
  -8.273928e+05  -1.163503e+06
   2.625467e+05  -1.335178e+06
   1.002339e+06  -5.216670e+05
   7.800044e+05   4.806473e+05
   2.158776e+04   9.382245e+05
  -3.522766e+05   7.839945e+05
  -1.733702e+04   4.651356e+05
   3.891820e+05   3.509335e+05
   4.222214e+04   3.819360e+05
  -1.046989e+06   2.367400e+05
  -1.907359e+06  -2.635488e+05
  -1.559647e+06  -9.258545e+05
  -7.374026e+04  -1.306832e+06
   1.397729e+06  -1.078978e+06
   1.712968e+06  -3.541771e+05
   8.443907e+05   3.399071e+05
  -1.905059e+05   4.910823e+05
  -4.593817e+05   9.169908e+04
  -1.050133e+03  -3.261203e+05
   4.605726e+05  -2.290087e+05
   4.503468e+05   3.239752e+05
   1.554310e+05   7.124579e+05
   8.286363e+03   4.592232e+05
   1.464356e+05  -1.574552e+05
   3.453550e+05  -3.578674e+05
   2.874990e+05   2.153544e+05
  -1.768763e+05   9.809187e+05
  -8.528468e+05   1.012958e+06
  -1.195686e+06   1.212204e+05
  -7.156096e+05  -8.697154e+05
   3.857520e+05  -1.010143e+06
   1.137160e+06  -2.483525e+05
   6.929373e+05   5.730551e+05
  -6.457504e+05   6.492641e+05
  -1.571609e+06  -2.878779e+04
  -1.099414e+06  -8.051274e+05
   3.715346e+05  -1.038766e+06
   1.471746e+06  -6.013586e+05
   1.276285e+06   1.119071e+05
   1.791032e+05   5.188067e+05
  -6.149165e+05   3.075058e+05
  -3.432664e+05  -2.505422e+05
   6.000628e+05  -4.593848e+05
   1.126328e+06   1.377742e+05
   5.700532e+05   1.162681e+06
  -6.506946e+05   1.603804e+06
  -1.467004e+06   7.998158e+05
  -1.210429e+06  -7.576841e+05
  -1.918211e+05  -1.751767e+06
   7.154782e+05  -1.303987e+06
   9.181963e+05   1.133708e+05
   4.813426e+05   1.150622e+06
  -1.405212e+05   9.870857e+05
  -5.263929e+05   1.155986e+05
  -5.050128e+05  -3.809964e+05
  -2.147069e+05  -1.558644e+05
  -2.528850e+04   1.120257e+05
  -1.927126e+05  -2.394240e+05
  -4.687755e+05  -9.148164e+05
  -2.587470e+05  -1.062524e+06
   6.125286e+05  -4.051128e+05
   1.444592e+06   4.464967e+05
   1.311705e+06   8.103246e+05
   1.923839e+05   6.643491e+05
  -8.815207e+05   4.006482e+05
  -9.770618e+05   2.013586e+05
  -3.061042e+05  -1.270545e+04
   1.607732e+05  -2.114694e+05
  -2.989798e+04  -2.370481e+05
  -3.236028e+05  -1.347821e+05
  -2.124436e+04  -1.321566e+05
   7.130515e+05  -1.976179e+05
   1.003107e+06   3.087609e+04
   3.200355e+05   6.506500e+05
  -8.749505e+05   1.094017e+06
  -1.594533e+06   6.864443e+05
  -1.279611e+06  -4.484167e+05
  -2.392980e+05  -1.370458e+06
   7.231603e+05  -1.310747e+06
   1.011650e+06  -4.753779e+05
   6.409365e+05   2.636095e+05
   1.002194e+05   3.440995e+05
  -1.222752e+05   2.088191e+04
   6.113460e+04  -6.227435e+04
   3.224516e+05   3.390271e+05
   2.641010e+05   7.837731e+05
  -1.863132e+05   6.410795e+05
  -6.672640e+05  -1.621296e+05
  -6.723324e+05  -9.590816e+05
  -4.317386e+04  -9.843280e+05
   7.599369e+05  -1.772085e+05
   9.758111e+05   7.500010e+05
   2.970660e+05   1.047093e+06
  -6.961721e+05   6.095946e+05
  -1.050669e+06  -8.822845e+04
  -4.823692e+05  -5.497244e+05
   2.704336e+05  -6.016420e+05
   3.178589e+05  -3.456423e+05
  -2.910823e+05  -3.318682e+04
  -6.419367e+05   2.777380e+04
  -1.241305e+05  -2.862119e+05
   7.990395e+05  -6.630338e+05
   1.175251e+06  -5.650893e+05
   6.869484e+05   1.255923e+05
  -9.666193e+04   8.183658e+05
  -4.860840e+05   8.092323e+05
  -3.558428e+05   1.223311e+05
  -2.199083e+04  -4.828079e+05
   2.393350e+05  -3.915202e+05
   3.395889e+05   1.894966e+05
   2.374889e+05   5.595872e+05
  -6.055129e+04   3.689645e+05
  -3.739183e+05  -6.402508e+04
  -4.454029e+05  -2.374815e+05
  -2.362686e+05  -6.386926e+04
   1.211400e+04   1.063872e+05
   8.538535e+04  -3.432397e+04
   5.654801e+04  -3.663369e+05
   1.368579e+05  -4.723638e+05
   3.308082e+05  -1.230129e+05
   3.755938e+05   4.174545e+05
   6.721487e+04   6.267218e+05
  -4.169037e+05   2.784485e+05
  -6.081435e+05  -2.995852e+05
  -2.189476e+05  -5.717210e+05
   4.766843e+05  -3.468050e+05
   8.235172e+05   9.318230e+04
   4.482577e+05   3.657434e+05
  -2.815216e+05   3.512273e+05
  -6.014148e+05   1.776754e+05
  -2.049581e+05   1.338765e+04
   3.818557e+05  -2.353287e+04
   4.088547e+05   1.154347e+05
  -2.069980e+05   3.080447e+05
  -7.862925e+05   2.532867e+05
