
 $NMID
 id='ANONYMOUS ', fmtdat='(2E16.6)'
 volume=1.0
 tramp=1.0
 $END
   2.918831e+07   5.636831e+04
   1.893103e+07   1.490970e+07
  -1.089740e+06   1.880935e+07
  -1.304738e+07   1.101467e+07
  -1.003871e+07  -4.837153e+04
  -5.188192e+04  -5.136519e+06
   5.683410e+06  -1.803139e+06
   3.691956e+06   4.759627e+06
  -1.817716e+06   7.221020e+06
  -5.343418e+06   2.955383e+06
  -4.484075e+06  -3.637151e+06
  -5.842211e+05  -5.728631e+06
   2.648278e+06  -1.337464e+06
   2.073586e+06   4.507050e+06
  -1.748067e+06   5.342803e+06
  -4.702749e+06   2.511454e+05
  -3.324629e+06  -5.644246e+06
   1.481554e+06  -7.019144e+06
   5.527928e+06  -3.385768e+06
   5.704037e+06   1.545130e+06
   2.685997e+06   4.083856e+06
  -2.477204e+05   3.571869e+06
  -5.118373e+05   2.089271e+06
   1.354085e+06   1.963184e+06
   2.166932e+06   3.392973e+06
  -5.130051e+05   4.299370e+06
  -5.151965e+06   2.719446e+06
  -7.225799e+06  -7.392818e+05
  -4.201753e+06  -3.339057e+06
   1.183045e+06  -3.099319e+06
   3.746056e+06  -6.772690e+05
   1.585834e+06   1.608006e+06
  -2.242787e+06   1.903127e+06
  -3.681606e+06  -2.056404e+04
  -1.924489e+06  -2.702726e+06
   6.843131e+05  -3.773444e+06
   1.770163e+06  -1.930988e+06
   1.007938e+06   1.168275e+06
  -2.668116e+05   2.076866e+06
  -5.501191e+05  -3.460919e+05
   5.693197e+05  -2.982315e+06
   1.965411e+06  -2.117922e+06
   1.867693e+06   1.536239e+06
  -2.291150e+05   3.431977e+06
  -2.554842e+06   9.761459e+05
  -2.538187e+06  -3.138310e+06
   4.394345e+05  -4.313903e+06
   4.030308e+06  -1.402809e+06
   4.952538e+06   2.557164e+06
   2.126263e+06   4.111462e+06
  -2.166442e+06   2.555688e+06
  -4.281638e+06  -2.766504e+05
  -2.597511e+06  -2.064982e+06
   9.433977e+05  -1.705595e+06
   2.819686e+06   5.920899e+04
   1.561210e+06   1.336412e+06
  -8.739359e+05   8.967025e+05
  -1.547853e+06  -5.368440e+05
   4.856884e+04  -1.173841e+06
   1.619648e+06  -2.762433e+05
   9.739520e+05   1.101460e+06
  -1.393720e+06   1.437783e+06
  -2.923113e+06   2.264905e+05
  -1.773208e+06  -1.837194e+06
   1.377483e+06  -3.419798e+06
   4.104274e+06  -3.180471e+06
   4.480293e+06  -7.212329e+05
   2.627938e+06   2.583392e+06
   3.259268e+05   4.380103e+06
  -8.060095e+05   3.649412e+06
  -7.386949e+05   1.818902e+06
  -6.752462e+05   9.291026e+05
  -1.433323e+06   1.102594e+06
  -2.476277e+06   7.265446e+05
  -2.598678e+06  -9.785612e+05
  -1.288365e+06  -2.619306e+06
   7.326421e+05  -2.297746e+06
   2.082418e+06   1.149922e+04
   1.718211e+06   2.329394e+06
  -2.581191e+05   2.693609e+06
  -2.451555e+06   9.271415e+05
  -3.119207e+06  -1.456056e+06
  -1.765860e+06  -2.745871e+06
   2.694105e+05  -2.440141e+06
   1.256891e+06  -1.416030e+06
   1.060504e+06  -8.343491e+05
   1.130991e+06  -8.994630e+05
   2.380162e+06  -7.656799e+05
   3.685022e+06   3.644546e+05
   3.076962e+06   2.227328e+06
   2.107393e+05   3.628813e+06
  -2.924606e+06   3.455077e+06
  -3.910868e+06   1.602162e+06
  -2.260480e+06  -8.117696e+05
   2.358468e+05  -2.133628e+06
   1.344461e+06  -1.507876e+06
   4.514946e+05   1.929545e+05
  -1.102620e+06   1.087434e+06
  -1.574836e+06   3.023606e+05
  -5.975896e+05  -9.874655e+05
   6.074600e+05  -1.011373e+06
   6.675196e+05   2.873667e+05
  -4.889697e+05   1.071561e+06
  -1.637548e+06  -9.702226e+04
  -1.493246e+06  -2.373520e+06
   1.630730e+05  -3.481884e+06
   2.332065e+06  -2.178015e+06
   3.512846e+06   5.449640e+05
   2.789976e+06   2.585093e+06
   6.510439e+05   2.698808e+06
  -1.246822e+06   1.375961e+06
  -1.519529e+06   1.118315e+05
  -4.474502e+05  -3.975983e+04
   3.398310e+05   6.628644e+05
  -2.506659e+05   1.088755e+06
  -1.486786e+06   5.191855e+05
  -1.728181e+06  -5.760286e+05
  -4.658766e+05  -1.107685e+06
   9.889211e+05  -5.897284e+05
   9.735271e+05   3.740018e+05
  -6.336100e+05   7.571984e+05
  -2.207729e+06   8.477683e+04
  -2.025994e+06  -1.195278e+06
  -2.087563e+04  -2.075755e+06
   2.115229e+06  -1.753311e+06
   2.555724e+06  -3.473243e+05
   1.089146e+06   1.028456e+06
  -7.391743e+05   1.196358e+06
  -1.209447e+06   1.425628e+05
  -8.477471e+04  -8.661198e+05
   1.319913e+06  -6.387356e+05
   1.575507e+06   5.924390e+05
   5.007600e+05   1.464605e+06
  -8.236851e+05   1.074476e+06
  -1.190683e+06  -4.485838e+04
  -3.945361e+05  -6.259699e+05
   6.088931e+05  -8.992465e+04
   6.244550e+05   9.140070e+05
  -5.580861e+05   1.255768e+06
  -1.827210e+06   4.381991e+05
  -1.811902e+06  -9.672700e+05
  -3.612145e+05  -1.840907e+06
   1.217064e+06  -1.494405e+06
   1.528864e+06  -2.791966e+05
   5.385517e+05   7.386562e+05
  -5.443807e+05   7.815252e+05
  -6.750958e+05   6.815019e+04
   1.426937e+04  -5.098475e+05
   5.893285e+05  -3.863486e+05
   4.125518e+05   1.056622e+05
  -2.501741e+05   1.932400e+05
  -5.652947e+05  -3.922640e+05
   2.443794e+04  -1.040409e+06
   1.187760e+06  -8.674164e+05
   1.889917e+06   3.260901e+05
   1.336065e+06   1.737988e+06
  -1.783435e+05   2.245150e+06
  -1.480593e+06   1.441370e+06
  -1.681069e+06   1.160982e+04
  -1.005456e+06  -9.363987e+05
  -3.675903e+05  -9.106262e+05
  -2.730678e+05  -3.961535e+05
  -3.725217e+05  -2.087921e+05
  -5.906135e+04  -5.649750e+05
   7.247838e+05  -8.663944e+05
   1.357035e+06  -4.199187e+05
   1.115372e+06   6.846907e+05
  -1.141821e+05   1.503284e+06
  -1.579070e+06   1.118685e+06
  -2.126113e+06  -3.841788e+05
  -1.154451e+06  -1.870602e+06
   7.434737e+05  -2.154067e+06
   2.190825e+06  -1.076225e+06
   2.228396e+06   4.083480e+05
   1.121153e+06   1.201259e+06
  -4.854989e+04   1.064176e+06
  -4.898363e+05   6.567601e+05
  -3.239452e+05   6.688721e+05
  -2.130661e+05   1.035870e+06
  -5.586038e+05   1.060562e+06
  -1.096754e+06   2.603686e+05
  -1.190963e+06  -9.940222e+05
  -5.009701e+05  -1.737594e+06
   5.815856e+05  -1.318231e+06
   1.191067e+06  -4.133028e+04
   7.968472e+05   1.088794e+06
  -2.210685e+05   1.263869e+06
  -9.121458e+05   5.259020e+05
  -7.256500e+05  -4.031333e+05
  -5.172832e+04  -8.538145e+05
   2.844934e+05  -7.432341e+05
  -7.932908e+03  -4.602165e+05
  -3.620344e+05  -3.488006e+05
  -3.318938e+04  -3.690343e+05
   9.786400e+05  -2.256455e+05
   1.789898e+06   2.486132e+05
   1.482571e+06   8.665334e+05
   9.663772e+04   1.216038e+06
  -1.299763e+06   1.010005e+06
  -1.617791e+06   3.566355e+05
  -8.085649e+05  -2.807509e+05
   1.704030e+05  -4.444828e+05
   4.226510e+05  -1.008992e+05
  -2.059349e+04   2.880739e+05
  -4.569962e+05   2.107559e+05
  -4.231338e+05  -3.139741e+05
  -1.155461e+05  -6.967823e+05
   2.264303e+04  -4.477365e+05
  -1.381449e+05   1.709399e+05
  -3.457506e+05   3.731955e+05
  -2.763263e+05  -1.980863e+05
   1.836245e+05  -9.463205e+05
   8.124965e+05  -9.574252e+05
   1.106306e+06  -8.505314e+04
   6.437833e+05   8.399453e+05
  -3.766787e+05   9.330274e+05
  -1.071119e+06   1.980908e+05
  -6.567624e+05  -5.608793e+05
   6.090759e+05  -6.225143e+05
   1.510859e+06   1.083512e+04
   1.087955e+06   7.532821e+05
  -3.204088e+05   1.009982e+06
  -1.405428e+06   6.182107e+05
  -1.242622e+06  -7.861768e+04
  -1.887483e+05  -5.000209e+05
   5.810800e+05  -3.084569e+05
   3.161103e+05   2.315556e+05
  -5.921527e+05   4.259178e+05
  -1.078597e+06  -1.586369e+05
  -5.152641e+05  -1.132250e+06
   6.655679e+05  -1.527015e+06
   1.428572e+06  -7.408366e+05
   1.156547e+06   7.434715e+05
   1.735862e+05   1.687007e+06
  -6.867731e+05   1.263730e+06
  -8.805936e+05  -8.967546e+04
  -4.789258e+05  -1.095749e+06
   1.055803e+05  -9.550429e+05
   4.930742e+05  -1.200864e+05
   5.041178e+05   3.660078e+05
   2.297536e+05   1.519310e+05
   1.500407e+04  -1.127602e+05
   1.492119e+05   2.212035e+05
   4.337210e+05   8.744624e+05
   2.732258e+05   1.019392e+06
  -5.566769e+05   3.853252e+05
  -1.388458e+06  -4.328142e+05
  -1.280209e+06  -7.757420e+05
  -1.838299e+05  -6.308572e+05
   8.693899e+05  -3.824453e+05
   9.436883e+05  -1.998014e+05
   2.713562e+05   3.989438e+03
  -1.648123e+05   2.019225e+05
   5.609777e+04   2.349194e+05
   3.406388e+05   1.389121e+05
   9.635332e+03   1.298611e+05
  -7.162230e+05   1.812311e+05
  -9.591407e+05  -4.427036e+04
  -2.603734e+05  -6.294822e+05
   8.759550e+05  -1.031740e+06
   1.517846e+06  -6.222703e+05
   1.191253e+06   4.621658e+05
   2.094880e+05   1.321782e+06
  -6.958462e+05   1.239154e+06
  -9.750993e+05   4.291783e+05
  -6.193826e+05  -2.709191e+05
  -8.195263e+04  -3.318302e+05
   1.446933e+05  -7.985379e+03
  -4.563697e+04   7.613833e+04
  -3.178370e+05  -3.152346e+05
  -2.595977e+05  -7.498585e+05
   1.894798e+05  -6.087809e+05
   6.480147e+05   1.770584e+05
   6.251257e+05   9.461381e+05
   2.728030e+03   9.477089e+05
  -7.522292e+05   1.412114e+05
  -9.255347e+05  -7.533485e+05
  -2.576664e+05  -1.008211e+06
   6.808308e+05  -5.590172e+05
   9.939378e+05   1.038816e+05
   4.382552e+05   5.151043e+05
  -2.669055e+05   5.490836e+05
  -2.860297e+05   3.184499e+05
   3.047665e+05   3.901722e+04
   6.220713e+05  -1.848924e+04
   1.067842e+05   2.722844e+05
  -7.704104e+05   6.320284e+05
  -1.106006e+06   5.454493e+05
  -6.287295e+05  -1.125090e+05
   1.040319e+05  -7.742882e+05
   4.536667e+05  -7.564302e+05
   3.214848e+05  -9.093957e+04
   5.919053e+03   4.756256e+05
  -2.403107e+05   3.605247e+05
  -3.296836e+05  -2.061237e+05
  -2.191337e+05  -5.398544e+05
   7.173794e+04  -3.342908e+05
   3.590225e+05   7.457460e+04
   4.136926e+05   2.181434e+05
   2.224617e+05   4.988500e+04
   4.076043e+03  -8.729840e+04
  -7.386248e+04   6.753954e+04
  -8.481257e+04   3.714910e+05
  -1.842828e+05   4.370176e+05
  -3.411701e+05   7.770138e+04
  -3.325825e+05  -4.364886e+05
  -1.999765e+04  -6.134100e+05
   4.157981e+05  -2.542089e+05
   5.681375e+05   3.109768e+05
   1.948007e+05   5.611928e+05
  -4.540810e+05   3.227489e+05
  -7.772106e+05  -1.102258e+05
  -4.195273e+05  -3.569310e+05
   2.770799e+05  -3.173591e+05
   5.770419e+05  -1.425645e+05
   1.801409e+05  -2.938097e+03
  -3.948279e+05   6.711799e+03
  -4.062213e+05  -1.374558e+05
   2.180192e+05  -3.127773e+05
   7.892519e+05  -2.414025e+05
