
 $NMID
 id='ANONYMOUS ', fmtdat='(2E16.6)'
 volume=1.0
 tramp=1.0
 $END
  -3.043335e+07  -1.186300e+06
  -1.897682e+07  -1.595192e+07
   1.769046e+06  -1.925865e+07
   1.365093e+07  -1.107552e+07
   1.023316e+07   8.560785e+04
  -3.325174e+04   5.210529e+06
  -5.836267e+06   1.841927e+06
  -3.768232e+06  -4.907781e+06
   1.905148e+06  -7.486287e+06
   5.546863e+06  -3.011698e+06
   4.604984e+06   3.924557e+06
   4.852321e+05   6.048866e+06
  -2.857132e+06   1.312664e+06
  -2.161227e+06  -4.841818e+06
   1.860561e+06  -5.612029e+06
   4.871064e+06  -1.936243e+05
   3.344619e+06   5.940239e+06
  -1.693089e+06   7.266798e+06
  -5.861831e+06   3.361026e+06
  -5.917908e+06  -1.841976e+06
  -2.606916e+06  -4.423606e+06
   5.110955e+05  -3.696469e+06
   6.347378e+05  -1.996353e+06
  -1.541345e+06  -1.929464e+06
  -2.432999e+06  -3.629408e+06
   5.592639e+05  -4.659425e+06
   5.596609e+06  -2.865571e+06
   7.735004e+06   9.356673e+05
   4.376994e+06   3.685933e+06
  -1.418552e+06   3.326086e+06
  -4.118602e+06   6.586426e+05
  -1.747381e+06  -1.828262e+06
   2.421617e+06  -2.153203e+06
   4.020631e+06  -2.992876e+04
   2.111233e+06   2.941973e+06
  -7.821283e+05   4.090968e+06
  -1.971175e+06   1.999689e+06
  -1.043634e+06  -1.387076e+06
   4.247405e+05  -2.262931e+06
   6.843121e+05   4.570117e+05
  -6.126741e+05   3.261112e+06
  -2.093358e+06   2.251116e+06
  -1.909723e+06  -1.616134e+06
   2.889985e+05  -3.501390e+06
   2.599316e+06  -8.597987e+05
   2.482797e+06   3.356657e+06
  -5.965852e+05   4.435937e+06
  -4.258246e+06   1.336368e+06
  -5.178197e+06  -2.760035e+06
  -2.217786e+06  -4.333177e+06
   2.286736e+06  -2.681183e+06
   4.508218e+06   2.937811e+05
   2.724769e+06   2.153616e+06
  -9.936002e+05   1.741139e+06
  -2.930962e+06  -1.146110e+05
  -1.591806e+06  -1.404819e+06
   9.378729e+05  -9.063698e+05
   1.629814e+06   5.697796e+05
  -5.425992e+03   1.210291e+06
  -1.620458e+06   3.223206e+05
  -9.900628e+05  -1.038773e+06
   1.410165e+06  -1.391033e+06
   2.986311e+06  -1.987550e+05
   1.795491e+06   1.918209e+06
  -1.529217e+06   3.591345e+06
  -4.430027e+06   3.328885e+06
  -4.789424e+06   6.787945e+05
  -2.734760e+06  -2.828697e+06
  -2.589610e+05  -4.661995e+06
   8.705955e+05  -3.827065e+06
   7.215748e+05  -1.921803e+06
   6.773528e+05  -1.060046e+06
   1.574408e+06  -1.261302e+06
   2.735963e+06  -7.941655e+05
   2.842862e+06   1.095352e+06
   1.392310e+06   2.868445e+06
  -8.068425e+05   2.506425e+06
  -2.265885e+06   2.176870e+03
  -1.858449e+06  -2.508828e+06
   2.958571e+05  -2.894759e+06
   2.652165e+06  -9.586034e+05
   3.314817e+06   1.624791e+06
   1.805754e+06   2.969137e+06
  -3.683355e+05   2.565505e+06
  -1.363510e+06   1.433187e+06
  -1.105029e+06   8.378657e+05
  -1.176536e+06   9.466943e+05
  -2.522074e+06   8.151561e+05
  -3.917405e+06  -3.946878e+05
  -3.270637e+06  -2.380800e+06
  -2.157100e+05  -3.874693e+06
   3.140250e+06  -3.689473e+06
   4.206772e+06  -1.698302e+06
   2.430220e+06   9.006085e+05
  -2.730131e+05   2.310547e+06
  -1.469292e+06   1.612693e+06
  -4.871067e+05  -2.222855e+05
   1.195947e+06  -1.162360e+06
   1.685266e+06  -3.042053e+05
   6.191318e+05   1.068889e+06
  -6.643082e+05   1.083558e+06
  -7.227095e+05  -2.997229e+05
   4.915844e+05  -1.141656e+06
   1.704342e+06   7.077473e+04
   1.589284e+06   2.470352e+06
  -1.177085e+05   3.676675e+06
  -2.424110e+06   2.343539e+06
  -3.735905e+06  -5.357594e+05
  -3.007024e+06  -2.737762e+06
  -7.151656e+05  -2.888495e+06
   1.337245e+06  -1.475739e+06
   1.631323e+06  -1.151507e+05
   4.767941e+05   4.381763e+04
  -3.614414e+05  -7.106869e+05
   2.748867e+05  -1.155372e+06
   1.586133e+06  -5.380001e+05
   1.831960e+06   6.229093e+05
   4.866891e+05   1.178331e+06
  -1.059913e+06   6.271049e+05
  -1.049006e+06  -3.980899e+05
   6.614728e+05  -8.188356e+05
   2.356109e+06  -1.140879e+05
   2.182395e+06   1.261002e+06
   4.104656e+04   2.221350e+06
  -2.256133e+06   1.881391e+06
  -2.730567e+06   3.692627e+05
  -1.153182e+06  -1.100323e+06
   8.010452e+05  -1.265460e+06
   1.287874e+06  -1.347816e+05
   7.652881e+04   9.294561e+05
  -1.415688e+06   6.752113e+05
  -1.678879e+06  -6.351279e+05
  -5.347598e+05  -1.558642e+06
   8.719638e+05  -1.144753e+06
   1.265245e+06   4.375718e+04
   4.203366e+05   6.637405e+05
  -6.508222e+05   9.266583e+04
  -6.670946e+05  -9.820119e+05
   6.015480e+05  -1.346842e+06
   1.959906e+06  -4.658017e+05
   1.936675e+06   1.040848e+06
   3.800069e+05   1.968221e+06
  -1.302759e+06   1.589960e+06
  -1.629090e+06   2.932542e+05
  -5.712428e+05  -7.880822e+05
   5.838460e+05  -8.335853e+05
   7.284096e+05  -7.224850e+04
  -4.915259e+03   5.528749e+05
  -6.305231e+05   4.294235e+05
  -4.584474e+05  -1.022355e+05
   2.479701e+05  -2.127225e+05
   5.989214e+05   4.044344e+05
  -2.047103e+04   1.103306e+06
  -1.265222e+06   9.262888e+05
  -2.018938e+06  -3.489063e+05
  -1.425347e+06  -1.859466e+06
   1.927175e+05  -2.400736e+06
   1.579966e+06  -1.543497e+06
   1.796253e+06  -1.961438e+04
   1.084752e+06   9.969037e+05
   4.064236e+05   9.811954e+05
   2.933777e+05   4.368041e+05
   3.881800e+05   2.274933e+05
   5.820466e+04   5.982256e+05
  -7.680890e+05   9.241570e+05
  -1.445592e+06   4.569174e+05
  -1.199902e+06  -7.240110e+05
   1.095217e+05  -1.608474e+06
   1.682805e+06  -1.202129e+06
   2.274202e+06   4.070040e+05
   1.235402e+06   1.996466e+06
  -7.924123e+05   2.296536e+06
  -2.335308e+06   1.147187e+06
  -2.377690e+06  -4.308660e+05
  -1.204729e+06  -1.276418e+06
   4.065045e+04  -1.140023e+06
   5.220431e+05  -7.142110e+05
   3.577954e+05  -7.241799e+05
   2.408486e+05  -1.105865e+06
   6.022651e+05  -1.126263e+06
   1.171620e+06  -2.717845e+05
   1.271222e+06   1.066971e+06
   5.325824e+05   1.860344e+06
  -6.253370e+05   1.409816e+06
  -1.273813e+06   4.396022e+04
  -8.496426e+05  -1.161209e+06
   2.341419e+05  -1.345935e+06
   9.653473e+05  -5.611190e+05
   7.664219e+05   4.240058e+05
   5.547647e+04   9.024554e+05
  -2.969491e+05   7.884317e+05
   1.324521e+04   4.919056e+05
   3.866665e+05   3.750688e+05
   3.559502e+04   3.951484e+05
  -1.041988e+06   2.393058e+05
  -1.908078e+06  -2.683303e+05
  -1.582043e+06  -9.255248e+05
  -1.031867e+05  -1.293603e+06
   1.387483e+06  -1.072120e+06
   1.725315e+06  -3.799561e+05
   8.600672e+05   2.942484e+05
  -1.827279e+05   4.697891e+05
  -4.476398e+05   1.085815e+05
   2.715784e+04  -3.046990e+05
   4.904547e+05  -2.244402e+05
   4.503267e+05   3.364428e+05
   1.192134e+05   7.493452e+05
  -2.892879e+04   4.824850e+05
   1.446610e+05  -1.863216e+05
   3.697144e+05  -4.069429e+05
   2.971156e+05   2.089608e+05
  -1.959322e+05   1.014902e+06
  -8.692998e+05   1.023422e+06
  -1.180915e+06   8.373497e+04
  -6.830895e+05  -9.032517e+05
   4.071302e+05  -9.932854e+05
   1.145809e+06  -2.038128e+05
   7.017231e+05   6.021040e+05
  -6.494798e+05   6.641872e+05
  -1.614024e+06  -8.854101e+03
  -1.166944e+06  -7.991310e+05
   3.351822e+05  -1.078578e+06
   1.498124e+06  -6.670449e+05
   1.329599e+06   7.800756e+04
   2.045985e+05   5.338206e+05
  -6.197067e+05   3.308543e+05
  -3.355333e+05  -2.484065e+05
   6.380163e+05  -4.550914e+05
   1.156343e+06   1.746473e+05
   5.471933e+05   1.217006e+06
  -7.201440e+05   1.634430e+06
  -1.533394e+06   7.889675e+05
  -1.236672e+06  -7.984098e+05
  -1.837841e+05  -1.805594e+06
   7.337245e+05  -1.353149e+06
   9.402286e+05   9.306719e+04
   5.141767e+05   1.169667e+06
  -1.081634e+05   1.021081e+06
  -5.254553e+05   1.292249e+05
  -5.426874e+05  -3.903870e+05
  -2.497688e+05  -1.615594e+05
  -1.442754e+04   1.203442e+05
  -1.534761e+05  -2.384953e+05
  -4.605297e+05  -9.366415e+05
  -2.950477e+05  -1.088563e+06
   5.913063e+05  -4.086683e+05
   1.485302e+06   4.641913e+05
   1.371961e+06   8.281006e+05
   1.960534e+05   6.736318e+05
  -9.333937e+05   4.102462e+05
  -1.009754e+06   2.149497e+05
  -2.861066e+05  -4.694995e+03
   1.782502e+05  -2.161685e+05
  -6.479553e+04  -2.497243e+05
  -3.703065e+05  -1.476792e+05
  -9.435825e+03  -1.406945e+05
   7.718023e+05  -1.952870e+05
   1.026954e+06   5.024754e+04
   2.715891e+05   6.780467e+05
  -9.445239e+05   1.103193e+06
  -1.624719e+06   6.582686e+05
  -1.270729e+06  -5.023868e+05
  -2.211630e+05  -1.416265e+06
   7.461899e+05  -1.322772e+06
   1.046076e+06  -4.555125e+05
   6.651051e+05   2.923080e+05
   8.588121e+04   3.567886e+05
  -1.600006e+05   9.094990e+03
   4.551576e+04  -8.300445e+04
   3.406079e+05   3.351949e+05
   2.781901e+05   8.019071e+05
  -2.055849e+05   6.513423e+05
  -6.964632e+05  -1.926392e+05
  -6.671419e+05  -1.018316e+06
   3.528124e+03  -1.017259e+06
   8.104624e+05  -1.478473e+05
   9.903805e+05   8.122030e+05
   2.712639e+05   1.080989e+06
  -7.322401e+05   5.947464e+05
  -1.062529e+06  -1.153281e+05
  -4.642601e+05  -5.512701e+05
   2.889234e+05  -5.839831e+05
   3.046556e+05  -3.373852e+05
  -3.298970e+05  -4.086762e+04
  -6.668378e+05   1.905713e+04
  -1.121564e+05  -2.917007e+05
   8.251823e+05  -6.752385e+05
   1.179689e+06  -5.816108e+05
   6.670609e+05   1.217828e+05
  -1.143084e+05   8.271913e+05
  -4.851134e+05   8.047519e+05
  -3.427740e+05   9.171405e+04
  -4.835658e+03  -5.115913e+05
   2.597696e+05  -3.840609e+05
   3.548888e+05   2.238379e+05
   2.330925e+05   5.785486e+05
  -8.041187e+04   3.555581e+05
  -3.849923e+05  -8.197820e+04
  -4.394776e+05  -2.331678e+05
  -2.362927e+05  -5.200466e+04
  -7.880783e+03   9.245361e+04
   7.514520e+04  -7.679331e+04
   9.401528e+04  -4.026721e+05
   2.065916e+05  -4.688591e+05
   3.715383e+05  -7.857394e+04
   3.539614e+05   4.745231e+05
   1.534693e+04   6.612191e+05
  -4.481046e+05   2.710056e+05
  -6.070370e+05  -3.374344e+05
  -2.069326e+05  -6.033692e+05
   4.860063e+05  -3.433640e+05
   8.309290e+05   1.223122e+05
   4.474098e+05   3.837086e+05
  -2.991663e+05   3.368106e+05
  -6.193617e+05   1.477855e+05
  -1.906854e+05   2.227717e+02
   4.280082e+05  -6.555166e+03
   4.384709e+05   1.504232e+05
  -2.351622e+05   3.385076e+05
  -8.497088e+05   2.600862e+05
