
 $NMID
 id='ANONYMOUS ', fmtdat='(2E16.6)'
 volume=1.0
 tramp=1.0
 $END
   3.895338e+07  -4.900211e+05
   2.451003e+07   2.170728e+07
  -3.047350e+06   2.570620e+07
  -1.799718e+07   1.254154e+07
  -1.227893e+07  -2.323103e+06
   1.055727e+06  -6.605707e+06
   7.094891e+06  -8.398803e+05
   3.452700e+06   6.446912e+06
  -3.207354e+06   7.997781e+06
  -6.799598e+06   2.722398e+06
  -5.463424e+06  -4.463994e+06
  -7.959766e+05  -6.753852e+06
   3.114493e+06  -1.900142e+06
   2.396833e+06   4.802018e+06
  -2.333651e+06   5.814546e+06
  -5.820097e+06  -2.162914e+05
  -3.841686e+06  -7.201579e+06
   2.156751e+06  -8.754702e+06
   7.102071e+06  -4.399095e+06
   7.575822e+06   1.621948e+06
   4.176404e+06   5.274117e+06
   1.330866e+05   5.410474e+06
  -1.355746e+06   3.496326e+06
   2.598240e+05   2.150357e+06
   1.908072e+06   2.882308e+06
  -1.114528e+05   4.289933e+06
  -5.194572e+06   3.474216e+06
  -8.151346e+06  -1.170489e+05
  -5.315988e+06  -3.542450e+06
   6.090567e+05  -3.861788e+06
   3.752233e+06  -1.465196e+06
   1.974876e+06   9.985927e+05
  -1.598369e+06   1.649911e+06
  -3.197720e+06   2.864570e+05
  -2.118546e+06  -2.201898e+06
   8.702520e+04  -3.873232e+06
   1.751177e+06  -2.671355e+06
   1.848897e+06   7.890617e+05
   4.798007e+05   2.669884e+06
  -6.685852e+05   4.767640e+05
   1.517135e+05  -2.831125e+06
   2.086930e+06  -2.242454e+06
   2.104736e+06   2.085210e+06
  -9.454527e+05   4.388161e+06
  -4.101794e+06   1.017328e+06
  -3.514998e+06  -4.454818e+06
   8.872891e+05  -5.826479e+06
   5.224327e+06  -1.848325e+06
   5.734227e+06   3.118811e+06
   2.130399e+06   4.744778e+06
  -2.569839e+06   2.667009e+06
  -4.638841e+06  -6.120757e+05
  -2.585644e+06  -2.503432e+06
   1.431712e+06  -1.896269e+06
   3.430660e+06   3.078543e+05
   1.725520e+06   1.795737e+06
  -1.159507e+06   1.084123e+06
  -1.631323e+06  -6.726504e+05
   4.678280e+05  -1.075004e+06
   1.901164e+06   4.098403e+05
   4.164834e+05   1.894402e+06
  -2.513830e+06   1.613409e+06
  -3.755273e+06  -2.780421e+05
  -2.002079e+06  -2.559566e+06
   1.454422e+06  -4.122636e+06
   4.365450e+06  -3.891725e+06
   5.095963e+06  -1.199795e+06
   3.401269e+06   2.742378e+06
   6.531810e+05   5.031353e+06
  -1.093248e+06   4.072546e+06
  -1.047185e+06   1.620924e+06
  -4.540734e+05   5.358795e+05
  -8.831248e+05   1.122019e+06
  -2.166663e+06   1.192380e+06
  -2.730477e+06  -4.743145e+05
  -1.643033e+06  -2.357812e+06
   3.979118e+05  -2.285678e+06
   1.908397e+06  -1.320025e+05
   1.783531e+06   2.202011e+06
  -9.143810e+04   2.804556e+06
  -2.557783e+06   1.258800e+06
  -3.661358e+06  -1.292746e+06
  -2.361196e+06  -3.084393e+06
   1.366412e+05  -3.098680e+06
   1.598975e+06  -1.911744e+06
   1.462224e+06  -9.641354e+05
   1.358876e+06  -8.515298e+05
   2.568739e+06  -7.298593e+05
   3.948638e+06   4.097443e+05
   3.297992e+06   2.349173e+06
   2.810035e+05   3.821720e+06
  -2.948838e+06   3.715670e+06
  -3.988092e+06   1.906668e+06
  -2.444133e+06  -6.164046e+05
  -6.673557e+03  -2.195872e+06
   1.227206e+06  -1.711196e+06
   5.024980e+05   1.270544e+05
  -1.076658e+06   1.206501e+06
  -1.698393e+06   3.793048e+05
  -7.438428e+05  -1.060090e+06
   5.529663e+05  -1.073282e+06
   5.932508e+05   3.057954e+05
  -6.672990e+05   9.511610e+05
  -1.717516e+06  -4.843564e+05
  -1.249995e+06  -2.738801e+06
   5.829878e+05  -3.465034e+06
   2.565142e+06  -1.860973e+06
   3.463278e+06   7.733241e+05
   2.688921e+06   2.579505e+06
   6.597204e+05   2.661858e+06
  -1.214208e+06   1.451277e+06
  -1.548176e+06   1.965157e+05
  -4.676632e+05  -3.045323e+04
   3.665466e+05   6.911171e+05
  -2.848893e+05   1.194447e+06
  -1.638206e+06   5.811985e+05
  -1.865068e+06  -6.509181e+05
  -4.659772e+05  -1.216430e+06
   1.047868e+06  -6.127824e+05
   9.594255e+05   3.792618e+05
  -6.932559e+05   6.907587e+05
  -2.205048e+06  -2.076793e+03
  -1.966215e+06  -1.202956e+06
   1.990851e+04  -2.046522e+06
   2.150432e+06  -1.784146e+06
   2.642285e+06  -3.901691e+05
   1.169065e+06   1.094836e+06
  -7.817131e+05   1.336143e+06
  -1.344532e+06   1.899915e+05
  -1.499844e+05  -9.512681e+05
   1.385841e+06  -7.140540e+05
   1.653536e+06   6.254871e+05
   4.807208e+05   1.529101e+06
  -8.994970e+05   1.064392e+06
  -1.222064e+06  -1.139811e+05
  -3.565745e+05  -6.769720e+05
   6.813035e+05  -9.298824e+04
   6.957563e+05   9.561118e+05
  -5.344110e+05   1.343341e+06
  -1.895726e+06   5.301809e+05
  -1.934027e+06  -9.562931e+05
  -4.206225e+05  -1.931015e+06
   1.269305e+06  -1.590894e+06
   1.604527e+06  -2.942295e+05
   5.466549e+05   7.780141e+05
  -5.705002e+05   8.087811e+05
  -6.627313e+05   9.040530e+04
   3.745588e+04  -4.570570e+05
   5.436370e+05  -3.401976e+05
   3.100591e+05   7.613591e+04
  -3.170669e+05   9.788524e+04
  -5.583710e+05  -4.830162e+05
   6.556471e+04  -1.100191e+06
   1.244127e+06  -9.142042e+05
   1.981909e+06   3.104814e+05
   1.439239e+06   1.790209e+06
  -1.333568e+05   2.329592e+06
  -1.500066e+06   1.478562e+06
  -1.692269e+06   5.991060e+03
  -9.814459e+05  -8.973757e+05
  -3.783995e+05  -8.074778e+05
  -3.643826e+05  -3.261402e+05
  -4.753758e+05  -2.413360e+05
  -8.525679e+04  -6.415485e+05
   7.618425e+05  -9.026507e+05
   1.385855e+06  -4.235237e+05
   1.115330e+06   6.702536e+05
  -1.234714e+05   1.496714e+06
  -1.610038e+06   1.150344e+06
  -2.194172e+06  -3.657234e+05
  -1.203193e+06  -1.936151e+06
   7.909432e+05  -2.265015e+06
   2.306647e+06  -1.122766e+06
   2.296584e+06   4.454656e+05
   1.096884e+06   1.227695e+06
  -7.776538e+04   1.025219e+06
  -4.347169e+05   6.197425e+05
  -2.149903e+05   7.163249e+05
  -1.467550e+05   1.151674e+06
  -5.770965e+05   1.167534e+06
  -1.171190e+06   3.126235e+05
  -1.280611e+06  -1.000704e+06
  -5.722382e+05  -1.793915e+06
   5.646016e+05  -1.387091e+06
   1.232490e+06  -5.735217e+04
   8.358487e+05   1.147016e+06
  -2.528390e+05   1.325876e+06
  -9.967695e+05   5.061090e+05
  -7.706064e+05  -4.978171e+05
  -7.184988e+03  -9.398043e+05
   3.616011e+05  -7.678026e+05
   1.427390e+04  -4.448839e+05
  -4.010339e+05  -3.360391e+05
  -5.388831e+04  -3.755806e+05
   1.042195e+06  -2.467804e+05
   1.910108e+06   2.340519e+05
   1.564991e+06   8.959387e+05
   7.793981e+04   1.302634e+06
  -1.390559e+06   1.099431e+06
  -1.697895e+06   3.715824e+05
  -8.285366e+05  -3.417154e+05
   1.946923e+05  -4.985002e+05
   4.554940e+05  -8.673719e+04
   5.861582e+03   3.414588e+05
  -4.482786e+05   2.430329e+05
  -4.563575e+05  -3.148851e+05
  -1.890187e+05  -7.082343e+05
  -3.563977e+04  -4.638758e+05
  -1.328010e+05   1.461360e+05
  -3.101997e+05   3.543747e+05
  -2.827428e+05  -2.040301e+05
   1.410787e+05  -9.719545e+05
   8.235233e+05  -1.027118e+06
   1.209698e+06  -1.504967e+05
   7.518709e+05   8.563087e+05
  -3.683969e+05   1.028755e+06
  -1.144751e+06   2.829094e+05
  -7.060520e+05  -5.499749e+05
   6.309860e+05  -6.519567e+05
   1.547610e+06   2.356921e+03
   1.080584e+06   7.684045e+05
  -3.577325e+05   1.013568e+06
  -1.429654e+06   6.045102e+05
  -1.245371e+06  -8.821793e+04
  -1.819030e+05  -5.019534e+05
   6.018802e+05  -3.100425e+05
   3.510128e+05   2.492218e+05
  -5.801831e+05   4.840471e+05
  -1.130777e+06  -9.696726e+04
  -6.137950e+05  -1.142837e+06
   5.935695e+05  -1.625124e+06
   1.436027e+06  -8.448848e+05
   1.223665e+06   7.186889e+05
   2.350492e+05   1.731573e+06
  -6.746060e+05   1.300730e+06
  -9.041289e+05  -1.005735e+05
  -4.920410e+05  -1.125122e+06
   1.256659e+05  -9.662761e+05
   5.197643e+05  -1.193414e+05
   5.005251e+05   3.568628e+05
   2.073077e+05   1.389997e+05
   2.580646e+04  -1.058803e+05
   2.106613e+05   2.499947e+05
   4.921140e+05   9.039428e+05
   2.686059e+05   1.038742e+06
  -6.140845e+05   4.054639e+05
  -1.441759e+06  -4.075044e+05
  -1.306130e+06  -7.660331e+05
  -2.029172e+05  -6.560283e+05
   8.535866e+05  -4.253969e+05
   9.573668e+05  -2.205094e+05
   3.102981e+05   1.796250e+04
  -1.510670e+05   2.178181e+05
   2.357327e+04   2.198202e+05
   3.129881e+05   1.086351e+05
   3.169315e+04   1.316751e+05
  -6.886562e+05   2.282374e+05
  -1.001411e+06  -1.154001e+03
  -3.559415e+05  -6.520875e+05
   8.318988e+05  -1.125819e+06
   1.583417e+06  -7.282321e+05
   1.305928e+06   4.143006e+05
   2.794557e+05   1.355686e+06
  -6.915464e+05   1.323138e+06
  -9.976084e+05   5.085818e+05
  -6.453763e+05  -2.348108e+05
  -1.156685e+05  -3.422142e+05
   1.116147e+05  -3.971543e+04
  -5.878806e+04   5.045086e+04
  -3.196806e+05  -3.293214e+05
  -2.771199e+05  -7.690669e+05
   1.665816e+05  -6.476718e+05
   6.700085e+05   1.312474e+05
   7.079876e+05   9.305090e+05
   8.427801e+04   9.879389e+05
  -7.494323e+05   2.147464e+05
  -1.001064e+06  -7.097284e+05
  -3.315063e+05  -1.038886e+06
   6.791763e+05  -6.358808e+05
   1.055809e+06   5.954131e+04
   4.974563e+05   5.473840e+05
  -2.598970e+05   6.177951e+05
  -3.199285e+05   3.499219e+05
   2.793954e+05   1.472810e+04
   6.345046e+05  -4.796458e+04
   1.338466e+05   2.859687e+05
  -7.764964e+05   6.780296e+05
  -1.160468e+06   5.767086e+05
  -6.943976e+05  -1.242382e+05
   7.651449e+04  -8.223128e+05
   4.767192e+05  -8.168451e+05
   3.683157e+05  -1.337636e+05
   4.385703e+04   4.773672e+05
  -2.287192e+05   4.036328e+05
  -3.473862e+05  -1.675382e+05
  -2.527925e+05  -5.506144e+05
   5.266893e+04  -3.808587e+05
   3.767596e+05   4.890644e+04
   4.494376e+05   2.349810e+05
   2.330317e+05   6.503116e+04
  -1.651023e+04  -1.177129e+05
  -7.481734e+04   1.690156e+04
  -2.624480e+04   3.662949e+05
  -1.066550e+05   4.980710e+05
  -3.290262e+05   1.564439e+05
  -4.073784e+05  -3.989454e+05
  -1.054521e+05  -6.299501e+05
   4.039783e+05  -2.967366e+05
   6.244812e+05   2.776651e+05
   2.414624e+05   5.606832e+05
  -4.691755e+05   3.575132e+05
  -8.312974e+05  -6.870278e+04
  -4.594455e+05  -3.533198e+05
   2.751795e+05  -3.661411e+05
   6.025559e+05  -2.022805e+05
   2.140881e+05  -1.567517e+04
  -3.710811e+05   5.015665e+04
  -4.116049e+05  -8.801270e+04
   1.829131e+05  -3.095564e+05
   7.581079e+05  -2.822646e+05
