
 $NMID
 id='ANONYMOUS ', fmtdat='(2E16.6)'
 volume=1.0
 tramp=1.0
 $END
   3.490214e+07   2.096505e+06
   2.088967e+07   1.958962e+07
  -3.297598e+06   2.222072e+07
  -1.615554e+07   1.140366e+07
  -1.121067e+07  -1.271804e+06
   6.197533e+05  -5.846630e+06
   6.485231e+06  -1.349860e+06
   3.592811e+06   5.713201e+06
  -2.641954e+06   7.850678e+06
  -6.272747e+06   2.821876e+06
  -4.987798e+06  -4.468985e+06
  -4.268963e+05  -6.616757e+06
   3.162175e+06  -1.500138e+06
   2.249756e+06   5.113918e+06
  -2.243753e+06   5.856434e+06
  -5.389229e+06  -1.309388e+05
  -3.425182e+06  -6.768921e+06
   2.230529e+06  -8.037614e+06
   6.735651e+06  -3.631773e+06
   6.748145e+06   2.135963e+06
   3.096379e+06   5.126775e+06
  -5.505626e+05   4.511087e+06
  -1.097217e+06   2.529886e+06
   1.102367e+06   2.011419e+06
   2.350117e+06   3.540331e+06
  -4.954552e+05   4.772030e+06
  -5.828237e+06   3.125142e+06
  -8.288688e+06  -8.946410e+05
  -4.842784e+06  -3.981996e+06
   1.315869e+06  -3.711397e+06
   4.265228e+06  -9.212486e+05
   1.945286e+06   1.678460e+06
  -2.244728e+06   2.102109e+06
  -3.944582e+06   1.101707e+05
  -2.217348e+06  -2.870926e+06
   6.458333e+05  -4.257007e+06
   2.094656e+06  -2.305151e+06
   1.401032e+06   1.341262e+06
  -2.140755e+05   2.583619e+06
  -7.863904e+05  -1.674317e+05
   5.108522e+05  -3.290758e+06
   2.235424e+06  -2.306072e+06
   1.989404e+06   1.911721e+06
  -6.835303e+05   3.901242e+06
  -3.269682e+06   7.598780e+05
  -2.780173e+06  -4.035655e+06
   9.468405e+05  -5.076907e+06
   4.861236e+06  -1.393388e+06
   5.513416e+06   3.171111e+06
   2.158080e+06   4.712745e+06
  -2.544496e+06   2.726072e+06
  -4.725058e+06  -5.239902e+05
  -2.726991e+06  -2.420976e+06
   1.238972e+06  -1.818576e+06
   3.219620e+06   2.913491e+05
   1.650277e+06   1.651447e+06
  -1.090491e+06   9.721055e+05
  -1.685751e+06  -6.652351e+05
   1.758256e+05  -1.178258e+06
   1.732091e+06  -2.606418e+04
   7.396117e+05   1.349448e+06
  -1.904969e+06   1.399570e+06
  -3.350152e+06  -9.260705e+04
  -1.848618e+06  -2.286403e+06
   1.702706e+06  -3.913508e+06
   4.737664e+06  -3.585316e+06
   5.178983e+06  -7.570843e+05
   3.037892e+06   3.050374e+06
   2.731019e+05   5.047595e+06
  -1.093321e+06   4.051011e+06
  -8.842529e+05   1.861867e+06
  -6.094774e+05   9.319676e+05
  -1.422352e+06   1.297735e+06
  -2.715528e+06   9.604400e+05
  -2.965940e+06  -9.801426e+05
  -1.529645e+06  -2.874430e+06
   7.329455e+05  -2.565889e+06
   2.257210e+06  -3.436058e+04
   1.893978e+06   2.548530e+06
  -2.903988e+05   3.009229e+06
  -2.788983e+06   1.059792e+06
  -3.583313e+06  -1.687395e+06
  -2.006682e+06  -3.236788e+06
   4.105026e+05  -2.882433e+06
   1.584563e+06  -1.613103e+06
   1.310714e+06  -8.618269e+05
   1.305509e+06  -9.137019e+05
   2.662409e+06  -7.632996e+05
   4.096277e+06   5.063227e+05
   3.380672e+06   2.552309e+06
   1.696967e+05   4.043589e+06
  -3.299196e+06   3.816315e+06
  -4.379488e+06   1.778017e+06
  -2.554052e+06  -8.956654e+05
   2.265066e+05  -2.396413e+06
   1.496046e+06  -1.713509e+06
   5.198979e+05   2.092451e+05
  -1.236589e+06   1.216769e+06
  -1.779962e+06   3.092409e+05
  -6.703064e+05  -1.138678e+06
   6.762612e+05  -1.127850e+06
   7.040106e+05   3.161465e+05
  -5.792156e+05   1.100426e+06
  -1.744419e+06  -2.536779e+05
  -1.466010e+06  -2.677881e+06
   3.426062e+05  -3.725868e+06
   2.588873e+06  -2.218384e+06
   3.779371e+06   6.983445e+05
   2.990970e+06   2.844076e+06
   6.875873e+05   2.952473e+06
  -1.386030e+06   1.517432e+06
  -1.688165e+06   1.215264e+05
  -4.963730e+05  -5.069348e+04
   3.665878e+05   7.437181e+05
  -3.180379e+05   1.214218e+06
  -1.690960e+06   5.396479e+05
  -1.911559e+06  -7.012461e+05
  -4.753100e+05  -1.252551e+06
   1.113584e+06  -6.301955e+05
   1.058216e+06   4.213035e+05
  -7.070067e+05   7.924935e+05
  -2.400992e+06   4.196813e+04
  -2.184502e+06  -1.324480e+06
   9.332561e+03  -2.256611e+06
   2.353413e+06  -1.894978e+06
   2.834947e+06  -3.435264e+05
   1.189428e+06   1.174689e+06
  -8.637381e+05   1.333122e+06
  -1.374595e+06   1.284375e+05
  -8.474278e+04  -9.873208e+05
   1.487029e+06  -6.925282e+05
   1.734219e+06   6.933054e+05
   5.111703e+05   1.625660e+06
  -9.369597e+05   1.149005e+06
  -1.300487e+06  -9.119774e+04
  -4.036516e+05  -7.001020e+05
   6.905821e+05  -8.014588e+04
   6.870469e+05   1.033283e+06
  -6.344127e+05   1.398372e+06
  -2.042086e+06   4.720478e+05
  -2.008889e+06  -1.100445e+06
  -3.727175e+05  -2.056896e+06
   1.384632e+06  -1.638485e+06
   1.702082e+06  -2.753453e+05
   5.745963e+05   8.299515e+05
  -6.198291e+05   8.524503e+05
  -7.418542e+05   7.409937e+04
   1.820222e+04  -5.400141e+05
   6.284373e+05  -4.121146e+05
   4.271878e+05   9.287649e+04
  -2.767963e+05   1.692258e+05
  -5.948568e+05  -4.600611e+05
   6.179727e+04  -1.147363e+06
   1.334819e+06  -9.378850e+05
   2.093687e+06   3.923341e+05
   1.460863e+06   1.952600e+06
  -2.262667e+05   2.487449e+06
  -1.651653e+06   1.565576e+06
  -1.842028e+06  -1.288213e+04
  -1.087618e+06  -1.022310e+06
  -4.114796e+05  -9.733300e+05
  -3.323197e+05  -4.328328e+05
  -4.287251e+05  -2.602905e+05
  -5.156201e+04  -6.446702e+05
   8.202536e+05  -9.420929e+05
   1.497930e+06  -4.388766e+05
   1.214042e+06   7.577895e+05
  -1.446485e+05   1.639359e+06
  -1.755881e+06   1.208276e+06
  -2.344867e+06  -4.536600e+05
  -1.242646e+06  -2.089750e+06
   8.744462e+05  -2.372321e+06
   2.453684e+06  -1.143023e+06
   2.447217e+06   4.986206e+05
   1.200098e+06   1.332930e+06
  -6.829289e+04   1.147959e+06
  -5.220706e+05   7.117599e+05
  -3.403056e+05   7.609867e+05
  -2.482676e+05   1.176154e+06
  -6.496044e+05   1.181126e+06
  -1.234642e+06   2.727028e+05
  -1.315584e+06  -1.121272e+06
  -5.366411e+05  -1.937506e+06
   6.610607e+05  -1.458569e+06
   1.319497e+06  -2.729680e+04
   8.595229e+05   1.225795e+06
  -2.782678e+05   1.393015e+06
  -1.026160e+06   5.435869e+05
  -7.855334e+05  -4.854643e+05
  -1.796759e+04  -9.521396e+05
   3.472691e+05  -8.037521e+05
   1.131317e+03  -4.957707e+05
  -4.048240e+05  -3.892906e+05
  -3.636693e+04  -4.093814e+05
   1.095540e+06  -2.294055e+05
   1.992662e+06   3.114734e+05
   1.630410e+06   9.902216e+05
   7.011352e+04   1.354290e+06
  -1.477347e+06   1.098999e+06
  -1.801432e+06   3.597848e+05
  -8.769117e+05  -3.388321e+05
   2.084749e+05  -4.954914e+05
   4.707255e+05  -9.530634e+04
  -2.812983e+04   3.343030e+05
  -5.059251e+05   2.348426e+05
  -4.679843e+05  -3.552429e+05
  -1.360493e+05  -7.798590e+05
   1.696953e+04  -5.044192e+05
  -1.473416e+05   1.790734e+05
  -3.696088e+05   4.052211e+05
  -3.008089e+05  -2.222818e+05
   2.049024e+05  -1.047615e+06
   9.162146e+05  -1.055876e+06
   1.252553e+06  -8.036742e+04
   7.219536e+05   9.506861e+05
  -4.382511e+05   1.045147e+06
  -1.210354e+06   2.144432e+05
  -7.273536e+05  -6.278404e+05
   6.861187e+05  -6.779509e+05
   1.665464e+06   3.555990e+04
   1.176323e+06   8.416465e+05
  -3.750318e+05   1.095811e+06
  -1.550962e+06   6.504034e+05
  -1.358445e+06  -1.052965e+05
  -1.978798e+05  -5.492542e+05
   6.465259e+05  -3.271655e+05
   3.502472e+05   2.686519e+05
  -6.602788e+05   4.773926e+05
  -1.204266e+06  -1.789622e+05
  -5.755890e+05  -1.266114e+06
   7.449466e+05  -1.703107e+06
   1.593472e+06  -8.204264e+05
   1.279495e+06   8.335415e+05
   1.776722e+05   1.872126e+06
  -7.711874e+05   1.386992e+06
  -9.676767e+05  -1.166637e+05
  -5.089163e+05  -1.216363e+06
   1.354291e+05  -1.044196e+06
   5.488139e+05  -1.206024e+05
   5.478699e+05   4.040041e+05
   2.455924e+05   1.619458e+05
   1.991501e+04  -1.194713e+05
   1.730825e+05   2.626580e+05
   4.750003e+05   9.814055e+05
   2.811693e+05   1.124530e+06
  -6.342367e+05   4.106209e+05
  -1.533819e+06  -4.939690e+05
  -1.400393e+06  -8.676928e+05
  -1.941818e+05  -7.032838e+05
   9.595491e+05  -4.220447e+05
   1.043112e+06  -2.099711e+05
   3.056198e+05   1.839059e+04
  -1.820369e+05   2.256876e+05
   5.159299e+04   2.480497e+05
   3.685445e+05   1.431343e+05
   1.502901e+04   1.464827e+05
  -7.865646e+05   2.071154e+05
  -1.068845e+06  -5.582952e+04
  -3.000867e+05  -7.150932e+05
   9.760144e+05  -1.152182e+06
   1.706362e+06  -6.803015e+05
   1.338573e+06   5.273751e+05
   2.261184e+05   1.471173e+06
  -7.908073e+05   1.372035e+06
  -1.092799e+06   4.759576e+05
  -6.881304e+05  -2.987001e+05
  -9.337086e+04  -3.729836e+05
   1.544746e+05  -2.147202e+04
  -5.030800e+04   7.331163e+04
  -3.421085e+05  -3.535240e+05
  -2.763094e+05  -8.328714e+05
   2.155043e+05  -6.791228e+05
   7.213058e+05   1.930190e+05
   6.982198e+05   1.053748e+06
   6.777877e+03   1.062859e+06
  -8.371165e+05   1.659528e+05
  -1.032118e+06  -8.373955e+05
  -2.845659e+05  -1.128282e+06
   7.651413e+05  -6.250888e+05
   1.111766e+06   1.245379e+05
   4.845004e+05   5.886777e+05
  -3.088226e+05   6.183407e+05
  -3.321838e+05   3.483066e+05
   3.299641e+05   3.569215e+04
   6.896971e+05  -1.838018e+04
   1.186682e+05   3.078571e+05
  -8.612496e+05   6.938602e+05
  -1.238740e+06   5.823874e+05
  -7.034485e+05  -1.457934e+05
   1.244055e+05  -8.645760e+05
   5.232697e+05  -8.354042e+05
   3.735170e+05  -9.956913e+04
   1.063391e+04   5.276449e+05
  -2.717488e+05   4.056496e+05
  -3.696818e+05  -2.220778e+05
  -2.405409e+05  -6.026061e+05
   8.535596e+04  -3.813921e+05
   4.014457e+05   8.211309e+04
   4.573527e+05   2.550476e+05
   2.433200e+05   6.359282e+04
   4.869569e+03  -1.075802e+05
  -7.352854e+04   5.853331e+04
  -8.034295e+04   4.140153e+05
  -1.958804e+05   5.063157e+05
  -3.843647e+05   1.048073e+05
  -3.857871e+05  -4.842511e+05
  -3.516700e+04  -6.908568e+05
   4.623502e+05  -2.868478e+05
   6.394252e+05   3.479403e+05
   2.192156e+05   6.246326e+05
  -5.114349e+05   3.547118e+05
  -8.717388e+05  -1.281950e+05
  -4.665401e+05  -4.019849e+05
   3.152213e+05  -3.579388e+05
   6.509371e+05  -1.610435e+05
   2.089492e+05   1.330645e+03
  -4.330830e+05   1.842017e+04
  -4.528342e+05  -1.428601e+05
   2.324157e+05  -3.446444e+05
   8.654445e+05  -2.707076e+05
