
 $NMID
 id='ANONYMOUS ', fmtdat='(2E16.6)'
 volume=1.0
 tramp=1.0
 $END
   2.866865e+07   1.400885e+06
   1.827409e+07   1.441319e+07
  -1.042607e+06   1.802292e+07
  -1.280067e+07   1.131303e+07
  -1.023692e+07   7.211917e+05
  -3.938060e+05  -5.094784e+06
   5.798853e+06  -2.329653e+06
   4.144083e+06   4.685742e+06
  -1.592119e+06   7.761787e+06
  -5.444689e+06   3.300507e+06
  -4.528540e+06  -3.900388e+06
  -3.903025e+05  -6.070173e+06
   2.864564e+06  -1.171111e+06
   2.115340e+06   5.072153e+06
  -1.838210e+06   5.813140e+06
  -4.808081e+06   3.642274e+05
  -3.356156e+06  -5.778110e+06
   1.585214e+06  -7.102884e+06
   5.660198e+06  -3.182466e+06
   5.569264e+06   1.934844e+06
   2.203094e+06   4.219313e+06
  -6.390187e+05   3.207472e+06
  -3.001411e+05   1.643428e+06
   2.027943e+06   2.099811e+06
   2.575976e+06   4.134156e+06
  -8.470100e+05   4.930166e+06
  -5.955151e+06   2.656568e+06
  -7.835198e+06  -1.323968e+06
  -4.191547e+06  -3.862998e+06
   1.736549e+06  -3.194023e+06
   4.345950e+06  -3.286989e+05
   1.637721e+06   2.185282e+06
  -2.889248e+06   2.297980e+06
  -4.452818e+06  -2.042420e+05
  -2.080671e+06  -3.366943e+06
   1.145068e+06  -4.275626e+06
   2.106344e+06  -1.810714e+06
   7.431515e+05   1.589252e+06
  -7.390178e+05   2.128659e+06
  -6.156265e+05  -8.066207e+05
   8.913862e+05  -3.493321e+06
   2.225912e+06  -2.317084e+06
   1.956234e+06   1.538864e+06
  -3.470779e+04   3.416052e+06
  -2.195052e+06   9.603682e+05
  -2.301408e+06  -3.054593e+06
   4.457767e+05  -4.169317e+06
   4.078690e+06  -1.252173e+06
   5.205905e+06   2.778330e+06
   2.319337e+06   4.425573e+06
  -2.332832e+06   2.802482e+06
  -4.692992e+06  -2.513188e+05
  -2.902683e+06  -2.192705e+06
   8.937426e+05  -1.808805e+06
   2.913339e+06   3.908003e+04
   1.646788e+06   1.347832e+06
  -8.941416e+05   9.022572e+05
  -1.708772e+06  -5.832550e+05
  -1.256874e+05  -1.363581e+06
   1.680155e+06  -5.961684e+05
   1.310865e+06   8.662068e+05
  -1.090011e+06   1.469102e+06
  -2.909349e+06   4.012811e+05
  -1.839207e+06  -1.792577e+06
   1.631057e+06  -3.534340e+06
   4.649095e+06  -3.201275e+06
   4.854909e+06  -4.817301e+05
   2.573251e+06   2.960885e+06
   9.945266e+04   4.709606e+06
  -8.715206e+05   3.927250e+06
  -7.123603e+05   2.133818e+06
  -8.629459e+05   1.247152e+06
  -1.914581e+06   1.260317e+06
  -3.015436e+06   5.880158e+05
  -2.920352e+06  -1.408748e+06
  -1.273168e+06  -3.161457e+06
   1.038344e+06  -2.639301e+06
   2.473361e+06   1.082881e+05
   1.899214e+06   2.757177e+06
  -4.293002e+05   3.029097e+06
  -2.785091e+06   8.503510e+05
  -3.284534e+06  -1.826411e+06
  -1.660828e+06  -3.035628e+06
   4.522534e+05  -2.469482e+06
   1.321159e+06  -1.334208e+06
   1.035611e+06  -8.472223e+05
   1.191469e+06  -1.017835e+06
   2.636220e+06  -8.425389e+05
   4.070457e+06   4.683135e+05
   3.361544e+06   2.546451e+06
   1.359147e+05   4.057740e+06
  -3.398280e+06   3.770012e+06
  -4.471774e+06   1.612488e+06
  -2.490990e+06  -1.071597e+06
   4.260122e+05  -2.417942e+06
   1.631534e+06  -1.606533e+06
   4.932755e+05   2.662314e+05
  -1.299032e+06   1.169094e+06
  -1.751765e+06   2.724837e+05
  -5.903899e+05  -1.114376e+06
   7.454462e+05  -1.118505e+06
   7.956260e+05   3.289516e+05
  -4.848482e+05   1.266349e+06
  -1.810518e+06   4.545884e+04
  -1.762135e+06  -2.544464e+06
   4.214777e+04  -3.956107e+06
   2.567673e+06  -2.586707e+06
   4.009318e+06   5.675962e+05
   3.188883e+06   2.994052e+06
   6.962038e+05   3.109616e+06
  -1.465491e+06   1.514614e+06
  -1.727025e+06   5.831666e+04
  -5.001433e+05  -5.926109e+04
   3.632965e+05   7.517065e+05
  -2.945742e+05   1.188284e+06
  -1.639407e+06   5.297679e+05
  -1.895556e+06  -6.612863e+05
  -5.062155e+05  -1.224548e+06
   1.115966e+06  -6.447788e+05
   1.116136e+06   4.412909e+05
  -7.016325e+05   8.864858e+05
  -2.519284e+06   1.055125e+05
  -2.323521e+06  -1.390278e+06
  -1.166599e+04  -2.382991e+06
   2.429198e+06  -1.950364e+06
   2.884710e+06  -3.272805e+05
   1.182985e+06   1.166813e+06
  -8.535941e+05   1.284168e+06
  -1.322396e+06   1.101257e+05
  -4.546703e+04  -9.554377e+05
   1.492196e+06  -6.679278e+05
   1.750688e+06   6.926714e+05
   5.522541e+05   1.650400e+06
  -9.240308e+05   1.214170e+06
  -1.342181e+06  -4.149613e+04
  -4.557023e+05  -6.982976e+05
   6.645190e+05  -9.024016e+04
   6.649009e+05   1.037085e+06
  -6.716860e+05   1.385751e+06
  -2.065275e+06   4.243528e+05
  -1.995222e+06  -1.145725e+06
  -3.481644e+05  -2.068183e+06
   1.395681e+06  -1.636213e+06
   1.715169e+06  -2.796039e+05
   5.953235e+05   8.367391e+05
  -6.261125e+05   8.700200e+05
  -7.818539e+05   5.520213e+04
   9.226835e+03  -6.092756e+05
   6.994538e+05  -4.591308e+05
   5.227896e+05   1.352274e+05
  -2.489722e+05   2.605446e+05
  -6.370597e+05  -4.103457e+05
   2.664802e+04  -1.154919e+06
   1.343870e+06  -9.455984e+05
   2.108371e+06   4.146959e+05
   1.444259e+06   1.985759e+06
  -2.675361e+05   2.521363e+06
  -1.707666e+06   1.601188e+06
  -1.913290e+06  -1.359165e+04
  -1.144035e+06  -1.104007e+06
  -4.025352e+05  -1.096042e+06
  -2.633538e+05  -4.944229e+05
  -3.700622e+05  -2.321735e+05
  -4.227880e+04  -6.078975e+05
   8.234236e+05  -9.564869e+05
   1.539712e+06  -4.549867e+05
   1.261812e+06   8.044821e+05
  -1.488954e+05   1.715583e+06
  -1.805822e+06   1.234814e+06
  -2.388497e+06  -4.849550e+05
  -1.261105e+06  -2.125542e+06
   8.665049e+05  -2.391975e+06
   2.465868e+06  -1.164639e+06
   2.503225e+06   4.893205e+05
   1.270541e+06   1.377331e+06
  -5.750810e+04   1.232301e+06
  -5.955169e+05   7.621652e+05
  -4.364845e+05   7.399303e+05
  -2.986473e+05   1.125573e+06
  -6.518524e+05   1.148495e+06
  -1.222959e+06   2.499819e+05
  -1.299354e+06  -1.156031e+06
  -5.056021e+05  -1.968730e+06
   6.980521e+05  -1.463093e+06
   1.342107e+06  -1.755789e+04
   8.706296e+05   1.230297e+06
  -2.608972e+05   1.408265e+06
  -1.008646e+06   5.916814e+05
  -7.962968e+05  -4.278465e+05
  -6.326452e+04  -9.321300e+05
   3.005708e+05  -8.294141e+05
  -1.232366e+04  -5.326112e+05
  -3.882741e+05  -4.115846e+05
  -2.130148e+04  -4.187114e+05
   1.090211e+06  -2.284115e+05
   1.980850e+06   3.250694e+05
   1.637262e+06   1.003128e+06
   9.631359e+04   1.347934e+06
  -1.460379e+06   1.084750e+06
  -1.815566e+06   3.692547e+05
  -9.070984e+05  -3.055679e+05
   1.920275e+05  -4.771746e+05
   4.674810e+05  -1.138900e+05
  -4.357917e+04   3.023089e+05
  -5.305882e+05   2.161687e+05
  -4.606827e+05  -3.665949e+05
  -8.287778e+04  -7.940219e+05
   6.309990e+04  -5.048791e+05
  -1.619349e+05   2.050586e+05
  -4.175275e+05   4.314956e+05
  -3.090479e+05  -2.266105e+05
   2.465005e+05  -1.065508e+06
   9.399453e+05  -1.045559e+06
   1.215760e+06  -4.383439e+04
   6.673686e+05   9.652037e+05
  -4.529484e+05   1.012255e+06
  -1.192736e+06   1.636714e+05
  -7.161394e+05  -6.587484e+05
   6.964456e+05  -6.848750e+05
   1.707047e+06   4.401825e+04
   1.232386e+06   8.710393e+05
  -3.648701e+05   1.144493e+06
  -1.603094e+06   6.877697e+05
  -1.416198e+06  -1.063143e+05
  -2.103262e+05  -5.732196e+05
   6.591411e+05  -3.410927e+05
   3.398086e+05   2.624411e+05
  -6.913315e+05   4.484404e+05
  -1.205720e+06  -2.316071e+05
  -5.201670e+05  -1.300034e+06
   8.253230e+05  -1.686306e+06
   1.644002e+06  -7.694569e+05
   1.275349e+06   8.836624e+05
   1.370399e+05   1.909489e+06
  -8.133865e+05   1.413440e+06
  -9.922613e+05  -1.128162e+05
  -5.210165e+05  -1.245659e+06
   1.271542e+05  -1.083311e+06
   5.520814e+05  -1.287556e+05
   5.718976e+05   4.310813e+05
   2.716347e+05   1.834155e+05
   1.376309e+04  -1.316099e+05
   1.355378e+05   2.427491e+05
   4.505908e+05   9.937073e+05
   2.960335e+05   1.159814e+06
  -6.148726e+05   4.189630e+05
  -1.552814e+06  -5.327073e+05
  -1.436257e+06  -9.138834e+05
  -1.889334e+05  -7.116262e+05
   1.008619e+06  -4.007534e+05
   1.075155e+06  -2.012512e+05
   2.901021e+05   3.335801e+03
  -1.992903e+05   2.202141e+05
   7.635998e+04   2.756683e+05
   4.014722e+05   1.785136e+05
  -1.783872e+03   1.481457e+05
  -8.360927e+05   1.722937e+05
  -1.075288e+06  -8.953234e+04
  -2.386178e+05  -7.150144e+05
   1.043068e+06  -1.117998e+06
   1.715104e+06  -6.301224e+05
   1.297076e+06   5.754524e+05
   1.807499e+05   1.498480e+06
  -8.204873e+05   1.361927e+06
  -1.112103e+06   4.336966e+05
  -6.911491e+05  -3.385014e+05
  -7.122850e+04  -3.762567e+05
   1.826094e+05   8.063043e+03
  -4.616382e+04   9.859695e+04
  -3.564818e+05  -3.585892e+05
  -2.746281e+05  -8.522553e+05
   2.394555e+05  -6.738855e+05
   7.278887e+05   2.367038e+05
   6.572429e+05   1.101917e+06
  -5.499451e+04   1.065116e+06
  -8.652842e+05   1.117653e+05
  -1.007857e+06  -9.004544e+05
  -2.393215e+05  -1.142912e+06
   7.902346e+05  -5.886376e+05
   1.104071e+06   1.594152e+05
   4.616929e+05   5.814516e+05
  -3.194654e+05   5.888733e+05
  -3.163023e+05   3.426561e+05
   3.604735e+05   6.141504e+04
   7.053961e+05   4.545613e+03
   1.034337e+05   3.067090e+05
  -8.893119e+05   6.856162e+05
  -1.246809e+06   5.869170e+05
  -6.833478e+05  -1.354305e+05
   1.473353e+05  -8.596231e+05
   5.215581e+05  -8.255924e+05
   3.466034e+05  -7.580623e+04
  -2.043003e+04   5.434885e+05
  -2.875817e+05   3.865116e+05
  -3.651647e+05  -2.607999e+05
  -2.239522e+05  -6.160185e+05
   9.843895e+04  -3.579952e+05
   4.007454e+05   1.046844e+05
   4.506246e+05   2.490401e+05
   2.475605e+05   5.363603e+04
   1.712899e+04  -8.513046e+04
  -8.376139e+04   1.009766e+05
  -1.323053e+05   4.270541e+05
  -2.583154e+05   4.677417e+05
  -3.992019e+05   4.397524e+04
  -3.361317e+05  -5.250519e+05
   3.071187e+04  -6.950655e+05
   4.863359e+05  -2.623444e+05
   6.164690e+05   3.830593e+05
   1.896897e+05   6.458712e+05
  -5.176707e+05   3.431805e+05
  -8.601899e+05  -1.614007e+05
  -4.533547e+05  -4.179008e+05
   3.243425e+05  -3.335851e+05
   6.506663e+05  -1.224204e+05
   1.892503e+05   7.128625e+03
  -4.642755e+05  -2.015048e+04
  -4.603695e+05  -1.889278e+05
   2.719463e+05  -3.561356e+05
   9.224684e+05  -2.425406e+05
