
 $NMID
 id='ANONYMOUS ', fmtdat='(2E16.6)'
 volume=1.0
 tramp=1.0
 $END
   2.690440e+06   3.366249e+05
   1.843965e+06   1.616828e+06
  -1.789809e+05   1.904363e+06
  -1.550556e+06   1.040898e+06
  -1.223227e+06  -1.435188e+05
   3.541286e+04  -6.104298e+05
   7.383175e+05  -1.148941e+05
   3.614027e+05   6.400206e+05
  -3.926489e+05   8.042383e+05
  -6.758582e+05   2.316437e+05
  -3.607313e+05  -4.599051e+05
   1.016233e+05  -5.763903e+05
   2.670383e+05  -4.747587e+04
   3.236816e+04   5.324064e+05
  -3.607248e+05   5.345515e+05
  -5.209069e+05  -5.342443e+04
  -2.411819e+05  -6.415825e+05
   2.704053e+05  -6.870360e+05
   5.778853e+05  -2.362267e+05
   4.749952e+05   2.253941e+05
   1.687036e+05   3.564764e+05
  -1.077027e+04   2.599827e+05
   3.003272e+04   2.347051e+05
   1.166728e+05   3.792616e+05
   3.300434e+04   5.083518e+05
  -2.678966e+05   3.944985e+05
  -5.947129e+05   3.053485e+04
  -6.379445e+05  -3.370723e+05
  -2.741423e+05  -4.251936e+05
   2.116166e+05  -1.872837e+05
   3.491207e+05   1.298623e+05
   1.672625e+04   2.276019e+05
  -3.783604e+05   4.238477e+04
  -3.783940e+05  -2.334024e+05
  -2.139558e+04  -3.745782e+05
   2.579887e+05  -3.038664e+05
   1.995584e+05  -9.448754e+04
  -1.863487e+04   9.678068e+04
  -9.014925e+04   1.084275e+05
   4.806254e+04  -8.092817e+04
   2.292277e+05  -2.544572e+05
   2.891033e+05  -1.445326e+05
   1.774526e+05   2.040024e+05
  -5.455684e+04   3.956440e+05
  -2.552529e+05   1.484073e+05
  -2.291940e+05  -2.997379e+05
   6.861606e+04  -4.315986e+05
   4.033575e+05  -7.433060e+04
   4.421043e+05   3.969355e+05
   1.054228e+05   5.125067e+05
  -3.218634e+05   2.116789e+05
  -4.665058e+05  -1.758530e+05
  -2.286806e+05  -3.239487e+05
   1.412312e+05  -1.820957e+05
   3.013774e+05   6.272618e+04
   1.465834e+05   1.796636e+05
  -1.046062e+05   7.813617e+04
  -1.514568e+05  -1.146669e+05
   5.423976e+04  -1.706780e+05
   2.471320e+05  -1.024457e+04
   1.573308e+05   1.913370e+05
  -1.543927e+05   2.010625e+05
  -3.441986e+05  -2.973764e+03
  -1.727250e+05  -2.259671e+05
   2.262717e+05  -2.838585e+05
   4.987043e+05  -1.527655e+05
   4.378040e+05   8.103042e+04
   1.499715e+05   3.086508e+05
  -1.096564e+05   4.234367e+05
  -1.977287e+05   3.666420e+05
  -1.707158e+05   2.000408e+05
  -1.635745e+05   6.013292e+04
  -2.221566e+05  -5.807732e+03
  -2.610501e+05  -8.553234e+04
  -1.752817e+05  -2.289427e+05
   2.341678e+04  -3.118309e+05
   1.980134e+05  -1.771396e+05
   2.136862e+05   1.208855e+05
   6.071125e+04   3.259851e+05
  -1.460006e+05   2.541964e+05
  -2.655990e+05  -1.488326e+04
  -2.287493e+05  -2.475874e+05
  -7.594790e+04  -2.984898e+05
   7.604573e+04  -2.092229e+05
   1.336075e+05  -1.110306e+05
   1.222827e+05  -7.820552e+04
   1.583502e+05  -7.037342e+04
   2.862064e+05   5.711330e+03
   3.721531e+05   1.779306e+05
   2.314567e+05   3.508819e+05
  -1.259561e+05   3.829021e+05
  -4.424155e+05   2.282709e+05
  -4.562979e+05  -1.126658e+04
  -1.767322e+05  -1.786019e+05
   1.257752e+05  -1.893923e+05
   1.958939e+05  -7.911798e+04
   3.035715e+04   3.888572e+04
  -1.564717e+05   5.839690e+04
  -1.695148e+05  -3.022466e+04
  -2.039740e+04  -1.149776e+05
   1.072832e+05  -7.177011e+04
   6.297738e+04   6.900677e+04
  -1.077711e+05   1.156477e+05
  -2.088824e+05  -6.250599e+04
  -9.869459e+04  -3.340435e+05
   1.629515e+05  -4.095228e+05
   3.736408e+05  -1.625496e+05
   3.762612e+05   2.155185e+05
   1.828640e+05   4.147399e+05
  -5.822154e+04   3.186999e+05
  -1.894010e+05   8.365563e+04
  -1.573126e+05  -5.790039e+04
  -4.412000e+04  -2.295573e+04
   7.884162e+03   8.272141e+04
  -6.448385e+04   1.046524e+05
  -1.707020e+05   8.197470e+02
  -1.609989e+05  -1.239317e+05
  -1.004657e+04  -1.359277e+05
   1.286325e+05  -2.291983e+04
   8.825596e+04   8.637810e+04
  -1.073780e+05   6.120807e+04
  -2.495290e+05  -8.888190e+04
  -1.651145e+05  -2.266932e+05
   9.441267e+04  -2.284180e+05
   3.019144e+05  -9.309504e+04
   2.812255e+05   7.255532e+04
   7.303773e+04   1.489485e+05
  -1.176744e+05   9.306516e+04
  -1.256654e+05  -2.799362e+04
   2.435533e+04  -8.651856e+04
   1.601434e+05  -1.180360e+04
   1.417830e+05   1.262574e+05
  -6.284262e+03   1.792621e+05
  -1.357695e+05   8.530037e+04
  -1.313760e+05  -5.381997e+04
  -1.999942e+04  -8.741851e+04
   6.666159e+04   1.069746e+04
   2.702063e+04   1.174835e+05
  -1.087822e+05   1.032893e+05
  -2.032916e+05  -3.283809e+04
  -1.437612e+05  -1.739035e+05
   3.847210e+04  -2.036994e+05
   1.864515e+05  -1.057554e+05
   1.716292e+05   3.300903e+04
   2.722175e+04   1.014385e+05
  -9.047656e+04   6.021689e+04
  -7.350831e+04  -2.614548e+04
   2.976298e+04  -5.868298e+04
   8.762352e+04  -1.139327e+04
   4.026758e+04   4.229709e+04
  -4.313224e+04   2.021474e+04
  -5.255029e+04  -6.490340e+04
   4.210704e+04  -1.122559e+05
   1.595185e+05  -4.275082e+04
   1.820757e+05   1.121102e+05
   6.498714e+04   2.340318e+05
  -1.146250e+05   2.237986e+05
  -2.196067e+05   8.677924e+04
  -1.802671e+05  -7.441562e+04
  -6.111095e+04  -1.500355e+05
   1.394976e+04  -1.166800e+05
  -1.691819e+02  -4.757210e+04
  -3.001387e+04  -2.704175e+04
   1.212239e+04  -5.732227e+04
   1.116163e+05  -6.210361e+04
   1.627101e+05   1.398666e+04
   8.648428e+04   1.245052e+05
  -8.114976e+04   1.567036e+05
  -2.153910e+05   4.961121e+04
  -2.052398e+05  -1.317516e+05
  -4.295556e+04  -2.452952e+05
   1.646131e+05  -1.972636e+05
   2.743074e+05  -2.528198e+04
   2.209012e+05   1.372090e+05
   6.842353e+04   1.814702e+05
  -5.710366e+04   1.161062e+05
  -8.846523e+04   4.321202e+04
  -6.423867e+04   4.318789e+04
  -6.032753e+04   8.949973e+04
  -9.619478e+04   8.572003e+04
  -1.208127e+05  -1.642977e+04
  -7.911701e+04  -1.510190e+05
   2.275169e+04  -1.990088e+05
   1.159188e+05  -1.098661e+05
   1.260279e+05   4.640799e+04
   4.008559e+04   1.466503e+05
  -7.377861e+04   1.261082e+05
  -1.206789e+05   2.422073e+04
  -6.766365e+04  -6.803695e+04
   2.270619e+04  -9.529893e+04
   5.904754e+04  -7.385933e+04
   2.115551e+04  -5.249956e+04
  -1.989156e+04  -5.003582e+04
   1.334989e+04  -3.842266e+04
   1.102715e+05   1.459501e+04
   1.739542e+05   9.608944e+04
   1.189312e+05   1.506467e+05
  -3.541436e+04   1.333743e+05
  -1.723216e+05   5.491479e+04
  -1.847610e+05  -2.806097e+04
  -7.941410e+04  -6.278179e+04
   3.184203e+04  -4.034469e+04
   5.011684e+04   4.499495e+03
  -1.053244e+04   2.491621e+04
  -5.520231e+04  -6.340686e+02
  -2.962578e+04  -4.927007e+04
   2.106193e+04  -7.127837e+04
   2.336022e+04  -3.986066e+04
  -2.543092e+04   1.228940e+04
  -5.743195e+04   2.096533e+04
  -2.101836e+04  -3.281728e+04
   6.163263e+04  -8.719115e+04
   1.227557e+05  -6.387242e+04
   1.113431e+05   3.268442e+04
   2.817800e+04   1.069488e+05
  -7.293641e+04   7.808571e+04
  -1.116281e+05  -2.303122e+04
  -4.144553e+04  -8.508375e+04
   8.962581e+04  -3.985476e+04
   1.586452e+05   6.679444e+04
   8.361005e+04   1.306294e+05
  -7.878626e+04   9.713062e+04
  -1.791483e+05   4.719449e+03
  -1.301569e+05  -6.476748e+04
   2.319557e+03  -6.278491e+04
   7.538287e+04  -8.487352e+03
   2.383945e+04   3.487530e+04
  -7.698346e+04   1.496766e+04
  -9.943167e+04  -6.304035e+04
  -6.646063e+02  -1.335691e+05
   1.331731e+05  -1.212079e+05
   1.750441e+05  -1.058407e+04
   8.427865e+04   1.261233e+05
  -5.628487e+04   1.798945e+05
  -1.278062e+05   1.008420e+05
  -9.033754e+04  -4.703420e+04
  -3.633135e+03  -1.366178e+05
   5.318499e+04  -9.907183e+04
   5.737237e+04   6.822959e+03
   3.624670e+04   6.300952e+04
   1.699816e+04   2.975010e+04
   7.156550e+03  -1.276999e+04
   6.720109e+03   2.275202e+04
   7.283141e+03   1.059553e+05
  -1.537350e+04   1.213165e+05
  -7.292788e+04   2.114928e+04
  -1.237995e+05  -1.051292e+05
  -9.918774e+04  -1.392130e+05
   7.239325e+03  -7.285004e+04
   1.063295e+05   2.340086e+03
   1.072696e+05   2.123020e+04
   2.893228e+04   8.107339e+03
  -2.566332e+04   1.190146e+04
  -5.259562e+03   3.175074e+04
   2.776585e+04   3.460453e+04
  -5.491149e+03   1.187745e+04
  -8.073736e+04  -1.820762e+04
  -9.426467e+04  -4.571942e+04
   2.064826e+03  -6.797497e+04
   1.323268e+05  -6.180555e+04
   1.768373e+05  -1.208528e+02
   9.669134e+04   9.328149e+04
  -3.712891e+04   1.419951e+05
  -1.222246e+05   9.699580e+04
  -1.144371e+05   7.203455e+02
  -4.891234e+04  -5.585767e+04
   6.536041e+03  -3.519827e+04
   1.356565e+04   1.053940e+04
  -1.070536e+04   8.419872e+03
  -2.098907e+04  -4.758503e+04
   5.220749e+03  -8.949878e+04
   4.482507e+04  -5.248075e+04
   5.536015e+04   4.796284e+04
   1.864198e+04   1.213759e+05
  -4.181736e+04   9.104124e+04
  -7.894285e+04  -2.244828e+04
  -5.679336e+04  -1.163473e+05
   1.808572e+04  -1.103885e+05
   9.007697e+04  -2.551669e+04
   9.437730e+04   5.157059e+04
   2.460432e+04   6.754160e+04
  -4.646968e+04   4.321033e+04
  -4.055736e+04   2.349942e+04
   2.900501e+04   2.181912e+04
   6.365286e+04   2.627980e+04
  -5.668438e+02   3.053519e+04
  -1.061170e+05   3.115964e+04
  -1.378739e+05   1.231948e+04
  -6.092905e+04  -3.329146e+04
   4.243269e+04  -7.321684e+04
   7.577876e+04  -6.034110e+04
   3.214249e+04   1.458744e+03
  -2.239318e+04   4.687664e+04
  -3.792841e+04   2.466707e+04
  -2.089474e+04  -3.662107e+04
   1.412775e+03  -6.368456e+04
   1.860900e+04  -2.865856e+04
   3.149232e+04   2.345500e+04
   3.474044e+04   3.780013e+04
   2.275423e+04   1.384096e+04
   1.856913e+03  -5.795996e+03
  -1.650887e+04   5.761114e+03
  -2.882211e+04   2.958260e+04
  -3.589549e+04   2.752408e+04
  -3.184133e+04  -1.155497e+04
  -8.668296e+03  -5.509187e+04
   2.731831e+04  -5.651283e+04
   5.187903e+04  -5.239849e+03
   4.075279e+04   5.435638e+04
  -6.689789e+03   6.383379e+04
  -5.899818e+04   1.404266e+04
  -7.150477e+04  -4.305517e+04
  -2.660351e+04  -5.318154e+04
   3.892603e+04  -1.921372e+04
   6.075743e+04   1.065157e+04
   1.674628e+04   4.708879e+03
  -3.862313e+04  -2.160978e+04
  -3.148516e+04  -3.457030e+04
   3.930985e+04  -1.968486e+04
   9.210091e+04   1.535719e+04
