
 $NMID
 id='ANONYMOUS ', fmtdat='(2E16.6)'
 volume=1.0
 tramp=1.0
 $END
   4.179552e+07   9.370084e+05
   2.540562e+07   2.436149e+07
  -4.369090e+06   2.750569e+07
  -1.983649e+07   1.260771e+07
  -1.301257e+07  -3.128653e+06
   1.462141e+06  -7.028557e+06
   7.607571e+06  -5.134624e+05
   3.348193e+06   7.056439e+06
  -3.808046e+06   8.336024e+06
  -7.376269e+06   2.569546e+06
  -5.650217e+06  -4.968061e+06
  -5.960616e+05  -7.208137e+06
   3.378323e+06  -1.927755e+06
   2.352412e+06   5.151657e+06
  -2.732253e+06   6.048989e+06
  -6.203802e+06  -4.982559e+05
  -3.799507e+06  -7.852566e+06
   2.666970e+06  -9.267811e+06
   7.771083e+06  -4.438933e+06
   8.062904e+06   1.998784e+06
   4.321385e+06   5.803536e+06
  -2.750924e+04   5.854391e+06
  -1.632982e+06   3.754499e+06
   8.210196e+04   2.292971e+06
   1.855345e+06   3.052993e+06
  -2.517762e+05   4.489056e+06
  -5.583927e+06   3.505105e+06
  -8.623769e+06  -3.833216e+05
  -5.539038e+06  -3.935711e+06
   7.298134e+05  -4.090070e+06
   3.983006e+06  -1.460873e+06
   2.061545e+06   1.062953e+06
  -1.680709e+06   1.635579e+06
  -3.315238e+06   1.986082e+05
  -2.151051e+06  -2.343986e+06
   1.848977e+05  -4.064900e+06
   1.935663e+06  -2.804940e+06
   1.987084e+06   8.565833e+05
   4.733246e+05   2.869406e+06
  -7.258879e+05   5.531476e+05
   2.335351e+05  -2.944423e+06
   2.289682e+06  -2.280346e+06
   2.149972e+06   2.320691e+06
  -1.230299e+06   4.657739e+06
  -4.489590e+06   9.148595e+05
  -3.606950e+06  -4.931948e+06
   1.199823e+06  -6.220314e+06
   5.663932e+06  -1.777061e+06
   5.964083e+06   3.550197e+06
   2.046869e+06   5.121087e+06
  -2.838140e+06   2.706005e+06
  -4.874405e+06  -8.572388e+05
  -2.613953e+06  -2.768992e+06
   1.619081e+06  -1.951299e+06
   3.642784e+06   4.787386e+05
   1.757154e+06   1.992200e+06
  -1.283066e+06   1.108950e+06
  -1.691948e+06  -7.816171e+05
   5.728265e+05  -1.099915e+06
   2.006754e+06   5.693011e+05
   3.118877e+05   2.080388e+06
  -2.806908e+06   1.613443e+06
  -4.009857e+06  -4.854179e+05
  -2.023310e+06  -2.832492e+06
   1.694241e+06  -4.333963e+06
   4.755614e+06  -3.976877e+06
   5.448761e+06  -1.103692e+06
   3.532453e+06   3.022619e+06
   5.197399e+05   5.362468e+06
  -1.333329e+06   4.269700e+06
  -1.193786e+06   1.642585e+06
  -4.803552e+05   5.062780e+05
  -9.197656e+05   1.139064e+06
  -2.287126e+06   1.204206e+06
  -2.852077e+06  -5.584596e+05
  -1.659675e+06  -2.509447e+06
   4.758688e+05  -2.375607e+06
   1.986636e+06  -7.457479e+04
   1.786140e+06   2.366113e+06
  -1.909957e+05   2.945259e+06
  -2.739367e+06   1.249842e+06
  -3.838171e+06  -1.482664e+06
  -2.412313e+06  -3.357633e+06
   2.501519e+05  -3.306933e+06
   1.783700e+06  -1.991296e+06
   1.610905e+06  -9.679338e+05
   1.482060e+06  -8.349897e+05
   2.741409e+06  -6.589406e+05
   4.149620e+06   5.920773e+05
   3.385608e+06   2.606544e+06
   1.485083e+05   4.036194e+06
  -3.242413e+06   3.801982e+06
  -4.263388e+06   1.868644e+06
  -2.553622e+06  -7.237032e+05
   5.731591e+04  -2.306176e+06
   1.341490e+06  -1.763775e+06
   5.252208e+05   1.456139e+05
  -1.173301e+06   1.232020e+06
  -1.805764e+06   3.378754e+05
  -7.516826e+05  -1.146160e+06
   6.154772e+05  -1.107815e+06
   6.009263e+05   3.460873e+05
  -7.557503e+05   9.582548e+05
  -1.790111e+06  -6.150733e+05
  -1.178422e+06  -2.958687e+06
   7.911698e+05  -3.609866e+06
   2.788751e+06  -1.818362e+06
   3.597107e+06   9.723723e+05
   2.706101e+06   2.812416e+06
   5.852331e+05   2.813670e+06
  -1.327889e+06   1.480219e+06
  -1.633295e+06   1.527715e+05
  -4.911635e+05  -4.936040e+04
   3.587785e+05   7.415108e+05
  -3.494812e+05   1.250348e+06
  -1.754298e+06   5.498657e+05
  -1.941653e+06  -7.631518e+05
  -4.399985e+05  -1.302917e+06
   1.127633e+06  -6.015083e+05
   9.875188e+05   4.368056e+05
  -7.618384e+05   6.889581e+05
  -2.311839e+06  -1.007163e+05
  -2.006485e+06  -1.341888e+06
   1.078609e+05  -2.141802e+06
   2.329432e+06  -1.786782e+06
   2.793672e+06  -3.077116e+05
   1.189840e+06   1.200048e+06
  -8.758850e+05   1.382761e+06
  -1.429315e+06   1.509485e+05
  -1.257291e+05  -1.010297e+06
   1.486931e+06  -7.000374e+05
   1.715479e+06   7.246689e+05
   4.409509e+05   1.627909e+06
  -9.923569e+05   1.078553e+06
  -1.278888e+06  -1.748514e+05
  -3.426191e+05  -7.279623e+05
   7.245166e+05  -6.934185e+04
   6.968171e+05   1.034687e+06
  -6.127065e+05   1.394741e+06
  -2.015296e+06   4.879858e+05
  -2.000686e+06  -1.079045e+06
  -3.694355e+05  -2.049608e+06
   1.398885e+06  -1.626386e+06
   1.700769e+06  -2.464404e+05
   5.428245e+05   8.402758e+05
  -6.322829e+05   8.269322e+05
  -6.959778e+05   7.035948e+04
   6.106742e+04  -4.716398e+05
   5.794737e+05  -3.288758e+05
   3.110393e+05   9.050051e+04
  -3.443777e+05   8.050699e+04
  -5.660647e+05  -5.386939e+05
   1.172782e+05  -1.157510e+06
   1.347121e+06  -9.131738e+05
   2.074473e+06   4.037845e+05
   1.447116e+06   1.939738e+06
  -2.285797e+05   2.445096e+06
  -1.633501e+06   1.493594e+06
  -1.775489e+06  -6.193912e+04
  -9.908451e+05  -9.760861e+05
  -3.655832e+05  -8.513332e+05
  -3.781566e+05  -3.494838e+05
  -4.992752e+05  -2.755772e+05
  -6.642657e+04  -6.843879e+05
   8.392188e+05  -9.200266e+05
   1.473860e+06  -3.885362e+05
   1.142854e+06   7.469598e+05
  -1.910217e+05   1.564188e+06
  -1.737969e+06   1.144381e+06
  -2.292514e+06  -4.700676e+05
  -1.188125e+06  -2.084630e+06
   9.250355e+05  -2.353525e+06
   2.474582e+06  -1.088932e+06
   2.396241e+06   5.627527e+05
   1.098014e+06   1.333487e+06
  -1.257458e+05   1.067580e+06
  -4.751438e+05   6.283454e+05
  -2.430213e+05   7.468532e+05
  -1.930430e+05   1.212927e+06
  -6.533857e+05   1.211525e+06
  -1.247620e+06   2.860552e+05
  -1.311170e+06  -1.100925e+06
  -5.349700e+05  -1.908883e+06
   6.456660e+05  -1.438052e+06
   1.298141e+06  -1.215231e+04
   8.338667e+05   1.241758e+06
  -3.215093e+05   1.385873e+06
  -1.073746e+06   4.883642e+05
  -7.923560e+05  -5.625500e+05
   3.484002e+04  -9.942210e+05
   4.178663e+05  -7.926621e+05
   3.500444e+04  -4.640513e+05
  -4.111544e+05  -3.671803e+05
  -4.360334e+04  -3.968249e+05
   1.109181e+06  -2.190427e+05
   2.005437e+06   3.208148e+05
   1.612800e+06   1.005165e+06
   2.711952e+04   1.377270e+06
  -1.511141e+06   1.105517e+06
  -1.802623e+06   3.228133e+05
  -8.565519e+05  -3.976740e+05
   2.266714e+05  -5.203295e+05
   4.844115e+05  -7.114654e+04
  -4.663734e+03   3.640152e+05
  -4.787388e+05   2.405350e+05
  -4.694182e+05  -3.483734e+05
  -1.775981e+05  -7.513395e+05
  -2.490964e+04  -4.893942e+05
  -1.446423e+05   1.454020e+05
  -3.359261e+05   3.568971e+05
  -2.889426e+05  -2.264154e+05
   1.827981e+05  -1.016278e+06
   9.061569e+05  -1.050672e+06
   1.285144e+06  -1.154677e+05
   7.649217e+05   9.298212e+05
  -4.268561e+05   1.073548e+06
  -1.219190e+06   2.593820e+05
  -7.232822e+05  -6.037026e+05
   6.898097e+05  -6.612145e+05
   1.625995e+06   6.355610e+04
   1.101148e+06   8.503561e+05
  -4.194952e+05   1.048520e+06
  -1.525312e+06   5.748701e+05
  -1.302070e+06  -1.434843e+05
  -1.697888e+05  -5.335804e+05
   6.453553e+05  -3.008301e+05
   3.613287e+05   2.772166e+05
  -6.264489e+05   4.900220e+05
  -1.186790e+06  -1.407412e+05
  -6.077469e+05  -1.223726e+06
   6.798554e+05  -1.689960e+06
   1.539930e+06  -8.390057e+05
   1.260930e+06   7.997395e+05
   1.834497e+05   1.829142e+06
  -7.579787e+05   1.340236e+06
  -9.460604e+05  -1.429001e+05
  -4.718215e+05  -1.202128e+06
   1.727521e+05  -1.008732e+06
   5.524007e+05  -1.039127e+05
   5.098206e+05   3.931938e+05
   2.092340e+05   1.525553e+05
   3.233413e+04  -1.091644e+05
   2.171174e+05   2.736898e+05
   4.855733e+05   9.703121e+05
   2.393499e+05   1.101321e+06
  -6.659196e+05   4.022637e+05
  -1.500407e+06  -4.822755e+05
  -1.340999e+06  -8.542180e+05
  -1.883355e+05  -6.984962e+05
   9.101352e+05  -4.163079e+05
   1.013749e+06  -1.948908e+05
   3.286178e+05   3.287418e+04
  -1.655449e+05   2.239552e+05
   1.258847e+04   2.296900e+05
   3.207956e+05   1.232410e+05
   3.012502e+04   1.396072e+05
  -7.281976e+05   2.166083e+05
  -1.054053e+06  -3.699681e+04
  -3.569306e+05  -7.003831e+05
   9.125702e+05  -1.156648e+06
   1.695936e+06  -7.108022e+05
   1.364431e+06   4.818174e+05
   2.458831e+05   1.435886e+06
  -7.777147e+05   1.367943e+06
  -1.068673e+06   5.012940e+05
  -6.698056e+05  -2.683487e+05
  -1.109255e+05  -3.645380e+05
   1.152077e+05  -4.057527e+04
  -6.497486e+04   4.774867e+04
  -3.219421e+05  -3.595049e+05
  -2.612811e+05  -8.191731e+05
   1.982702e+05  -6.761649e+05
   6.992992e+05   1.596961e+05
   7.134410e+05   1.002125e+06
   5.727931e+04   1.043219e+06
  -7.939149e+05   2.028562e+05
  -1.028872e+06  -7.795008e+05
  -3.135658e+05  -1.105584e+06
   7.373877e+05  -6.474021e+05
   1.110887e+06   1.002590e+05
   5.055338e+05   5.973152e+05
  -2.967369e+05   6.443507e+05
  -3.530622e+05   3.570141e+05
   2.896723e+05   2.387937e+04
   6.683900e+05  -2.791892e+04
   1.316695e+05   3.066504e+05
  -8.417444e+05   6.843472e+05
  -1.245179e+06   5.610395e+05
  -7.297142e+05  -1.594741e+05
   1.103412e+05  -8.639194e+05
   5.349942e+05  -8.433336e+05
   3.965296e+05  -1.298365e+05
   3.089052e+04   5.023904e+05
  -2.548171e+05   4.185119e+05
  -3.594084e+05  -1.854559e+05
  -2.464199e+05  -5.884623e+05
   6.859268e+04  -4.020679e+05
   3.948514e+05   6.367128e+04
   4.653376e+05   2.661664e+05
   2.427075e+05   7.912416e+04
  -1.464589e+04  -1.273298e+05
  -7.900895e+04   9.326850e+03
  -3.592998e+04   3.824706e+05
  -1.236646e+05   5.244796e+05
  -3.500618e+05   1.592197e+05
  -4.190622e+05  -4.306714e+05
  -9.432719e+04  -6.664977e+05
   4.341768e+05  -2.993811e+05
   6.494815e+05   3.126957e+05
   2.355462e+05   5.974268e+05
  -5.077913e+05   3.595287e+05
  -8.743690e+05  -1.011026e+05
  -4.716004e+05  -3.884466e+05
   3.030094e+05  -3.778766e+05
   6.424762e+05  -1.941380e+05
   2.286611e+05  -9.143256e+03
  -3.884690e+05   4.238236e+04
  -4.285443e+05  -1.034465e+05
   2.003292e+05  -3.168264e+05
   8.026068e+05  -2.698993e+05
