
 $NMID
 id='ANONYMOUS ', fmtdat='(2E16.6)'
 volume=1.0
 tramp=1.0
 $END
   5.441355e+07   1.351769e+06
   3.182152e+07   3.427711e+07
  -7.998608e+06   3.647060e+07
  -2.678214e+07   1.361777e+07
  -1.567200e+07  -6.906018e+06
   3.311187e+06  -8.871854e+06
   9.390273e+06   1.256435e+06
   2.560158e+06   9.387262e+06
  -6.029820e+06   8.941132e+06
  -9.302432e+06   1.818742e+06
  -6.673658e+06  -6.141267e+06
  -6.496605e+05  -8.390152e+06
   3.956441e+06  -2.577809e+06
   2.527561e+06   5.377707e+06
  -3.695245e+06   6.331893e+06
  -7.564615e+06  -1.400159e+06
  -4.120100e+06  -9.936928e+06
   3.866204e+06  -1.133277e+07
   9.900637e+06  -5.497302e+06
   1.042012e+07   2.256208e+06
   6.192653e+06   7.431639e+06
   3.957069e+05   8.351291e+06
  -2.948824e+06   5.682093e+06
  -1.707272e+06   2.487844e+06
   1.205589e+06   2.159625e+06
   2.113618e+05   4.183115e+06
  -5.427689e+06   4.251963e+06
  -9.511009e+06   3.030823e+05
  -6.795784e+06  -4.192304e+06
  -7.727308e+04  -4.983059e+06
   3.781473e+06  -2.446933e+06
   2.481844e+06   1.169857e+05
  -6.492258e+05   1.058879e+06
  -2.364664e+06   5.202053e+05
  -2.220945e+06  -1.506630e+06
  -6.012674e+05  -3.957284e+06
   1.878576e+06  -3.716304e+06
   3.133988e+06   2.660051e+05
   1.514607e+06   3.614539e+06
  -8.621757e+05   1.773788e+06
  -3.101384e+05  -2.511810e+06
   2.427772e+06  -2.252618e+06
   2.319030e+06   3.110090e+06
  -2.418809e+06   5.837925e+06
  -6.657207e+06   7.977002e+05
  -4.756710e+06  -6.790049e+06
   2.019294e+06  -8.162739e+06
   7.234701e+06  -2.178528e+06
   6.700031e+06   4.417832e+06
   1.751765e+06   5.878378e+06
  -3.395365e+06   2.621117e+06
  -5.115604e+06  -1.503303e+06
  -2.349827e+06  -3.386493e+06
   2.345742e+06  -2.086115e+06
   4.363075e+06   9.548618e+05
   1.848785e+06   2.647872e+06
  -1.683797e+06   1.294075e+06
  -1.695884e+06  -1.006984e+06
   1.232141e+06  -8.717642e+05
   2.322904e+06   1.667349e+06
  -6.262411e+05   3.214498e+06
  -4.434808e+06   1.714891e+06
  -5.060794e+06  -1.369856e+06
  -2.170829e+06  -3.857720e+06
   1.861809e+06  -5.105150e+06
   5.013863e+06  -4.668391e+06
   6.110366e+06  -1.587783e+06
   4.411302e+06   3.204046e+06
   8.099404e+05   6.066188e+06
  -1.852078e+06   4.632260e+06
  -1.673424e+06   1.203366e+06
  -1.436556e+05  -1.591361e+05
  -5.630865e+04   1.046726e+06
  -1.701448e+06   1.755056e+06
  -2.847633e+06   1.509955e+05
  -2.006161e+06  -2.005661e+06
   1.811793e+04  -2.185797e+06
   1.594775e+06  -2.120944e+05
   1.685844e+06   2.092501e+06
  -2.997958e+04   2.929101e+06
  -2.778563e+06   1.588386e+06
  -4.389567e+06  -1.272585e+06
  -3.074293e+06  -3.759723e+06
   1.373282e+05  -4.120385e+06
   2.272396e+06  -2.584566e+06
   2.174322e+06  -1.061523e+06
   1.782528e+06  -6.595896e+05
   2.897590e+06  -4.621496e+05
   4.289862e+06   7.818083e+05
   3.429360e+06   2.766163e+06
   9.744974e+04   4.098482e+06
  -3.227057e+06   3.853932e+06
  -4.192664e+06   2.067019e+06
  -2.652615e+06  -4.694374e+05
  -2.358397e+05  -2.255067e+06
   1.140481e+06  -1.920031e+06
   5.653161e+05   5.137023e+04
  -1.105681e+06   1.296751e+06
  -1.899378e+06   3.725296e+05
  -8.926586e+05  -1.213884e+06
   5.327037e+05  -1.112989e+06
   4.356225e+05   3.775921e+05
  -1.027094e+06   6.886582e+05
  -1.793207e+06  -1.247317e+06
  -6.257628e+05  -3.402494e+06
   1.536409e+06  -3.350330e+06
   3.064700e+06  -1.116026e+06
   3.275758e+06   1.410849e+06
   2.279236e+06   2.744694e+06
   4.533422e+05   2.611184e+06
  -1.253885e+06   1.456713e+06
  -1.584386e+06   2.132487e+05
  -4.915900e+05  -5.022097e+04
   3.507422e+05   7.535122e+05
  -4.264974e+05   1.326375e+06
  -1.903011e+06   5.500311e+05
  -2.010427e+06  -9.034440e+05
  -3.677441e+05  -1.409197e+06
   1.172188e+06  -5.589551e+05
   8.880525e+05   4.562242e+05
  -8.378917e+05   5.146237e+05
  -2.167258e+06  -3.209396e+05
  -1.740882e+06  -1.353514e+06
   2.491354e+05  -1.964910e+06
   2.313329e+06  -1.638327e+06
   2.772138e+06  -2.505325e+05
   1.199153e+06   1.274691e+06
  -9.381514e+05   1.484828e+06
  -1.557916e+06   1.652565e+05
  -1.835105e+05  -1.084178e+06
   1.524468e+06  -7.194749e+05
   1.706794e+06   7.961441e+05
   3.230501e+05   1.647824e+06
  -1.091626e+06   9.624096e+05
  -1.245671e+06  -3.191490e+05
  -2.369554e+05  -7.763176e+05
   7.945668e+05  -4.284010e+04
   7.250791e+05   1.062902e+06
  -5.918880e+05   1.421527e+06
  -2.017401e+06   5.241454e+05
  -2.028154e+06  -1.072036e+06
  -3.627052e+05  -2.079620e+06
   1.456469e+06  -1.626672e+06
   1.726010e+06  -1.923674e+05
   4.925698e+05   8.709104e+05
  -6.649519e+05   7.959111e+05
  -6.362650e+05   7.445633e+04
   1.133622e+05  -3.579997e+05
   4.871294e+05  -2.124454e+05
   1.276114e+05   5.418792e+04
  -4.343397e+05  -8.514053e+04
  -5.027549e+05  -6.710045e+05
   2.186216e+05  -1.178194e+06
   1.389237e+06  -8.799310e+05
   2.077323e+06   4.342523e+05
   1.446720e+06   1.958863e+06
  -2.376599e+05   2.420538e+06
  -1.623047e+06   1.399801e+06
  -1.685059e+06  -1.352372e+05
  -8.564817e+05  -8.964130e+05
  -3.257114e+05  -6.546715e+05
  -4.824192e+05  -2.328359e+05
  -6.192068e+05  -3.273395e+05
  -7.775420e+04  -7.653567e+05
   8.828119e+05  -8.899360e+05
   1.446748e+06  -3.133153e+05
   1.045157e+06   7.258149e+05
  -2.560151e+05   1.453872e+06
  -1.726875e+06   1.057796e+06
  -2.242642e+06  -5.013725e+05
  -1.113122e+06  -2.106745e+06
   1.032265e+06  -2.350004e+06
   2.547553e+06  -1.002834e+06
   2.337985e+06   6.777312e+05
   9.438455e+05   1.337640e+06
  -2.057292e+05   9.389514e+05
  -3.863176e+05   5.136594e+05
  -8.704140e+04   7.642012e+05
  -1.226892e+05   1.311620e+06
  -6.874639e+05   1.280629e+06
  -1.298598e+06   3.035782e+05
  -1.329626e+06  -1.094198e+06
  -5.411452e+05  -1.901270e+06
   6.345843e+05  -1.433634e+06
   1.284668e+06   1.290762e+04
   7.976044e+05   1.289232e+06
  -4.039157e+05   1.387469e+06
  -1.160164e+06   3.885062e+05
  -7.948223e+05  -7.058990e+05
   1.388414e+05  -1.067870e+06
   5.428441e+05  -7.685332e+05
   8.541303e+04  -4.115062e+05
  -4.329381e+05  -3.409665e+05
  -5.777159e+04  -3.849755e+05
   1.150112e+06  -1.969125e+05
   2.059838e+06   3.548110e+05
   1.605946e+06   1.051654e+06
  -5.537146e+04   1.430444e+06
  -1.602842e+06   1.121394e+06
  -1.831265e+06   2.587967e+05
  -8.219459e+05  -5.011014e+05
   2.701152e+05  -5.648816e+05
   5.096072e+05  -2.666652e+04
   2.353380e+04   4.251210e+05
  -4.456710e+05   2.581843e+05
  -4.799697e+05  -3.466243e+05
  -2.525681e+05  -7.302577e+05
  -9.553656e+04  -4.853473e+05
  -1.339938e+05   9.248587e+04
  -2.748087e+05   2.923279e+05
  -2.726169e+05  -2.338900e+05
   1.452586e+05  -9.878485e+05
   9.090007e+05  -1.060856e+06
   1.372400e+06  -1.616768e+05
   8.513516e+05   9.276941e+05
  -4.285706e+05   1.141484e+06
  -1.269642e+06   3.297743e+05
  -7.333813e+05  -5.778779e+05
   7.077355e+05  -6.413927e+05
   1.583608e+06   1.086015e+05
   9.914488e+05   8.657637e+05
  -4.929334e+05   9.760414e+05
  -1.494290e+06   4.608082e+05
  -1.223077e+06  -2.000393e+05
  -1.284647e+05  -5.112889e+05
   6.504429e+05  -2.607177e+05
   3.833383e+05   3.013332e+05
  -5.883322e+05   5.265372e+05
  -1.190394e+06  -8.143496e+04
  -6.775609e+05  -1.188882e+06
   5.908201e+05  -1.714273e+06
   1.490279e+06  -8.916219e+05
   1.258950e+06   7.609126e+05
   1.984074e+05   1.795381e+06
  -7.448085e+05   1.288351e+06
  -9.207072e+05  -1.874392e+05
  -4.180054e+05  -1.193828e+06
   2.323821e+05  -9.592216e+05
   5.647470e+05  -7.540868e+04
   4.582952e+05   3.751021e+05
   1.556428e+05   1.315381e+05
   5.138463e+04  -9.088648e+04
   2.894343e+05   3.095896e+05
   5.104010e+05   9.758539e+05
   1.758924e+05   1.074612e+06
  -7.304314e+05   3.846517e+05
  -1.474664e+06  -4.709488e+05
  -1.268142e+06  -8.392084e+05
  -1.801529e+05  -7.029310e+05
   8.466461e+05  -4.230629e+05
   9.816041e+05  -1.766128e+05
   3.684486e+05   6.482801e+04
  -1.425591e+05   2.288197e+05
  -4.770694e+04   1.935024e+05
   2.533239e+05   8.157192e+04
   5.705441e+04   1.349080e+05
  -6.495170e+05   2.482657e+05
  -1.054601e+06  -7.783753e+03
  -4.574826e+05  -7.061075e+05
   8.326462e+05  -1.198079e+06
   1.722353e+06  -7.686927e+05
   1.442022e+06   4.295935e+05
   2.851794e+05   1.411306e+06
  -7.761424e+05   1.386646e+06
  -1.058026e+06   5.537670e+05
  -6.592093e+05  -2.216740e+05
  -1.426586e+05  -3.626394e+05
   5.805669e+04  -8.255988e+04
  -8.371097e+04   2.586477e+03
  -2.917988e+05  -3.722458e+05
  -2.415433e+05  -8.096695e+05
   1.762101e+05  -6.880729e+05
   6.847389e+05   1.054890e+05
   7.608198e+05   9.440590e+05
   1.411646e+05   1.044446e+06
  -7.488746e+05   2.745905e+05
  -1.054292e+06  -7.035600e+05
  -3.675316e+05  -1.098278e+06
   7.146620e+05  -6.998189e+05
   1.136187e+06   6.732122e+04
   5.446293e+05   6.304843e+05
  -2.921007e+05   7.010045e+05
  -3.979034e+05   3.712526e+05
   2.318121e+05  -3.929234e+03
   6.484862e+05  -4.648316e+04
   1.542449e+05   3.143645e+05
  -8.265250e+05   6.826614e+05
  -1.276452e+06   5.288988e+05
  -7.821754e+05  -1.953851e+05
   9.349815e+04  -8.823153e+05
   5.704841e+05  -8.665330e+05
   4.501427e+05  -1.739589e+05
   6.876894e+04   4.758062e+05
  -2.371560e+05   4.505795e+05
  -3.578836e+05  -1.279712e+05
  -2.615274e+05  -5.790481e+05
   4.973620e+04  -4.475575e+05
   3.960342e+05   3.487195e+04
   4.830403e+05   2.938260e+05
   2.417832e+05   1.071342e+05
  -4.122405e+04  -1.672945e+05
  -7.671070e+04  -7.299020e+04
   4.256216e+04   3.494117e+05
  -1.494775e+04   5.823731e+05
  -3.154165e+05   2.585884e+05
  -4.933374e+05  -3.617126e+05
  -1.961689e+05  -6.549614e+05
   4.008308e+05  -3.307759e+05
   6.858178e+05   2.664998e+05
   2.710105e+05   5.693874e+05
  -5.142915e+05   3.727082e+05
  -9.017362e+05  -6.344950e+04
  -4.904677e+05  -3.771988e+05
   2.958091e+05  -4.194487e+05
   6.504085e+05  -2.510612e+05
   2.680164e+05  -2.007282e+04
  -3.293125e+05   9.224401e+04
  -4.066937e+05  -3.667479e+04
   1.458802e+05  -2.847159e+05
   7.159553e+05  -2.861354e+05
