
 $NMID
 id='ANONYMOUS ', fmtdat='(2E16.6)'
 volume=1.0
 tramp=1.0
 $END
  -3.378852e+07   1.345487e+06
  -2.165217e+07  -1.955514e+07
   2.923427e+06  -2.304429e+07
   1.617519e+07  -1.024321e+07
   1.060929e+07   3.177612e+06
  -1.408332e+06   5.875283e+06
  -6.209882e+06  -1.457965e+04
  -2.400112e+06  -5.876129e+06
   3.350236e+06  -6.345125e+06
   5.940255e+06  -1.813698e+06
   4.509393e+06   3.699499e+06
   6.553258e+05   5.429367e+06
  -2.452189e+06   1.702355e+06
  -1.763762e+06  -3.590070e+06
   2.177630e+06  -4.435948e+06
   4.944786e+06   4.588622e+05
   3.094786e+06   6.158309e+06
  -1.956966e+06   7.385066e+06
  -6.012971e+06   3.826675e+06
  -6.529198e+06  -1.086828e+06
  -3.987079e+06  -4.334501e+06
  -5.562654e+05  -4.953096e+06
   1.335219e+06  -3.557855e+06
   6.196227e+05  -1.929060e+06
  -8.897837e+05  -1.832142e+06
   1.237140e+04  -2.890806e+06
   3.638870e+06  -2.711931e+06
   6.178220e+06  -1.963086e+05
   4.377111e+06   2.583679e+06
  -1.203907e+04   3.055675e+06
  -2.497576e+06   1.399701e+06
  -1.449712e+06  -2.738349e+05
   8.229779e+05  -7.483637e+05
   1.852848e+06  -1.348700e+05
   1.389505e+06   1.267072e+06
   1.822031e+05   2.642918e+06
  -1.164017e+06   2.292833e+06
  -1.742531e+06  -1.740722e+05
  -8.707291e+05  -2.110279e+06
   3.626907e+05  -8.890978e+05
   4.226694e+03   1.770157e+06
  -1.622492e+06   1.586991e+06
  -1.682121e+06  -1.873137e+06
   1.106217e+06  -3.858098e+06
   3.954915e+06  -9.398772e+05
   3.246112e+06   3.924979e+06
  -8.152575e+05   5.170328e+06
  -4.439807e+06   1.649825e+06
  -4.539314e+06  -2.636277e+06
  -1.432324e+06  -3.853351e+06
   2.170290e+06  -1.930723e+06
   3.552309e+06   7.803270e+05
   1.806694e+06   2.181492e+06
  -1.367717e+06   1.526671e+06
  -2.870490e+06  -3.821277e+05
  -1.364129e+06  -1.610497e+06
   1.003576e+06  -9.111318e+05
   1.208308e+06   6.166330e+05
  -6.797115e+05   7.757901e+05
  -1.679572e+06  -7.626268e+05
  -3.543415e+04  -2.021627e+06
   2.546391e+06  -1.414486e+06
   3.311420e+06   5.035567e+05
   1.619739e+06   2.321275e+06
  -1.096435e+06   3.315845e+06
  -3.250516e+06   3.065156e+06
  -3.928580e+06   1.074412e+06
  -2.817596e+06  -2.000033e+06
  -6.053548e+05  -3.921413e+06
   1.048583e+06  -3.169188e+06
   1.076958e+06  -1.035586e+06
   3.028433e+05  -3.040452e+04
   2.984441e+05  -6.122135e+05
   1.244063e+06  -9.657049e+05
   1.849510e+06   8.630213e+04
   1.216290e+06   1.461779e+06
  -1.587840e+05   1.492692e+06
  -1.189345e+06   6.080939e+04
  -1.162315e+06  -1.522245e+06
   5.211276e+04  -1.996621e+06
   1.840773e+06  -1.015733e+06
   2.833284e+06   8.327774e+05
   1.998101e+06   2.356732e+06
   1.102362e+04   2.580704e+06
  -1.322123e+06   1.685475e+06
  -1.313418e+06   7.932005e+05
  -1.160373e+06   5.553554e+05
  -1.970622e+06   4.110472e+05
  -2.936315e+06  -4.414264e+05
  -2.379586e+06  -1.831825e+06
  -1.116593e+05  -2.804337e+06
   2.194381e+06  -2.645157e+06
   2.862740e+06  -1.373096e+06
   1.761221e+06   3.671589e+05
   8.256288e+04   1.520568e+06
  -8.102455e+05   1.253919e+06
  -3.665140e+05  -5.095162e+04
   7.606843e+05  -8.700777e+05
   1.271975e+06  -2.740394e+05
   5.923261e+05   7.887533e+05
  -3.814154e+05   7.591932e+05
  -3.560646e+05  -2.674983e+05
   6.583656e+05  -5.975848e+05
   1.327584e+06   6.596126e+05
   6.734240e+05   2.285507e+06
  -8.588557e+05   2.496620e+06
  -2.123184e+06   1.027823e+06
  -2.417177e+06  -8.749526e+05
  -1.695134e+06  -1.959651e+06
  -3.328776e+05  -1.870938e+06
   8.808858e+05  -1.002754e+06
   1.095056e+06  -1.294554e+05
   3.391613e+05   3.233709e+04
  -2.500582e+05  -5.123306e+05
   2.500136e+05  -9.025598e+05
   1.260078e+06  -4.120548e+05
   1.388949e+06   5.560008e+05
   3.016503e+05   9.454213e+05
  -7.918466e+05   4.125710e+05
  -6.444933e+05  -3.127707e+05
   5.728996e+05  -4.167454e+05
   1.561425e+06   1.664619e+05
   1.280814e+06   9.550304e+05
  -1.451428e+05   1.422451e+06
  -1.606980e+06   1.178578e+06
  -1.919367e+06   2.004427e+05
  -8.410200e+05  -8.471180e+05
   6.028103e+05  -1.006545e+06
   1.031449e+06  -1.383881e+05
   1.283037e+05   7.137796e+05
  -1.028607e+06   5.038395e+05
  -1.191019e+06  -5.169369e+05
  -2.703522e+05  -1.142489e+06
   7.315731e+05  -7.181595e+05
   8.896267e+05   1.722272e+05
   2.086678e+05   5.319498e+05
  -5.247585e+05   5.303523e+04
  -4.974589e+05  -7.103684e+05
   4.003759e+05  -9.651990e+05
   1.374966e+06  -3.587280e+05
   1.388584e+06   7.238587e+05
   2.664801e+05   1.419038e+06
  -9.756095e+05   1.134530e+06
  -1.187634e+06   1.617998e+05
  -3.655512e+05  -5.944972e+05
   4.454723e+05  -5.663957e+05
   4.542050e+05  -4.777586e+04
  -7.439760e+04   2.849255e+05
  -3.743004e+05   1.688244e+05
  -1.348139e+05  -7.170243e+04
   2.954858e+05  -2.370496e+03
   3.838036e+05   4.299939e+05
  -1.137586e+05   8.176551e+05
  -9.425977e+05   6.250059e+05
  -1.431473e+06  -2.797234e+05
  -1.005179e+06  -1.333167e+06
   1.529062e+05  -1.673324e+06
   1.125615e+06  -9.968059e+05
   1.196917e+06   7.638474e+04
   6.222308e+05   6.566174e+05
   2.108354e+05   5.144630e+05
   2.842421e+05   1.788193e+05
   3.969835e+05   1.903505e+05
   6.253317e+04   4.997689e+05
  -5.957844e+05   6.286631e+05
  -1.010879e+06   2.370258e+05
  -7.447985e+05  -5.160260e+05
   1.678110e+05  -1.040895e+06
   1.197100e+06  -7.563268e+05
   1.561061e+06   3.327677e+05
   7.996377e+05   1.445211e+06
  -6.658603e+05   1.634591e+06
  -1.735290e+06   7.371771e+05
  -1.643573e+06  -4.278958e+05
  -7.023229e+05  -9.349579e+05
   1.307302e+05  -6.959554e+05
   3.058781e+05  -3.765845e+05
   1.007606e+05  -4.985217e+05
   8.558431e+04  -8.627778e+05
   4.465689e+05  -8.675615e+05
   8.731043e+05  -2.166549e+05
   9.122610e+05   7.448907e+05
   3.780967e+05   1.305037e+06
  -4.327598e+05   9.879994e+05
  -8.899245e+05   3.531674e+03
  -5.715324e+05  -8.721844e+05
   2.457413e+05  -9.659918e+05
   7.825976e+05  -3.145304e+05
   5.679289e+05   4.375202e+05
  -4.895354e+04   7.260306e+05
  -3.344329e+05   5.546664e+05
  -4.835002e+04   3.063285e+05
   2.883005e+05   2.382107e+05
   3.452740e+04   2.661526e+05
  -7.801093e+05   1.517517e+05
  -1.404164e+06  -2.178661e+05
  -1.116004e+06  -7.019677e+05
  -1.175224e+03  -9.771753e+05
   1.065532e+06  -7.850743e+05
   1.257083e+06  -2.100929e+05
   5.918086e+05   3.132044e+05
  -1.640046e+05   3.814777e+05
  -3.483908e+05   3.722717e+04
  -1.668593e+04  -2.701247e+05
   3.141713e+05  -1.695034e+05
   3.282045e+05   2.360408e+05
   1.504590e+05   4.978945e+05
   4.553676e+04   3.252047e+05
   1.024665e+05  -7.840263e+04
   2.144533e+05  -2.127305e+05
   1.925413e+05   1.597969e+05
  -1.123166e+05   6.821056e+05
  -6.175124e+05   7.284997e+05
  -9.080901e+05   1.135922e+05
  -5.613653e+05  -6.227582e+05
   2.801197e+05  -7.650421e+05
   8.462161e+05  -2.166633e+05
   4.998915e+05   4.009705e+05
  -4.811727e+05   4.523754e+05
  -1.108229e+06  -6.007792e+04
  -7.206182e+05  -6.011289e+05
   3.222795e+05  -7.049707e+05
   1.049885e+06  -3.537005e+05
   8.729798e+05   1.254684e+05
   1.002523e+05   3.631156e+05
  -4.492603e+05   1.952797e+05
  -2.611112e+05  -1.944530e+05
   4.084207e+05  -3.477674e+05
   8.089765e+05   6.837804e+04
   4.445836e+05   8.153469e+05
  -4.229402e+05   1.161470e+06
  -1.029079e+06   5.964302e+05
  -8.642284e+05  -5.301122e+05
  -1.347960e+05  -1.241847e+06
   5.174934e+05  -9.028780e+05
   6.470997e+05   1.145759e+05
   3.077113e+05   8.280248e+05
  -1.433962e+05   6.828351e+05
  -3.871463e+05   6.451171e+04
  -3.298314e+05  -2.678752e+05
  -1.213703e+05  -1.028815e+05
  -3.138232e+04   7.108169e+04
  -1.824643e+05  -1.907050e+05
  -3.481844e+05  -6.632953e+05
  -1.420398e+05  -7.543606e+05
   4.825109e+05  -2.815390e+05
   1.022112e+06   3.241882e+05
   8.957303e+05   5.856117e+05
   1.296347e+05   4.820284e+05
  -5.990814e+05   2.838343e+05
  -6.861795e+05   1.269054e+05
  -2.452550e+05  -2.800147e+04
   1.034856e+05  -1.536469e+05
   1.817646e+04  -1.525786e+05
  -1.894997e+05  -7.661669e+04
  -3.057587e+04  -8.995715e+04
   4.653778e+05  -1.529964e+05
   7.204750e+05   9.743687e+03
   2.868953e+05   4.682477e+05
  -5.863960e+05   8.036627e+05
  -1.164594e+06   5.211153e+05
  -9.618926e+05  -2.953278e+05
  -1.863945e+05  -9.711889e+05
   5.256188e+05  -9.498473e+05
   7.208925e+05  -3.669984e+05
   4.507096e+05   1.653003e+05
   8.934987e+04   2.446497e+05
  -5.166928e+04   3.633439e+04
   5.758552e+04  -1.852020e+04
   2.129712e+05   2.543964e+05
   1.744334e+05   5.605093e+05
  -1.230227e+05   4.668995e+05
  -4.681861e+05  -8.796356e+04
  -5.047449e+05  -6.570336e+05
  -7.581825e+04  -7.058689e+05
   5.181283e+05  -1.639174e+05
   7.098508e+05   4.992913e+05
   2.394773e+05   7.484915e+05
  -4.884519e+05   4.646097e+05
  -7.687527e+05  -4.847741e+04
  -3.688719e+05  -4.153609e+05
   1.917368e+05  -4.644003e+05
   2.556864e+05  -2.581085e+05
  -1.739144e+05  -1.268483e+04
  -4.491701e+05   2.612439e+04
  -1.012013e+05  -2.101114e+05
   5.700387e+05  -4.712304e+05
   8.693779e+05  -3.830265e+05
   5.267803e+05   1.129646e+05
  -6.328898e+04   5.989233e+05
  -3.743516e+05   5.953325e+05
  -2.862288e+05   1.145879e+05
  -3.396282e+04  -3.301067e+05
   1.624922e+05  -2.982986e+05
   2.394957e+05   1.046145e+05
   1.762088e+05   3.977989e+05
  -3.226141e+04   2.911676e+05
  -2.682249e+05  -3.103495e+04
  -3.313508e+05  -1.889241e+05
  -1.705845e+05  -6.405982e+04
   2.597923e+04   9.882492e+04
   6.444697e+04   2.450924e+04
  -2.056392e+03  -2.400274e+05
   3.409342e+04  -3.681980e+05
   2.136027e+05  -1.436695e+05
   3.085507e+05   2.583298e+05
   1.043608e+05   4.396663e+05
  -2.803906e+05   2.148533e+05
  -4.550487e+05  -1.899605e+05
  -1.738689e+05  -3.942119e+05
   3.481060e+05  -2.549518e+05
   6.064710e+05   4.794880e+04
   3.313326e+05   2.581432e+05
  -1.982816e+05   2.757020e+05
  -4.360981e+05   1.587432e+05
  -1.706045e+05   1.662352e+04
   2.377771e+05  -4.178915e+04
   2.778880e+05   4.695253e+04
  -1.200138e+05   1.992654e+05
  -5.156408e+05   1.834970e+05
