
 $NMID
 id='ANONYMOUS ', fmtdat='(2E16.6)'
 volume=1.0
 tramp=1.0
 $END
  -4.350383e+07   1.027598e+06
  -2.751086e+07  -2.468989e+07
   3.629699e+06  -2.909126e+07
   2.038981e+07  -1.356904e+07
   1.361108e+07   3.277744e+06
  -1.486095e+06   7.418345e+06
  -7.914433e+06   4.817938e+05
  -3.476434e+06  -7.337513e+06
   3.900090e+06  -8.542315e+06
   7.587844e+06  -2.701869e+06
   5.954820e+06   4.874917e+06
   8.727969e+05   7.275797e+06
  -3.329791e+06   2.149284e+06
  -2.500817e+06  -5.015412e+06
   2.678070e+06  -6.123076e+06
   6.420651e+06   4.017965e+05
   4.144792e+06   7.975316e+06
  -2.450662e+06   9.639123e+06
  -7.835826e+06   4.916423e+06
  -8.436362e+06  -1.624145e+06
  -4.875969e+06  -5.760269e+06
  -3.884040e+05  -6.203257e+06
   1.628888e+06  -4.193826e+06
   2.003960e+05  -2.397631e+06
  -1.714899e+06  -2.798428e+06
   4.500976e+04  -4.310726e+06
   5.287168e+06  -3.731579e+06
   8.588927e+06  -6.595777e+04
   5.804864e+06   3.667454e+06
  -3.802036e+05   4.154472e+06
  -3.757003e+06   1.728682e+06
  -2.072444e+06  -7.663370e+05
   1.431193e+06  -1.466631e+06
   3.028596e+06  -2.900507e+05
   2.128648e+06   2.061516e+06
   8.164529e+04   3.909922e+06
  -1.744517e+06   2.977185e+06
  -2.159106e+06  -5.905035e+05
  -8.016374e+05  -2.877454e+06
   6.416381e+05  -8.157792e+05
  -6.450383e+04   2.767090e+06
  -2.205691e+06   2.301035e+06
  -2.256687e+06  -2.359152e+06
   1.231783e+06  -4.912027e+06
   4.812014e+06  -1.144600e+06
   4.027160e+06   5.022261e+06
  -1.031030e+06   6.568806e+06
  -5.782589e+06   2.087070e+06
  -6.146544e+06  -3.430162e+06
  -2.141423e+06  -5.126861e+06
   2.820206e+06  -2.750392e+06
   4.888907e+06   8.146452e+05
   2.624394e+06   2.779601e+06
  -1.669800e+06   2.032677e+06
  -3.758033e+06  -4.141886e+05
  -1.837806e+06  -2.028545e+06
   1.294793e+06  -1.186958e+06
   1.694842e+06   7.634701e+05
  -6.783455e+05   1.092672e+06
  -2.118544e+06  -7.001551e+05
  -2.519967e+05  -2.319606e+06
   3.021813e+06  -1.788972e+06
   4.208506e+06   4.688194e+05
   2.158742e+06   2.910850e+06
  -1.517103e+06   4.455325e+06
  -4.547123e+06   4.182933e+06
  -5.402298e+06   1.376121e+06
  -3.731657e+06  -2.836461e+06
  -7.651396e+05  -5.356685e+06
   1.265072e+06  -4.324259e+06
   1.247569e+06  -1.583889e+06
   4.312467e+05  -3.518088e+05
   6.994161e+05  -1.065676e+06
   2.050537e+06  -1.317236e+06
   2.761200e+06   3.227929e+05
   1.733098e+06   2.286640e+06
  -3.198938e+05   2.272396e+06
  -1.856892e+06   1.311431e+05
  -1.778663e+06  -2.218817e+06
   7.255560e+04  -2.876100e+06
   2.632683e+06  -1.371991e+06
   3.896376e+06   1.264168e+06
   2.615672e+06   3.255157e+06
  -7.476847e+04   3.399369e+06
  -1.747649e+06   2.150502e+06
  -1.655195e+06   1.048885e+06
  -1.498260e+06   8.444626e+05
  -2.709026e+06   6.948511e+05
  -4.119708e+06  -4.891772e+05
  -3.408059e+06  -2.483912e+06
  -2.547690e+05  -3.963289e+06
   3.058927e+06  -3.824424e+06
   4.093484e+06  -1.985962e+06
   2.524266e+06   5.789434e+05
   6.483458e+04   2.230510e+06
  -1.213697e+06   1.782938e+06
  -5.211167e+05  -1.070014e+05
   1.096375e+06  -1.249025e+06
   1.776171e+06  -3.952607e+05
   8.015268e+05   1.106052e+06
  -5.556263e+05   1.098550e+06
  -5.687586e+05  -3.394422e+05
   7.848081e+05  -9.252180e+05
   1.813777e+06   6.763043e+05
   1.157563e+06   2.988425e+06
  -8.381327e+05   3.554752e+06
  -2.780266e+06   1.737827e+06
  -3.513696e+06  -9.586287e+05
  -2.639178e+06  -2.691328e+06
  -6.133414e+05  -2.706224e+06
   1.244492e+06  -1.477053e+06
   1.580930e+06  -2.044271e+05
   4.822741e+05   3.479003e+04
  -3.720472e+05  -7.189884e+05
   3.167200e+05  -1.255256e+06
   1.732354e+06  -5.988016e+05
   1.946967e+06   7.158486e+05
   4.608972e+05   1.290622e+06
  -1.099570e+06   6.168264e+05
  -9.622612e+05  -4.098834e+05
   7.520016e+05  -6.675203e+05
   2.252019e+06   8.505515e+04
   1.951017e+06   1.276021e+06
  -8.402418e+04   2.074328e+06
  -2.236351e+06   1.785402e+06
  -2.726163e+06   3.678587e+05
  -1.205934e+06  -1.155961e+06
   8.243535e+05  -1.403741e+06
   1.420526e+06  -1.996242e+05
   1.685131e+05   9.972881e+05
  -1.442571e+06   7.346824e+05
  -1.703864e+06  -6.756906e+05
  -4.559182e+05  -1.593867e+06
   9.691534e+05  -1.068271e+06
   1.261129e+06   1.659953e+05
   3.389101e+05   7.207645e+05
  -7.235000e+05   8.927232e+04
  -7.204112e+05  -9.962218e+05
   5.530138e+05  -1.387317e+06
   1.956747e+06  -5.434335e+05
   1.994772e+06   9.956977e+05
   4.209731e+05   2.002712e+06
  -1.334971e+06   1.636222e+06
  -1.667229e+06   2.801419e+05
  -5.474847e+05  -8.176908e+05
   6.046537e+05  -8.244122e+05
   6.682015e+05  -8.551196e+04
  -6.352835e+04   4.451481e+05
  -5.471638e+05   3.101382e+05
  -2.687387e+05  -8.421257e+04
   3.629748e+05  -6.190775e+04
   5.654486e+05   5.410470e+05
  -1.001434e+05   1.146842e+06
  -1.302734e+06   9.286672e+05
  -2.044808e+06  -3.415129e+05
  -1.473363e+06  -1.861167e+06
   1.575688e+05  -2.395896e+06
   1.561098e+06  -1.489375e+06
   1.726901e+06   3.096593e+04
   9.652808e+05   9.209103e+05
   3.603400e+05   7.867805e+05
   3.925386e+05   3.009395e+05
   5.236643e+05   2.571481e+05
   9.228095e+04   6.825999e+05
  -8.054068e+05   9.209840e+05
  -1.430448e+06   4.057590e+05
  -1.118683e+06  -7.002898e+05
   1.623862e+05  -1.518570e+06
   1.671610e+06  -1.151984e+06
   2.249626e+06   4.039008e+05
   1.209631e+06   2.016160e+06
  -8.594902e+05   2.337288e+06
  -2.411792e+06   1.124863e+06
  -2.358441e+06  -5.093150e+05
  -1.082853e+06  -1.285703e+06
   1.172631e+05  -1.028873e+06
   4.375071e+05  -5.998956e+05
   1.846116e+05  -7.307432e+05
   1.338105e+05  -1.207549e+06
   6.071474e+05  -1.220657e+06
   1.222101e+06  -3.226215e+05
   1.318243e+06   1.037738e+06
   5.789809e+05   1.851604e+06
  -5.891891e+05   1.424748e+06
  -1.269758e+06   4.321259e+04
  -8.480951e+05  -1.203660e+06
   2.912514e+05  -1.371969e+06
   1.061154e+06  -4.951943e+05
   8.021924e+05   5.559828e+05
  -2.096289e+04   9.959533e+05
  -4.125709e+05   7.919703e+05
  -3.467762e+04   4.485697e+05
   4.151416e+05   3.409004e+05
   5.588031e+04   3.836129e+05
  -1.088813e+06   2.445265e+05
  -1.985009e+06  -2.594480e+05
  -1.609424e+06  -9.473472e+05
  -5.369138e+04  -1.363756e+06
   1.464491e+06  -1.135053e+06
   1.765673e+06  -3.569219e+05
   8.504675e+05   3.875885e+05
  -2.123867e+05   5.275301e+05
  -4.801110e+05   7.650845e+04
  -1.544098e+04  -3.661684e+05
   4.540736e+05  -2.498535e+05
   4.711409e+05   3.266533e+05
   2.082133e+05   7.208675e+05
   5.176891e+04   4.725696e+05
   1.389386e+05  -1.352195e+05
   3.109587e+05  -3.421341e+05
   2.864855e+05   2.154735e+05
  -1.443372e+05   9.913540e+05
  -8.563689e+05   1.056552e+06
  -1.268171e+06   1.652417e+05
  -7.920348e+05  -8.815743e+05
   3.825827e+05  -1.076363e+06
   1.190738e+06  -3.059548e+05
   7.252241e+05   5.645552e+05
  -6.613029e+05   6.641683e+05
  -1.588204e+06  -2.778872e+04
  -1.081609e+06  -8.116895e+05
   4.002171e+05  -1.029157e+06
   1.478579e+06  -5.816590e+05
   1.267159e+06   1.198941e+05
   1.717829e+05   5.160343e+05
  -6.270415e+05   3.055163e+05
  -3.677779e+05  -2.641729e+05
   5.891077e+05  -5.020886e+05
   1.162271e+06   9.196701e+04
   6.409985e+05   1.168761e+06
  -5.982536e+05   1.672013e+06
  -1.470062e+06   8.717780e+05
  -1.253817e+06  -7.395483e+05
  -2.321013e+05  -1.777538e+06
   7.048713e+05  -1.322375e+06
   9.283111e+05   1.233492e+05
   4.851117e+05   1.165396e+06
  -1.553214e+05   9.869919e+05
  -5.421260e+05   1.129549e+05
  -4.990108e+05  -3.704002e+05
  -1.973430e+05  -1.430898e+05
  -3.361966e+04   1.055952e+05
  -2.370197e+05  -2.635114e+05
  -5.082450e+05  -9.353100e+05
  -2.514310e+05  -1.070651e+06
   6.542181e+05  -4.139568e+05
   1.476612e+06   4.289875e+05
   1.321703e+06   8.002119e+05
   2.029730e+05   6.797120e+05
  -8.661520e+05   4.301481e+05
  -9.817643e+05   2.138148e+05
  -3.325883e+05  -2.616613e+04
   1.509297e+05  -2.232460e+05
  -4.470711e+03  -2.216936e+05
  -3.014466e+05  -1.080818e+05
  -3.849512e+04  -1.328766e+05
   6.889668e+05  -2.333685e+05
   1.030847e+06   3.520360e+02
   3.893438e+05   6.692947e+05
  -8.418047e+05   1.160561e+06
  -1.640793e+06   7.572549e+05
  -1.360594e+06  -4.170215e+05
  -2.874832e+05  -1.390849e+06
   7.205092e+05  -1.364655e+06
   1.025826e+06  -5.306712e+05
   6.579055e+05   2.351255e+05
   1.251189e+05   3.509759e+05
  -9.745201e+04   4.711187e+04
   6.908767e+04  -4.115312e+04
   3.204725e+05   3.473012e+05
   2.747110e+05   7.939779e+05
  -1.696114e+05   6.683718e+05
  -6.824421e+05  -1.267985e+05
  -7.320734e+05  -9.459456e+05
  -1.021950e+05  -1.013821e+06
   7.574978e+05  -2.319113e+05
   1.028828e+06   7.171338e+05
   3.483927e+05   1.067952e+06
  -6.951269e+05   6.632589e+05
  -1.092759e+06  -5.820312e+04
  -5.218901e+05  -5.738275e+05
   2.670181e+05  -6.498661e+05
   3.430594e+05  -3.656146e+05
  -2.709381e+05  -1.393923e+04
  -6.481883e+05   4.857466e+04
  -1.425413e+05  -2.962542e+05
   8.015964e+05  -6.924477e+05
   1.211232e+06  -5.806729e+05
   7.315808e+05   1.385317e+05
  -7.881393e+04   8.511675e+05
  -5.048648e+05   8.477759e+05
  -3.916515e+05   1.507938e+05
  -4.998678e+04  -4.829767e+05
   2.317414e+05  -4.218487e+05
   3.526386e+05   1.602343e+05
   2.602348e+05   5.660563e+05
  -4.875216e+04   4.029876e+05
  -3.864907e+05  -4.539619e+04
  -4.685121e+05  -2.513870e+05
  -2.416402e+05  -7.605051e+04
   2.601733e+04   1.300752e+05
   8.253232e+04   4.770945e+03
   1.139345e+04  -3.633627e+05
   8.084745e+04  -5.203540e+05
   3.242732e+05  -1.826209e+05
   4.319366e+05   3.909085e+05
   1.302678e+05   6.401458e+05
  -4.077082e+05   3.091142e+05
  -6.483689e+05  -2.759631e+05
  -2.524798e+05  -5.700448e+05
   4.870803e+05  -3.694211e+05
   8.613542e+05   6.473832e+04
   4.755623e+05   3.632443e+05
  -2.814616e+05   3.860933e+05
  -6.208409e+05   2.199541e+05
  -2.304167e+05   2.036335e+04
   3.640324e+05  -5.802367e+04
   4.134345e+05   7.767410e+04
  -1.788039e+05   3.057344e+05
  -7.599726e+05   2.840121e+05
