
 $NMID
 id='ANONYMOUS ', fmtdat='(2E16.6)'
 volume=1.0
 tramp=1.0
 $END
   5.888365e+07  -1.549402e+06
   3.618921e+07   3.597164e+07
  -7.112966e+06   4.018892e+07
  -2.861808e+07   1.561016e+07
  -1.722698e+07  -7.364216e+06
   3.439601e+06  -9.811542e+06
   1.023502e+07   1.332091e+06
   2.874179e+06   1.018087e+07
  -6.413459e+06   9.618042e+06
  -9.990791e+06   2.096568e+06
  -7.368571e+06  -6.234666e+06
  -1.069152e+06  -8.801649e+06
   4.020202e+06  -2.993303e+06
   2.806793e+06   5.387130e+06
  -3.785165e+06   6.686535e+06
  -8.184582e+06  -1.309374e+06
  -4.786639e+06  -1.050034e+07
   3.695647e+06  -1.231524e+07
   1.036251e+07  -6.409186e+06
   1.134346e+07   1.779523e+06
   7.234976e+06   7.614369e+06
   1.052074e+06   9.147657e+06
  -3.009623e+06   6.558460e+06
  -2.181870e+06   2.798639e+06
   9.960017e+05   1.917479e+06
   4.695755e+05   4.066841e+06
  -5.204828e+06   4.686787e+06
  -9.786839e+06   9.273338e+05
  -7.410446e+06  -3.954952e+06
  -5.873827e+05  -5.222719e+06
   3.568909e+06  -2.885592e+06
   2.546406e+06  -3.047478e+05
  -3.491664e+05   8.083565e+05
  -2.035771e+06   6.133074e+05
  -2.230631e+06  -1.175064e+06
  -9.754013e+05  -3.860167e+06
   1.663932e+06  -4.090129e+06
   3.472431e+06  -1.330150e+05
   2.047652e+06   3.726047e+06
  -7.345565e+05   2.213376e+06
  -5.262778e+05  -2.332352e+06
   2.417255e+06  -2.355826e+06
   2.571260e+06   3.288106e+06
  -2.500625e+06   6.449248e+06
  -7.373866e+06   1.199284e+06
  -5.561430e+06  -7.155111e+06
   1.831204e+06  -8.981712e+06
   7.671772e+06  -2.715250e+06
   7.214167e+06   4.428346e+06
   1.942681e+06   6.131092e+06
  -3.516484e+06   2.782896e+06
  -5.343725e+06  -1.522356e+06
  -2.459324e+06  -3.553785e+06
   2.508065e+06  -2.294944e+06
   4.701454e+06   8.947179e+05
   2.045530e+06   2.803540e+06
  -1.760530e+06   1.458274e+06
  -1.766422e+06  -1.027817e+06
   1.440509e+06  -9.121764e+05
   2.602068e+06   1.915998e+06
  -7.077027e+05   3.706595e+06
  -4.912727e+06   2.065508e+06
  -5.561490e+06  -1.387499e+06
  -2.462053e+06  -4.122904e+06
   1.684243e+06  -5.465532e+06
   4.911613e+06  -5.114461e+06
   6.266047e+06  -2.020380e+06
   4.846598e+06   3.053669e+06
   1.178801e+06   6.279751e+06
  -1.839279e+06   4.894965e+06
  -1.839999e+06   1.177526e+06
  -1.095743e+05  -3.974140e+05
   2.405741e+05   9.436087e+05
  -1.417815e+06   1.941881e+06
  -2.794190e+06   4.705967e+05
  -2.149703e+06  -1.761545e+06
  -1.815706e+05  -2.099672e+06
   1.463252e+06  -2.735975e+05
   1.711741e+06   1.975057e+06
   1.178017e+05   2.932252e+06
  -2.726293e+06   1.804565e+06
  -4.619523e+06  -1.015928e+06
  -3.471124e+06  -3.748724e+06
  -1.133385e+05  -4.402061e+06
   2.300347e+06  -2.914233e+06
   2.324134e+06  -1.225944e+06
   1.885631e+06  -6.978983e+05
   2.972197e+06  -5.157491e+05
   4.411106e+06   6.904457e+05
   3.577464e+06   2.718587e+06
   2.256242e+05   4.151046e+06
  -3.112723e+06   4.006364e+06
  -4.114310e+06   2.279208e+06
  -2.695688e+06  -2.941664e+05
  -4.009422e+05  -2.220163e+06
   1.006422e+06  -2.003501e+06
   5.752304e+05  -1.368453e+03
  -1.042615e+06   1.357828e+06
  -1.927405e+06   4.598076e+05
  -9.916420e+05  -1.200681e+06
   4.722051e+05  -1.133733e+06
   4.026626e+05   3.907919e+05
  -1.122362e+06   6.695125e+05
  -1.909836e+06  -1.394857e+06
  -6.135106e+05  -3.600047e+06
   1.694774e+06  -3.417726e+06
   3.204977e+06  -1.033146e+06
   3.289635e+06   1.480783e+06
   2.248398e+06   2.709311e+06
   4.835097e+05   2.565121e+06
  -1.193880e+06   1.495510e+06
  -1.568528e+06   2.824797e+05
  -4.974718e+05  -3.435601e+04
   3.774289e+05   7.517935e+05
  -4.017768e+05   1.381965e+06
  -1.945515e+06   6.327589e+05
  -2.091384e+06  -8.797162e+05
  -4.060687e+05  -1.447585e+06
   1.179679e+06  -5.937533e+05
   8.804446e+05   4.447981e+05
  -8.673583e+05   4.984763e+05
  -2.169754e+06  -3.340240e+05
  -1.716943e+06  -1.334443e+06
   2.464521e+05  -1.946040e+06
   2.285148e+06  -1.680295e+06
   2.783836e+06  -3.256388e+05
   1.261608e+06   1.266709e+06
  -9.049802e+05   1.566020e+06
  -1.603444e+06   2.360809e+05
  -2.469553e+05  -1.103807e+06
   1.521610e+06  -7.860629e+05
   1.750789e+06   7.679128e+05
   3.461040e+05   1.667074e+06
  -1.109610e+06   9.797555e+05
  -1.269289e+06  -3.277400e+05
  -2.367297e+05  -7.991511e+05
   8.230301e+05  -6.816556e+04
   7.773484e+05   1.052431e+06
  -5.396570e+05   1.458090e+06
  -2.012175e+06   6.070650e+05
  -2.087417e+06  -1.007365e+06
  -4.360836e+05  -2.093413e+06
   1.431040e+06  -1.693803e+06
   1.746132e+06  -2.375386e+05
   5.132505e+05   8.753002e+05
  -6.560770e+05   8.178971e+05
  -6.193426e+05   9.247527e+04
   1.292664e+05  -3.332687e+05
   4.653778e+05  -1.847283e+05
   6.889666e+04   5.623850e+04
  -4.846840e+05  -1.151836e+05
  -5.215415e+05  -7.072642e+05
   2.110680e+05  -1.210663e+06
   1.386943e+06  -9.265161e+05
   2.111472e+06   3.774553e+05
   1.525020e+06   1.931504e+06
  -1.635601e+05   2.440356e+06
  -1.594266e+06   1.434702e+06
  -1.681320e+06  -1.113754e+05
  -8.436313e+05  -8.625802e+05
  -3.191155e+05  -5.911448e+05
  -5.155594e+05  -1.721850e+05
  -6.772943e+05  -3.142028e+05
  -1.148446e+05  -7.931437e+05
   8.767682e+05  -9.208799e+05
   1.446174e+06  -3.374595e+05
   1.044568e+06   6.995013e+05
  -2.405782e+05   1.445140e+06
  -1.709622e+06   1.095150e+06
  -2.263856e+06  -4.448944e+05
  -1.170675e+06  -2.099572e+06
   9.953891e+05  -2.411493e+06
   2.564468e+06  -1.075775e+06
   2.371291e+06   6.460730e+05
   9.480666e+05   1.332111e+06
  -2.130429e+05   9.202695e+05
  -3.550784e+05   4.861886e+05
  -1.156766e+04   7.637321e+05
  -4.829370e+04   1.350208e+06
  -6.539986e+05   1.338470e+06
  -1.312744e+06   3.597488e+05
  -1.381665e+06  -1.054191e+06
  -6.102585e+05  -1.894744e+06
   5.882867e+05  -1.463491e+06
   1.293017e+06  -2.099114e+04
   8.399874e+05   1.290632e+06
  -3.861977e+05   1.419892e+06
  -1.192481e+06   4.071702e+05
  -8.387456e+05  -7.294157e+05
   1.298586e+05  -1.113539e+06
   5.626653e+05  -7.967115e+05
   9.293406e+04  -4.058246e+05
  -4.520423e+05  -3.190127e+05
  -7.430444e+04  -3.810672e+05
   1.167371e+06  -2.336912e+05
   2.107760e+06   2.943612e+05
   1.655631e+06   1.021209e+06
  -2.877369e+04   1.467520e+06
  -1.604811e+06   1.197160e+06
  -1.851627e+06   3.048211e+05
  -8.438766e+05  -5.129744e+05
   2.627754e+05  -5.962800e+05
   5.247145e+05  -3.230235e+04
   5.236635e+04   4.442706e+05
  -4.286690e+05   2.776206e+05
  -4.985215e+05  -3.318105e+05
  -3.004428e+05  -7.140135e+05
  -1.342653e+05  -4.781088e+05
  -1.336268e+05   8.007725e+04
  -2.540161e+05   2.777041e+05
  -2.778887e+05  -2.306089e+05
   1.045088e+05  -9.878908e+05
   8.805403e+05  -1.102650e+06
   1.400475e+06  -2.311993e+05
   9.156881e+05   8.977086e+05
  -3.879715e+05   1.185992e+06
  -1.277713e+06   4.014480e+05
  -7.591701e+05  -5.488534e+05
   6.992634e+05  -6.655342e+05
   1.590508e+06   7.453484e+04
   9.951850e+05   8.544025e+05
  -4.939050e+05   9.842710e+05
  -1.491379e+06   4.757507e+05
  -1.219739e+06  -1.857400e+05
  -1.315610e+05  -5.077985e+05
   6.519932e+05  -2.724335e+05
   4.054629e+05   2.962524e+05
  -5.598934e+05   5.581036e+05
  -1.197867e+06  -2.333763e+04
  -7.411713e+05  -1.157996e+06
   5.079227e+05  -1.746675e+06
   1.451619e+06  -9.602778e+05
   1.289998e+06   7.127492e+05
   2.615601e+05   1.790761e+06
  -7.081928e+05   1.305804e+06
  -9.302832e+05  -1.743976e+05
  -4.435267e+05  -1.191443e+06
   2.253205e+05  -9.643554e+05
   5.730213e+05  -8.704884e+04
   4.565352e+05   3.617541e+05
   1.425173e+05   1.256731e+05
   5.636863e+04  -8.938686e+04
   3.279441e+05   3.068184e+05
   5.552942e+05   9.657277e+05
   1.909482e+05   1.074532e+06
  -7.449904e+05   4.125341e+05
  -1.492756e+06  -4.240806e+05
  -1.281867e+06  -8.053338e+05
  -2.028716e+05  -7.045111e+05
   8.186106e+05  -4.509048e+05
   9.749349e+05  -2.021120e+05
   3.888786e+05   5.934253e+04
  -1.283498e+05   2.348022e+05
  -6.381124e+04   1.909035e+05
   2.329940e+05   6.694206e+04
   6.993114e+04   1.300359e+05
  -6.186984e+05   2.744924e+05
  -1.060443e+06   3.661430e+04
  -5.165996e+05  -6.887554e+05
   7.701739e+05  -1.240782e+06
   1.712880e+06  -8.528027e+05
   1.487002e+06   3.612121e+05
   3.445878e+05   1.401390e+06
  -7.335859e+05   1.428993e+06
  -1.039498e+06   6.087926e+05
  -6.640291e+05  -1.877358e+05
  -1.655947e+05  -3.570994e+05
   3.398613e+04  -9.296114e+04
  -9.430464e+04  -6.998684e+03
  -2.982244e+05  -3.721209e+05
  -2.634353e+05  -8.066386e+05
   1.465036e+05  -7.009309e+05
   6.839457e+05   6.776091e+04
   8.077433e+05   9.033216e+05
   2.035775e+05   1.040436e+06
  -7.247717e+05   3.200675e+05
  -1.086944e+06  -6.476390e+05
  -4.233098e+05  -1.087233e+06
   6.848590e+05  -7.434211e+05
   1.152082e+06   1.723212e+04
   5.851664e+05   6.238975e+05
  -2.642493e+05   7.334262e+05
  -4.012226e+05   3.959794e+05
   2.128696e+05  -1.505964e+04
   6.440205e+05  -7.246736e+04
   1.737106e+05   3.119856e+05
  -8.054798e+05   7.136648e+05
  -1.281373e+06   5.685315e+05
  -8.144893e+05  -1.771209e+05
   5.773140e+04  -8.964797e+05
   5.548769e+05  -9.028522e+05
   4.605147e+05  -2.090853e+05
   9.460088e+04   4.654000e+05
  -2.154625e+05   4.703913e+05
  -3.591652e+05  -9.917475e+04
  -2.867681e+05  -5.704510e+05
   2.506638e+04  -4.651691e+05
   3.979806e+05   1.277224e+04
   5.046982e+05   2.869485e+05
   2.495417e+05   1.087240e+05
  -5.912981e+04  -1.772421e+05
  -8.661667e+04  -9.693489e+04
   7.607742e+04   3.331176e+05
   4.374834e+04   5.954657e+05
  -2.892238e+05   2.990244e+05
  -5.261299e+05  -3.196065e+05
  -2.503675e+05  -6.404825e+05
   3.795595e+05  -3.534778e+05
   7.071345e+05   2.278468e+05
   3.006360e+05   5.526940e+05
  -5.066287e+05   3.974984e+05
  -9.159117e+05  -1.949126e+04
  -5.117403e+05  -3.584505e+05
   2.779717e+05  -4.449283e+05
   6.442769e+05  -2.933103e+05
   2.807426e+05  -3.624610e+04
  -3.056607e+05   1.141335e+05
  -3.980898e+05  -4.465166e+03
   1.233973e+05  -2.767408e+05
   6.833271e+05  -3.094038e+05
