
 $NMID
 id='ANONYMOUS ', fmtdat='(2E16.6)'
 volume=1.0
 tramp=1.0
 $END
  -1.972135e+07  -2.653205e+05
  -1.331087e+07  -8.979149e+06
  -2.529233e+05  -1.238916e+07
   8.481113e+06  -8.738047e+06
   7.460136e+06  -1.281750e+06
   6.811789e+05   3.634387e+06
  -4.156922e+06   2.127450e+06
  -3.362745e+06  -3.185142e+06
   7.917067e+05  -5.852228e+06
   3.819570e+06  -2.710806e+06
   3.329759e+06   2.686126e+06
   3.759970e+05   4.385019e+06
  -2.033344e+06   8.279235e+05
  -1.608162e+06  -3.759545e+06
   1.189289e+06  -4.382869e+06
   3.450380e+06  -4.970598e+05
   2.603531e+06   4.000951e+06
  -8.795311e+05   5.097525e+06
  -3.875250e+06   2.364988e+06
  -3.863373e+06  -1.279574e+06
  -1.477392e+06  -2.838048e+06
   4.157491e+05  -2.029213e+06
  -6.153176e+04  -1.008631e+06
  -1.811926e+06  -1.612386e+06
  -2.023149e+06  -3.251184e+06
   6.853201e+05  -3.738855e+06
   4.452067e+06  -1.920671e+06
   5.740833e+06   1.007156e+06
   3.002905e+06   2.785942e+06
  -1.366280e+06   2.247357e+06
  -3.254209e+06   1.217801e+05
  -1.143998e+06  -1.754566e+06
   2.334323e+06  -1.788970e+06
   3.476750e+06   2.115994e+05
   1.541283e+06   2.638657e+06
  -9.532551e+05   3.205274e+06
  -1.541528e+06   1.238482e+06
  -3.747489e+05  -1.228846e+06
   6.639302e+05  -1.451427e+06
   3.964898e+05   7.770917e+05
  -7.456277e+05   2.673873e+06
  -1.639094e+06   1.767342e+06
  -1.489778e+06  -1.020326e+06
  -2.223544e+05  -2.445150e+06
   1.328955e+06  -8.461045e+05
   1.660034e+06   1.958440e+06
  -1.038448e+05   2.886174e+06
  -2.809731e+06   9.762837e+05
  -3.861601e+06  -1.895067e+06
  -1.849530e+06  -3.213140e+06
   1.656849e+06  -2.159206e+06
   3.522574e+06   5.194476e+04
   2.262547e+06   1.549393e+06
  -5.470863e+05   1.376921e+06
  -2.104832e+06   9.083284e+04
  -1.261455e+06  -9.018157e+05
   5.994406e+05  -6.740324e+05
   1.297806e+06   3.937754e+05
   1.912595e+05   1.086205e+06
  -1.259320e+06   6.351233e+05
  -1.178159e+06  -5.148774e+05
   5.650545e+05  -1.166117e+06
   2.067303e+06  -4.965184e+05
   1.416760e+06   1.177905e+06
  -1.145300e+06   2.561870e+06
  -3.407050e+06   2.347291e+06
  -3.529308e+06   3.513538e+05
  -1.832723e+06  -2.145223e+06
  -9.325562e+04  -3.424590e+06
   5.370444e+05  -2.927432e+06
   4.690267e+05  -1.694543e+06
   7.183772e+05  -1.027707e+06
   1.562774e+06  -9.377456e+05
   2.326960e+06  -3.562612e+05
   2.176233e+06   1.144868e+06
   9.060246e+05   2.428746e+06
  -8.389653e+05   2.000383e+06
  -1.912853e+06  -1.018935e+05
  -1.449869e+06  -2.105474e+06
   3.271093e+05  -2.276339e+06
   2.068592e+06  -6.096997e+05
   2.391792e+06   1.359151e+06
   1.188466e+06   2.184133e+06
  -3.057152e+05   1.735023e+06
  -8.871200e+05   9.452065e+05
  -6.857875e+05   6.541366e+05
  -8.521664e+05   8.121030e+05
  -1.962086e+06   6.870191e+05
  -3.051497e+06  -2.908446e+05
  -2.545290e+06  -1.866937e+06
  -1.396015e+05  -3.043519e+06
   2.530321e+06  -2.849566e+06
   3.354031e+06  -1.210247e+06
   1.854993e+06   8.225967e+05
  -3.496975e+05   1.816309e+06
  -1.239286e+06   1.187365e+06
  -3.627936e+05  -2.092282e+05
   9.763744e+05  -8.754384e+05
   1.300259e+06  -2.154029e+05
   4.334224e+05   8.181356e+05
  -5.652147e+05   8.417870e+05
  -6.263230e+05  -2.445084e+05
   3.275416e+05  -1.006960e+06
   1.387684e+06  -1.398716e+05
   1.442719e+06   1.859522e+06
   9.391504e+04   3.045270e+06
  -1.902589e+06   2.077938e+06
  -3.084890e+06  -3.487654e+05
  -2.478303e+06  -2.258265e+06
  -5.552949e+05  -2.369300e+06
   1.103813e+06  -1.149146e+06
   1.302972e+06  -4.439133e+04
   3.764557e+05   4.107258e+04
  -2.799360e+05  -5.614611e+05
   1.989953e+05  -8.876454e+05
   1.207373e+06  -4.156348e+05
   1.425704e+06   4.610319e+05
   4.039947e+05   9.049177e+05
  -8.302339e+05   5.005318e+05
  -8.578954e+05  -3.258138e+05
   5.178686e+05  -7.004427e+05
   1.924597e+06  -1.226948e+05
   1.796423e+06   1.039492e+06
   3.812038e+04   1.824125e+06
  -1.822404e+06   1.504237e+06
  -2.172736e+06   2.729588e+05
  -8.991800e+05  -8.581243e+05
   6.198212e+05  -9.589628e+05
   9.741102e+05  -9.496186e+04
   3.514627e+04   7.048640e+05
  -1.111348e+06   5.109954e+05
  -1.325499e+06  -4.990164e+05
  -4.445798e+05  -1.239505e+06
   6.770682e+05  -9.406118e+05
   1.020670e+06   2.370024e+03
   3.649958e+05   5.194919e+05
  -4.899876e+05   7.923787e+04
  -5.040700e+05  -7.701116e+05
   4.977393e+05  -1.041837e+06
   1.548444e+06  -3.277629e+05
   1.503778e+06   8.480852e+05
   2.779492e+05   1.548821e+06
  -1.030094e+06   1.242186e+06
  -1.286498e+06   2.307700e+05
  -4.619624e+05  -6.228969e+05
   4.615723e+05  -6.644246e+05
   5.962794e+05  -4.354885e+04
   3.305649e+01   4.773411e+05
  -5.415634e+05   3.632946e+05
  -4.196733e+05  -1.113604e+05
   1.792013e+05  -2.259672e+05
   4.968343e+05   2.873927e+05
   3.616497e+03   8.699343e+05
  -9.994198e+05   7.268494e+05
  -1.589180e+06  -2.930589e+05
  -1.100303e+06  -1.480798e+06
   1.839832e+05  -1.901878e+06
   1.278977e+06  -1.228947e+06
   1.455357e+06  -9.581889e+03
   8.841456e+05   8.400218e+05
   3.075470e+05   8.522557e+05
   1.809795e+05   3.828073e+05
   2.643464e+05   1.593193e+05
   3.769159e+04   4.443761e+05
  -6.075792e+05   7.311171e+05
  -1.161989e+06   3.625075e+05
  -9.678406e+05  -6.037243e+05
   9.549924e+04  -1.310185e+06
   1.354996e+06  -9.530694e+05
   1.808130e+06   3.461278e+05
   9.746658e+05   1.589899e+06
  -6.198756e+05   1.809712e+06
  -1.839436e+06   9.081959e+05
  -1.899234e+06  -3.366902e+05
  -9.876382e+05  -1.033212e+06
   2.865513e+04  -9.495035e+05
   4.607331e+05  -5.903027e+05
   3.455803e+05  -5.501370e+05
   2.232219e+05  -8.308456e+05
   4.745117e+05  -8.592820e+05
   9.097156e+05  -1.957754e+05
   9.818625e+05   8.608340e+05
   3.921822e+05   1.477972e+06
  -5.169612e+05   1.105119e+06
  -1.012230e+06   2.532686e+04
  -6.703655e+05  -9.138935e+05
   1.745070e+05  -1.064062e+06
   7.460444e+05  -4.701645e+05
   6.074611e+05   2.951109e+05
   7.234975e+04   6.941103e+05
  -2.030352e+05   6.346604e+05
   1.803065e+04   4.103611e+05
   2.904016e+05   3.098259e+05
   1.624179e+04   3.158563e+05
  -8.131913e+05   1.841184e+05
  -1.485203e+06  -2.237789e+05
  -1.240972e+06  -7.367867e+05
  -9.594316e+04  -1.008701e+06
   1.076709e+06  -8.271285e+05
   1.361349e+06  -3.005377e+05
   6.937360e+05   2.099140e+05
  -1.328705e+05   3.554028e+05
  -3.489594e+05   9.643912e+04
   3.228214e+04  -2.173697e+05
   4.016582e+05  -1.620780e+05
   3.472430e+05   2.723838e+05
   5.567140e+04   5.964290e+05
  -5.467404e+04   3.776566e+05
   1.242256e+05  -1.626552e+05
   3.228771e+05  -3.342294e+05
   2.366830e+05   1.679011e+05
  -1.849418e+05   8.055040e+05
  -6.989446e+05   7.912189e+05
  -8.990933e+05   3.807294e+04
  -4.954958e+05  -7.179510e+05
   3.306445e+05  -7.542994e+05
   8.853560e+05  -1.228597e+05
   5.403527e+05   4.939450e+05
  -5.173239e+05   5.233897e+05
  -1.292172e+06  -1.680442e+04
  -9.494626e+05  -6.491640e+05
   2.589477e+05  -8.769543e+05
   1.210374e+06  -5.434856e+05
   1.079790e+06   6.546955e+04
   1.671619e+05   4.347155e+05
  -4.943628e+05   2.670702e+05
  -2.550896e+05  -1.905769e+05
   5.209386e+05  -3.348488e+05
   9.051874e+05   1.746798e+05
   3.880854e+05   9.762861e+05
  -6.214327e+05   1.266222e+06
  -1.236192e+06   5.797540e+05
  -9.636067e+05  -6.617703e+05
  -1.122096e+05  -1.439347e+06
   6.063459e+05  -1.075459e+06
   7.525940e+05   7.268137e+04
   4.077661e+05   9.367736e+05
  -8.166207e+04   8.253884e+05
  -4.137070e+05   1.052818e+05
  -4.398034e+05  -3.252201e+05
  -2.125192e+05  -1.415183e+05
  -7.441190e+03   1.025777e+05
  -9.441667e+04  -1.732291e+05
  -3.420829e+05  -7.423612e+05
  -2.386221e+05  -8.768672e+05
   4.508010e+05  -3.245593e+05
   1.174602e+06   3.929530e+05
   1.096312e+06   6.829428e+05
   1.482584e+05   5.335646e+05
  -7.648716e+05   3.044088e+05
  -8.126951e+05   1.598788e+05
  -2.136663e+05   5.874257e+03
   1.515782e+05  -1.652267e+05
  -6.662454e+04  -2.147189e+05
  -3.112897e+05  -1.405980e+05
   4.516950e+03  -1.109583e+05
   6.378451e+05  -1.271265e+05
   8.078846e+05   6.439896e+04
   1.696344e+05   5.309214e+05
  -7.869079e+05   8.381781e+05
  -1.279133e+06   4.779470e+05
  -9.655521e+05  -4.284079e+05
  -1.391243e+05  -1.127579e+06
   6.072829e+05  -1.026848e+06
   8.327041e+05  -3.254058e+05
   5.215829e+05   2.572584e+05
   5.132783e+04   2.813873e+05
  -1.440143e+05  -1.349171e+04
   3.322557e+04  -8.193303e+04
   2.754861e+05   2.666787e+05
   2.147521e+05   6.413106e+05
  -1.782985e+05   5.056684e+05
  -5.487897e+05  -1.817499e+05
  -4.921493e+05  -8.307759e+05
   4.654930e+04  -7.975495e+05
   6.535131e+05  -7.731958e+04
   7.569286e+05   6.805005e+05
   1.793557e+05   8.566174e+05
  -5.914036e+05   4.392395e+05
  -8.261768e+05  -1.162415e+05
  -3.467530e+05  -4.275696e+05
   2.345293e+05  -4.364146e+05
   2.283266e+05  -2.596319e+05
  -2.788321e+05  -5.035988e+04
  -5.326265e+05  -2.276470e+03
  -7.683872e+04  -2.278369e+05
   6.664787e+05  -5.211460e+05
   9.304204e+05  -4.558221e+05
   5.085778e+05   8.969587e+04
  -1.067242e+05   6.439808e+05
  -3.804268e+05   6.224427e+05
  -2.503164e+05   5.512188e+04
   1.845296e+04  -4.111350e+05
   2.148930e+05  -2.870897e+05
   2.741054e+05   2.022250e+05
   1.699112e+05   4.624808e+05
  -7.245125e+04   2.623412e+05
  -3.006493e+05  -8.023674e+04
  -3.391141e+05  -1.794065e+05
  -1.878643e+05  -3.457379e+04
  -1.451627e+04   5.708775e+04
   6.618974e+04  -8.855748e+04
   1.096437e+05  -3.235405e+05
   2.046837e+05  -3.402464e+05
   3.007477e+05  -1.957861e+04
   2.423558e+05   3.995737e+05
  -3.396928e+04   5.202169e+05
  -3.675364e+05   1.944760e+05
  -4.588006e+05  -2.891801e+05
  -1.405400e+05  -4.870361e+05
   3.854546e+05  -2.598806e+05
   6.422831e+05   1.199821e+05
   3.404566e+05   3.120676e+05
  -2.409430e+05   2.465814e+05
  -4.848585e+05   8.835726e+04
  -1.360766e+05  -4.014311e+03
   3.558677e+05   2.194826e+04
   3.478212e+05   1.497899e+05
  -2.115395e+05   2.720415e+05
  -7.041696e+05   1.824561e+05
