
 $NMID
 id='ANONYMOUS ', fmtdat='(2E16.6)'
 volume=1.0
 tramp=1.0
 $END
   4.495485e+07  -4.327374e+05
   2.812670e+07   2.617799e+07
  -4.305347e+06   3.019607e+07
  -2.150791e+07   1.356089e+07
  -1.409064e+07  -3.887769e+06
   1.771216e+06  -7.707388e+06
   8.262345e+06  -1.962286e+05
   3.353389e+06   7.758971e+06
  -4.358729e+06   8.680995e+06
  -7.948510e+06   2.540053e+06
  -6.004576e+06  -5.136167e+06
  -7.244248e+05  -7.453903e+06
   3.428577e+06  -2.149412e+06
   2.382254e+06   5.142191e+06
  -2.963467e+06   6.169971e+06
  -6.632677e+06  -5.996621e+05
  -4.082861e+06  -8.325951e+06
   2.746297e+06  -9.887461e+06
   8.163250e+06  -4.930852e+06
   8.662088e+06   1.773488e+06
   4.992502e+06   5.971803e+06
   3.952500e+05   6.443428e+06
  -1.756736e+06   4.425414e+06
  -4.188450e+05   2.550326e+06
   1.517329e+06   2.846437e+06
  -1.712523e+05   4.283043e+06
  -5.385272e+06   3.635119e+06
  -8.681345e+06  -9.975533e+04
  -5.849253e+06  -3.821437e+06
   3.909159e+05  -4.190840e+06
   3.756047e+06  -1.684973e+06
   2.031263e+06   7.318301e+05
  -1.443824e+06   1.308886e+06
  -2.957868e+06   1.521951e+05
  -2.023492e+06  -2.071660e+06
  -1.157334e+04  -3.877336e+06
   1.787585e+06  -3.014346e+06
   2.210892e+06   5.362962e+05
   8.517750e+05   2.915341e+06
  -5.997946e+05   9.130497e+05
   1.414136e+05  -2.710887e+06
   2.312229e+06  -2.252065e+06
   2.264154e+06   2.506386e+06
  -1.422589e+06   5.089872e+06
  -5.077059e+06   1.134189e+06
  -4.116412e+06  -5.270352e+06
   1.191271e+06  -6.804512e+06
   5.999706e+06  -2.053491e+06
   6.200569e+06   3.682307e+06
   2.014509e+06   5.320714e+06
  -2.985512e+06   2.708416e+06
  -4.963251e+06  -1.021179e+06
  -2.572065e+06  -2.957712e+06
   1.801505e+06  -2.053715e+06
   3.865722e+06   5.323461e+05
   1.837179e+06   2.153264e+06
  -1.364695e+06   1.195875e+06
  -1.697815e+06  -8.441668e+05
   7.913574e+05  -1.104570e+06
   2.214008e+06   8.466162e+05
   1.762867e+05   2.506221e+06
  -3.234270e+06   1.823696e+06
  -4.374585e+06  -6.136342e+05
  -2.161953e+06  -3.080541e+06
   1.636802e+06  -4.514927e+06
   4.693500e+06  -4.139375e+06
   5.510275e+06  -1.293799e+06
   3.751926e+06   2.935548e+06
   6.663414e+05   5.460882e+06
  -1.436594e+06   4.380945e+06
  -1.380402e+06   1.550663e+06
  -4.640693e+05   2.607193e+05
  -6.737745e+05   9.824224e+05
  -2.021886e+06   1.264266e+06
  -2.721003e+06  -3.576791e+05
  -1.663721e+06  -2.294489e+06
   3.725636e+05  -2.230328e+06
   1.832116e+06  -5.437011e+04
   1.690154e+06   2.278283e+06
  -1.564020e+05   2.882177e+06
  -2.677399e+06   1.325757e+06
  -3.915007e+06  -1.346895e+06
  -2.610807e+06  -3.353950e+06
   1.219704e+05  -3.482913e+06
   1.831948e+06  -2.192681e+06
   1.743446e+06  -1.049015e+06
   1.575171e+06  -8.071074e+05
   2.779286e+06  -6.040927e+05
   4.159201e+06   6.362063e+05
   3.365560e+06   2.626214e+06
   1.247163e+05   4.009996e+06
  -3.204069e+06   3.754292e+06
  -4.170068e+06   1.876243e+06
  -2.514154e+06  -6.388547e+05
  -1.219287e+04  -2.224309e+06
   1.253995e+06  -1.754769e+06
   5.179955e+05   1.143927e+05
  -1.135881e+06   1.222352e+06
  -1.807792e+06   3.483705e+05
  -7.871238e+05  -1.136700e+06
   5.888862e+05  -1.082561e+06
   5.496717e+05   3.752341e+05
  -8.633516e+05   9.019490e+05
  -1.849137e+06  -7.951627e+05
  -1.050902e+06  -3.125285e+06
   1.043813e+06  -3.583231e+06
   2.931113e+06  -1.618044e+06
   3.511325e+06   1.142103e+06
   2.528366e+06   2.823114e+06
   5.025229e+05   2.738787e+06
  -1.298229e+06   1.439473e+06
  -1.591017e+06   1.550738e+05
  -4.847609e+05  -5.108939e+04
   3.509392e+05   7.382955e+05
  -3.621677e+05   1.265741e+06
  -1.777657e+06   5.558184e+05
  -1.952971e+06  -7.930968e+05
  -4.224394e+05  -1.329430e+06
   1.135039e+06  -5.840385e+05
   9.485282e+05   4.537467e+05
  -7.986462e+05   6.380123e+05
  -2.269183e+06  -1.895099e+05
  -1.901344e+06  -1.370089e+06
   1.780887e+05  -2.081838e+06
   2.321400e+06  -1.710462e+06
   2.760715e+06  -2.734834e+05
   1.182306e+06   1.210247e+06
  -8.753096e+05   1.399555e+06
  -1.447446e+06   1.639582e+05
  -1.464915e+05  -1.012421e+06
   1.479533e+06  -6.962424e+05
   1.698146e+06   7.441142e+05
   3.975571e+05   1.630680e+06
  -1.028389e+06   1.040869e+06
  -1.272065e+06  -2.238357e+05
  -3.116620e+05  -7.488025e+05
   7.397311e+05  -6.830193e+04
   6.968986e+05   1.028214e+06
  -5.998326e+05   1.380097e+06
  -1.987135e+06   4.854859e+05
  -1.978270e+06  -1.067042e+06
  -3.589155e+05  -2.034575e+06
   1.404160e+06  -1.607900e+06
   1.694698e+06  -2.239070e+05
   5.220746e+05   8.479660e+05
  -6.415357e+05   8.098848e+05
  -6.705396e+05   5.995914e+04
   9.137805e+04  -4.403773e+05
   5.620032e+05  -2.778196e+05
   2.498581e+05   1.036645e+05
  -3.870496e+05   4.262790e+04
  -5.556536e+05  -5.795521e+05
   1.461683e+05  -1.160971e+06
   1.349271e+06  -8.923990e+05
   2.051059e+06   4.145109e+05
   1.423682e+06   1.925708e+06
  -2.409443e+05   2.406971e+06
  -1.627869e+06   1.439756e+06
  -1.736095e+06  -1.011667e+05
  -9.248407e+05  -9.623942e+05
  -3.197575e+05  -7.906190e+05
  -3.862036e+05  -2.990197e+05
  -5.328843e+05  -2.725204e+05
  -7.696845e+04  -6.969037e+05
   8.478254e+05  -9.016500e+05
   1.457651e+06  -3.530035e+05
   1.094075e+06   7.477573e+05
  -2.273094e+05   1.519733e+06
  -1.727554e+06   1.096876e+06
  -2.250921e+06  -4.879202e+05
  -1.146667e+06  -2.078564e+06
   9.530862e+05  -2.333241e+06
   2.479374e+06  -1.050694e+06
   2.362043e+06   6.054488e+05
   1.035244e+06   1.342393e+06
  -1.681792e+05   1.027243e+06
  -4.611761e+05   5.738301e+05
  -1.958091e+05   7.205990e+05
  -1.620895e+05   1.215525e+06
  -6.503327e+05   1.217760e+06
  -1.245018e+06   2.893927e+05
  -1.294585e+06  -1.087455e+06
  -5.216296e+05  -1.883535e+06
   6.403585e+05  -1.414540e+06
   1.281217e+06   1.840859e+03
   8.145424e+05   1.247424e+06
  -3.459964e+05   1.378354e+06
  -1.099871e+06   4.610684e+05
  -7.998902e+05  -5.988739e+05
   5.798915e+04  -1.016217e+06
   4.543642e+05  -7.907996e+05
   5.783947e+04  -4.497635e+05
  -4.069553e+05  -3.534670e+05
  -4.395653e+04  -3.863409e+05
   1.110103e+06  -2.111314e+05
   1.998208e+06   3.265068e+05
   1.592539e+06   1.012410e+06
   5.339849e+03   1.386004e+06
  -1.519892e+06   1.102512e+06
  -1.797566e+06   2.973328e+05
  -8.481378e+05  -4.300351e+05
   2.321094e+05  -5.312385e+05
   4.914959e+05  -5.907828e+04
   1.011253e+04   3.726605e+05
  -4.616476e+05   2.358408e+05
  -4.645668e+05  -3.438238e+05
  -1.907591e+05  -7.260885e+05
  -4.220184e+04  -4.725058e+05
  -1.472584e+05   1.263655e+05
  -3.239876e+05   3.245561e+05
  -2.806540e+05  -2.284274e+05
   1.771401e+05  -9.889466e+05
   8.974731e+05  -1.037041e+06
   1.287404e+06  -1.343347e+05
   7.758690e+05   9.082776e+05
  -4.166381e+05   1.077594e+06
  -1.209172e+06   2.781936e+05
  -7.109057e+05  -5.899418e+05
   6.912100e+05  -6.466738e+05
   1.598599e+06   8.761202e+04
   1.054360e+06   8.626746e+05
  -4.487521e+05   1.022443e+06
  -1.514236e+06   5.248869e+05
  -1.269793e+06  -1.733016e+05
  -1.507954e+05  -5.265659e+05
   6.451096e+05  -2.838279e+05
   3.652770e+05   2.789203e+05
  -6.043972e+05   4.866799e+05
  -1.164018e+06  -1.260043e+05
  -6.104198e+05  -1.190909e+06
   6.489818e+05  -1.660387e+06
   1.502030e+06  -8.304002e+05
   1.235648e+06   7.835372e+05
   1.736407e+05   1.794516e+06
  -7.565841e+05   1.303395e+06
  -9.320580e+05  -1.607326e+05
  -4.447601e+05  -1.193261e+06
   1.979050e+05  -9.890986e+05
   5.529905e+05  -9.417159e+04
   4.847178e+05   3.918248e+05
   1.879727e+05   1.526787e+05
   4.028779e+04  -1.050165e+05
   2.387243e+05   2.713829e+05
   4.834140e+05   9.579036e+05
   2.103627e+05   1.089105e+06
  -6.796121e+05   3.982645e+05
  -1.470307e+06  -4.821151e+05
  -1.297612e+06  -8.539241e+05
  -1.814936e+05  -6.924742e+05
   8.809717e+05  -4.006851e+05
   9.946968e+05  -1.789368e+05
   3.398473e+05   3.737334e+04
  -1.571556e+05   2.186822e+05
  -1.055691e+04   2.245983e+05
   2.914025e+05   1.200744e+05
   3.633816e+04   1.328822e+05
  -6.929014e+05   2.094028e+05
  -1.036508e+06  -3.211144e+04
  -3.789988e+05  -6.806822e+05
   8.769094e+05  -1.139142e+06
   1.676389e+06  -7.151198e+05
   1.359843e+06   4.554616e+05
   2.450179e+05   1.405894e+06
  -7.698179e+05   1.352343e+06
  -1.046539e+06   5.042570e+05
  -6.508140e+05  -2.555105e+05
  -1.169571e+05  -3.553825e+05
   9.191340e+04  -4.382613e+04
  -7.573937e+04   3.660010e+04
  -3.096093e+05  -3.637541e+05
  -2.479691e+05  -8.095934e+05
   1.903980e+05  -6.671671e+05
   6.782549e+05   1.468295e+05
   7.060360e+05   9.690372e+05
   7.650754e+04   1.018983e+06
  -7.619516e+05   2.114369e+05
  -1.009484e+06  -7.483850e+05
  -3.195838e+05  -1.083073e+06
   7.167371e+05  -6.479814e+05
   1.098821e+06   9.038737e+04
   5.123614e+05   5.955774e+05
  -2.862710e+05   6.503633e+05
  -3.606403e+05   3.612729e+05
   2.655731e+05   2.470032e+04
   6.516229e+05  -2.758363e+04
   1.362307e+05   3.022806e+05
  -8.293961e+05   6.697206e+05
  -1.244478e+06   5.441271e+05
  -7.394220e+05  -1.633038e+05
   1.049772e+05  -8.552665e+05
   5.382354e+05  -8.417586e+05
   4.010947e+05  -1.464309e+05
   3.569059e+04   4.832967e+05
  -2.437340e+05   4.187990e+05
  -3.457805e+05  -1.683224e+05
  -2.439818e+05  -5.770549e+05
   5.771656e+04  -4.069474e+05
   3.859372e+05   5.603519e+04
   4.670833e+05   2.699736e+05
   2.427866e+05   8.711810e+04
  -2.695836e+04  -1.334808e+05
  -8.854769e+04  -1.477801e+04
  -1.914090e+04   3.573542e+05
  -8.537265e+04   5.188932e+05
  -3.228277e+05   1.792986e+05
  -4.236951e+05  -3.970616e+05
  -1.178816e+05  -6.411209e+05
   4.159613e+05  -2.982163e+05
   6.439012e+05   2.930715e+05
   2.364814e+05   5.777964e+05
  -5.026268e+05   3.575558e+05
  -8.653206e+05  -8.872416e+04
  -4.678459e+05  -3.794774e+05
   2.928692e+05  -3.826612e+05
   6.294632e+05  -2.063766e+05
   2.354139e+05  -1.654820e+04
  -3.600984e+05   4.647844e+04
  -4.073678e+05  -8.780146e+04
   1.878779e+05  -2.954870e+05
   7.664899e+05  -2.561718e+05
