
 $NMID
 id='ANONYMOUS ', fmtdat='(2E16.6)'
 volume=1.0
 tramp=1.0
 $END
   1.945033e+07   2.244725e+06
   1.182055e+07   9.511764e+06
  -7.910080e+05   1.160999e+07
  -8.418554e+06   8.013104e+06
  -7.024876e+06   1.299888e+06
  -6.414565e+05  -3.356911e+06
   3.899564e+06  -2.140427e+06
   3.249243e+06   2.983295e+06
  -6.964093e+05   5.737105e+06
  -3.705419e+06   2.628582e+06
  -3.232703e+06  -2.856727e+06
  -2.297129e+05  -4.505678e+06
   2.168163e+06  -7.397970e+05
   1.636652e+06   3.932537e+06
  -1.200918e+06   4.417668e+06
  -3.358224e+06   3.906741e+05
  -2.377705e+06  -4.070686e+06
   1.150822e+06  -4.993942e+06
   4.063706e+06  -2.061462e+06
   3.817946e+06   1.696123e+06
   1.129773e+06   3.132749e+06
  -8.633397e+05   1.971446e+06
  -1.089685e+05   6.862560e+05
   2.037509e+06   1.419259e+06
   2.309662e+06   3.415216e+06
  -7.314083e+05   4.023785e+06
  -4.806843e+06   1.954256e+06
  -6.041262e+06  -1.265795e+06
  -2.994103e+06  -3.083075e+06
   1.631184e+06  -2.385175e+06
   3.565311e+06  -6.436529e+04
   1.296269e+06   1.987525e+06
  -2.460346e+06   2.083709e+06
  -3.793980e+06  -1.128682e+05
  -1.751190e+06  -2.872979e+06
   1.053133e+06  -3.514935e+06
   1.770999e+06  -1.238459e+06
   3.870752e+05   1.514767e+06
  -9.047645e+05   1.610385e+06
  -5.891534e+05  -9.543865e+05
   7.745856e+05  -2.932005e+06
   1.713964e+06  -1.835451e+06
   1.431359e+06   1.021143e+06
   1.622845e+05   2.265862e+06
  -1.169619e+06   5.584772e+05
  -1.333970e+06  -2.057634e+06
   3.464677e+05  -2.710746e+06
   2.865933e+06  -7.300269e+05
   3.840828e+06   2.034275e+06
   1.844515e+06   3.262780e+06
  -1.672912e+06   2.188951e+06
  -3.575905e+06  -3.262692e+04
  -2.317571e+06  -1.528759e+06
   5.085948e+05  -1.324119e+06
   2.063174e+06  -3.762010e+04
   1.226310e+06   8.901765e+05
  -6.080172e+05   6.269869e+05
  -1.329794e+06  -3.872531e+05
  -3.088951e+05  -1.057914e+06
   1.119428e+06  -7.287059e+05
   1.155724e+06   2.781429e+05
  -4.532940e+05   9.571212e+05
  -1.939742e+06   4.388857e+05
  -1.314824e+06  -1.169332e+06
   1.321455e+06  -2.598274e+06
   3.682054e+06  -2.358704e+06
   3.731090e+06  -2.112259e+05
   1.813773e+06   2.382480e+06
  -4.150901e+04   3.583034e+06
  -5.734910e+05   2.969769e+06
  -3.866338e+05   1.759861e+06
  -6.983495e+05   1.201293e+06
  -1.722680e+06   1.119928e+06
  -2.587108e+06   3.970039e+05
  -2.388075e+06  -1.278598e+06
  -9.897369e+05  -2.650329e+06
   8.936930e+05  -2.184127e+06
   2.060505e+06   6.030970e+04
   1.569668e+06   2.218516e+06
  -3.565757e+05   2.414594e+06
  -2.220175e+06   6.001135e+05
  -2.492876e+06  -1.537718e+06
  -1.123647e+06  -2.366083e+06
   4.615278e+05  -1.769204e+06
   9.858515e+05  -8.639138e+05
   6.908653e+05  -5.912122e+05
   8.463647e+05  -8.199488e+05
   2.019992e+06  -7.067674e+05
   3.164543e+06   3.237967e+05
   2.641492e+06   1.964618e+06
   1.315783e+05   3.184500e+06
  -2.679742e+06   2.982781e+06
  -3.566532e+06   1.255774e+06
  -1.976373e+06  -9.041952e+05
   3.901376e+05  -1.955160e+06
   1.342933e+06  -1.264487e+06
   3.886652e+05   2.286705e+05
  -1.039690e+06   9.185904e+05
  -1.356533e+06   2.093711e+05
  -4.311033e+05  -8.700934e+05
   5.946836e+05  -8.948057e+05
   6.611652e+05   2.237292e+05
  -2.757900e+05   1.032982e+06
  -1.351598e+06   1.987291e+05
  -1.490600e+06  -1.829819e+06
  -2.028359e+05  -3.107323e+06
   1.869474e+06  -2.200557e+06
   3.206867e+06   2.842538e+05
   2.652852e+06   2.320330e+06
   6.212426e+05   2.490743e+06
  -1.168318e+06   1.220473e+06
  -1.385052e+06   4.810532e+04
  -3.969940e+05  -4.280280e+04
   2.898856e+05   5.857814e+05
  -2.150551e+05   9.085166e+05
  -1.250932e+06   4.092669e+05
  -1.463974e+06  -4.802894e+05
  -4.139812e+05  -9.220734e+05
   8.547491e+05  -5.161084e+05
   8.983838e+05   3.241611e+05
  -5.146855e+05   7.309477e+05
  -1.999123e+06   1.601802e+05
  -1.903735e+06  -1.056021e+06
  -7.403912e+04  -1.908999e+06
   1.896821e+06  -1.590518e+06
   2.276435e+06  -2.914774e+05
   9.319217e+05   8.953190e+05
  -6.601503e+05   9.860189e+05
  -1.011368e+06   7.905366e+04
  -1.916207e+04  -7.384027e+05
   1.164888e+06  -5.247801e+05
   1.378574e+06   5.171823e+05
   4.735940e+05   1.279198e+06
  -6.810047e+05   9.805307e+05
  -1.047881e+06   1.725204e+04
  -3.839032e+05  -5.183226e+05
   4.992112e+05  -6.696585e+04
   5.127206e+05   8.135006e+05
  -5.374970e+05   1.089795e+06
  -1.634247e+06   3.309850e+05
  -1.574570e+06  -9.025333e+05
  -2.831306e+05  -1.623708e+06
   1.078988e+06  -1.293690e+06
   1.340647e+06  -2.439663e+05
   4.857948e+05   6.394771e+05
  -4.738588e+05   6.920006e+05
  -6.277690e+05   5.596533e+04
  -1.920203e+04  -4.973799e+05
   5.584481e+05  -3.999783e+05
   4.587067e+05   9.351394e+04
  -1.583522e+05   2.340765e+05
  -5.058278e+05  -2.864722e+05
  -3.112165e+03  -8.986080e+05
   1.047251e+06  -7.555959e+05
   1.664854e+06   3.137824e+05
   1.147892e+06   1.560282e+06
  -1.940864e+05   2.000548e+06
  -1.332686e+06   1.299610e+06
  -1.527131e+06   2.879303e+04
  -9.559553e+05  -8.700768e+05
  -3.608302e+05  -9.087589e+05
  -2.013212e+05  -4.329917e+05
  -2.584323e+05  -1.874900e+05
  -2.177148e+04  -4.665130e+05
   6.370619e+05  -7.641760e+05
   1.218234e+06  -3.856785e+05
   1.029584e+06   6.290678e+05
  -8.385944e+04   1.379147e+06
  -1.418730e+06   1.005456e+06
  -1.900067e+06  -3.617428e+05
  -1.020272e+06  -1.660557e+06
   6.492054e+05  -1.880763e+06
   1.915377e+06  -9.426993e+05
   1.980387e+06   3.393072e+05
   1.048005e+06   1.061180e+06
  -3.619495e+03   9.950083e+05
  -4.742201e+05   6.447858e+05
  -3.815769e+05   6.035820e+05
  -2.601446e+05   8.773801e+05
  -5.104628e+05   8.905851e+05
  -9.558460e+05   1.925265e+05
  -1.029092e+06  -9.121527e+05
  -4.082088e+05  -1.556654e+06
   5.468052e+05  -1.162087e+06
   1.059842e+06  -2.764941e+04
   6.954751e+05   9.524852e+05
  -1.804978e+05   1.103067e+06
  -7.605447e+05   4.841332e+05
  -6.112824e+05  -3.016007e+05
  -6.840317e+04  -7.052433e+05
   2.012645e+05  -6.451087e+05
  -3.211894e+04  -4.264129e+05
  -3.086356e+05  -3.344368e+05
  -1.681812e+04  -3.376394e+05
   8.504826e+05  -1.848309e+05
   1.552244e+06   2.498024e+05
   1.294271e+06   7.751489e+05
   9.299834e+04   1.040583e+06
  -1.131104e+06   8.469217e+05
  -1.417912e+06   3.117705e+05
  -7.118204e+05  -2.077237e+05
   1.462225e+05  -3.620242e+05
   3.577200e+05  -9.894505e+04
  -4.806045e+04   2.310143e+05
  -4.299632e+05   1.761711e+05
  -3.655502e+05  -2.898926e+05
  -5.566720e+04  -6.449624e+05
   6.306208e+04  -4.112253e+05
  -1.231917e+05   1.773130e+05
  -3.346834e+05   3.659075e+05
  -2.478663e+05  -1.769942e+05
   1.974691e+05  -8.582054e+05
   7.425478e+05  -8.274705e+05
   9.490768e+05  -1.404080e+04
   5.119443e+05   7.752396e+05
  -3.644204e+05   7.870060e+05
  -9.426688e+05   1.109536e+05
  -5.718853e+05  -5.259176e+05
   5.411801e+05  -5.479983e+05
   1.355617e+06   9.918975e+03
   1.003443e+06   6.648760e+05
  -2.562215e+05   9.147365e+05
  -1.256947e+06   5.829424e+05
  -1.131596e+06  -5.341048e+04
  -1.818911e+05  -4.518040e+05
   5.123908e+05  -2.811150e+05
   2.604490e+05   2.035148e+05
  -5.595580e+05   3.542147e+05
  -9.626119e+05  -1.926968e+05
  -4.061868e+05  -1.044902e+06
   6.696038e+05  -1.346199e+06
   1.317140e+06  -6.124190e+05
   1.020483e+06   7.020229e+05
   1.193375e+05   1.521360e+06
  -6.327990e+05   1.136880e+06
  -7.852555e+05  -7.097989e+04
  -4.312209e+05  -9.776462e+05
   7.517972e+04  -8.598166e+05
   4.292163e+05  -1.081457e+05
   4.685870e+05   3.353247e+05
   2.307544e+05   1.404621e+05
   2.725146e+03  -1.056553e+05
   8.591058e+04   1.941708e+05
   3.544710e+05   7.865278e+05
   2.585547e+05   9.126090e+05
  -4.669146e+05   3.286136e+05
  -1.239248e+06  -4.129783e+05
  -1.160298e+06  -7.092714e+05
  -1.538879e+05  -5.606544e+05
   8.125322e+05  -3.302330e+05
   8.549452e+05  -1.732090e+05
   2.158235e+05   1.842813e+02
  -1.622856e+05   1.777694e+05
   8.143274e+04   2.174961e+05
   3.400468e+05   1.394245e+05
  -7.086943e+03   1.225780e+05
  -6.842974e+05   1.443880e+05
  -8.555386e+05  -7.323133e+04
  -1.678731e+05  -5.788916e+05
   8.451001e+05  -8.922365e+05
   1.357446e+06  -4.892540e+05
   1.019719e+06   4.735835e+05
   1.445340e+05   1.197300e+06
  -6.471638e+05   1.077669e+06
  -8.892420e+05   3.372029e+05
  -5.577571e+05  -2.745934e+05
  -5.035637e+04  -3.027682e+05
   1.643027e+05   6.801753e+03
  -2.501842e+04   8.571942e+04
  -2.884510e+05  -2.748758e+05
  -2.266494e+05  -6.721365e+05
   1.933298e+05  -5.343619e+05
   5.881548e+05   1.945431e+05
   5.227681e+05   8.893745e+05
  -5.796458e+04   8.555140e+05
  -7.054692e+05   8.294390e+04
  -8.077398e+05  -7.293370e+05
  -1.834234e+05  -9.136754e+05
   6.363270e+05  -4.610286e+05
   8.739811e+05   1.329855e+05
   3.535646e+05   4.568447e+05
  -2.605165e+05   4.549416e+05
  -2.406903e+05   2.618231e+05
   3.036401e+05   4.417684e+04
   5.661339e+05   1.816750e+03
   7.693932e+04   2.442452e+05
  -7.040198e+05   5.494828e+05
  -9.720423e+05   4.728135e+05
  -5.240362e+05  -1.038209e+05
   1.192313e+05  -6.794593e+05
   4.045415e+05  -6.451869e+05
   2.687240e+05  -4.319490e+04
  -1.823484e+04   4.424092e+05
  -2.350758e+05   3.027429e+05
  -2.996240e+05  -2.177952e+05
  -1.780463e+05  -4.911964e+05
   8.766252e+04  -2.763415e+05
   3.217927e+05   8.776299e+04
   3.494892e+05   1.913509e+05
   1.922246e+05   3.472931e+04
   2.554549e+04  -6.232377e+04
  -5.367746e+04   9.956591e+04
  -1.156792e+05   3.582604e+05
  -2.361128e+05   3.749220e+05
  -3.390333e+05   1.931351e+04
  -2.621551e+05  -4.412966e+05
   4.269524e+04  -5.687801e+05
   3.963988e+05  -2.078433e+05
   4.885907e+05   3.167981e+05
   1.491312e+05   5.224571e+05
  -4.089363e+05   2.699091e+05
  -6.811522e+05  -1.368505e+05
  -3.581111e+05  -3.342048e+05
   2.631504e+05  -2.570477e+05
   5.212823e+05  -8.574818e+04
   1.426339e+05   1.309325e+04
  -3.884936e+05  -1.615820e+04
  -3.804271e+05  -1.591318e+05
   2.210007e+05  -2.987099e+05
   7.512720e+05  -2.058608e+05
