
 $NMID
 id='ANONYMOUS ', fmtdat='(2E16.6)'
 volume=1.0
 tramp=1.0
 $END
   5.649044e+07   5.134734e+05
   3.337158e+07   3.560047e+07
  -8.167665e+06   3.815869e+07
  -2.780934e+07   1.400119e+07
  -1.615301e+07  -7.525545e+06
   3.588439e+06  -9.222693e+06
   9.682182e+06   1.564868e+06
   2.432737e+06   9.766396e+06
  -6.363446e+06   8.985518e+06
  -9.580118e+06   1.713514e+06
  -6.878602e+06  -6.198443e+06
  -7.760589e+05  -8.483496e+06
   3.964051e+06  -2.751033e+06
   2.577813e+06   5.258999e+06
  -3.780858e+06   6.303570e+06
  -7.775650e+06  -1.494068e+06
  -4.262547e+06  -1.019440e+07
   3.916464e+06  -1.167692e+07
   1.014080e+07  -5.810435e+06
   1.083161e+07   2.091678e+06
   6.672762e+06   7.572505e+06
   6.563078e+05   8.809886e+06
  -3.127203e+06   6.130119e+06
  -2.125429e+06   2.533846e+06
   9.997752e+05   1.852213e+06
   3.787506e+05   3.973121e+06
  -5.170860e+06   4.407679e+06
  -9.483366e+06   6.202593e+05
  -7.018835e+06  -4.040734e+06
  -3.804986e+05  -5.078317e+06
   3.571156e+06  -2.697278e+06
   2.513093e+06  -1.894273e+05
  -3.428119e+05   8.558605e+05
  -2.023202e+06   6.054054e+05
  -2.183466e+06  -1.204135e+06
  -8.520971e+05  -3.798327e+06
   1.747733e+06  -3.893648e+06
   3.361263e+06   3.125293e+04
   1.823969e+06   3.684594e+06
  -8.304080e+05   2.079504e+06
  -4.750304e+05  -2.308669e+06
   2.374456e+06  -2.216865e+06
   2.357931e+06   3.214014e+06
  -2.589976e+06   6.062493e+06
  -7.074639e+06   8.681552e+05
  -5.068535e+06  -7.043877e+06
   2.055687e+06  -8.525125e+06
   7.443332e+06  -2.350974e+06
   6.795586e+06   4.444863e+06
   1.709034e+06   5.915999e+06
  -3.428444e+06   2.579405e+06
  -5.076072e+06  -1.575387e+06
  -2.267690e+06  -3.443222e+06
   2.455056e+06  -2.110278e+06
   4.466573e+06   9.933016e+05
   1.870702e+06   2.733414e+06
  -1.729481e+06   1.338861e+06
  -1.667982e+06  -1.021149e+06
   1.375877e+06  -8.122645e+05
   2.390282e+06   1.893336e+06
  -8.088071e+05   3.469492e+06
  -4.746152e+06   1.783422e+06
  -5.252394e+06  -1.496418e+06
  -2.221535e+06  -4.010435e+06
   1.781013e+06  -5.209800e+06
   4.880982e+06  -4.802796e+06
   6.102020e+06  -1.768046e+06
   4.580801e+06   3.097094e+06
   9.578126e+05   6.083618e+06
  -1.882322e+06   4.642336e+06
  -1.756124e+06   1.079884e+06
  -6.211033e+04  -3.442743e+05
   1.956721e+05   9.760135e+05
  -1.460279e+06   1.869276e+06
  -2.753089e+06   3.786548e+05
  -2.062514e+06  -1.779395e+06
  -1.330657e+05  -2.064262e+06
   1.436411e+06  -2.561299e+05
   1.631991e+06   1.940803e+06
   5.132999e+04   2.842349e+06
  -2.688071e+06   1.674653e+06
  -4.436476e+06  -1.114935e+06
  -3.230568e+06  -3.719867e+06
   3.521145e+04  -4.236141e+06
   2.304267e+06  -2.718608e+06
   2.258630e+06  -1.097397e+06
   1.814313e+06  -6.207928e+05
   2.861883e+06  -4.329144e+05
   4.227268e+06   7.591951e+05
   3.386359e+06   2.694040e+06
   1.314268e+05   4.005489e+06
  -3.088506e+06   3.803536e+06
  -4.031075e+06   2.116287e+06
  -2.609095e+06  -3.513399e+05
  -3.376082e+05  -2.170976e+06
   1.026612e+06  -1.921752e+06
   5.594366e+05   1.552860e+04
  -1.039710e+06   1.291471e+06
  -1.868366e+06   3.972119e+05
  -9.239394e+05  -1.185785e+06
   4.808331e+05  -1.088787e+06
   3.821740e+05   3.740561e+05
  -1.072249e+06   6.121587e+05
  -1.773269e+06  -1.368870e+06
  -5.048575e+05  -3.438462e+06
   1.667388e+06  -3.221436e+06
   3.059963e+06  -9.328846e+05
   3.124447e+06   1.461817e+06
   2.131188e+06   2.632870e+06
   4.320013e+05   2.481721e+06
  -1.182386e+06   1.424947e+06
  -1.524316e+06   2.429457e+05
  -4.791964e+05  -4.294613e+04
   3.482050e+05   7.323371e+05
  -4.189511e+05   1.318196e+06
  -1.886214e+06   5.611058e+05
  -1.988702e+06  -8.921710e+05
  -3.567473e+05  -1.397110e+06
   1.146646e+06  -5.464393e+05
   8.414864e+05   4.406922e+05
  -8.344500e+05   4.632984e+05
  -2.077039e+06  -3.510506e+05
  -1.636325e+06  -1.304903e+06
   2.618473e+05  -1.868473e+06
   2.229742e+06  -1.580426e+06
   2.689540e+06  -2.611878e+05
   1.186499e+06   1.246101e+06
  -9.098740e+05   1.485772e+06
  -1.549196e+06   1.864975e+05
  -2.092555e+05  -1.071780e+06
   1.484522e+06  -7.245157e+05
   1.669228e+06   7.739899e+05
   3.018624e+05   1.607076e+06
  -1.080200e+06   9.190336e+05
  -1.209089e+06  -3.362553e+05
  -2.111504e+05  -7.675673e+05
   7.925722e+05  -4.458932e+04
   7.263040e+05   1.033220e+06
  -5.530114e+05   1.397365e+06
  -1.956906e+06   5.442175e+05
  -1.994052e+06  -1.016335e+06
  -3.768329e+05  -2.027736e+06
   1.413455e+06  -1.601786e+06
   1.685121e+06  -1.938584e+05
   4.764402e+05   8.504941e+05
  -6.468224e+05   7.741315e+05
  -6.009408e+05   8.013413e+04
   1.233303e+05  -3.186301e+05
   4.481136e+05  -1.777215e+05
   7.254928e+04   4.503765e+04
  -4.526467e+05  -1.221641e+05
  -4.825684e+05  -6.855300e+05
   2.265821e+05  -1.157358e+06
   1.354043e+06  -8.647061e+05
   2.028341e+06   4.060980e+05
   1.431861e+06   1.894259e+06
  -2.048714e+05   2.351781e+06
  -1.561241e+06   1.355533e+06
  -1.617625e+06  -1.332502e+05
  -8.055127e+05  -8.421050e+05
  -3.102542e+05  -5.788463e+05
  -4.994189e+05  -1.861647e+05
  -6.412849e+05  -3.234657e+05
  -8.972851e+04  -7.667450e+05
   8.614237e+05  -8.695590e+05
   1.398590e+06  -3.008534e+05
   9.985396e+05   6.900697e+05
  -2.520256e+05   1.388761e+06
  -1.666738e+06   1.025931e+06
  -2.175376e+06  -4.706836e+05
  -1.088043e+06  -2.044460e+06
   1.006362e+06  -2.300406e+06
   2.489099e+06  -9.839700e+05
   2.269235e+06   6.644697e+05
   8.915870e+05   1.294283e+06
  -2.136854e+05   8.816823e+05
  -3.470332e+05   4.707497e+05
  -3.138027e+04   7.466622e+05
  -8.181871e+04   1.304240e+06
  -6.616541e+05   1.274623e+06
  -1.274001e+06   3.170585e+05
  -1.312229e+06  -1.046471e+06
  -5.512216e+05  -1.841387e+06
   5.971235e+05  -1.401319e+06
   1.246931e+06   4.339744e+03
   7.824513e+05   1.258979e+06
  -3.993693e+05   1.357096e+06
  -1.150436e+06   3.656776e+05
  -7.854170e+05  -7.175872e+05
   1.500433e+05  -1.063542e+06
   5.545666e+05  -7.499825e+05
   9.321090e+04  -3.876208e+05
  -4.312572e+05  -3.188781e+05
  -6.470716e+04  -3.705217e+05
   1.128966e+06  -2.001688e+05
   2.025027e+06   3.289833e+05
   1.574560e+06   1.017272e+06
  -5.890477e+04   1.409172e+06
  -1.571806e+06   1.116817e+06
  -1.788153e+06   2.565975e+05
  -7.980621e+05  -5.073761e+05
   2.674415e+05  -5.663748e+05
   5.035797e+05  -2.010061e+04
   3.721898e+04   4.302659e+05
  -4.209565e+05   2.612582e+05
  -4.743890e+05  -3.307586e+05
  -2.755164e+05  -7.004089e+05
  -1.187234e+05  -4.687716e+05
  -1.273226e+05   7.663629e+04
  -2.480357e+05   2.684964e+05
  -2.637879e+05  -2.270070e+05
   1.194703e+05  -9.547381e+05
   8.726741e+05  -1.046380e+06
   1.357581e+06  -1.883859e+05
   8.640926e+05   8.905001e+05
  -4.025839e+05   1.135304e+06
  -1.244659e+06   3.571014e+05
  -7.232122e+05  -5.460420e+05
   6.863734e+05  -6.276305e+05
   1.531469e+06   9.981025e+04
   9.449122e+05   8.368682e+05
  -4.898315e+05   9.369181e+05
  -1.442045e+06   4.340061e+05
  -1.171561e+06  -1.971931e+05
  -1.191950e+05  -4.904992e+05
   6.319671e+05  -2.503701e+05
   3.832605e+05   2.950220e+05
  -5.548539e+05   5.291077e+05
  -1.159429e+06  -4.810434e+04
  -6.928641e+05  -1.137765e+06
   5.286367e+05  -1.680818e+06
   1.424598e+06  -8.998594e+05
   1.233294e+06   7.142818e+05
   2.186002e+05   1.735145e+06
  -7.064135e+05   1.248098e+06
  -8.920033e+05  -1.842509e+05
  -4.059708e+05  -1.155438e+06
   2.322720e+05  -9.234306e+05
   5.527309e+05  -7.234747e+04
   4.356965e+05   3.553541e+05
   1.375344e+05   1.211502e+05
   5.455666e+04  -8.425052e+04
   3.064306e+05   3.066456e+05
   5.156580e+05   9.446175e+05
   1.658815e+05   1.037224e+06
  -7.246719e+05   3.793755e+05
  -1.433441e+06  -4.376497e+05
  -1.223604e+06  -7.983717e+05
  -1.816534e+05  -6.833643e+05
   8.008357e+05  -4.228591e+05
   9.444566e+05  -1.780973e+05
   3.711876e+05   6.693165e+04
  -1.293458e+05   2.253894e+05
  -6.166249e+04   1.797825e+05
   2.277684e+05   6.581531e+04
   6.460697e+04   1.288532e+05
  -6.064223e+05   2.570316e+05
  -1.026094e+06   1.343353e+04
  -4.822468e+05  -6.815087e+05
   7.725252e+05  -1.186389e+06
   1.673333e+06  -7.858301e+05
   1.429633e+06   3.844855e+05
   3.053542e+05   1.362472e+06
  -7.378043e+05   1.364226e+06
  -1.019122e+06   5.663676e+05
  -6.404419e+05  -1.948292e+05
  -1.520975e+05  -3.501361e+05
   3.867661e+04  -9.187417e+04
  -8.752563e+04  -8.873139e+03
  -2.802112e+05  -3.628850e+05
  -2.391150e+05  -7.827147e+05
   1.567314e+05  -6.746969e+05
   6.625842e+05   7.936392e+04
   7.642101e+05   8.923172e+05
   1.737563e+05   1.013609e+06
  -7.115052e+05   2.957837e+05
  -1.040459e+06  -6.500329e+05
  -3.861428e+05  -1.061417e+06
   6.797196e+05  -7.041699e+05
   1.113172e+06   4.201014e+04
   5.492882e+05   6.157077e+05
  -2.735298e+05   7.016801e+05
  -3.951674e+05   3.708860e+05
   2.087821e+05  -1.352180e+04
   6.246611e+05  -5.800313e+04
   1.604513e+05   3.058762e+05
  -7.918353e+05   6.736880e+05
  -1.245227e+06   5.217252e+05
  -7.790359e+05  -1.898542e+05
   7.518735e+04  -8.647176e+05
   5.542874e+05  -8.574390e+05
   4.503536e+05  -1.881598e+05
   8.294560e+04   4.540876e+05
  -2.198043e+05   4.501574e+05
  -3.484465e+05  -1.040045e+05
  -2.656644e+05  -5.574601e+05
   3.685651e+04  -4.486909e+05
   3.856802e+05   2.097775e+04
   4.791483e+05   2.875761e+05
   2.368483e+05   1.092376e+05
  -5.033300e+04  -1.731259e+05
  -7.632577e+04  -9.336448e+04
   6.723570e+04   3.288436e+05
   2.421460e+04   5.814041e+05
  -2.923210e+05   2.829401e+05
  -5.042874e+05  -3.252803e+05
  -2.274135e+05  -6.300266e+05
   3.761385e+05  -3.350771e+05
   6.801597e+05   2.373802e+05
   2.801865e+05   5.423457e+05
  -4.976183e+05   3.728132e+05
  -8.854391e+05  -3.970805e+04
  -4.870429e+05  -3.576405e+05
   2.800300e+05  -4.234068e+05
   6.311731e+05  -2.684478e+05
   2.715111e+05  -2.658859e+04
  -3.017895e+05   1.067991e+05
  -3.889027e+05  -1.227681e+04
   1.237051e+05  -2.688374e+05
   6.685657e+05  -2.902453e+05
