
 $NMID
 id='ANONYMOUS ', fmtdat='(2E16.6)'
 volume=1.0
 tramp=1.0
 $END
  -4.867476e+07  -6.356694e+05
  -2.915389e+07  -2.939478e+07
   6.001761e+06  -3.238219e+07
   2.339009e+07  -1.339955e+07
   1.443915e+07   4.977397e+06
  -2.372637e+06   8.020443e+06
  -8.536422e+06  -3.335389e+05
  -3.013913e+06  -8.245645e+06
   4.867298e+06  -8.703407e+06
   8.362301e+06  -2.267923e+06
   6.278490e+06   5.526186e+06
   7.333959e+05   7.847933e+06
  -3.676565e+06   2.329033e+06
  -2.545592e+06  -5.247035e+06
   3.146001e+06  -6.246396e+06
   6.936925e+06   8.946223e+05
   4.084024e+06   8.920728e+06
  -3.182202e+06   1.041722e+07
  -8.865014e+06   5.116534e+06
  -9.374974e+06  -2.037955e+06
  -5.409295e+06  -6.647261e+06
  -2.556409e+05  -7.216769e+06
   2.315325e+06  -4.797491e+06
   8.389728e+05  -2.356457e+06
  -1.591691e+06  -2.525873e+06
  -9.254609e+04  -4.350160e+06
   5.461329e+06  -4.027767e+06
   9.143829e+06  -1.312953e+05
   6.296254e+06   4.006632e+06
  -2.427398e+05   4.614023e+06
  -3.882050e+06   2.075319e+06
  -2.335941e+06  -5.285937e+05
   1.085406e+06  -1.386554e+06
   2.814401e+06  -4.583923e+05
   2.255328e+06   1.857159e+06
   3.164725e+05   4.034004e+06
  -1.874973e+06   3.336266e+06
  -2.635549e+06  -5.306810e+05
  -1.070934e+06  -3.291386e+06
   8.183286e+05  -1.221469e+06
   1.257759e+05   2.735244e+06
  -2.322522e+06   2.311454e+06
  -2.271169e+06  -2.712824e+06
   1.808732e+06  -5.299834e+06
   5.644349e+06  -8.920146e+05
   4.287577e+06   5.898024e+06
  -1.564634e+06   7.283695e+06
  -6.494788e+06   2.072400e+06
  -6.422799e+06  -3.923896e+06
  -1.975398e+06  -5.491941e+06
   3.090042e+06  -2.708134e+06
   5.016416e+06   1.117809e+06
   2.514515e+06   3.050509e+06
  -1.982069e+06   2.042027e+06
  -4.037154e+06  -6.836236e+05
  -1.831402e+06  -2.318939e+06
   1.486372e+06  -1.226682e+06
   1.707227e+06   8.730763e+05
  -9.040114e+05   9.762294e+05
  -2.167651e+06  -1.130489e+06
   1.782616e+05  -2.668987e+06
   3.659372e+06  -1.689551e+06
   4.571537e+06   9.079389e+05
   2.138109e+06   3.352796e+06
  -1.719394e+06   4.785063e+06
  -4.839901e+06   4.442522e+06
  -5.803405e+06   1.457531e+06
  -4.066106e+06  -3.076695e+06
  -7.643224e+05  -5.747180e+06
   1.540810e+06  -4.485644e+06
   1.411291e+06  -1.419652e+06
   2.728630e+05  -1.652438e+05
   4.310914e+05  -1.130395e+06
   1.966077e+06  -1.562912e+06
   2.883983e+06   1.216729e+05
   1.910333e+06   2.220367e+06
  -1.812209e+05   2.299248e+06
  -1.783265e+06   1.958611e+05
  -1.788615e+06  -2.188140e+06
   4.790649e+04  -2.950672e+06
   2.750156e+06  -1.486544e+06
   4.175781e+06   1.310813e+06
   2.828448e+06   3.548126e+06
  -1.443191e+05   3.757261e+06
  -2.023760e+06   2.336929e+06
  -1.898892e+06   1.038351e+06
  -1.625371e+06   7.646920e+05
  -2.813188e+06   6.053869e+05
  -4.240402e+06  -6.160999e+05
  -3.463244e+06  -2.631590e+06
  -1.993633e+05  -4.073887e+06
   3.166848e+06  -3.901942e+06
   4.201848e+06  -2.064049e+06
   2.632271e+06   5.416612e+05
   1.461119e+05   2.291862e+06
  -1.206374e+06   1.881619e+06
  -5.534488e+05  -8.725462e+04
   1.117668e+06  -1.294480e+06
   1.855286e+06  -3.896200e+05
   8.495928e+05   1.174629e+06
  -5.525796e+05   1.126998e+06
  -5.207242e+05  -3.492836e+05
   8.787904e+05  -8.253099e+05
   1.794485e+06   9.204049e+05
   9.322039e+05   3.167501e+06
  -1.116958e+06   3.476412e+06
  -2.891014e+06   1.493105e+06
  -3.439954e+06  -1.132057e+06
  -2.538126e+06  -2.718866e+06
  -5.752684e+05  -2.695933e+06
   1.260946e+06  -1.497903e+06
   1.608447e+06  -2.181105e+05
   4.930350e+05   4.058037e+04
  -3.697648e+05  -7.427453e+05
   3.690161e+05  -1.299701e+06
   1.827970e+06  -5.822452e+05
   1.995210e+06   8.046770e+05
   4.248826e+05   1.354063e+06
  -1.142646e+06   6.018592e+05
  -9.458254e+05  -4.270654e+05
   7.861756e+05  -6.113895e+05
   2.236298e+06   1.693795e+05
   1.894683e+06   1.305215e+06
  -1.376148e+05   2.050466e+06
  -2.287259e+06   1.756978e+06
  -2.780599e+06   3.324870e+05
  -1.218735e+06  -1.220156e+06
   8.871165e+05  -1.456319e+06
   1.499238e+06  -1.833825e+05
   1.749484e+05   1.051773e+06
  -1.497594e+06   7.404788e+05
  -1.727383e+06  -7.312607e+05
  -4.096075e+05  -1.631412e+06
   1.024986e+06  -1.035818e+06
   1.264784e+06   2.276205e+05
   2.998479e+05   7.477174e+05
  -7.626133e+05   6.908419e+04
  -7.345130e+05  -1.038712e+06
   5.750121e+05  -1.425259e+06
   2.011648e+06  -5.488695e+05
   2.041170e+06   1.038486e+06
   4.061636e+05   2.062672e+06
  -1.401122e+06   1.655921e+06
  -1.711968e+06   2.499075e+05
  -5.323220e+05  -8.477420e+05
   6.351625e+05  -8.241374e+05
   6.650221e+05  -8.719142e+04
  -7.700230e+04   4.127907e+05
  -5.222955e+05   2.815258e+05
  -2.166297e+05  -6.074117e+04
   3.873243e+05   2.850749e+03
   5.408357e+05   5.973316e+05
  -1.489244e+05   1.170527e+06
  -1.353060e+06   9.229564e+05
  -2.087302e+06  -3.796837e+05
  -1.487657e+06  -1.925044e+06
   1.854332e+05  -2.440868e+06
   1.600015e+06  -1.478257e+06
   1.729936e+06   6.492662e+04
   9.408527e+05   9.131004e+05
   3.650470e+05   7.393352e+05
   4.437497e+05   2.819559e+05
   5.688433e+05   2.958948e+05
   8.471841e+04   7.272462e+05
  -8.446446e+05   9.208596e+05
  -1.451940e+06   3.790060e+05
  -1.107456e+06  -7.115180e+05
   1.925724e+05  -1.509889e+06
   1.710261e+06  -1.134883e+06
   2.278652e+06   4.410935e+05
   1.191172e+06   2.075588e+06
  -9.376935e+05   2.372624e+06
  -2.495487e+06   1.092319e+06
  -2.378601e+06  -5.773664e+05
  -1.043616e+06  -1.313927e+06
   1.453917e+05  -1.001711e+06
   4.138274e+05  -5.791504e+05
   1.455710e+05  -7.653440e+05
   1.339106e+05  -1.273227e+06
   6.505346e+05  -1.263007e+06
   1.272094e+06  -3.195278e+05
   1.345414e+06   1.074048e+06
   5.770341e+05   1.898206e+06
  -6.127258e+05   1.451509e+06
  -1.292979e+06   2.457837e+04
  -8.397834e+05  -1.252550e+06
   3.390098e+05  -1.394265e+06
   1.110693e+06  -4.554723e+05
   8.037048e+05   6.246996e+05
  -7.225190e+04   1.034332e+06
  -4.694613e+05   7.873843e+05
  -5.211378e+04   4.366648e+05
   4.310544e+05   3.458889e+05
   5.931931e+04   3.902969e+05
  -1.128118e+06   2.287693e+05
  -2.043764e+06  -3.007232e+05
  -1.631241e+06  -9.998915e+05
  -9.465773e+03  -1.406550e+06
   1.541533e+06  -1.144448e+06
   1.814047e+06  -3.240824e+05
   8.458236e+05   4.364055e+05
  -2.407907e+05   5.487851e+05
  -4.965063e+05   5.661835e+04
  -1.644107e+04  -3.975696e+05
   4.573635e+05  -2.599891e+05
   4.825091e+05   3.390354e+05
   2.329441e+05   7.389781e+05
   7.230618e+04   4.887736e+05
   1.352560e+05  -1.203264e+05
   2.955222e+05  -3.309241e+05
   2.851486e+05   2.242622e+05
  -1.421171e+05   1.006809e+06
  -8.883247e+05   1.076076e+06
  -1.332457e+06   1.647230e+05
  -8.309705e+05  -9.165026e+05
   4.083503e+05  -1.120187e+06
   1.244244e+06  -3.206657e+05
   7.421595e+05   5.768769e+05
  -6.872789e+05   6.649453e+05
  -1.606598e+06  -5.515482e+04
  -1.060840e+06  -8.365358e+05
   4.376226e+05  -1.018522e+06
   1.498176e+06  -5.454298e+05
   1.264085e+06   1.469752e+05
   1.588881e+05   5.186293e+05
  -6.427963e+05   2.926385e+05
  -3.790006e+05  -2.839025e+05
   5.981278e+05  -5.235451e+05
   1.194709e+06   8.591279e+04
   6.708471e+05   1.196506e+06
  -6.007072e+05   1.720763e+06
  -1.500506e+06   8.995696e+05
  -1.278347e+06  -7.556659e+05
  -2.281679e+05  -1.810930e+06
   7.251027e+05  -1.329970e+06
   9.363015e+05   1.478794e+05
   4.678068e+05   1.189691e+06
  -1.841568e+05   9.867031e+05
  -5.575019e+05   9.974323e+04
  -4.913650e+05  -3.733489e+05
  -1.844411e+05  -1.367027e+05
  -4.021289e+04   9.992844e+04
  -2.610197e+05  -2.901979e+05
  -5.187332e+05  -9.659314e+05
  -2.279236e+05  -1.083472e+06
   6.934384e+05  -4.057077e+05
   1.499007e+06   4.472445e+05
   1.321500e+06   8.202349e+05
   1.979959e+05   6.981925e+05
  -8.697236e+05   4.394719e+05
  -9.942540e+05   2.059301e+05
  -3.505891e+05  -4.410728e+04
   1.493337e+05  -2.305306e+05
   1.457556e+04  -2.095233e+05
  -2.884891e+05  -9.375433e+04
  -4.753756e+04  -1.371401e+05
   6.836545e+05  -2.495143e+05
   1.057471e+06   6.548697e+02
   4.249870e+05   6.992049e+05
  -8.494481e+05   1.200030e+06
  -1.699984e+06   7.759356e+05
  -1.418516e+06  -4.291185e+05
  -2.959323e+05  -1.421033e+06
   7.515142e+05  -1.395706e+06
   1.055749e+06  -5.515202e+05
   6.714157e+05   2.304459e+05
   1.354024e+05   3.624777e+05
  -8.471222e+04   6.625460e+04
   7.344283e+04  -2.473047e+04
   3.133707e+05   3.601227e+05
   2.675877e+05   8.102006e+05
  -1.737330e+05   6.881162e+05
  -6.968787e+05  -1.170181e+05
  -7.606956e+05  -9.596932e+05
  -1.226280e+05  -1.045961e+06
   7.684423e+05  -2.577851e+05
   1.060751e+06   7.205413e+05
   3.647785e+05   1.098286e+06
  -7.145893e+05   6.913778e+05
  -1.128833e+06  -6.131485e+04
  -5.386458e+05  -6.066720e+05
   2.828626e+05  -6.817135e+05
   3.708189e+05  -3.716570e+05
  -2.601083e+05  -2.570593e+03
  -6.586298e+05   5.136532e+04
  -1.498629e+05  -3.090203e+05
   8.216493e+05  -7.014591e+05
   1.252600e+06  -5.689177e+05
   7.616071e+05   1.653766e+05
  -8.486395e+04   8.777133e+05
  -5.386470e+05   8.672015e+05
  -4.239175e+05   1.606175e+05
  -6.142943e+04  -4.890264e+05
   2.380555e+05  -4.416282e+05
   3.637098e+05   1.480039e+05
   2.666425e+05   5.798487e+05
  -5.141477e+04   4.286874e+05
  -3.978846e+05  -4.067780e+04
  -4.804461e+05  -2.725368e+05
  -2.437637e+05  -8.943353e+04
   3.078832e+04   1.490080e+05
   7.651378e+04   3.300424e+04
  -1.391112e+04  -3.674014e+05
   5.642776e+04  -5.603667e+05
   3.305534e+05  -2.199140e+05
   4.689338e+05   3.875138e+05
   1.621248e+05   6.611770e+05
  -4.117102e+05   3.257044e+05
  -6.768597e+05  -2.763309e+05
  -2.670926e+05  -5.793936e+05
   5.052578e+05  -3.771109e+05
   8.930909e+05   6.436775e+04
   4.903339e+05   3.741463e+05
  -2.929201e+05   4.068194e+05
  -6.449210e+05   2.373551e+05
  -2.500321e+05   1.885354e+04
   3.575704e+05  -7.759511e+04
   4.207100e+05   5.929049e+04
  -1.649509e+05   3.050459e+05
  -7.527683e+05   2.961206e+05
