
 $NMID
 id='ANONYMOUS ', fmtdat='(2E16.6)'
 volume=1.0
 tramp=1.0
 $END
   5.242289e+07  -8.271844e+05
   3.235974e+07   3.144307e+07
  -5.859935e+06   3.548756e+07
  -2.532155e+07   1.466800e+07
  -1.578469e+07  -5.689431e+06
   2.641596e+06  -8.827312e+06
   9.327899e+06   5.785046e+05
   3.133095e+06   9.051441e+06
  -5.442468e+06   9.234213e+06
  -9.056240e+06   2.330554e+06
  -6.741921e+06  -5.761542e+06
  -8.865596e+05  -8.219558e+06
   3.774439e+06  -2.585433e+06
   2.617385e+06   5.336413e+06
  -3.415835e+06   6.496337e+06
  -7.477512e+06  -9.758847e+05
  -4.458028e+06  -9.516101e+06
   3.278767e+06  -1.120351e+07
   9.371309e+06  -5.698868e+06
   1.009656e+07   1.830389e+06
   6.144054e+06   6.884475e+06
   6.940206e+05   7.867371e+06
  -2.420364e+06   5.521110e+06
  -1.296051e+06   2.688428e+06
   1.288987e+06   2.422199e+06
   1.422452e+05   4.239864e+06
  -5.380259e+06   4.200509e+06
  -9.351093e+06   3.893258e+05
  -6.692081e+06  -3.956351e+06
  -7.292495e+04  -4.763826e+06
   3.726577e+06  -2.298140e+06
   2.321753e+06   2.373979e+05
  -9.195271e+05   1.089963e+06
  -2.547583e+06   3.892524e+05
  -2.160434e+06  -1.660142e+06
  -4.851143e+05  -3.929523e+06
   1.762164e+06  -3.584484e+06
   2.867686e+06   2.272331e+05
   1.442404e+06   3.365507e+06
  -6.876437e+05   1.563942e+06
  -1.881010e+05  -2.567042e+06
   2.396640e+06  -2.330996e+06
   2.436210e+06   2.928673e+06
  -1.988690e+06   5.815337e+06
  -6.276919e+06   1.155715e+06
  -4.861219e+06  -6.285244e+06
   1.547520e+06  -7.960331e+06
   6.910609e+06  -2.387052e+06
   6.772892e+06   4.111832e+06
   1.995210e+06   5.790652e+06
  -3.288624e+06   2.774085e+06
  -5.210793e+06  -1.287810e+06
  -2.543025e+06  -3.290277e+06
   2.176850e+06  -2.191276e+06
   4.324439e+06   7.283526e+05
   1.956219e+06   2.504834e+06
  -1.581059e+06   1.336025e+06
  -1.751649e+06  -9.473062e+05
   1.120335e+06  -1.017282e+06
   2.423165e+06   1.389681e+06
  -2.703636e+05   3.121831e+06
  -4.107287e+06   1.948512e+06
  -5.009056e+06  -1.016847e+06
  -2.326549e+06  -3.638749e+06
   1.693279e+06  -5.041882e+06
   4.874641e+06  -4.670413e+06
   5.963435e+06  -1.658882e+06
   4.338361e+06   3.045257e+06
   9.169043e+05   5.941897e+06
  -1.660997e+06   4.687290e+06
  -1.621710e+06   1.382143e+06
  -2.888416e+05  -5.640844e+04
  -2.324339e+05   9.854957e+05
  -1.758800e+06   1.620000e+06
  -2.801423e+06   4.342157e+04
  -1.929325e+06  -2.068150e+06
   1.044513e+05  -2.200823e+06
   1.676925e+06  -1.657219e+05
   1.725007e+06   2.160210e+06
  -2.537408e+04   2.947632e+06
  -2.742375e+06   1.577323e+06
  -4.316557e+06  -1.210594e+06
  -3.063674e+06  -3.602576e+06
   1.841035e+04  -3.984050e+06
   2.095062e+06  -2.571676e+06
   2.054742e+06  -1.143577e+06
   1.748241e+06  -7.602786e+05
   2.910636e+06  -5.654355e+05
   4.337722e+06   6.757360e+05
   3.512511e+06   2.710176e+06
   1.728070e+05   4.133770e+06
  -3.205865e+06   3.927772e+06
  -4.202798e+06   2.098256e+06
  -2.639978e+06  -4.805964e+05
  -2.027600e+05  -2.255655e+06
   1.151957e+06  -1.902297e+06
   5.540185e+05   5.982940e+04
  -1.107046e+06   1.305606e+06
  -1.891914e+06   4.056445e+05
  -8.969674e+05  -1.185717e+06
   5.403320e+05  -1.122792e+06
   4.841314e+05   3.868605e+05
  -1.000658e+06   7.963955e+05
  -1.897310e+06  -1.102717e+06
  -8.432053e+05  -3.396747e+06
   1.378327e+06  -3.542178e+06
   3.099774e+06  -1.347309e+06
   3.444753e+06   1.323362e+06
   2.423821e+06   2.802762e+06
   5.003202e+05   2.689599e+06
  -1.265213e+06   1.486641e+06
  -1.602307e+06   2.193895e+05
  -4.975504e+05  -4.384819e+04
   3.681155e+05   7.552216e+05
  -3.883474e+05   1.339218e+06
  -1.885002e+06   5.984699e+05
  -2.045715e+06  -8.487230e+05
  -4.179618e+05  -1.405316e+06
   1.172618e+06  -5.954395e+05
   9.274431e+05   4.553355e+05
  -8.421454e+05   5.768156e+05
  -2.248944e+06  -2.632722e+05
  -1.835519e+06  -1.369822e+06
   2.137684e+05  -2.041856e+06
   2.334865e+06  -1.717574e+06
   2.809329e+06  -3.012612e+05
   1.235828e+06   1.255433e+06
  -9.038974e+05   1.499321e+06
  -1.544223e+06   1.993332e+05
  -1.964196e+05  -1.071945e+06
   1.521168e+06  -7.485315e+05
   1.745969e+06   7.671013e+05
   3.762529e+05   1.669890e+06
  -1.081978e+06   1.023161e+06
  -1.286373e+06  -2.786951e+05
  -2.778645e+05  -7.829962e+05
   7.907919e+05  -6.789080e+04
   7.451324e+05   1.055082e+06
  -5.796305e+05   1.437303e+06
  -2.027390e+06   5.506960e+05
  -2.058439e+06  -1.053837e+06
  -4.001400e+05  -2.091501e+06
   1.437636e+06  -1.670580e+06
   1.742667e+06  -2.322357e+05
   5.238384e+05   8.728224e+05
  -6.577644e+05   8.240320e+05
  -6.545415e+05   7.683111e+04
   1.105208e+05  -3.931401e+05
   5.212054e+05  -2.363545e+05
   1.645170e+05   8.008817e+04
  -4.387827e+05  -3.557659e+04
  -5.448023e+05  -6.500351e+05
   1.810239e+05  -1.200215e+06
   1.386492e+06  -9.201483e+05
   2.108283e+06   4.032667e+05
   1.491609e+06   1.955787e+06
  -2.074348e+05   2.455996e+06
  -1.633502e+06   1.455912e+06
  -1.731946e+06  -1.077873e+05
  -8.975949e+05  -9.255240e+05
  -3.252783e+05  -7.028652e+05
  -4.562159e+05  -2.418795e+05
  -6.106610e+05  -2.983103e+05
  -9.550124e+04  -7.539933e+05
   8.738597e+05  -9.225102e+05
   1.471375e+06  -3.496196e+05
   1.084448e+06   7.338357e+05
  -2.367343e+05   1.502966e+06
  -1.742140e+06   1.110080e+06
  -2.287430e+06  -4.743151e+05
  -1.172573e+06  -2.117317e+06
   9.884686e+05  -2.401965e+06
   2.554984e+06  -1.075011e+06
   2.397256e+06   6.347198e+05
   1.005457e+06   1.354777e+06
  -1.919738e+05   9.876306e+05
  -4.144093e+05   5.390692e+05
  -1.083412e+05   7.531218e+05
  -1.100195e+05   1.299057e+06
  -6.625077e+05   1.293067e+06
  -1.295744e+06   3.266694e+05
  -1.354505e+06  -1.086948e+06
  -5.712394e+05  -1.915173e+06
   6.243468e+05  -1.457642e+06
   1.304275e+06  -8.644360e+03
   8.368952e+05   1.285937e+06
  -3.714660e+05   1.416582e+06
  -1.159841e+06   4.392019e+05
  -8.281444e+05  -6.719384e+05
   9.560284e+04  -1.076984e+06
   5.142405e+05  -8.029714e+05
   7.571479e+04  -4.336902e+05
  -4.347764e+05  -3.417558e+05
  -5.941551e+04  -3.891721e+05
   1.153386e+06  -2.240343e+05
   2.078944e+06   3.169290e+05
   1.644256e+06   1.031546e+06
  -1.285953e+04   1.444315e+06
  -1.583392e+06   1.162306e+06
  -1.848296e+06   3.035853e+05
  -8.562921e+05  -4.770240e+05
   2.511731e+05  -5.699699e+05
   5.141736e+05  -4.612651e+04
   3.027118e+04   4.133045e+05
  -4.519630e+05   2.596752e+05
  -4.874188e+05  -3.429665e+05
  -2.471814e+05  -7.308676e+05
  -8.789417e+04  -4.824191e+05
  -1.420928e+05   1.052975e+05
  -2.935096e+05   3.063085e+05
  -2.829656e+05  -2.326272e+05
   1.440615e+05  -1.002204e+06
   9.021549e+05  -1.082977e+06
   1.361296e+06  -1.822579e+05
   8.548386e+05   9.168136e+05
  -4.095528e+05   1.145461e+06
  -1.260320e+06   3.414868e+05
  -7.442605e+05  -5.782767e+05
   7.048176e+05  -6.641574e+05
   1.615890e+06   8.297533e+04
   1.038853e+06   8.699552e+05
  -4.770681e+05   1.016549e+06
  -1.522832e+06   5.071412e+05
  -1.261770e+06  -1.818524e+05
  -1.432396e+05  -5.241893e+05
   6.571081e+05  -2.815953e+05
   3.896536e+05   2.917477e+05
  -5.913911e+05   5.285169e+05
  -1.197090e+06  -7.791255e+04
  -6.827672e+05  -1.192009e+06
   5.896054e+05  -1.726004e+06
   1.498694e+06  -9.052515e+05
   1.279142e+06   7.600947e+05
   2.185142e+05   1.817371e+06
  -7.433799e+05   1.321982e+06
  -9.433558e+05  -1.700229e+05
  -4.495192e+05  -1.208411e+06
   2.143013e+05  -9.896926e+05
   5.702133e+05  -9.146634e+04
   4.773580e+05   3.821694e+05
   1.682239e+05   1.410627e+05
   4.866005e+04  -9.852027e+04
   2.854498e+05   2.934222e+05
   5.247559e+05   9.753855e+05
   2.031828e+05   1.096288e+06
  -7.212119e+05   4.096511e+05
  -1.501205e+06  -4.607896e+05
  -1.307119e+06  -8.417479e+05
  -1.940220e+05  -7.078883e+05
   8.625485e+05  -4.309505e+05
   9.984520e+05  -1.924651e+05
   3.683265e+05   4.931999e+04
  -1.452842e+05   2.297194e+05
  -3.675220e+04   2.104424e+05
   2.669127e+05   9.505335e+04
   5.336656e+04   1.335920e+05
  -6.662070e+05   2.446708e+05
  -1.062714e+06   6.497376e+02
  -4.515185e+05  -6.951697e+05
   8.373832e+05  -1.204985e+06
   1.718266e+06  -7.914030e+05
   1.441292e+06   4.168319e+05
   2.967785e+05   1.423377e+06
  -7.635117e+05   1.408099e+06
  -1.058183e+06   5.621098e+05
  -6.665031e+05  -2.259015e+05
  -1.423259e+05  -3.614731e+05
   6.504057e+04  -6.915186e+04
  -8.551478e+04   1.537107e+04
  -3.078592e+05  -3.727570e+05
  -2.585309e+05  -8.191606e+05
   1.719191e+05  -6.930047e+05
   6.907449e+05   1.101588e+05
   7.657326e+05   9.507764e+05
   1.395207e+05   1.044312e+06
  -7.548347e+05   2.678155e+05
  -1.061679e+06  -7.098148e+05
  -3.744511e+05  -1.100617e+06
   7.117169e+05  -7.036314e+05
   1.140331e+06   5.650719e+04
   5.545466e+05   6.183847e+05
  -2.802918e+05   7.000616e+05
  -3.859600e+05   3.826475e+05
   2.434444e+05   5.038240e+03
   6.569555e+05  -4.986533e+04
   1.563020e+05   3.114921e+05
  -8.293327e+05   7.001198e+05
  -1.279686e+06   5.624547e+05
  -7.860640e+05  -1.733369e+05
   8.385208e+04  -8.873387e+05
   5.545558e+05  -8.826637e+05
   4.363861e+05  -1.785485e+05
   6.517021e+04   4.814447e+05
  -2.336952e+05   4.499638e+05
  -3.575379e+05  -1.367249e+05
  -2.681206e+05  -5.819698e+05
   4.310736e+04  -4.413513e+05
   3.973770e+05   3.573131e+04
   4.915531e+05   2.825050e+05
   2.490980e+05   9.910961e+04
  -4.271754e+04  -1.571588e+05
  -8.799841e+04  -5.553261e+04
   2.763783e+04   3.510171e+05
  -2.375965e+04   5.647187e+05
  -3.117296e+05   2.409063e+05
  -4.803884e+05  -3.652699e+05
  -1.845158e+05  -6.506033e+05
   4.041770e+05  -3.295840e+05
   6.841178e+05   2.656718e+05
   2.712375e+05   5.737924e+05
  -5.118146e+05   3.817380e+05
  -9.023730e+05  -5.662417e+04
  -4.957282e+05  -3.747722e+05
   2.901699e+05  -4.184588e+05
   6.460316e+05  -2.515656e+05
   2.610868e+05  -2.595414e+04
  -3.386745e+05   8.080217e+04
  -4.089263e+05  -4.796329e+04
   1.585302e+05  -2.906685e+05
   7.362511e+05  -2.862410e+05
