
 $NMID
 id='ANONYMOUS ', fmtdat='(2E16.6)'
 volume=1.0
 tramp=1.0
 $END
   4.232283e+07  -3.050881e+06
   2.869845e+07   2.217901e+07
  -1.385882e+06   2.864213e+07
  -1.936343e+07   1.514679e+07
  -1.422261e+07  -1.898539e+06
   7.232533e+05  -7.591930e+06
   8.138525e+06  -1.337918e+06
   4.299853e+06   7.201795e+06
  -3.374562e+06   9.243153e+06
  -7.590236e+06   3.396668e+06
  -6.176811e+06  -4.676909e+06
  -1.067335e+06  -7.363553e+06
   3.267111e+06  -2.154304e+06
   2.622283e+06   5.256217e+06
  -2.521855e+06   6.575639e+06
  -6.540596e+06   5.475912e+04
  -4.610018e+06  -7.785971e+06
   1.932495e+06  -9.778304e+06
   7.507392e+06  -5.198992e+06
   8.254929e+06   1.307773e+06
   4.820019e+06   5.330786e+06
   6.459158e+05   5.730869e+06
  -1.018922e+06   4.042130e+06
   3.909985e+05   2.773333e+06
   1.887049e+06   3.383022e+06
  -2.648407e+05   4.620691e+06
  -5.583394e+06   3.687337e+06
  -8.756730e+06  -4.915464e+04
  -5.801816e+06  -3.651461e+06
   5.460508e+05  -4.007816e+06
   3.922590e+06  -1.472592e+06
   1.919074e+06   1.068204e+06
  -1.959477e+06   1.581917e+06
  -3.487663e+06   4.101196e+04
  -2.103450e+06  -2.466992e+06
   2.033522e+05  -4.076219e+06
   1.745284e+06  -2.858188e+06
   1.829961e+06   6.496310e+05
   6.202912e+05   2.662203e+06
  -4.494151e+05   4.905107e+05
   3.259767e+05  -3.003676e+06
   2.319233e+06  -2.474127e+06
   2.464742e+06   2.239910e+06
  -7.591147e+05   5.034266e+06
  -4.445707e+06   1.581932e+06
  -4.191650e+06  -4.581898e+06
   5.505352e+05  -6.494255e+06
   5.596130e+06  -2.319148e+06
   6.434890e+06   3.281634e+06
   2.477411e+06   5.272861e+06
  -2.849424e+06   3.035296e+06
  -5.230927e+06  -6.401869e+05
  -2.968206e+06  -2.814069e+06
   1.531479e+06  -2.230074e+06
   3.844502e+06   1.887911e+05
   2.023103e+06   1.942131e+06
  -1.226029e+06   1.262664e+06
  -1.837265e+06  -7.472894e+05
   5.498195e+05  -1.340699e+06
   2.326288e+06   3.477689e+05
   7.438905e+05   2.253219e+06
  -2.681695e+06   2.119462e+06
  -4.280732e+06  -6.222882e+04
  -2.402997e+06  -2.753416e+06
   1.457637e+06  -4.516683e+06
   4.668436e+06  -4.254440e+06
   5.470094e+06  -1.391590e+06
   3.707322e+06   2.839486e+06
   8.099330e+05   5.436150e+06
  -1.139847e+06   4.566591e+06
  -1.249018e+06   1.901062e+06
  -6.751981e+05   5.361905e+05
  -1.045071e+06   1.026552e+06
  -2.294501e+06   1.123813e+06
  -2.830961e+06  -5.871563e+05
  -1.644863e+06  -2.553891e+06
   5.302167e+05  -2.410080e+06
   2.086022e+06  -2.473773e+04
   1.875701e+06   2.477786e+06
  -1.447397e+05   3.044829e+06
  -2.745284e+06   1.346930e+06
  -3.934102e+06  -1.344554e+06
  -2.621827e+06  -3.243649e+06
   1.517670e+03  -3.339045e+06
   1.617592e+06  -2.168486e+06
   1.569266e+06  -1.169797e+06
   1.529794e+06  -9.987744e+05
   2.870241e+06  -8.186560e+05
   4.372927e+06   4.537181e+05
   3.632973e+06   2.601963e+06
   2.818840e+05   4.212792e+06
  -3.272327e+06   4.044175e+06
  -4.362322e+06   2.023776e+06
  -2.615294e+06  -6.949720e+05
   4.394281e+04  -2.347833e+06
   1.342009e+06  -1.812006e+06
   5.270616e+05   1.411729e+05
  -1.185845e+06   1.295002e+06
  -1.859085e+06   4.170393e+05
  -8.142411e+05  -1.138141e+06
   6.236720e+05  -1.153599e+06
   6.641189e+05   3.806439e+05
  -7.949175e+05   1.114283e+06
  -2.030226e+06  -5.214874e+05
  -1.472173e+06  -3.132739e+06
   7.062748e+05  -3.987916e+06
   2.991686e+06  -2.113435e+06
   3.914757e+06   9.440414e+05
   2.929738e+06   2.968823e+06
   6.534131e+05   2.973539e+06
  -1.360067e+06   1.564836e+06
  -1.691901e+06   1.836684e+05
  -5.136860e+05  -3.880136e+04
   3.981717e+05   7.653923e+05
  -3.056996e+05   1.324277e+06
  -1.800645e+06   6.545906e+05
  -2.072172e+06  -7.148082e+05
  -5.260453e+05  -1.354877e+06
   1.167365e+06  -6.740611e+05
   1.059998e+06   4.506182e+05
  -8.069328e+05   7.779132e+05
  -2.482137e+06  -5.055331e+04
  -2.162850e+06  -1.406246e+06
   7.996893e+04  -2.290683e+06
   2.419625e+06  -1.939566e+06
   2.923051e+06  -3.958966e+05
   1.289079e+06   1.211367e+06
  -8.481723e+05   1.469260e+06
  -1.470735e+06   2.223321e+05
  -1.682212e+05  -1.030656e+06
   1.525465e+06  -7.767391e+05
   1.827463e+06   7.054686e+05
   5.207247e+05   1.713076e+06
  -1.023810e+06   1.188175e+06
  -1.377461e+06  -1.407084e+05
  -4.002887e+05  -7.711664e+05
   7.533183e+05  -1.123690e+05
   7.595906e+05   1.051033e+06
  -5.972440e+05   1.464661e+06
  -2.081246e+06   5.601147e+05
  -2.111959e+06  -1.067149e+06
  -4.474114e+05  -2.127488e+06
   1.410789e+06  -1.747325e+06
   1.778394e+06  -3.130084e+05
   6.011139e+05   8.721209e+05
  -6.425244e+05   8.915804e+05
  -7.316859e+05   7.727378e+04
   7.043197e+04  -5.200704e+05
   6.332395e+05  -3.520142e+05
   3.405006e+05   1.318084e+05
  -3.838047e+05   1.331585e+05
  -6.421646e+05  -5.454351e+05
   7.472945e+04  -1.231060e+06
   1.383452e+06  -1.002110e+06
   2.181762e+06   3.616755e+05
   1.565902e+06   1.983214e+06
  -1.786824e+05   2.562113e+06
  -1.688227e+06   1.609690e+06
  -1.881352e+06  -3.068452e+04
  -1.055776e+06  -1.032792e+06
  -3.621573e+05  -9.103479e+05
  -3.643602e+05  -3.435379e+05
  -5.261961e+05  -2.398676e+05
  -1.049981e+05  -6.992884e+05
   8.522636e+05  -9.949047e+05
   1.546561e+06  -4.471212e+05
   1.217790e+06   7.728815e+05
  -1.753282e+05   1.663878e+06
  -1.803269e+06   1.247566e+06
  -2.417072e+06  -4.370994e+05
  -1.309103e+06  -2.158367e+06
   8.909862e+05  -2.505876e+06
   2.564906e+06  -1.228819e+06
   2.548819e+06   5.242805e+05
   1.199712e+06   1.398038e+06
  -1.236882e+05   1.150825e+06
  -5.160358e+05   6.607235e+05
  -2.478370e+05   7.473349e+05
  -1.547105e+05   1.242832e+06
  -6.298619e+05   1.281271e+06
  -1.284295e+06   3.412894e+05
  -1.393563e+06  -1.110551e+06
  -6.062626e+05  -1.977186e+06
   6.380916e+05  -1.515691e+06
   1.361909e+06  -4.689662e+04
   9.184652e+05   1.276574e+06
  -2.888171e+05   1.473688e+06
  -1.120771e+06   5.699397e+05
  -8.749204e+05  -5.485385e+05
  -1.945045e+04  -1.053996e+06
   4.059655e+05  -8.703851e+05
   3.084142e+04  -5.031839e+05
  -4.296254e+05  -3.699062e+05
  -5.150310e+04  -4.104920e+05
   1.151391e+06  -2.700397e+05
   2.101993e+06   2.645039e+05
   1.721098e+06   1.001974e+06
   8.727395e+04   1.449609e+06
  -1.532814e+06   1.213364e+06
  -1.884151e+06   3.986772e+05
  -9.327862e+05  -3.883700e+05
   2.070746e+05  -5.537593e+05
   5.108556e+05  -9.819678e+04
   1.561442e+04   3.656126e+05
  -4.927650e+05   2.531601e+05
  -4.969020e+05  -3.488663e+05
  -1.910107e+05  -7.637191e+05
  -2.949148e+04  -4.937035e+05
  -1.605370e+05   1.590851e+05
  -3.630744e+05   3.746932e+05
  -3.110492e+05  -2.307296e+05
   1.744545e+05  -1.058986e+06
   9.141252e+05  -1.119751e+06
   1.316129e+06  -1.701839e+05
   8.119745e+05   9.293103e+05
  -4.004488e+05   1.123600e+06
  -1.242240e+06   3.064082e+05
  -7.630322e+05  -6.113354e+05
   7.047434e+05  -7.144094e+05
   1.713412e+06   2.821263e+04
   1.187611e+06   8.820022e+05
  -4.183508e+05   1.130573e+06
  -1.606534e+06   6.460969e+05
  -1.384821e+06  -1.271619e+05
  -1.908706e+05  -5.645835e+05
   6.743385e+05  -3.369866e+05
   3.876453e+05   2.716107e+05
  -6.363713e+05   5.146573e+05
  -1.227506e+06  -1.214746e+05
  -6.499319e+05  -1.248205e+06
   6.694844e+05  -1.757004e+06
   1.577810e+06  -8.977736e+05
   1.327438e+06   8.062093e+05
   2.297398e+05   1.903746e+06
  -7.692009e+05   1.421129e+06
  -1.004251e+06  -1.247383e+05
  -5.285247e+05  -1.255300e+06
   1.580116e+05  -1.077071e+06
   5.787806e+05  -1.295688e+05
   5.442371e+05   4.109883e+05
   2.238734e+05   1.688658e+05
   3.302468e+04  -1.214396e+05
   2.337308e+05   2.583281e+05
   5.306137e+05   9.929841e+05
   2.799739e+05   1.161027e+06
  -6.806526e+05   4.546994e+05
  -1.578389e+06  -4.710392e+05
  -1.426596e+06  -8.748203e+05
  -2.169533e+05  -7.250009e+05
   9.443835e+05  -4.423547e+05
   1.060543e+06  -2.246434e+05
   3.464691e+05   1.231507e+04
  -1.685043e+05   2.319532e+05
   1.768008e+04   2.578261e+05
   3.361359e+05   1.409136e+05
   3.099382e+04   1.389278e+05
  -7.557051e+05   2.228376e+05
  -1.093644e+06  -1.397996e+04
  -3.802821e+05  -6.966412e+05
   9.211925e+05  -1.206851e+06
   1.733570e+06  -7.856857e+05
   1.414387e+06   4.543834e+05
   2.839020e+05   1.484963e+06
  -7.707713e+05   1.444978e+06
  -1.090268e+06   5.425438e+05
  -6.960842e+05  -2.701527e+05
  -1.212916e+05  -3.700117e+05
   1.158993e+05  -2.684767e+04
  -7.498327e+04   6.138008e+04
  -3.520535e+05  -3.721177e+05
  -2.944811e+05  -8.535684e+05
   1.887485e+05  -7.041592e+05
   7.227613e+05   1.579567e+05
   7.514324e+05   1.022354e+06
   7.755885e+04   1.066817e+06
  -8.112735e+05   2.133017e+05
  -1.072831e+06  -7.890954e+05
  -3.481123e+05  -1.133100e+06
   7.423563e+05  -6.831690e+05
   1.150654e+06   7.308130e+04
   5.464770e+05   5.964148e+05
  -2.794644e+05   6.722188e+05
  -3.501104e+05   3.909082e+05
   3.030246e+05   3.444801e+04
   6.944107e+05  -3.986219e+04
   1.445733e+05   3.100776e+05
  -8.622826e+05   7.327413e+05
  -1.288112e+06   6.294666e+05
  -7.677268e+05  -1.303481e+05
   8.997227e+04  -8.979848e+05
   5.260799e+05  -8.995612e+05
   3.932749e+05  -1.533925e+05
   3.461383e+04   5.174136e+05
  -2.492146e+05   4.352513e+05
  -3.662949e+05  -1.912110e+05
  -2.685630e+05  -6.048911e+05
   5.236141e+04  -4.113164e+05
   4.066245e+05   5.917004e+04
   4.969572e+05   2.578866e+05
   2.620349e+05   7.301944e+04
  -2.500784e+04  -1.213520e+05
  -1.020455e+05   2.111018e+04
  -4.463645e+04   3.852408e+05
  -1.144057e+05   5.176174e+05
  -3.414957e+05   1.551840e+05
  -4.232320e+05  -4.288074e+05
  -1.010670e+05  -6.699314e+05
   4.415195e+05  -3.120821e+05
   6.704395e+05   3.058923e+05
   2.506176e+05   6.118893e+05
  -5.162786e+05   3.884573e+05
  -9.025895e+05  -8.033135e+04
  -4.973249e+05  -3.896360e+05
   2.971219e+05  -3.955482e+05
   6.506712e+05  -2.145465e+05
   2.309753e+05  -2.356363e+04
  -3.994370e+05   3.445337e+04
  -4.365740e+05  -1.098437e+05
   2.148081e+05  -3.267511e+05
   8.367194e+05  -2.801992e+05
