
 $NMID
 id='ANONYMOUS ', fmtdat='(2E16.6)'
 volume=1.0
 tramp=1.0
 $END
   5.212223e+07   2.214473e+06
   3.029327e+07   3.294700e+07
  -7.792659e+06   3.480159e+07
  -2.586247e+07   1.320381e+07
  -1.531301e+07  -6.386821e+06
   3.058801e+06  -8.580450e+06
   9.190666e+06   1.004774e+06
   2.667363e+06   9.101199e+06
  -5.823778e+06   8.912850e+06
  -9.093210e+06   1.874117e+06
  -6.407844e+06  -6.107083e+06
  -4.445773e+05  -8.260967e+06
   3.923709e+06  -2.361644e+06
   2.363172e+06   5.498980e+06
  -3.709608e+06   6.325385e+06
  -7.370225e+06  -1.349152e+06
  -3.926423e+06  -9.697267e+06
   3.862844e+06  -1.096122e+07
   9.641216e+06  -5.138581e+06
   9.939857e+06   2.418599e+06
   5.680964e+06   7.221847e+06
   1.862657e+05   7.835866e+06
  -2.713065e+06   5.277076e+06
  -1.338436e+06   2.555921e+06
   1.262136e+06   2.526427e+06
  -7.253956e+04   4.319580e+06
  -5.666947e+06   3.940423e+06
  -9.423611e+06  -1.345281e+05
  -6.471460e+06  -4.349392e+06
   2.417549e+05  -4.789581e+06
   3.922686e+06  -2.089806e+06
   2.347079e+06   4.247979e+05
  -1.013651e+06   1.135290e+06
  -2.657083e+06   2.946327e+05
  -2.132078e+06  -1.829162e+06
  -2.597956e+05  -4.026086e+06
   1.992074e+06  -3.478009e+06
   2.839040e+06   4.525927e+05
   1.198370e+06   3.464603e+06
  -8.148890e+05   1.465693e+06
  -5.452605e+04  -2.646622e+06
   2.517843e+06  -2.230629e+06
   2.270376e+06   3.029772e+06
  -2.265654e+06   5.644062e+06
  -6.249688e+06   7.743876e+05
  -4.448677e+06  -6.510373e+06
   1.979439e+06  -7.799080e+06
   7.005755e+06  -1.981735e+06
   6.548480e+06   4.450421e+06
   1.717892e+06   5.874578e+06
  -3.410942e+06   2.619203e+06
  -5.147856e+06  -1.519885e+06
  -2.394004e+06  -3.390006e+06
   2.262375e+06  -2.064319e+06
   4.260619e+06   9.451952e+05
   1.817383e+06   2.584031e+06
  -1.642362e+06   1.242358e+06
  -1.710125e+06  -1.025522e+06
   1.128839e+06  -9.557177e+05
   2.308199e+06   1.466204e+06
  -4.175109e+05   3.025007e+06
  -4.142099e+06   1.688652e+06
  -4.898998e+06  -1.259615e+06
  -2.116516e+06  -3.725421e+06
   1.972631e+06  -4.948506e+06
   5.152854e+06  -4.422681e+06
   6.073438e+06  -1.329012e+06
   4.167826e+06   3.305893e+06
   5.916207e+05   6.005109e+06
  -1.884096e+06   4.600889e+06
  -1.652784e+06   1.319965e+06
  -2.782961e+05  -1.639859e+04
  -3.279748e+05   1.026629e+06
  -1.909550e+06   1.543022e+06
  -2.858244e+06  -1.315377e+05
  -1.848405e+06  -2.222183e+06
   2.287708e+05  -2.245371e+06
   1.727608e+06  -9.657362e+04
   1.653974e+06   2.271542e+06
  -1.751018e+05   2.978345e+06
  -2.852720e+06   1.437338e+06
  -4.270438e+06  -1.463728e+06
  -2.859100e+06  -3.784049e+06
   2.522000e+05  -3.972380e+06
   2.232727e+06  -2.435278e+06
   2.096924e+06  -1.023666e+06
   1.772987e+06  -6.796373e+05
   2.942926e+06  -4.354986e+05
   4.323441e+06   8.834924e+05
   3.401483e+06   2.892280e+06
  -2.303721e+04   4.169244e+06
  -3.422434e+06   3.803821e+06
  -4.349877e+06   1.905884e+06
  -2.643894e+06  -6.299766e+05
  -8.172063e+04  -2.299699e+06
   1.270972e+06  -1.862450e+06
   5.575471e+05   9.412331e+04
  -1.185185e+06   1.262493e+06
  -1.922574e+06   3.123116e+05
  -8.362214e+05  -1.240473e+06
   6.034186e+05  -1.109488e+06
   4.778988e+05   4.037549e+05
  -1.018571e+06   7.586636e+05
  -1.831184e+06  -1.165068e+06
  -7.002643e+05  -3.413241e+06
   1.503009e+06  -3.486476e+06
   3.141100e+06  -1.238974e+06
   3.408340e+06   1.458241e+06
   2.337589e+06   2.925792e+06
   3.927675e+05   2.741064e+06
  -1.349682e+06   1.442858e+06
  -1.631273e+06   1.432543e+05
  -4.993925e+05  -6.794461e+04
   3.349511e+05   7.777959e+05
  -4.543016e+05   1.323493e+06
  -1.919984e+06   5.065601e+05
  -2.011275e+06  -9.480752e+05
  -3.537036e+05  -1.427078e+06
   1.205924e+06  -5.447662e+05
   9.181573e+05   4.976185e+05
  -8.640690e+05   5.480568e+05
  -2.252977e+06  -3.532883e+05
  -1.799945e+06  -1.455801e+06
   2.966970e+05  -2.052078e+06
   2.429895e+06  -1.629323e+06
   2.844980e+06  -1.738400e+05
   1.181892e+06   1.320584e+06
  -9.837081e+05   1.459399e+06
  -1.559245e+06   1.205471e+05
  -1.400900e+05  -1.088208e+06
   1.567802e+06  -6.790780e+05
   1.720662e+06   8.520442e+05
   3.055798e+05   1.694801e+06
  -1.128458e+06   9.820950e+05
  -1.278873e+06  -3.323598e+05
  -2.467805e+05  -7.949564e+05
   7.950416e+05  -2.910943e+04
   6.977984e+05   1.098713e+06
  -6.553308e+05   1.420503e+06
  -2.071449e+06   4.560720e+05
  -2.023329e+06  -1.162250e+06
  -3.025092e+05  -2.125337e+06
   1.525599e+06  -1.612728e+06
   1.763854e+06  -1.529115e+05
   4.879618e+05   9.008050e+05
  -6.990769e+05   7.996206e+05
  -6.671933e+05   4.866135e+04
   1.219409e+05  -3.953500e+05
   5.368369e+05  -2.243993e+05
   1.744528e+05   8.242578e+04
  -4.278108e+05  -5.113899e+04
  -5.158620e+05  -6.706189e+05
   2.347728e+05  -1.195391e+06
   1.437577e+06  -8.613557e+05
   2.104390e+06   5.055310e+05
   1.409324e+06   2.041578e+06
  -3.247685e+05   2.466844e+06
  -1.712552e+06   1.395581e+06
  -1.742732e+06  -1.829881e+05
  -8.721010e+05  -9.744829e+05
  -3.055249e+05  -7.338526e+05
  -4.474274e+05  -2.771936e+05
  -5.918935e+05  -3.322255e+05
  -5.591499e+04  -7.603288e+05
   9.210132e+05  -8.879546e+05
   1.498064e+06  -2.877794e+05
   1.064779e+06   7.883615e+05
  -3.016259e+05   1.507269e+06
  -1.805876e+06   1.041363e+06
  -2.284647e+06  -5.832821e+05
  -1.084283e+06  -2.185622e+06
   1.104635e+06  -2.369404e+06
   2.618651e+06  -9.633976e+05
   2.384441e+06   7.449074e+05
   9.577298e+05   1.406484e+06
  -2.301682e+05   9.903698e+05
  -4.435499e+05   5.343703e+05
  -1.551651e+05   7.600040e+05
  -1.815541e+05   1.301586e+06
  -7.306978e+05   1.266194e+06
  -1.319534e+06   2.640710e+05
  -1.312678e+06  -1.161598e+06
  -4.843327e+05  -1.958559e+06
   6.994326e+05  -1.440287e+06
   1.314824e+06   5.148900e+04
   7.821945e+05   1.331792e+06
  -4.373166e+05   1.406401e+06
  -1.180525e+06   3.893269e+05
  -7.960843e+05  -7.085364e+05
   1.449944e+05  -1.072023e+06
   5.482520e+05  -7.806422e+05
   9.169203e+04  -4.343876e+05
  -4.218288e+05  -3.677993e+05
  -4.099259e+04  -3.964675e+05
   1.169925e+06  -1.701921e+05
   2.075734e+06   4.192233e+05
   1.606486e+06   1.115305e+06
  -7.946904e+04   1.448430e+06
  -1.646914e+06   1.090933e+06
  -1.873058e+06   2.202308e+05
  -8.377638e+05  -5.140835e+05
   2.798589e+05  -5.579549e+05
   5.170077e+05  -2.342402e+04
   6.339539e+03   4.157294e+05
  -4.707533e+05   2.406113e+05
  -4.744016e+05  -3.695894e+05
  -2.107685e+05  -7.531701e+05
  -6.156484e+04  -4.939163e+05
  -1.465051e+05   1.029539e+05
  -3.111838e+05   3.013132e+05
  -2.747353e+05  -2.468237e+05
   1.940293e+05  -1.006721e+06
   9.614035e+05  -1.047834e+06
   1.377841e+06  -1.120324e+05
   8.128911e+05   9.690218e+05
  -4.705151e+05   1.130996e+06
  -1.286939e+06   2.775876e+05
  -7.231766e+05  -6.204532e+05
   7.402503e+05  -6.361810e+05
   1.625368e+06   1.562614e+05
   1.011416e+06   9.207052e+05
  -5.218526e+05   1.002885e+06
  -1.555966e+06   4.466035e+05
  -1.265323e+06  -2.366787e+05
  -1.227975e+05  -5.346914e+05
   6.737221e+05  -2.546123e+05
   3.764607e+05   3.122646e+05
  -6.252764e+05   5.040726e+05
  -1.205436e+06  -1.393810e+05
  -6.287563e+05  -1.239395e+06
   6.831428e+05  -1.714273e+06
   1.559275e+06  -8.400571e+05
   1.254969e+06   8.295063e+05
   1.340918e+05   1.845067e+06
  -8.109339e+05   1.300741e+06
  -9.422930e+05  -2.126735e+05
  -3.989593e+05  -1.237642e+06
   2.575334e+05  -9.876333e+05
   5.771380e+05  -6.609298e+04
   4.667951e+05   4.067796e+05
   1.669541e+05   1.490524e+05
   5.180749e+04  -9.720985e+04
   2.678319e+05   3.105502e+05
   4.806613e+05   1.009072e+06
   1.574053e+05   1.113512e+06
  -7.419607e+05   3.766219e+05
  -1.493277e+06  -5.357057e+05
  -1.282384e+06  -9.085434e+05
  -1.620464e+05  -7.222047e+05
   8.941155e+05  -3.956694e+05
   1.016734e+06  -1.488458e+05
   3.651296e+05   6.721836e+04
  -1.590035e+05   2.253749e+05
  -4.190631e+04   2.097963e+05
   2.703798e+05   1.079822e+05
   4.603465e+04   1.387007e+05
  -6.893168e+05   2.164881e+05
  -1.072558e+06  -5.185697e+04
  -4.157340e+05  -7.265126e+05
   9.082561e+05  -1.175814e+06
   1.770910e+06  -7.110639e+05
   1.430716e+06   4.956125e+05
   2.299532e+05   1.452202e+06
  -8.378357e+05   1.381891e+06
  -1.096518e+06   5.134515e+05
  -6.637904e+05  -2.618292e+05
  -1.244128e+05  -3.727123e+05
   7.413601e+04  -6.669559e+04
  -8.379003e+04   1.323376e+04
  -2.937313e+05  -3.883391e+05
  -2.230756e+05  -8.377534e+05
   2.082389e+05  -6.906474e+05
   6.943326e+05   1.465814e+05
   7.262837e+05   1.000552e+06
   8.574355e+04   1.063071e+06
  -7.795854e+05   2.317004e+05
  -1.038217e+06  -7.718624e+05
  -3.220208e+05  -1.130203e+06
   7.547474e+05  -6.732065e+05
   1.146771e+06   1.145196e+05
   5.256503e+05   6.496362e+05
  -3.188081e+05   6.891485e+05
  -4.053230e+05   3.644193e+05
   2.498335e+05   1.574491e+04
   6.666223e+05  -1.868325e+04
   1.409931e+05   3.220201e+05
  -8.702556e+05   6.669101e+05
  -1.313525e+06   5.063318e+05
  -7.793718e+05  -2.125200e+05
   1.287368e+05  -8.901281e+05
   6.001177e+05  -8.602852e+05
   4.472371e+05  -1.541081e+05
   4.165425e+04   4.917020e+05
  -2.595554e+05   4.413112e+05
  -3.565588e+05  -1.582319e+05
  -2.420040e+05  -6.006858e+05
   6.770254e+04  -4.409949e+05
   4.000891e+05   5.675570e+04
   4.797100e+05   3.074158e+05
   2.451542e+05   1.101068e+05
  -3.217981e+04  -1.592960e+05
  -8.247502e+04  -5.521099e+04
   7.942952e+03   3.606499e+05
  -5.996525e+04   5.695973e+05
  -3.322704e+05   2.236364e+05
  -4.655148e+05  -3.985767e+05
  -1.494171e+05  -6.699145e+05
   4.265518e+05  -3.125696e+05
   6.768519e+05   3.048531e+05
   2.451730e+05   5.946102e+05
  -5.343663e+05   3.592803e+05
  -9.069899e+05  -1.036431e+05
  -4.811969e+05  -4.029755e+05
   3.147883e+05  -4.058242e+05
   6.653330e+05  -2.190024e+05
   2.625892e+05  -1.126826e+04
  -3.509999e+05   6.499522e+04
  -4.142228e+05  -7.084373e+04
   1.754574e+05  -2.897848e+05
   7.616896e+05  -2.563190e+05
