
 $NMID
 id='ANONYMOUS ', fmtdat='(2E16.6)'
 volume=1.0
 tramp=1.0
 $END
  -1.384517e+07   1.063105e+06
  -9.504016e+06  -6.601554e+06
   3.699057e+04  -9.101344e+06
   6.022157e+06  -5.510833e+06
   4.778177e+06   1.203159e+04
   2.069574e+04   2.618024e+06
  -2.785395e+06   9.843120e+05
  -1.890738e+06  -2.270088e+06
   7.479815e+05  -3.521856e+06
   2.531941e+06  -1.507149e+06
   2.242783e+06   1.672381e+06
   3.796349e+05   2.754921e+06
  -1.310679e+06   7.323104e+05
  -1.172533e+06  -2.068449e+06
   6.663427e+05  -2.556145e+06
   2.205642e+06  -2.217571e+05
   1.673293e+06   2.552016e+06
  -5.554604e+05   3.258608e+06
  -2.498101e+06   1.652110e+06
  -2.686538e+06  -5.978902e+05
  -1.381239e+06  -1.847672e+06
   1.039607e+03  -1.738905e+06
   2.640199e+05  -1.060904e+06
  -5.195257e+05  -8.392983e+05
  -1.010157e+06  -1.374545e+06
   5.552704e+04  -1.917650e+06
   2.211288e+06  -1.456006e+06
   3.374802e+06   4.565147e+04
   2.139924e+06   1.439223e+06
  -3.869221e+05   1.592449e+06
  -1.725804e+06   5.536685e+05
  -8.418525e+05  -6.194391e+05
   9.016403e+05  -9.105602e+05
   1.607926e+06  -9.579843e+04
   8.826015e+05   1.160684e+06
  -2.537397e+05   1.722411e+06
  -7.918115e+05   9.246747e+05
  -5.542941e+05  -5.248257e+05
   6.049316e+02  -1.017003e+06
   2.508375e+05   6.677217e+04
  -1.414294e+05   1.333016e+06
  -8.248308e+05   9.935944e+05
  -9.174163e+05  -7.147586e+05
   2.463263e+04  -1.669686e+06
   1.239132e+06  -5.688971e+05
   1.369457e+06   1.399000e+06
  -2.656828e+04   2.067795e+06
  -1.826862e+06   8.221311e+05
  -2.371458e+06  -1.004404e+06
  -1.083248e+06  -1.828811e+06
   9.562491e+05  -1.244326e+06
   1.992372e+06   3.190723e+04
   1.217849e+06   9.577965e+05
  -4.724752e+05   8.905288e+05
  -1.385883e+06   3.978784e+04
  -7.785911e+05  -6.673988e+05
   4.153880e+05  -5.015779e+05
   7.471525e+05   2.358753e+05
  -3.902562e+04   5.853705e+05
  -8.025509e+05   1.207471e+05
  -4.775958e+05  -5.911735e+05
   6.598582e+05  -7.486841e+05
   1.377867e+06  -1.451427e+05
   8.639559e+05   8.285545e+05
  -5.303029e+05   1.576775e+06
  -1.753075e+06   1.530788e+06
  -2.001928e+06   4.598013e+05
  -1.281839e+06  -1.090126e+06
  -2.683784e+05  -2.005570e+06
   3.245780e+05  -1.694637e+06
   3.543752e+05  -7.859296e+05
   2.735690e+05  -3.350289e+05
   5.303874e+05  -4.895635e+05
   1.015880e+06  -4.425507e+05
   1.189047e+06   2.944831e+05
   6.940310e+05   1.116536e+06
  -2.369351e+05   1.077403e+06
  -9.478517e+05   8.003713e+04
  -8.664980e+05  -1.000768e+06
   2.782751e+04  -1.246669e+06
   1.092967e+06  -5.181006e+05
   1.476200e+06   5.579742e+05
   8.933465e+05   1.208715e+06
  -5.695700e+04   1.137859e+06
  -5.473530e+05   6.815567e+05
  -4.716012e+05   3.882436e+05
  -4.861577e+05   4.198301e+05
  -1.038764e+06   4.114118e+05
  -1.652317e+06  -5.281601e+04
  -1.438313e+06  -9.107885e+05
  -2.082161e+05  -1.623025e+06
   1.193582e+06  -1.636337e+06
   1.705432e+06  -8.413542e+05
   1.062674e+06   2.894806e+05
  -2.072429e+04   9.743264e+05
  -5.737122e+05   7.387341e+05
  -2.441185e+05  -7.251561e+04
   4.579753e+05  -5.514177e+05
   7.355199e+05  -2.042509e+05
   3.275744e+05   4.478138e+05
  -2.580593e+05   5.131929e+05
  -3.405682e+05  -9.922761e+04
   1.835811e+05  -5.176056e+05
   7.528362e+05  -1.494968e+04
   7.314045e+05   1.039708e+06
  -6.413265e+03   1.579513e+06
  -1.003028e+06   1.022927e+06
  -1.575918e+06  -1.792846e+05
  -1.300740e+06  -1.095515e+06
  -3.610161e+05  -1.185329e+06
   5.203310e+05  -6.422394e+05
   6.853098e+05  -8.522849e+04
   2.042050e+05   1.389231e+04
  -1.863194e+05  -2.878828e+05
   6.712968e+04  -5.160807e+05
   6.670749e+05  -3.021164e+05
   8.317221e+05   2.067716e+05
   2.711759e+05   5.155612e+05
  -4.294325e+05   3.357546e+05
  -4.757591e+05  -1.148854e+05
   2.300250e+05  -3.590261e+05
   9.669356e+05  -1.182311e+05
   9.394859e+05   4.611498e+05
   7.703129e+04   9.249204e+05
  -8.948537e+05   8.517723e+05
  -1.147442e+06   2.288879e+05
  -5.313317e+05  -4.476053e+05
   3.034896e+05  -5.826939e+05
   5.642617e+05  -1.063331e+05
   8.296716e+04   4.036351e+05
  -5.785383e+05   3.468084e+05
  -7.435401e+05  -2.181582e+05
  -2.769134e+05  -6.625784e+05
   3.506798e+05  -5.291162e+05
   5.635143e+05  -2.090114e+04
   2.227210e+05   2.872871e+05
  -2.607174e+05   9.275844e+04
  -3.228091e+05  -3.605383e+05
   1.829795e+05  -5.709482e+05
   7.854438e+05  -2.630004e+05
   8.406479e+05   3.675516e+05
   2.225487e+05   8.177164e+05
  -5.089456e+05   7.152915e+05
  -6.984508e+05   1.655395e+05
  -2.799610e+05  -3.384378e+05
   2.234845e+05  -3.926874e+05
   3.212138e+05  -6.430873e+04
   3.580296e+04   2.313107e+05
  -2.334476e+05   2.053956e+05
  -1.881027e+05  -1.574056e+04
   8.807467e+04  -8.308570e+04
   2.457061e+05   1.517228e+05
   1.742006e+04   4.485567e+05
  -4.936595e+05   4.132927e+05
  -8.439396e+05  -8.528406e+04
  -6.448734e+05  -7.305038e+05
   1.880658e+04  -1.009983e+06
   6.302829e+05  -6.898944e+05
   7.577662e+05  -4.495389e+04
   4.705298e+05   4.083214e+05
   1.760173e+05   4.112316e+05
   1.182694e+05   1.712504e+05
   1.579691e+05   7.321719e+04
   3.111886e+04   2.332709e+05
  -2.966184e+05   3.866739e+05
  -5.728667e+05   2.124794e+05
  -4.934788e+05  -2.699669e+05
   1.278860e+04  -6.577159e+05
   6.584171e+05  -5.332916e+05
   9.489021e+05   1.070305e+05
   5.758778e+05   7.942325e+05
  -2.557872e+05   9.854035e+05
  -9.441377e+05   5.536435e+05
  -1.017209e+06  -1.142813e+05
  -5.462597e+05  -5.115774e+05
  -1.044822e+04  -4.860540e+05
   2.065147e+05  -3.090384e+05
   1.333211e+05  -3.030076e+05
   6.949660e+04  -4.641325e+05
   2.185785e+05  -4.887497e+05
   4.802903e+05  -1.487696e+05
   5.605294e+05   4.090149e+05
   2.760146e+05   7.624910e+05
  -2.211224e+05   6.093605e+05
  -5.344668e+05   5.958383e+04
  -3.940436e+05  -4.579389e+05
   5.517355e+04  -5.733001e+05
   3.873309e+05  -2.727801e+05
   3.373216e+05   1.456312e+05
   5.855199e+04   3.744677e+05
  -9.244827e+04   3.457199e+05
   1.895183e+04   2.144623e+05
   1.606063e+05   1.485023e+05
   1.723312e+04   1.595477e+05
  -4.215074e+05   1.245390e+05
  -7.896522e+05  -5.710275e+04
  -6.845157e+05  -3.363775e+05
  -9.380761e+04  -5.340813e+05
   5.369820e+05  -4.895134e+05
   7.136458e+05  -2.138215e+05
   3.786703e+05   9.195677e+04
  -5.822871e+04   1.973558e+05
  -1.821801e+05   5.983166e+04
   1.106034e+04  -1.187321e+05
   2.073853e+05  -9.541708e+04
   1.922457e+05   1.344874e+05
   5.376244e+04   3.083680e+05
  -8.578967e+03   1.997392e+05
   5.874493e+04  -8.033128e+04
   1.447299e+05  -1.791439e+05
   1.190111e+05   7.158529e+04
  -6.315126e+04   4.142557e+05
  -3.241020e+05   4.394077e+05
  -4.658717e+05   6.703591e+04
  -2.945288e+05  -3.486057e+05
   1.381744e+05  -4.128588e+05
   4.600570e+05  -1.059682e+05
   3.021208e+05   2.371722e+05
  -2.556948e+05   2.935149e+05
  -6.784540e+05   3.390018e+04
  -5.132903e+05  -3.094538e+05
   1.126198e+05  -4.650726e+05
   6.154096e+05  -3.217847e+05
   5.644195e+05  -2.783051e+03
   1.019770e+05   2.213900e+05
  -2.507501e+05   1.612656e+05
  -1.479064e+05  -8.757223e+04
   2.518747e+05  -2.004453e+05
   4.808901e+05   4.631330e+04
   2.495623e+05   4.914531e+05
  -2.687641e+05   6.909397e+05
  -6.239434e+05   3.559635e+05
  -5.321952e+05  -3.097192e+05
  -1.143473e+05  -7.511316e+05
   2.775434e+05  -5.852149e+05
   3.974066e+05   1.144796e+04
   2.491919e+05   4.752036e+05
  -1.085654e+04   4.353574e+05
  -2.114089e+05   7.309613e+04
  -2.409390e+05  -1.507064e+05
  -1.156967e+05  -6.450765e+04
  -2.723519e+03   5.528865e+04
  -6.324792e+04  -8.542624e+04
  -2.140022e+05  -3.764342e+05
  -1.583667e+05  -4.547294e+05
   2.287546e+05  -1.919427e+05
   6.332025e+05   1.600688e+05
   5.992663e+05   3.172695e+05
   9.771915e+04   2.738129e+05
  -3.867594e+05   1.873374e+05
  -4.191946e+05   1.143376e+05
  -1.145514e+05   1.096077e+04
   7.322534e+04  -9.407564e+04
  -3.648136e+04  -1.108162e+05
  -1.625999e+05  -5.854364e+04
  -4.743274e+03  -5.369534e+04
   3.222549e+05  -9.135564e+04
   4.255499e+05  -2.836847e+03
   1.171010e+05   2.680592e+05
  -3.738676e+05   4.731477e+05
  -6.529747e+05   3.076907e+05
  -5.266066e+05  -1.812195e+05
  -1.190659e+05  -5.838069e+05
   2.754165e+05  -5.632958e+05
   4.186448e+05  -2.071117e+05
   2.807963e+05   1.089799e+05
   4.162279e+04   1.418818e+05
  -7.010311e+04  -1.096830e+03
   1.632792e+04  -4.233756e+04
   1.545899e+05   1.291931e+05
   1.403795e+05   3.273405e+05
  -6.868969e+04   2.748164e+05
  -2.937938e+05  -6.767071e+04
  -2.957685e+05  -4.113137e+05
  -1.348457e+04  -4.199420e+05
   3.367164e+05  -7.009717e+04
   4.249012e+05   3.230430e+05
   1.310006e+05   4.409616e+05
  -2.898913e+05   2.559289e+05
  -4.377937e+05  -2.451379e+04
  -2.027413e+05  -2.086029e+05
   1.008445e+05  -2.403002e+05
   1.086012e+05  -1.497025e+05
  -1.450241e+05  -1.836429e+04
  -2.770876e+05   1.979336e+04
  -5.007463e+04  -1.159362e+05
   3.288601e+05  -3.007329e+05
   4.738380e+05  -2.775765e+05
   2.753198e+05   2.678237e+04
  -2.874609e+04   3.441163e+05
  -1.759899e+05   3.450634e+05
  -1.298711e+05   4.245504e+04
  -6.979457e+03  -2.142219e+05
   9.940961e+04  -1.595748e+05
   1.495630e+05   9.316079e+04
   1.081266e+05   2.351085e+05
  -2.497215e+04   1.421551e+05
  -1.607851e+05  -2.847978e+04
  -1.880337e+05  -8.140291e+04
  -1.011182e+05  -1.246539e+04
  -2.057071e+03   3.118335e+04
   3.429845e+04  -4.530288e+04
   4.188354e+04  -1.703374e+05
   8.685027e+04  -1.862491e+05
   1.526478e+05  -2.568067e+04
   1.446054e+05   1.948409e+05
   7.113048e+03   2.705924e+05
  -1.825397e+05   1.168549e+05
  -2.521578e+05  -1.299165e+05
  -9.394314e+04  -2.469383e+05
   1.913781e+05  -1.526452e+05
   3.420507e+05   3.392138e+04
   1.924123e+05   1.489232e+05
  -1.148814e+05   1.417974e+05
  -2.506692e+05   6.942766e+04
  -7.391507e+04   4.333712e+03
   1.841661e+05  -4.404836e+03
   1.868701e+05   6.233421e+04
  -9.852228e+04   1.492354e+05
  -3.589258e+05   1.227484e+05
