
 $NMID
 id='ANONYMOUS ', fmtdat='(2E16.6)'
 volume=1.0
 tramp=1.0
 $END
  -6.094134e+07  -2.114593e+05
  -3.631034e+07  -3.844176e+07
   8.675910e+06  -4.140931e+07
   3.016183e+07  -1.515967e+07
   1.758220e+07   8.286660e+06
  -3.923355e+06   1.004886e+07
  -1.055250e+07  -1.787102e+06
  -2.582562e+06  -1.065575e+07
   7.008562e+06  -9.682039e+06
   1.040819e+07  -1.788560e+06
   7.391050e+06   6.669009e+06
   8.127972e+05   9.090095e+06
  -4.225588e+06   2.965595e+06
  -2.687100e+06  -5.607762e+06
   4.154016e+06  -6.732620e+06
   8.414654e+06   1.646845e+06
   4.587743e+06   1.100734e+07
  -4.227557e+06   1.259841e+07
  -1.090681e+07   6.296610e+06
  -1.166662e+07  -2.171904e+06
  -7.271826e+06  -8.079015e+06
  -8.404817e+05  -9.515188e+06
   3.333238e+06  -6.738869e+06
   2.427812e+06  -2.838862e+06
  -8.869777e+05  -1.957845e+06
  -3.535820e+05  -4.138872e+06
   5.452641e+06  -4.639316e+06
   1.005905e+07  -6.613142e+05
   7.504577e+06   4.283501e+06
   4.843726e+05   5.382467e+06
  -3.707359e+06   2.869868e+06
  -2.609278e+06   2.874790e+05
   3.390886e+05  -7.504211e+05
   2.034742e+06  -5.479906e+05
   2.218626e+06   1.225631e+06
   9.047070e+05   3.947464e+06
  -1.815211e+06   4.170231e+06
  -3.602229e+06   7.932775e+04
  -2.039579e+06  -3.893202e+06
   8.048716e+05  -2.310193e+06
   4.752411e+05   2.359746e+06
  -2.560914e+06   2.321556e+06
  -2.538327e+06  -3.490764e+06
   2.824003e+06  -6.596728e+06
   7.704530e+06  -1.010950e+06
   5.539966e+06   7.585447e+06
  -2.189144e+06   9.243426e+06
  -8.013886e+06   2.563719e+06
  -7.274589e+06  -4.812008e+06
  -1.766969e+06  -6.382298e+06
   3.724697e+06  -2.724680e+06
   5.432194e+06   1.777356e+06
   2.384276e+06   3.758267e+06
  -2.681674e+06   2.278532e+06
  -4.822222e+06  -1.091189e+06
  -2.010074e+06  -2.970465e+06
   1.868358e+06  -1.446155e+06
   1.772037e+06   1.125341e+06
  -1.548934e+06   8.821481e+05
  -2.635068e+06  -2.106897e+06
   8.824211e+05  -3.850934e+06
   5.184817e+06  -1.982004e+06
   5.714884e+06   1.639907e+06
   2.402839e+06   4.354587e+06
  -1.903413e+06   5.571808e+06
  -5.193810e+06   5.096481e+06
  -6.496686e+06   1.886816e+06
  -4.897461e+06  -3.277815e+06
  -1.016324e+06  -6.487535e+06
   2.072767e+06  -4.967063e+06
   1.959504e+06  -1.123498e+06
   9.438017e+04   4.569311e+05
  -2.606658e+05  -9.448076e+05
   1.468290e+06  -1.949497e+06
   2.850907e+06  -4.225066e+05
   2.138852e+06   1.835870e+06
   1.325653e+05   2.125898e+06
  -1.476009e+06   2.243000e+05
  -1.663111e+06  -2.063662e+06
  -2.471533e+04  -2.992067e+06
   2.840874e+06  -1.766172e+06
   4.707570e+06   1.174494e+06
   3.461046e+06   3.957262e+06
  -1.231960e+04   4.544266e+06
  -2.465742e+06   2.942506e+06
  -2.447856e+06   1.190110e+06
  -1.972934e+06   6.431816e+05
  -3.068032e+06   4.130225e+05
  -4.493200e+06  -8.698516e+05
  -3.562942e+06  -2.911621e+06
  -8.086237e+04  -4.251535e+06
   3.318945e+06  -3.982547e+06
   4.272406e+06  -2.190538e+06
   2.740490e+06   3.786106e+05
   3.461419e+05   2.269996e+06
  -1.082300e+06   2.013163e+06
  -5.864088e+05  -1.258895e+04
   1.107407e+06  -1.350628e+06
   1.988349e+06  -4.045900e+05
   9.792163e+05   1.261283e+06
  -5.173245e+05   1.137682e+06
  -3.872757e+05  -4.202714e+05
   1.193953e+06  -6.339963e+05
   1.917310e+06   1.531079e+06
   4.764830e+05   3.739085e+06
  -1.903908e+06   3.432915e+06
  -3.344305e+06   9.056651e+05
  -3.298342e+06  -1.663512e+06
  -2.171737e+06  -2.853132e+06
  -3.890505e+05  -2.627538e+06
   1.268242e+06  -1.481232e+06
   1.606687e+06  -2.350663e+05
   5.066178e+05   5.264275e+04
  -3.580617e+05  -7.821015e+05
   4.625898e+05  -1.403046e+06
   2.017865e+06  -5.800368e+05
   2.111050e+06   9.797719e+05
   3.605119e+05   1.500395e+06
  -1.229782e+06   5.617770e+05
  -8.770961e+05  -4.902152e+05
   9.134791e+05  -4.697316e+05
   2.201231e+06   4.358860e+05
   1.689835e+06   1.431896e+06
  -3.344865e+05   1.971386e+06
  -2.396165e+06   1.624648e+06
  -2.853894e+06   2.291798e+05
  -1.245125e+06  -1.342251e+06
   9.808676e+05  -1.573959e+06
   1.652449e+06  -1.878843e+05
   2.177270e+05   1.138491e+06
  -1.583418e+06   7.500137e+05
  -1.761178e+06  -8.512221e+05
  -2.869349e+05  -1.718443e+06
   1.176929e+06  -9.557590e+05
   1.285550e+06   3.899377e+05
   2.072873e+05   8.299941e+05
  -8.482768e+05   3.981315e+04
  -7.585651e+05  -1.104081e+06
   6.016068e+05  -1.471048e+06
   2.075861e+06  -5.502733e+05
   2.097008e+06   1.102045e+06
   3.708904e+05   2.154953e+06
  -1.524881e+06   1.679714e+06
  -1.793759e+06   1.776362e+05
  -4.900205e+05  -9.148067e+05
   7.020089e+05  -8.100598e+05
   6.315318e+05  -7.047776e+04
  -1.507950e+05   3.303328e+05
  -4.798553e+05   1.622408e+05
  -5.633741e+04  -6.309519e+04
   5.010889e+05   1.421203e+05
   5.075552e+05   7.505120e+05
  -2.640455e+05   1.233027e+06
  -1.452806e+06   8.960600e+05
  -2.143767e+06  -4.624135e+05
  -1.488965e+06  -2.027797e+06
   2.550279e+05  -2.484581e+06
   1.680587e+06  -1.401980e+06
   1.708977e+06   1.803428e+05
   8.203140e+05   9.090501e+05
   2.972599e+05   6.035637e+05
   5.238267e+05   1.840594e+05
   6.894988e+05   3.449426e+05
   9.232834e+04   8.188752e+05
  -9.313520e+05   9.089239e+05
  -1.489402e+06   2.882829e+05
  -1.035750e+06  -7.526491e+05
   3.037662e+05  -1.462400e+06
   1.786520e+06  -1.052177e+06
   2.293799e+06   5.380922e+05
   1.116519e+06   2.189076e+06
  -1.109185e+06   2.429588e+06
  -2.663698e+06   1.003645e+06
  -2.397565e+06  -7.528579e+05
  -9.109981e+05  -1.398248e+06
   2.587561e+05  -9.261745e+05
   3.774058e+05  -4.743010e+05
   2.879732e+04  -7.762956e+05
   9.028725e+04  -1.381104e+06
   7.156288e+05  -1.348526e+06
   1.355881e+06  -3.230288e+05
   1.374173e+06   1.124683e+06
   5.557613e+05   1.955732e+06
  -6.522688e+05   1.472706e+06
  -1.320815e+06  -2.668610e+04
  -8.106820e+05  -1.351771e+06
   4.500491e+05  -1.438365e+06
   1.240265e+06  -3.693044e+05
   8.345381e+05   7.836380e+05
  -1.767960e+05   1.139880e+06
  -6.115062e+05   7.953414e+05
  -1.139597e+05   4.090212e+05
   4.510608e+05   3.394665e+05
   6.307893e+04   3.906640e+05
  -1.203540e+06   1.969929e+05
  -2.146317e+06  -3.761116e+05
  -1.655102e+06  -1.104838e+06
   8.553449e+04  -1.503146e+06
   1.686732e+06  -1.168778e+06
   1.904975e+06  -2.419902e+05
   8.439289e+05   5.613784e+05
  -2.910488e+05   6.035564e+05
  -5.397597e+05   1.224230e+04
  -4.135464e+04  -4.586144e+05
   4.447613e+05  -2.685902e+05
   4.978835e+05   3.559494e+05
   2.857706e+05   7.362675e+05
   1.245436e+05   4.907240e+05
   1.400253e+05  -7.347736e+04
   2.672687e+05  -2.688534e+05
   2.750553e+05   2.463811e+05
  -1.400428e+05   1.002479e+06
  -9.384027e+05   1.095588e+06
  -1.442853e+06   1.916695e+05
  -9.086959e+05  -9.467884e+05
   4.365823e+05  -1.201715e+06
   1.320267e+06  -3.704915e+05
   7.556599e+05   5.853941e+05
  -7.392523e+05   6.539645e+05
  -1.619856e+06  -1.365330e+05
  -9.792802e+05  -9.116697e+05
   5.458526e+05  -9.848778e+05
   1.540822e+06  -4.247132e+05
   1.235371e+06   2.387674e+05
   1.130242e+05   5.228768e+05
  -6.768692e+05   2.524885e+05
  -4.055019e+05  -3.179614e+05
   5.881916e+05  -5.512822e+05
   1.220947e+06   6.256195e+04
   7.191719e+05   1.204627e+06
  -5.742618e+05   1.764556e+06
  -1.511612e+06   9.310023e+05
  -1.290658e+06  -7.710581e+05
  -2.035709e+05  -1.835151e+06
   7.700283e+05  -1.304482e+06
   9.433116e+05   2.146783e+05
   4.068589e+05   1.233309e+06
  -2.696278e+05   9.751704e+05
  -5.898809e+05   6.699824e+04
  -4.494999e+05  -3.859173e+05
  -1.369746e+05  -1.335572e+05
  -6.244832e+04   8.856204e+04
  -3.296130e+05  -3.253199e+05
  -5.343978e+05  -1.005494e+06
  -1.518961e+05  -1.103927e+06
   7.800118e+05  -3.953514e+05
   1.507141e+06   4.860033e+05
   1.275152e+06   8.688414e+05
   1.817664e+05   7.270999e+05
  -8.475489e+05   4.300729e+05
  -1.001092e+06   1.696959e+05
  -3.984478e+05  -7.536700e+04
   1.377424e+05  -2.348256e+05
   7.677842e+04  -1.919361e+05
  -2.300711e+05  -7.583553e+04
  -6.840115e+04  -1.343175e+05
   6.355792e+05  -2.582269e+05
   1.083373e+06  -1.581464e+03
   5.096986e+05   7.192655e+05
  -8.241687e+05   1.240054e+06
  -1.779399e+06   8.144116e+05
  -1.509137e+06  -4.160998e+05
  -3.039861e+05  -1.440509e+06
   7.992097e+05  -1.434301e+06
   1.080991e+06  -5.878533e+05
   6.694567e+05   2.126015e+05
   1.583924e+05   3.695962e+05
  -3.318260e+04   9.488423e+04
   9.850764e+04   1.290049e+04
   2.896991e+05   3.922529e+05
   2.387377e+05   8.329818e+05
  -1.728168e+05   7.106495e+05
  -6.935369e+05  -9.044836e+04
  -7.941055e+05  -9.460270e+05
  -1.763538e+05  -1.067347e+06
   7.465034e+05  -3.044655e+05
   1.086398e+06   6.942546e+05
   3.969359e+05   1.123225e+06
  -7.227843e+05   7.375740e+05
  -1.176537e+06  -5.568104e+04
  -5.788165e+05  -6.589750e+05
   2.940635e+05  -7.431108e+05
   4.263470e+05  -3.922155e+05
  -2.133416e+05   8.094583e+03
  -6.583964e+05   5.181261e+04
  -1.679976e+05  -3.246140e+05
   8.468617e+05  -6.995645e+05
   1.331490e+06  -5.337573e+05
   8.297538e+05   2.106708e+05
  -8.918986e+04   9.140383e+05
  -6.003037e+05   9.046609e+05
  -4.799303e+05   2.015020e+05
  -8.182015e+04  -4.757964e+05
   2.346725e+05  -4.742799e+05
   3.615460e+05   1.103042e+05
   2.732870e+05   5.916366e+05
  -3.963660e+04   4.765311e+05
  -4.051928e+05  -2.527681e+04
  -5.070420e+05  -3.122374e+05
  -2.516470e+05  -1.217130e+05
   5.689762e+04   1.849616e+05
   8.710744e+04   1.074758e+05
  -7.004317e+04  -3.385313e+05
  -3.218974e+04  -6.103438e+05
   3.009415e+05  -3.005706e+05
   5.288043e+05   3.384904e+05
   2.392197e+05   6.593262e+05
  -3.970819e+05   3.485904e+05
  -7.150657e+05  -2.537557e+05
  -2.888963e+05  -5.722428e+05
   5.314989e+05  -3.889374e+05
   9.352886e+05   4.923607e+04
   5.107107e+05   3.829383e+05
  -2.980280e+05   4.469254e+05
  -6.672067e+05   2.805161e+05
  -2.901822e+05   2.885093e+04
   3.109310e+05  -1.072633e+05
   4.030331e+05   1.496456e+04
  -1.331833e+05   2.745816e+05
  -7.026250e+05   2.903102e+05
