
 $NMID
 id='ANONYMOUS ', fmtdat='(2E16.6)'
 volume=1.0
 tramp=1.0
 $END
   3.834631e+07  -1.236964e+06
   2.490703e+07   2.046711e+07
  -2.029917e+06   2.534565e+07
  -1.742770e+07   1.328285e+07
  -1.251949e+07  -1.557076e+06
   6.481041e+05  -6.643579e+06
   7.159774e+06  -1.314730e+06
   3.883533e+06   6.326820e+06
  -2.886575e+06   8.360065e+06
  -6.774103e+06   3.094491e+06
  -5.581640e+06  -4.387148e+06
  -8.898533e+05  -6.834771e+06
   3.111816e+06  -1.895643e+06
   2.490187e+06   4.967879e+06
  -2.235335e+06   6.077662e+06
  -5.871095e+06   1.959853e+04
  -4.066893e+06  -7.114845e+06
   1.916762e+06  -8.825110e+06
   6.967160e+06  -4.511506e+06
   7.489442e+06   1.525786e+06
   4.094511e+06   5.111580e+06
   1.834904e+05   5.160255e+06
  -1.067928e+06   3.351689e+06
   6.302386e+05   2.299216e+06
   2.083127e+06   3.219292e+06
  -2.165114e+05   4.526884e+06
  -5.426897e+06   3.489247e+06
  -8.325454e+06  -2.033260e+05
  -5.336169e+06  -3.589649e+06
   7.448930e+05  -3.828812e+06
   3.914561e+06  -1.336827e+06
   1.940300e+06   1.204847e+06
  -1.897473e+06   1.790314e+06
  -3.514843e+06   1.963002e+05
  -2.168161e+06  -2.460386e+06
   2.414955e+05  -4.038035e+06
   1.796570e+06  -2.620689e+06
   1.686822e+06   8.815964e+05
   3.401429e+05   2.599220e+06
  -6.146347e+05   2.701481e+05
   2.812427e+05  -3.020835e+06
   2.156540e+06  -2.361563e+06
   2.210329e+06   2.018340e+06
  -6.985154e+05   4.420957e+06
  -3.877807e+06   1.194610e+06
  -3.548743e+06  -4.244215e+06
   6.723416e+05  -5.761645e+06
   5.142930e+06  -1.936662e+06
   5.903170e+06   3.055305e+06
   2.327941e+06   4.830954e+06
  -2.581937e+06   2.836926e+06
  -4.839089e+06  -4.983668e+05
  -2.790451e+06  -2.508968e+06
   1.347076e+06  -1.993979e+06
   3.472833e+06   1.909995e+05
   1.822009e+06   1.744408e+06
  -1.124659e+06   1.118467e+06
  -1.717786e+06  -6.573810e+05
   3.707391e+05  -1.200085e+06
   1.980281e+06   1.988279e+05
   6.732182e+05   1.805986e+06
  -2.309324e+06   1.748506e+06
  -3.769564e+06  -6.546419e+04
  -2.118783e+06  -2.471388e+06
   1.448696e+06  -4.176368e+06
   4.482433e+06  -3.957856e+06
   5.181920e+06  -1.199801e+06
   3.402239e+06   2.789540e+06
   6.675680e+05   5.115366e+06
  -1.020982e+06   4.218696e+06
  -1.021869e+06   1.806720e+06
  -5.720636e+05   6.753554e+05
  -1.095490e+06   1.152251e+06
  -2.353771e+06   1.115130e+06
  -2.824922e+06  -6.312850e+05
  -1.630912e+06  -2.546215e+06
   5.109288e+05  -2.406729e+06
   2.065422e+06  -9.509716e+04
   1.875057e+06   2.359460e+06
  -1.239996e+05   2.930176e+06
  -2.651294e+06   1.256850e+06
  -3.716943e+06  -1.362839e+06
  -2.366531e+06  -3.116192e+06
   1.221818e+05  -3.081095e+06
   1.548856e+06  -1.911907e+06
   1.416465e+06  -1.019957e+06
   1.371932e+06  -9.410481e+05
   2.667109e+06  -8.119227e+05
   4.115403e+06   3.815095e+05
   3.453710e+06   2.422286e+06
   3.110525e+05   3.989896e+06
  -3.082942e+06   3.881303e+06
  -4.176024e+06   1.958448e+06
  -2.527154e+06  -6.863940e+05
   4.957651e+04  -2.293726e+06
   1.313123e+06  -1.752591e+06
   5.131792e+05   1.481721e+05
  -1.135113e+06   1.247647e+06
  -1.756464e+06   3.967073e+05
  -7.555052e+05  -1.088159e+06
   5.923372e+05  -1.118396e+06
   6.536998e+05   3.209091e+05
  -6.577227e+05   1.060336e+06
  -1.826922e+06  -3.834071e+05
  -1.438884e+06  -2.805613e+06
   4.744419e+05  -3.712451e+06
   2.662618e+06  -2.099302e+06
   3.708846e+06   7.358188e+05
   2.896780e+06   2.729849e+06
   7.094036e+05   2.830587e+06
  -1.284617e+06   1.521591e+06
  -1.626655e+06   1.937906e+05
  -4.895309e+05  -3.094073e+04
   3.862413e+05   7.207993e+05
  -2.784455e+05   1.238898e+06
  -1.684703e+06   6.168130e+05
  -1.945347e+06  -6.484638e+05
  -5.077880e+05  -1.254564e+06
   1.088866e+06  -6.519963e+05
   1.023722e+06   3.969505e+05
  -7.190500e+05   7.603958e+05
  -2.346241e+06   3.522304e+04
  -2.110703e+06  -1.267483e+06
  -6.461144e+01  -2.182628e+06
   2.258774e+06  -1.897421e+06
   2.771661e+06  -4.215043e+05
   1.226520e+06   1.129243e+06
  -7.994095e+05   1.382247e+06
  -1.381005e+06   2.038861e+05
  -1.502710e+05  -9.779183e+05
   1.441129e+06  -7.465798e+05
   1.735962e+06   6.392310e+05
   5.285257e+05   1.601048e+06
  -9.260812e+05   1.141725e+06
  -1.291706e+06  -9.151929e+04
  -3.962210e+05  -7.031037e+05
   7.005074e+05  -1.056614e+05
   7.244528e+05   9.935736e+05
  -5.612734e+05   1.400230e+06
  -1.981664e+06   5.496626e+05
  -2.019510e+06  -9.990108e+05
  -4.450294e+05  -2.014982e+06
   1.315345e+06  -1.669064e+06
   1.676336e+06  -3.217050e+05
   5.840773e+05   8.094709e+05
  -5.909860e+05   8.541309e+05
  -7.042086e+05   9.174695e+04
   3.452626e+04  -5.023081e+05
   5.920355e+05  -3.741287e+05
   3.578716e+05   9.536225e+04
  -3.227893e+05   1.388561e+05
  -6.036495e+05  -4.828794e+05
   4.713180e+04  -1.152777e+06
   1.294989e+06  -9.666478e+05
   2.075751e+06   3.170098e+05
   1.509328e+06   1.868658e+06
  -1.362843e+05   2.443606e+06
  -1.574589e+06   1.566829e+06
  -1.792030e+06   1.824847e+04
  -1.050663e+06  -9.594859e+05
  -3.958291e+05  -8.842801e+05
  -3.565510e+05  -3.585942e+05
  -4.774032e+05  -2.368382e+05
  -9.160728e+04  -6.558032e+05
   7.897467e+05  -9.538665e+05
   1.459425e+06  -4.580245e+05
   1.186348e+06   7.093480e+05
  -1.203945e+05   1.591370e+06
  -1.690552e+06   1.221989e+06
  -2.308229e+06  -3.768949e+05
  -1.276727e+06  -2.024528e+06
   8.051497e+05  -2.377111e+06
   2.403017e+06  -1.197480e+06
   2.420614e+06   4.442921e+05
   1.179132e+06   1.289946e+06
  -7.085986e+04   1.101426e+06
  -4.766317e+05   6.670453e+05
  -2.532757e+05   7.395047e+05
  -1.611505e+05   1.183449e+06
  -5.929338e+05   1.211010e+06
  -1.214904e+06   3.275162e+05
  -1.337619e+06  -1.046405e+06
  -5.993683e+05  -1.878115e+06
   5.916992e+05  -1.452691e+06
   1.293548e+06  -6.549459e+04
   8.851358e+05   1.192220e+06
  -2.473615e+05   1.391470e+06
  -1.030777e+06   5.538046e+05
  -8.132067e+05  -4.927831e+05
  -3.173737e+04  -9.743797e+05
   3.549407e+05  -8.142859e+05
   7.162784e+03  -4.779206e+05
  -4.149693e+05  -3.553605e+05
  -5.365319e+04  -3.948492e+05
   1.083976e+06  -2.656178e+05
   1.990972e+06   2.340070e+05
   1.642485e+06   9.275851e+05
   1.009926e+05   1.356937e+06
  -1.436135e+06   1.153361e+06
  -1.774100e+06   4.043280e+05
  -8.787884e+05  -3.385814e+05
   1.929531e+05  -5.155290e+05
   4.739525e+05  -1.009285e+05
   4.053582e+03   3.446616e+05
  -4.744097e+05   2.502867e+05
  -4.760971e+05  -3.288509e+05
  -1.836038e+05  -7.418074e+05
  -2.428119e+04  -4.830927e+05
  -1.433375e+05   1.627935e+05
  -3.390143e+05   3.807427e+05
  -2.997449e+05  -2.128818e+05
   1.551354e+05  -1.021547e+06
   8.601562e+05  -1.074238e+06
   1.247598e+06  -1.538357e+05
   7.714556e+05   8.921435e+05
  -3.811579e+05   1.064461e+06
  -1.185270e+06   2.863566e+05
  -7.366785e+05  -5.793169e+05
   6.571879e+05  -6.878030e+05
   1.630096e+06  -6.058380e+03
   1.153613e+06   8.051085e+05
  -3.625705e+05   1.078542e+06
  -1.506857e+06   6.547346e+05
  -1.321258e+06  -8.375409e+04
  -1.978191e+05  -5.312931e+05
   6.304462e+05  -3.329943e+05
   3.644928e+05   2.549239e+05
  -6.124117e+05   4.986049e+05
  -1.180358e+06  -1.113892e+05
  -6.289347e+05  -1.199040e+06
   6.352275e+05  -1.693161e+06
   1.509212e+06  -8.738862e+05
   1.280379e+06   7.582629e+05
   2.437614e+05   1.817993e+06
  -7.094512e+05   1.371604e+06
  -9.533329e+05  -9.694130e+04
  -5.261273e+05  -1.181170e+06
   1.214339e+05  -1.023603e+06
   5.428999e+05  -1.313744e+05
   5.332431e+05   3.787600e+05
   2.263068e+05   1.516421e+05
   2.405146e+04  -1.151598e+05
   2.086530e+05   2.514264e+05
   5.116596e+05   9.434358e+05
   2.931862e+05   1.094802e+06
  -6.308537e+05   4.313086e+05
  -1.513982e+06  -4.281543e+05
  -1.381223e+06  -8.064190e+05
  -2.149191e+05  -6.860364e+05
   9.047404e+05  -4.422049e+05
   1.008791e+06  -2.339521e+05
   3.187276e+05   1.062275e+04
  -1.619602e+05   2.262200e+05
   3.479812e+04   2.396366e+05
   3.386623e+05   1.243322e+05
   2.793887e+04   1.375410e+05
  -7.341380e+05   2.301694e+05
  -1.046809e+06  -5.625806e+03
  -3.545126e+05  -6.766126e+05
   8.827766e+05  -1.167977e+06
   1.649010e+06  -7.543035e+05
   1.350461e+06   4.386031e+05
   2.855521e+05   1.421679e+06
  -7.218831e+05   1.382200e+06
  -1.043418e+06   5.230461e+05
  -6.757384e+05  -2.544429e+05
  -1.153036e+05  -3.570612e+05
   1.257759e+05  -3.118395e+04
  -5.995358e+04   6.226497e+04
  -3.412555e+05  -3.433102e+05
  -2.941966e+05  -8.073684e+05
   1.773078e+05  -6.748256e+05
   7.017697e+05   1.475863e+05
   7.305286e+05   9.820611e+05
   7.352077e+04   1.030014e+06
  -7.895245e+05   2.100585e+05
  -1.040484e+06  -7.549817e+05
  -3.376672e+05  -1.086062e+06
   7.121859e+05  -6.554675e+05
   1.099003e+06   6.625427e+04
   5.153816e+05   5.644354e+05
  -2.697669e+05   6.360359e+05
  -3.253927e+05   3.658759e+05
   3.022215e+05   2.287765e+04
   6.670955e+05  -4.653358e+04
   1.365166e+05   2.967400e+05
  -8.149653e+05   7.102588e+05
  -1.209548e+06   6.124694e+05
  -7.186648e+05  -1.201064e+05
   8.150097e+04  -8.565978e+05
   4.903131e+05  -8.527705e+05
   3.732930e+05  -1.344780e+05
   3.812152e+04   5.029960e+05
  -2.408792e+05   4.159320e+05
  -3.615756e+05  -1.859155e+05
  -2.619699e+05  -5.771845e+05
   5.624421e+04  -3.892817e+05
   3.929160e+05   5.615463e+04
   4.685859e+05   2.394172e+05
   2.454276e+05   6.253262e+04
  -1.414531e+04  -1.144520e+05
  -8.238127e+04   3.325805e+04
  -4.337550e+04   3.862152e+05
  -1.290662e+05   5.056915e+05
  -3.463654e+05   1.438022e+05
  -4.097693e+05  -4.268715e+05
  -9.132706e+04  -6.569489e+05
   4.274510e+05  -3.036604e+05
   6.450825e+05   2.970710e+05
   2.454329e+05   5.903720e+05
  -4.889020e+05   3.725617e+05
  -8.633919e+05  -7.688466e+04
  -4.772524e+05  -3.706001e+05
   2.871302e+05  -3.753729e+05
   6.264387e+05  -2.020147e+05
   2.161437e+05  -1.636391e+04
  -3.973201e+05   4.084748e+04
  -4.320918e+05  -1.052428e+05
   2.028301e+05  -3.278715e+05
   8.088804e+05  -2.894079e+05
