
 $NMID
 id='ANONYMOUS ', fmtdat='(2E16.6)'
 volume=1.0
 tramp=1.0
 $END
  -2.013410e+07  -9.907165e+05
  -1.275142e+07  -1.014375e+07
   7.921523e+05  -1.261753e+07
   8.945067e+06  -7.871924e+06
   7.101816e+06  -4.836592e+05
   2.572836e+05   3.540956e+06
  -4.019155e+06   1.613082e+06
  -2.873201e+06  -3.253366e+06
   1.093882e+06  -5.392280e+06
   3.783781e+06  -2.297178e+06
   3.175903e+06   2.718468e+06
   2.944534e+05   4.243119e+06
  -2.005912e+06   8.340030e+05
  -1.506695e+06  -3.526421e+06
   1.258348e+06  -4.051882e+06
   3.350539e+06  -2.535357e+05
   2.348337e+06   4.034757e+06
  -1.104684e+06   4.966649e+06
  -3.966072e+06   2.234572e+06
  -3.918561e+06  -1.351987e+06
  -1.560049e+06  -2.975232e+06
   4.586271e+05  -2.276276e+06
   2.445452e+05  -1.149532e+06
  -1.402945e+06  -1.423952e+06
  -1.829304e+06  -2.843271e+06
   5.471349e+05  -3.445489e+06
   4.142810e+06  -1.902576e+06
   5.491143e+06   8.764274e+05
   2.958063e+06   2.687404e+06
  -1.193487e+06   2.261156e+06
  -3.039970e+06   2.730706e+05
  -1.176023e+06  -1.507498e+06
   1.976928e+06  -1.630368e+06
   3.098620e+06   9.376083e+04
   1.486760e+06   2.323982e+06
  -7.585059e+05   2.998898e+06
  -1.469832e+06   1.287867e+06
  -5.516540e+05  -1.113875e+06
   5.002743e+05  -1.513950e+06
   4.554461e+05   5.457088e+05
  -5.846492e+05   2.444145e+06
  -1.537178e+06   1.627229e+06
  -1.363197e+06  -1.071587e+06
   3.429864e+04  -2.376270e+06
   1.547414e+06  -6.481488e+05
   1.608520e+06   2.153969e+06
  -3.235307e+05   2.918913e+06
  -2.859432e+06   8.797052e+05
  -3.641804e+06  -1.923738e+06
  -1.630434e+06  -3.073357e+06
   1.612506e+06  -1.958942e+06
   3.265154e+06   1.553955e+05
   2.024795e+06   1.512081e+06
  -6.215843e+05   1.256760e+06
  -2.031785e+06  -2.487462e+04
  -1.147492e+06  -9.376726e+05
   6.248365e+05  -6.306717e+05
   1.191340e+06   3.978457e+05
   9.250862e+04   9.363615e+05
  -1.153370e+06   4.086486e+05
  -8.902650e+05  -5.935601e+05
   7.708882e+05  -1.006524e+06
   2.023533e+06  -2.718326e+05
   1.279284e+06   1.251684e+06
  -1.127543e+06   2.480720e+06
  -3.233065e+06   2.266279e+06
  -3.396105e+06   3.633236e+05
  -1.820787e+06  -2.062646e+06
  -9.297407e+04  -3.294804e+06
   5.932011e+05  -2.739098e+06
   4.810570e+05  -1.479140e+06
   5.786230e+05  -8.723960e+05
   1.314285e+06  -9.037257e+05
   2.099493e+06  -4.457374e+05
   2.055955e+06   9.538775e+05
   9.205490e+05   2.194429e+06
  -6.976083e+05   1.851429e+06
  -1.722069e+06  -5.110535e+04
  -1.345221e+06  -1.904128e+06
   2.768291e+05  -2.116407e+06
   1.941288e+06  -6.146468e+05
   2.311296e+06   1.257324e+06
   1.179274e+06   2.119998e+06
  -3.103428e+05   1.735667e+06
  -9.271925e+05   9.380103e+05
  -7.243728e+05   5.895410e+05
  -8.244422e+05   7.104575e+05
  -1.830478e+06   5.999355e+05
  -2.838741e+06  -3.038021e+05
  -2.357825e+06  -1.755017e+06
  -1.201493e+05  -2.827130e+06
   2.344030e+06  -2.651053e+06
   3.108253e+06  -1.157121e+06
   1.748499e+06   7.288012e+05
  -2.764945e+05   1.692104e+06
  -1.126499e+06   1.135647e+06
  -3.475499e+05  -1.817495e+05
   8.977924e+05  -8.253163e+05
   1.220757e+06  -2.005372e+05
   4.195283e+05   7.757770e+05
  -5.111583e+05   7.859225e+05
  -5.542338e+05  -2.216797e+05
   3.284083e+05  -8.782911e+05
   1.251523e+06  -3.616665e+04
   1.231452e+06   1.758170e+06
  -7.771203e+03   2.742625e+06
  -1.764482e+06   1.807197e+06
  -2.787363e+06  -3.690228e+05
  -2.238492e+06  -2.057940e+06
  -5.075859e+05  -2.158159e+06
   1.010068e+06  -1.066296e+06
   1.203682e+06  -5.365232e+04
   3.489788e+05   3.798758e+04
  -2.579255e+05  -5.214967e+05
   1.995051e+05  -8.298241e+05
   1.140837e+06  -3.777963e+05
   1.324129e+06   4.510021e+05
   3.584479e+05   8.501867e+05
  -7.733103e+05   4.556082e+05
  -7.793306e+05  -2.987513e+05
   4.812394e+05  -6.192019e+05
   1.749908e+06  -8.997240e+04
   1.625309e+06   9.494164e+05
   2.512795e+04   1.656423e+06
  -1.677524e+06   1.374001e+06
  -2.007204e+06   2.469857e+05
  -8.312122e+05  -8.063797e+05
   5.887210e+05  -9.009400e+05
   9.226896e+05  -8.370726e+04
   3.758113e+04   6.673893e+05
  -1.036301e+06   4.751002e+05
  -1.223542e+06  -4.718062e+05
  -3.941904e+05  -1.144948e+06
   6.352451e+05  -8.494366e+05
   9.330323e+05   2.114728e+04
   3.202479e+05   4.825227e+05
  -4.629260e+05   6.587869e+04
  -4.701776e+05  -7.191573e+05
   4.591018e+05  -9.709172e+05
   1.437192e+06  -3.098900e+05
   1.398661e+06   7.856007e+05
   2.558757e+05   1.439383e+06
  -9.625309e+05   1.148775e+06
  -1.193000e+06   2.052697e+05
  -4.194288e+05  -5.787644e+05
   4.304561e+05  -6.096576e+05
   5.438993e+05  -4.470135e+04
  -1.183530e+03   4.224916e+05
  -4.814677e+05   3.247211e+05
  -3.636399e+05  -8.741157e+04
   1.702342e+05  -1.798218e+05
   4.438713e+05   2.823433e+05
  -1.243883e+04   8.037520e+05
  -9.303197e+05   6.669191e+05
  -1.471770e+06  -2.754116e+05
  -1.019506e+06  -1.374619e+06
   1.693935e+05  -1.758657e+06
   1.177906e+06  -1.126404e+06
   1.331355e+06  -3.838368e+03
   8.043915e+05   7.587564e+05
   2.905237e+05   7.582608e+05
   1.899445e+05   3.431290e+05
   2.600630e+05   1.618961e+05
   3.234141e+04   4.245606e+05
  -5.675935e+05   6.710665e+05
  -1.068593e+06   3.268754e+05
  -8.839660e+05  -5.505131e+05
   9.138818e+04  -1.194351e+06
   1.248879e+06  -8.717773e+05
   1.666838e+06   3.216871e+05
   8.918460e+05   1.472101e+06
  -5.892222e+05   1.671134e+06
  -1.710366e+06   8.259397e+05
  -1.745395e+06  -3.248085e+05
  -8.927992e+05  -9.490799e+05
   3.077231e+04  -8.564479e+05
   4.070941e+05  -5.352238e+05
   2.977114e+05  -5.213136e+05
   2.013926e+05  -7.887784e+05
   4.481829e+05  -8.050846e+05
   8.515853e+05  -1.817658e+05
   9.136308e+05   7.972800e+05
   3.656910e+05   1.368782e+06
  -4.765733e+05   1.024500e+06
  -9.347220e+05   2.109190e+04
  -6.137976e+05  -8.516629e+05
   1.734672e+05  -9.819517e+05
   6.984828e+05  -4.165256e+05
   5.555737e+05   2.946408e+05
   4.788014e+04   6.484539e+05
  -2.050665e+05   5.777841e+05
   1.238024e+04   3.696993e+05
   2.740350e+05   2.843220e+05
   1.798724e+04   2.917791e+05
  -7.584614e+05   1.655283e+05
  -1.382858e+06  -2.146646e+05
  -1.146967e+06  -6.886955e+05
  -7.426449e+04  -9.381300e+05
   1.011961e+06  -7.644725e+05
   1.262247e+06  -2.682274e+05
   6.321825e+05   2.076045e+05
  -1.318942e+05   3.336877e+05
  -3.246501e+05   8.155441e+04
   2.900881e+04  -2.121775e+05
   3.682628e+05  -1.549413e+05
   3.236816e+05   2.525912e+05
   6.427918e+04   5.538170e+05
  -3.971194e+04   3.533930e+05
   1.105282e+05  -1.435379e+05
   2.863705e+05  -3.037233e+05
   2.165823e+05   1.557216e+05
  -1.638226e+05   7.445332e+05
  -6.483585e+05   7.350437e+05
  -8.488333e+05   3.778008e+04
  -4.726165e+05  -6.696418e+05
   3.100690e+05  -7.093039e+05
   8.319452e+05  -1.220369e+05
   5.040491e+05   4.542194e+05
  -4.807409e+05   4.814520e+05
  -1.188832e+06  -1.917344e+04
  -8.631831e+05  -5.973124e+05
   2.463996e+05  -7.980685e+05
   1.110534e+06  -4.891657e+05
   9.859075e+05   6.407808e+04
   1.502727e+05   3.971881e+05
  -4.565443e+05   2.415597e+05
  -2.384545e+05  -1.812889e+05
   4.789846e+05  -3.181934e+05
   8.428845e+05   1.527516e+05
   3.725825e+05   9.033289e+05
  -5.633337e+05   1.182519e+06
  -1.140957e+06   5.486570e+05
  -8.953660e+05  -6.069055e+05
  -1.089432e+05  -1.329788e+06
   5.565100e+05  -9.901357e+05
   6.913103e+05   7.214900e+04
   3.709149e+05   8.637557e+05
  -8.132663e+04   7.543307e+05
  -3.836136e+05   9.287218e+04
  -4.011400e+05  -2.956007e+05
  -1.902410e+05  -1.249133e+05
  -8.647729e+03   9.129739e+04
  -9.636270e+04  -1.698759e+05
  -3.208689e+05  -6.900490e+05
  -2.137235e+05  -8.050462e+05
   4.262420e+05  -2.948507e+05
   1.085689e+06   3.603966e+05
   1.006487e+06   6.260411e+05
   1.362472e+05   4.946479e+05
  -6.996665e+05   2.871284e+05
  -7.473362e+05   1.477210e+05
  -2.021748e+05  -1.415884e+03
   1.372373e+05  -1.552386e+05
  -5.492085e+04  -1.902269e+05
  -2.808675e+05  -1.201673e+05
  -1.348991e+02  -1.036409e+05
   5.811594e+05  -1.272878e+05
   7.505140e+05   5.490715e+04
   1.721709e+05   4.984411e+05
  -7.192623e+05   7.879321e+05
  -1.192429e+06   4.508553e+05
  -9.096178e+05  -3.930692e+05
  -1.368123e+05  -1.043535e+06
   5.630759e+05  -9.549303e+05
   7.729346e+05  -3.104669e+05
   4.845854e+05   2.306017e+05
   5.255350e+04   2.622521e+05
  -1.273230e+05  -2.987272e+03
   3.101513e+04  -6.818751e+04
   2.502789e+05   2.472200e+05
   1.969968e+05   5.917358e+05
  -1.623358e+05   4.717658e+05
  -5.095883e+05  -1.592517e+05
  -4.669098e+05  -7.636988e+05
   3.026141e+04  -7.440842e+05
   6.029519e+05  -8.523479e+04
   7.099645e+05   6.203882e+05
   1.751659e+05   7.957655e+05
  -5.474270e+05   4.165112e+05
  -7.713965e+05  -1.037767e+05
  -3.255849e+05  -4.032055e+05
   2.195967e+05  -4.132993e+05
   2.189335e+05  -2.403715e+05
  -2.514103e+05  -3.914353e+04
  -4.917336e+05   2.066078e+03
  -7.427542e+04  -2.135348e+05
   6.150530e+05  -4.839983e+05
   8.649375e+05  -4.164770e+05
   4.772211e+05   9.111404e+04
  -9.706223e+04   6.006029e+05
  -3.588116e+05   5.785899e+05
  -2.424162e+05   5.480270e+04
   9.743897e+03  -3.792260e+05
   1.981708e+05  -2.719668e+05
   2.571525e+05   1.786323e+05
   1.605189e+05   4.279880e+05
  -6.673465e+04   2.510117e+05
  -2.804821e+05  -6.997105e+04
  -3.154952e+05  -1.711878e+05
  -1.724381e+05  -3.605337e+04
  -1.169938e+04   6.034982e+04
   5.635495e+04  -6.999367e+04
   8.790523e+04  -2.993949e+05
   1.765643e+05  -3.301599e+05
   2.791271e+05  -3.504593e+04
   2.397619e+05   3.640844e+05
  -1.538292e+04   4.861473e+05
  -3.373254e+05   1.869930e+05
  -4.333858e+05  -2.629147e+05
  -1.373788e+05  -4.491287e+05
   3.588073e+05  -2.426835e+05
   6.015325e+05   1.067599e+05
   3.191615e+05   2.884171e+05
  -2.244200e+05   2.352679e+05
  -4.536909e+05   9.020401e+04
  -1.325943e+05  -4.211717e+03
   3.238185e+05   9.408538e+03
   3.229365e+05   1.274663e+05
  -1.860030e+05   2.505204e+05
  -6.405498e+05   1.767716e+05
