
 $NMID
 id='ANONYMOUS ', fmtdat='(2E16.6)'
 volume=1.0
 tramp=1.0
 $END
  -4.671141e+07   1.530501e+06
  -2.975771e+07  -2.663907e+07
   3.873061e+06  -3.147798e+07
   2.202104e+07  -1.444745e+07
   1.461545e+07   3.820682e+06
  -1.727637e+06   7.998455e+06
  -8.517639e+06   2.976724e+05
  -3.563697e+06  -7.962643e+06
   4.351132e+06  -8.998129e+06
   8.153668e+06  -2.749964e+06
   6.324709e+06   5.158135e+06
   9.408842e+05   7.661564e+06
  -3.479877e+06   2.319175e+06
  -2.582255e+06  -5.207266e+06
   2.917218e+06  -6.397167e+06
   6.868251e+06   4.934966e+05
   4.409693e+06   8.523186e+06
  -2.613861e+06   1.029963e+07
  -8.340154e+06   5.319990e+06
  -9.045766e+06  -1.603268e+06
  -5.369071e+06  -6.081321e+06
  -5.824649e+05  -6.729244e+06
   1.769217e+06  -4.668506e+06
   4.539575e+05  -2.605172e+06
  -1.616262e+06  -2.809416e+06
   2.027552e+04  -4.379575e+06
   5.410129e+06  -3.919812e+06
   8.944985e+06  -1.716373e+05
   6.155874e+06   3.774013e+06
  -2.524293e+05   4.354616e+06
  -3.797200e+06   1.882367e+06
  -2.133643e+06  -6.459295e+05
   1.373293e+06  -1.362030e+06
   2.971601e+06  -2.753402e+05
   2.148983e+06   2.007040e+06
   1.775476e+05   3.965759e+06
  -1.744449e+06   3.189076e+06
  -2.347584e+06  -4.632510e+05
  -1.002811e+06  -3.013289e+06
   6.138212e+05  -1.019452e+06
  -2.819882e+04   2.761425e+06
  -2.307117e+06   2.369812e+06
  -2.384485e+06  -2.544676e+06
   1.397757e+06  -5.298334e+06
   5.286949e+06  -1.266591e+06
   4.401737e+06   5.401916e+06
  -1.101565e+06   7.100741e+06
  -6.179449e+06   2.274840e+06
  -6.482517e+06  -3.651830e+06
  -2.187544e+06  -5.425710e+06
   3.006570e+06  -2.841695e+06
   5.109909e+06   9.429655e+05
   2.689901e+06   2.977792e+06
  -1.827793e+06   2.141539e+06
  -4.000402e+06  -4.745170e+05
  -1.931697e+06  -2.184781e+06
   1.388808e+06  -1.262265e+06
   1.754844e+06   8.272299e+05
  -8.146086e+05   1.125184e+06
  -2.288298e+06  -8.729926e+05
  -1.761669e+05  -2.609260e+06
   3.354333e+06  -1.939761e+06
   4.540609e+06   5.666058e+05
   2.295601e+06   3.149734e+06
  -1.560896e+06   4.712109e+06
  -4.703976e+06   4.413199e+06
  -5.645895e+06   1.506020e+06
  -3.974168e+06  -2.916172e+06
  -8.488240e+05  -5.610806e+06
   1.374431e+06  -4.534807e+06
   1.382808e+06  -1.594397e+06
   4.334722e+05  -2.512411e+05
   6.103394e+05  -1.037374e+06
   2.010733e+06  -1.394207e+06
   2.807234e+06   2.479268e+05
   1.794843e+06   2.276645e+06
  -2.894014e+05   2.286700e+06
  -1.851695e+06   1.194897e+05
  -1.791042e+06  -2.265568e+06
   6.824847e+04  -2.953286e+06
   2.707688e+06  -1.451766e+06
   4.079387e+06   1.259566e+06
   2.802285e+06   3.386823e+06
  -2.676646e+04   3.615321e+06
  -1.845556e+06   2.325717e+06
  -1.786097e+06   1.123865e+06
  -1.603144e+06   8.589699e+05
  -2.834092e+06   6.864451e+05
  -4.282285e+06  -5.418374e+05
  -3.522312e+06  -2.598593e+06
  -2.406493e+05  -4.103544e+06
   3.169893e+06  -3.940083e+06
   4.211116e+06  -2.054497e+06
   2.599180e+06   5.680040e+05
   9.368559e+04   2.276747e+06
  -1.221856e+06   1.841668e+06
  -5.344452e+05  -9.887631e+04
   1.125488e+06  -1.286916e+06
   1.844548e+06  -4.066098e+05
   8.430481e+05   1.146151e+06
  -5.674447e+05   1.122479e+06
  -5.614585e+05  -3.706354e+05
   8.721480e+05  -9.276210e+05
   1.908236e+06   7.995112e+05
   1.127992e+06   3.186324e+06
  -1.003694e+06   3.670392e+06
  -2.958173e+06   1.696434e+06
  -3.601268e+06  -1.085247e+06
  -2.645846e+06  -2.803293e+06
  -5.898409e+05  -2.774153e+06
   1.280880e+06  -1.511248e+06
   1.620302e+06  -2.097309e+05
   4.968794e+05   3.764077e+04
  -3.790843e+05  -7.467369e+05
   3.412481e+05  -1.309015e+06
   1.812361e+06  -6.164549e+05
   2.021657e+06   7.661511e+05
   4.616259e+05   1.353241e+06
  -1.148993e+06   6.246786e+05
  -9.772285e+05  -4.400378e+05
   8.035595e+05  -6.667800e+05
   2.318929e+06   1.390135e+05
   1.970936e+06   1.344979e+06
  -1.279886e+05   2.124207e+06
  -2.323283e+06   1.809517e+06
  -2.814352e+06   3.569411e+05
  -1.243095e+06  -1.207996e+06
   8.606670e+05  -1.461206e+06
   1.482982e+06  -2.075357e+05
   1.797792e+05   1.036835e+06
  -1.497132e+06   7.547433e+05
  -1.756986e+06  -7.172704e+05
  -4.453566e+05  -1.656145e+06
   1.027121e+06  -1.084773e+06
   1.303093e+06   2.022924e+05
   3.309182e+05   7.592829e+05
  -7.617191e+05   8.732128e+04
  -7.454309e+05  -1.037003e+06
   5.741059e+05  -1.434205e+06
   2.022151e+06  -5.575484e+05
   2.058291e+06   1.034834e+06
   4.255104e+05   2.073547e+06
  -1.393445e+06   1.684876e+06
  -1.726907e+06   2.742658e+05
  -5.531573e+05  -8.531714e+05
   6.358569e+05  -8.433689e+05
   6.802897e+05  -7.969992e+04
  -8.455354e+04   4.473723e+05
  -5.623789e+05   2.949022e+05
  -2.492349e+05  -9.588817e+04
   3.990601e+05  -4.581683e+04
   5.821135e+05   5.834781e+05
  -1.206629e+05   1.193680e+06
  -1.357157e+06   9.518407e+05
  -2.112215e+06  -3.656019e+05
  -1.514060e+06  -1.930534e+06
   1.759054e+05  -2.468550e+06
   1.621460e+06  -1.514996e+06
   1.772462e+06   5.568463e+04
   9.668849e+05   9.497421e+05
   3.504566e+05   7.854997e+05
   4.126139e+05   2.877553e+05
   5.616255e+05   2.675117e+05
   1.008965e+05   7.165282e+05
  -8.423462e+05   9.470472e+05
  -1.479594e+06   4.022083e+05
  -1.138023e+06  -7.295071e+05
   1.892113e+05  -1.555555e+06
   1.734461e+06  -1.170044e+06
   2.315731e+06   4.339860e+05
   1.229967e+06   2.095006e+06
  -9.143433e+05   2.415294e+06
  -2.510867e+06   1.141762e+06
  -2.429948e+06  -5.573202e+05
  -1.088455e+06  -1.342053e+06
   1.459307e+05  -1.047038e+06
   4.480691e+05  -5.944342e+05
   1.691231e+05  -7.459667e+05
   1.264341e+05  -1.255638e+06
   6.325671e+05  -1.269331e+06
   1.269180e+06  -3.333472e+05
   1.358173e+06   1.074721e+06
   5.895309e+05   1.912050e+06
  -6.133200e+05   1.466186e+06
  -1.310374e+06   3.374904e+04
  -8.674648e+05  -1.255958e+06
   3.192028e+05  -1.420278e+06
   1.117226e+06  -4.967070e+05
   8.354862e+05   5.991158e+05
  -3.700805e+04   1.046050e+06
  -4.502890e+05   8.202373e+05
  -4.910970e+04   4.577538e+05
   4.291078e+05   3.475579e+05
   5.818339e+04   3.933640e+05
  -1.132519e+06   2.478007e+05
  -2.058912e+06  -2.771949e+05
  -1.659395e+06  -9.924313e+05
  -3.993453e+04  -1.422006e+06
   1.529894e+06  -1.173802e+06
   1.832360e+06  -3.523609e+05
   8.773602e+05   4.223005e+05
  -2.250453e+05   5.534544e+05
  -5.027146e+05   7.199166e+04
  -2.366870e+04  -3.852417e+05
   4.623679e+05  -2.566695e+05
   4.862540e+05   3.374323e+05
   2.225924e+05   7.359741e+05
   6.225554e+04   4.822850e+05
   1.456101e+05  -1.304704e+05
   3.176894e+05  -3.382601e+05
   2.941367e+05   2.258122e+05
  -1.481929e+05   1.016523e+06
  -8.883892e+05   1.089844e+06
  -1.321087e+06   1.789088e+05
  -8.277227e+05  -9.071375e+05
   3.949222e+05  -1.120435e+06
   1.233280e+06  -3.256687e+05
   7.460222e+05   5.805824e+05
  -6.890155e+05   6.808256e+05
  -1.635076e+06  -4.473528e+04
  -1.097012e+06  -8.516029e+05
   4.331868e+05  -1.054164e+06
   1.531061e+06  -5.745198e+05
   1.298884e+06   1.431005e+05
   1.671426e+05   5.326137e+05
  -6.521396e+05   3.065030e+05
  -3.835066e+05  -2.769000e+05
   6.019813e+05  -5.190166e+05
   1.195907e+06   9.038888e+04
   6.652777e+05   1.198739e+06
  -6.085489e+05   1.720695e+06
  -1.508954e+06   8.985045e+05
  -1.287749e+06  -7.620742e+05
  -2.324658e+05  -1.828732e+06
   7.341492e+05  -1.352738e+06
   9.566977e+05   1.397996e+05
   4.869064e+05   1.207301e+06
  -1.774476e+05   1.014576e+06
  -5.643042e+05   1.107410e+05
  -5.042358e+05  -3.852669e+05
  -1.930685e+05  -1.491444e+05
  -3.940673e+04   1.070720e+05
  -2.574977e+05  -2.737660e+05
  -5.248133e+05  -9.665856e+05
  -2.428820e+05  -1.106030e+06
   6.883751e+05  -4.260624e+05
   1.517102e+06   4.487491e+05
   1.348119e+06   8.338083e+05
   2.059191e+05   7.035831e+05
  -8.849101e+05   4.371618e+05
  -1.010244e+06   2.115992e+05
  -3.517304e+05  -3.057351e+04
   1.526419e+05  -2.287235e+05
   8.203971e+03  -2.270572e+05
  -2.973373e+05  -1.109779e+05
  -4.325404e+04  -1.350379e+05
   6.974542e+05  -2.377699e+05
   1.062116e+06   1.186366e+01
   4.154743e+05   6.863381e+05
  -8.579637e+05   1.195234e+06
  -1.696575e+06   7.858117e+05
  -1.411187e+06  -4.220968e+05
  -2.956950e+05  -1.429902e+06
   7.475678e+05  -1.408555e+06
   1.055759e+06  -5.513254e+05
   6.733942e+05   2.387886e+05
   1.326512e+05   3.605296e+05
  -8.887482e+04   5.102162e+04
   7.760896e+04  -3.636553e+04
   3.255055e+05   3.639884e+05
   2.763268e+05   8.206652e+05
  -1.737737e+05   6.894697e+05
  -6.978360e+05  -1.263259e+05
  -7.549729e+05  -9.669099e+05
  -1.145849e+05  -1.040985e+06
   7.704800e+05  -2.443970e+05
   1.057498e+06   7.303996e+05
   3.633242e+05   1.098592e+06
  -7.127698e+05   6.885143e+05
  -1.129390e+06  -5.745472e+04
  -5.449665e+05  -5.970699e+05
   2.736357e+05  -6.785544e+05
   3.619951e+05  -3.813600e+05
  -2.682199e+05  -1.491299e+04
  -6.647356e+05   4.921175e+04
  -1.501350e+05  -3.059392e+05
   8.277724e+05  -7.099858e+05
   1.259618e+06  -5.913251e+05
   7.652639e+05   1.479962e+05
  -8.086368e+04   8.797718e+05
  -5.284892e+05   8.790363e+05
  -4.102668e+05   1.649090e+05
  -5.387702e+04  -4.917067e+05
   2.357510e+05  -4.383701e+05
   3.590225e+05   1.576459e+05
   2.680553e+05   5.826746e+05
  -4.574230e+04   4.216453e+05
  -3.968257e+05  -4.377861e+04
  -4.871946e+05  -2.645425e+05
  -2.508516e+05  -8.395782e+04
   3.333760e+04   1.389256e+05
   9.053704e+04   1.857388e+04
   3.045443e+03  -3.641732e+05
   6.414219e+04  -5.382795e+05
   3.228534e+05  -2.005704e+05
   4.511752e+05   3.889317e+05
   1.473279e+05   6.521772e+05
  -4.144746e+05   3.200832e+05
  -6.706430e+05  -2.774712e+05
  -2.620223e+05  -5.824126e+05
   5.043124e+05  -3.819024e+05
   8.904620e+05   6.239043e+04
   4.915237e+05   3.737216e+05
  -2.880227e+05   4.033858e+05
  -6.388355e+05   2.340246e+05
  -2.432725e+05   2.461515e+04
   3.630097e+05  -6.206538e+04
   4.180818e+05   7.279542e+04
  -1.794198e+05   3.057860e+05
  -7.704737e+05   2.864421e+05
