
 $NMID
 id='ANONYMOUS ', fmtdat='(2E16.6)'
 volume=1.0
 tramp=1.0
 $END
   3.109588e+07   3.019161e+05
   2.032208e+07   1.532301e+07
  -7.144599e+05   1.979142e+07
  -1.368289e+07   1.236418e+07
  -1.098223e+07   6.635594e+05
  -3.882682e+05  -5.523552e+06
   6.189190e+06  -2.409351e+06
   4.385450e+06   5.023859e+06
  -1.677404e+06   8.194461e+06
  -5.780084e+06   3.525931e+06
  -4.933326e+06  -4.004862e+06
  -6.096784e+05  -6.386019e+06
   2.967767e+06  -1.379203e+06
   2.342345e+06   5.195514e+06
  -1.846509e+06   6.109920e+06
  -5.140122e+06   4.435755e+05
  -3.723387e+06  -6.104264e+06
   1.516771e+06  -7.651374e+06
   5.966701e+06  -3.629683e+06
   6.079992e+06   1.796846e+06
   2.659157e+06   4.418979e+06
  -4.378651e+05   3.602355e+06
  -3.528014e+05   1.974643e+06
   1.944229e+06   2.198283e+06
   2.657801e+06   4.114887e+06
  -7.011755e+05   5.055022e+06
  -6.028006e+06   2.977489e+06
  -8.195040e+06  -1.049089e+06
  -4.579769e+06  -3.860012e+06
   1.581576e+06  -3.415135e+06
   4.414951e+06  -5.606462e+05
   1.761942e+06   2.085468e+06
  -2.819141e+06   2.341903e+06
  -4.475288e+06  -8.960709e+04
  -2.213397e+06  -3.317343e+06
   9.801032e+05  -4.399567e+06
   2.086027e+06  -2.027699e+06
   9.216422e+05   1.509878e+06
  -5.584238e+05   2.265260e+06
  -6.292958e+05  -6.681884e+05
   7.793933e+05  -3.556547e+06
   2.252247e+06  -2.449747e+06
   2.105239e+06   1.622137e+06
  -4.433441e+04   3.703550e+06
  -2.496563e+06   1.109859e+06
  -2.652814e+06  -3.267550e+06
   3.789934e+05  -4.567769e+06
   4.343809e+06  -1.499963e+06
   5.558304e+06   2.805230e+06
   2.499833e+06   4.602648e+06
  -2.400632e+06   2.960859e+06
  -4.897373e+06  -2.034717e+05
  -3.041920e+06  -2.266550e+06
   9.542902e+05  -1.929664e+06
   3.106244e+06  -5.495701e+03
   1.767301e+06   1.419995e+06
  -9.387545e+05   9.892970e+05
  -1.785797e+06  -5.828405e+05
  -8.031136e+04  -1.399031e+06
   1.792324e+06  -5.414024e+05
   1.304277e+06   1.024249e+06
  -1.272791e+06   1.612308e+06
  -3.144058e+06   4.233403e+05
  -1.997030e+06  -1.915500e+06
   1.582272e+06  -3.784365e+06
   4.717230e+06  -3.513810e+06
   5.055268e+06  -7.039599e+05
   2.840896e+06   2.976855e+06
   2.846941e+05   4.926911e+06
  -8.437579e+05   4.133865e+06
  -7.500768e+05   2.185051e+06
  -8.412299e+05   1.219626e+06
  -1.844070e+06   1.309157e+06
  -3.007043e+06   7.292373e+05
  -3.023478e+06  -1.293793e+06
  -1.418654e+06  -3.156128e+06
   9.548570e+05  -2.710788e+06
   2.502860e+06   4.465403e+04
   2.009455e+06   2.765279e+06
  -3.451530e+05   3.127628e+06
  -2.842795e+06   9.908946e+05
  -3.492570e+06  -1.753733e+06
  -1.884124e+06  -3.111210e+06
   3.599639e+05  -2.650147e+06
   1.364110e+06  -1.497403e+06
   1.108682e+06  -9.317765e+05
   1.243608e+06  -1.071012e+06
   2.722153e+06  -9.203680e+05
   4.233624e+06   3.938245e+05
   3.544470e+06   2.555539e+06
   2.425617e+05   4.190586e+06
  -3.402686e+06   3.982823e+06
  -4.554615e+06   1.800930e+06
  -2.599750e+06  -1.006709e+06
   3.435779e+05  -2.488606e+06
   1.611467e+06  -1.710825e+06
   5.168885e+05   2.491752e+05
  -1.298980e+06   1.244807e+06
  -1.809101e+06   3.341272e+05
  -6.568311e+05  -1.136723e+06
   7.295134e+05  -1.170557e+06
   8.106669e+05   3.279730e+05
  -5.082225e+05   1.296468e+06
  -1.888533e+06   2.009616e+04
  -1.834762e+06  -2.649516e+06
   3.624322e+04  -4.076907e+06
   2.637392e+06  -2.662456e+06
   4.127736e+06   5.429329e+05
   3.315026e+06   3.011401e+06
   7.769507e+05   3.169847e+06
  -1.463948e+06   1.595235e+06
  -1.771784e+06   1.108233e+05
  -5.174595e+05  -4.804776e+04
   3.937575e+05   7.674562e+05
  -2.791590e+05   1.244760e+06
  -1.694309e+06   5.943830e+05
  -1.985069e+06  -6.464445e+05
  -5.492245e+05  -1.264486e+06
   1.140767e+06  -6.905113e+05
   1.151503e+06   4.318191e+05
  -7.156881e+05   9.148331e+05
  -2.586431e+06   1.437405e+05
  -2.402061e+06  -1.383839e+06
  -5.159028e+04  -2.441664e+06
   2.457675e+06  -2.057143e+06
   2.966053e+06  -4.056325e+05
   1.254291e+06   1.180756e+06
  -8.504240e+05   1.360818e+06
  -1.375426e+06   1.543639e+05
  -8.116544e+04  -9.907438e+05
   1.525203e+06  -7.314116e+05
   1.825107e+06   6.772581e+05
   5.996000e+05   1.694048e+06
  -9.368547e+05   1.266154e+06
  -1.386340e+06  -2.578309e+04
  -4.773999e+05  -7.175125e+05
   6.921994e+05  -1.095722e+05
   7.170931e+05   1.054736e+06
  -6.533070e+05   1.449269e+06
  -2.118080e+06   4.959597e+05
  -2.090796e+06  -1.127736e+06
  -4.134590e+05  -2.127698e+06
   1.403330e+06  -1.726089e+06
   1.766386e+06  -3.278664e+05
   6.309882e+05   8.525962e+05
  -6.278654e+05   9.110391e+05
  -7.976368e+05   7.571727e+04
   3.866564e+03  -6.170850e+05
   7.027330e+05  -4.748288e+05
   5.199068e+05   1.280743e+05
  -2.664614e+05   2.589966e+05
  -6.651168e+05  -4.243621e+05
   8.421414e+03  -1.197961e+06
   1.367488e+06  -1.008087e+06
   2.186870e+06   3.760298e+05
   1.542220e+06   2.012580e+06
  -2.118103e+05   2.604933e+06
  -1.721323e+06   1.684767e+06
  -1.965607e+06   2.437032e+04
  -1.190335e+06  -1.103930e+06
  -4.324079e+05  -1.098116e+06
  -2.928278e+05  -4.856926e+05
  -4.037442e+05  -2.317224e+05
  -6.375421e+04  -6.351088e+05
   8.304279e+05  -1.006205e+06
   1.575732e+06  -4.998812e+05
   1.310431e+06   7.976757e+05
  -1.201217e+05   1.762771e+06
  -1.832008e+06   1.310370e+06
  -2.471483e+06  -4.430882e+05
  -1.348265e+06  -2.164510e+06
   8.438784e+05  -2.493064e+06
   2.524371e+06  -1.258140e+06
   2.591725e+06   4.546932e+05
   1.328461e+06   1.393124e+06
  -4.094607e+04   1.260119e+06
  -5.877917e+05   7.850971e+05
  -4.118357e+05   7.711988e+05
  -2.668046e+05   1.177883e+06
  -6.438240e+05   1.210929e+06
  -1.260186e+06   2.936877e+05
  -1.372341e+06  -1.156861e+06
  -5.734681e+05  -2.016168e+06
   6.805062e+05  -1.526362e+06
   1.383039e+06  -4.979458e+04
   9.275275e+05   1.252992e+06
  -2.418782e+05   1.462352e+06
  -1.038483e+06   6.278832e+05
  -8.377840e+05  -4.372619e+05
  -7.994764e+04  -9.720510e+05
   3.038931e+05  -8.648149e+05
  -1.888948e+04  -5.445383e+05
  -4.129561e+05  -4.104827e+05
  -3.423482e+04  -4.294439e+05
   1.124097e+06  -2.629860e+05
   2.059229e+06   2.855197e+05
   1.715755e+06   9.974969e+05
   1.266981e+05   1.396885e+06
  -1.488123e+06   1.162098e+06
  -1.868475e+06   4.218192e+05
  -9.430596e+05  -3.048254e+05
   1.891401e+05  -5.039712e+05
   4.837118e+05  -1.253447e+05
  -3.151917e+04   3.192059e+05
  -5.370270e+05   2.378489e+05
  -4.859639e+05  -3.654248e+05
  -1.144572e+05  -8.116837e+05
   4.363219e+04  -5.194444e+05
  -1.622381e+05   2.091497e+05
  -4.144096e+05   4.462331e+05
  -3.230879e+05  -2.271485e+05
   2.228788e+05  -1.100852e+06
   9.421321e+05  -1.104355e+06
   1.261577e+06  -8.552695e+04
   7.237749e+05   9.748146e+05
  -4.385142e+05   1.064023e+06
  -1.229442e+06   2.101544e+05
  -7.562026e+05  -6.572549e+05
   7.031626e+05  -7.229240e+05
   1.758362e+06   7.440325e+03
   1.281499e+06   8.717278e+05
  -3.575226e+05   1.183999e+06
  -1.635714e+06   7.368231e+05
  -1.456089e+06  -8.198480e+04
  -2.262849e+05  -5.845082e+05
   6.728954e+05  -3.644810e+05
   3.607705e+05   2.638872e+05
  -6.955411e+05   4.836176e+05
  -1.248018e+06  -2.001744e+05
  -5.776030e+05  -1.320688e+06
   7.956688e+05  -1.760665e+06
   1.667746e+06  -8.412109e+05
   1.336974e+06   8.734443e+05
   1.919969e+05   1.961339e+06
  -8.021276e+05   1.472548e+06
  -1.024931e+06  -9.651382e+04
  -5.633523e+05  -1.272025e+06
   1.115700e+05  -1.116873e+06
   5.685190e+05  -1.442990e+05
   5.944181e+05   4.293013e+05
   2.778780e+05   1.814401e+05
   1.362766e+04  -1.345913e+05
   1.559571e+05   2.485709e+05
   4.938960e+05   1.012895e+06
   3.272667e+05   1.187499e+06
  -6.314506e+05   4.483731e+05
  -1.612085e+06  -5.082930e+05
  -1.496158e+06  -9.056939e+05
  -2.127073e+05  -7.298429e+05
   1.022035e+06  -4.383773e+05
   1.100476e+06  -2.324656e+05
   3.051336e+05  -1.760209e+03
  -1.968737e+05   2.321208e+05
   7.760147e+04   2.801298e+05
   4.093266e+05   1.710268e+05
   5.056224e+03   1.513770e+05
  -8.474330e+05   2.006312e+05
  -1.110456e+06  -6.070565e+04
  -2.769512e+05  -7.284105e+05
   1.035623e+06  -1.182565e+06
   1.753571e+06  -7.026232e+05
   1.360274e+06   5.506533e+05
   2.294992e+05   1.536532e+06
  -8.097447e+05   1.428371e+06
  -1.132606e+06   4.823010e+05
  -7.188567e+05  -3.258822e+05
  -8.700406e+04  -3.848973e+05
   1.803388e+05   5.420947e+02
  -4.882027e+04   9.820464e+04
  -3.739415e+05  -3.630759e+05
  -3.028948e+05  -8.713888e+05
   2.263093e+05  -7.019518e+05
   7.533360e+05   2.191697e+05
   7.103337e+05   1.110779e+06
  -1.883791e+04   1.097228e+06
  -8.816945e+05   1.448796e+05
  -1.063474e+06  -8.924378e+05
  -2.829291e+05  -1.169794e+06
   7.951179e+05  -6.332572e+05
   1.144784e+06   1.307162e+05
   4.972088e+05   5.902042e+05
  -3.115712e+05   6.222959e+05
  -3.220928e+05   3.649341e+05
   3.655828e+05   5.259332e+04
   7.246751e+05  -1.530829e+04
   1.176676e+05   3.137645e+05
  -8.975276e+05   7.297198e+05
  -1.275402e+06   6.352907e+05
  -7.158164e+05  -1.242102e+05
   1.268011e+05  -8.920688e+05
   5.197028e+05  -8.691666e+05
   3.603285e+05  -9.436220e+04
  -3.258412e+03   5.566281e+05
  -2.832803e+05   4.093794e+05
  -3.812957e+05  -2.526585e+05
  -2.485924e+05  -6.278575e+05
   8.833679e+04  -3.765552e+05
   4.152113e+05   9.401750e+04
   4.743550e+05   2.477154e+05
   2.576032e+05   5.218150e+04
   1.090412e+04  -9.206874e+04
  -8.632788e+04   9.650714e+04
  -1.171156e+05   4.372896e+05
  -2.392766e+05   4.922871e+05
  -4.030294e+05   6.639314e+04
  -3.668562e+05  -5.219801e+05
   1.791017e+03  -7.127987e+05
   4.896948e+05  -2.858940e+05
   6.485751e+05   3.722013e+05
   2.158021e+05   6.566364e+05
  -5.252529e+05   3.693122e+05
  -8.933721e+05  -1.385210e+05
  -4.803857e+05  -4.171585e+05
   3.234907e+05  -3.572320e+05
   6.668500e+05  -1.503341e+05
   1.996611e+05  -2.747454e+02
  -4.706364e+05  -4.769234e+03
  -4.748619e+05  -1.756410e+05
   2.658165e+05  -3.687430e+05
   9.342438e+05  -2.732429e+05
