
 $NMID
 id='ANONYMOUS ', fmtdat='(2E16.6)'
 volume=1.0
 tramp=1.0
 $END
   5.936863e+07  -5.935006e+05
   3.584191e+07   3.721871e+07
  -8.082152e+06   4.057176e+07
  -2.933704e+07   1.495167e+07
  -1.720356e+07  -8.117605e+06
   3.817275e+06  -9.853735e+06
   1.030978e+07   1.781922e+06
   2.506196e+06   1.041113e+07
  -6.843085e+06   9.386827e+06
  -1.012960e+07   1.739851e+06
  -7.219869e+06  -6.387344e+06
  -8.750806e+05  -8.760064e+06
   4.035587e+06  -2.938758e+06
   2.608859e+06   5.325384e+06
  -4.010887e+06   6.482867e+06
  -8.194516e+06  -1.571321e+06
  -4.536110e+06  -1.065869e+07
   4.004053e+06  -1.227580e+07
   1.052914e+07  -6.249063e+06
   1.137744e+07   1.931783e+06
   7.237202e+06   7.746458e+06
   1.003047e+06   9.309009e+06
  -3.206606e+06   6.700062e+06
  -2.497768e+06   2.804110e+06
   7.357281e+05   1.771031e+06
   4.008909e+05   3.868124e+06
  -5.098270e+06   4.514239e+06
  -9.618420e+06   8.007791e+05
  -7.305197e+06  -4.002708e+06
  -6.232917e+05  -5.178122e+06
   3.435908e+06  -2.853333e+06
   2.485347e+06  -4.191805e+05
  -2.159565e+05   6.004457e+05
  -1.798181e+06   5.304607e+05
  -2.085376e+06  -1.045711e+06
  -9.711196e+05  -3.694163e+06
   1.654781e+06  -4.074710e+06
   3.532058e+06  -2.143048e+05
   2.113267e+06   3.729875e+06
  -7.173423e+05   2.350211e+06
  -5.116182e+05  -2.160811e+06
   2.435175e+06  -2.218382e+06
   2.479701e+06   3.387078e+06
  -2.740249e+06   6.465833e+06
  -7.572673e+06   1.075142e+06
  -5.512481e+06  -7.345689e+06
   2.047653e+06  -9.051179e+06
   7.763874e+06  -2.588318e+06
   7.052130e+06   4.601993e+06
   1.705360e+06   6.149852e+06
  -3.590339e+06   2.617058e+06
  -5.218653e+06  -1.726121e+06
  -2.275170e+06  -3.638463e+06
   2.614544e+06  -2.221744e+06
   4.687477e+06   1.037861e+06
   1.960751e+06   2.882935e+06
  -1.805781e+06   1.420572e+06
  -1.696618e+06  -1.085327e+06
   1.554485e+06  -8.441776e+05
   2.594637e+06   2.105549e+06
  -8.843724e+05   3.834668e+06
  -5.102424e+06   1.987285e+06
  -5.594888e+06  -1.589660e+06
  -2.363044e+06  -4.237143e+06
   1.764595e+06  -5.397062e+06
   4.903050e+06  -4.957694e+06
   6.213888e+06  -1.910936e+06
   4.778165e+06   3.069276e+06
   1.063195e+06   6.222763e+06
  -1.987975e+06   4.788682e+06
  -1.929317e+06   1.042770e+06
  -7.843568e+04  -5.276021e+05
   3.534391e+05   8.481155e+05
  -1.288666e+06   1.899908e+06
  -2.672380e+06   5.019528e+05
  -2.059931e+06  -1.654521e+06
  -1.848816e+05  -1.973706e+06
   1.345385e+06  -2.209504e+05
   1.564852e+06   1.919644e+06
   5.820473e+04   2.829493e+06
  -2.676314e+06   1.733331e+06
  -4.530573e+06  -1.040767e+06
  -3.401776e+06  -3.757282e+06
  -5.997120e+04  -4.405556e+06
   2.358519e+06  -2.897242e+06
   2.380734e+06  -1.176923e+06
   1.912228e+06  -6.117648e+05
   2.935675e+06  -3.905070e+05
   4.292271e+06   8.188096e+05
   3.407489e+06   2.761000e+06
   9.549828e+04   4.042611e+06
  -3.123605e+06   3.801396e+06
  -4.024658e+06   2.121948e+06
  -2.603198e+06  -3.095646e+05
  -3.739259e+05  -2.133164e+06
   9.849551e+05  -1.926140e+06
   5.571211e+05  -4.322480e+03
  -1.032513e+06   1.292054e+06
  -1.893906e+06   4.023009e+05
  -9.554552e+05  -1.193645e+06
   4.743385e+05  -1.078934e+06
   3.505165e+05   4.074485e+05
  -1.173712e+06   5.859521e+05
  -1.853546e+06  -1.519554e+06
  -4.227576e+05  -3.621711e+06
   1.889645e+06  -3.265933e+06
   3.230614e+06  -8.026537e+05
   3.116887e+06   1.627357e+06
   2.020553e+06   2.704534e+06
   3.585184e+05   2.471389e+06
  -1.187232e+06   1.406040e+06
  -1.514436e+06   2.369169e+05
  -4.809617e+05  -4.728846e+04
   3.432401e+05   7.418663e+05
  -4.377736e+05   1.345837e+06
  -1.929296e+06   5.669605e+05
  -2.021846e+06  -9.326227e+05
  -3.453209e+05  -1.437261e+06
   1.170896e+06  -5.358160e+05
   8.231439e+05   4.670921e+05
  -8.808576e+05   4.323163e+05
  -2.082180e+06  -4.348834e+05
  -1.578735e+06  -1.362021e+06
   3.315474e+05  -1.856263e+06
   2.268801e+06  -1.535101e+06
   2.705867e+06  -2.246372e+05
   1.192464e+06   1.275388e+06
  -9.255269e+05   1.513254e+06
  -1.581589e+06   1.940168e+05
  -2.225670e+05  -1.085420e+06
   1.501930e+06  -7.236810e+05
   1.677062e+06   8.073267e+05
   2.676472e+05   1.635922e+06
  -1.128345e+06   9.027018e+05
  -1.223380e+06  -3.821869e+05
  -1.899466e+05  -7.964846e+05
   8.142642e+05  -4.170205e+04
   7.300002e+05   1.045885e+06
  -5.594903e+05   1.401201e+06
  -1.965302e+06   5.374362e+05
  -1.998275e+06  -1.032478e+06
  -3.636311e+05  -2.046315e+06
   1.444711e+06  -1.603926e+06
   1.705940e+06  -1.724696e+05
   4.647198e+05   8.709451e+05
  -6.669674e+05   7.695861e+05
  -5.911465e+05   6.811991e+04
   1.526018e+05  -3.024570e+05
   4.480566e+05  -1.382958e+05
   2.986427e+04   6.287308e+04
  -4.941152e+05  -1.485991e+05
  -4.833660e+05  -7.281474e+05
   2.554743e+05  -1.177997e+06
   1.380112e+06  -8.555145e+05
   2.037882e+06   4.309773e+05
   1.424050e+06   1.918257e+06
  -2.308952e+05   2.355792e+06
  -1.589475e+06   1.327010e+06
  -1.614178e+06  -1.746994e+05
  -7.633346e+05  -8.537781e+05
  -2.722496e+05  -5.485422e+05
  -5.059114e+05  -1.532396e+05
  -6.728431e+05  -3.249903e+05
  -9.675480e+04  -7.858972e+05
   8.853296e+05  -8.654866e+05
   1.411393e+06  -2.711580e+05
   9.739315e+05   7.100347e+05
  -2.929207e+05   1.378296e+06
  -1.691607e+06   9.966829e+05
  -2.174224e+06  -5.042525e+05
  -1.062526e+06  -2.076703e+06
   1.052747e+06  -2.314797e+06
   2.534211e+06  -9.586882e+05
   2.276107e+06   7.180304e+05
   8.529118e+05   1.328540e+06
  -2.557036e+05   8.675622e+05
  -3.493968e+05   4.342449e+05
  -3.379796e+03   7.322817e+05
  -6.561982e+04   1.319872e+06
  -6.730623e+05   1.292976e+06
  -1.290105e+06   3.178816e+05
  -1.311583e+06  -1.058110e+06
  -5.380158e+05  -1.851237e+06
   6.098372e+05  -1.399558e+06
   1.252549e+06   2.199380e+04
   7.737338e+05   1.285456e+06
  -4.293908e+05   1.370540e+06
  -1.189407e+06   3.482321e+05
  -8.021102e+05  -7.565081e+05
   1.714069e+05  -1.095679e+06
   5.922768e+05  -7.599752e+05
   1.143056e+05  -3.842493e+05
  -4.313558e+05  -3.155264e+05
  -6.320452e+04  -3.682721e+05
   1.146715e+06  -1.922833e+05
   2.046338e+06   3.473540e+05
   1.577129e+06   1.045398e+06
  -8.115992e+04   1.436432e+06
  -1.604629e+06   1.123475e+06
  -1.812090e+06   2.329703e+05
  -8.036019e+05  -5.422477e+05
   2.764070e+05  -5.814141e+05
   5.169475e+05  -1.006753e+04
   4.771440e+04   4.412212e+05
  -4.156765e+05   2.580192e+05
  -4.754702e+05  -3.343511e+05
  -2.834049e+05  -6.912725e+05
  -1.292860e+05  -4.614560e+05
  -1.333350e+05   6.354004e+04
  -2.473398e+05   2.460270e+05
  -2.606309e+05  -2.339289e+05
   1.240844e+05  -9.468318e+05
   8.844430e+05  -1.045777e+06
   1.376707e+06  -1.987684e+05
   8.776637e+05   8.895895e+05
  -4.052212e+05   1.150827e+06
  -1.253872e+06   3.692559e+05
  -7.201882e+05  -5.477398e+05
   7.008571e+05  -6.226540e+05
   1.534122e+06   1.281864e+05
   9.210508e+05   8.661151e+05
  -5.246222e+05   9.313911e+05
  -1.460418e+06   3.958135e+05
  -1.165891e+06  -2.301834e+05
  -1.039940e+05  -4.944174e+05
   6.430877e+05  -2.383799e+05
   3.900685e+05   3.015752e+05
  -5.489159e+05   5.290286e+05
  -1.156633e+06  -4.544883e+04
  -6.958113e+05  -1.131838e+06
   5.234592e+05  -1.676378e+06
   1.420808e+06  -8.956967e+05
   1.226686e+06   7.199224e+05
   2.033395e+05   1.735132e+06
  -7.241074e+05   1.234720e+06
  -8.947840e+05  -2.051855e+05
  -3.855638e+05  -1.169092e+06
   2.600322e+05  -9.229482e+05
   5.619854e+05  -6.367973e+04
   4.213937e+05   3.636546e+05
   1.231731e+05   1.256184e+05
   6.186807e+04  -8.287660e+04
   3.248146e+05   3.083196e+05
   5.155926e+05   9.507218e+05
   1.410331e+05   1.045800e+06
  -7.465643e+05   3.796977e+05
  -1.428750e+06  -4.527272e+05
  -1.204753e+06  -8.186499e+05
  -1.754897e+05  -6.897238e+05
   7.936761e+05  -4.107299e+05
   9.456294e+05  -1.627304e+05
   3.846398e+05   7.167001e+04
  -1.263844e+05   2.231473e+05
  -8.072572e+04   1.805284e+05
   2.086468e+05   6.839869e+04
   6.872006e+04   1.253955e+05
  -5.906151e+05   2.490038e+05
  -1.026648e+06   1.086089e+04
  -4.999887e+05  -6.762107e+05
   7.637396e+05  -1.182603e+06
   1.684640e+06  -7.903017e+05
   1.441327e+06   3.770887e+05
   2.998743e+05   1.360341e+06
  -7.496306e+05   1.367215e+06
  -1.018951e+06   5.694621e+05
  -6.330163e+05  -1.928461e+05
  -1.560500e+05  -3.482660e+05
   2.221026e+04  -9.300250e+04
  -9.770079e+04  -1.650221e+04
  -2.737327e+05  -3.734167e+05
  -2.280703e+05  -7.886328e+05
   1.569858e+05  -6.756507e+05
   6.543972e+05   7.607001e+04
   7.618064e+05   8.841662e+05
   1.833534e+05   1.008322e+06
  -6.980640e+05   2.997807e+05
  -1.034336e+06  -6.424524e+05
  -3.888889e+05  -1.060357e+06
   6.768182e+05  -7.090974e+05
   1.118237e+06   4.147342e+04
   5.588107e+05   6.245791e+05
  -2.721326e+05   7.133468e+05
  -4.073451e+05   3.779558e+05
   1.940716e+05  -9.863966e+03
   6.211317e+05  -5.412218e+04
   1.642104e+05   3.070867e+05
  -7.978904e+05   6.673330e+05
  -1.265523e+06   5.107740e+05
  -7.962494e+05  -1.977086e+05
   7.692108e+04  -8.691822e+05
   5.681121e+05  -8.657631e+05
   4.590234e+05  -2.013726e+05
   8.372450e+04   4.461093e+05
  -2.166105e+05   4.544223e+05
  -3.410225e+05  -9.569891e+04
  -2.638839e+05  -5.580477e+05
   3.086671e+04  -4.571213e+05
   3.834909e+05   1.823029e+04
   4.860081e+05   2.962008e+05
   2.404272e+05   1.176183e+05
  -5.988513e+04  -1.789989e+05
  -8.632800e+04  -1.117393e+05
   7.655365e+04   3.134704e+05
   4.957412e+04   5.814977e+05
  -2.755234e+05   2.975641e+05
  -5.097752e+05  -3.067423e+05
  -2.425267e+05  -6.185972e+05
   3.694512e+05  -3.353099e+05
   6.823015e+05   2.297430e+05
   2.803283e+05   5.364333e+05
  -5.024247e+05   3.737029e+05
  -8.893848e+05  -3.597223e+04
  -4.884016e+05  -3.584137e+05
   2.777575e+05  -4.304003e+05
   6.301033e+05  -2.770094e+05
   2.795344e+05  -3.189311e+04
  -2.850520e+05   1.071021e+05
  -3.769724e+05  -4.730168e+03
   1.195110e+05  -2.549858e+05
   6.536796e+05  -2.775623e+05
