
 $NMID
 id='ANONYMOUS ', fmtdat='(2E16.6)'
 volume=1.0
 tramp=1.0
 $END
  -4.979381e+07   1.064279e+06
  -3.117440e+07  -2.923156e+07
   4.941231e+06  -3.364047e+07
   2.384671e+07  -1.460492e+07
   1.530564e+07   4.808229e+06
  -2.220771e+06   8.479133e+06
  -9.014857e+06  -1.467280e+05
  -3.372161e+06  -8.590008e+06
   4.964877e+06  -9.197575e+06
   8.685220e+06  -2.543175e+06
   6.549492e+06   5.529308e+06
   8.696394e+05   8.001665e+06
  -3.669526e+06   2.438459e+06
  -2.591613e+06  -5.343011e+06
   3.218369e+06  -6.498183e+06
   7.219862e+06   7.531063e+05
   4.433836e+06   9.082344e+06
  -2.991858e+06   1.079401e+07
  -8.907471e+06   5.498119e+06
  -9.592588e+06  -1.760281e+06
  -5.745768e+06  -6.518225e+06
  -6.201702e+05  -7.311669e+06
   2.099602e+06  -5.105421e+06
   8.694034e+05  -2.678053e+06
  -1.447679e+06  -2.665262e+06
  -2.506753e+04  -4.345939e+06
   5.460882e+06  -4.049813e+06
   9.210592e+06  -2.232575e+05
   6.439685e+06   3.929117e+06
  -1.296393e+05   4.583617e+06
  -3.811402e+06   2.067509e+06
  -2.230508e+06  -4.745753e+05
   1.191631e+06  -1.227627e+06
   2.796572e+06  -2.969280e+05
   2.138682e+06   1.877245e+06
   2.820301e+05   3.968972e+06
  -1.781841e+06   3.378384e+06
  -2.595553e+06  -3.673957e+05
  -1.201245e+06  -3.201214e+06
   6.453011e+05  -1.280114e+06
   4.805263e+04   2.687485e+06
  -2.383189e+06   2.355992e+06
  -2.420121e+06  -2.764422e+06
   1.706328e+06  -5.595833e+06
   5.805758e+06  -1.220544e+06
   4.646797e+06   5.875731e+06
  -1.335824e+06   7.568584e+06
  -6.582413e+06   2.329000e+06
  -6.662922e+06  -3.929293e+06
  -2.090122e+06  -5.660841e+06
   3.188689e+06  -2.821857e+06
   5.205559e+06   1.146412e+06
   2.626278e+06   3.177527e+06
  -2.030859e+06   2.183963e+06
  -4.195696e+06  -6.199198e+05
  -1.950103e+06  -2.374575e+06
   1.503494e+06  -1.307129e+06
   1.766890e+06   9.073418e+05
  -9.801922e+05   1.092702e+06
  -2.384294e+06  -1.136078e+06
   3.288356e+04  -2.892009e+06
   3.746979e+06  -1.962457e+06
   4.804374e+06   8.001942e+05
   2.319820e+06   3.417743e+06
  -1.656454e+06   4.891231e+06
  -4.839899e+06   4.535020e+06
  -5.841172e+06   1.557859e+06
  -4.156546e+06  -3.015881e+06
  -8.541157e+05  -5.813537e+06
   1.551341e+06  -4.638494e+06
   1.524788e+06  -1.498477e+06
   3.763913e+05  -9.526414e+04
   4.412514e+05  -1.005562e+06
   1.909809e+06  -1.494790e+06
   2.819449e+06   1.300163e+05
   1.852820e+06   2.208846e+06
  -2.258842e+05   2.262306e+06
  -1.789815e+06   1.244402e+05
  -1.758765e+06  -2.253079e+06
   7.123290e+04  -2.976223e+06
   2.755028e+06  -1.504269e+06
   4.212450e+06   1.269826e+06
   2.926449e+06   3.526489e+06
  -3.939016e+04   3.813409e+06
  -1.984314e+06   2.449981e+06
  -1.929832e+06   1.134831e+06
  -1.690034e+06   8.126046e+05
  -2.898994e+06   6.202659e+05
  -4.340735e+06  -6.334840e+05
  -3.530403e+06  -2.694069e+06
  -1.850859e+05  -4.154193e+06
   3.237148e+06  -3.946034e+06
   4.253802e+06  -2.061956e+06
   2.634647e+06   5.504862e+05
   1.289759e+05   2.284927e+06
  -1.213947e+06   1.874349e+06
  -5.495950e+05  -8.743341e+04
   1.135972e+06  -1.300904e+06
   1.889135e+06  -3.980618e+05
   8.692991e+05   1.181726e+06
  -5.720022e+05   1.130271e+06
  -5.332628e+05  -3.884447e+05
   9.489283e+05  -8.766825e+05
   1.925287e+06   9.562953e+05
   9.909071e+05   3.325376e+06
  -1.215434e+06   3.645944e+06
  -3.069665e+06   1.532341e+06
  -3.555033e+06  -1.234756e+06
  -2.542786e+06  -2.851134e+06
  -5.312585e+05  -2.763567e+06
   1.294623e+06  -1.501266e+06
   1.626251e+06  -2.023548e+05
   5.006905e+05   4.535754e+04
  -3.737913e+05  -7.605039e+05
   3.732058e+05  -1.335365e+06
   1.867827e+06  -6.048236e+05
   2.050391e+06   8.253430e+05
   4.389908e+05   1.397736e+06
  -1.177264e+06   6.137015e+05
  -9.646935e+05  -4.580548e+05
   8.314350e+05  -6.293561e+05
   2.307501e+06   2.115402e+05
   1.917381e+06   1.382979e+06
  -1.841071e+05   2.105580e+06
  -2.362434e+06   1.767049e+06
  -2.839772e+06   3.139072e+05
  -1.242980e+06  -1.250741e+06
   8.983261e+05  -1.487660e+06
   1.527439e+06  -1.962018e+05
   1.836576e+05   1.064875e+06
  -1.527315e+06   7.503436e+05
  -1.764819e+06  -7.591907e+05
  -4.062687e+05  -1.683722e+06
   1.072575e+06  -1.061893e+06
   1.310510e+06   2.492378e+05
   3.069081e+05   7.839230e+05
  -7.833697e+05   7.942135e+04
  -7.484571e+05  -1.056156e+06
   5.870089e+05  -1.444222e+06
   2.043088e+06  -5.478502e+05
   2.068895e+06   1.064396e+06
   4.041456e+05   2.102565e+06
  -1.437996e+06   1.684075e+06
  -1.752989e+06   2.440435e+05
  -5.393191e+05  -8.772947e+05
   6.592997e+05  -8.403724e+05
   6.779041e+05  -7.362665e+04
  -9.896293e+04   4.287727e+05
  -5.510308e+05   2.684922e+05
  -2.130663e+05  -9.185953e+04
   4.203653e+05  -7.984728e+03
   5.663615e+05   6.212683e+05
  -1.559262e+05   1.204974e+06
  -1.386550e+06   9.363200e+05
  -2.124716e+06  -3.987943e+05
  -1.503361e+06  -1.966992e+06
   2.094785e+05  -2.481628e+06
   1.653135e+06  -1.488824e+06
   1.769307e+06   9.466564e+04
   9.337300e+05   9.567703e+05
   3.309992e+05   7.581073e+05
   4.301755e+05   2.698341e+05
   5.863128e+05   2.837236e+05
   9.542890e+04   7.371267e+05
  -8.687171e+05   9.362496e+05
  -1.488420e+06   3.709150e+05
  -1.115181e+06  -7.445932e+05
   2.240101e+05  -1.541738e+06
   1.758843e+06  -1.139899e+06
   2.317968e+06   4.712540e+05
   1.201030e+06   2.131077e+06
  -9.704841e+05   2.425143e+06
  -2.560447e+06   1.105850e+06
  -2.433939e+06  -6.146518e+05
  -1.051181e+06  -1.369898e+06
   1.775079e+05  -1.029868e+06
   4.430523e+05  -5.694912e+05
   1.483643e+05  -7.506595e+05
   1.273342e+05  -1.282702e+06
   6.588028e+05  -1.286359e+06
   1.293282e+06  -3.252714e+05
   1.359992e+06   1.097892e+06
   5.729241e+05   1.933046e+06
  -6.335695e+05   1.470196e+06
  -1.319609e+06   1.394962e+04
  -8.537716e+05  -1.285992e+06
   3.545497e+05  -1.429797e+06
   1.150631e+06  -4.698632e+05
   8.379584e+05   6.412416e+05
  -6.839172e+04   1.069886e+06
  -4.877860e+05   8.192558e+05
  -6.584227e+04   4.520909e+05
   4.309278e+05   3.499624e+05
   5.571874e+04   3.938084e+05
  -1.151826e+06   2.319741e+05
  -2.081455e+06  -3.093816e+05
  -1.659999e+06  -1.028592e+06
  -9.485263e+03  -1.445391e+06
   1.572743e+06  -1.169943e+06
   1.858358e+06  -3.217211e+05
   8.752108e+05   4.565320e+05
  -2.408740e+05   5.641538e+05
  -5.128703e+05   5.830521e+04
  -2.469263e+04  -3.989734e+05
   4.631157e+05  -2.545168e+05
   4.872933e+05   3.461591e+05
   2.281593e+05   7.388745e+05
   6.980870e+04   4.847610e+05
   1.470855e+05  -1.188361e+05
   3.128610e+05  -3.236302e+05
   2.894909e+05   2.313386e+05
  -1.549357e+05   1.014598e+06
  -9.071208e+05   1.088912e+06
  -1.347466e+06   1.754709e+05
  -8.390437e+05  -9.212182e+05
   4.100992e+05  -1.136697e+06
   1.254380e+06  -3.270984e+05
   7.456827e+05   5.893100e+05
  -7.067232e+05   6.739575e+05
  -1.639954e+06  -7.501413e+04
  -1.074215e+06  -8.767768e+05
   4.650185e+05  -1.044338e+06
   1.546235e+06  -5.378589e+05
   1.293306e+06   1.721359e+05
   1.538011e+05   5.354436e+05
  -6.627938e+05   2.940162e+05
  -3.882792e+05  -2.874273e+05
   6.045688e+05  -5.220669e+05
   1.203543e+06   9.398839e+04
   6.683161e+05   1.208069e+06
  -6.173467e+05   1.729302e+06
  -1.521574e+06   8.954526e+05
  -1.287047e+06  -7.770046e+05
  -2.134923e+05  -1.839191e+06
   7.551530e+05  -1.344091e+06
   9.584333e+05   1.613051e+05
   4.659097e+05   1.221863e+06
  -2.026881e+05   1.012345e+06
  -5.724659e+05   1.001368e+05
  -4.936639e+05  -3.917304e+05
  -1.827711e+05  -1.497370e+05
  -4.513634e+04   1.046115e+05
  -2.704077e+05  -2.839321e+05
  -5.220223e+05  -9.810833e+05
  -2.191447e+05  -1.114384e+06
   7.112626e+05  -4.192795e+05
   1.518479e+06   4.693945e+05
   1.334505e+06   8.556313e+05
   1.973161e+05   7.122714e+05
  -8.852820e+05   4.292909e+05
  -1.014999e+06   1.967640e+05
  -3.619249e+05  -4.015063e+04
   1.525743e+05  -2.291733e+05
   2.327817e+04  -2.233253e+05
  -2.848632e+05  -1.088191e+05
  -4.708794e+04  -1.347112e+05
   6.902376e+05  -2.352332e+05
   1.069720e+06   7.280167e+03
   4.289826e+05   6.954719e+05
  -8.636464e+05   1.199964e+06
  -1.722902e+06   7.823380e+05
  -1.429849e+06  -4.314147e+05
  -2.870360e+05  -1.439018e+06
   7.695668e+05  -1.413387e+06
   1.067036e+06  -5.521462e+05
   6.725782e+05   2.400549e+05
   1.353588e+05   3.635674e+05
  -7.856813e+04   5.684297e+04
   8.299144e+04  -2.778556e+04
   3.183713e+05   3.735380e+05
   2.650275e+05   8.289549e+05
  -1.789007e+05   6.947131e+05
  -6.980102e+05  -1.257778e+05
  -7.568024e+05  -9.719020e+05
  -1.182356e+05  -1.049064e+06
   7.697718e+05  -2.490891e+05
   1.059772e+06   7.346196e+05
   3.623218e+05   1.108970e+06
  -7.213105e+05   6.940797e+05
  -1.141107e+06  -6.500902e+04
  -5.498044e+05  -6.132093e+05
   2.815642e+05  -6.905924e+05
   3.770286e+05  -3.837618e+05
  -2.588546e+05  -1.483566e+04
  -6.661801e+05   4.435848e+04
  -1.517225e+05  -3.109683e+05
   8.401205e+05  -7.047126e+05
   1.283033e+06  -5.753402e+05
   7.797537e+05   1.639811e+05
  -8.883065e+04   8.886551e+05
  -5.493255e+05   8.843260e+05
  -4.241729e+05   1.703080e+05
  -5.449953e+04  -4.904223e+05
   2.389713e+05  -4.441888e+05
   3.582101e+05   1.528492e+05
   2.655000e+05   5.883457e+05
  -4.681258e+04   4.321914e+05
  -3.989897e+05  -4.368545e+04
  -4.916212e+05  -2.772416e+05
  -2.521738e+05  -9.288035e+04
   3.771232e+04   1.470877e+05
   9.242106e+04   3.490778e+04
  -6.094980e+03  -3.592086e+05
   5.014609e+04  -5.498450e+05
   3.193512e+05  -2.154922e+05
   4.619112e+05   3.832926e+05
   1.587559e+05   6.546247e+05
  -4.147636e+05   3.223989e+05
  -6.779101e+05  -2.785424e+05
  -2.627527e+05  -5.840701e+05
   5.136608e+05  -3.811717e+05
   9.006652e+05   6.622374e+04
   4.939700e+05   3.801300e+05
  -2.929750e+05   4.104868e+05
  -6.469595e+05   2.385853e+05
  -2.524549e+05   2.452022e+04
   3.548176e+05  -6.606066e+04
   4.151383e+05   6.681204e+04
  -1.753058e+05   2.990476e+05
  -7.638506e+05   2.803436e+05
