
 $NMID
 id='ANONYMOUS ', fmtdat='(2E16.6)'
 volume=1.0
 tramp=1.0
 $END
  -5.422812e+07   7.326416e+05
  -3.333898e+07  -3.297389e+07
   6.411794e+06  -3.686926e+07
   2.645226e+07  -1.478742e+07
   1.625533e+07   6.338238e+06
  -2.945055e+06   9.139795e+06
  -9.649959e+06  -8.921758e+05
  -2.990887e+06  -9.462041e+06
   5.861969e+06  -9.325979e+06
   9.388830e+06  -2.178607e+06
   6.858717e+06   5.953650e+06
   8.473571e+05   8.374910e+06
  -3.845897e+06   2.659193e+06
  -2.573650e+06  -5.367369e+06
   3.623419e+06  -6.512154e+06
   7.693035e+06   1.143482e+06
   4.472084e+06   9.845512e+06
  -3.493440e+06   1.150083e+07
  -9.686828e+06   5.831983e+06
  -1.041720e+07  -1.869354e+06
  -6.412730e+06  -7.094727e+06
  -7.881294e+05  -8.219178e+06
   2.592298e+06  -5.843105e+06
   1.604796e+06  -2.782716e+06
  -1.098380e+06  -2.314638e+06
  -1.458722e+05  -4.144814e+06
   5.341049e+06  -4.221281e+06
   9.413494e+06  -4.243685e+05
   6.822150e+06   3.996643e+06
   1.895801e+05   4.840845e+06
  -3.650387e+06   2.386976e+06
  -2.324462e+06  -8.971665e+04
   7.903318e+05  -9.240515e+05
   2.367068e+06  -3.574032e+05
   2.096176e+06   1.538479e+06
   5.558089e+05   3.856261e+06
  -1.741491e+06   3.688896e+06
  -3.005699e+06  -1.059986e+05
  -1.599960e+06  -3.432640e+06
   6.628482e+05  -1.752639e+06
   2.200515e+05   2.456701e+06
  -2.437893e+06   2.290309e+06
  -2.453789e+06  -3.063620e+06
   2.185688e+06  -6.011709e+06
   6.617261e+06  -1.161484e+06
   5.036974e+06   6.557350e+06
  -1.675533e+06   8.256319e+06
  -7.139518e+06   2.431430e+06
  -6.847817e+06  -4.280754e+06
  -1.900679e+06  -5.923908e+06
   3.401445e+06  -2.731431e+06
   5.238364e+06   1.440772e+06
   2.476181e+06   3.418785e+06
  -2.303630e+06   2.210201e+06
  -4.432818e+06  -8.201459e+05
  -1.962316e+06  -2.617476e+06
   1.644802e+06  -1.358700e+06
   1.741961e+06   1.000810e+06
  -1.246320e+06   9.935856e+05
  -2.499988e+06  -1.575896e+06
   4.036204e+05  -3.334209e+06
   4.370401e+06  -1.985536e+06
   5.186173e+06   1.165499e+06
   2.344438e+06   3.808642e+06
  -1.736518e+06   5.127898e+06
  -4.915110e+06   4.709208e+06
  -6.035767e+06   1.686540e+06
  -4.428683e+06  -3.068743e+06
  -9.195854e+05  -6.021246e+06
   1.777626e+06  -4.726724e+06
   1.731363e+06  -1.307758e+06
   2.664291e+05   1.849053e+05
   1.085944e+05  -9.175211e+05
   1.646538e+06  -1.647416e+06
   2.749077e+06  -1.219965e+05
   1.922149e+06   1.981511e+06
  -6.741934e+04   2.132263e+06
  -1.598376e+06   1.450541e+05
  -1.656781e+06  -2.131019e+06
   3.777592e+04  -2.919918e+06
   2.736383e+06  -1.590542e+06
   4.356565e+06   1.196691e+06
   3.129779e+06   3.653740e+06
  -8.796426e+03   4.089282e+06
  -2.165859e+06   2.653298e+06
  -2.145682e+06   1.155788e+06
  -1.806980e+06   7.207159e+05
  -2.938160e+06   5.006371e+05
  -4.338584e+06  -7.520405e+05
  -3.474119e+06  -2.764841e+06
  -1.132263e+05  -4.126517e+06
   3.234362e+06  -3.872792e+06
   4.185352e+06  -2.061338e+06
   2.622153e+06   4.653268e+05
   2.176204e+05   2.222265e+06
  -1.128963e+06   1.892055e+06
  -5.514147e+05  -4.899245e+04
   1.103435e+06  -1.290885e+06
   1.899848e+06  -3.893968e+05
   9.030866e+05   1.194232e+06
  -5.376917e+05   1.105774e+06
  -4.505586e+05  -4.047757e+05
   1.063976e+06  -7.487449e+05
   1.905902e+06   1.224802e+06
   7.274574e+05   3.490514e+06
  -1.551692e+06   3.501418e+06
  -3.181962e+06   1.199655e+06
  -3.379592e+06  -1.448804e+06
  -2.301533e+06  -2.829909e+06
  -4.308569e+05  -2.655368e+06
   1.266730e+06  -1.454752e+06
   1.585290e+06  -2.050367e+05
   4.944233e+05   5.001840e+04
  -3.554728e+05  -7.582181e+05
   4.123313e+05  -1.343083e+06
   1.906595e+06  -5.783352e+05
   2.041699e+06   8.898341e+05
   3.909473e+05   1.423709e+06
  -1.183266e+06   5.718258e+05
  -9.007571e+05  -4.734355e+05
   8.670285e+05  -5.380526e+05
   2.221392e+06   3.348228e+05
   1.764997e+06   1.402097e+06
  -2.714592e+05   2.006486e+06
  -2.349564e+06   1.652921e+06
  -2.797363e+06   2.529220e+05
  -1.218244e+06  -1.276063e+06
   9.230910e+05  -1.499195e+06
   1.558398e+06  -1.873428e+05
   1.946113e+05   1.077468e+06
  -1.527608e+06   7.296857e+05
  -1.728646e+06  -7.976228e+05
  -3.343177e+05  -1.674801e+06
   1.111378e+06  -9.895150e+05
   1.277457e+06   3.191457e+05
   2.511344e+05   7.953938e+05
  -8.002443e+05   5.606188e+04
  -7.332085e+05  -1.062553e+06
   5.907536e+05  -1.425358e+06
   2.022289e+06  -5.272811e+05
   2.037806e+06   1.072372e+06
   3.713278e+05   2.090596e+06
  -1.460754e+06   1.645929e+06
  -1.742937e+06   2.010726e+05
  -5.029542e+05  -8.821119e+05
   6.716814e+05  -8.073374e+05
   6.416537e+05  -6.542011e+04
  -1.298563e+05   3.735343e+05
  -5.125795e+05   2.041717e+05
  -1.305675e+05  -8.563904e+04
   4.596137e+05   6.345065e+04
   5.302056e+05   6.787340e+05
  -2.111429e+05   1.200336e+06
  -1.399778e+06   8.941007e+05
  -2.093919e+06  -4.333212e+05
  -1.459253e+06  -1.967838e+06
   2.407619e+05  -2.436574e+06
   1.646547e+06  -1.411080e+06
   1.710189e+06   1.461391e+05
   8.548349e+05   9.258374e+05
   2.979790e+05   6.730023e+05
   4.618897e+05   2.219921e+05
   6.260281e+05   3.070509e+05
   9.139205e+04   7.641579e+05
  -8.899230e+05   9.038956e+05
  -1.467831e+06   3.151062e+05
  -1.052377e+06  -7.456866e+05
   2.712671e+05  -1.477414e+06
   1.750082e+06  -1.066953e+06
   2.262638e+06   5.091513e+05
   1.127653e+06   2.128716e+06
  -1.032152e+06   2.381204e+06
  -2.571598e+06   1.025753e+06
  -2.372457e+06  -6.841668e+05
  -9.573919e+05  -1.369036e+06
   2.234690e+05  -9.627935e+05
   4.104558e+05  -5.074289e+05
   9.095120e+04  -7.425305e+05
   1.095296e+05  -1.303264e+06
   6.776683e+05  -1.290670e+06
   1.300481e+06  -3.136664e+05
   1.335861e+06   1.096571e+06
   5.440112e+05   1.910691e+06
  -6.382422e+05   1.440395e+06
  -1.296400e+06  -1.314435e+04
  -8.121897e+05  -1.299560e+06
   4.012885e+05  -1.408655e+06
   1.178655e+06  -4.097975e+05
   8.227819e+05   7.025764e+05
  -1.224000e+05   1.087464e+06
  -5.437488e+05   7.944161e+05
  -9.188949e+04   4.242548e+05
   4.304076e+05   3.401209e+05
   5.587100e+04   3.852740e+05
  -1.158097e+06   2.064492e+05
  -2.074603e+06  -3.449507e+05
  -1.623396e+06  -1.055359e+06
   4.246000e+04  -1.449414e+06
   1.604318e+06  -1.142890e+06
   1.850265e+06  -2.689625e+05
   8.450545e+05   5.043738e+05
  -2.620946e+05   5.732842e+05
  -5.184895e+05   3.320249e+04
  -3.265792e+04  -4.202200e+05
   4.464802e+05  -2.538268e+05
   4.821206e+05   3.465250e+05
   2.478542e+05   7.228676e+05
   9.270570e+04   4.766998e+05
   1.436669e+05  -9.368385e+04
   2.892090e+05  -2.870898e+05
   2.762597e+05   2.372817e+05
  -1.515093e+05   9.885926e+05
  -9.114608e+05   1.067439e+06
  -1.368624e+06   1.757121e+05
  -8.526614e+05  -9.182976e+05
   4.190240e+05  -1.145437e+06
   1.262822e+06  -3.376519e+05
   7.332377e+05   5.799914e+05
  -7.135720e+05   6.492058e+05
  -1.601518e+06  -1.129105e+05
  -1.004805e+06  -8.868469e+05
   5.034389e+05  -9.967966e+05
   1.521956e+06  -4.643944e+05
   1.242535e+06   2.105482e+05
   1.277384e+05   5.216579e+05
  -6.601067e+05   2.651891e+05
  -3.886193e+05  -2.981222e+05
   5.869442e+05  -5.221367e+05
   1.187278e+06   8.299456e+04
   6.735167e+05   1.185155e+06
  -5.927259e+05   1.708699e+06
  -1.491455e+06   8.873287e+05
  -1.260247e+06  -7.661598e+05
  -1.947317e+05  -1.804153e+06
   7.569062e+05  -1.296117e+06
   9.342209e+05   1.899547e+05
   4.221883e+05   1.209162e+06
  -2.383815e+05   9.764778e+05
  -5.718921e+05   7.947879e+04
  -4.604108e+05  -3.859521e+05
  -1.555181e+05  -1.417345e+05
  -5.373239e+04   9.529041e+04
  -2.939358e+05  -2.978360e+05
  -5.137522e+05  -9.765983e+05
  -1.760752e+05  -1.091817e+06
   7.342277e+05  -3.985037e+05
   1.482412e+06   4.771010e+05
   1.276474e+06   8.553171e+05
   1.827470e+05   7.077988e+05
  -8.526421e+05   4.154648e+05
  -9.912259e+05   1.739105e+05
  -3.739718e+05  -5.708234e+04
   1.433818e+05  -2.262491e+05
   5.106399e+04  -2.059134e+05
  -2.509717e+05  -9.455178e+04
  -5.555013e+04  -1.314692e+05
   6.511996e+05  -2.360282e+05
   1.055675e+06   8.221047e+03
   4.571033e+05   6.931491e+05
  -8.331009e+05   1.190574e+06
  -1.720760e+06   7.759734e+05
  -1.438480e+06  -4.205922e+05
  -2.821289e+05  -1.413573e+06
   7.764261e+05  -1.393806e+06
   1.055423e+06  -5.536219e+05
   6.559263e+05   2.261410e+05
   1.420374e+05   3.594914e+05
  -5.400106e+04   7.200184e+04
   9.066433e+04  -7.649609e+03
   2.970521e+05   3.784074e+05
   2.427892e+05   8.175639e+05
  -1.757096e+05   6.879134e+05
  -6.804582e+05  -1.102709e+05
  -7.542654e+05  -9.435510e+05
  -1.392810e+05  -1.036471e+06
   7.431397e+05  -2.662661e+05
   1.047235e+06   7.058240e+05
   3.668578e+05   1.095639e+06
  -7.105801e+05   6.982642e+05
  -1.136077e+06  -6.417660e+04
  -5.517787e+05  -6.257988e+05
   2.842272e+05  -7.018923e+05
   3.955870e+05  -3.802337e+05
  -2.310832e+05  -6.432892e+03
  -6.498827e+05   4.320510e+04
  -1.556029e+05  -3.119939e+05
   8.315003e+05  -6.846457e+05
   1.286935e+06  -5.392076e+05
   7.901661e+05   1.858400e+05
  -9.111125e+04   8.837210e+05
  -5.676925e+05   8.764665e+05
  -4.430356e+05   1.820191e+05
  -6.356554e+04  -4.733960e+05
   2.337007e+05  -4.489961e+05
   3.507170e+05   1.311394e+05
   2.612238e+05   5.800055e+05
  -4.313357e+04   4.450421e+05
  -3.935307e+05  -3.582503e+04
  -4.896258e+05  -2.910262e+05
  -2.477640e+05  -1.064808e+05
   4.689026e+04   1.621598e+05
   9.060202e+04   7.014729e+04
  -3.431333e+04  -3.400372e+05
   9.933887e+03  -5.655004e+05
   3.023837e+05  -2.503445e+05
   4.819551e+05   3.543039e+05
   1.914674e+05   6.424464e+05
  -3.991547e+05   3.261458e+05
  -6.807513e+05  -2.635752e+05
  -2.668605e+05  -5.677988e+05
   5.144337e+05  -3.756279e+05
   8.994774e+05   6.032917e+04
   4.908138e+05   3.763467e+05
  -2.907146e+05   4.190143e+05
  -6.442511e+05   2.517455e+05
  -2.660028e+05   2.627684e+04
   3.255520e+05  -8.126597e+04
   3.991012e+05   4.300018e+04
  -1.540246e+05   2.789715e+05
  -7.208066e+05   2.735214e+05
