
 $NMID
 id='ANONYMOUS ', fmtdat='(2E16.6)'
 volume=1.0
 tramp=1.0
 $END
  -1.497067e+07  -2.540365e+06
  -8.763889e+06  -7.804851e+06
   1.074960e+06  -8.926900e+06
   6.834816e+06  -5.880415e+06
   5.486322e+06  -7.445428e+05
   3.390719e+05   2.641122e+06
  -3.147703e+06   1.522878e+06
  -2.426216e+06  -2.463863e+06
   7.764539e+05  -4.465888e+06
   2.997427e+06  -1.901015e+06
   2.386004e+06   2.378899e+06
  -3.829069e+04   3.528448e+06
  -1.746410e+06   4.612532e+05
  -1.124456e+06  -3.169121e+06
   1.110688e+06  -3.414289e+06
   2.621719e+06  -1.786816e+05
   1.680605e+06   3.243320e+06
  -1.085640e+06   3.803280e+06
  -3.213902e+06   1.406296e+06
  -2.860198e+06  -1.486874e+06
  -7.129834e+05  -2.470929e+06
   7.746145e+05  -1.467104e+06
   1.090826e+05  -4.915890e+05
  -1.554533e+06  -1.163277e+06
  -1.687354e+06  -2.755275e+06
   7.266165e+05  -3.123982e+06
   3.842761e+06  -1.339966e+06
   4.679088e+06   1.243091e+06
   2.206873e+06   2.553666e+06
  -1.403292e+06   1.815869e+06
  -2.826199e+06  -9.834442e+04
  -9.470916e+05  -1.629267e+06
   2.020057e+06  -1.549724e+06
   2.972968e+06   2.401043e+05
   1.238767e+06   2.323667e+06
  -9.926620e+05   2.696229e+06
  -1.441446e+06   8.666790e+05
  -2.199658e+05  -1.227067e+06
   7.955114e+05  -1.225246e+06
   4.267410e+05   7.838753e+05
  -7.254964e+05   2.269542e+06
  -1.405207e+06   1.364462e+06
  -1.069406e+06  -8.542194e+05
  -4.719812e+04  -1.770292e+06
   9.138438e+05  -3.910291e+05
   9.547051e+05   1.644568e+06
  -3.605539e+05   2.088123e+06
  -2.250076e+06   4.581119e+05
  -2.919247e+06  -1.727048e+06
  -1.317563e+06  -2.612532e+06
   1.395437e+06  -1.645113e+06
   2.794434e+06   1.648168e+05
   1.739248e+06   1.288981e+06
  -4.662190e+05   1.015288e+06
  -1.616653e+06  -6.021163e+04
  -9.109030e+05  -7.549552e+05
   5.109990e+05  -4.684724e+05
   1.024453e+06   3.628048e+05
   1.960332e+05   8.486487e+05
  -9.060425e+05   5.302003e+05
  -8.995163e+05  -2.625318e+05
   3.752939e+05  -7.319328e+05
   1.515293e+06  -2.726267e+05
   9.743140e+05   9.512951e+05
  -1.129044e+06   1.957114e+06
  -2.956746e+06   1.678228e+06
  -2.907237e+06   8.472342e+03
  -1.306045e+06  -1.930043e+06
   1.867262e+05  -2.786659e+06
   5.685043e+05  -2.284192e+06
   3.655804e+05  -1.348971e+06
   5.849288e+05  -9.074616e+05
   1.387538e+06  -8.119084e+05
   2.042473e+06  -2.148350e+05
   1.824034e+06   1.095391e+06
   6.706479e+05   2.123061e+06
  -7.949929e+05   1.683618e+06
  -1.623421e+06  -1.297525e+05
  -1.145616e+06  -1.807211e+06
   3.802151e+05  -1.879520e+06
   1.764535e+06  -3.762205e+05
   1.879800e+06   1.306692e+06
   7.691224e+05   1.888369e+06
  -4.369843e+05   1.348269e+06
  -7.955679e+05   6.204444e+05
  -5.488274e+05   4.275860e+05
  -6.839441e+05   6.088676e+05
  -1.600322e+06   4.798413e+05
  -2.454414e+06  -3.680966e+05
  -1.984462e+06  -1.632052e+06
   1.835075e+04  -2.492533e+06
   2.206022e+06  -2.227265e+06
   2.836634e+06  -8.387234e+05
   1.511408e+06   7.919546e+05
  -3.858303e+05   1.518159e+06
  -1.109587e+06   9.325955e+05
  -3.004908e+05  -2.021270e+05
   8.538319e+05  -6.821046e+05
   1.076512e+06  -1.079692e+05
   3.015727e+05   7.038591e+05
  -5.116617e+05   6.808403e+05
  -5.202216e+05  -2.039851e+05
   2.526913e+05  -8.091336e+05
   1.070407e+06  -1.181979e+05
   1.103943e+06   1.480019e+06
   4.658878e+04   2.440478e+06
  -1.541284e+06   1.656982e+06
  -2.493741e+06  -3.412546e+05
  -1.984190e+06  -1.917516e+06
  -3.901355e+05  -1.972225e+06
   9.602057e+05  -9.056708e+05
   1.084415e+06   2.108128e+04
   3.072499e+05   5.104753e+04
  -2.066262e+05  -4.711513e+05
   2.020020e+05  -7.058946e+05
   9.966546e+05  -2.738639e+05
   1.131425e+06   4.349808e+05
   2.898622e+05   7.453602e+05
  -6.946945e+05   3.788362e+05
  -7.014605e+05  -2.881353e+05
   4.229676e+05  -5.613895e+05
   1.570755e+06  -5.919252e+04
   1.454584e+06   8.956566e+05
  -1.109714e+04   1.499039e+06
  -1.544376e+06   1.173362e+06
  -1.791980e+06   1.382084e+05
  -6.923754e+05  -7.393608e+05
   5.576391e+05  -7.456185e+05
   7.959521e+05  -1.932122e+04
  -1.422279e+04   5.822539e+05
  -9.340183e+05   3.675384e+05
  -1.061159e+06  -4.588865e+05
  -3.215269e+05  -1.023054e+06
   5.744122e+05  -7.449656e+05
   8.270533e+05   2.742081e+04
   2.847658e+05   4.272359e+05
  -3.949602e+05   4.229610e+04
  -3.767771e+05  -6.511946e+05
   4.551250e+05  -8.331784e+05
   1.287206e+06  -2.003113e+05
   1.196229e+06   7.635673e+05
   1.591211e+05   1.280114e+06
  -8.945366e+05   9.693033e+05
  -1.059436e+06   1.353597e+05
  -3.552250e+05  -5.251597e+05
   4.013058e+05  -5.277075e+05
   5.004449e+05  -1.814390e+04
   1.544803e+03   3.975253e+05
  -4.532703e+05   2.996741e+05
  -3.626226e+05  -8.861570e+04
   1.255347e+05  -1.823257e+05
   3.835806e+05   2.353637e+05
  -2.695485e+04   6.977514e+05
  -8.418381e+05   5.507627e+05
  -1.286537e+06  -3.055907e+05
  -8.366604e+05  -1.259924e+06
   2.297290e+05  -1.554382e+06
   1.093665e+06  -9.641286e+05
   1.195585e+06   3.790750e+04
   7.113150e+05   7.213469e+05
   2.414017e+05   7.289152e+05
   1.339558e+05   3.461657e+05
   1.903560e+05   1.502054e+05
  -2.462429e+02   3.574094e+05
  -5.216122e+05   5.690172e+05
  -9.601122e+05   2.567561e+05
  -7.776433e+05  -5.266675e+05
   1.154584e+05  -1.072089e+06
   1.141850e+06  -7.324279e+05
   1.468755e+06   3.524012e+05
   7.368716e+05   1.334761e+06
  -5.741525e+05   1.446240e+06
  -1.530895e+06   6.668216e+05
  -1.537225e+06  -3.395783e+05
  -7.818573e+05  -8.725485e+05
   4.099715e+04  -7.821940e+05
   3.993380e+05  -4.867517e+05
   3.257807e+05  -4.529877e+05
   2.384081e+05  -6.703159e+05
   4.314475e+05  -6.735996e+05
   7.518656e+05  -1.136129e+05
   7.676014e+05   7.516831e+05
   2.585844e+05   1.231501e+06
  -4.725269e+05   8.868556e+05
  -8.306514e+05  -1.806809e+04
  -5.094244e+05  -7.693308e+05
   1.803780e+05  -8.559815e+05
   6.115147e+05  -3.545296e+05
   4.686013e+05   2.529327e+05
   3.217311e+04   5.524121e+05
  -1.772506e+05   5.002227e+05
   8.536272e+03   3.377725e+05
   2.245907e+05   2.722227e+05
  -1.176362e+03   2.621560e+05
  -6.674249e+05   1.128572e+05
  -1.197727e+06  -2.504273e+05
  -9.814890e+05  -6.518236e+05
  -3.887205e+04  -8.162185e+05
   9.104775e+05  -6.199868e+05
   1.119898e+06  -1.916501e+05
   5.524603e+05   1.867431e+05
  -1.247722e+05   2.756219e+05
  -2.822700e+05   6.580583e+04
   4.709222e+04  -1.729331e+05
   3.429427e+05  -1.163612e+05
   2.715826e+05   2.406431e+05
   1.292843e+04   5.027939e+05
  -6.901725e+04   3.162232e+05
   1.038539e+05  -1.346268e+05
   2.778204e+05  -2.744297e+05
   1.866628e+05   1.440693e+05
  -1.875977e+05   6.586730e+05
  -6.072000e+05   6.166135e+05
  -7.333521e+05  -2.261967e+04
  -3.654278e+05  -6.200347e+05
   3.113497e+05  -5.961252e+05
   7.336892e+05  -4.814574e+04
   4.232816e+05   4.330151e+05
  -4.431268e+05   4.067154e+05
  -1.058782e+06  -6.061032e+04
  -7.607719e+05  -5.595485e+05
   2.342364e+05  -7.073888e+05
   1.006789e+06  -4.093421e+05
   8.851898e+05   8.505767e+04
   1.255362e+05   3.616521e+05
  -4.120071e+05   2.019861e+05
  -1.961322e+05  -1.668942e+05
   4.500230e+05  -2.524961e+05
   7.413877e+05   1.894385e+05
   2.720598e+05   8.297185e+05
  -5.780937e+05   1.019208e+06
  -1.051412e+06   4.211784e+05
  -7.662537e+05  -5.895110e+05
  -3.110284e+04  -1.191343e+06
   5.399412e+05  -8.631484e+05
   6.118484e+05   8.430282e+04
   3.009772e+05   7.807127e+05
  -8.981310e+04   6.723643e+05
  -3.388453e+05   7.058027e+04
  -3.547777e+05  -2.817424e+05
  -1.771271e+05  -1.214470e+05
  -6.424344e+03   8.390975e+04
  -5.748819e+04  -1.501988e+05
  -2.449961e+05  -6.261833e+05
  -1.681896e+05  -7.258676e+05
   3.744721e+05  -2.414241e+05
   9.508703e+05   3.720191e+05
   8.797360e+05   6.014707e+05
   9.864898e+04   4.424946e+05
  -6.489379e+05   2.226403e+05
  -6.752055e+05   1.015135e+05
  -1.670705e+05  -5.362396e+03
   1.350246e+05  -1.311574e+05
  -5.618774e+04  -1.763443e+05
  -2.617850e+05  -1.256456e+05
   1.092112e+04  -9.406029e+04
   5.413057e+05  -8.183647e+04
   6.631364e+05   9.122201e+04
   1.036735e+05   4.536868e+05
  -6.961646e+05   6.577212e+05
  -1.073705e+06   3.265340e+05
  -7.701572e+05  -4.086037e+05
  -6.308818e+04  -9.382963e+05
   5.450035e+05  -8.136055e+05
   7.040871e+05  -2.257604e+05
   4.231103e+05   2.376176e+05
   2.658689e+04   2.366275e+05
  -1.288795e+05  -1.567493e+04
   2.337934e+04  -6.887537e+04
   2.164748e+05   2.256099e+05
   1.519910e+05   5.341669e+05
  -1.719346e+05   4.084488e+05
  -4.503225e+05  -1.773114e+05
  -3.689717e+05  -7.151514e+05
   8.282721e+04  -6.619066e+05
   5.531259e+05  -3.176307e+04
   5.970489e+05   6.031471e+05
   1.042180e+05   7.175515e+05
  -5.129109e+05   3.308764e+05
  -6.732847e+05  -1.380417e+05
  -2.574390e+05  -3.661341e+05
   2.181191e+05  -3.415207e+05
   1.946787e+05  -1.964504e+05
  -2.365114e+05  -5.040080e+04
  -4.410984e+05  -2.504871e+04
  -4.944786e+04  -1.918649e+05
   5.710542e+05  -4.004254e+05
   7.757700e+05  -3.336262e+05
   4.030108e+05   9.758077e+04
  -1.197517e+05   5.234675e+05
  -3.377001e+05   4.871860e+05
  -2.063962e+05   2.287459e+04
   3.457356e+04  -3.439028e+05
   1.945348e+05  -2.242545e+05
   2.227200e+05   1.845006e+05
   1.184814e+05   3.895885e+05
  -7.830922e+04   2.088070e+05
  -2.463416e+05  -8.245099e+04
  -2.651625e+05  -1.607403e+05
  -1.494780e+05  -3.319963e+04
  -2.204209e+04   4.449576e+04
   4.901155e+04  -7.973952e+04
   1.095026e+05  -2.735484e+05
   2.022392e+05  -2.758385e+05
   2.631002e+05   4.846428e+03
   1.805126e+05   3.550499e+05
  -6.129620e+04   4.382698e+05
  -3.174735e+05   1.435605e+05
  -3.646544e+05  -2.668053e+05
  -9.306219e+04  -4.129054e+05
   3.281736e+05  -1.940325e+05
   5.226704e+05   1.339424e+05
   2.647710e+05   2.743034e+05
  -2.140259e+05   1.877660e+05
  -4.072947e+05   4.373727e+04
  -1.081217e+05  -1.516456e+04
   3.037807e+05   3.247489e+04
   2.891873e+05   1.434408e+05
  -1.881172e+05   2.241088e+05
  -5.977722e+05   1.270603e+05
