
 $NMID
 id='ANONYMOUS ', fmtdat='(2E16.6)'
 volume=1.0
 tramp=1.0
 $END
  -2.873337e+07   1.725121e+06
  -1.997168e+07  -1.320445e+07
  -5.121201e+05  -1.866551e+07
   1.226866e+07  -1.218182e+07
   1.034937e+07  -9.189170e+05
   5.596987e+05   5.228729e+06
  -5.760226e+06   2.392202e+06
  -4.243832e+06  -4.601954e+06
   1.356684e+06  -7.645343e+06
   5.277080e+06  -3.458475e+06
   4.710555e+06   3.435922e+06
   8.367046e+05   5.783750e+06
  -2.601778e+06   1.412693e+06
  -2.279092e+06  -4.598664e+06
   1.520316e+06  -5.643964e+06
   4.768376e+06  -6.120544e+05
   3.724510e+06   5.474307e+06
  -1.031318e+06   7.148076e+06
  -5.288128e+06   3.685273e+06
  -5.675775e+06  -1.243391e+06
  -2.773076e+06  -3.820885e+06
   3.875883e+04  -3.358699e+06
   1.642469e+05  -2.019261e+06
  -1.718338e+06  -2.095303e+06
  -2.381585e+06  -3.627454e+06
   4.888838e+05  -4.499204e+06
   5.253535e+06  -2.872929e+06
   7.380062e+06   5.915925e+05
   4.319331e+06   3.239710e+06
  -1.195718e+06   3.090760e+06
  -3.847502e+06   6.667515e+05
  -1.579159e+06  -1.729022e+06
   2.457611e+06  -2.052996e+06
   3.935407e+06   2.316487e+04
   2.008164e+06   2.860503e+06
  -7.198014e+05   3.899860e+06
  -1.729684e+06   1.928743e+06
  -8.843421e+05  -1.189783e+06
   3.078742e+05  -1.999433e+06
   4.804492e+05   4.968204e+05
  -6.076813e+05   3.140368e+06
  -1.965232e+06   2.274165e+06
  -2.018171e+06  -1.430025e+06
  -9.975560e+04  -3.507116e+06
   2.352395e+06  -1.257530e+06
   2.712709e+06   2.867543e+06
  -8.476329e+04   4.305067e+06
  -3.917429e+06   1.636184e+06
  -5.194160e+06  -2.349441e+06
  -2.425182e+06  -4.136636e+06
   2.114760e+06  -2.771898e+06
   4.477653e+06   6.299253e+04
   2.835612e+06   2.011720e+06
  -8.347282e+05   1.833647e+06
  -2.876222e+06   1.285188e+05
  -1.691871e+06  -1.256845e+06
   8.228599e+05  -9.621024e+05
   1.640741e+06   4.868661e+05
   5.045063e+04   1.300559e+06
  -1.713864e+06   4.989510e+05
  -1.246920e+06  -1.037443e+06
   1.186888e+06  -1.638482e+06
   2.955958e+06  -5.109816e+05
   1.949735e+06   1.712701e+06
  -1.254735e+06   3.504859e+06
  -4.090666e+06   3.353028e+06
  -4.516134e+06   8.631865e+05
  -2.704090e+06  -2.524733e+06
  -4.750725e+05  -4.432674e+06
   6.402649e+05  -3.805328e+06
   6.812778e+05  -2.000828e+06
   7.617588e+05  -1.048358e+06
   1.576265e+06  -1.143129e+06
   2.595146e+06  -7.185535e+05
   2.686679e+06   1.035554e+06
   1.336859e+06   2.733242e+06
  -7.720209e+05   2.407947e+06
  -2.213056e+06   1.912396e+03
  -1.850702e+06  -2.420397e+06
   2.146719e+05  -2.802897e+06
   2.496970e+06  -9.930910e+05
   3.199628e+06   1.414555e+06
   1.855622e+06   2.705189e+06
  -1.680171e+05   2.428730e+06
  -1.158297e+06   1.463388e+06
  -9.949131e+05   9.251416e+05
  -1.121130e+06   1.013711e+06
  -2.446701e+06   9.051597e+05
  -3.839362e+06  -2.340182e+05
  -3.272134e+06  -2.201858e+06
  -3.374597e+05  -3.765490e+06
   2.939321e+06  -3.673997e+06
   4.018050e+06  -1.750105e+06
   2.345648e+06   8.073695e+05
  -2.262937e+05   2.214838e+06
  -1.373197e+06   1.572358e+06
  -4.648214e+05  -2.002101e+05
   1.122107e+06  -1.151882e+06
   1.617944e+06  -3.609853e+05
   6.361282e+05   9.938264e+05
  -6.172386e+05   1.064166e+06
  -7.301167e+05  -2.892267e+05
   4.614916e+05  -1.187217e+06
   1.753842e+06  -3.285955e+04
   1.729257e+06   2.405778e+06
   1.265013e+04   3.715229e+06
  -2.375324e+06   2.447943e+06
  -3.743255e+06  -4.280505e+05
  -3.029573e+06  -2.647032e+06
  -7.598691e+05  -2.825202e+06
   1.267946e+06  -1.465471e+06
   1.579664e+06  -1.481573e+05
   4.661448e+05   2.869442e+04
  -3.756363e+05  -6.798373e+05
   2.138013e+05  -1.137415e+06
   1.514171e+06  -5.946205e+05
   1.817804e+06   5.275406e+05
   5.336958e+05   1.133428e+06
  -1.012112e+06   6.533689e+05
  -1.042091e+06  -3.662441e+05
   6.379752e+05  -8.382955e+05
   2.330678e+06  -1.748295e+05
   2.181232e+06   1.200957e+06
   8.976390e+04   2.193925e+06
  -2.162622e+06   1.905830e+06
  -2.656542e+06   4.416570e+05
  -1.166773e+06  -1.029115e+06
   7.203037e+05  -1.257690e+06
   1.237395e+06  -1.895386e+05
   1.106434e+05   8.867531e+05
  -1.350019e+06   7.040003e+05
  -1.664100e+06  -5.625395e+05
  -5.804083e+05  -1.516763e+06
   8.228001e+05  -1.165310e+06
   1.257027e+06  -3.631750e+03
   4.466740e+05   6.437922e+05
  -6.255220e+05   1.224814e+05
  -6.779023e+05  -9.266162e+05
   5.426754e+05  -1.319811e+06
   1.885481e+06  -5.070164e+05
   1.910427e+06   9.516165e+05
   4.330617e+05   1.901907e+06
  -1.215679e+06   1.594700e+06
  -1.583704e+06   3.427565e+05
  -5.901197e+05  -7.545992e+05
   5.434321e+05  -8.367925e+05
   7.103059e+05  -8.487213e+04
   5.084287e+01   5.524411e+05
  -6.231934e+05   4.306469e+05
  -4.562600e+05  -1.152454e+05
   2.527311e+05  -2.384863e+05
   6.176790e+05   3.762779e+05
   2.178948e+04   1.086803e+06
  -1.205656e+06   9.455789e+05
  -1.977698e+06  -2.782007e+05
  -1.443149e+06  -1.765750e+06
   1.202795e+05  -2.344884e+06
   1.506920e+06  -1.554585e+06
   1.765951e+06  -6.407014e+04
   1.084458e+06   9.656833e+05
   3.985669e+05   9.658812e+05
   2.721940e+05   4.113646e+05
   3.811823e+05   1.889159e+05
   8.325656e+04   5.724933e+05
  -7.230333e+05   9.292144e+05
  -1.406578e+06   4.861384e+05
  -1.191552e+06  -6.874154e+05
   7.257983e+04  -1.585968e+06
   1.616110e+06  -1.221984e+06
   2.232096e+06   3.353473e+05
   1.268940e+06   1.914700e+06
  -6.951551e+05   2.272435e+06
  -2.244510e+06   1.202006e+06
  -2.347504e+06  -3.483422e+05
  -1.223090e+06  -1.228572e+06
   1.826091e+04  -1.132495e+06
   5.111610e+05  -7.064564e+05
   3.373083e+05  -6.908671e+05
   1.933963e+05  -1.064860e+06
   5.401398e+05  -1.112883e+06
   1.125118e+06  -3.047171e+05
   1.265388e+06   9.986179e+05
   5.710362e+05   1.793805e+06
  -5.683328e+05   1.388626e+06
  -1.242308e+06   8.055759e+04
  -8.702378e+05  -1.105726e+06
   1.812603e+05  -1.327868e+06
   9.296385e+05  -5.948406e+05
   7.780486e+05   3.778021e+05
   9.943642e+04   8.848854e+05
  -2.586159e+05   7.952956e+05
   2.425750e+04   4.899904e+05
   3.812997e+05   3.534928e+05
   4.256598e+04   3.827117e+05
  -1.006781e+06   2.700913e+05
  -1.863969e+06  -1.958992e+05
  -1.572789e+06  -8.514366e+05
  -1.526923e+05  -1.261971e+06
   1.308243e+06  -1.094759e+06
   1.674043e+06  -4.297807e+05
   8.629560e+05   2.569402e+05
  -1.543167e+05   4.646520e+05
  -4.365784e+05   1.257329e+05
   1.198744e+04  -2.886579e+05
   4.719774e+05  -2.266515e+05
   4.471428e+05   3.135043e+05
   1.281226e+05   7.175734e+05
  -2.074674e+04   4.609775e+05
   1.440816e+05  -1.882062e+05
   3.619976e+05  -4.028483e+05
   2.963220e+05   1.969222e+05
  -1.696729e+05   9.898187e+05
  -8.145591e+05   1.019183e+06
  -1.131813e+06   1.229965e+05
  -6.824158e+05  -8.472013e+05
   3.579379e+05  -9.722357e+05
   1.094921e+06  -2.320845e+05
   6.957851e+05   5.666528e+05
  -6.142412e+05   6.693913e+05
  -1.581038e+06   3.582715e+04
  -1.170098e+06  -7.581669e+05
   2.991494e+05  -1.075768e+06
   1.457158e+06  -6.977019e+05
   1.310504e+06   4.367056e+04
   2.149978e+05   5.211148e+05
  -5.982112e+05   3.441785e+05
  -3.349750e+05  -2.263966e+05
   6.055158e+05  -4.525223e+05
   1.121269e+06   1.409723e+05
   5.567235e+05   1.161474e+06
  -6.577477e+05   1.596829e+06
  -1.466468e+06   8.007596e+05
  -1.221491e+06  -7.449161e+05
  -2.250604e+05  -1.752749e+06
   6.832540e+05  -1.340609e+06
   9.258187e+05   6.308926e+04
   5.374916e+05   1.131208e+06
  -7.721642e+04   1.008761e+06
  -5.100006e+05   1.449061e+05
  -5.410773e+05  -3.726396e+05
  -2.494358e+05  -1.588879e+05
  -1.133304e+04   1.218982e+05
  -1.547568e+05  -2.144088e+05
  -4.739202e+05  -8.939809e+05
  -3.207627e+05  -1.061645e+06
   5.601782e+05  -4.252393e+05
   1.459475e+06   4.131580e+05
   1.363255e+06   7.774484e+05
   2.113689e+05   6.505889e+05
  -9.011761e+05   4.168410e+05
  -9.816250e+05   2.354659e+05
  -2.793956e+05   1.185137e+04
   1.684827e+05  -2.121371e+05
  -7.050971e+04  -2.527828e+05
  -3.644680e+05  -1.458693e+05
  -9.995256e+03  -1.330634e+05
   7.477945e+05  -1.985533e+05
   9.964024e+05   2.165543e+04
   2.757737e+05   6.375371e+05
  -8.883872e+05   1.086201e+06
  -1.551591e+06   6.860515e+05
  -1.237029e+06  -4.461745e+05
  -2.492075e+05  -1.368486e+06
   6.855164e+05  -1.306542e+06
   9.982810e+05  -4.670764e+05
   6.498104e+05   2.707340e+05
   9.067078e+04   3.402335e+05
  -1.546209e+05   1.838217e+03
   4.642500e+04  -8.854792e+04
   3.453523e+05   3.192190e+05
   2.943133e+05   7.754405e+05
  -1.812141e+05   6.354789e+05
  -6.768478e+05  -1.738463e+05
  -6.665476e+05  -9.698842e+05
  -1.897066e+04  -9.783168e+05
   7.784586e+05  -1.549710e+05
   9.746247e+05   7.648309e+05
   2.894319e+05   1.037302e+06
  -6.901946e+05   5.920887e+05
  -1.030350e+06  -8.104654e+04
  -4.685363e+05  -5.146128e+05
   2.569222e+05  -5.706751e+05
   2.805285e+05  -3.417955e+05
  -3.236982e+05  -4.066451e+04
  -6.475092e+05   3.330827e+04
  -1.165520e+05  -2.768973e+05
   7.849464e+05  -6.789729e+05
   1.132633e+06  -6.071642e+05
   6.529066e+05   8.888966e+04
  -8.622442e+04   8.043172e+05
  -4.424957e+05   7.998699e+05
  -3.201810e+05   1.024855e+05
  -1.248931e+04  -4.948945e+05
   2.389338e+05  -3.759310e+05
   3.441099e+05   2.128922e+05
   2.408776e+05   5.549886e+05
  -6.345151e+04   3.417065e+05
  -3.729564e+05  -7.097062e+04
  -4.366044e+05  -2.092803e+05
  -2.353585e+05  -4.145988e+04
  -1.898806e+03   8.298198e+04
   8.231518e+04  -8.384998e+04
   9.123208e+04  -3.867428e+05
   1.891491e+05  -4.423084e+05
   3.488097e+05  -7.375691e+04
   3.422344e+05   4.474751e+05
   2.347019e+04   6.301193e+05
  -4.268844e+05   2.692986e+05
  -5.908705e+05  -3.099757e+05
  -2.117544e+05  -5.787343e+05
   4.606111e+05  -3.477923e+05
   8.044464e+05   9.460811e+04
   4.432307e+05   3.588130e+05
  -2.762748e+05   3.317601e+05
  -5.899442e+05   1.578663e+05
  -1.807015e+05   1.013797e+04
   4.146126e+05  -6.432050e+03
   4.238873e+05   1.424306e+05
  -2.280902e+05   3.316137e+05
  -8.246608e+05   2.644929e+05
