
 $NMID
 id='ANONYMOUS ', fmtdat='(2E16.6)'
 volume=1.0
 tramp=1.0
 $END
  -6.130560e+07  -1.344393e+05
  -3.644582e+07  -3.878786e+07
   8.850894e+06  -4.167873e+07
   3.034219e+07  -1.507032e+07
   1.755555e+07   8.498040e+06
  -4.031299e+06   1.006878e+07
  -1.054564e+07  -1.916263e+06
  -2.476354e+06  -1.069858e+07
   7.081994e+06  -9.589147e+06
   1.041843e+07  -1.706536e+06
   7.400324e+06   6.661591e+06
   8.395295e+05   9.067225e+06
  -4.214628e+06   3.002555e+06
  -2.695026e+06  -5.529098e+06
   4.152088e+06  -6.661971e+06
   8.416314e+06   1.691183e+06
   4.575214e+06   1.103104e+07
  -4.250813e+06   1.261931e+07
  -1.094233e+07   6.333694e+06
  -1.174067e+07  -2.140769e+06
  -7.371773e+06  -8.117889e+06
  -8.785862e+05  -9.633000e+06
   3.418425e+06  -6.828645e+06
   2.563840e+06  -2.790639e+06
  -8.376117e+05  -1.812520e+06
  -4.310029e+05  -4.049635e+06
   5.336592e+06  -4.684506e+06
   1.000528e+07  -7.697383e+05
   7.541394e+06   4.221613e+06
   5.774772e+05   5.406526e+06
  -3.630630e+06   2.957559e+06
  -2.631750e+06   3.905852e+05
   2.069451e+05  -7.031931e+05
   1.906115e+06  -6.082492e+05
   2.218416e+06   1.104851e+06
   1.002341e+06   3.885879e+06
  -1.773465e+06   4.214340e+06
  -3.679425e+06   1.385969e+05
  -2.126333e+06  -3.920422e+06
   8.188743e+05  -2.404828e+06
   5.504674e+05   2.286122e+06
  -2.519285e+06   2.295991e+06
  -2.521488e+06  -3.505996e+06
   2.888051e+06  -6.609083e+06
   7.802612e+06  -9.845234e+05
   5.582040e+06   7.651510e+06
  -2.224190e+06   9.298801e+06
  -8.045708e+06   2.583068e+06
  -7.249888e+06  -4.796518e+06
  -1.733079e+06  -6.343455e+06
   3.704824e+06  -2.684834e+06
   5.369217e+06   1.787033e+06
   2.329940e+06   3.742303e+06
  -2.703764e+06   2.258004e+06
  -4.818530e+06  -1.108537e+06
  -1.992975e+06  -2.981340e+06
   1.875659e+06  -1.446048e+06
   1.746846e+06   1.119631e+06
  -1.582987e+06   8.393373e+05
  -2.615887e+06  -2.179240e+06
   9.677489e+05  -3.894362e+06
   5.264163e+06  -1.958878e+06
   5.726726e+06   1.693331e+06
   2.386272e+06   4.381702e+06
  -1.871771e+06   5.574523e+06
  -5.121422e+06   5.118001e+06
  -6.462900e+06   1.936285e+06
  -4.930817e+06  -3.232900e+06
  -1.058074e+06  -6.459578e+06
   2.070057e+06  -4.929232e+06
   1.961811e+06  -1.061838e+06
   4.544494e+04   5.114356e+05
  -3.557665e+05  -9.380640e+05
   1.383108e+06  -1.999725e+06
   2.818786e+06  -5.095038e+05
   2.165180e+06   1.747486e+06
   1.971421e+05   2.081749e+06
  -1.412923e+06   2.538445e+05
  -1.646084e+06  -1.988975e+06
  -6.149054e+04  -2.946660e+06
   2.796212e+06  -1.791982e+06
   4.704209e+06   1.115152e+06
   3.493619e+06   3.929503e+06
   1.151508e+04   4.561307e+06
  -2.472490e+06   2.964195e+06
  -2.463122e+06   1.184826e+06
  -1.965465e+06   6.208479e+05
  -3.029158e+06   4.024656e+05
  -4.438885e+06  -8.497433e+05
  -3.527214e+06  -2.860171e+06
  -1.008485e+05  -4.189575e+06
   3.240074e+06  -3.947675e+06
   4.187773e+06  -2.206860e+06
   2.716007e+06   3.299110e+05
   3.877642e+05   2.233173e+06
  -1.034176e+06   2.009656e+06
  -5.834953e+05   5.898276e+02
   1.075361e+06  -1.344948e+06
   1.964908e+06  -4.128798e+05
   9.854354e+05   1.245193e+06
  -4.929176e+05   1.125488e+06
  -3.656316e+05  -4.106887e+05
   1.193562e+06  -5.971884e+05
   1.883237e+06   1.561257e+06
   4.253078e+05   3.711504e+06
  -1.924034e+06   3.347244e+06
  -3.298982e+06   8.331709e+05
  -3.213721e+06  -1.654519e+06
  -2.112994e+06  -2.777088e+06
  -3.909640e+05  -2.559316e+06
   1.230176e+06  -1.465562e+06
   1.576059e+06  -2.495335e+05
   4.990313e+05   4.852782e+04
  -3.564215e+05  -7.685030e+05
   4.559301e+05  -1.390237e+06
   1.997930e+06  -5.808246e+05
   2.088271e+06   9.667480e+05
   3.546463e+05   1.483849e+06
  -1.210407e+06   5.553990e+05
  -8.554427e+05  -4.765726e+05
   9.002399e+05  -4.481838e+05
   2.149305e+06   4.345925e+05
   1.644387e+06   1.393514e+06
  -3.271718e+05   1.920725e+06
  -2.342707e+06   1.599594e+06
  -2.803902e+06   2.389004e+05
  -1.233692e+06  -1.320931e+06
   9.638719e+05  -1.564988e+06
   1.639031e+06  -1.944644e+05
   2.262107e+05   1.128169e+06
  -1.557923e+06   7.498106e+05
  -1.736500e+06  -8.335383e+05
  -2.808588e+05  -1.688874e+06
   1.159892e+06  -9.339151e+05
   1.261019e+06   3.897965e+05
   1.971673e+05   8.181830e+05
  -8.414696e+05   4.025176e+04
  -7.561715e+05  -1.085436e+06
   5.809719e+05  -1.455187e+06
   2.040698e+06  -5.590273e+05
   2.074366e+06   1.070799e+06
   3.778848e+05   2.121624e+06
  -1.495862e+06   1.662083e+06
  -1.765753e+06   1.804590e+05
  -4.823238e+05  -8.991708e+05
   6.883232e+05  -7.978429e+05
   6.148151e+05  -7.530025e+04
  -1.493068e+05   3.128914e+05
  -4.589030e+05   1.525523e+05
  -3.727209e+04  -5.382463e+04
   5.000051e+05   1.561021e+05
   4.949179e+05   7.479738e+05
  -2.629475e+05   1.215361e+06
  -1.427818e+06   8.871279e+05
  -2.112778e+06  -4.443079e+05
  -1.478487e+06  -1.988142e+06
   2.349923e+05  -2.444421e+06
   1.641644e+06  -1.381379e+06
   1.672085e+06   1.718743e+05
   8.010830e+05   8.778199e+05
   2.968906e+05   5.703920e+05
   5.305321e+05   1.677509e+05
   6.924915e+05   3.432091e+05
   9.567379e+04   8.142989e+05
  -9.146803e+05   8.967113e+05
  -1.459636e+06   2.862811e+05
  -1.014693e+06  -7.295887e+05
   2.937115e+05  -1.428377e+06
   1.748444e+06  -1.038572e+06
   2.255375e+06   5.166955e+05
   1.104972e+06   2.147966e+06
  -1.087012e+06   2.395913e+06
  -2.620976e+06   9.946781e+05
  -2.356061e+06  -7.360229e+05
  -8.895010e+05  -1.367165e+06
   2.541075e+05  -8.978885e+05
   3.563323e+05  -4.592335e+05
   7.100313e+03  -7.696804e+05
   7.453126e+04  -1.372045e+06
   7.006420e+05  -1.338600e+06
   1.338232e+06  -3.276027e+05
   1.362112e+06   1.097641e+06
   5.607657e+05   1.920657e+06
  -6.310161e+05   1.453641e+06
  -1.298221e+06  -1.990671e+04
  -8.019323e+05  -1.329383e+06
   4.422451e+05  -1.417021e+06
   1.225213e+06  -3.591334e+05
   8.235939e+05   7.810684e+05
  -1.791959e+05   1.128574e+06
  -6.093502e+05   7.814652e+05
  -1.136007e+05   3.966139e+05
   4.491604e+05   3.288790e+05
   6.646051e+04   3.832068e+05
  -1.187196e+06   1.985883e+05
  -2.120122e+06  -3.608807e+05
  -1.634617e+06  -1.081338e+06
   8.425300e+04  -1.483847e+06
   1.662614e+06  -1.161134e+06
   1.875005e+06  -2.433296e+05
   8.283270e+05   5.571565e+05
  -2.881166e+05   5.997381e+05
  -5.328653e+05   1.032925e+04
  -4.535790e+04  -4.582883e+05
   4.328830e+05  -2.699833e+05
   4.935995e+05   3.471036e+05
   2.946170e+05   7.223030e+05
   1.334286e+05   4.833805e+05
   1.350099e+05  -6.789938e+04
   2.533659e+05  -2.609441e+05
   2.704939e+05   2.411649e+05
  -1.265965e+05   9.855647e+05
  -9.170134e+05   1.085614e+06
  -1.429290e+06   2.010721e+05
  -9.099115e+05  -9.276962e+05
   4.235359e+05  -1.192911e+06
   1.304068e+06  -3.797250e+05
   7.493428e+05   5.686913e+05
  -7.247588e+05   6.460829e+05
  -1.589801e+06  -1.274639e+05
  -9.579574e+05  -8.899965e+05
   5.368896e+05  -9.636667e+05
   1.507917e+06  -4.168534e+05
   1.207877e+06   2.310426e+05
   1.108314e+05   5.106047e+05
  -6.641853e+05   2.486113e+05
  -4.030008e+05  -3.133598e+05
   5.721164e+05  -5.512535e+05
   1.203929e+06   4.730874e+04
   7.240496e+05   1.178861e+06
  -5.446744e+05   1.745270e+06
  -1.477647e+06   9.331186e+05
  -1.276180e+06  -7.462321e+05
  -2.148915e+05  -1.801748e+06
   7.467151e+05  -1.283892e+06
   9.262097e+05   2.092176e+05
   4.030981e+05   1.209144e+06
  -2.641578e+05   9.550112e+05
  -5.808432e+05   6.652144e+04
  -4.399315e+05  -3.737916e+05
  -1.304860e+05  -1.270943e+05
  -6.247805e+04   8.520130e+04
  -3.334393e+05  -3.235113e+05
  -5.351590e+05  -9.873252e+05
  -1.506829e+05  -1.081279e+06
   7.715925e+05  -3.909433e+05
   1.484213e+06   4.666026e+05
   1.253486e+06   8.434924e+05
   1.827550e+05   7.147722e+05
  -8.248077e+05   4.311126e+05
  -9.804192e+05   1.724519e+05
  -3.961914e+05  -7.585825e+04
   1.316868e+05  -2.330912e+05
   7.986519e+04  -1.842022e+05
  -2.207521e+05  -6.715935e+04
  -7.117305e+04  -1.318886e+05
   6.162719e+05  -2.635457e+05
   1.067082e+06  -1.180261e+04
   5.169997e+05   7.075238e+05
  -7.954861e+05   1.232270e+06
  -1.750209e+06   8.189361e+05
  -1.497643e+06  -3.958188e+05
  -3.134847e+05  -1.414178e+06
   7.774470e+05  -1.419097e+06
   1.060220e+06  -5.915880e+05
   6.603010e+05   1.996479e+05
   1.617540e+05   3.632821e+05
  -2.693429e+04   9.938617e+04
   9.800068e+04   1.727468e+04
   2.842465e+05   3.848449e+05
   2.386067e+05   8.168611e+05
  -1.633418e+05   7.023945e+05
  -6.829377e+05  -7.835927e+04
  -7.942507e+05  -9.208395e+05
  -1.895271e+05  -1.051473e+06
   7.296269e+05  -3.132789e+05
   1.078379e+06   6.686797e+05
   4.040376e+05   1.103429e+06
  -7.053505e+05   7.368695e+05
  -1.161884e+06  -4.411133e+04
  -5.774746e+05  -6.492335e+05
   2.853542e+05  -7.395160e+05
   4.221589e+05  -3.893477e+05
  -2.044333e+05   1.367513e+04
  -6.460354e+05   5.778547e+04
  -1.697318e+05  -3.197480e+05
   8.272803e+05  -6.943523e+05
   1.309635e+06  -5.300474e+05
   8.228666e+05   2.068952e+05
  -8.037456e+04   9.026159e+05
  -5.891982e+05   8.960770e+05
  -4.777775e+05   2.049700e+05
  -8.832277e+04  -4.658329e+05
   2.267132e+05  -4.722036e+05
   3.577631e+05   1.000356e+05
   2.747326e+05   5.798882e+05
  -3.490518e+04   4.745800e+05
  -3.997844e+05  -1.916631e+04
  -5.023888e+05  -3.073261e+05
  -2.477594e+05  -1.210905e+05
   5.912967e+04   1.865400e+05
   8.431151e+04   1.139066e+05
  -8.028414e+04  -3.310446e+05
  -4.594387e+04  -6.092008e+05
   2.928312e+05  -3.092006e+05
   5.322212e+05   3.240568e+05
   2.509147e+05   6.485103e+05
  -3.857218e+05   3.498493e+05
  -7.104446e+05  -2.409702e+05
  -2.925593e+05  -5.591875e+05
   5.215784e+05  -3.875982e+05
   9.247051e+05   3.890716e+04
   5.074875e+05   3.727866e+05
  -2.905825e+05   4.464602e+05
  -6.570234e+05   2.863918e+05
  -2.898676e+05   3.057871e+04
   3.001951e+05  -1.142916e+05
   3.960129e+05   4.462865e+03
  -1.227502e+05   2.689869e+05
  -6.808340e+05   2.941174e+05
