
 $NMID
 id='ANONYMOUS ', fmtdat='(2E16.6)'
 volume=1.0
 tramp=1.0
 $END
   1.391345e+07   6.307598e+05
   9.270511e+06   6.315173e+06
   1.452335e+05   8.608809e+06
  -6.003018e+06   6.266659e+06
  -5.361829e+06   1.096818e+06
  -5.549938e+05  -2.564352e+06
   2.998629e+06  -1.626530e+06
   2.493757e+06   2.264415e+06
  -5.353123e+05   4.302858e+06
  -2.756287e+06   2.001428e+06
  -2.362497e+06  -1.994486e+06
  -1.925521e+05  -3.205182e+06
   1.503364e+06  -5.256933e+05
   1.130282e+06   2.840479e+06
  -8.946441e+05   3.243094e+06
  -2.488447e+06   3.714443e+05
  -1.850943e+06  -2.893667e+06
   6.641840e+05  -3.650941e+06
   2.795186e+06  -1.621890e+06
   2.707171e+06   1.021715e+06
   9.130498e+05   2.056488e+06
  -4.060400e+05   1.341044e+06
   1.024556e+05   5.949415e+05
   1.474325e+06   1.191251e+06
   1.545006e+06   2.527050e+06
  -5.940911e+05   2.835286e+06
  -3.401108e+06   1.332728e+06
  -4.250145e+06  -9.043134e+05
  -2.116594e+06  -2.140929e+06
   1.142068e+06  -1.614162e+06
   2.483957e+06   3.213667e+04
   8.182160e+05   1.416909e+06
  -1.848680e+06   1.371163e+06
  -2.684801e+06  -2.141787e+05
  -1.129679e+06  -2.059135e+06
   8.126140e+05  -2.407219e+06
   1.186556e+06  -8.409494e+05
   1.833210e+05   9.876154e+05
  -6.100527e+05   1.041875e+06
  -2.972085e+05  -6.807735e+05
   6.296055e+05  -2.040937e+06
   1.244127e+06  -1.308586e+06
   1.078156e+06   7.319728e+05
   1.979163e+05   1.738811e+06
  -8.547473e+05   5.925205e+05
  -1.110737e+06  -1.383515e+06
   8.923633e+04  -2.021951e+06
   2.022236e+06  -6.448957e+05
   2.815337e+06   1.427966e+06
   1.358022e+06   2.382759e+06
  -1.234582e+06   1.595775e+06
  -2.619341e+06  -4.605979e+04
  -1.684169e+06  -1.142837e+06
   3.842193e+05  -9.979045e+05
   1.521515e+06  -5.693080e+04
   9.112638e+05   6.477183e+05
  -4.379346e+05   4.739996e+05
  -9.629393e+05  -2.990014e+05
  -1.754677e+05  -8.219894e+05
   9.138842e+05  -5.306286e+05
   9.230031e+05   3.081446e+05
  -3.276589e+05   8.367943e+05
  -1.470505e+06   3.943576e+05
  -1.023750e+06  -8.315050e+05
   8.898256e+05  -1.853734e+06
   2.579353e+06  -1.669163e+06
   2.616162e+06  -1.757338e+05
   1.283785e+06   1.635038e+06
  -6.743962e+03   2.526496e+06
  -4.088511e+05   2.155510e+06
  -3.280557e+05   1.289907e+06
  -5.615692e+05   8.189042e+05
  -1.247328e+06   7.095802e+05
  -1.809428e+06   2.090445e+05
  -1.635818e+06  -9.426522e+05
  -6.299832e+05  -1.882649e+06
   6.916862e+05  -1.512772e+06
   1.468519e+06   1.101812e+05
   1.070888e+06   1.623626e+06
  -2.906115e+05   1.710037e+06
  -1.566310e+06   4.035894e+05
  -1.742550e+06  -1.077293e+06
  -8.104155e+05  -1.636527e+06
   2.715143e+05  -1.241512e+06
   6.500405e+05  -6.493674e+05
   4.823264e+05  -4.697491e+05
   6.265037e+05  -6.095936e+05
   1.471775e+06  -5.044079e+05
   2.280217e+06   2.453619e+05
   1.885445e+06   1.425619e+06
   6.782224e+04   2.286639e+06
  -1.942743e+06   2.108219e+06
  -2.546249e+06   8.527123e+05
  -1.379486e+06  -6.649032e+05
   3.092531e+05  -1.369713e+06
   9.651082e+05  -8.650783e+05
   2.666803e+05   1.728413e+05
  -7.545609e+05   6.407997e+05
  -9.749974e+05   1.369070e+05
  -3.010240e+05  -6.195601e+05
   4.455866e+05  -6.228331e+05
   4.790085e+05   1.919754e+05
  -2.400067e+05   7.692808e+05
  -1.039760e+06   1.302853e+05
  -1.094642e+06  -1.378896e+06
  -8.682125e+04  -2.299141e+06
   1.428677e+06  -1.584544e+06
   2.331436e+06   2.650534e+05
   1.865009e+06   1.728320e+06
   3.990611e+05   1.801760e+06
  -8.490875e+05   8.525958e+05
  -9.833918e+05   1.219662e+04
  -2.815496e+05  -3.559335e+04
   2.029969e+05   4.264280e+05
  -1.590759e+05   6.593105e+05
  -9.047746e+05   2.927844e+05
  -1.058427e+06  -3.599828e+05
  -2.916974e+05  -6.791762e+05
   6.314626e+05  -3.661090e+05
   6.491332e+05   2.577874e+05
  -3.930304e+05   5.349603e+05
  -1.459847e+06   8.565252e+04
  -1.358173e+06  -8.022198e+05
  -1.685629e+04  -1.384707e+06
   1.390525e+06  -1.118428e+06
   1.638063e+06  -1.801488e+05
   6.613494e+05   6.523879e+05
  -4.773445e+05   7.035195e+05
  -7.243961e+05   5.357865e+04
  -9.798986e+03  -5.270468e+05
   8.419697e+05  -3.666129e+05
   9.896635e+05   3.894489e+05
   3.240004e+05   9.355964e+05
  -5.150844e+05   7.037277e+05
  -7.680608e+05  -7.549973e+03
  -2.718612e+05  -3.929933e+05
   3.681664e+05  -5.392046e+04
   3.691858e+05   5.869712e+05
  -3.901626e+05   7.787724e+05
  -1.171283e+06   2.252394e+05
  -1.119368e+06  -6.587983e+05
  -1.884694e+05  -1.166862e+06
   7.875035e+05  -9.191657e+05
   9.669574e+05  -1.584988e+05
   3.396178e+05   4.725519e+05
  -3.557256e+05   4.942626e+05
  -4.538675e+05   2.259610e+04
   2.795745e+03  -3.692800e+05
   4.199013e+05  -2.766727e+05
   3.296053e+05   9.095539e+04
  -1.294480e+05   1.809314e+05
  -3.748050e+05  -2.109862e+05
  -3.746023e+02  -6.525079e+05
   7.573877e+05  -5.374157e+05
   1.192060e+06   2.379437e+05
   8.092692e+05   1.126635e+06
  -1.619277e+05   1.429343e+06
  -9.775092e+05   9.135694e+05
  -1.099385e+06  -5.718579e+03
  -6.629334e+05  -6.462423e+05
  -2.241874e+05  -6.565847e+05
  -1.252710e+05  -2.979629e+05
  -1.892721e+05  -1.195921e+05
  -2.331738e+04  -3.286297e+05
   4.609480e+05  -5.449924e+05
   8.793766e+05  -2.661124e+05
   7.288267e+05   4.648318e+05
  -8.103935e+04   9.917444e+05
  -1.030817e+06   7.077462e+05
  -1.359662e+06  -2.797856e+05
  -7.183989e+05  -1.207037e+06
   4.825337e+05  -1.353823e+06
   1.390282e+06  -6.649163e+05
   1.427249e+06   2.700011e+05
   7.393995e+05   7.888355e+05
  -2.780418e+04   7.220085e+05
  -3.592718e+05   4.463883e+05
  -2.774566e+05   4.089921e+05
  -1.838519e+05   6.154360e+05
  -3.660353e+05   6.350473e+05
  -6.834450e+05   1.340320e+05
  -7.262816e+05  -6.607399e+05
  -2.754842e+05  -1.117471e+06
   4.041613e+05  -8.249094e+05
   7.629264e+05  -7.332707e+03
   4.949023e+05   6.931533e+05
  -1.395649e+05   7.978279e+05
  -5.614242e+05   3.504051e+05
  -4.528911e+05  -2.202624e+05
  -5.234861e+04  -5.180816e+05
   1.528052e+05  -4.764013e+05
  -1.139230e+04  -3.119981e+05
  -2.133040e+05  -2.375911e+05
  -8.047133e+03  -2.381254e+05
   6.108175e+05  -1.303603e+05
   1.110985e+06   1.838400e+05
   9.249162e+05   5.667728e+05
   6.459550e+04   7.571800e+05
  -8.147528e+05   6.077346e+05
  -1.025882e+06   2.124379e+05
  -5.212247e+05  -1.604359e+05
   1.014123e+05  -2.627894e+05
   2.619074e+05  -7.126800e+04
  -2.816673e+04   1.584105e+05
  -3.051300e+05   1.153814e+05
  -2.565552e+05  -2.086948e+05
  -2.978053e+04  -4.497160e+05
   5.040307e+04  -2.832046e+05
  -9.570817e+04   1.244372e+05
  -2.511140e+05   2.522260e+05
  -1.782913e+05  -1.280105e+05
   1.501265e+05  -6.056233e+05
   5.350687e+05  -5.870171e+05
   6.717543e+05  -1.568712e+04
   3.588563e+05   5.459424e+05
  -2.575418e+05   5.591817e+05
  -6.637511e+05   7.738864e+04
  -3.993724e+05  -3.794150e+05
   3.940739e+05  -3.882187e+05
   9.736875e+05   2.571434e+04
   7.128462e+05   4.986981e+05
  -2.006154e+05   6.607216e+05
  -9.187917e+05   4.009454e+05
  -8.163543e+05  -5.910833e+04
  -1.228327e+05  -3.305015e+05
   3.751916e+05  -1.970621e+05
   1.882942e+05   1.453857e+05
  -3.985150e+05   2.432473e+05
  -6.784727e+05  -1.464447e+05
  -2.752200e+05  -7.410901e+05
   4.885513e+05  -9.424080e+05
   9.393626e+05  -4.168821e+05
   7.159513e+05   5.118157e+05
   6.543273e+04   1.085311e+06
  -4.701007e+05   8.042080e+05
  -5.667906e+05  -6.118306e+04
  -2.985010e+05  -7.103045e+05
   6.822806e+04  -6.233870e+05
   3.121257e+05  -7.611735e+04
   3.300839e+05   2.515150e+05
   1.613622e+05   1.109006e+05
   5.858302e+03  -7.806925e+04
   6.461149e+04   1.290235e+05
   2.463281e+05   5.621682e+05
   1.720007e+05   6.642981e+05
  -3.392080e+05   2.397116e+05
  -8.796891e+05  -3.109578e+05
  -8.202049e+05  -5.283088e+05
  -1.055919e+05  -4.026874e+05
   5.825501e+05  -2.186844e+05
   6.150924e+05  -1.111857e+05
   1.584196e+05  -4.058145e+03
  -1.174986e+05   1.216934e+05
   5.106068e+04   1.645264e+05
   2.366421e+05   1.124686e+05
  -6.159773e+03   8.382956e+04
  -4.859642e+05   8.559034e+04
  -6.067338e+05  -6.026344e+04
  -1.148389e+05  -4.005447e+05
   6.069045e+05  -6.174496e+05
   9.657854e+05  -3.400043e+05
   7.155800e+05   3.367996e+05
   8.819636e+04   8.507850e+05
  -4.691869e+05   7.636428e+05
  -6.306705e+05   2.314176e+05
  -3.897792e+05  -2.028108e+05
  -3.333651e+04  -2.124519e+05
   1.115009e+05   1.465689e+04
  -2.506050e+04   6.414158e+04
  -2.059183e+05  -2.033816e+05
  -1.546935e+05  -4.858983e+05
   1.419558e+05  -3.773562e+05
   4.112959e+05   1.470964e+05
   3.564576e+05   6.344166e+05
  -5.027797e+04   5.986134e+05
  -4.947540e+05   4.521395e+04
  -5.586061e+05  -5.256285e+05
  -1.208837e+05  -6.464025e+05
   4.511541e+05  -3.196375e+05
   6.181346e+05   9.941358e+04
   2.534419e+05   3.236299e+05
  -1.817040e+05   3.220292e+05
  -1.723399e+05   1.919478e+05
   2.121736e+05   4.326315e+04
   4.015558e+05   9.387262e+03
   5.368065e+04   1.715776e+05
  -5.085451e+05   3.835636e+05
  -7.035232e+05   3.332812e+05
  -3.781998e+05  -7.126126e+04
   8.923747e+04  -4.815879e+05
   2.914180e+05  -4.620392e+05
   1.852928e+05  -3.602143e+04
  -2.140613e+04   3.102351e+05
  -1.659332e+05   2.111637e+05
  -2.033187e+05  -1.588999e+05
  -1.210744e+05  -3.503062e+05
   5.859983e+04  -1.934525e+05
   2.248120e+05   6.586770e+04
   2.517814e+05   1.373486e+05
   1.409910e+05   2.657865e+04
   1.301479e+04  -4.020600e+04
  -5.147702e+04   7.078792e+04
  -9.149003e+04   2.434894e+05
  -1.644745e+05   2.490644e+05
  -2.278733e+05   4.642735e+03
  -1.722575e+05  -3.072173e+05
   3.828154e+04  -3.907949e+05
   2.805714e+05  -1.395855e+05
   3.389261e+05   2.256618e+05
   9.739392e+04   3.694602e+05
  -2.925431e+05   1.899348e+05
  -4.795962e+05  -1.002990e+05
  -2.508958e+05  -2.394749e+05
   1.844856e+05  -1.797840e+05
   3.648237e+05  -5.685752e+04
   9.964575e+04   5.174245e+03
  -2.707426e+05  -2.445919e+04
  -2.605536e+05  -1.213019e+05
   1.660828e+05  -2.035553e+05
   5.369787e+05  -1.268534e+05
