
 $NMID
 id='ANONYMOUS ', fmtdat='(2E16.6)'
 volume=1.0
 tramp=1.0
 $END
  -4.194073e+07   1.158854e+06
  -2.677515e+07  -2.404614e+07
   3.515855e+06  -2.834408e+07
   1.996802e+07  -1.299286e+07
   1.329287e+07   3.490814e+06
  -1.583557e+06   7.248545e+06
  -7.785219e+06   2.319916e+05
  -3.213011e+06  -7.277000e+06
   4.050634e+06  -8.171256e+06
   7.434361e+06  -2.444456e+06
   5.635097e+06   4.712844e+06
   7.356613e+05   6.904439e+06
  -3.140361e+06   2.016609e+06
  -2.212862e+06  -4.769343e+06
   2.747916e+06  -5.783120e+06
   6.222710e+06   4.838713e+05
   3.926769e+06   7.723053e+06
  -2.413789e+06   9.270930e+06
  -7.515107e+06   4.733004e+06
  -8.079885e+06  -1.485176e+06
  -4.762941e+06  -5.439798e+06
  -5.254346e+05  -5.984621e+06
   1.530757e+06  -4.200381e+06
   3.864554e+05  -2.456283e+06
  -1.370784e+06  -2.658150e+06
   1.566500e+05  -3.952475e+06
   4.955166e+06  -3.388989e+06
   8.033175e+06   2.687787e+04
   5.451128e+06   3.478550e+06
  -3.169178e+05   3.850129e+06
  -3.436083e+06   1.554225e+06
  -1.838116e+06  -6.511608e+05
   1.357026e+06  -1.154158e+06
   2.711131e+06  -1.046076e+05
   1.837037e+06   1.885517e+06
   3.262275e+04   3.534889e+06
  -1.587806e+06   2.803959e+06
  -2.024157e+06  -4.188523e+05
  -8.441065e+05  -2.654519e+06
   4.938351e+05  -8.736080e+05
  -1.391403e+05   2.481455e+06
  -2.139999e+06   2.105388e+06
  -2.142786e+06  -2.321673e+06
   1.272995e+06  -4.807741e+06
   4.753162e+06  -1.173819e+06
   3.947856e+06   4.859381e+06
  -1.004033e+06   6.401447e+06
  -5.572719e+06   2.011344e+06
  -5.825566e+06  -3.381579e+06
  -1.918243e+06  -4.960961e+06
   2.778801e+06  -2.541531e+06
   4.641817e+06   9.380628e+05
   2.410105e+06   2.753248e+06
  -1.679692e+06   1.931475e+06
  -3.617696e+06  -4.668325e+05
  -1.728888e+06  -1.995661e+06
   1.267905e+06  -1.126146e+06
   1.581275e+06   7.854714e+05
  -7.633222e+05   1.049875e+06
  -2.114523e+06  -7.898551e+05
  -2.012834e+05  -2.394424e+06
   3.023123e+06  -1.786002e+06
   4.120844e+06   5.158155e+05
   2.070567e+06   2.858606e+06
  -1.459065e+06   4.216213e+06
  -4.300573e+06   3.884309e+06
  -5.090545e+06   1.264334e+06
  -3.513363e+06  -2.665275e+06
  -6.750493e+05  -5.054047e+06
   1.306437e+06  -4.092378e+06
   1.295563e+06  -1.455732e+06
   4.465729e+05  -2.201272e+05
   6.112964e+05  -8.774373e+05
   1.842793e+06  -1.162238e+06
   2.495094e+06   3.168273e+05
   1.525586e+06   2.103178e+06
  -3.500916e+05   2.041184e+06
  -1.688038e+06   2.890566e+04
  -1.552682e+06  -2.115504e+06
   1.414477e+05  -2.663721e+06
   2.464057e+06  -1.240065e+06
   3.631251e+06   1.206736e+06
   2.462416e+06   3.071389e+06
  -5.563481e+04   3.234980e+06
  -1.664202e+06   2.075798e+06
  -1.613585e+06   1.013504e+06
  -1.471947e+06   7.701427e+05
  -2.592778e+06   5.767892e+05
  -3.877682e+06  -5.704312e+05
  -3.142323e+06  -2.425536e+06
  -1.298936e+05  -3.726578e+06
   2.960312e+06  -3.496852e+06
   3.852272e+06  -1.752372e+06
   2.320186e+06   5.802046e+05
   1.586036e+04   2.048221e+06
  -1.148196e+06   1.617364e+06
  -4.727239e+05  -1.074302e+05
   1.051654e+06  -1.132739e+06
   1.676969e+06  -3.258897e+05
   7.335336e+05   1.048682e+06
  -5.481398e+05   9.945867e+05
  -5.093340e+05  -3.647528e+05
   8.249562e+05  -8.508208e+05
   1.758942e+06   7.471051e+05
   1.000097e+06   2.936488e+06
  -9.865251e+05   3.362925e+06
  -2.758134e+06   1.513574e+06
  -3.278202e+06  -1.070761e+06
  -2.342158e+06  -2.631319e+06
  -4.616408e+05  -2.543539e+06
   1.198308e+06  -1.335472e+06
   1.468917e+06  -1.461797e+05
   4.481073e+05   4.556232e+04
  -3.271125e+05  -6.875544e+05
   3.339774e+05  -1.182644e+06
   1.654167e+06  -5.252510e+05
   1.821427e+06   7.359723e+05
   3.925507e+05   1.241679e+06
  -1.062898e+06   5.430624e+05
  -8.832623e+05  -4.324543e+05
   7.545974e+05  -6.023393e+05
   2.122655e+06   1.793653e+05
   1.768122e+06   1.283269e+06
  -1.721566e+05   1.940170e+06
  -2.159111e+06   1.590928e+06
  -2.563050e+06   2.577528e+05
  -1.101064e+06  -1.121084e+06
   8.068191e+05  -1.303603e+06
   1.343102e+06  -1.592401e+05
   1.394936e+05   9.389322e+05
  -1.374070e+06   6.503288e+05
  -1.581022e+06  -6.911165e+05
  -3.682940e+05  -1.519859e+06
   9.635681e+05  -9.687510e+05
   1.188332e+06   2.144717e+05
   2.867323e+05   7.051140e+05
  -6.967158e+05   6.832076e+04
  -6.566631e+05  -9.567020e+05
   5.515428e+05  -1.288393e+06
   1.844817e+06  -4.602261e+05
   1.841716e+06   9.835448e+05
   3.398921e+05   1.889036e+06
  -1.300415e+06   1.497872e+06
  -1.573141e+06   2.099289e+05
  -4.821810e+05  -7.902176e+05
   6.002899e+05  -7.522507e+05
   6.216437e+05  -4.878110e+04
  -9.443257e+04   4.153244e+05
  -5.310684e+05   2.541008e+05
  -2.304776e+05  -1.081338e+05
   3.706304e+05  -4.805464e+04
   5.278620e+05   5.394220e+05
  -1.287956e+05   1.085889e+06
  -1.251493e+06   8.378983e+05
  -1.908933e+06  -3.767891e+05
  -1.330600e+06  -1.783041e+06
   2.172012e+05  -2.233917e+06
   1.511331e+06  -1.337120e+06
   1.612284e+06   9.555485e+04
   8.511048e+05   8.942891e+05
   2.848355e+05   7.276184e+05
   3.549031e+05   2.645460e+05
   5.039105e+05   2.425708e+05
   8.345067e+04   6.465740e+05
  -7.825554e+05   8.442185e+05
  -1.355051e+06   3.349115e+05
  -1.017835e+06  -6.916537e+05
   2.101077e+05  -1.413923e+06
   1.603870e+06  -1.025548e+06
   2.093504e+06   4.468956e+05
   1.072305e+06   1.932231e+06
  -8.803698e+05   2.177908e+06
  -2.306375e+06   9.863770e+05
  -2.200259e+06  -5.618533e+05
  -9.605309e+05  -1.253507e+06
   1.639774e+05  -9.561518e+05
   4.314051e+05  -5.251503e+05
   1.737953e+05  -6.589190e+05
   1.376338e+05  -1.125596e+06
   5.955375e+05  -1.135894e+06
   1.154653e+06  -2.766183e+05
   1.205206e+06   1.003643e+06
   4.897767e+05   1.746149e+06
  -5.903934e+05   1.314002e+06
  -1.191404e+06   3.386443e+01
  -7.629689e+05  -1.159846e+06
   3.188893e+05  -1.286753e+06
   1.029649e+06  -4.352139e+05
   7.558753e+05   5.569642e+05
  -4.751324e+04   9.537040e+05
  -4.249573e+05   7.449176e+05
  -5.827494e+04   4.194465e+05
   3.780292e+05   3.224190e+05
   4.318634e+04   3.561237e+05
  -1.031623e+06   2.040436e+05
  -1.860685e+06  -2.903851e+05
  -1.486009e+06  -9.356547e+05
  -1.134680e+04  -1.295979e+06
   1.408947e+06  -1.037097e+06
   1.673203e+06  -2.817516e+05
   7.955786e+05   4.029348e+05
  -2.108712e+05   4.988448e+05
  -4.600058e+05   5.777662e+04
  -1.791049e+04  -3.441194e+05
   4.228374e+05  -2.179580e+05
   4.316814e+05   3.151352e+05
   1.810142e+05   6.646733e+05
   4.294310e+04   4.317847e+05
   1.391898e+05  -1.158119e+05
   3.029534e+05  -2.969388e+05
   2.640647e+05   2.110595e+05
  -1.587760e+05   9.152078e+05
  -8.276036e+05   9.690762e+05
  -1.194783e+06   1.405311e+05
  -7.276228e+05  -8.322925e+05
   3.762523e+05  -1.004750e+06
   1.116315e+06  -2.703147e+05
   6.599355e+05   5.421013e+05
  -6.403206e+05   6.031737e+05
  -1.484799e+06  -7.953489e+04
  -9.791736e+05  -8.048948e+05
   4.198669e+05  -9.536159e+05
   1.410667e+06  -4.868257e+05
   1.180994e+06   1.640269e+05
   1.386545e+05   4.907012e+05
  -6.016480e+05   2.645963e+05
  -3.431425e+05  -2.572845e+05
   5.550470e+05  -4.526648e+05
   1.076322e+06   1.101029e+05
   5.706756e+05   1.095629e+06
  -5.902352e+05   1.535983e+06
  -1.383294e+06   7.736482e+05
  -1.145393e+06  -7.203441e+05
  -1.659428e+05  -1.660849e+06
   7.003156e+05  -1.209028e+06
   8.684116e+05   1.489583e+05
   4.151113e+05   1.109921e+06
  -1.863571e+05   9.226869e+05
  -5.164007e+05   9.010965e+04
  -4.483507e+05  -3.657646e+05
  -1.713099e+05  -1.454318e+05
  -3.944120e+04   9.821030e+04
  -2.286132e+05  -2.460940e+05
  -4.534386e+05  -8.851258e+05
  -1.941187e+05  -1.014263e+06
   6.331401e+05  -3.770091e+05
   1.363700e+06   4.433766e+05
   1.203049e+06   7.927095e+05
   1.716697e+05   6.423984e+05
  -8.122364e+05   3.699489e+05
  -9.224305e+05   1.666353e+05
  -3.197879e+05  -3.073816e+04
   1.437522e+05  -2.011671e+05
   1.421663e+04  -2.118465e+05
  -2.652740e+05  -1.146228e+05
  -3.542427e+04  -1.211642e+05
   6.363600e+05  -1.917839e+05
   9.596667e+05   2.449753e+04
   3.588034e+05   6.214219e+05
  -8.024012e+05   1.054705e+06
  -1.548193e+06   6.746576e+05
  -1.261621e+06  -4.078925e+05
  -2.325487e+05  -1.298701e+06
   7.066796e+05  -1.258793e+06
   9.640691e+05  -4.738050e+05
   6.009833e+05   2.335517e+05
   1.113593e+05   3.268947e+05
  -7.931647e+04   3.783803e+04
   7.484114e+04  -3.433703e+04
   2.890028e+05   3.395592e+05
   2.317085e+05   7.521581e+05
  -1.726791e+05   6.185851e+05
  -6.250015e+05  -1.331414e+05
  -6.554090e+05  -8.903139e+05
  -7.798525e+04  -9.376167e+05
   6.979133e+05  -1.976422e+05
   9.334903e+05   6.850753e+05
   3.023141e+05   9.982444e+05
  -6.565752e+05   6.041447e+05
  -1.018014e+06  -7.563508e+04
  -4.827042e+05  -5.484293e+05
   2.576495e+05  -6.068936e+05
   3.341229e+05  -3.415625e+05
  -2.412377e+05  -2.578151e+04
  -6.019525e+05   2.750717e+04
  -1.293297e+05  -2.779850e+05
   7.663317e+05  -6.231583e+05
   1.156501e+06  -5.112833e+05
   6.917848e+05   1.451943e+05
  -9.176125e+04   7.929273e+05
  -4.951497e+05   7.871401e+05
  -3.694985e+05   1.441930e+05
  -3.422722e+04  -4.436070e+05
   2.206366e+05  -3.892439e+05
   3.161482e+05   1.524854e+05
   2.284887e+05   5.325735e+05
  -4.700325e+04   3.778298e+05
  -3.556851e+05  -4.929261e+04
  -4.375148e+05  -2.481375e+05
  -2.279874e+05  -8.094441e+04
   3.021138e+04   1.230082e+05
   8.955448e+04   1.679278e+04
   1.630743e+04  -3.232230e+05
   6.766614e+04  -4.740584e+05
   2.883247e+05  -1.682805e+05
   3.912175e+05   3.571865e+05
   1.149298e+05   5.845417e+05
  -3.804488e+05   2.766244e+05
  -5.958627e+05  -2.640340e+05
  -2.207657e+05  -5.307876e+05
   4.638668e+05  -3.350106e+05
   8.008973e+05   7.481048e+04
   4.352821e+05   3.480709e+05
  -2.662316e+05   3.570742e+05
  -5.782459e+05   1.967088e+05
  -2.185953e+05   2.025011e+04
   3.272520e+05  -4.087909e+04
   3.712433e+05   7.945396e+04
  -1.741375e+05   2.686585e+05
  -7.052667e+05   2.333394e+05
