
 $NMID
 id='ANONYMOUS ', fmtdat='(2E16.6)'
 volume=1.0
 tramp=1.0
 $END
  -4.675102e+07  -5.422836e+05
  -2.837097e+07  -2.826685e+07
   5.578392e+06  -3.135965e+07
   2.274934e+07  -1.308687e+07
   1.424493e+07   4.835707e+06
  -2.260262e+06   7.880447e+06
  -8.438742e+06  -3.174607e+05
  -2.977362e+06  -8.121113e+06
   4.859736e+06  -8.541609e+06
   8.215820e+06  -2.194383e+06
   6.016362e+06   5.386636e+06
   6.014830e+05   7.576190e+06
  -3.529646e+06   2.188729e+06
  -2.307149e+06  -5.131613e+06
   3.192391e+06  -6.058346e+06
   6.765192e+06   8.911463e+05
   3.920845e+06   8.667052e+06
  -3.119957e+06   1.007434e+07
  -8.546550e+06   4.906744e+06
  -8.966635e+06  -1.963176e+06
  -5.173704e+06  -6.311780e+06
  -3.312201e+05  -6.858999e+06
   2.100007e+06  -4.688058e+06
   8.146620e+05  -2.495164e+06
  -1.345352e+06  -2.616337e+06
   1.187866e+05  -4.155459e+06
   5.323496e+06  -3.661817e+06
   8.727767e+06   8.747789e+04
   5.950830e+06   3.911254e+06
  -2.927409e+05   4.315899e+06
  -3.694389e+06   1.816335e+06
  -2.096826e+06  -5.607495e+05
   1.208459e+06  -1.176405e+06
   2.721794e+06  -2.034367e+05
   1.999268e+06   1.890947e+06
   1.280668e+05   3.808756e+06
  -1.805432e+06   3.128728e+06
  -2.416432e+06  -4.622803e+05
  -9.953752e+05  -3.054350e+06
   6.600116e+05  -1.136272e+06
  -4.995455e+04   2.587254e+06
  -2.327585e+06   2.175062e+06
  -2.208157e+06  -2.656500e+06
   1.734677e+06  -5.194286e+06
   5.443532e+06  -9.714273e+05
   4.166587e+06   5.639695e+06
  -1.473235e+06   7.047642e+06
  -6.252780e+06   1.984785e+06
  -6.175000e+06  -3.891842e+06
  -1.833446e+06  -5.400477e+06
   3.078640e+06  -2.592505e+06
   4.896676e+06   1.203156e+06
   2.421151e+06   3.057301e+06
  -1.946903e+06   2.004405e+06
  -3.926600e+06  -6.865470e+05
  -1.780791e+06  -2.274481e+06
   1.441982e+06  -1.185551e+06
   1.652764e+06   8.963292e+05
  -9.199178e+05   1.011455e+06
  -2.201028e+06  -1.092067e+06
   7.920675e+04  -2.672241e+06
   3.536502e+06  -1.730359e+06
   4.483367e+06   8.653536e+05
   2.090013e+06   3.267581e+06
  -1.718674e+06   4.570135e+06
  -4.734248e+06   4.144600e+06
  -5.578758e+06   1.285222e+06
  -3.825861e+06  -2.990863e+06
  -6.287349e+05  -5.525857e+06
   1.581102e+06  -4.348085e+06
   1.462457e+06  -1.404793e+06
   3.734807e+05  -1.232828e+05
   4.954162e+05  -9.602876e+05
   1.896661e+06  -1.344753e+06
   2.686344e+06   2.398887e+05
   1.690198e+06   2.180609e+06
  -2.947478e+05   2.159497e+06
  -1.723744e+06   6.911339e+04
  -1.618900e+06  -2.200518e+06
   1.557397e+05  -2.830670e+06
   2.663736e+06  -1.337942e+06
   3.948617e+06   1.342976e+06
   2.649324e+06   3.427403e+06
  -1.607376e+05   3.590573e+06
  -1.942812e+06   2.241016e+06
  -1.844219e+06   1.013948e+06
  -1.614967e+06   7.298443e+05
  -2.765394e+06   5.146230e+05
  -4.102839e+06  -7.193872e+05
  -3.279330e+06  -2.656161e+06
  -6.071115e+04  -3.953141e+06
   3.193133e+06  -3.660188e+06
   4.111339e+06  -1.834432e+06
   2.489201e+06   6.091296e+05
   4.587103e+04   2.182658e+06
  -1.216433e+06   1.745967e+06
  -5.179911e+05  -1.002537e+05
   1.118862e+06  -1.201801e+06
   1.800333e+06  -3.247012e+05
   7.864689e+05   1.143868e+06
  -5.747702e+05   1.059458e+06
  -5.003786e+05  -3.775024e+05
   9.080528e+05  -8.129176e+05
   1.791054e+06   9.341095e+05
   8.690151e+05   3.160552e+06
  -1.215959e+06   3.435359e+06
  -2.938503e+06   1.402452e+06
  -3.359020e+06  -1.247233e+06
  -2.363810e+06  -2.780327e+06
  -4.380693e+05  -2.652439e+06
   1.277732e+06  -1.395531e+06
   1.556800e+06  -1.464772e+05
   4.758064e+05   5.631109e+04
  -3.336204e+05  -7.319383e+05
   3.892917e+05  -1.252582e+06
   1.783847e+06  -5.202029e+05
   1.919324e+06   8.338088e+05
   3.810295e+05   1.331014e+06
  -1.130226e+06   5.496295e+05
  -9.050840e+05  -4.589618e+05
   8.039437e+05  -5.789871e+05
   2.191940e+06   2.560425e+05
   1.796345e+06   1.365401e+06
  -2.252687e+05   2.003375e+06
  -2.295002e+06   1.621822e+06
  -2.710072e+06   2.234344e+05
  -1.146741e+06  -1.219178e+06
   8.926347e+05  -1.383563e+06
   1.450830e+06  -1.428952e+05
   1.413256e+05   1.013024e+06
  -1.470427e+06   6.686887e+05
  -1.655572e+06  -7.665204e+05
  -3.457849e+05  -1.608022e+06
   1.040480e+06  -9.834993e+05
   1.236318e+06   2.643032e+05
   2.739361e+05   7.464732e+05
  -7.412119e+05   5.035844e+04
  -6.767543e+05  -1.025590e+06
   6.031980e+05  -1.354526e+06
   1.959997e+06  -4.595375e+05
   1.936347e+06   1.072355e+06
   3.252673e+05   2.009531e+06
  -1.411357e+06   1.561056e+06
  -1.671632e+06   1.874361e+05
  -4.914106e+05  -8.443679e+05
   6.460951e+05  -7.804459e+05
   6.472073e+05  -5.305670e+04
  -1.031974e+05   4.066633e+05
  -5.336942e+05   2.442704e+05
  -2.073610e+05  -9.285421e+04
   3.952065e+05  -6.695874e+02
   5.224316e+05   6.020654e+05
  -1.794825e+05   1.140707e+06
  -1.344801e+06   8.521997e+05
  -2.010070e+06  -4.391774e+05
  -1.374429e+06  -1.913857e+06
   2.677801e+05  -2.356862e+06
   1.612720e+06  -1.375602e+06
   1.684183e+06   1.335103e+05
   8.714937e+05   9.371661e+05
   3.015505e+05   7.394113e+05
   4.003559e+05   2.774712e+05
   5.435505e+05   2.883183e+05
   6.715842e+04   7.028703e+05
  -8.525997e+05   8.682794e+05
  -1.429407e+06   3.139993e+05
  -1.046417e+06  -7.416364e+05
   2.527568e+05  -1.466301e+06
   1.706769e+06  -1.038870e+06
   2.194733e+06   5.125828e+05
   1.084873e+06   2.059233e+06
  -9.874574e+05   2.277213e+06
  -2.461978e+06   9.820039e+05
  -2.298400e+06  -6.462512e+05
  -9.688084e+05  -1.328585e+06
   1.910023e+05  -9.787184e+05
   4.389818e+05  -5.369384e+05
   1.697435e+05  -7.133654e+05
   1.624744e+05  -1.214543e+06
   6.629331e+05  -1.201827e+06
   1.237890e+06  -2.711704e+05
   1.262550e+06   1.083702e+06
   4.906618e+05   1.855826e+06
  -6.443482e+05   1.381352e+06
  -1.255419e+06  -2.251093e+04
  -7.761389e+05  -1.244623e+06
   3.740664e+05  -1.348204e+06
   1.101552e+06  -4.165357e+05
   7.752123e+05   6.279624e+05
  -9.297453e+04   1.010196e+06
  -4.813556e+05   7.630636e+05
  -7.133894e+04   4.290399e+05
   4.007558e+05   3.476113e+05
   4.164742e+04   3.781957e+05
  -1.101343e+06   1.880491e+05
  -1.969800e+06  -3.541462e+05
  -1.549634e+06  -1.023995e+06
   3.042152e+04  -1.370667e+06
   1.526473e+06  -1.065251e+06
   1.774138e+06  -2.559353e+05
   8.181118e+05   4.534117e+05
  -2.448237e+05   5.271443e+05
  -4.877027e+05   4.212068e+04
  -9.507866e+03  -3.797386e+05
   4.502348e+05  -2.306561e+05
   4.545264e+05   3.435176e+05
   1.945151e+05   7.135824e+05
   5.029218e+04   4.659136e+05
   1.426838e+05  -1.117688e+05
   3.081184e+05  -3.032206e+05
   2.694012e+05   2.291826e+05
  -1.779126e+05   9.648550e+05
  -8.957407e+05   1.009898e+06
  -1.286011e+06   1.230794e+05
  -7.689830e+05  -9.041048e+05
   4.250093e+05  -1.067677e+06
   1.203979e+06  -2.715048e+05
   6.940702e+05   5.834727e+05
  -6.903764e+05   6.223473e+05
  -1.559848e+06  -1.139949e+05
  -1.002394e+06  -8.609766e+05
   4.667905e+05  -9.822572e+05
   1.484991e+06  -4.743757e+05
   1.227802e+06   1.955475e+05
   1.337425e+05   5.135750e+05
  -6.373592e+05   2.624767e+05
  -3.593073e+05  -2.841734e+05
   5.931000e+05  -4.792617e+05
   1.144588e+06   1.261552e+05
   6.003821e+05   1.172528e+06
  -6.406002e+05   1.630970e+06
  -1.477451e+06   8.096040e+05
  -1.205174e+06  -7.771728e+05
  -1.524267e+05  -1.758989e+06
   7.554722e+05  -1.261085e+06
   9.074553e+05   1.779907e+05
   4.113672e+05   1.174894e+06
  -2.177013e+05   9.576180e+05
  -5.463338e+05   7.942544e+04
  -4.612978e+05  -3.859117e+05
  -1.723165e+05  -1.465538e+05
  -4.429661e+04   9.840323e+04
  -2.451246e+05  -2.790183e+05
  -4.681075e+05  -9.490738e+05
  -1.808709e+05  -1.065532e+06
   6.855547e+05  -3.775218e+05
   1.433817e+06   4.889121e+05
   1.249911e+06   8.500895e+05
   1.679545e+05   6.834182e+05
  -8.577549e+05   3.859680e+05
  -9.725318e+05   1.606175e+05
  -3.408320e+05  -4.862241e+04
   1.525087e+05  -2.145754e+05
   2.457345e+04  -2.114706e+05
  -2.720789e+05  -1.111909e+05
  -3.970489e+04  -1.308127e+05
   6.681394e+05  -2.058517e+05
   1.019027e+06   3.841482e+04
   3.845495e+05   6.775105e+05
  -8.604606e+05   1.119236e+06
  -1.663192e+06   6.931454e+05
  -1.348046e+06  -4.557752e+05
  -2.321220e+05  -1.380558e+06
   7.734370e+05  -1.323239e+06
   1.033901e+06  -4.936224e+05
   6.354394e+05   2.492616e+05
   1.170858e+05   3.511525e+05
  -8.024227e+04   5.214123e+04
   7.750728e+04  -2.519843e+04
   2.931500e+05   3.630891e+05
   2.297928e+05   7.961036e+05
  -1.911475e+05   6.562555e+05
  -6.631227e+05  -1.411290e+05
  -6.931128e+05  -9.502837e+05
  -7.981930e+04  -1.004786e+06
   7.440192e+05  -2.143575e+05
   9.900214e+05   7.329375e+05
   3.119491e+05   1.068220e+06
  -7.090933e+05   6.392925e+05
  -1.084762e+06  -9.635520e+04
  -5.032213e+05  -5.995253e+05
   2.899937e+05  -6.473306e+05
   3.685048e+05  -3.522055e+05
  -2.495089e+05  -2.021761e+04
  -6.370795e+05   2.339965e+04
  -1.345682e+05  -3.009450e+05
   8.201148e+05  -6.478905e+05
   1.235184e+06  -5.117720e+05
   7.343984e+05   1.784770e+05
  -1.107793e+05   8.433768e+05
  -5.472833e+05   8.242922e+05
  -4.082293e+05   1.465448e+05
  -3.763029e+04  -4.709191e+05
   2.419422e+05  -4.156178e+05
   3.389708e+05   1.577900e+05
   2.359721e+05   5.685433e+05
  -5.912257e+04   4.090728e+05
  -3.795781e+05  -5.393641e+04
  -4.585189e+05  -2.772633e+05
  -2.365370e+05  -9.436300e+04
   2.921120e+04   1.404704e+05
   8.408693e+04   3.253114e+04
   6.139421e+03  -3.462557e+05
   6.949008e+04  -5.237629e+05
   3.150355e+05  -1.936393e+05
   4.286422e+05   3.832413e+05
   1.292143e+05   6.318847e+05
  -4.064313e+05   2.952819e+05
  -6.378666e+05  -2.874456e+05
  -2.332987e+05  -5.659028e+05
   5.000475e+05  -3.476601e+05
   8.558863e+05   9.090263e+04
   4.592222e+05   3.768892e+05
  -2.921832e+05   3.811587e+05
  -6.242908e+05   2.065210e+05
  -2.399539e+05   1.452744e+04
   3.435821e+05  -5.311702e+04
   3.965325e+05   7.694354e+04
  -1.761600e+05   2.828972e+05
  -7.389299e+05   2.479615e+05
