
 $NMID
 id='ANONYMOUS ', fmtdat='(2E16.6)'
 volume=1.0
 tramp=1.0
 $END
   4.285687e+07   1.309301e+05
   2.647529e+07   2.533182e+07
  -4.504377e+06   2.874106e+07
  -2.067978e+07   1.262274e+07
  -1.336356e+07  -3.920448e+06
   1.804680e+06  -7.321098e+06
   7.870971e+06  -5.692715e+04
   3.074745e+06   7.440199e+06
  -4.276853e+06   8.192813e+06
  -7.602872e+06   2.301205e+06
  -5.650558e+06  -4.963824e+06
  -5.977074e+05  -7.098463e+06
   3.287894e+06  -2.007783e+06
   2.200597e+06   4.910543e+06
  -2.901390e+06   5.821904e+06
  -6.306987e+06  -6.631746e+05
  -3.778489e+06  -7.980646e+06
   2.742685e+06  -9.379411e+06
   7.836425e+06  -4.596744e+06
   8.233334e+06   1.789501e+06
   4.695225e+06   5.750311e+06
   3.054705e+05   6.157712e+06
  -1.740946e+06   4.208915e+06
  -4.581043e+05   2.417260e+06
   1.393810e+06   2.702649e+06
  -2.059094e+05   4.054936e+06
  -5.148558e+06   3.395914e+06
  -8.247799e+06  -1.871509e+05
  -5.523156e+06  -3.699343e+06
   4.079174e+05  -3.985503e+06
   3.579845e+06  -1.569493e+06
   1.924853e+06   7.027760e+05
  -1.368064e+06   1.214077e+06
  -2.790934e+06   1.138226e+05
  -1.894532e+06  -1.974778e+06
   2.293130e+04  -3.674850e+06
   1.730301e+06  -2.852194e+06
   2.109190e+06   5.251897e+05
   7.904265e+05   2.787650e+06
  -5.816947e+05   8.795197e+05
   1.576454e+05  -2.561920e+06
   2.222251e+06  -2.107726e+06
   2.120306e+06   2.417923e+06
  -1.430146e+06   4.831217e+06
  -4.865898e+06   1.013813e+06
  -3.861539e+06  -5.079269e+06
   1.224308e+06  -6.473042e+06
   5.741551e+06  -1.883347e+06
   5.849832e+06   3.581215e+06
   1.842157e+06   5.083578e+06
  -2.873892e+06   2.531683e+06
  -4.699609e+06  -1.039218e+06
  -2.399217e+06  -2.846966e+06
   1.746383e+06  -1.928751e+06
   3.672765e+06   5.595721e+05
   1.717999e+06   2.075924e+06
  -1.315949e+06   1.121216e+06
  -1.600268e+06  -8.252009e+05
   7.755557e+05  -1.034728e+06
   2.095771e+06   8.483491e+05
   1.215373e+05   2.399261e+06
  -3.117121e+06   1.693465e+06
  -4.159771e+06  -6.491231e+05
  -2.016362e+06  -2.964912e+06
   1.608879e+06  -4.275306e+06
   4.504843e+06  -3.881151e+06
   5.252387e+06  -1.169405e+06
   3.538021e+06   2.831806e+06
   5.713962e+05   5.198957e+06
  -1.424008e+06   4.143865e+06
  -1.336112e+06   1.446402e+06
  -4.374330e+05   2.299373e+05
  -6.358278e+05   9.218628e+05
  -1.922626e+06   1.184277e+06
  -2.576277e+06  -3.597314e+05
  -1.556140e+06  -2.187700e+06
   3.727012e+05  -2.107677e+06
   1.731933e+06  -3.162263e+04
   1.573909e+06   2.176831e+06
  -1.804220e+05   2.731516e+06
  -2.555967e+06   1.230928e+06
  -3.706165e+06  -1.320755e+06
  -2.447109e+06  -3.218814e+06
   1.553052e+05  -3.315387e+06
   1.771666e+06  -2.067692e+06
   1.675389e+06  -9.757264e+05
   1.508644e+06  -7.437729e+05
   2.645899e+06  -5.364828e+05
   3.939516e+06   6.562501e+05
   3.161295e+06   2.533740e+06
   6.940438e+04   3.805839e+06
  -3.083513e+06   3.523234e+06
  -3.976276e+06   1.732762e+06
  -2.378492e+06  -6.319160e+05
   1.025105e+04  -2.108912e+06
   1.207173e+06  -1.651703e+06
   4.906983e+05   1.133625e+05
  -1.090998e+06   1.146911e+06
  -1.720626e+06   3.092097e+05
  -7.352832e+05  -1.088878e+06
   5.704968e+05  -1.019806e+06
   5.143421e+05   3.632936e+05
  -8.344764e+05   8.409458e+05
  -1.744891e+06  -7.868798e+05
  -9.501938e+05  -2.984521e+06
   1.045782e+06  -3.381974e+06
   2.804396e+06  -1.487733e+06
   3.311194e+06   1.132910e+06
   2.356737e+06   2.706949e+06
   4.414171e+05   2.600219e+06
  -1.247269e+06   1.349162e+06
  -1.509950e+06   1.288634e+05
  -4.591064e+05  -5.434671e+04
   3.239305e+05   7.047421e+05
  -3.599740e+05   1.197638e+06
  -1.695380e+06   5.059617e+05
  -1.844196e+06  -7.781773e+05
  -3.835093e+05  -1.268127e+06
   1.084594e+06  -5.398230e+05
   8.928484e+05   4.421917e+05
  -7.663443e+05   5.929203e+05
  -2.147656e+06  -2.104895e+05
  -1.782553e+06  -1.322518e+06
   1.962733e+05  -1.969534e+06
   2.222061e+06  -1.591974e+06
   2.621364e+06  -2.252123e+05
   1.106965e+06   1.163433e+06
  -8.481285e+05   1.318696e+06
  -1.377076e+06   1.383221e+05
  -1.277788e+05  -9.633817e+05
   1.412377e+06  -6.430129e+05
   1.601667e+06   7.274340e+05
   3.554596e+05   1.551942e+06
  -9.897970e+05   9.730304e+05
  -1.203519e+06  -2.301342e+05
  -2.849024e+05  -7.150863e+05
   7.037767e+05  -5.575824e+04
   6.494131e+05   9.839545e+05
  -5.848785e+05   1.302333e+06
  -1.890481e+06   4.374279e+05
  -1.863998e+06  -1.035544e+06
  -3.159254e+05  -1.934526e+06
   1.352095e+06  -1.508186e+06
   1.610526e+06  -1.909843e+05
   4.840943e+05   8.112779e+05
  -6.189264e+05   7.600515e+05
  -6.358886e+05   4.877815e+04
   9.277342e+04  -4.149252e+05
   5.349100e+05  -2.549669e+05
   2.327985e+05   1.007436e+05
  -3.690412e+05   3.317580e+04
  -5.190466e+05  -5.583979e+05
   1.541040e+05  -1.099655e+06
   1.290979e+06  -8.297152e+05
   1.940362e+06   4.181231e+05
   1.327216e+06   1.843715e+06
  -2.575690e+05   2.279517e+06
  -1.561132e+06   1.344363e+06
  -1.643863e+06  -1.181318e+05
  -8.631573e+05  -9.226693e+05
  -2.928124e+05  -7.504122e+05
  -3.642580e+05  -2.861234e+05
  -5.041508e+05  -2.654803e+05
  -6.495181e+04  -6.630492e+05
   8.154897e+05  -8.444205e+05
   1.386095e+06  -3.161323e+05
   1.026948e+06   7.218313e+05
  -2.348640e+05   1.436716e+06
  -1.651316e+06   1.018191e+06
  -2.128131e+06  -4.901899e+05
  -1.061467e+06  -1.985522e+06
   9.336181e+05  -2.201596e+06
   2.365408e+06  -9.654769e+05
   2.232147e+06   6.045327e+05
   9.632049e+05   1.285852e+06
  -1.732920e+05   9.702209e+05
  -4.429172e+05   5.367015e+05
  -1.917505e+05   6.811839e+05
  -1.670513e+05   1.152424e+06
  -6.318948e+05   1.148323e+06
  -1.185101e+06   2.598880e+05
  -1.215083e+06  -1.046755e+06
  -4.722505e+05  -1.792527e+06
   6.241274e+05  -1.333848e+06
   1.214972e+06   1.751950e+04
   7.570802e+05   1.193680e+06
  -3.460194e+05   1.303259e+06
  -1.050227e+06   4.225990e+05
  -7.516971e+05  -5.798933e+05
   6.876186e+04  -9.644495e+05
   4.424708e+05  -7.443712e+05
   6.117305e+04  -4.250959e+05
  -3.819936e+05  -3.396018e+05
  -3.727398e+04  -3.666554e+05
   1.055994e+06  -1.866373e+05
   1.892087e+06   3.340140e+05
   1.498223e+06   9.799982e+05
  -1.275866e+04   1.315597e+06
  -1.456158e+06   1.027861e+06
  -1.708996e+06   2.594385e+05
  -7.988531e+05  -4.197758e+05
   2.271275e+05  -5.018301e+05
   4.673018e+05  -4.945773e+04
   5.656342e+03   3.544314e+05
  -4.400669e+05   2.182880e+05
  -4.365838e+05  -3.316143e+05
  -1.733527e+05  -6.904004e+05
  -3.547981e+04  -4.484409e+05
  -1.410476e+05   1.171832e+05
  -3.102200e+05   3.028237e+05
  -2.631855e+05  -2.200295e+05
   1.792011e+05  -9.351894e+05
   8.635158e+05  -9.729852e+05
   1.223879e+06  -1.129672e+05
   7.263658e+05   8.704745e+05
  -4.079279e+05   1.018096e+06
  -1.150771e+06   2.505750e+05
  -6.672407e+05  -5.675759e+05
   6.636146e+05  -6.046962e+05
   1.514407e+06   1.030789e+05
   9.878259e+05   8.312102e+05
  -4.391566e+05   9.632093e+05
  -1.442054e+06   4.777369e+05
  -1.201001e+06  -1.806158e+05
  -1.359968e+05  -5.009129e+05
   6.153977e+05  -2.608271e+05
   3.435225e+05   2.692637e+05
  -5.783495e+05   4.548807e+05
  -1.102415e+06  -1.324659e+05
  -5.657245e+05  -1.136085e+06
   6.339225e+05  -1.567150e+06
   1.433576e+06  -7.702730e+05
   1.162358e+06   7.573066e+05
   1.433218e+05   1.703399e+06
  -7.330443e+05   1.226184e+06
  -8.816974e+05  -1.643653e+05
  -4.066398e+05  -1.136968e+06
   2.005728e+05  -9.350199e+05
   5.258311e+05  -8.228526e+04
   4.541666e+05   3.772058e+05
   1.755645e+05   1.468222e+05
   3.982501e+04  -9.885457e+04
   2.243974e+05   2.606788e+05
   4.474011e+05   9.143231e+05
   1.853708e+05   1.035138e+06
  -6.503976e+05   3.694092e+05
  -1.388213e+06  -4.747400e+05
  -1.219201e+06  -8.253094e+05
  -1.637050e+05  -6.589809e+05
   8.392653e+05  -3.694179e+05
   9.450187e+05  -1.574244e+05
   3.225539e+05   3.995010e+04
  -1.513075e+05   2.055419e+05
  -1.375910e+04   2.123988e+05
   2.737730e+05   1.168059e+05
   3.332620e+04   1.263239e+05
  -6.583119e+05   1.906634e+05
  -9.825949e+05  -4.239060e+04
  -3.529161e+05  -6.499931e+05
   8.439513e+05  -1.070358e+06
   1.598760e+06  -6.590987e+05
   1.285339e+06   4.472641e+05
   2.161040e+05   1.335791e+06
  -7.462131e+05   1.273619e+06
  -9.982803e+05   4.665350e+05
  -6.139163e+05  -2.493692e+05
  -1.071949e+05  -3.383492e+05
   8.668765e+04  -4.103692e+04
  -7.265322e+04   3.311623e+04
  -2.888235e+05  -3.489479e+05
  -2.251559e+05  -7.706831e+05
   1.881904e+05  -6.306319e+05
   6.411781e+05   1.465280e+05
   6.586498e+05   9.264816e+05
   6.168749e+04   9.671832e+05
  -7.243108e+05   1.924504e+05
  -9.486719e+05  -7.206024e+05
  -2.909558e+05  -1.030781e+06
   6.870390e+05  -6.067420e+05
   1.041366e+06   9.830253e+04
   4.794895e+05   5.714241e+05
  -2.790842e+05   6.142783e+05
  -3.470481e+05   3.386491e+05
   2.505713e+05   2.629126e+04
   6.179550e+05  -1.861396e+04
   1.259514e+05   2.883836e+05
  -7.943821e+05   6.251578e+05
  -1.187346e+06   5.006747e+05
  -7.002151e+05  -1.642157e+05
   1.095123e+05  -8.101328e+05
   5.210715e+05  -7.923043e+05
   3.829137e+05  -1.348798e+05
   2.860613e+04   4.582740e+05
  -2.358213e+05   3.947371e+05
  -3.257710e+05  -1.628605e+05
  -2.246962e+05  -5.500136e+05
   5.922177e+04  -3.859435e+05
   3.653121e+05   5.730803e+04
   4.400822e+05   2.620524e+05
   2.292492e+05   8.598540e+04
  -2.447801e+04  -1.275049e+05
  -8.392919e+04  -1.640201e+04
  -2.124505e+04   3.379976e+05
  -8.533168e+04   4.918007e+05
  -3.075636e+05   1.676938e+05
  -3.981180e+05  -3.803972e+05
  -1.057202e+05  -6.090541e+05
   3.974667e+05  -2.782743e+05
   6.076433e+05   2.848453e+05
   2.178678e+05   5.502845e+05
  -4.810439e+05   3.333039e+05
  -8.199624e+05  -9.385433e+04
  -4.394344e+05  -3.652841e+05
   2.821480e+05  -3.600568e+05
   5.994718e+05  -1.891030e+05
   2.240679e+05  -1.311556e+04
  -3.410369e+05   4.044546e+04
  -3.848145e+05  -8.713659e+04
   1.809217e+05  -2.773694e+05
   7.285898e+05  -2.338484e+05
