
 $NMID
 id='ANONYMOUS ', fmtdat='(2E16.6)'
 volume=1.0
 tramp=1.0
 $END
   3.281121e+07   2.028301e+05
   2.108577e+07   1.697580e+07
  -1.468118e+06   2.113020e+07
  -1.472206e+07   1.212886e+07
  -1.114529e+07  -2.523766e+05
   5.861147e+04  -5.732650e+06
   6.339266e+06  -1.891146e+06
   4.016052e+06   5.352890e+06
  -2.111575e+06   7.978793e+06
  -5.977515e+06   3.208569e+06
  -4.984809e+06  -4.084432e+06
  -6.315518e+05  -6.382645e+06
   2.965817e+06  -1.496356e+06
   2.305126e+06   4.996301e+06
  -1.969477e+06   5.907447e+06
  -5.241736e+06   2.260595e+05
  -3.665956e+06  -6.323300e+06
   1.704364e+06  -7.823726e+06
   6.203360e+06  -3.761069e+06
   6.398427e+06   1.742036e+06
   3.031076e+06   4.604089e+06
  -2.868923e+05   4.062438e+06
  -6.518571e+05   2.371973e+06
   1.415394e+06   2.140267e+06
   2.388197e+06   3.687295e+06
  -5.278762e+05   4.744177e+06
  -5.689944e+06   3.055562e+06
  -8.038303e+06  -7.836169e+05
  -4.702388e+06  -3.716941e+06
   1.283956e+06  -3.485831e+06
   4.151771e+06  -8.048649e+05
   1.793230e+06   1.739826e+06
  -2.418086e+06   2.099334e+06
  -4.027684e+06   1.521707e+04
  -2.142620e+06  -2.942149e+06
   7.153176e+05  -4.171606e+06
   1.962646e+06  -2.172898e+06
   1.173530e+06   1.283614e+06
  -2.571429e+05   2.346742e+06
  -6.341841e+05  -3.272451e+05
   5.898975e+05  -3.284451e+06
   2.169848e+06  -2.339957e+06
   2.060174e+06   1.733380e+06
  -3.181543e+05   3.829771e+06
  -2.918075e+06   1.046887e+06
  -2.838370e+06  -3.564100e+06
   5.388506e+05  -4.844925e+06
   4.526048e+06  -1.556179e+06
   5.499249e+06   2.861903e+06
   2.334089e+06   4.565887e+06
  -2.413417e+06   2.815276e+06
  -4.732109e+06  -3.303820e+05
  -2.847662e+06  -2.301381e+06
   1.080969e+06  -1.881190e+06
   3.143329e+06   9.571149e+04
   1.717858e+06   1.508936e+06
  -9.892240e+05   9.958770e+05
  -1.707429e+06  -6.028078e+05
   8.155585e+04  -1.278149e+06
   1.788194e+06  -2.512415e+05
   1.017015e+06   1.256339e+06
  -1.612894e+06   1.573025e+06
  -3.261288e+06   2.001728e+05
  -1.953076e+06  -2.073061e+06
   1.530253e+06  -3.809630e+06
   4.543397e+06  -3.547332e+06
   4.980933e+06  -8.191432e+05
   2.944174e+06   2.867340e+06
   3.707680e+05   4.871816e+06
  -9.129553e+05   4.038157e+06
  -8.262742e+05   1.978479e+06
  -7.141166e+05   9.990620e+05
  -1.535502e+06   1.231215e+06
  -2.714278e+06   8.463493e+05
  -2.885378e+06  -1.040250e+06
  -1.453990e+06  -2.874066e+06
   7.818088e+05  -2.540259e+06
   2.287338e+06  -3.975213e+03
   1.903939e+06   2.557304e+06
  -2.725939e+05   2.978953e+06
  -2.713989e+06   1.044208e+06
  -3.476306e+06  -1.600257e+06
  -1.978993e+06  -3.056090e+06
   2.996923e+05  -2.732371e+06
   1.414482e+06  -1.584450e+06
   1.193822e+06  -9.185595e+05
   1.256206e+06  -9.837712e+05
   2.630064e+06  -8.417552e+05
   4.073440e+06   4.018893e+05
   3.403032e+06   2.458695e+06
   2.394471e+05   4.009391e+06
  -3.220031e+06   3.826620e+06
  -4.314830e+06   1.789203e+06
  -2.507739e+06  -8.823892e+05
   2.414616e+05  -2.360495e+06
   1.476691e+06  -1.678132e+06
   5.039641e+05   2.106969e+05
  -1.214576e+06   1.209294e+06
  -1.746164e+06   3.370333e+05
  -6.677402e+05  -1.096721e+06
   6.682446e+05  -1.121029e+06
   7.329496e+05   3.163007e+05
  -5.462553e+05   1.171290e+06
  -1.802045e+06  -1.298320e+05
  -1.624682e+06  -2.629217e+06
   2.015970e+05  -3.823543e+06
   2.571901e+06  -2.375825e+06
   3.858449e+06   6.079548e+05
   3.068268e+06   2.838529e+06
   7.229042e+05   2.967582e+06
  -1.369321e+06   1.522035e+06
  -1.676313e+06   1.296530e+05
  -4.938000e+05  -4.342682e+04
   3.772442e+05   7.324788e+05
  -2.787819e+05   1.207102e+06
  -1.649224e+06   5.756723e+05
  -1.913210e+06  -6.408597e+05
  -5.125012e+05  -1.229141e+06
   1.094697e+06  -6.535010e+05
   1.074667e+06   4.104934e+05
  -6.970375e+05   8.315934e+05
  -2.428814e+06   9.410798e+04
  -2.229954e+06  -1.310701e+06
  -2.550920e+04  -2.283181e+06
   2.328878e+06  -1.936050e+06
   2.820338e+06  -3.872539e+05
   1.204402e+06   1.137956e+06
  -8.190392e+05   1.327419e+06
  -1.342654e+06   1.582385e+05
  -9.725354e+04  -9.622727e+05
   1.459435e+06  -7.099389e+05
   1.741258e+06   6.542066e+05
   5.508298e+05   1.617095e+06
  -9.116101e+05   1.182994e+06
  -1.313644e+06  -5.350061e+04
  -4.325948e+05  -6.935836e+05
   6.764197e+05  -1.013025e+05
   6.955745e+05   1.008654e+06
  -6.103911e+05   1.391076e+06
  -2.016968e+06   4.921390e+05
  -2.005501e+06  -1.062855e+06
  -4.031750e+05  -2.033774e+06
   1.343553e+06  -1.652809e+06
   1.688848e+06  -3.081456e+05
   5.936119e+05   8.172264e+05
  -6.018781e+05   8.640053e+05
  -7.448670e+05   7.742131e+04
   1.384375e+04  -5.594624e+05
   6.443293e+05  -4.265172e+05
   4.498828e+05   1.106757e+05
  -2.757291e+05   2.065175e+05
  -6.203719e+05  -4.348366e+05
   2.775040e+04  -1.147448e+06
   1.309398e+06  -9.593441e+05
   2.087323e+06   3.554193e+05
   1.480031e+06   1.915821e+06
  -1.913165e+05   2.478320e+06
  -1.630148e+06   1.591275e+06
  -1.851330e+06   1.451164e+04
  -1.106670e+06  -1.026876e+06
  -4.075168e+05  -9.956925e+05
  -3.075284e+05  -4.323537e+05
  -4.160626e+05  -2.318876e+05
  -6.661910e+04  -6.255896e+05
   7.979966e+05  -9.558041e+05
   1.493211e+06  -4.650788e+05
   1.228559e+06   7.491845e+05
  -1.225565e+05   1.653564e+06
  -1.737529e+06   1.236290e+06
  -2.345791e+06  -4.182798e+05
  -1.277169e+06  -2.062373e+06
   8.189963e+05  -2.379977e+06
   2.418623e+06  -1.190418e+06
   2.458559e+06   4.494228e+05
   1.234815e+06   1.322682e+06
  -5.294262e+04   1.169367e+06
  -5.343681e+05   7.225359e+05
  -3.497142e+05   7.414356e+05
  -2.307683e+05   1.148928e+06
  -6.162212e+05   1.174995e+06
  -1.212658e+06   2.906812e+05
  -1.318631e+06  -1.094346e+06
  -5.582459e+05  -1.917274e+06
   6.383494e+05  -1.457364e+06
   1.314808e+06  -4.808137e+04
   8.813602e+05   1.201778e+06
  -2.439683e+05   1.395739e+06
  -1.008576e+06   5.787650e+05
  -8.015153e+05  -4.486186e+05
  -5.500290e+04  -9.447734e+05
   3.167168e+05  -8.199308e+05
  -8.108253e+03  -5.059184e+05
  -4.011610e+05  -3.828392e+05
  -3.821562e+04  -4.063493e+05
   1.080688e+06  -2.506504e+05
   1.978173e+06   2.706818e+05
   1.638853e+06   9.541419e+05
   1.070352e+05   1.344297e+06
  -1.435850e+06   1.119159e+06
  -1.786360e+06   3.954121e+05
  -8.919164e+05  -3.117754e+05
   1.887219e+05  -4.925523e+05
   4.668680e+05  -1.107220e+05
  -2.146630e+04   3.198821e+05
  -5.026568e+05   2.338975e+05
  -4.678243e+05  -3.456068e+05
  -1.318826e+05  -7.680868e+05
   2.134336e+04  -4.944495e+05
  -1.510545e+05   1.869241e+05
  -3.775968e+05   4.111701e+05
  -3.048917e+05  -2.169863e+05
   1.978794e+05  -1.043476e+06
   8.935386e+05  -1.059844e+06
   1.224076e+06  -9.913355e+04
   7.163506e+05   9.252926e+05
  -4.133057e+05   1.033506e+06
  -1.183735e+06   2.239684e+05
  -7.267238e+05  -6.164589e+05
   6.713308e+05  -6.877441e+05
   1.665854e+06   9.718872e+03
   1.198584e+06   8.286740e+05
  -3.534506e+05   1.112439e+06
  -1.548068e+06   6.819548e+05
  -1.368794e+06  -8.516106e+04
  -2.082708e+05  -5.505423e+05
   6.409275e+05  -3.407623e+05
   3.507022e+05   2.557817e+05
  -6.511570e+05   4.735688e+05
  -1.191650e+06  -1.698562e+05
  -5.746276e+05  -1.247523e+06
   7.276138e+05  -1.688592e+06
   1.573449e+06  -8.234056e+05
   1.278492e+06   8.164261e+05
   1.964632e+05   1.860534e+06
  -7.541804e+05   1.394864e+06
  -9.712421e+05  -9.812260e+04
  -5.298435e+05  -1.207819e+06
   1.157732e+05  -1.052856e+06
   5.443261e+05  -1.331786e+05
   5.558780e+05   4.017933e+05
   2.523908e+05   1.662883e+05
   1.706716e+04  -1.238221e+05
   1.679607e+05   2.452093e+05
   4.820675e+05   9.645925e+05
   3.020311e+05   1.123771e+06
  -6.159006e+05   4.261419e+05
  -1.532988e+06  -4.737906e+05
  -1.412634e+06  -8.523089e+05
  -2.043039e+05  -6.958861e+05
   9.563680e+05  -4.246915e+05
   1.039966e+06  -2.224735e+05
   3.008451e+05   4.852215e+03
  -1.807830e+05   2.235244e+05
   6.029791e+04   2.576400e+05
   3.741750e+05   1.505925e+05
   1.225116e+04   1.431023e+05
  -7.872594e+05   2.033666e+05
  -1.059083e+06  -4.511238e+04
  -2.927549e+05  -6.945552e+05
   9.615233e+05  -1.142921e+06
   1.674973e+06  -6.929543e+05
   1.318994e+06   5.052787e+05
   2.361841e+05   1.457635e+06
  -7.646045e+05   1.370390e+06
  -1.074775e+06   4.784555e+05
  -6.842606e+05  -2.954847e+05
  -9.273997e+04  -3.660311e+05
   1.576564e+05  -1.088111e+04
  -5.072466e+04   8.254891e+04
  -3.507155e+05  -3.474680e+05
  -2.881098e+05  -8.268241e+05
   2.067546e+05  -6.732798e+05
   7.156224e+05   1.916571e+05
   6.945522e+05   1.040940e+06
   8.448571e+03   1.046495e+06
  -8.286316e+05   1.604512e+05
  -1.024687e+06  -8.265987e+05
  -2.889921e+05  -1.112064e+06
   7.492841e+05  -6.207556e+05
   1.098377e+06   1.107877e+05
   4.866439e+05   5.685508e+05
  -2.928715e+05   6.089385e+05
  -3.164702e+05   3.529947e+05
   3.343774e+05   4.135182e+04
   6.858467e+05  -2.279099e+04
   1.193575e+05   3.005118e+05
  -8.482696e+05   6.996963e+05
  -1.220591e+06   6.038846e+05
  -6.961501e+05  -1.239088e+05
   1.122861e+05  -8.557089e+05
   5.000855e+05  -8.369725e+05
   3.565104e+05  -1.027239e+05
   9.120465e+03   5.240749e+05
  -2.636758e+05   3.997123e+05
  -3.644225e+05  -2.246321e+05
  -2.438687e+05  -5.950148e+05
   7.768316e+04  -3.708201e+05
   3.966252e+05   8.038111e+04
   4.578644e+05   2.407513e+05
   2.456044e+05   5.548828e+04
   3.326489e+03  -9.783342e+04
  -8.119579e+04   7.184678e+04
  -8.984456e+04   4.092561e+05
  -1.985408e+05   4.850660e+05
  -3.753157e+05   9.016514e+04
  -3.709485e+05  -4.786381e+05
  -2.727645e+04  -6.767583e+05
   4.571414e+05  -2.828419e+05
   6.292767e+05   3.401372e+05
   2.178434e+05   6.179670e+05
  -5.005820e+05   3.579541e+05
  -8.592549e+05  -1.182743e+05
  -4.647598e+05  -3.925366e+05
   3.048649e+05  -3.525688e+05
   6.370326e+05  -1.608518e+05
   2.002175e+05  -3.959328e+03
  -4.339312e+05   1.029568e+04
  -4.481654e+05  -1.483770e+05
   2.379473e+05  -3.448587e+05
   8.676609e+05  -2.692294e+05
