
 $NMID
 id='ANONYMOUS ', fmtdat='(2E16.6)'
 volume=1.0
 tramp=1.0
 $END
  -3.594857e+07  -2.752763e+06
  -2.066118e+07  -2.160692e+07
   4.741642e+06  -2.311638e+07
   1.720113e+07  -1.029469e+07
   1.095698e+07   2.681205e+06
  -1.316197e+06   5.872858e+06
  -6.442814e+06   4.710787e+05
  -2.835058e+06  -5.995012e+06
   3.270328e+06  -7.203009e+06
   6.351092e+06  -2.160919e+06
   4.788719e+06   4.521603e+06
   3.122901e+05   6.392207e+06
  -3.082381e+06   1.543225e+06
  -2.027310e+06  -4.710474e+06
   2.437977e+06  -5.327541e+06
   5.322322e+06   5.354265e+05
   3.076864e+06   6.899111e+06
  -2.584392e+06   7.940214e+06
  -6.910900e+06   3.532436e+06
  -6.907380e+06  -2.151574e+06
  -3.369399e+06  -5.290255e+06
   4.551562e+05  -4.969403e+06
   1.534769e+06  -2.930628e+06
  -3.265125e+05  -1.857966e+06
  -1.866027e+06  -2.887717e+06
   3.303751e+05  -4.198093e+06
   5.251504e+06  -3.019371e+06
   7.792872e+06   6.751840e+05
   4.764024e+06   3.759747e+06
  -9.538524e+05   3.663375e+06
  -3.797757e+06   1.139808e+06
  -1.904181e+06  -1.202925e+06
   1.662794e+06  -1.686499e+06
   3.225957e+06  -1.936817e+05
   2.018828e+06   2.316739e+06
  -3.394625e+05   3.817179e+06
  -1.915855e+06   2.389529e+06
  -1.677299e+06  -1.036723e+06
  -1.354554e+05  -2.617154e+06
   7.855990e+05  -2.734694e+05
  -2.928990e+05   2.819528e+06
  -2.092345e+06   2.041345e+06
  -1.814828e+06  -2.030196e+06
   1.114635e+06  -3.899149e+06
   3.728140e+06  -5.504445e+05
   2.822106e+06   4.362753e+06
  -1.257154e+06   5.238458e+06
  -4.971334e+06   1.302415e+06
  -5.173988e+06  -3.252598e+06
  -1.766868e+06  -4.537646e+06
   2.519633e+06  -2.384870e+06
   4.323030e+06   7.613318e+05
   2.326340e+06   2.424897e+06
  -1.392582e+06   1.655067e+06
  -3.141651e+06  -4.831630e+05
  -1.489466e+06  -1.738628e+06
   1.136924e+06  -9.188213e+05
   1.508151e+06   6.961243e+05
  -3.977719e+05   9.596597e+05
  -1.644907e+06  -3.941838e+05
  -2.883129e+05  -1.602271e+06
   2.317616e+06  -1.233614e+06
   3.374876e+06   4.637232e+05
   1.669018e+06   2.454115e+06
  -1.661366e+06   3.785146e+06
  -4.426920e+06   3.423591e+06
  -4.930933e+06   7.810105e+05
  -3.016756e+06  -2.873252e+06
  -2.777742e+05  -4.815235e+06
   1.223807e+06  -3.760289e+06
   9.791855e+05  -1.504904e+06
   4.269689e+05  -6.078416e+05
   9.904410e+05  -1.141803e+06
   2.264609e+06  -1.042851e+06
   2.677101e+06   6.655797e+05
   1.481809e+06   2.435526e+06
  -5.194247e+05   2.246085e+06
  -1.895378e+06   6.485030e+04
  -1.648488e+06  -2.216093e+06
   2.363290e+05  -2.706450e+06
   2.547535e+06  -1.044618e+06
   3.415145e+06   1.499920e+06
   2.001803e+06   3.102653e+06
  -3.819156e+05   2.890729e+06
  -1.638573e+06   1.639101e+06
  -1.398429e+06   7.830616e+05
  -1.292678e+06   7.386279e+05
  -2.461538e+06   5.818569e+05
  -3.734449e+06  -5.772277e+05
  -3.031447e+06  -2.400008e+06
  -8.592183e+04  -3.669151e+06
   3.016092e+06  -3.421733e+06
   3.949366e+06  -1.626195e+06
   2.333665e+06   7.466365e+05
  -1.250151e+05   2.145893e+06
  -1.297913e+06   1.589656e+06
  -4.812237e+05  -1.593601e+05
   1.104727e+06  -1.106083e+06
   1.639774e+06  -2.694357e+05
   6.401351e+05   1.059584e+06
  -5.893425e+05   1.011822e+06
  -5.677935e+05  -2.986334e+05
   6.247699e+05  -8.789515e+05
   1.552463e+06   4.776307e+05
   1.080666e+06   2.576881e+06
  -6.116935e+05   3.243260e+06
  -2.441196e+06   1.711590e+06
  -3.275354e+06  -8.220132e+05
  -2.514606e+06  -2.563712e+06
  -5.440696e+05  -2.594613e+06
   1.240630e+06  -1.346812e+06
   1.507927e+06  -1.144511e+05
   4.476347e+05   5.102540e+04
  -3.179181e+05  -6.780799e+05
   3.302883e+05  -1.114635e+06
   1.582400e+06  -4.625843e+05
   1.734339e+06   7.045920e+05
   3.853762e+05   1.167613e+06
  -1.023553e+06   5.364146e+05
  -9.095601e+05  -3.961566e+05
   6.714777e+05  -6.391951e+05
   2.107678e+06   6.795918e+04
   1.857507e+06   1.217827e+06
  -8.154166e+04   1.966928e+06
  -2.134238e+06   1.628122e+06
  -2.550620e+06   2.578772e+05
  -1.060849e+06  -1.098380e+06
   8.176021e+05  -1.226486e+06
   1.286010e+06  -1.029234e+05
   8.388334e+04   9.173238e+05
  -1.361405e+06   6.124101e+05
  -1.549561e+06  -6.696848e+05
  -3.997407e+05  -1.474053e+06
   8.886999e+05  -9.800032e+05
   1.153621e+06   1.471464e+05
   3.158108e+05   6.477348e+05
  -6.467312e+05   5.000460e+04
  -6.141440e+05  -9.516677e+05
   5.839027e+05  -1.262615e+06
   1.849286e+06  -4.130394e+05
   1.808301e+06   1.014604e+06
   3.089389e+05   1.869345e+06
  -1.287389e+06   1.460070e+06
  -1.544791e+06   2.100757e+05
  -4.900173e+05  -7.622825e+05
   5.779417e+05  -7.479872e+05
   6.461638e+05  -6.183888e+04
  -4.005279e+04   4.422880e+05
  -5.351279e+05   3.225556e+05
  -3.174545e+05  -7.175600e+04
   2.815143e+05  -8.645532e+04
   5.053386e+05   4.696830e+05
  -1.073043e+05   1.040058e+06
  -1.230466e+06   8.170261e+05
  -1.884294e+06  -3.902525e+05
  -1.293986e+06  -1.785604e+06
   2.351695e+05  -2.231930e+06
   1.500649e+06  -1.359708e+06
   1.626636e+06   5.604871e+04
   9.242163e+05   9.013310e+05
   3.526512e+05   8.103337e+05
   3.367578e+05   3.556783e+05
   4.260144e+05   2.632807e+05
   4.053085e+04   6.135451e+05
  -7.672384e+05   8.293272e+05
  -1.346542e+06   3.514928e+05
  -1.052714e+06  -6.890692e+05
   1.707952e+05  -1.436629e+06
   1.593057e+06  -1.038193e+06
   2.091324e+06   4.473246e+05
   1.067896e+06   1.905338e+06
  -8.557413e+05   2.124362e+06
  -2.250039e+06   9.684969e+05
  -2.176383e+06  -5.177611e+05
  -1.010816e+06  -1.212300e+06
   9.986425e+04  -9.851638e+05
   4.433174e+05  -5.971321e+05
   2.595668e+05  -6.937974e+05
   2.148070e+05  -1.096196e+06
   6.139279e+05  -1.081942e+06
   1.135775e+06  -2.364215e+05
   1.180432e+06   1.024705e+06
   4.639239e+05   1.750989e+06
  -6.088204e+05   1.306323e+06
  -1.184213e+06   4.202323e+02
  -7.458367e+05  -1.131694e+06
   2.973248e+05  -1.250933e+06
   9.599991e+05  -4.388190e+05
   6.989025e+05   4.997185e+05
  -3.554573e+04   8.824819e+05
  -3.676276e+05   7.075745e+05
  -2.314044e+04   4.260302e+05
   3.701317e+05   3.474403e+05
   3.374752e+04   3.665661e+05
  -1.005877e+06   1.847709e+05
  -1.813383e+06  -3.190857e+05
  -1.454984e+06  -9.293679e+05
  -1.481763e+04  -1.238725e+06
   1.379748e+06  -9.763802e+05
   1.637023e+06  -2.792432e+05
   7.704052e+05   3.523299e+05
  -2.114451e+05   4.595052e+05
  -4.336602e+05   6.330385e+04
   2.074046e+04  -3.254265e+05
   4.477310e+05  -2.146006e+05
   4.226363e+05   3.254640e+05
   1.425601e+05   7.005153e+05
   5.197738e+03   4.560195e+05
   1.295499e+05  -1.410578e+05
   3.139447e+05  -3.393935e+05
   2.626811e+05   2.074583e+05
  -1.829473e+05   9.346628e+05
  -8.413986e+05   9.453509e+05
  -1.165359e+06   7.083250e+04
  -6.720815e+05  -8.690545e+05
   4.110294e+05  -9.628820e+05
   1.116032e+06  -2.035324e+05
   6.539520e+05   5.657671e+05
  -6.326997e+05   5.960943e+05
  -1.485289e+06  -6.602943e+04
  -1.011005e+06  -7.747227e+05
   3.753775e+05  -9.553851e+05
   1.391421e+06  -5.282123e+05
   1.193301e+06   1.287277e+05
   1.577700e+05   4.880669e+05
  -5.872396e+05   2.725061e+05
  -3.196695e+05  -2.561312e+05
   5.887321e+05  -4.376078e+05
   1.087810e+06   1.539352e+05
   5.315854e+05   1.138755e+06
  -6.597587e+05   1.540379e+06
  -1.430795e+06   7.434091e+05
  -1.145805e+06  -7.522215e+05
  -1.457981e+05  -1.679418e+06
   7.049591e+05  -1.224038e+06
   8.607505e+05   1.319948e+05
   4.253899e+05   1.098324e+06
  -1.546909e+05   9.197618e+05
  -5.000991e+05   9.107510e+04
  -4.710845e+05  -3.623410e+05
  -2.004600e+05  -1.390732e+05
  -2.550540e+04   1.000572e+05
  -1.783132e+05  -2.550925e+05
  -4.260974e+05  -8.938008e+05
  -2.183399e+05  -1.005226e+06
   6.000123e+05  -3.540642e+05
   1.369100e+06   4.580562e+05
   1.227229e+06   7.906241e+05
   1.638939e+05   6.383021e+05
  -8.475099e+05   3.748688e+05
  -9.310549e+05   1.719013e+05
  -2.891081e+05  -3.353953e+04
   1.583264e+05  -2.042448e+05
  -2.299637e+04  -2.088035e+05
  -3.074494e+05  -1.156267e+05
  -2.168670e+04  -1.317947e+05
   6.843973e+05  -1.924357e+05
   9.649863e+05   5.213232e+04
   2.993715e+05   6.547524e+05
  -8.659201e+05   1.046704e+06
  -1.559452e+06   6.144945e+05
  -1.232526e+06  -4.750298e+05
  -2.025547e+05  -1.322575e+06
   7.297659e+05  -1.235832e+06
   9.898574e+05  -4.364271e+05
   6.152426e+05   2.600682e+05
   9.146759e+04   3.382194e+05
  -1.202331e+05   3.526711e+04
   5.144514e+04  -4.810837e+04
   2.928208e+05   3.265494e+05
   2.324874e+05   7.502626e+05
  -1.946483e+05   6.152211e+05
  -6.450697e+05  -1.620169e+05
  -6.374027e+05  -9.390595e+05
  -2.487844e+04  -9.626439e+05
   7.432544e+05  -1.684225e+05
   9.339952e+05   7.402745e+05
   2.640346e+05   1.020760e+06
  -6.913160e+05   5.755053e+05
  -1.012398e+06  -1.141433e+05
  -4.433537e+05  -5.507262e+05
   2.865581e+05  -5.754166e+05
   3.209643e+05  -3.136450e+05
  -2.771387e+05  -2.325305e+04
  -6.160158e+05   1.623597e+04
  -1.116076e+05  -2.829779e+05
   7.793546e+05  -6.160807e+05
   1.134643e+06  -4.980133e+05
   6.510203e+05   1.549971e+05
  -1.166494e+05   7.860868e+05
  -4.958270e+05   7.549259e+05
  -3.598545e+05   9.974734e+04
  -1.863553e+04  -4.679234e+05
   2.446734e+05  -3.755130e+05
   3.327917e+05   1.832945e+05
   2.160534e+05   5.436413e+05
  -7.625452e+04   3.607491e+05
  -3.628142e+05  -6.808128e+04
  -4.151396e+05  -2.463019e+05
  -2.173888e+05  -7.049429e+04
   2.559162e+03   1.128548e+05
   6.287558e+04  -2.157787e+04
   4.687915e+04  -3.634853e+05
   1.445868e+05  -4.803458e+05
   3.391176e+05  -1.283642e+05
   3.727873e+05   4.187656e+05
   6.195996e+04   6.235679e+05
  -4.094232e+05   2.664598e+05
  -5.882660e+05  -3.057166e+05
  -2.047959e+05  -5.572229e+05
   4.685520e+05  -3.187535e+05
   7.967051e+05   1.129297e+05
   4.237139e+05   3.646632e+05
  -2.874883e+05   3.349635e+05
  -5.943009e+05   1.586044e+05
  -2.035494e+05  -1.017776e+03
   3.709077e+05  -3.241314e+04
   4.014120e+05   1.084300e+05
  -1.921767e+05   2.984653e+05
  -7.524527e+05   2.437327e+05
