
 $NMID
 id='ANONYMOUS ', fmtdat='(2E16.6)'
 volume=1.0
 tramp=1.0
 $END
   4.239278e+07   5.424686e+05
   2.565213e+07   2.511858e+07
  -4.777284e+06   2.809355e+07
  -2.021438e+07   1.222194e+07
  -1.285140e+07  -3.795596e+06
   1.793569e+06  -7.054843e+06
   7.553629e+06  -8.252978e+04
   2.979326e+06   7.159255e+06
  -4.047424e+06   7.965347e+06
  -7.357323e+06   2.270937e+06
  -5.599224e+06  -4.885786e+06
  -6.529313e+05  -7.033592e+06
   3.289889e+06  -2.011675e+06
   2.310035e+06   4.836005e+06
  -2.728136e+06   5.743814e+06
  -6.148892e+06  -6.385105e+05
  -3.713331e+06  -7.835030e+06
   2.705743e+06  -9.219400e+06
   7.769289e+06  -4.505727e+06
   8.176947e+06   1.848057e+06
   4.596413e+06   5.811320e+06
   1.419036e+05   6.138909e+06
  -1.849833e+06   4.029874e+06
  -3.809902e+05   2.166868e+06
   1.605268e+06   2.567643e+06
  -4.190286e+04   4.109313e+06
  -5.121531e+06   3.550434e+06
  -8.293319e+06  -6.089024e+04
  -5.556755e+06  -3.677715e+06
   4.160554e+05  -4.077067e+06
   3.651718e+06  -1.688089e+06
   2.062784e+06   7.106836e+05
  -1.257235e+06   1.403298e+06
  -2.832021e+06   3.289006e+05
  -2.063215e+06  -1.927908e+06
  -9.616277e+04  -3.769084e+06
   1.760506e+06  -2.886972e+06
   2.181109e+06   6.250959e+05
   7.547924e+05   2.882889e+06
  -7.195507e+05   8.560800e+05
   2.403218e+04  -2.635923e+06
   2.138906e+06  -2.147588e+06
   2.072801e+06   2.350618e+06
  -1.418012e+06   4.667149e+06
  -4.759987e+06   8.600542e+05
  -3.723884e+06  -5.064353e+06
   1.274222e+06  -6.333871e+06
   5.685187e+06  -1.827963e+06
   5.799267e+06   3.468950e+06
   1.890599e+06   4.946856e+06
  -2.759113e+06   2.532393e+06
  -4.614001e+06  -9.101064e+05
  -2.394534e+06  -2.710897e+06
   1.683922e+06  -1.870652e+06
   3.594024e+06   5.342176e+05
   1.682135e+06   2.014015e+06
  -1.293189e+06   1.098244e+06
  -1.586611e+06  -7.675402e+05
   6.967203e+05  -9.650630e+05
   1.953330e+06   8.055127e+05
   5.218414e+04   2.234583e+06
  -3.037492e+06   1.553359e+06
  -4.019524e+06  -6.489689e+05
  -1.953508e+06  -2.891812e+06
   1.572222e+06  -4.268954e+06
   4.453262e+06  -3.956009e+06
   5.246694e+06  -1.228259e+06
   3.570237e+06   2.826549e+06
   6.290413e+05   5.184566e+06
  -1.329534e+06   4.089742e+06
  -1.215728e+06   1.420864e+06
  -3.407022e+05   2.995093e+05
  -6.039308e+05   1.058639e+06
  -1.960954e+06   1.311646e+06
  -2.673036e+06  -2.869757e+05
  -1.682016e+06  -2.183131e+06
   2.844822e+05  -2.175150e+06
   1.746711e+06  -1.388673e+05
   1.673917e+06   2.105816e+06
  -9.358406e+04   2.745724e+06
  -2.550695e+06   1.294447e+06
  -3.749715e+06  -1.277763e+06
  -2.469564e+06  -3.212154e+06
   1.659267e+05  -3.307070e+06
   1.773623e+06  -2.035559e+06
   1.641188e+06  -9.430272e+05
   1.448693e+06  -7.477032e+05
   2.585503e+06  -5.975531e+05
   3.910993e+06   5.463716e+05
   3.201354e+06   2.425387e+06
   1.803871e+05   3.775791e+06
  -2.964599e+06   3.602860e+06
  -3.930134e+06   1.855448e+06
  -2.420096e+06  -5.713994e+05
  -5.890449e+04  -2.139923e+06
   1.173722e+06  -1.707068e+06
   5.043076e+05   1.039779e+05
  -1.059101e+06   1.183635e+06
  -1.705218e+06   3.483353e+05
  -7.542829e+05  -1.078599e+06
   5.370063e+05  -1.044091e+06
   5.209211e+05   3.212576e+05
  -7.617287e+05   8.285552e+05
  -1.671631e+06  -7.191071e+05
  -9.848876e+05  -2.855306e+06
   8.868258e+05  -3.296876e+06
   2.640881e+06  -1.539775e+06
   3.273198e+06   9.718697e+05
   2.445383e+06   2.560428e+06
   5.509353e+05   2.557493e+06
  -1.196427e+06   1.392035e+06
  -1.507396e+06   1.816048e+05
  -4.584106e+05  -3.968298e+04
   3.427756e+05   6.894640e+05
  -3.298753e+05   1.190629e+06
  -1.668270e+06   5.357840e+05
  -1.838305e+06  -7.234619e+05
  -4.077783e+05  -1.237467e+06
   1.054934e+06  -5.654032e+05
   9.005112e+05   3.973609e+05
  -7.182292e+05   6.053834e+05
  -2.114186e+06  -1.188104e+05
  -1.816864e+06  -1.222405e+06
   1.066884e+05  -1.948179e+06
   2.140008e+06  -1.657797e+06
   2.593030e+06  -3.102244e+05
   1.127300e+06   1.122753e+06
  -8.155113e+05   1.328287e+06
  -1.365629e+06   1.628229e+05
  -1.462976e+05  -9.611694e+05
   1.386823e+06  -6.784553e+05
   1.606244e+06   6.709595e+05
   4.014362e+05   1.515798e+06
  -9.361346e+05   9.869229e+05
  -1.184644e+06  -1.841135e+05
  -3.007949e+05  -6.865813e+05
   6.932456e+05  -6.794954e+04
   6.721502e+05   9.618922e+05
  -5.452087e+05   1.316107e+06
  -1.871888e+06   4.933504e+05
  -1.887240e+06  -9.757132e+05
  -3.708536e+05  -1.913140e+06
   1.296890e+06  -1.534755e+06
   1.588275e+06  -2.379865e+05
   5.037123e+05   7.841836e+05
  -5.867534e+05   7.713933e+05
  -6.323345e+05   7.700666e+04
   6.257108e+04  -4.096909e+05
   5.090046e+05  -2.848379e+05
   2.423035e+05   6.773401e+04
  -3.416735e+05   3.416999e+04
  -5.161548e+05  -5.286448e+05
   1.204653e+05  -1.084310e+06
   1.253134e+06  -8.603208e+05
   1.939052e+06   3.552360e+05
   1.375360e+06   1.792291e+06
  -1.812099e+05   2.274928e+06
  -1.497883e+06   1.389285e+06
  -1.630200e+06  -5.216292e+04
  -9.009754e+05  -8.732178e+05
  -3.431735e+05  -7.347984e+05
  -3.862160e+05  -2.897411e+05
  -5.007475e+05  -2.645556e+05
  -7.367270e+04  -6.581385e+05
   7.802041e+05  -8.599232e+05
   1.359050e+06  -3.625980e+05
   1.048629e+06   6.728134e+05
  -1.723993e+05   1.429217e+06
  -1.599041e+06   1.067329e+06
  -2.128795e+06  -4.136615e+05
  -1.116086e+06  -1.931084e+06
   8.577361e+05  -2.204304e+06
   2.309667e+06  -1.025573e+06
   2.224213e+06   5.214974e+05
   1.000264e+06   1.227200e+06
  -1.226719e+05   9.612706e+05
  -4.089976e+05   5.620215e+05
  -1.741867e+05   7.053952e+05
  -1.450073e+05   1.160177e+06
  -6.018564e+05   1.156387e+06
  -1.172533e+06   2.882421e+05
  -1.242263e+06  -1.005961e+06
  -5.269573e+05  -1.769413e+06
   5.786065e+05  -1.348114e+06
   1.205837e+06  -2.293266e+04
   7.843675e+05   1.157930e+06
  -3.023915e+05   1.295691e+06
  -1.016149e+06   4.425903e+05
  -7.456729e+05  -5.515822e+05
   4.707005e+04  -9.458254e+05
   4.115913e+05  -7.370463e+05
   3.932291e+04  -4.184788e+05
  -3.940637e+05  -3.294443e+05
  -4.998098e+04  -3.658524e+05
   1.041042e+06  -2.132381e+05
   1.887189e+06   2.803381e+05
   1.514669e+06   9.263835e+05
   2.218886e+04   1.296665e+06
  -1.417309e+06   1.054903e+06
  -1.682535e+06   3.085710e+05
  -7.937445e+05  -3.861046e+05
   2.159192e+05  -4.995501e+05
   4.566995e+05  -6.091478e+04
   7.632426e+03   3.556100e+05
  -4.340426e+05   2.354474e+05
  -4.448873e+05  -3.177883e+05
  -1.959689e+05  -6.924340e+05
  -4.887975e+04  -4.551115e+05
  -1.293769e+05   1.232885e+05
  -2.909341e+05   3.205079e+05
  -2.678138e+05  -2.083713e+05
   1.456868e+05  -9.417611e+05
   8.300975e+05  -9.943409e+05
   1.219271e+06  -1.375128e+05
   7.488377e+05   8.555794e+05
  -3.835999e+05   1.024353e+06
  -1.146273e+06   2.770904e+05
  -6.851203e+05  -5.456112e+05
   6.382161e+05  -6.201573e+05
   1.504160e+06   4.844725e+04
   1.008252e+06   7.802758e+05
  -3.954085e+05   9.627262e+05
  -1.404015e+06   5.265312e+05
  -1.193641e+06  -1.300602e+05
  -1.547586e+05  -4.885494e+05
   5.982623e+05  -2.786290e+05
   3.463983e+05   2.598481e+05
  -5.668679e+05   4.754641e+05
  -1.109213e+06  -9.867185e+04
  -6.022792e+05  -1.122944e+06
   5.863637e+05  -1.591233e+06
   1.410318e+06  -8.175001e+05
   1.185684e+06   7.173205e+05
   2.005100e+05   1.692829e+06
  -6.837309e+05   1.245502e+06
  -8.763717e+05  -1.316660e+05
  -4.421050e+05  -1.110877e+06
   1.623609e+05  -9.287211e+05
   5.162974e+05  -9.695332e+04
   4.669454e+05   3.539990e+05
   1.830208e+05   1.332471e+05
   3.362673e+04  -9.717374e+04
   2.252116e+05   2.620418e+05
   4.725791e+05   8.990379e+05
   2.216006e+05   1.015378e+06
  -6.320077e+05   3.789787e+05
  -1.397953e+06  -4.253313e+05
  -1.242013e+06  -7.727736e+05
  -1.829745e+05  -6.492634e+05
   8.253196e+05  -4.027295e+05
   9.331274e+05  -1.910393e+05
   3.170199e+05   3.484052e+04
  -1.451095e+05   2.124374e+05
  -9.896324e+02   2.037415e+05
   2.829192e+05   9.868757e+04
   3.733265e+04   1.285154e+05
  -6.546402e+05   2.209758e+05
  -9.829946e+05  -1.193316e+04
  -3.691308e+05  -6.498044e+05
   8.131736e+05  -1.102027e+06
   1.577746e+06  -7.011589e+05
   1.299019e+06   4.165407e+05
   2.597173e+05   1.328133e+06
  -7.052152e+05   1.290373e+06
  -9.861700e+05   4.960842e+05
  -6.253294e+05  -2.280790e+05
  -1.170011e+05  -3.377772e+05
   9.177885e+04  -5.101819e+04
  -6.454932e+04   3.322636e+04
  -2.968855e+05  -3.336394e+05
  -2.497573e+05  -7.569805e+05
   1.694804e+05  -6.362086e+05
   6.503571e+05   1.244344e+05
   6.918127e+05   9.086703e+05
   9.024653e+04   9.721780e+05
  -7.254257e+05   2.194864e+05
  -9.767891e+05  -6.919381e+05
  -3.219711e+05  -1.024167e+06
   6.723168e+05  -6.275853e+05
   1.043398e+06   6.929866e+04
   4.895917e+05   5.585442e+05
  -2.665602e+05   6.196481e+05
  -3.360016e+05   3.411565e+05
   2.549546e+05   1.049503e+04
   6.171470e+05  -4.040291e+04
   1.328973e+05   2.860663e+05
  -7.707144e+05   6.490124e+05
  -1.160531e+06   5.313172e+05
  -6.958782e+05  -1.483682e+05
   8.644144e+04  -8.115260e+05
   4.963601e+05  -7.991632e+05
   3.822088e+05  -1.378890e+05
   4.602269e+04   4.608190e+05
  -2.270871e+05   4.021288e+05
  -3.374030e+05  -1.524723e+05
  -2.418749e+05  -5.424482e+05
   5.358657e+04  -3.878205e+05
   3.693075e+05   4.616870e+04
   4.418321e+05   2.490261e+05
   2.268017e+05   7.781731e+04
  -2.226031e+04  -1.292611e+05
  -7.233958e+04  -1.213294e+04
  -7.020830e+03   3.485814e+05
  -7.934696e+04   5.065479e+05
  -3.153849e+05   1.799141e+05
  -4.166895e+05  -3.775710e+05
  -1.243676e+05  -6.172788e+05
   3.916828e+05  -2.935631e+05
   6.194701e+05   2.702247e+05
   2.374273e+05   5.461048e+05
  -4.699226e+05   3.455265e+05
  -8.236345e+05  -7.215908e+04
  -4.499319e+05  -3.524984e+05
   2.754378e+05  -3.674465e+05
   5.984462e+05  -2.049363e+05
   2.234862e+05  -1.431337e+04
  -3.459771e+05   5.859288e+04
  -3.953887e+05  -7.251319e+04
   1.675413e+05  -2.898285e+05
   7.211216e+05  -2.675490e+05
