
 $NMID
 id='ANONYMOUS ', fmtdat='(2E16.6)'
 volume=1.0
 tramp=1.0
 $END
  -4.560177e+07   9.411193e+05
  -2.874138e+07  -2.639726e+07
   4.162840e+06  -3.072540e+07
   2.170306e+07  -1.384019e+07
   1.426265e+07   3.937656e+06
  -1.751137e+06   7.810340e+06
  -8.300345e+06   1.936281e+05
  -3.380204e+06  -7.804488e+06
   4.346521e+06  -8.713245e+06
   7.988812e+06  -2.586483e+06
   6.129905e+06   5.092646e+06
   8.564909e+05   7.488658e+06
  -3.406372e+06   2.257201e+06
  -2.457047e+06  -5.066681e+06
   2.922694e+06  -6.180175e+06
   6.698602e+06   5.776004e+05
   4.190590e+06   8.387222e+06
  -2.704505e+06   1.003782e+07
  -8.238309e+06   5.098362e+06
  -8.836056e+06  -1.678117e+06
  -5.189658e+06  -6.011271e+06
  -5.054608e+05  -6.599015e+06
   1.789297e+06  -4.573767e+06
   5.166693e+05  -2.566370e+06
  -1.493301e+06  -2.752910e+06
   8.444145e+04  -4.235656e+06
   5.290257e+06  -3.733846e+06
   8.688171e+06  -7.306880e+04
   5.962196e+06   3.720615e+06
  -2.494173e+05   4.225288e+06
  -3.671310e+06   1.805587e+06
  -2.054586e+06  -6.174205e+05
   1.333868e+06  -1.276971e+06
   2.871752e+06  -2.197474e+05
   2.065274e+06   1.978560e+06
   1.377783e+05   3.869645e+06
  -1.738338e+06   3.108901e+06
  -2.307252e+06  -4.524964e+05
  -9.709133e+05  -2.941866e+06
   5.974268e+05  -1.004760e+06
  -6.280952e+04   2.666471e+06
  -2.284281e+06   2.268579e+06
  -2.301050e+06  -2.513565e+06
   1.433700e+06  -5.151846e+06
   5.185447e+06  -1.174211e+06
   4.229241e+06   5.319560e+06
  -1.170585e+06   6.908267e+06
  -6.052536e+06   2.135585e+06
  -6.254989e+06  -3.647596e+06
  -2.046776e+06  -5.316988e+06
   2.964377e+06  -2.726528e+06
   4.960229e+06   9.901659e+05
   2.590999e+06   2.944268e+06
  -1.793034e+06   2.076774e+06
  -3.893479e+06  -5.003330e+05
  -1.874037e+06  -2.150425e+06
   1.354971e+06  -1.218569e+06
   1.701079e+06   8.230638e+05
  -8.051089e+05   1.085054e+06
  -2.224810e+06  -8.837875e+05
  -1.411912e+05  -2.553899e+06
   3.306082e+06  -1.850894e+06
   4.434183e+06   6.199612e+05
   2.199018e+06   3.112734e+06
  -1.592031e+06   4.576029e+06
  -4.648660e+06   4.234810e+06
  -5.522683e+06   1.391444e+06
  -3.838484e+06  -2.891266e+06
  -7.597088e+05  -5.480251e+06
   1.403843e+06  -4.410180e+06
   1.388527e+06  -1.540718e+06
   4.440381e+05  -2.271746e+05
   6.052605e+05  -9.781076e+05
   1.953205e+06  -1.315261e+06
   2.705780e+06   2.716117e+05
   1.710388e+06   2.217476e+06
  -2.986986e+05   2.204977e+06
  -1.783814e+06   9.436279e+04
  -1.703732e+06  -2.213234e+06
   9.908256e+04  -2.863605e+06
   2.644402e+06  -1.381410e+06
   3.954757e+06   1.272059e+06
   2.693268e+06   3.336349e+06
  -6.925060e+04   3.532010e+06
  -1.837147e+06   2.251481e+06
  -1.769796e+06   1.072676e+06
  -1.581919e+06   8.077367e+05
  -2.768068e+06   6.170284e+05
  -4.154973e+06  -5.996578e+05
  -3.384144e+06  -2.583890e+06
  -1.700718e+05  -3.989496e+06
   3.139852e+06  -3.776082e+06
   4.118733e+06  -1.935939e+06
   2.515511e+06   5.787589e+05
   6.527542e+04   2.205613e+06
  -1.203055e+06   1.777589e+06
  -5.165216e+05  -9.192585e+04
   1.102917e+06  -1.231667e+06
   1.791970e+06  -3.769904e+05
   8.094054e+05   1.118315e+06
  -5.537253e+05   1.083942e+06
  -5.309667e+05  -3.605055e+05
   8.614584e+05  -8.782959e+05
   1.836791e+06   8.174761e+05
   1.038838e+06   3.123617e+06
  -1.042931e+06   3.551939e+06
  -2.910150e+06   1.592576e+06
  -3.484958e+06  -1.121369e+06
  -2.524009e+06  -2.767514e+06
  -5.268831e+05  -2.702016e+06
   1.268601e+06  -1.449322e+06
   1.578442e+06  -1.832182e+05
   4.845803e+05   4.294630e+04
  -3.560087e+05  -7.274071e+05
   3.485103e+05  -1.263287e+06
   1.765608e+06  -5.738866e+05
   1.951216e+06   7.675319e+05
   4.332607e+05   1.313920e+06
  -1.114729e+06   5.866895e+05
  -9.317476e+05  -4.361925e+05
   7.939790e+05  -6.221548e+05
   2.243653e+06   1.821624e+05
   1.883667e+06   1.338508e+06
  -1.617090e+05   2.055529e+06
  -2.283093e+06   1.718114e+06
  -2.738751e+06   3.059008e+05
  -1.193751e+06  -1.189674e+06
   8.527927e+05  -1.409384e+06
   1.443563e+06  -1.860639e+05
   1.639694e+05   1.005408e+06
  -1.460509e+06   7.110785e+05
  -1.694118e+06  -7.198765e+05
  -4.097099e+05  -1.612154e+06
   1.009352e+06  -1.037425e+06
   1.258432e+06   2.122840e+05
   3.107253e+05   7.349258e+05
  -7.338897e+05   6.772270e+04
  -6.994138e+05  -1.016873e+06
   5.832878e+05  -1.377243e+06
   1.970724e+06  -5.050902e+05
   1.980896e+06   1.037373e+06
   3.819897e+05   2.019625e+06
  -1.377718e+06   1.616938e+06
  -1.682396e+06   2.449449e+05
  -5.285664e+05  -8.318799e+05
   6.238274e+05  -8.079272e+05
   6.555471e+05  -7.218993e+04
  -9.100078e+04   4.226968e+05
  -5.453545e+05   2.689154e+05
  -2.307723e+05  -9.688481e+04
   3.944277e+05  -2.970029e+04
   5.538575e+05   5.846797e+05
  -1.430246e+05   1.159836e+06
  -1.337666e+06   8.999849e+05
  -2.045671e+06  -3.920818e+05
  -1.439057e+06  -1.901043e+06
   2.089476e+05  -2.396305e+06
   1.597337e+06  -1.447245e+06
   1.721164e+06   8.096262e+04
   9.271791e+05   9.363352e+05
   3.326093e+05   7.671019e+05
   4.006037e+05   2.874884e+05
   5.426226e+05   2.747244e+05
   8.281113e+04   7.040552e+05
  -8.404044e+05   9.069291e+05
  -1.448482e+06   3.608015e+05
  -1.092467e+06  -7.330943e+05
   2.140924e+05  -1.508259e+06
   1.707498e+06  -1.104317e+06
   2.241942e+06   4.621331e+05
   1.157929e+06   2.054111e+06
  -9.291686e+05   2.328336e+06
  -2.456796e+06   1.066467e+06
  -2.349235e+06  -5.796746e+05
  -1.034342e+06  -1.317539e+06
   1.574248e+05  -1.010959e+06
   4.415652e+05  -5.697167e+05
   1.732216e+05  -7.253465e+05
   1.419980e+05  -1.222055e+06
   6.357609e+05  -1.225105e+06
   1.239620e+06  -3.037809e+05
   1.303205e+06   1.065483e+06
   5.431934e+05   1.866341e+06
  -6.176086e+05   1.414605e+06
  -1.271350e+06   1.232801e+04
  -8.204187e+05  -1.233524e+06
   3.341322e+05  -1.372887e+06
   1.092390e+06  -4.605857e+05
   7.984685e+05   5.990542e+05
  -5.708674e+04   1.014801e+06
  -4.525932e+05   7.852166e+05
  -5.360272e+04   4.415619e+05
   4.136217e+05   3.467701e+05
   5.001080e+04   3.854327e+05
  -1.107093e+06   2.201922e+05
  -1.997925e+06  -3.073527e+05
  -1.594622e+06  -9.926403e+05
  -1.181711e+04  -1.379576e+06
   1.507799e+06  -1.112814e+06
   1.784347e+06  -3.120428e+05
   8.415660e+05   4.244908e+05
  -2.304470e+05   5.342307e+05
  -4.896616e+05   5.979559e+04
  -1.522113e+04  -3.796882e+05
   4.553056e+05  -2.459529e+05
   4.696166e+05   3.367103e+05
   2.078020e+05   7.232112e+05
   5.507536e+04   4.728420e+05
   1.430906e+05  -1.237859e+05
   3.116734e+05  -3.223855e+05
   2.799707e+05   2.275411e+05
  -1.623080e+05   9.879612e+05
  -8.843056e+05   1.042894e+06
  -1.290984e+06   1.471190e+05
  -7.909689e+05  -8.997748e+05
   4.057221e+05  -1.084167e+06
   1.209278e+06  -2.960342e+05
   7.181020e+05   5.769590e+05
  -6.810725e+05   6.508450e+05
  -1.588179e+06  -6.888109e+04
  -1.050862e+06  -8.430693e+05
   4.378652e+05  -1.015046e+06
   1.494069e+06  -5.328222e+05
   1.256909e+06   1.587672e+05
   1.538956e+05   5.184490e+05
  -6.366609e+05   2.862817e+05
  -3.669335e+05  -2.760617e+05
   5.941356e+05  -4.961512e+05
   1.162970e+06   1.062555e+05
   6.303657e+05   1.178144e+06
  -6.181069e+05   1.668129e+06
  -1.483272e+06   8.537703e+05
  -1.242803e+06  -7.607037e+05
  -1.991047e+05  -1.782980e+06
   7.334638e+05  -1.303700e+06
   9.257787e+05   1.516272e+05
   4.526148e+05   1.179478e+06
  -1.885878e+05   9.790244e+05
  -5.491771e+05   9.626320e+04
  -4.829032e+05  -3.801867e+05
  -1.844087e+05  -1.447417e+05
  -3.918950e+04   1.024921e+05
  -2.456624e+05  -2.742786e+05
  -4.952591e+05  -9.490897e+05
  -2.188359e+05  -1.075436e+06
   6.765549e+05  -4.000454e+05
   1.468407e+06   4.589286e+05
   1.297036e+06   8.289769e+05
   1.882844e+05   6.878701e+05
  -8.670221e+05   4.143410e+05
  -9.845559e+05   1.904928e+05
  -3.412402e+05  -3.821896e+04
   1.512761e+05  -2.215816e+05
   1.110754e+04  -2.178084e+05
  -2.870004e+05  -1.092203e+05
  -3.963980e+04  -1.329760e+05
   6.820002e+05  -2.237160e+05
   1.033766e+06   1.678711e+04
   3.948517e+05   6.788699e+05
  -8.534074e+05   1.153312e+06
  -1.665912e+06   7.372433e+05
  -1.370252e+06  -4.357994e+05
  -2.665239e+05  -1.397085e+06
   7.512880e+05  -1.358148e+06
   1.038140e+06  -5.199665e+05
   6.522533e+05   2.421109e+05
   1.231812e+05   3.539045e+05
  -8.796961e+04   5.139127e+04
   7.452200e+04  -3.207372e+04
   3.089618e+05   3.582041e+05
   2.550070e+05   8.007308e+05
  -1.797502e+05   6.681575e+05
  -6.779094e+05  -1.321254e+05
  -7.222147e+05  -9.526276e+05
  -9.704443e+04  -1.017866e+06
   7.553290e+05  -2.294207e+05
   1.021162e+06   7.265589e+05
   3.373965e+05   1.076879e+06
  -7.065284e+05   6.604943e+05
  -1.099619e+06  -7.490239e+04
  -5.190919e+05  -5.922726e+05
   2.801608e+05  -6.564774e+05
   3.596252e+05  -3.624439e+05
  -2.612999e+05  -1.519482e+04
  -6.480432e+05   3.820247e+04
  -1.412273e+05  -3.015312e+05
   8.159716e+05  -6.779749e+05
   1.233625e+06  -5.527001e+05
   7.415321e+05   1.594820e+05
  -9.301120e+04   8.556432e+05
  -5.301071e+05   8.453984e+05
  -4.053225e+05   1.521484e+05
  -4.670444e+04  -4.805526e+05
   2.377563e+05  -4.242568e+05
   3.496140e+05   1.578072e+05
   2.521246e+05   5.716434e+05
  -5.308098e+04   4.113821e+05
  -3.866242e+05  -4.821362e+04
  -4.686897e+05  -2.664619e+05
  -2.414098e+05  -8.629437e+04
   2.875372e+04   1.377522e+05
   8.369058e+04   2.130373e+04
   5.305168e+03  -3.571259e+05
   7.118378e+04  -5.292181e+05
   3.212802e+05  -1.940964e+05
   4.378270e+05   3.874867e+05
   1.357865e+05   6.415055e+05
  -4.091747e+05   3.070125e+05
  -6.509522e+05  -2.815691e+05
  -2.474602e+05  -5.718770e+05
   4.976060e+05  -3.631866e+05
   8.674697e+05   7.558386e+04
   4.729921e+05   3.719700e+05
  -2.882715e+05   3.890201e+05
  -6.279065e+05   2.185814e+05
  -2.387262e+05   1.864378e+04
   3.546662e+05  -5.873719e+04
   4.081255e+05   7.448300e+04
  -1.762654e+05   2.962735e+05
  -7.524882e+05   2.709842e+05
