
 $NMID
 id='ANONYMOUS ', fmtdat='(2E16.6)'
 volume=1.0
 tramp=1.0
 $END
   4.208628e+07   1.134332e+06
   2.482353e+07   2.514055e+07
  -5.233226e+06   2.754803e+07
  -1.994140e+07   1.173648e+07
  -1.236900e+07  -3.825703e+06
   1.906654e+06  -6.861822e+06
   7.352966e+06  -5.130634e+04
   2.867248e+06   6.991682e+06
  -3.936461e+06   7.796282e+06
  -7.202028e+06   2.192809e+06
  -5.525479e+06  -4.911327e+06
  -6.083823e+05  -7.024441e+06
   3.365739e+06  -1.972719e+06
   2.407015e+06   4.845887e+06
  -2.614956e+06   5.696668e+06
  -6.013929e+06  -6.540337e+05
  -3.602878e+06  -7.727460e+06
   2.732680e+06  -9.031383e+06
   7.722038e+06  -4.338797e+06
   8.089585e+06   1.971574e+06
   4.450373e+06   5.900889e+06
  -6.377472e+04   6.124754e+06
  -1.997682e+06   3.843214e+06
  -3.366047e+05   1.901749e+06
   1.798950e+06   2.425232e+06
   1.071983e+05   4.169975e+06
  -5.129876e+06   3.697428e+06
  -8.383889e+06   1.150763e+04
  -5.597660e+06  -3.738559e+06
   4.758773e+05  -4.220742e+06
   3.789965e+06  -1.800982e+06
   2.223214e+06   7.450052e+05
  -1.164965e+06   1.591288e+06
  -2.875044e+06   5.154691e+05
  -2.183314e+06  -1.899429e+06
  -1.482883e+05  -3.848548e+06
   1.822576e+06  -2.883574e+06
   2.239048e+06   7.641281e+05
   6.947158e+05   3.001688e+06
  -8.590501e+05   8.365950e+05
  -9.095951e+04  -2.712024e+06
   2.068411e+06  -2.171935e+06
   2.014152e+06   2.321918e+06
  -1.436880e+06   4.536624e+06
  -4.686095e+06   7.020824e+05
  -3.600479e+06  -5.086837e+06
   1.334764e+06  -6.225911e+06
   5.653043e+06  -1.767262e+06
   5.760395e+06   3.390490e+06
   1.917991e+06   4.838592e+06
  -2.686521e+06   2.526819e+06
  -4.549679e+06  -8.249230e+05
  -2.359278e+06  -2.625854e+06
   1.683154e+06  -1.825436e+06
   3.551875e+06   5.494017e+05
   1.629757e+06   2.005869e+06
  -1.306708e+06   1.086967e+06
  -1.577614e+06  -7.419608e+05
   6.500947e+05  -9.159933e+05
   1.838360e+06   7.909661e+05
  -2.453328e+04   2.115858e+06
  -2.983832e+06   1.422806e+06
  -3.890308e+06  -6.777068e+05
  -1.877965e+06  -2.838285e+06
   1.556195e+06  -4.242439e+06
   4.415636e+06  -3.989028e+06
   5.241687e+06  -1.253088e+06
   3.582213e+06   2.841692e+06
   6.430501e+05   5.180679e+06
  -1.283847e+06   4.028178e+06
  -1.120040e+06   1.365393e+06
  -2.364071e+05   3.360862e+05
  -5.548242e+05   1.183671e+06
  -1.996045e+06   1.444211e+06
  -2.776112e+06  -2.180162e+05
  -1.802142e+06  -2.199111e+06
   2.195826e+05  -2.256708e+06
   1.781868e+06  -2.324958e+05
   1.769571e+06   2.064780e+06
  -3.248799e+04   2.775195e+06
  -2.567054e+06   1.343557e+06
  -3.789983e+06  -1.264119e+06
  -2.467734e+06  -3.224385e+06
   2.005382e+05  -3.295853e+06
   1.784791e+06  -1.987135e+06
   1.606184e+06  -8.953542e+05
   1.389783e+06  -7.431593e+05
   2.529017e+06  -6.497214e+05
   3.880015e+06   4.528474e+05
   3.227811e+06   2.336005e+06
   2.714755e+05   3.753602e+06
  -2.865910e+06   3.671069e+06
  -3.900821e+06   1.953491e+06
  -2.467245e+06  -5.340178e+05
  -1.138184e+05  -2.180506e+06
   1.166280e+06  -1.756131e+06
   5.300745e+05   1.081023e+05
  -1.042712e+06   1.226222e+06
  -1.712520e+06   3.767299e+05
  -7.717739e+05  -1.087738e+06
   5.291652e+05  -1.077490e+06
   5.453406e+05   2.891248e+05
  -6.978724e+05   8.317115e+05
  -1.613824e+06  -6.501381e+05
  -1.011985e+06  -2.740741e+06
   7.565144e+05  -3.222527e+06
   2.498079e+06  -1.580648e+06
   3.230124e+06   8.402259e+05
   2.513061e+06   2.441007e+06
   6.417185e+05   2.522598e+06
  -1.155625e+06   1.423351e+06
  -1.508373e+06   2.173058e+05
  -4.566340e+05  -3.224481e+04
   3.634813e+05   6.810270e+05
  -3.051413e+05   1.194014e+06
  -1.656330e+06   5.638434e+05
  -1.846606e+06  -6.874578e+05
  -4.310718e+05  -1.230261e+06
   1.041954e+06  -6.022299e+05
   9.262787e+05   3.574819e+05
  -6.635730e+05   6.269863e+05
  -2.084444e+06  -2.734493e+04
  -1.853265e+06  -1.132087e+06
   2.558919e+04  -1.933757e+06
   2.073789e+06  -1.716474e+06
   2.575232e+06  -3.760087e+05
   1.143036e+06   1.099580e+06
  -7.987521e+05   1.340967e+06
  -1.366162e+06   1.764152e+05
  -1.619296e+05  -9.706906e+05
   1.373921e+06  -7.131002e+05
   1.617748e+06   6.288570e+05
   4.392692e+05   1.495905e+06
  -9.006420e+05   1.005633e+06
  -1.181514e+06  -1.483302e+05
  -3.216797e+05  -6.755652e+05
   6.879121e+05  -9.341132e+04
   7.034935e+05   9.361633e+05
  -5.005506e+05   1.331445e+06
  -1.853128e+06   5.474986e+05
  -1.909018e+06  -9.238014e+05
  -4.163146e+05  -1.898742e+06
   1.257197e+06  -1.557594e+06
   1.576955e+06  -2.693418e+05
   5.211314e+05   7.747652e+05
  -5.676451e+05   7.907692e+05
  -6.428074e+05   1.005935e+05
   2.553137e+04  -4.153978e+05
   4.851956e+05  -3.235457e+05
   2.597645e+05   3.208859e+04
  -3.055273e+05   3.801029e+04
  -5.079925e+05  -4.932597e+05
   8.775507e+04  -1.062646e+06
   1.214014e+06  -8.844188e+05
   1.934402e+06   2.991759e+05
   1.414245e+06   1.746418e+06
  -1.213080e+05   2.270561e+06
  -1.450467e+06   1.425787e+06
  -1.620335e+06  -1.525931e+03
  -9.281372e+05  -8.393284e+05
  -3.775029e+05  -7.282943e+05
  -3.963058e+05  -2.936497e+05
  -4.909917e+05  -2.567885e+05
  -7.912250e+04  -6.424390e+05
   7.439671e+05  -8.642972e+05
   1.324471e+06  -4.015621e+05
   1.059408e+06   6.247605e+05
  -1.169533e+05   1.416269e+06
  -1.546730e+06   1.107466e+06
  -2.125327e+06  -3.463824e+05
  -1.165424e+06  -1.883473e+06
   7.887673e+05  -2.208512e+06
   2.262228e+06  -1.079147e+06
   2.221698e+06   4.521775e+05
   1.035550e+06   1.183078e+06
  -8.019456e+04   9.596400e+05
  -3.851430e+05   5.848828e+05
  -1.656761e+05   7.222029e+05
  -1.306391e+05   1.161663e+06
  -5.771953e+05   1.160005e+06
  -1.160396e+06   3.106796e+05
  -1.263363e+06  -9.728972e+05
  -5.712801e+05  -1.751228e+06
   5.426970e+05  -1.360914e+06
   1.201123e+06  -5.793006e+04
   8.101839e+05   1.126713e+06
  -2.631329e+05   1.290689e+06
  -9.860091e+05   4.654370e+05
  -7.425948e+05  -5.204014e+05
   2.256530e+04  -9.279888e+05
   3.795997e+05  -7.352681e+05
   2.135034e+04  -4.176791e+05
  -3.982415e+05  -3.204793e+05
  -5.783251e+04  -3.617381e+05
   1.022644e+06  -2.350105e+05
   1.874641e+06   2.318503e+05
   1.527725e+06   8.779699e+05
   5.918374e+04   1.280035e+06
  -1.378130e+06   1.078596e+06
  -1.661578e+06   3.517843e+05
  -7.950099e+05  -3.544235e+05
   2.028806e+05  -4.947789e+05
   4.460156e+05  -7.273064e+04
   6.392138e+03   3.486584e+05
  -4.307178e+05   2.421178e+05
  -4.472398e+05  -3.078178e+05
  -2.054001e+05  -6.909337e+05
  -5.378221e+04  -4.580905e+05
  -1.202745e+05   1.290045e+05
  -2.769216e+05   3.375862e+05
  -2.699406e+05  -1.924667e+05
   1.190760e+05  -9.402628e+05
   7.956243e+05  -1.009014e+06
   1.202746e+06  -1.603145e+05
   7.598117e+05   8.369546e+05
  -3.597976e+05   1.022335e+06
  -1.133583e+06   2.938752e+05
  -6.949774e+05  -5.288160e+05
   6.169766e+05  -6.313089e+05
   1.495776e+06   5.682178e+03
   1.027689e+06   7.403732e+05
  -3.580985e+05   9.648468e+05
  -1.375543e+06   5.691905e+05
  -1.191640e+06  -8.802600e+04
  -1.714176e+05  -4.805805e+05
   5.853337e+05  -2.963041e+05
   3.494453e+05   2.492580e+05
  -5.569102e+05   4.888307e+05
  -1.111109e+06  -7.412074e+04
  -6.248684e+05  -1.110546e+06
   5.538263e+05  -1.602559e+06
   1.391685e+06  -8.463520e+05
   1.199423e+06   6.886470e+05
   2.411331e+05   1.682669e+06
  -6.465490e+05   1.260430e+06
  -8.731237e+05  -1.030910e+05
  -4.733142e+05  -1.089698e+06
   1.275526e+05  -9.280948e+05
   5.069618e+05  -1.126061e+05
   4.800580e+05   3.369545e+05
   1.930572e+05   1.255413e+05
   2.879484e+04  -9.790935e+04
   2.220500e+05   2.571130e+05
   4.904243e+05   8.846931e+05
   2.533323e+05   1.003481e+06
  -6.127359e+05   3.897622e+05
  -1.404451e+06  -3.882060e+05
  -1.261769e+06  -7.339511e+05
  -1.981568e+05  -6.392763e+05
   8.169148e+05  -4.242442e+05
   9.245164e+05  -2.171034e+05
   3.096663e+05   2.686780e+04
  -1.425915e+05   2.163712e+05
   1.108595e+04   2.008745e+05
   2.932092e+05   8.827911e+04
   3.968339e+04   1.282633e+05
  -6.540652e+05   2.395906e+05
  -9.803765e+05   1.090245e+04
  -3.741633e+05  -6.440061e+05
   7.921300e+05  -1.118884e+06
   1.554059e+06  -7.292020e+05
   1.298644e+06   3.927990e+05
   2.892124e+05   1.319129e+06
  -6.698320e+05   1.298749e+06
  -9.719929e+05   5.146620e+05
  -6.321813e+05  -2.131999e+05
  -1.233227e+05  -3.349276e+05
   9.773376e+04  -5.387716e+04
  -5.801313e+04   3.733217e+04
  -3.057744e+05  -3.204353e+05
  -2.711287e+05  -7.462797e+05
   1.550378e+05  -6.390208e+05
   6.563839e+05   1.103754e+05
   7.119045e+05   8.959110e+05
   1.060766e+05   9.717813e+05
  -7.262118e+05   2.330546e+05
  -9.920193e+05  -6.733709e+05
  -3.408917e+05  -1.015236e+06
   6.588151e+05  -6.373881e+05
   1.039129e+06   4.744062e+04
   4.952783e+05   5.422513e+05
  -2.530624e+05   6.181004e+05
  -3.220064e+05   3.443048e+05
   2.606957e+05   3.473496e+03
   6.152433e+05  -5.525265e+04
   1.362918e+05   2.818025e+05
  -7.519339e+05   6.659012e+05
  -1.136125e+06   5.579654e+05
  -6.883073e+05  -1.311320e+05
   6.913551e+04  -8.090807e+05
   4.724043e+05  -8.022270e+05
   3.745775e+05  -1.383782e+05
   5.527708e+04   4.621967e+05
  -2.196741e+05   4.034601e+05
  -3.432993e+05  -1.486415e+05
  -2.531741e+05  -5.353419e+05
   4.876815e+04  -3.840769e+05
   3.706459e+05   3.962835e+04
   4.421127e+05   2.356709e+05
   2.253723e+05   6.930186e+04
  -2.023426e+04  -1.262248e+05
  -6.652072e+04  -2.452651e+03
  -3.268821e+03   3.558123e+05
  -8.096082e+04   5.083423e+05
  -3.198930e+05   1.797439e+05
  -4.217228e+05  -3.772978e+05
  -1.301033e+05  -6.192230e+05
   3.875140e+05  -3.009673e+05
   6.224489e+05   2.601769e+05
   2.484636e+05   5.420575e+05
  -4.588166e+05   3.535277e+05
  -8.210542e+05  -5.665492e+04
  -4.554099e+05  -3.418955e+05
   2.687584e+05  -3.691604e+05
   5.940348e+05  -2.125962e+05
   2.190650e+05  -1.526438e+04
  -3.524762e+05   6.682424e+04
  -4.025007e+05  -6.735144e+04
   1.623827e+05  -2.999013e+05
   7.203405e+05  -2.888251e+05
