
 $NMID
 id='ANONYMOUS ', fmtdat='(2E16.6)'
 volume=1.0
 tramp=1.0
 $END
  -3.255008e+07   3.902955e+05
  -2.057117e+07  -1.831799e+07
   2.604803e+06  -2.163919e+07
   1.524221e+07  -1.042191e+07
   1.037908e+07   2.128919e+06
  -9.489277e+05   5.592253e+06
  -6.017075e+06   5.982127e+05
  -2.826100e+06  -5.497052e+06
   2.831601e+06  -6.668534e+06
   5.758082e+06  -2.197522e+06
   4.520935e+06   3.756242e+06
   6.045124e+05   5.612903e+06
  -2.579903e+06   1.568180e+06
  -1.903972e+06  -3.987594e+06
   2.045706e+06  -4.803288e+06
   4.886556e+06   2.423368e+05
   3.157860e+06   6.057015e+06
  -1.866223e+06   7.310792e+06
  -5.947916e+06   3.650248e+06
  -6.309349e+06  -1.350188e+06
  -3.504128e+06  -4.372173e+06
  -1.695636e+05  -4.525874e+06
   1.119907e+06  -3.002682e+06
  -1.141273e+05  -1.886422e+06
  -1.436462e+06  -2.409489e+06
   1.719283e+05  -3.485666e+06
   4.285248e+06  -2.779162e+06
   6.693695e+06   1.680680e+05
   4.370605e+06   2.945747e+06
  -4.849716e+05   3.151215e+06
  -3.043778e+06   1.164059e+06
  -1.566314e+06  -7.941341e+05
   1.337068e+06  -1.244374e+06
   2.579403e+06  -1.336966e+05
   1.657407e+06   1.815260e+06
  -1.179925e+05   3.137137e+06
  -1.436064e+06   2.198913e+06
  -1.518812e+06  -5.929877e+05
  -4.302102e+05  -2.172978e+06
   4.931220e+05  -4.349306e+05
  -1.812916e+05   2.276654e+06
  -1.765519e+06   1.811785e+06
  -1.745355e+06  -1.774021e+06
   8.358857e+05  -3.703929e+06
   3.481539e+06  -8.805830e+05
   2.958073e+06   3.732629e+06
  -7.582965e+05   4.894849e+06
  -4.367109e+06   1.527644e+06
  -4.734077e+06  -2.662243e+06
  -1.695342e+06  -3.987284e+06
   2.188156e+06  -2.174745e+06
   3.849475e+06   5.995947e+05
   2.107484e+06   2.145730e+06
  -1.229621e+06   1.581575e+06
  -2.870214e+06  -2.912789e+05
  -1.429648e+06  -1.527503e+06
   9.761070e+05  -9.009030e+05
   1.342856e+06   5.906465e+05
  -4.411871e+05   9.045585e+05
  -1.630912e+06  -3.949585e+05
  -3.378927e+05  -1.661827e+06
   2.153329e+06  -1.377177e+06
   3.174985e+06   2.721800e+05
   1.663614e+06   2.173668e+06
  -1.236428e+06   3.403221e+06
  -3.634591e+06   3.160639e+06
  -4.211674e+06   9.479354e+05
  -2.790679e+06  -2.275587e+06
  -4.958265e+05  -4.161002e+06
   9.736900e+05  -3.374156e+06
   9.364648e+05  -1.325901e+06
   4.111281e+05  -3.875026e+05
   7.203662e+05  -8.513896e+05
   1.748638e+06  -9.259460e+05
   2.193895e+06   4.138233e+05
   1.291453e+06   1.928732e+06
  -3.615612e+05   1.837753e+06
  -1.547397e+06   5.674870e+04
  -1.406115e+06  -1.837642e+06
   1.210312e+05  -2.294188e+06
   2.108063e+06  -1.003451e+06
   2.996243e+06   1.091012e+06
   1.933603e+06   2.558364e+06
  -1.189510e+05   2.571483e+06
  -1.336281e+06   1.593866e+06
  -1.238069e+06   8.015473e+05
  -1.155657e+06   6.849082e+05
  -2.143182e+06   5.527573e+05
  -3.255349e+06  -4.109516e+05
  -2.678684e+06  -1.997522e+06
  -1.610207e+05  -3.152789e+06
   2.490835e+06  -3.000671e+06
   3.300768e+06  -1.496996e+06
   1.987433e+06   5.360330e+05
  -2.655409e+04   1.786369e+06
  -1.023394e+06   1.379495e+06
  -4.068537e+05  -1.065074e+05
   9.003973e+05  -9.703194e+05
   1.404288e+06  -2.880318e+05
   6.018456e+05   8.790749e+05
  -4.694729e+05   8.680537e+05
  -4.766598e+05  -2.718506e+05
   5.915156e+05  -7.737498e+05
   1.438156e+06   4.548503e+05
   9.802122e+05   2.324139e+06
  -5.875926e+05   2.870901e+06
  -2.195008e+06   1.470695e+06
  -2.846589e+06  -7.364117e+05
  -2.142878e+06  -2.193422e+06
  -4.759427e+05  -2.200868e+06
   1.024364e+06  -1.165693e+06
   1.271688e+06  -1.326330e+05
   3.843783e+05   3.364550e+04
  -2.887401e+05  -5.755099e+05
   2.547258e+05  -9.834987e+05
   1.362731e+06  -4.559856e+05
   1.531675e+06   5.703380e+05
   3.645058e+05   1.015845e+06
  -8.755988e+05   4.848899e+05
  -7.778077e+05  -3.352278e+05
   5.959327e+05  -5.511041e+05
   1.819223e+06   6.071199e+04
   1.583777e+06   1.041527e+06
  -7.042493e+04   1.683065e+06
  -1.809167e+06   1.419897e+06
  -2.182307e+06   2.683610e+05
  -9.459611e+05  -9.239557e+05
   6.635593e+05  -1.091684e+06
   1.112988e+06  -1.397780e+05
   1.124987e+05   7.838373e+05
  -1.152434e+06   5.641385e+05
  -1.351413e+06  -5.478430e+05
  -3.638168e+05  -1.273208e+06
   7.690077e+05  -8.596484e+05
   1.009047e+06   1.231418e+05
   2.795393e+05   5.699724e+05
  -5.649615e+05   6.595664e+04
  -5.556033e+05  -7.983503e+05
   4.627885e+05  -1.093381e+06
   1.566438e+06  -4.011309e+05
   1.572601e+06   8.208116e+05
   3.112023e+05   1.596988e+06
  -1.075344e+06   1.287828e+06
  -1.328914e+06   2.120145e+05
  -4.354207e+05  -6.531869e+05
   4.862471e+05  -6.548572e+05
   5.433518e+05  -5.945044e+04
  -4.789004e+04   3.724641e+05
  -4.557865e+05   2.589143e+05
  -2.434523e+05  -7.735515e+04
   2.759348e+05  -7.236484e+04
   4.548175e+05   4.172163e+05
  -7.807835e+04   9.101318e+05
  -1.044152e+06   7.290298e+05
  -1.625556e+06  -2.939837e+05
  -1.150664e+06  -1.500024e+06
   1.550282e+05  -1.912789e+06
   1.265893e+06  -1.183726e+06
   1.392458e+06   3.447893e+04
   7.811708e+05   7.607698e+05
   2.840936e+05   6.659575e+05
   2.913175e+05   2.651246e+05
   3.937773e+05   2.033457e+05
   6.245410e+04   5.322987e+05
  -6.476590e+05   7.292574e+05
  -1.151369e+06   3.170234e+05
  -8.995173e+05  -5.776840e+05
   1.390064e+05  -1.228001e+06
   1.350499e+06  -9.111581e+05
   1.797130e+06   3.464441e+05
   9.509383e+05   1.619579e+06
  -6.974089e+05   1.852973e+06
  -1.925203e+06   8.804035e+05
  -1.884016e+06  -4.168937e+05
  -8.732293e+05  -1.038450e+06
   9.322166e+04  -8.408193e+05
   3.718825e+05  -4.921707e+05
   1.832064e+05  -5.773018e+05
   1.341336e+05  -9.444482e+05
   4.939999e+05  -9.538757e+05
   9.699679e+05  -2.385431e+05
   1.034592e+06   8.456319e+05
   4.367061e+05   1.485146e+06
  -4.899812e+05   1.129159e+06
  -1.015134e+06   2.236300e+04
  -6.667421e+05  -9.625808e+05
   2.359474e+05  -1.089904e+06
   8.377570e+05  -3.980532e+05
   6.319099e+05   4.294181e+05
  -1.203503e+04   7.813036e+05
  -3.179578e+05   6.300612e+05
  -2.469708e+04   3.661452e+05
   3.230606e+05   2.820016e+05
   3.705252e+04   3.089360e+05
  -8.647326e+05   1.844513e+05
  -1.570384e+06  -2.273028e+05
  -1.272114e+06  -7.685049e+05
  -3.897616e+04  -1.078793e+06
   1.166924e+06  -8.831528e+05
   1.407564e+06  -2.727269e+05
   6.788446e+05   3.023048e+05
  -1.689597e+05   4.103108e+05
  -3.795984e+05   6.225330e+04
  -2.614663e+03  -2.822090e+05
   3.712731e+05  -1.907248e+05
   3.699618e+05   2.670166e+05
   1.440782e+05   5.815857e+05
   2.322355e+04   3.784468e+05
   1.144695e+05  -1.150514e+05
   2.628113e+05  -2.796162e+05
   2.281664e+05   1.747461e+05
  -1.348253e+05   7.937815e+05
  -6.965402e+05   8.293528e+05
  -9.987370e+05   1.067851e+05
  -6.053164e+05  -7.140608e+05
   3.191062e+05  -8.418074e+05
   9.453139e+05  -2.163710e+05
   5.694851e+05   4.641554e+05
  -5.329920e+05   5.245487e+05
  -1.273554e+06  -3.499573e+04
  -8.707681e+05  -6.586503e+05
   3.199957e+05  -8.278829e+05
   1.191868e+06  -4.641528e+05
   1.022308e+06   1.023316e+05
   1.373765e+05   4.174480e+05
  -5.029341e+05   2.422941e+05
  -2.859230e+05  -2.112993e+05
   4.828824e+05  -3.864936e+05
   9.251346e+05   9.857202e+04
   4.842080e+05   9.464949e+05
  -5.139935e+05   1.321851e+06
  -1.192362e+06   6.674927e+05
  -9.909403e+05  -6.126676e+05
  -1.596602e+05  -1.426545e+06
   5.814423e+05  -1.054398e+06
   7.429274e+05   1.028310e+05
   3.808357e+05   9.369689e+05
  -1.264587e+05   7.932004e+05
  -4.315649e+05   8.768986e+04
  -4.018528e+05  -3.047965e+05
  -1.646181e+05  -1.199969e+05
  -2.482060e+04   8.686049e+04
  -1.731356e+05  -2.073478e+05
  -3.889620e+05  -7.515857e+05
  -1.975870e+05  -8.613716e+05
   5.160408e+05  -3.244278e+05
   1.176509e+06   3.630818e+05
   1.056174e+06   6.576625e+05
   1.543802e+05   5.440147e+05
  -7.072531e+05   3.309191e+05
  -7.911858e+05   1.609728e+05
  -2.580504e+05  -1.993360e+04
   1.271214e+05  -1.753983e+05
  -1.109218e+04  -1.829037e+05
  -2.505156e+05  -9.703302e+04
  -2.426464e+04  -1.073340e+05
   5.660105e+05  -1.719703e+05
   8.220505e+05   1.868285e+04
   2.846716e+05   5.382047e+05
  -7.001255e+05   9.078851e+05
  -1.314119e+06   5.727030e+05
  -1.066734e+06  -3.594421e+05
  -2.045980e+05  -1.117343e+06
   5.927852e+05  -1.075774e+06
   8.270454e+05  -4.008824e+05
   5.235028e+05   2.040402e+05
   8.972336e+04   2.819273e+05
  -8.820611e+04   2.931589e+04
   5.230312e+04  -3.951397e+04
   2.560861e+05   2.788774e+05
   2.120962e+05   6.382267e+05
  -1.476850e+05   5.287726e+05
  -5.451582e+05  -1.191423e+05
  -5.636777e+05  -7.738582e+05
  -5.413556e+04  -8.099242e+05
   6.150181e+05  -1.631348e+05
   8.071939e+05   5.982652e+05
   2.548469e+05   8.577122e+05
  -5.670926e+05   5.111136e+05
  -8.665629e+05  -6.636427e+04
  -4.019062e+05  -4.589507e+05
   2.224642e+05  -5.051177e+05
   2.707338e+05  -2.844303e+05
  -2.259345e+05  -1.912044e+04
  -5.210727e+05   2.718875e+04
  -1.059603e+05  -2.369380e+05
   6.508581e+05  -5.421878e+05
   9.680749e+05  -4.527261e+05
   5.726215e+05   1.140660e+05
  -7.680813e+04   6.747514e+05
  -4.077167e+05   6.655048e+05
  -3.054049e+05   1.074568e+05
  -2.726047e+04  -3.905345e+05
   1.934639e+05  -3.280540e+05
   2.796676e+05   1.421548e+05
   1.976562e+05   4.565002e+05
  -4.750326e+04   3.131088e+05
  -3.075522e+05  -4.610628e+04
  -3.672755e+05  -2.019184e+05
  -1.917983e+05  -5.902737e+04
   1.437271e+04   9.736900e+04
   6.582984e+04  -9.126455e+03
   2.700873e+04  -2.955592e+05
   8.992215e+04  -4.045413e+05
   2.672682e+05  -1.247072e+05
   3.270728e+05   3.293752e+05
   7.831752e+04   5.146033e+05
  -3.349862e+05   2.360252e+05
  -5.075174e+05  -2.365351e+05
  -1.880067e+05  -4.628280e+05
   3.922294e+05  -2.860122e+05
   6.815996e+05   6.934327e+04
   3.713878e+05   2.978504e+05
  -2.308468e+05   2.972276e+05
  -4.968510e+05   1.576913e+05
  -1.774212e+05   1.127281e+04
   3.012688e+05  -3.332761e+04
   3.326833e+05   7.852377e+04
  -1.556573e+05   2.471600e+05
  -6.245472e+05   2.142398e+05
