
 $NMID
 id='ANONYMOUS ', fmtdat='(2E16.6)'
 volume=1.0
 tramp=1.0
 $END
   2.309693e+07   2.392233e+05
   1.517228e+07   1.085577e+07
  -1.580018e+05   1.444793e+07
  -9.844863e+06   9.642303e+06
  -8.239455e+06   1.084123e+06
  -5.588981e+05  -4.079303e+06
   4.594462e+06  -2.174321e+06
   3.581263e+06   3.602253e+06
  -9.491338e+05   6.390013e+06
  -4.272145e+06   2.917196e+06
  -3.806424e+06  -3.008343e+06
  -5.209282e+05  -4.927747e+06
   2.297052e+06  -1.030421e+06
   1.910056e+06   4.088414e+06
  -1.267591e+06   4.823350e+06
  -3.874271e+06   4.940635e+05
  -2.930524e+06  -4.546999e+06
   1.020473e+06  -5.796886e+06
   4.460752e+06  -2.752110e+06
   4.546219e+06   1.404790e+06
   1.867555e+06   3.341304e+06
  -4.540234e+05   2.560814e+06
  -1.542223e+05   1.268184e+06
   1.813517e+06   1.625703e+06
   2.301964e+06   3.335177e+06
  -5.351566e+05   4.100622e+06
  -4.814819e+06   2.368406e+06
  -6.459659e+06  -8.459733e+05
  -3.529217e+06  -3.029706e+06
   1.357485e+06  -2.660443e+06
   3.581186e+06  -3.868008e+05
   1.417621e+06   1.781897e+06
  -2.329411e+06   2.026974e+06
  -3.709653e+06  -1.193326e+04
  -1.835469e+06  -2.727554e+06
   8.203136e+05  -3.566653e+06
   1.678173e+06  -1.525668e+06
   6.258259e+05   1.316615e+06
  -5.824626e+05   1.756793e+06
  -5.421284e+05  -6.923363e+05
   6.254660e+05  -2.926848e+06
   1.740488e+06  -1.983966e+06
   1.647449e+06   1.164882e+06
   1.296417e+05   2.749338e+06
  -1.680610e+06   8.505068e+05
  -1.935516e+06  -2.365065e+06
   2.033468e+05  -3.356191e+06
   3.248088e+06  -1.143178e+06
   4.340327e+06   2.069584e+06
   2.069250e+06   3.520914e+06
  -1.794248e+06   2.384611e+06
  -3.850292e+06  -1.528801e+04
  -2.467701e+06  -1.670921e+06
   6.433486e+05  -1.505351e+06
   2.362278e+06  -8.298333e+04
   1.390229e+06   1.024078e+06
  -6.893884e+05   7.618719e+05
  -1.422763e+06  -4.098268e+05
  -1.803796e+05  -1.119075e+06
   1.335848e+06  -5.910117e+05
   1.134602e+06   6.100522e+05
  -7.783448e+05   1.225995e+06
  -2.324798e+06   4.591635e+05
  -1.559219e+06  -1.367109e+06
   1.214698e+06  -2.929767e+06
   3.702519e+06  -2.766504e+06
   3.950765e+06  -5.432189e+05
   2.183050e+06   2.343057e+06
   2.307393e+05   3.841506e+06
  -5.587507e+05   3.238424e+06
  -4.847178e+05   1.791467e+06
  -6.705655e+05   1.086178e+06
  -1.562208e+06   1.117625e+06
  -2.487367e+06   5.756342e+05
  -2.459026e+06  -1.082194e+06
  -1.150839e+06  -2.577818e+06
   7.764005e+05  -2.219528e+06
   2.055044e+06   2.417498e+03
   1.666773e+06   2.209245e+06
  -2.513654e+05   2.507852e+06
  -2.261129e+06   7.841811e+05
  -2.744693e+06  -1.398204e+06
  -1.442229e+06  -2.425975e+06
   2.964352e+05  -2.013518e+06
   1.023933e+06  -1.114347e+06
   7.982835e+05  -7.237363e+05
   9.285163e+05  -8.835077e+05
   2.128307e+06  -7.937406e+05
   3.354945e+06   2.324199e+05
   2.850911e+06   1.966439e+06
   2.586043e+05   3.327594e+06
  -2.659335e+06   3.218886e+06
  -3.622944e+06   1.478133e+06
  -2.084595e+06  -8.034812e+05
   2.752620e+05  -2.008160e+06
   1.293901e+06  -1.374350e+06
   4.145263e+05   2.060597e+05
  -1.029827e+06   1.005781e+06
  -1.427273e+06   2.839227e+05
  -5.185610e+05  -8.940731e+05
   5.769809e+05  -9.467386e+05
   6.727547e+05   2.394686e+05
  -3.396688e+05   1.067125e+06
  -1.480690e+06   1.282642e+05
  -1.557906e+06  -2.004679e+06
  -1.400049e+05  -3.256518e+06
   1.999536e+06  -2.244208e+06
   3.324327e+06   3.016925e+05
   2.746335e+06   2.345272e+06
   6.910879e+05   2.538057e+06
  -1.153035e+06   1.299055e+06
  -1.420010e+06   1.075593e+05
  -4.130733e+05  -3.087565e+04
   3.258676e+05   6.045485e+05
  -1.973430e+05   9.837839e+05
  -1.322963e+06   4.926847e+05
  -1.577920e+06  -4.711604e+05
  -4.616315e+05  -9.840619e+05
   8.926803e+05  -5.715774e+05
   9.378153e+05   3.212798e+05
  -5.399212e+05   7.608554e+05
  -2.071028e+06   1.879563e+05
  -1.970841e+06  -1.056350e+06
  -1.026460e+05  -1.964430e+06
   1.926194e+06  -1.696563e+06
   2.359871e+06  -3.747189e+05
   1.012879e+06   9.140719e+05
  -6.544998e+05   1.081373e+06
  -1.078156e+06   1.356793e+05
  -6.834104e+04  -7.816718e+05
   1.201668e+06  -6.013819e+05
   1.463696e+06   5.039244e+05
   5.174960e+05   1.335178e+06
  -7.112949e+05   1.034961e+06
  -1.105051e+06   1.985450e+04
  -4.034247e+05  -5.552388e+05
   5.403280e+05  -9.882954e+04
   5.828753e+05   8.277820e+05
  -5.032307e+05   1.162652e+06
  -1.682740e+06   4.217100e+05
  -1.680222e+06  -8.707568e+05
  -3.602586e+05  -1.686366e+06
   1.086446e+06  -1.394325e+06
   1.398348e+06  -2.928842e+05
   5.208575e+05   6.651630e+05
  -4.822914e+05   7.387065e+05
  -6.436015e+05   7.354901e+04
  -1.767031e+04  -5.058328e+05
   5.613123e+05  -4.086091e+05
   4.428594e+05   9.202988e+04
  -1.896731e+05   2.293208e+05
  -5.396908e+05  -3.080005e+05
  -2.376629e+04  -9.482723e+05
   1.068428e+06  -8.265229e+05
   1.747485e+06   2.638603e+05
   1.258239e+06   1.579577e+06
  -1.289911e+05   2.082947e+06
  -1.345928e+06   1.381172e+06
  -1.576111e+06   6.112564e+04
  -9.859121e+05  -8.685284e+05
  -3.733340e+05  -8.941455e+05
  -2.308238e+05  -4.025715e+05
  -3.070654e+05  -1.762654e+05
  -5.549175e+04  -4.945773e+05
   6.400789e+05  -8.164168e+05
   1.249293e+06  -4.327933e+05
   1.070135e+06   6.155424e+05
  -5.690043e+04   1.419231e+06
  -1.439391e+06   1.083550e+06
  -1.982379e+06  -3.110142e+05
  -1.115848e+06  -1.700331e+06
   6.219440e+05  -1.996544e+06
   1.981398e+06  -1.048676e+06
   2.076561e+06   3.072930e+05
   1.100030e+06   1.085168e+06
   1.307827e+03   1.019642e+06
  -4.648457e+05   6.533341e+05
  -3.388782e+05   6.244457e+05
  -2.089606e+05   9.323551e+05
  -4.938652e+05   9.641859e+05
  -9.943196e+05   2.481312e+05
  -1.108764e+06  -9.040992e+05
  -4.859654e+05  -1.600525e+06
   5.218140e+05  -1.227959e+06
   1.102996e+06  -6.369380e+04
   7.609130e+05   9.778093e+05
  -1.605545e+05   1.166176e+06
  -8.034739e+05   5.259806e+05
  -6.686215e+05  -3.171284e+05
  -8.919458e+04  -7.599932e+05
   2.119015e+05  -6.925871e+05
  -3.168104e+04  -4.391508e+05
  -3.331085e+05  -3.255297e+05
  -3.204970e+04  -3.438618e+05
   8.858744e+05  -2.274630e+05
   1.637165e+06   1.950130e+05
   1.381675e+06   7.637560e+05
   1.306155e+05   1.101714e+06
  -1.157753e+06   9.426745e+05
  -1.477436e+06   3.710066e+05
  -7.572406e+05  -2.141070e+05
   1.392213e+05  -3.968738e+05
   3.787131e+05  -1.120549e+05
  -2.664597e+04   2.475329e+05
  -4.297947e+05   1.960381e+05
  -3.912315e+05  -2.849444e+05
  -9.352372e+04  -6.509894e+05
   3.673794e+04  -4.179048e+05
  -1.257057e+05   1.766224e+05
  -3.296976e+05   3.729082e+05
  -2.628258e+05  -1.744873e+05
   1.655511e+05  -8.859427e+05
   7.348315e+05  -8.927477e+05
   9.943171e+05  -7.725263e+04
   5.795781e+05   7.700166e+05
  -3.363409e+05   8.453740e+05
  -9.727829e+05   1.739795e+05
  -6.119306e+05  -5.168919e+05
   5.469514e+05  -5.885133e+05
   1.405986e+06  -2.718474e+04
   1.048576e+06   6.702307e+05
  -2.552146e+05   9.561762e+05
  -1.293360e+06   6.277613e+05
  -1.170704e+06  -3.362623e+04
  -1.953221e+05  -4.642391e+05
   5.290831e+05  -3.056569e+05
   2.876832e+05   2.026975e+05
  -5.539960e+05   3.921816e+05
  -9.996300e+05  -1.496183e+05
  -4.714759e+05  -1.051842e+06
   6.218295e+05  -1.415173e+06
   1.326091e+06  -6.894358e+05
   1.080191e+06   6.822131e+05
   1.806465e+05   1.565993e+06
  -6.180390e+05   1.193120e+06
  -8.203389e+05  -5.507583e+04
  -4.752517e+05  -1.005102e+06
   6.276747e+04  -8.966755e+05
   4.484372e+05  -1.268135e+05
   4.878544e+05   3.341948e+05
   2.322876e+05   1.415541e+05
   5.698176e+03  -1.092949e+05
   1.168352e+05   1.936449e+05
   4.048896e+05   8.005578e+05
   2.877210e+05   9.433890e+05
  -4.875358e+05   3.666973e+05
  -1.296522e+06  -3.824993e+05
  -1.216389e+06  -6.997735e+05
  -1.811231e+05  -5.778353e+05
   8.173198e+05  -3.656603e+05
   8.776787e+05  -2.049490e+05
   2.366425e+05  -8.750256e+03
  -1.569458e+05   1.880726e+05
   7.540786e+04   2.249124e+05
   3.395409e+05   1.335823e+05
   2.811220e+03   1.222026e+05
  -6.845244e+05   1.708207e+05
  -8.872006e+05  -3.624320e+04
  -2.174904e+05  -5.795616e+05
   8.208943e+05  -9.550808e+05
   1.386345e+06  -5.767597e+05
   1.083759e+06   4.291867e+05
   2.007915e+05   1.226406e+06
  -6.256789e+05   1.148018e+06
  -8.992677e+05   3.942416e+05
  -5.809958e+05  -2.552868e+05
  -7.076344e+04  -3.069949e+05
   1.530613e+05   1.440708e+03
  -3.330212e+04   8.447840e+04
  -3.070649e+05  -2.811935e+05
  -2.572135e+05  -6.909333e+05
   1.736727e+05  -5.621634e+05
   6.077813e+05   1.706301e+05
   5.781188e+05   8.849225e+05
  -1.058675e+04   8.779388e+05
  -7.095806e+05   1.201396e+05
  -8.600707e+05  -7.073511e+05
  -2.354359e+05  -9.314453e+05
   6.296885e+05  -5.100686e+05
   9.123049e+05   9.297503e+04
   3.984792e+05   4.601859e+05
  -2.419915e+05   4.931201e+05
  -2.458939e+05   2.921256e+05
   3.010661e+05   3.836495e+04
   5.808713e+05  -2.091966e+04
   9.500103e+04   2.481828e+05
  -7.069876e+05   5.955635e+05
  -1.002192e+06   5.282354e+05
  -5.640406e+05  -8.565383e+04
   9.112874e+04  -7.111463e+05
   3.977278e+05  -6.960324e+05
   2.801675e+05  -7.251274e+04
   1.263432e+03   4.487881e+05
  -2.234508e+05   3.267387e+05
  -3.099110e+05  -2.036749e+05
  -2.055762e+05  -4.987698e+05
   6.916914e+04  -2.959662e+05
   3.332732e+05   7.290550e+04
   3.783678e+05   1.874914e+05
   2.052371e+05   3.402142e+04
   1.240527e+04  -6.907698e+04
  -6.477646e+04   8.948780e+04
  -9.653302e+04   3.576626e+05
  -2.005280e+05   3.919706e+05
  -3.286527e+05   4.647285e+04
  -2.923995e+05  -4.229027e+05
   4.554831e+03  -5.735318e+05
   3.919231e+05  -2.319491e+05
   5.191756e+05   2.949160e+05
   1.777602e+05   5.254516e+05
  -4.129719e+05   3.000263e+05
  -7.118748e+05  -1.035803e+05
  -3.868771e+05  -3.278251e+05
   2.552110e+05  -2.840970e+05
   5.304513e+05  -1.214706e+05
   1.541975e+05  -1.823602e+02
  -3.851718e+05  -1.636135e+03
  -3.865284e+05  -1.414774e+05
   2.128517e+05  -3.041900e+05
   7.532719e+05  -2.322965e+05
