
 $NMID
 id='ANONYMOUS ', fmtdat='(2E16.6)'
 volume=1.0
 tramp=1.0
 $END
   3.855864e+07  -1.807405e+06
   2.565571e+07   2.043718e+07
  -1.635556e+06   2.583474e+07
  -1.772090e+07   1.367244e+07
  -1.295348e+07  -1.617289e+06
   6.299029e+05  -6.871076e+06
   7.428070e+06  -1.313477e+06
   3.983445e+06   6.551333e+06
  -3.060622e+06   8.549619e+06
  -6.963522e+06   3.135083e+06
  -5.616135e+06  -4.415957e+06
  -8.558635e+05  -6.854646e+06
   3.085910e+06  -1.891408e+06
   2.389711e+06   5.004109e+06
  -2.366197e+06   6.129493e+06
  -5.990661e+06   2.151126e+04
  -4.136695e+06  -7.195242e+06
   1.902012e+06  -8.933363e+06
   6.967668e+06  -4.600540e+06
   7.501493e+06   1.426737e+06
   4.186076e+06   5.000411e+06
   3.651072e+05   5.143820e+06
  -9.392814e+05   3.510116e+06
   5.608534e+05   2.527461e+06
   1.876708e+06   3.322658e+06
  -3.564669e+05   4.446962e+06
  -5.405637e+06   3.340201e+06
  -8.232139e+06  -2.907938e+05
  -5.286485e+06  -3.568433e+06
   7.181744e+05  -3.721103e+06
   3.817754e+06  -1.229125e+06
   1.799257e+06   1.182963e+06
  -1.988553e+06   1.602305e+06
  -3.452603e+06  -2.220768e+03
  -1.996894e+06  -2.482882e+06
   3.432523e+05  -3.920301e+06
   1.745245e+06  -2.575296e+06
   1.607647e+06   7.727764e+05
   3.829862e+05   2.488492e+06
  -4.736475e+05   2.936534e+05
   3.984240e+05  -2.931054e+06
   2.214667e+06  -2.316962e+06
   2.252196e+06   2.063407e+06
  -6.858908e+05   4.559758e+06
  -3.952533e+06   1.357201e+06
  -3.682696e+06  -4.216330e+06
   5.912178e+05  -5.866606e+06
   5.157429e+06  -2.003236e+06
   5.931179e+06   3.120080e+06
   2.287830e+06   4.925742e+06
  -2.667747e+06   2.830672e+06
  -4.897036e+06  -6.016442e+05
  -2.787940e+06  -2.616963e+06
   1.394244e+06  -2.046058e+06
   3.531612e+06   2.004493e+05
   1.853181e+06   1.788889e+06
  -1.136854e+06   1.140182e+06
  -1.724042e+06  -7.038544e+05
   4.419670e+05  -1.264685e+06
   2.110899e+06   2.312100e+05
   7.464247e+05   1.955921e+06
  -2.365316e+06   1.887398e+06
  -3.884456e+06  -4.821859e+04
  -2.178458e+06  -2.518264e+06
   1.456963e+06  -4.161567e+06
   4.487078e+06  -3.877577e+06
   5.148999e+06  -1.156517e+06
   3.360580e+06   2.762244e+06
   6.279690e+05   5.094621e+06
  -1.090296e+06   4.249886e+06
  -1.126689e+06   1.823935e+06
  -6.603602e+05   6.037210e+05
  -1.114200e+06   1.014877e+06
  -2.296360e+06   9.938638e+05
  -2.715515e+06  -6.864020e+05
  -1.508263e+06  -2.528951e+06
   5.851587e+05  -2.328890e+06
   2.039346e+06   2.323249e+03
   1.775996e+06   2.408096e+06
  -1.966355e+05   2.899635e+06
  -2.635427e+06   1.197892e+06
  -3.656758e+06  -1.381066e+06
  -2.342419e+06  -3.092924e+06
   9.786996e+04  -3.069780e+06
   1.528270e+06  -1.937487e+06
   1.435872e+06  -1.051561e+06
   1.417753e+06  -9.375263e+05
   2.706289e+06  -7.591145e+05
   4.119506e+06   4.685545e+05
   3.403479e+06   2.498553e+06
   2.176350e+05   3.993725e+06
  -3.163712e+06   3.792748e+06
  -4.187362e+06   1.843605e+06
  -2.474048e+06  -7.314415e+05
   1.076413e+05  -2.249867e+06
   1.331476e+06  -1.692875e+06
   4.980826e+05   1.550592e+05
  -1.154634e+06   1.209509e+06
  -1.760307e+06   3.633548e+05
  -7.370800e+05  -1.089170e+06
   6.181325e+05  -1.090975e+06
   6.460799e+05   3.578659e+05
  -7.206015e+05   1.070452e+06
  -1.890698e+06  -4.383585e+05
  -1.409264e+06  -2.909207e+06
   6.115533e+05  -3.776530e+06
   2.798293e+06  -2.047688e+06
   3.726756e+06   8.737057e+05
   2.803531e+06   2.845274e+06
   6.095308e+05   2.852431e+06
  -1.320176e+06   1.475305e+06
  -1.618421e+06   1.472125e+05
  -4.872477e+05  -4.333771e+04
   3.688737e+05   7.299858e+05
  -3.007206e+05   1.240101e+06
  -1.698901e+06   5.915745e+05
  -1.943102e+06  -6.901635e+05
  -4.867417e+05  -1.276064e+06
   1.109318e+06  -6.287839e+05
   1.013065e+06   4.340789e+05
  -7.578335e+05   7.476582e+05
  -2.364896e+06  -4.385878e+04
  -2.070285e+06  -1.348783e+06
   7.816949e+04  -2.190770e+06
   2.317586e+06  -1.831292e+06
   2.781088e+06  -3.471784e+05
   1.203968e+06   1.157552e+06
  -8.209734e+05   1.368172e+06
  -1.383430e+06   1.843515e+05
  -1.355341e+05  -9.740432e+05
   1.454611e+06  -7.138749e+05
   1.724233e+06   6.834898e+05
   4.871827e+05   1.625283e+06
  -9.688841e+05   1.125835e+06
  -1.303840e+06  -1.306680e+05
  -3.819134e+05  -7.260883e+05
   7.063357e+05  -9.729751e+04
   7.029045e+05   1.005394e+06
  -5.898219e+05   1.380760e+06
  -1.985034e+06   5.005277e+05
  -1.988755e+06  -1.042603e+06
  -3.971888e+05  -2.021859e+06
   1.354563e+06  -1.638590e+06
   1.687030e+06  -2.804257e+05
   5.648983e+05   8.295234e+05
  -6.157889e+05   8.410707e+05
  -7.039176e+05   6.641324e+04
   6.114905e+04  -5.053828e+05
   6.123312e+05  -3.459358e+05
   3.474658e+05   1.254395e+05
  -3.464043e+05   1.389295e+05
  -6.047831e+05  -5.057826e+05
   7.440193e+04  -1.160521e+06
   1.319465e+06  -9.363106e+05
   2.065454e+06   3.674610e+05
   1.460876e+06   1.900833e+06
  -2.000477e+05   2.433650e+06
  -1.620700e+06   1.519916e+06
  -1.794624e+06  -3.923709e+04
  -1.010875e+06  -9.983451e+05
  -3.469269e+05  -8.930729e+05
  -3.335114e+05  -3.512060e+05
  -4.783931e+05  -2.334559e+05
  -8.537725e+04  -6.553125e+05
   8.149120e+05  -9.357388e+05
   1.474320e+06  -4.159809e+05
   1.160379e+06   7.476189e+05
  -1.739605e+05   1.589191e+06
  -1.725699e+06   1.173586e+06
  -2.294825e+06  -4.394639e+05
  -1.224431e+06  -2.059915e+06
   8.638664e+05  -2.363674e+06
   2.437774e+06  -1.142024e+06
   2.415972e+06   5.125516e+05
   1.141518e+06   1.335062e+06
  -1.154947e+05   1.104373e+06
  -5.046648e+05   6.401791e+05
  -2.662153e+05   7.117424e+05
  -1.767644e+05   1.168712e+06
  -6.133605e+05   1.198030e+06
  -1.218152e+06   3.029682e+05
  -1.307132e+06  -1.074209e+06
  -5.500561e+05  -1.886694e+06
   6.265646e+05  -1.432364e+06
   1.294523e+06  -3.109582e+04
   8.584235e+05   1.216060e+06
  -2.823473e+05   1.391660e+06
  -1.055493e+06   5.359184e+05
  -8.166757e+05  -5.133815e+05
  -1.514603e+04  -9.865246e+05
   3.790608e+05  -8.185684e+05
   2.657516e+04  -4.819578e+05
  -4.016469e+05  -3.612675e+05
  -4.235476e+04  -3.927118e+05
   1.090430e+06  -2.426669e+05
   1.983994e+06   2.761833e+05
   1.620324e+06   9.670702e+05
   7.267586e+04   1.366801e+06
  -1.459845e+06   1.126228e+06
  -1.787571e+06   3.615909e+05
  -8.804716e+05  -3.654781e+05
   2.001503e+05  -5.152958e+05
   4.809464e+05  -9.136041e+04
   3.500763e+03   3.407229e+05
  -4.764055e+05   2.333675e+05
  -4.661215e+05  -3.384051e+05
  -1.627747e+05  -7.340819e+05
  -1.260376e+04  -4.731470e+05
  -1.533524e+05   1.564778e+05
  -3.545041e+05   3.625996e+05
  -2.941968e+05  -2.213058e+05
   1.827851e+05  -1.008946e+06
   8.825002e+05  -1.050203e+06
   1.242756e+06  -1.345473e+05
   7.479515e+05   8.973084e+05
  -3.976697e+05   1.052894e+06
  -1.180352e+06   2.634293e+05
  -7.167120e+05  -5.941946e+05
   6.750948e+05  -6.711826e+05
   1.630211e+06   4.074485e+04
   1.130229e+06   8.454989e+05
  -3.986181e+05   1.074316e+06
  -1.532526e+06   6.095190e+05
  -1.321153e+06  -1.272330e+05
  -1.805507e+05  -5.395506e+05
   6.421035e+05  -3.164459e+05
   3.606175e+05   2.607631e+05
  -6.176609e+05   4.776437e+05
  -1.166523e+06  -1.390054e+05
  -5.937556e+05  -1.201596e+06
   6.711080e+05  -1.661069e+06
   1.518910e+06  -8.278729e+05
   1.252432e+06   7.876059e+05
   1.934908e+05   1.816005e+06
  -7.478869e+05   1.347210e+06
  -9.532977e+05  -1.242182e+05
  -4.933539e+05  -1.197365e+06
   1.535929e+05  -1.024480e+06
   5.482980e+05  -1.188127e+05
   5.192314e+05   3.971545e+05
   2.185073e+05   1.634159e+05
   2.953450e+04  -1.163999e+05
   2.074314e+05   2.470484e+05
   4.876873e+05   9.502359e+05
   2.606778e+05   1.106634e+06
  -6.428666e+05   4.223413e+05
  -1.496843e+06  -4.677529e+05
  -1.353902e+06  -8.474944e+05
  -1.976262e+05  -6.902962e+05
   9.111722e+05  -4.101668e+05
   1.013375e+06  -2.037258e+05
   3.220956e+05   1.382877e+04
  -1.662463e+05   2.185894e+05
   2.315538e+04   2.469461e+05
   3.282815e+05   1.403565e+05
   2.434256e+04   1.342284e+05
  -7.323702e+05   2.015664e+05
  -1.039733e+06  -3.111484e+04
  -3.387337e+05  -6.704924e+05
   9.027385e+05  -1.132706e+06
   1.655636e+06  -7.150988e+05
   1.329668e+06   4.601734e+05
   2.466390e+05   1.418949e+06
  -7.515327e+05   1.359993e+06
  -1.046220e+06   4.949033e+05
  -6.612145e+05  -2.710728e+05
  -1.063764e+05  -3.546966e+05
   1.199346e+05  -2.122930e+04
  -6.736232e+04   6.237478e+04
  -3.329300e+05  -3.547576e+05
  -2.718083e+05  -8.146599e+05
   1.917087e+05  -6.657921e+05
   6.888707e+05   1.656655e+05
   6.970956e+05   9.903944e+05
   4.893035e+04   1.017964e+06
  -7.825238e+05   1.849197e+05
  -1.009036e+06  -7.742907e+05
  -3.093564e+05  -1.084052e+06
   7.192156e+05  -6.334802e+05
   1.090038e+06   8.965101e+04
   5.046098e+05   5.708754e+05
  -2.773040e+05   6.275695e+05
  -3.322544e+05   3.627358e+05
   2.962768e+05   3.747870e+04
   6.634666e+05  -2.749046e+04
   1.299899e+05   2.963812e+05
  -8.301583e+05   6.857866e+05
  -1.225654e+06   5.840498e+05
  -7.187889e+05  -1.313860e+05
   1.000156e+05  -8.500171e+05
   5.075332e+05  -8.427989e+05
   3.704953e+05  -1.322676e+05
   2.254715e+04   4.971213e+05
  -2.460915e+05   4.067792e+05
  -3.483653e+05  -1.937584e+05
  -2.457756e+05  -5.798333e+05
   5.964281e+04  -3.848579e+05
   3.866234e+05   6.523298e+04
   4.649903e+05   2.484630e+05
   2.466897e+05   6.896329e+04
  -1.678701e+04  -1.115761e+05
  -9.353603e+04   2.968547e+04
  -5.605569e+04   3.733885e+05
  -1.323411e+05   4.876901e+05
  -3.356093e+05   1.315923e+05
  -3.899772e+05  -4.252631e+05
  -7.456900e+04  -6.438952e+05
   4.291723e+05  -2.881945e+05
   6.302091e+05   3.068802e+05
   2.268578e+05   5.896745e+05
  -4.950263e+05   3.602568e+05
  -8.543260e+05  -9.408617e+04
  -4.653662e+05  -3.787593e+05
   2.901579e+05  -3.667150e+05
   6.223428e+05  -1.875620e+05
   2.149960e+05  -1.609922e+04
  -3.899437e+05   2.389254e+04
  -4.192708e+05  -1.176311e+05
   2.137940e+05  -3.143942e+05
   8.103589e+05  -2.574196e+05
