
 $NMID
 id='ANONYMOUS ', fmtdat='(2E16.6)'
 volume=1.0
 tramp=1.0
 $END
   4.640582e+07   6.802931e+05
   2.812841e+07   2.768562e+07
  -5.315991e+06   3.088308e+07
  -2.232690e+07   1.330669e+07
  -1.417322e+07  -4.330688e+06
   2.033163e+06  -7.784855e+06
   8.355521e+06   9.182492e+03
   3.204275e+06   7.944046e+06
  -4.579846e+06   8.711000e+06
  -8.129981e+06   2.409888e+06
  -6.081011e+06  -5.385103e+06
  -6.439783e+05  -7.676588e+06
   3.587563e+06  -2.173531e+06
   2.431325e+06   5.286887e+06
  -3.084285e+06   6.243069e+06
  -6.754094e+06  -7.605055e+05
  -4.009468e+06  -8.618753e+06
   3.030126e+06  -1.008535e+07
   8.521009e+06  -4.897026e+06
   8.925518e+06   2.032160e+06
   5.029879e+06   6.335261e+06
   1.955265e+05   6.717734e+06
  -2.013890e+06   4.474850e+06
  -5.012081e+05   2.453874e+06
   1.618891e+06   2.825119e+06
  -1.273206e+05   4.419738e+06
  -5.574995e+06   3.767743e+06
  -8.983149e+06  -1.514901e+05
  -6.012158e+06  -4.030815e+06
   4.514787e+05  -4.395849e+06
   3.929220e+06  -1.780760e+06
   2.182062e+06   7.554289e+05
  -1.390986e+06   1.419094e+06
  -3.028697e+06   2.573486e+05
  -2.154527e+06  -2.099488e+06
  -5.137954e+04  -4.040737e+06
   1.909830e+06  -3.123969e+06
   2.356432e+06   6.336935e+05
   8.405090e+05   3.104800e+06
  -7.301499e+05   9.622023e+05
   8.435217e+04  -2.813024e+06
   2.367427e+06  -2.295646e+06
   2.254692e+06   2.605110e+06
  -1.597487e+06   5.142664e+06
  -5.256704e+06   9.640348e+05
  -4.087509e+06  -5.558025e+06
   1.417217e+06  -6.956626e+06
   6.229382e+06  -1.978152e+06
   6.298285e+06   3.859454e+06
   1.990332e+06   5.443943e+06
  -3.064387e+06   2.723569e+06
  -5.032741e+06  -1.082667e+06
  -2.572756e+06  -3.021685e+06
   1.877994e+06  -2.043229e+06
   3.939060e+06   6.219299e+05
   1.827032e+06   2.232559e+06
  -1.425935e+06   1.195600e+06
  -1.719423e+06  -8.700230e+05
   8.089092e+05  -1.064309e+06
   2.177444e+06   9.283913e+05
   4.932011e+04   2.516154e+06
  -3.371438e+06   1.724744e+06
  -4.433133e+06  -7.484246e+05
  -2.128053e+06  -3.198849e+06
   1.747760e+06  -4.635243e+06
   4.874466e+06  -4.243229e+06
   5.707945e+06  -1.285906e+06
   3.857480e+06   3.089119e+06
   6.332874e+05   5.641613e+06
  -1.516192e+06   4.452597e+06
  -1.386973e+06   1.531733e+06
  -4.031749e+05   2.773655e+05
  -6.529689e+05   1.083490e+06
  -2.101311e+06   1.368709e+06
  -2.852446e+06  -3.400296e+05
  -1.764306e+06  -2.363848e+06
   3.466521e+05  -2.320977e+06
   1.876546e+06  -9.858367e+04
   1.755944e+06   2.313313e+06
  -1.499998e+05   2.966503e+06
  -2.773087e+06   1.368305e+06
  -4.048376e+06  -1.419016e+06
  -2.662004e+06  -3.506024e+06
   1.923121e+05  -3.603776e+06
   1.944128e+06  -2.221723e+06
   1.811105e+06  -1.027388e+06
   1.605762e+06  -7.951192e+05
   2.832597e+06  -6.012538e+05
   4.247493e+06   6.657447e+05
   3.436740e+06   2.694954e+06
   1.251091e+05   4.104122e+06
  -3.281454e+06   3.851937e+06
  -4.284827e+06   1.939446e+06
  -2.602430e+06  -6.522754e+05
  -2.926547e+04  -2.303531e+06
   1.290241e+06  -1.822395e+06
   5.407163e+05   1.170909e+05
  -1.165608e+06   1.261623e+06
  -1.857275e+06   3.515934e+05
  -8.058930e+05  -1.178372e+06
   5.995337e+05  -1.117416e+06
   5.552470e+05   3.692095e+05
  -8.667669e+05   8.911290e+05
  -1.836415e+06  -8.325479e+05
  -1.021451e+06  -3.162747e+06
   1.064551e+06  -3.594159e+06
   2.944083e+06  -1.612838e+06
   3.547005e+06   1.149955e+06
   2.585606e+06   2.846949e+06
   5.324126e+05   2.785861e+06
  -1.323469e+06   1.481931e+06
  -1.633429e+06   1.671758e+05
  -4.965326e+05  -5.182331e+04
   3.589652e+05   7.553209e+05
  -3.788056e+05   1.292069e+06
  -1.824677e+06   5.577323e+05
  -1.990444e+06  -8.206260e+05
  -4.222991e+05  -1.357719e+06
   1.159111e+06  -5.941215e+05
   9.669907e+05   4.548541e+05
  -8.034576e+05   6.416658e+05
  -2.299242e+06  -1.851188e+05
  -1.939368e+06  -1.376790e+06
   1.680840e+05  -2.113689e+06
   2.361291e+06  -1.751360e+06
   2.821254e+06  -2.835880e+05
   1.205845e+06   1.241347e+06
  -9.061615e+05   1.432022e+06
  -1.487710e+06   1.583272e+05
  -1.463517e+05  -1.044386e+06
   1.517418e+06  -7.120475e+05
   1.733259e+06   7.614943e+05
   4.036193e+05   1.659390e+06
  -1.044376e+06   1.054490e+06
  -1.288725e+06  -2.291308e+05
  -3.123796e+05  -7.582239e+05
   7.571570e+05  -6.351706e+04
   7.131533e+05   1.055663e+06
  -6.145218e+05   1.416831e+06
  -2.037969e+06   5.004658e+05
  -2.028870e+06  -1.092823e+06
  -3.670401e+05  -2.083696e+06
   1.438068e+06  -1.643201e+06
   1.731302e+06  -2.273621e+05
   5.314101e+05   8.641565e+05
  -6.541574e+05   8.262860e+05
  -6.851431e+05   6.797387e+04
   8.416654e+04  -4.425655e+05
   5.614647e+05  -2.899779e+05
   2.534568e+05   8.772115e+04
  -3.839265e+05   3.041857e+04
  -5.554642e+05  -5.913525e+05
   1.535621e+05  -1.180503e+06
   1.379161e+06  -9.105575e+05
   2.098412e+06   4.234016e+05
   1.458579e+06   1.971208e+06
  -2.419631e+05   2.463902e+06
  -1.656565e+06   1.474544e+06
  -1.768619e+06  -9.552614e+04
  -9.515220e+05  -9.696889e+05
  -3.453917e+05  -7.995171e+05
  -4.099961e+05  -3.118055e+05
  -5.450648e+05  -2.912826e+05
  -7.242225e+04  -7.173291e+05
   8.659822e+05  -9.194310e+05
   1.484721e+06  -3.632511e+05
   1.120219e+06   7.549639e+05
  -2.229769e+05   1.547249e+06
  -1.759741e+06   1.123632e+06
  -2.301449e+06  -4.935169e+05
  -1.172397e+06  -2.121243e+06
   9.764680e+05  -2.380732e+06
   2.532450e+06  -1.069542e+06
   2.407424e+06   6.155466e+05
   1.056631e+06   1.359497e+06
  -1.616462e+05   1.040814e+06
  -4.582295e+05   5.928563e+05
  -1.963759e+05   7.532761e+05
  -1.715021e+05   1.254793e+06
  -6.721222e+05   1.247038e+06
  -1.278045e+06   2.936924e+05
  -1.328397e+06  -1.113744e+06
  -5.373730e+05  -1.928825e+06
   6.534142e+05  -1.450412e+06
   1.309453e+06  -9.529399e+01
   8.301595e+05   1.274773e+06
  -3.554998e+05   1.404516e+06
  -1.119400e+06   4.623410e+05
  -8.067102e+05  -6.171906e+05
   6.833031e+04  -1.033544e+06
   4.661318e+05  -7.980903e+05
   5.541030e+04  -4.543848e+05
  -4.203334e+05  -3.627796e+05
  -4.698805e+04  -3.966027e+05
   1.135982e+06  -2.130048e+05
   2.045497e+06   3.382502e+05
   1.627708e+06   1.035886e+06
  -4.519787e+02   1.413520e+06
  -1.559739e+06   1.122936e+06
  -1.835674e+06   3.019703e+05
  -8.584677e+05  -4.394785e+05
   2.426266e+05  -5.417340e+05
   4.999907e+05  -5.732556e+04
   5.975694e+03   3.862504e+05
  -4.731918e+05   2.457345e+05
  -4.767309e+05  -3.525561e+05
  -2.005384e+05  -7.497823e+05
  -4.637858e+04  -4.903457e+05
  -1.454430e+05   1.289056e+05
  -3.235186e+05   3.363973e+05
  -2.864457e+05  -2.323856e+05
   1.765170e+05  -1.015671e+06
   9.190420e+05  -1.063183e+06
   1.325426e+06  -1.323746e+05
   7.985959e+05   9.373399e+05
  -4.318564e+05   1.106127e+06
  -1.246266e+06   2.838408e+05
  -7.315264e+05  -6.035384e+05
   7.059273e+05  -6.608497e+05
   1.631899e+06   8.536104e+04
   1.076000e+06   8.726378e+05
  -4.540213e+05   1.038613e+06
  -1.538711e+06   5.386386e+05
  -1.292981e+06  -1.704623e+05
  -1.558305e+05  -5.345902e+05
   6.568089e+05  -2.897177e+05
   3.728835e+05   2.880340e+05
  -6.206470e+05   5.038432e+05
  -1.197957e+06  -1.261672e+05
  -6.320177e+05  -1.224423e+06
   6.622237e+05  -1.710395e+06
   1.540776e+06  -8.585348e+05
   1.270040e+06   7.996729e+05
   1.835422e+05   1.838106e+06
  -7.681515e+05   1.335427e+06
  -9.498631e+05  -1.625887e+05
  -4.559829e+05  -1.216355e+06
   1.988113e+05  -1.006144e+06
   5.639861e+05  -9.503425e+04
   4.969575e+05   3.953746e+05
   1.929678e+05   1.504919e+05
   4.003354e+04  -1.052650e+05
   2.437446e+05   2.855325e+05
   4.964999e+05   9.830102e+05
   2.172272e+05   1.108474e+06
  -6.959844e+05   4.021384e+05
  -1.506714e+06  -4.893222e+05
  -1.329129e+06  -8.658371e+05
  -1.860118e+05  -7.084108e+05
   9.004785e+05  -4.175336e+05
   1.015859e+06  -1.868390e+05
   3.463945e+05   4.260349e+04
  -1.604329e+05   2.264635e+05
  -9.079174e+03   2.233073e+05
   3.003409e+05   1.150508e+05
   3.864191e+04   1.384053e+05
  -7.099061e+05   2.235881e+05
  -1.064365e+06  -3.081896e+04
  -3.915883e+05  -7.062634e+05
   8.981598e+05  -1.176487e+06
   1.722366e+06  -7.337391e+05
   1.400599e+06   4.705023e+05
   2.561004e+05   1.442538e+06
  -7.885868e+05   1.386700e+06
  -1.075839e+06   5.203034e+05
  -6.708646e+05  -2.584896e+05
  -1.213652e+05  -3.667347e+05
   9.619984e+04  -5.162978e+04
  -7.391318e+04   3.440654e+04
  -3.153852e+05  -3.697906e+05
  -2.551753e+05  -8.267530e+05
   1.946356e+05  -6.859591e+05
   6.994237e+05   1.465288e+05
   7.311532e+05   9.942526e+05
   8.207366e+04   1.051414e+06
  -7.854188e+05   2.238970e+05
  -1.042671e+06  -7.653121e+05
  -3.309535e+05  -1.113724e+06
   7.375106e+05  -6.682624e+05
   1.129387e+06   9.262875e+04
   5.235834e+05   6.140829e+05
  -2.975818e+05   6.686389e+05
  -3.716759e+05   3.666978e+05
   2.728162e+05   1.872881e+04
   6.684722e+05  -3.143715e+04
   1.398669e+05   3.117906e+05
  -8.480626e+05   6.882634e+05
  -1.271962e+06   5.548233e+05
  -7.558178e+05  -1.724150e+05
   1.077077e+05  -8.782444e+05
   5.535673e+05  -8.601855e+05
   4.164337e+05  -1.468284e+05
   4.078071e+04   4.976540e+05
  -2.515869e+05   4.318726e+05
  -3.596576e+05  -1.700522e+05
  -2.519084e+05  -5.918556e+05
   6.228925e+04  -4.200528e+05
   3.980668e+05   5.614730e+04
   4.766852e+05   2.784839e+05
   2.461289e+05   8.974065e+04
  -2.487625e+04  -1.404101e+05
  -8.296606e+04  -1.740409e+04
  -1.364212e+04   3.723032e+05
  -8.881600e+04   5.435058e+05
  -3.386086e+05   1.903662e+05
  -4.431750e+05  -4.109388e+05
  -1.257525e+05  -6.656355e+05
   4.275661e+05  -3.100107e+05
   6.652746e+05   3.013583e+05
   2.465994e+05   5.939344e+05
  -5.158142e+05   3.666001e+05
  -8.907390e+05  -9.123710e+04
  -4.812534e+05  -3.895252e+05
   3.031602e+05  -3.942436e+05
   6.500169e+05  -2.131577e+05
   2.433551e+05  -1.389963e+04
  -3.715455e+05   5.510622e+04
  -4.228702e+05  -8.531443e+04
   1.873753e+05  -3.069244e+05
   7.835385e+05  -2.718520e+05
