
 $NMID
 id='ANONYMOUS ', fmtdat='(2E16.6)'
 volume=1.0
 tramp=1.0
 $END
   5.078090e+07   1.016287e+06
   3.012324e+07   3.197498e+07
  -7.227684e+06   3.431777e+07
  -2.523834e+07   1.292922e+07
  -1.496818e+07  -6.518715e+06
   3.081125e+06  -8.454272e+06
   8.982755e+06   1.183919e+06
   2.455674e+06   8.947248e+06
  -5.796901e+06   8.490748e+06
  -8.841822e+06   1.706098e+06
  -6.219550e+06  -5.777892e+06
  -5.326991e+05  -7.842624e+06
   3.675685e+06  -2.375851e+06
   2.238263e+06   5.065226e+06
  -3.589000e+06   5.939493e+06
  -7.146417e+06  -1.329817e+06
  -3.854157e+06  -9.343716e+06
   3.641038e+06  -1.063102e+07
   9.244940e+06  -5.144312e+06
   9.691788e+06   2.070450e+06
   5.794834e+06   6.844202e+06
   4.858945e+05   7.742270e+06
  -2.639976e+06   5.406077e+06
  -1.640659e+06   2.529088e+06
   9.303696e+05   2.140880e+06
   3.248819e+04   3.839402e+06
  -5.076554e+06   3.787092e+06
  -8.782350e+06   1.369135e+05
  -6.258025e+06  -3.926808e+06
  -5.909786e+04  -4.537904e+06
   3.456374e+06  -2.148211e+06
   2.177190e+06   1.183428e+05
  -7.179036e+05   8.199407e+05
  -2.173308e+06   2.791648e+05
  -1.905505e+06  -1.461128e+06
  -4.281494e+05  -3.596628e+06
   1.731151e+06  -3.403658e+06
   2.832566e+06   1.750331e+05
   1.416805e+06   3.266993e+06
  -6.793378e+05   1.650401e+06
  -1.544276e+05  -2.272648e+06
   2.333984e+06  -2.049540e+06
   2.187651e+06   2.945411e+06
  -2.254793e+06   5.548166e+06
  -6.250590e+06   8.646204e+05
  -4.509781e+06  -6.305125e+06
   1.838703e+06  -7.673511e+06
   6.752971e+06  -2.049425e+06
   6.246286e+06   4.208075e+06
   1.572274e+06   5.576437e+06
  -3.256056e+06   2.427552e+06
  -4.822067e+06  -1.516068e+06
  -2.182938e+06  -3.267781e+06
   2.230330e+06  -1.986040e+06
   4.113203e+06   9.126637e+05
   1.744107e+06   2.512811e+06
  -1.581669e+06   1.218357e+06
  -1.586391e+06  -9.885043e+05
   1.207621e+06  -8.743851e+05
   2.278536e+06   1.577088e+06
  -5.123906e+05   3.117469e+06
  -4.172035e+06   1.706723e+06
  -4.809133e+06  -1.274018e+06
  -2.060459e+06  -3.640874e+06
   1.774664e+06  -4.730805e+06
   4.712961e+06  -4.244064e+06
   5.675376e+06  -1.397910e+06
   4.047343e+06   2.990249e+06
   6.801395e+05   5.640676e+06
  -1.811580e+06   4.342504e+06
  -1.661675e+06   1.142020e+06
  -2.263993e+05  -2.038754e+05
  -9.472665e+04   8.480173e+05
  -1.556040e+06   1.503306e+06
  -2.557120e+06   5.913515e+04
  -1.741148e+06  -1.878085e+06
   1.067002e+05  -1.972812e+06
   1.473925e+06  -9.616614e+04
   1.473109e+06   2.014740e+06
  -1.147970e+05   2.708546e+06
  -2.589116e+06   1.407233e+06
  -4.027339e+06  -1.234938e+06
  -2.816120e+06  -3.501309e+06
   1.311339e+05  -3.823396e+06
   2.109869e+06  -2.414710e+06
   2.045937e+06  -1.007165e+06
   1.707015e+06  -6.059183e+05
   2.743667e+06  -3.689604e+05
   4.004644e+06   8.338807e+05
   3.140328e+06   2.673338e+06
  -1.919532e+04   3.832248e+06
  -3.113676e+06   3.497738e+06
  -3.941590e+06   1.795669e+06
  -2.424321e+06  -5.002327e+05
  -1.477629e+05  -2.067888e+06
   1.097269e+06  -1.729514e+06
   5.133314e+05   5.804492e+04
  -1.058976e+06   1.168367e+06
  -1.778031e+06   3.068735e+05
  -8.081469e+05  -1.138028e+06
   5.282906e+05  -1.012177e+06
   4.007333e+05   3.876395e+05
  -1.015922e+06   6.519873e+05
  -1.726949e+06  -1.214145e+06
  -5.484155e+05  -3.271092e+06
   1.568171e+06  -3.187640e+06
   2.992149e+06  -9.910314e+05
   3.076932e+06   1.458425e+06
   2.035601e+06   2.688195e+06
   3.173954e+05   2.467294e+06
  -1.215380e+06   1.311076e+06
  -1.475513e+06   1.455377e+05
  -4.573348e+05  -6.133795e+04
   3.073631e+05   7.138534e+05
  -4.246643e+05   1.235992e+06
  -1.790729e+06   4.799506e+05
  -1.869939e+06  -8.904699e+05
  -3.186763e+05  -1.335774e+06
   1.114934e+06  -4.949677e+05
   8.182397e+05   4.643253e+05
  -8.202971e+05   4.660218e+05
  -2.042510e+06  -3.828521e+05
  -1.585509e+06  -1.350561e+06
   3.146916e+05  -1.845224e+06
   2.226206e+06  -1.458371e+06
   2.601143e+06  -1.500231e+05
   1.092609e+06   1.222676e+06
  -9.033014e+05   1.367207e+06
  -1.456322e+06   1.278399e+05
  -1.510633e+05  -1.008372e+06
   1.439656e+06  -6.327547e+05
   1.579411e+06   7.930047e+05
   2.568426e+05   1.563529e+06
  -1.062687e+06   8.809749e+05
  -1.173903e+06  -3.379415e+05
  -2.065300e+05  -7.461411e+05
   7.451481e+05  -2.782890e+04
   6.493058e+05   1.007033e+06
  -5.886874e+05   1.304705e+06
  -1.890581e+06   4.304547e+05
  -1.858986e+06  -1.054442e+06
  -2.822851e+05  -1.950911e+06
   1.405631e+06  -1.483284e+06
   1.623734e+06  -1.329960e+05
   4.393341e+05   8.341900e+05
  -6.473705e+05   7.284734e+05
  -5.954051e+05   4.313776e+04
   1.314931e+05  -3.377354e+05
   4.763264e+05  -1.709185e+05
   1.119819e+05   7.992168e+04
  -4.258676e+05  -7.973451e+04
  -4.675740e+05  -6.494894e+05
   2.355417e+05  -1.106350e+06
   1.325672e+06  -7.856668e+05
   1.928491e+06   4.650513e+05
   1.294590e+06   1.868731e+06
  -2.957863e+05   2.251756e+06
  -1.568087e+06   1.256872e+06
  -1.578351e+06  -1.883329e+05
  -7.613214e+05  -8.808938e+05
  -2.562524e+05  -6.264935e+05
  -4.258814e+05  -2.165892e+05
  -5.746651e+05  -3.060271e+05
  -6.115620e+04  -7.139706e+05
   8.537692e+05  -8.097133e+05
   1.368623e+06  -2.453494e+05
   9.496477e+05   7.216026e+05
  -2.973556e+05   1.357218e+06
  -1.653349e+06   9.339211e+05
  -2.080808e+06  -5.401404e+05
  -9.798925e+05  -2.007453e+06
   1.031107e+06  -2.176588e+06
   2.416977e+06  -8.716779e+05
   2.177274e+06   7.081844e+05
   8.422948e+05   1.297075e+06
  -2.374384e+05   8.813955e+05
  -3.918864e+05   4.552043e+05
  -1.013390e+05   6.877049e+05
  -1.387220e+05   1.209361e+06
  -6.684994e+05   1.179024e+06
  -1.217232e+06   2.525471e+05
  -1.207053e+06  -1.056472e+06
  -4.482134e+05  -1.787889e+06
   6.341142e+05  -1.316948e+06
   1.201231e+06   5.112723e+04
   7.131676e+05   1.230408e+06
  -4.165846e+05   1.293873e+06
  -1.107168e+06   3.411961e+05
  -7.410137e+05  -6.805876e+05
   1.497473e+05  -1.006324e+06
   5.315314e+05  -7.187569e+05
   9.894731e+04  -3.887582e+05
  -3.897211e+05  -3.277485e+05
  -4.061630e+04  -3.586544e+05
   1.081203e+06  -1.556924e+05
   1.914812e+06   3.832999e+05
   1.473409e+06   1.028272e+06
  -8.527979e+04   1.343689e+06
  -1.524614e+06   1.011966e+06
  -1.724353e+06   1.923644e+05
  -7.668702e+05  -4.957060e+05
   2.618914e+05  -5.248393e+05
   4.822154e+05  -1.366380e+04
   1.781190e+04   3.928921e+05
  -4.211019e+05   2.227994e+05
  -4.371513e+05  -3.360181e+05
  -2.106316e+05  -6.779168e+05
  -7.396417e+04  -4.454191e+05
  -1.353037e+05   8.086218e+04
  -2.740602e+05   2.559509e+05
  -2.480163e+05  -2.282724e+05
   1.688304e+05  -9.112946e+05
   8.769654e+05  -9.626448e+05
   1.277094e+06  -1.227585e+05
   7.658658e+05   8.775536e+05
  -4.233234e+05   1.051687e+06
  -1.183303e+06   2.771004e+05
  -6.632103e+05  -5.591273e+05
   6.816065e+05  -5.800304e+05
   1.480266e+06   1.535963e+05
   9.018242e+05   8.520282e+05
  -4.983767e+05   9.065102e+05
  -1.423371e+06   3.820088e+05
  -1.143065e+06  -2.333195e+05
  -1.018735e+05  -4.865323e+05
   6.198063e+05  -2.251311e+05
   3.520387e+05   2.887976e+05
  -5.588651e+05   4.681665e+05
  -1.099141e+06  -1.104362e+05
  -5.917680e+05  -1.118659e+06
   5.981322e+05  -1.568552e+06
   1.408693e+06  -7.804999e+05
   1.146266e+06   7.470162e+05
   1.275116e+05   1.678186e+06
  -7.397728e+05   1.178004e+06
  -8.595218e+05  -2.051234e+05
  -3.539488e+05  -1.133120e+06
   2.513695e+05  -8.963457e+05
   5.326726e+05  -5.572202e+04
   4.140628e+05   3.705203e+05
   1.386439e+05   1.348557e+05
   5.308625e+04  -8.612698e+04
   2.655504e+05   2.866268e+05
   4.481284e+05   9.213629e+05
   1.292359e+05   1.016472e+06
  -6.945292e+05   3.466483e+05
  -1.359966e+06  -4.860618e+05
  -1.156289e+06  -8.301714e+05
  -1.480244e+05  -6.618890e+05
   8.013535e+05  -3.606192e+05
   9.233066e+05  -1.314727e+05
   3.459759e+05   6.542406e+04
  -1.391089e+05   2.059908e+05
  -5.502823e+04   1.878801e+05
   2.282117e+05   9.323796e+04
   4.842033e+04   1.235341e+05
  -6.088290e+05   2.010890e+05
  -9.789892e+05  -3.815506e+04
  -4.061829e+05  -6.574877e+05
   8.060838e+05  -1.081298e+06
   1.620256e+06  -6.698423e+05
   1.324253e+06   4.321293e+05
   2.208569e+05   1.318968e+06
  -7.616931e+05   1.269924e+06
  -9.953299e+05   4.835488e+05
  -6.015645e+05  -2.277127e+05
  -1.219732e+05  -3.377298e+05
   5.086974e+04  -6.689946e+04
  -8.443583e+04   2.867422e+03
  -2.631742e+05  -3.598209e+05
  -2.003816e+05  -7.648724e+05
   1.827697e+05  -6.332958e+05
   6.277963e+05   1.206797e+05
   6.734027e+05   8.961602e+05
   1.008140e+05   9.662107e+05
  -6.964769e+05   2.273664e+05
  -9.516513e+05  -6.837936e+05
  -3.092094e+05  -1.027314e+06
   6.796156e+05  -6.281051e+05
   1.052661e+06   9.264260e+04
   4.938606e+05   5.980523e+05
  -2.848276e+05   6.440712e+05
  -3.795181e+05   3.408490e+05
   2.127251e+05   1.158351e+04
   6.035334e+05  -2.137783e+04
   1.355583e+05   2.944182e+05
  -7.910662e+05   6.102631e+05
  -1.210179e+06   4.605031e+05
  -7.284799e+05  -1.974384e+05
   1.104982e+05  -8.175700e+05
   5.538570e+05  -7.962628e+05
   4.182666e+05  -1.563593e+05
   4.616904e+04   4.405030e+05
  -2.299118e+05   4.104992e+05
  -3.218230e+05  -1.304041e+05
  -2.254871e+05  -5.455392e+05
   5.314023e+04  -4.129428e+05
   3.642049e+05   4.410657e+04
   4.456867e+05   2.854534e+05
   2.263212e+05   1.069635e+05
  -3.907280e+04  -1.531771e+05
  -8.110626e+04  -7.013639e+04
   2.430234e+04   3.161367e+05
  -2.342591e+04   5.268630e+05
  -2.878227e+05   2.263877e+05
  -4.392258e+05  -3.416319e+05
  -1.614888e+05  -6.021201e+05
   3.792130e+05  -2.917763e+05
   6.249295e+05   2.637224e+05
   2.318350e+05   5.340083e+05
  -4.885738e+05   3.333209e+05
  -8.334964e+05  -8.190007e+04
  -4.446244e+05  -3.634819e+05
   2.822572e+05  -3.812348e+05
   6.057651e+05  -2.158901e+05
   2.487693e+05  -1.637248e+04
  -3.030720e+05   6.773480e+04
  -3.688727e+05  -4.958995e+04
   1.492317e+05  -2.537278e+05
   6.742494e+05  -2.335001e+05
