
 $NMID
 id='ANONYMOUS ', fmtdat='(2E16.6)'
 volume=1.0
 tramp=1.0
 $END
   5.238402e+07   3.983236e+05
   3.159838e+07   3.168131e+07
  -6.375314e+06   3.504202e+07
  -2.529137e+07   1.443151e+07
  -1.563340e+07  -5.513752e+06
   2.604059e+06  -8.699712e+06
   9.249889e+06   4.539794e+05
   3.189225e+06   8.956175e+06
  -5.347532e+06   9.326070e+06
  -9.041712e+06   2.379526e+06
  -6.731396e+06  -5.920257e+06
  -7.815088e+05  -8.383588e+06
   3.908818e+06  -2.513688e+06
   2.669959e+06   5.569140e+06
  -3.433676e+06   6.647116e+06
  -7.475232e+06  -9.951543e+05
  -4.380786e+06  -9.599212e+06
   3.425745e+06  -1.120361e+07
   9.511845e+06  -5.531001e+06
   1.008022e+07   2.118792e+06
   5.892170e+06   7.084659e+06
   3.841894e+05   7.790276e+06
  -2.474759e+06   5.271173e+06
  -1.031689e+06   2.603469e+06
   1.555625e+06   2.654203e+06
   7.493430e+04   4.544903e+06
  -5.748361e+06   4.251892e+06
  -9.685331e+06   1.617133e+05
  -6.725766e+06  -4.231860e+06
   1.811791e+05  -4.890691e+06
   4.043184e+06  -2.221328e+06
   2.438178e+06   4.814291e+05
  -1.114390e+06   1.350212e+06
  -2.886546e+06   4.272128e+05
  -2.323076e+06  -1.916027e+06
  -3.519762e+05  -4.212063e+06
   1.953435e+06  -3.574678e+06
   2.832827e+06   4.713944e+05
   1.225338e+06   3.481132e+06
  -8.136048e+05   1.382998e+06
  -1.237635e+05  -2.825606e+06
   2.486749e+06  -2.426672e+06
   2.434810e+06   2.935126e+06
  -1.977639e+06   5.740122e+06
  -6.139831e+06   1.010030e+06
  -4.671117e+06  -6.340122e+06
   1.666265e+06  -7.872921e+06
   6.973436e+06  -2.252493e+06
   6.854622e+06   4.224735e+06
   2.059265e+06   5.893307e+06
  -3.334656e+06   2.859694e+06
  -5.344932e+06  -1.259606e+06
  -2.646918e+06  -3.306892e+06
   2.156519e+06  -2.193276e+06
   4.340313e+06   7.501489e+05
   1.961107e+06   2.509024e+06
  -1.598757e+06   1.320361e+06
  -1.809616e+06  -9.534107e+05
   1.025253e+06  -1.044687e+06
   2.367688e+06   1.276596e+06
  -2.152126e+05   2.957091e+06
  -3.996697e+06   1.854766e+06
  -4.952446e+06  -1.005035e+06
  -2.299889e+06  -3.629813e+06
   1.827781e+06  -5.107678e+06
   5.132986e+06  -4.716632e+06
   6.165738e+06  -1.562321e+06
   4.344641e+06   3.249222e+06
   8.193092e+05   6.114512e+06
  -1.685501e+06   4.783496e+06
  -1.566387e+06   1.483408e+06
  -3.051961e+05   1.026007e+05
  -4.069872e+05   1.131498e+06
  -2.013937e+06   1.639036e+06
  -3.002291e+06  -1.015008e+05
  -1.994336e+06  -2.303509e+06
   1.878507e+05  -2.385469e+06
   1.847001e+06  -1.788126e+05
   1.846112e+06   2.311786e+06
  -6.526236e+04   3.105492e+06
  -2.901065e+06   1.573727e+06
  -4.428646e+06  -1.373834e+06
  -3.029799e+06  -3.765330e+06
   1.300383e+05  -4.022978e+06
   2.161523e+06  -2.524149e+06
   2.053083e+06  -1.119874e+06
   1.757253e+06  -7.972421e+05
   3.000453e+06  -6.078433e+05
   4.495272e+06   6.959253e+05
   3.647082e+06   2.821025e+06
   1.733542e+05   4.312640e+06
  -3.376523e+06   4.095619e+06
  -4.440214e+06   2.153134e+06
  -2.768123e+06  -5.703617e+05
  -1.530659e+05  -2.400821e+06
   1.266370e+06  -1.977226e+06
   5.812045e+05   8.674417e+04
  -1.182671e+06   1.357966e+06
  -1.967608e+06   4.036565e+05
  -9.018405e+05  -1.244563e+06
   5.861101e+05  -1.181237e+06
   5.356468e+05   3.847910e+05
  -9.713860e+05   8.586929e+05
  -1.923520e+06  -1.036112e+06
  -9.400659e+05  -3.420099e+06
   1.282507e+06  -3.686170e+06
   3.129350e+06  -1.514143e+06
   3.625379e+06   1.279094e+06
   2.620686e+06   2.915074e+06
   5.614154e+05   2.845502e+06
  -1.341574e+06   1.564896e+06
  -1.694024e+06   2.178430e+05
  -5.207513e+05  -4.725737e+04
   3.838616e+05   7.889197e+05
  -4.026022e+05   1.379303e+06
  -1.946736e+06   6.073046e+05
  -2.113345e+06  -8.737476e+05
  -4.378468e+05  -1.445439e+06
   1.217155e+06  -6.245493e+05
   9.879486e+05   4.663056e+05
  -8.520172e+05   6.289510e+05
  -2.362130e+06  -2.249481e+05
  -1.969633e+06  -1.412320e+06
   1.850983e+05  -2.159245e+06
   2.439280e+06  -1.822887e+06
   2.941870e+06  -3.207233e+05
   1.281740e+06   1.304625e+06
  -9.484462e+05   1.541698e+06
  -1.593962e+06   1.892728e+05
  -1.842735e+05  -1.114260e+06
   1.589786e+06  -7.722567e+05
   1.821349e+06   7.935388e+05
   4.105477e+05   1.734951e+06
  -1.105666e+06   1.081948e+06
  -1.339410e+06  -2.640909e+05
  -3.050164e+05  -8.014758e+05
   8.121880e+05  -6.760406e+04
   7.693107e+05   1.104164e+06
  -6.176179e+05   1.500399e+06
  -2.127796e+06   5.637677e+05
  -2.148061e+06  -1.113464e+06
  -4.115849e+05  -2.185017e+06
   1.499130e+06  -1.739956e+06
   1.815691e+06  -2.463887e+05
   5.530698e+05   9.049551e+05
  -6.819701e+05   8.642170e+05
  -6.979883e+05   8.340245e+04
   9.572445e+04  -4.289639e+05
   5.536747e+05  -2.778453e+05
   2.117024e+05   7.405977e+04
  -4.259192e+05  -1.437231e+04
  -5.686068e+05  -6.501674e+05
   1.749387e+05  -1.242698e+06
   1.443133e+06  -9.622719e+05
   2.203336e+06   4.225424e+05
   1.554837e+06   2.048647e+06
  -2.201486e+05   2.575464e+06
  -1.708100e+06   1.539499e+06
  -1.824361e+06  -9.489192e+04
  -9.712750e+05  -9.748449e+05
  -3.649944e+05  -7.719517e+05
  -4.675402e+05  -2.873871e+05
  -6.101533e+05  -3.152137e+05
  -8.800668e+04  -7.749220e+05
   9.062632e+05  -9.653545e+05
   1.539998e+06  -3.793684e+05
   1.154777e+06   7.664074e+05
  -2.289143e+05   1.588815e+06
  -1.821533e+06   1.175705e+06
  -2.401030e+06  -4.923047e+05
  -1.234699e+06  -2.209287e+06
   1.020547e+06  -2.503302e+06
   2.656334e+06  -1.128642e+06
   2.509406e+06   6.434326e+05
   1.079091e+06   1.406347e+06
  -1.759767e+05   1.051562e+06
  -4.421978e+05   5.943320e+05
  -1.479648e+05   7.997071e+05
  -1.421079e+05   1.347343e+06
  -6.973337e+05   1.335470e+06
  -1.349543e+06   3.301571e+05
  -1.412440e+06  -1.145255e+06
  -5.922948e+05  -2.009425e+06
   6.597897e+05  -1.526700e+06
   1.366276e+06  -1.155542e+04
   8.754858e+05   1.336338e+06
  -3.769724e+05   1.474411e+06
  -1.189486e+06   4.682030e+05
  -8.513879e+05  -6.780286e+05
   8.962202e+04  -1.103305e+06
   5.139227e+05  -8.324623e+05
   6.566422e+04  -4.595918e+05
  -4.524912e+05  -3.663343e+05
  -5.943567e+04  -4.113586e+05
   1.198337e+06  -2.318442e+05
   2.162330e+06   3.362055e+05
   1.716014e+06   1.075149e+06
  -6.288926e+03   1.494319e+06
  -1.644948e+06   1.200998e+06
  -1.924871e+06   3.225857e+05
  -8.925129e+05  -4.783785e+05
   2.602881e+05  -5.833131e+05
   5.294368e+05  -5.323987e+04
   1.919783e+04   4.234822e+05
  -4.822301e+05   2.702318e+05
  -5.075199e+05  -3.619087e+05
  -2.439500e+05  -7.772886e+05
  -7.711456e+04  -5.129013e+05
  -1.462047e+05   1.212867e+05
  -3.141917e+05   3.384524e+05
  -2.981862e+05  -2.413347e+05
   1.583972e+05  -1.058228e+06
   9.481951e+05  -1.129329e+06
   1.413249e+06  -1.697418e+05
   8.757907e+05   9.710796e+05
  -4.381912e+05   1.184862e+06
  -1.317492e+06   3.354102e+05
  -7.781975e+05  -6.137602e+05
   7.346177e+05  -6.957345e+05
   1.696108e+06   7.865381e+04
   1.105620e+06   9.006618e+05
  -4.812127e+05   1.070583e+06
  -1.591614e+06   5.521616e+05
  -1.331129e+06  -1.754562e+05
  -1.587592e+05  -5.498801e+05
   6.842032e+05  -3.004743e+05
   4.006553e+05   3.039588e+05
  -6.317801e+05   5.482095e+05
  -1.258308e+06  -9.702308e+04
  -7.011468e+05  -1.263711e+06
   6.422353e+05  -1.809445e+06
   1.586826e+06  -9.380211e+05
   1.341435e+06   8.071402e+05
   2.238605e+05   1.911920e+06
  -7.799985e+05   1.393786e+06
  -9.882586e+05  -1.695738e+05
  -4.787209e+05  -1.263367e+06
   2.108176e+05  -1.040027e+06
   5.923019e+05  -9.865166e+04
   5.107016e+05   4.003086e+05
   1.883319e+05   1.473256e+05
   4.577744e+04  -1.048539e+05
   2.804753e+05   3.078054e+05
   5.413583e+05   1.024217e+06
   2.246787e+05   1.147998e+06
  -7.420865e+05   4.243745e+05
  -1.576965e+06  -4.866688e+05
  -1.382257e+06  -8.813708e+05
  -2.023698e+05  -7.402335e+05
   9.176847e+05  -4.534696e+05
   1.050799e+06  -2.053361e+05
   3.747270e+05   5.013168e+04
  -1.578084e+05   2.413550e+05
  -2.380912e+04   2.217511e+05
   2.964821e+05   1.021761e+05
   5.065712e+04   1.435031e+05
  -7.168647e+05   2.554812e+05
  -1.115569e+06  -8.150877e+03
  -4.505031e+05  -7.376092e+05
   9.000441e+05  -1.258864e+06
   1.801933e+06  -8.099981e+05
   1.497790e+06   4.582183e+05
   3.012972e+05   1.500006e+06
  -8.056499e+05   1.468911e+06
  -1.116794e+06   5.763153e+05
  -7.038291e+05  -2.466701e+05
  -1.419566e+05  -3.823075e+05
   8.351964e+04  -6.932093e+04
  -8.166151e+04   2.300620e+04
  -3.261019e+05  -3.858990e+05
  -2.732141e+05  -8.586330e+05
   1.874847e+05  -7.249998e+05
   7.310445e+05   1.266513e+05
   7.953182e+05   1.013794e+06
   1.264679e+05   1.101693e+06
  -8.068884e+05   2.683892e+05
  -1.111929e+06  -7.637530e+05
  -3.790419e+05  -1.160190e+06
   7.567474e+05  -7.266371e+05
   1.192145e+06   7.129120e+04
   5.681711e+05   6.462979e+05
  -3.017453e+05   7.216036e+05
  -3.977732e+05   3.926290e+05
   2.689469e+05   6.038860e+03
   6.937980e+05  -4.855696e+04
   1.576192e+05   3.272456e+05
  -8.733605e+05   7.325964e+05
  -1.332572e+06   5.887907e+05
  -8.089906e+05  -1.816070e+05
   9.539721e+04  -9.269784e+05
   5.784489e+05  -9.148795e+05
   4.510695e+05  -1.720052e+05
   6.189447e+04   5.131728e+05
  -2.525083e+05   4.658836e+05
  -3.797298e+05  -1.554028e+05
  -2.770321e+05  -6.135041e+05
   5.438929e+04  -4.548742e+05
   4.185212e+05   4.434719e+04
   5.078872e+05   2.934608e+05
   2.581373e+05   9.889096e+04
  -3.529851e+04  -1.593152e+05
  -8.473042e+04  -4.195060e+04
   1.555672e+04   3.815684e+05
  -5.337579e+04   5.901085e+05
  -3.433035e+05   2.350404e+05
  -4.938562e+05  -4.044734e+05
  -1.723658e+05  -6.936966e+05
   4.337348e+05  -3.409364e+05
   7.128454e+05   2.926939e+05
   2.780531e+05   6.105311e+05
  -5.370347e+05   3.951066e+05
  -9.429800e+05  -7.186482e+04
  -5.154167e+05  -3.978827e+05
   3.103966e+05  -4.298787e+05
   6.810529e+05  -2.496314e+05
   2.667550e+05  -2.058074e+04
  -3.712653e+05   7.936706e+04
  -4.386909e+05  -6.252655e+04
   1.745844e+05  -3.153992e+05
   7.904802e+05  -3.025909e+05
