
 $NMID
 id='ANONYMOUS ', fmtdat='(2E16.6)'
 volume=1.0
 tramp=1.0
 $END
  -2.267177e+07   1.901797e+06
  -1.583174e+07  -1.105156e+07
  -2.369948e+04  -1.518146e+07
   1.003743e+07  -8.964119e+06
   7.964095e+06   1.867941e+05
   2.721483e+04   4.144759e+06
  -4.487318e+06   1.273326e+06
  -2.820848e+06  -3.779804e+06
   1.469603e+06  -5.477717e+06
   4.126513e+06  -2.267720e+06
   3.518721e+06   2.558643e+06
   6.483079e+05   4.205223e+06
  -1.857370e+06   1.156009e+06
  -1.580060e+06  -3.154433e+06
   1.275343e+06  -3.947582e+06
   3.639783e+06  -2.654643e+05
   2.733432e+06   4.222544e+06
  -8.765927e+05   5.445535e+06
  -4.053021e+06   2.902883e+06
  -4.453684e+06  -7.478405e+05
  -2.463051e+06  -2.865932e+06
  -2.611656e+05  -2.876643e+06
   3.084470e+05  -1.959998e+06
  -7.063826e+05  -1.611580e+06
  -1.355186e+06  -2.280814e+06
   2.551792e+05  -2.919927e+06
   3.460135e+06  -2.094602e+06
   5.151558e+06   1.864360e+05
   3.243031e+06   2.171680e+06
  -5.420141e+05   2.245168e+06
  -2.468355e+06   6.705023e+05
  -1.091686e+06  -8.971738e+05
   1.446645e+06  -1.146414e+06
   2.387112e+06   2.324372e+04
   1.298470e+06   1.719026e+06
  -3.066633e+05   2.542260e+06
  -1.090392e+06   1.526240e+06
  -8.419842e+05  -5.648884e+05
  -1.094140e+05  -1.458385e+06
   2.629331e+05   1.346445e+04
  -3.176069e+05   1.963693e+06
  -1.374482e+06   1.530088e+06
  -1.460549e+06  -1.162692e+06
   1.623162e+05  -2.760807e+06
   2.158450e+06  -9.745231e+05
   2.255177e+06   2.335665e+06
  -1.385169e+05   3.466154e+06
  -3.023760e+06   1.310022e+06
  -3.750142e+06  -1.775297e+06
  -1.600839e+06  -3.019745e+06
   1.588062e+06  -1.882530e+06
   3.132779e+06   2.088390e+05
   1.886203e+06   1.547766e+06
  -7.447836e+05   1.323926e+06
  -2.161925e+06   8.663752e+03
  -1.211427e+06  -1.014855e+06
   6.464841e+05  -7.234285e+05
   1.123445e+06   3.921444e+05
  -1.571283e+05   8.690899e+05
  -1.323499e+06   7.241792e+04
  -6.834234e+05  -1.067271e+06
   1.218231e+06  -1.251094e+06
   2.335573e+06  -1.858545e+05
   1.425505e+06   1.416708e+06
  -8.465664e+05   2.572351e+06
  -2.790102e+06   2.443931e+06
  -3.185695e+06   7.383226e+05
  -2.054455e+06  -1.695209e+06
  -4.308308e+05  -3.152682e+06
   5.531010e+05  -2.699484e+06
   6.253832e+05  -1.273268e+06
   4.846044e+05  -5.089249e+05
   8.557025e+05  -6.743937e+05
   1.562307e+06  -5.687181e+05
   1.752365e+06   5.295562e+05
   9.400435e+05   1.693873e+06
  -4.280020e+05   1.536863e+06
  -1.381230e+06  -3.137097e+03
  -1.191172e+06  -1.578143e+06
   1.165216e+05  -1.873578e+06
   1.673011e+06  -7.494283e+05
   2.278978e+06   8.720156e+05
   1.442314e+06   1.886469e+06
  -3.209562e+04   1.839488e+06
  -8.685548e+05   1.173447e+06
  -8.139387e+05   6.879792e+05
  -8.524350e+05   6.573434e+05
  -1.710995e+06   5.611058e+05
  -2.641325e+06  -2.135555e+05
  -2.222524e+06  -1.538667e+06
  -2.025330e+05  -2.562890e+06
   1.992650e+06  -2.478725e+06
   2.686284e+06  -1.209130e+06
   1.585118e+06   4.817802e+05
  -9.100411e+04   1.457702e+06
  -8.691742e+05   1.080030e+06
  -3.151864e+05  -1.090902e+05
   7.395643e+05  -7.832754e+05
   1.113886e+06  -2.528244e+05
   4.663006e+05   6.792446e+05
  -3.983669e+05   7.099164e+05
  -4.502656e+05  -2.187779e+05
   4.070637e+05  -7.497195e+05
   1.232381e+06   1.486375e+05
   1.048151e+06   1.788014e+06
  -2.191771e+05   2.497890e+06
  -1.738920e+06   1.482275e+06
  -2.476203e+06  -4.427237e+05
  -1.918658e+06  -1.815237e+06
  -4.509806e+05  -1.868365e+06
   8.451749e+05  -9.721128e+05
   1.049658e+06  -1.052654e+05
   3.148103e+05   2.136315e+04
  -2.490518e+05  -4.639464e+05
   1.633478e+05  -7.915570e+05
   1.062199e+06  -4.057492e+05
   1.252165e+06   3.943567e+05
   3.446067e+05   7.990277e+05
  -6.998822e+05   4.280201e+05
  -6.764111e+05  -2.644177e+05
   4.679850e+05  -5.231029e+05
   1.553516e+06  -3.899732e+04
   1.399000e+06   8.439600e+05
   6.232752e+02   1.446287e+06
  -1.475287e+06   1.237095e+06
  -1.793611e+06   2.701997e+05
  -7.911507e+05  -7.176898e+05
   4.994084e+05  -8.764128e+05
   8.674455e+05  -1.363157e+05
   9.122074e+04   6.129116e+05
  -9.220040e+05   4.766965e+05
  -1.123458e+06  -4.058355e+05
  -3.562893e+05  -1.039819e+06
   5.942776e+05  -7.601911e+05
   8.501236e+05   4.251018e+04
   2.747573e+05   4.561090e+05
  -4.424093e+05   7.740988e+04
  -4.619343e+05  -6.339713e+05
   3.655805e+05  -8.933579e+05
   1.272905e+06  -3.426631e+05
   1.291579e+06   6.471706e+05
   2.843378e+05   1.293723e+06
  -8.421167e+05   1.075381e+06
  -1.080723e+06   2.128132e+05
  -3.843942e+05  -5.228317e+05
   3.807390e+05  -5.563230e+05
   4.633240e+05  -5.073243e+04
  -2.516961e+04   3.469153e+05
  -4.077154e+05   2.500629e+05
  -2.569018e+05  -8.486030e+04
   2.081570e+05  -1.237972e+05
   4.092731e+05   2.962822e+05
  -1.503393e+04   7.472011e+05
  -8.319052e+05   6.274964e+05
  -1.336909e+06  -2.045748e+05
  -9.675507e+05  -1.203517e+06
   9.571818e+04  -1.576684e+06
   1.028261e+06  -1.017765e+06
   1.174565e+06  -9.897046e+03
   6.874444e+05   6.460127e+05
   2.400745e+05   6.059274e+05
   2.003415e+05   2.410507e+05
   2.915467e+05   1.339489e+05
   6.267254e+04   4.075000e+05
  -5.062249e+05   6.200125e+05
  -9.511280e+05   3.002953e+05
  -7.748930e+05  -4.718775e+05
   8.147661e+04  -1.047180e+06
   1.100652e+06  -7.944340e+05
   1.494922e+06   2.485023e+05
   8.300392e+05   1.309599e+06
  -5.076226e+05   1.537785e+06
  -1.545741e+06   7.844112e+05
  -1.576465e+06  -2.796260e+05
  -7.805186e+05  -8.471975e+05
   4.768970e+04  -7.369941e+05
   3.337969e+05  -4.382865e+05
   1.890584e+05  -4.577105e+05
   1.095797e+05  -7.382674e+05
   3.731241e+05  -7.692844e+05
   7.726995e+05  -2.090352e+05
   8.539610e+05   6.765898e+05
   3.784574e+05   1.210895e+06
  -3.872298e+05   9.327330e+05
  -8.371509e+05   4.126229e+04
  -5.764933e+05  -7.652819e+05
   1.495518e+05  -9.020283e+05
   6.599976e+05  -3.778141e+05
   5.347786e+05   2.956171e+05
   4.156966e+04   6.246259e+05
  -2.124359e+05   5.385940e+05
  -2.706079e+03   3.208753e+05
   2.597595e+05   2.320265e+05
   2.988991e+04   2.546478e+05
  -6.933596e+05   1.751599e+05
  -1.274335e+06  -1.455596e+05
  -1.059550e+06  -5.945065e+05
  -7.971004e+04  -8.723981e+05
   9.107594e+05  -7.439469e+05
   1.144019e+06  -2.681466e+05
   5.798949e+05   2.066893e+05
  -1.143005e+05   3.278254e+05
  -3.051937e+05   7.322440e+04
  -2.592884e+03  -2.088785e+05
   3.097340e+05  -1.533905e+05
   3.032884e+05   2.123223e+05
   1.014761e+05   4.741274e+05
   2.127348e+03   3.048918e+05
   9.933359e+04  -1.119559e+05
   2.352062e+05  -2.489392e+05
   1.955536e+05   1.378270e+05
  -1.114851e+05   6.576654e+05
  -5.548264e+05   6.872363e+05
  -7.842144e+05   9.613315e+04
  -4.792798e+05  -5.683007e+05
   2.415711e+05  -6.726443e+05
   7.483508e+05  -1.738793e+05
   4.680669e+05   3.781743e+05
  -4.237522e+05   4.454425e+05
  -1.059892e+06   2.451613e+03
  -7.592506e+05  -5.291190e+05
   2.311597e+05  -7.115686e+05
   9.871680e+05  -4.326294e+05
   8.681178e+05   5.585402e+04
   1.304253e+05   3.499656e+05
  -4.095731e+05   2.195349e+05
  -2.324980e+05  -1.590204e+05
   3.982600e+05  -3.094456e+05
   7.529146e+05   8.450905e+04
   3.863264e+05   7.724180e+05
  -4.260893e+05   1.075000e+06
  -9.767713e+05   5.443232e+05
  -8.180934e+05  -4.982516e+05
  -1.457322e+05  -1.174451e+06
   4.675450e+05  -8.876059e+05
   6.214113e+05   6.019308e+04
   3.431508e+05   7.678746e+05
  -7.588292e+04   6.720373e+05
  -3.502878e+05   8.889382e+04
  -3.488010e+05  -2.530574e+05
  -1.520822e+05  -1.067707e+05
  -1.443627e+04   7.884534e+04
  -1.249768e+05  -1.495833e+05
  -3.228441e+05  -6.052383e+05
  -1.933474e+05  -7.156907e+05
   3.981622e+05  -2.846581e+05
   9.759409e+05   2.842555e+05
   8.968283e+05   5.322602e+05
   1.380123e+05   4.419829e+05
  -5.931990e+05   2.746528e+05
  -6.567141e+05   1.475176e+05
  -2.014360e+05   1.289604e+03
   1.082557e+05  -1.420786e+05
  -2.817358e+04  -1.659294e+05
  -2.247400e+05  -9.419175e+04
  -1.275053e+04  -8.675545e+04
   4.829449e+05  -1.332647e+05
   6.706034e+05   1.142933e+04
   2.100196e+05   4.258622e+05
  -5.806760e+05   7.344054e+05
  -1.053258e+06   4.733455e+05
  -8.497114e+05  -2.874358e+05
  -1.706866e+05  -9.157786e+05
   4.669156e+05  -8.838438e+05
   6.695416e+05  -3.237903e+05
   4.313324e+05   1.743298e+05
   6.777038e+04   2.273390e+05
  -8.645630e+04   7.359272e+03
   3.992013e+04  -4.912621e+04
   2.247516e+05   2.225926e+05
   1.893242e+05   5.237433e+05
  -1.185577e+05   4.296394e+05
  -4.483775e+05  -1.073143e+05
  -4.538097e+05  -6.390996e+05
  -3.049974e+04  -6.547620e+05
   5.092376e+05  -1.166760e+05
   6.557607e+05   4.989523e+05
   2.044054e+05   6.957898e+05
  -4.588832e+05   4.087552e+05
  -6.995154e+05  -4.888071e+04
  -3.266162e+05  -3.554074e+05
   1.707592e+05  -3.985980e+05
   2.016288e+05  -2.363879e+05
  -2.012652e+05  -2.573904e+04
  -4.308033e+05   2.302296e+04
  -8.393762e+04  -1.878700e+05
   5.290789e+05  -4.533753e+05
   7.778438e+05  -3.987500e+05
   4.567170e+05   6.848370e+04
  -5.601682e+04   5.462144e+05
  -3.098824e+05   5.466973e+05
  -2.274755e+05   8.319334e+04
  -1.424189e+04  -3.245029e+05
   1.560595e+05  -2.598777e+05
   2.268498e+05   1.303298e+05
   1.634402e+05   3.722143e+05
  -3.613539e+04   2.409548e+05
  -2.496956e+05  -4.194258e+04
  -3.004561e+05  -1.491632e+05
  -1.605090e+05  -3.641359e+04
   8.169484e+03   6.454240e+04
   6.128741e+04  -3.455503e+04
   4.516754e+04  -2.463727e+05
   9.703238e+04  -3.050616e+05
   2.195698e+05  -7.175125e+04
   2.435240e+05   2.802068e+05
   3.886482e+04   4.151526e+05
  -2.784208e+05   1.857325e+05
  -4.037250e+05  -1.972026e+05
  -1.476376e+05  -3.817902e+05
   3.132844e+05  -2.366805e+05
   5.471267e+05   5.562862e+04
   3.017619e+05   2.399015e+05
  -1.830886e+05   2.330950e+05
  -3.969196e+05   1.194409e+05
  -1.315490e+05   1.178543e+04
   2.608271e+05  -1.125711e+04
   2.749783e+05   8.212389e+04
  -1.435232e+05   2.105088e+05
  -5.340602e+05   1.729000e+05
