
 $NMID
 id='ANONYMOUS ', fmtdat='(2E16.6)'
 volume=1.0
 tramp=1.0
 $END
   5.653360e+07  -7.171908e+05
   3.432093e+07   3.468500e+07
  -7.123290e+06   3.833605e+07
  -2.748631e+07   1.488423e+07
  -1.649331e+07  -6.943793e+06
   3.269309e+06  -9.358104e+06
   9.807582e+06   1.188762e+06
   2.815392e+06   9.736414e+06
  -6.111423e+06   9.326495e+06
  -9.606153e+06   2.056281e+06
  -7.071994e+06  -6.098516e+06
  -9.498241e+05  -8.566507e+06
   3.948432e+06  -2.821552e+06
   2.717415e+06   5.342092e+06
  -3.663618e+06   6.535372e+06
  -7.873512e+06  -1.267005e+06
  -4.555484e+06  -1.014916e+07
   3.643474e+06  -1.184094e+07
   1.004444e+07  -6.052422e+06
   1.088086e+07   1.893173e+06
   6.783078e+06   7.432759e+06
   8.194461e+05   8.723510e+06
  -2.905744e+06   6.141206e+06
  -1.912643e+06   2.659725e+06
   1.119308e+06   2.021976e+06
   3.840171e+05   4.111586e+06
  -5.255934e+06   4.516651e+06
  -9.620505e+06   7.179354e+05
  -7.130883e+06  -3.987709e+06
  -3.865335e+05  -5.086903e+06
   3.637475e+06  -2.698773e+06
   2.506382e+06  -1.211908e+05
  -4.879504e+05   9.350028e+05
  -2.187670e+06   5.884510e+05
  -2.234219e+06  -1.311938e+06
  -8.297002e+05  -3.889165e+06
   1.723352e+06  -3.913798e+06
   3.296048e+06   2.871793e+04
   1.817769e+06   3.642154e+06
  -7.741573e+05   1.998988e+06
  -4.432969e+05  -2.411102e+06
   2.392305e+06  -2.325273e+06
   2.474307e+06   3.166139e+06
  -2.389020e+06   6.158458e+06
  -6.991712e+06   1.073234e+06
  -5.225101e+06  -6.903028e+06
   1.828362e+06  -8.577059e+06
   7.411900e+06  -2.523310e+06
   6.990703e+06   4.339126e+06
   1.907811e+06   5.972555e+06
  -3.419918e+06   2.732871e+06
  -5.234611e+06  -1.454183e+06
  -2.435880e+06  -3.436796e+06
   2.399017e+06  -2.211105e+06
   4.532581e+06   8.747241e+05
   1.971596e+06   2.698920e+06
  -1.704199e+06   1.391316e+06
  -1.737780e+06  -9.969292e+05
   1.325267e+06  -9.040681e+05
   2.477190e+06   1.762690e+06
  -6.291618e+05   3.462099e+06
  -4.645012e+06   1.937626e+06
  -5.315748e+06  -1.318433e+06
  -2.355211e+06  -3.957236e+06
   1.711082e+06  -5.293552e+06
   4.897899e+06  -4.935069e+06
   6.154827e+06  -1.868026e+06
   4.653231e+06   3.071065e+06
   1.059442e+06   6.148287e+06
  -1.790269e+06   4.772916e+06
  -1.740118e+06   1.206347e+06
  -1.288090e+05  -2.769196e+05
   1.035271e+05   9.916600e+05
  -1.535646e+06   1.861300e+06
  -2.810837e+06   3.408428e+05
  -2.092996e+06  -1.856410e+06
  -1.043338e+05  -2.136077e+06
   1.522387e+06  -2.578777e+05
   1.715905e+06   2.011033e+06
   7.502740e+04   2.923149e+06
  -2.727663e+06   1.722227e+06
  -4.506786e+06  -1.092516e+06
  -3.306672e+06  -3.710004e+06
  -3.496910e+04  -4.252218e+06
   2.251216e+06  -2.768972e+06
   2.232070e+06  -1.166277e+06
   1.823092e+06  -6.972591e+05
   2.923574e+06  -5.194656e+05
   4.349179e+06   6.876308e+05
   3.525304e+06   2.698580e+06
   2.054362e+05   4.113947e+06
  -3.120545e+06   3.955544e+06
  -4.120435e+06   2.212904e+06
  -2.671806e+06  -3.520825e+05
  -3.416984e+05  -2.228758e+06
   1.049586e+06  -1.968361e+06
   5.688742e+05   1.906747e+04
  -1.057679e+06   1.335607e+06
  -1.904634e+06   4.353505e+05
  -9.527787e+05  -1.194476e+06
   4.895215e+05  -1.125575e+06
   4.220270e+05   3.796186e+05
  -1.066126e+06   6.890814e+05
  -1.862615e+06  -1.299302e+06
  -6.557112e+05  -3.487982e+06
   1.576894e+06  -3.394137e+06
   3.117339e+06  -1.105301e+06
   3.290798e+06   1.407931e+06
   2.287303e+06   2.696708e+06
   4.947965e+05   2.577155e+06
  -1.205056e+06   1.485833e+06
  -1.569894e+06   2.642189e+05
  -4.937400e+05  -3.683912e+04
   3.712374e+05   7.472402e+05
  -3.989767e+05   1.355790e+06
  -1.913944e+06   6.105943e+05
  -2.055877e+06  -8.680883e+05
  -4.008391e+05  -1.421376e+06
   1.167700e+06  -5.873356e+05
   8.870660e+05   4.407188e+05
  -8.459119e+05   5.148433e+05
  -2.167655e+06  -3.038555e+05
  -1.739331e+06  -1.322909e+06
   2.267052e+05  -1.953850e+06
   2.276511e+06  -1.680036e+06
   2.768571e+06  -3.170362e+05
   1.241068e+06   1.254705e+06
  -9.032453e+05   1.531838e+06
  -1.574976e+06   2.170635e+05
  -2.263334e+05  -1.089304e+06
   1.511746e+06  -7.672830e+05
   1.733258e+06   7.620468e+05
   3.511839e+05   1.650291e+06
  -1.088207e+06   9.803936e+05
  -1.258169e+06  -3.098396e+05
  -2.442817e+05  -7.838435e+05
   8.070026e+05  -6.399879e+04
   7.612113e+05   1.047628e+06
  -5.490886e+05   1.443064e+06
  -2.004418e+06   5.861724e+05
  -2.064485e+06  -1.015290e+06
  -4.208608e+05  -2.077618e+06
   1.422793e+06  -1.671933e+06
   1.729746e+06  -2.328681e+05
   5.107309e+05   8.658800e+05
  -6.507488e+05   8.119591e+05
  -6.254127e+05   8.956871e+04
   1.178284e+05  -3.464081e+05
   4.734528e+05  -2.030636e+05
   9.855924e+04   5.445074e+04
  -4.599609e+05  -9.475540e+04
  -5.187773e+05  -6.821826e+05
   2.013844e+05  -1.194356e+06
   1.375340e+06  -9.163646e+05
   2.094246e+06   3.823598e+05
   1.503594e+06   1.924864e+06
  -1.740439e+05   2.427051e+06
  -1.589879e+06   1.431082e+06
  -1.680568e+06  -1.051759e+05
  -8.571150e+05  -8.682709e+05
  -3.279428e+05  -6.175557e+05
  -5.000761e+05  -1.961597e+05
  -6.507077e+05  -3.128359e+05
  -1.049185e+05  -7.765389e+05
   8.679292e+05  -9.130615e+05
   1.439782e+06  -3.404465e+05
   1.050252e+06   6.996748e+05
  -2.321574e+05   1.448948e+06
  -1.702890e+06   1.092681e+06
  -2.253383e+06  -4.478199e+05
  -1.161951e+06  -2.086420e+06
   9.861927e+05  -2.386627e+06
   2.539446e+06  -1.064450e+06
   2.356541e+06   6.354628e+05
   9.578281e+05   1.322022e+06
  -1.993492e+05   9.296817e+05
  -3.645251e+05   5.023992e+05
  -4.061718e+04   7.624827e+05
  -7.062880e+04   1.328831e+06
  -6.550429e+05   1.313977e+06
  -1.299222e+06   3.450961e+05
  -1.364174e+06  -1.057147e+06
  -5.948032e+05  -1.887533e+06
   5.945094e+05  -1.451834e+06
   1.285972e+06  -1.775412e+04
   8.308807e+05   1.278457e+06
  -3.792456e+05   1.404976e+06
  -1.169845e+06   4.095880e+05
  -8.230607e+05  -7.075533e+05
   1.223376e+05  -1.090133e+06
   5.434558e+05  -7.871016e+05
   8.485303e+04  -4.086755e+05
  -4.450781e+05  -3.242541e+05
  -7.012653e+04  -3.813429e+05
   1.153919e+06  -2.274732e+05
   2.082884e+06   3.011916e+05
   1.638454e+06   1.016643e+06
  -2.644414e+04   1.446612e+06
  -1.587949e+06   1.174269e+06
  -1.834492e+06   3.008828e+05
  -8.366687e+05  -4.973133e+05
   2.595434e+05  -5.823787e+05
   5.158445e+05  -3.499366e+04
   4.288747e+04   4.332988e+05
  -4.330134e+05   2.719518e+05
  -4.917725e+05  -3.330471e+05
  -2.838503e+05  -7.171602e+05
  -1.200107e+05  -4.791529e+05
  -1.326391e+05   8.741766e+04
  -2.607990e+05   2.870027e+05
  -2.773098e+05  -2.287473e+05
   1.137372e+05  -9.868936e+05
   8.810434e+05  -1.089190e+06
   1.381401e+06  -2.114571e+05
   8.916914e+05   9.008422e+05
  -3.945608e+05   1.165753e+06
  -1.266757e+06   3.789283e+05
  -7.506182e+05  -5.538808e+05
   6.948990e+05  -6.595647e+05
   1.584404e+06   7.441016e+04
   1.000124e+06   8.476897e+05
  -4.820402e+05   9.832674e+05
  -1.484599e+06   4.829880e+05
  -1.220694e+06  -1.796145e+05
  -1.350467e+05  -5.070483e+05
   6.470351e+05  -2.728878e+05
   3.968776e+05   2.939214e+05
  -5.667915e+05   5.473190e+05
  -1.191872e+06  -3.921573e+04
  -7.205261e+05  -1.162834e+06
   5.291070e+05  -1.732264e+06
   1.457265e+06  -9.397198e+05
   1.279379e+06   7.212502e+05
   2.487890e+05   1.786324e+06
  -7.109270e+05   1.301791e+06
  -9.254257e+05  -1.706915e+05
  -4.425258e+05  -1.185438e+06
   2.182796e+05  -9.621812e+05
   5.668961e+05  -8.717690e+04
   4.601919e+05   3.627861e+05
   1.499174e+05   1.268526e+05
   5.289981e+04  -9.049556e+04
   3.116494e+05   3.040653e+05
   5.421957e+05   9.627869e+05
   1.943056e+05   1.070275e+06
  -7.319845e+05   4.057965e+05
  -1.485046e+06  -4.305182e+05
  -1.280731e+06  -8.067979e+05
  -1.987044e+05  -7.000829e+05
   8.257789e+05  -4.448167e+05
   9.739636e+05  -1.993633e+05
   3.786950e+05   5.780100e+04
  -1.325637e+05   2.326559e+05
  -5.382924e+04   1.924216e+05
   2.431277e+05   7.155957e+04
   6.487676e+04   1.314305e+05
  -6.295289e+05   2.675135e+05
  -1.054907e+06   2.589338e+04
  -4.937920e+05  -6.902918e+05
   7.860544e+05  -1.225181e+06
   1.704843e+06  -8.277213e+05
   1.465517e+06   3.782540e+05
   3.294259e+05   1.399545e+06
  -7.378504e+05   1.412869e+06
  -1.039923e+06   5.914616e+05
  -6.621985e+05  -1.969901e+05
  -1.577739e+05  -3.573201e+05
   4.467864e+04  -8.801691e+04
  -8.902934e+04  -1.302125e+03
  -2.983373e+05  -3.682975e+05
  -2.605574e+05  -8.036705e+05
   1.534261e+05  -6.946529e+05
   6.835418e+05   7.895243e+04
   7.924233e+05   9.128316e+05
   1.834700e+05   1.037943e+06
  -7.315709e+05   3.046636e+05
  -1.075303e+06  -6.621870e+05
  -4.064748e+05  -1.085794e+06
   6.901235e+05  -7.276367e+05
   1.141979e+06   2.961865e+04
   5.706491e+05   6.196487e+05
  -2.695951e+05   7.187876e+05
  -3.946355e+05   3.872718e+05
   2.214392e+05  -1.178754e+04
   6.440250e+05  -6.634067e+04
   1.670950e+05   3.106309e+05
  -8.065633e+05   7.053392e+05
  -1.270277e+06   5.612929e+05
  -7.987980e+05  -1.771351e+05
   6.572602e+04  -8.881841e+05
   5.518637e+05  -8.889486e+05
   4.522334e+05  -1.963293e+05
   8.662018e+04   4.684379e+05
  -2.206463e+05   4.619310e+05
  -3.587418e+05  -1.092603e+05
  -2.797580e+05  -5.703999e+05
   3.217357e+04  -4.558055e+05
   3.962696e+05   1.939233e+04
   4.960240e+05   2.844185e+05
   2.463546e+05   1.051095e+05
  -5.213589e+04  -1.713756e+05
  -8.265983e+04  -8.414225e+04
   6.299614e+04   3.394912e+05
   2.124842e+04   5.872351e+05
  -2.981810e+05   2.816190e+05
  -5.122470e+05  -3.339199e+05
  -2.300345e+05  -6.434615e+05
   3.854012e+05  -3.455582e+05
   6.975301e+05   2.388146e+05
   2.912661e+05   5.564786e+05
  -5.051122e+05   3.898193e+05
  -9.071737e+05  -3.134554e+04
  -5.039613e+05  -3.614802e+05
   2.814156e+05  -4.344027e+05
   6.427615e+05  -2.787471e+05
   2.735147e+05  -3.122375e+04
  -3.153188e+05   1.063203e+05
  -4.014032e+05  -1.606210e+04
   1.312572e+05  -2.812653e+05
   6.945227e+05  -3.044058e+05
