
 $NMID
 id='ANONYMOUS ', fmtdat='(2E16.6)'
 volume=1.0
 tramp=1.0
 $END
   2.626024e+07  -5.099705e+05
   1.762415e+07   1.270367e+07
  -2.381935e+05   1.693586e+07
  -1.151980e+07   1.063651e+07
  -9.363656e+06   5.239418e+05
  -3.303917e+05  -4.746562e+06
   5.280271e+06  -2.013667e+06
   3.716077e+06   4.285552e+06
  -1.433427e+06   6.908657e+06
  -4.887657e+06   2.987182e+06
  -4.190538e+06  -3.295120e+06
  -5.819881e+05  -5.321547e+06
   2.446723e+06  -1.207730e+06
   1.978131e+06   4.279888e+06
  -1.527931e+06   5.107124e+06
  -4.344027e+06   4.103888e+05
  -3.209322e+06  -5.096413e+06
   1.175195e+06  -6.460716e+06
   4.947358e+06  -3.162685e+06
   5.136838e+06   1.353641e+06
   2.377393e+06   3.614580e+06
  -2.024275e+05   3.070475e+06
  -2.560328e+05   1.787677e+06
   1.524907e+06   1.895046e+06
   2.127770e+06   3.356963e+06
  -5.433843e+05   4.124829e+06
  -4.903028e+06   2.512039e+06
  -6.767108e+06  -7.466911e+05
  -3.869391e+06  -3.114831e+06
   1.204225e+06  -2.834975e+06
   3.582170e+06  -5.274493e+05
   1.440330e+06   1.641362e+06
  -2.287011e+06   1.862502e+06
  -3.619921e+06  -8.604184e+04
  -1.791475e+06  -2.677654e+06
   7.626436e+05  -3.580023e+06
   1.664640e+06  -1.715436e+06
   7.930346e+05   1.158885e+06
  -3.613687e+05   1.857013e+06
  -4.669669e+05  -4.779812e+05
   6.195054e+05  -2.882118e+06
   1.850210e+06  -2.030309e+06
   1.788331e+06   1.361291e+06
  -1.950740e+04   3.172403e+06
  -2.166461e+06   1.030545e+06
  -2.354859e+06  -2.713075e+06
   2.294700e+05  -3.902307e+06
   3.626392e+06  -1.356691e+06
   4.670814e+06   2.287866e+06
   2.102328e+06   3.830242e+06
  -1.998354e+06   2.473385e+06
  -4.079852e+06  -1.673502e+05
  -2.529032e+06  -1.902963e+06
   8.149091e+05  -1.641810e+06
   2.623842e+06  -2.848917e+04
   1.498658e+06   1.197700e+06
  -7.836501e+05   8.527219e+05
  -1.486282e+06  -4.865068e+05
  -2.463149e+04  -1.178066e+06
   1.548872e+06  -4.128454e+05
   1.090193e+06   9.477969e+05
  -1.117596e+06   1.423089e+06
  -2.683328e+06   3.694624e+05
  -1.710188e+06  -1.612033e+06
   1.255163e+06  -3.164490e+06
   3.843142e+06  -2.955292e+06
   4.163919e+06  -6.572579e+05
   2.402437e+06   2.402520e+06
   3.029552e+05   4.075138e+06
  -6.886530e+05   3.449597e+06
  -6.572164e+05   1.798800e+06
  -7.021820e+05   9.506960e+05
  -1.468331e+06   1.035615e+06
  -2.411244e+06   6.152678e+05
  -2.459386e+06  -1.012574e+06
  -1.176324e+06  -2.549845e+06
   7.608229e+05  -2.206656e+06
   2.037293e+06   3.700543e+04
   1.650336e+06   2.260689e+06
  -2.634805e+05   2.569833e+06
  -2.322546e+06   8.478714e+05
  -2.899795e+06  -1.390873e+06
  -1.615816e+06  -2.540056e+06
   2.400097e+05  -2.216758e+06
   1.110729e+06  -1.289975e+06
   9.303958e+05  -8.021214e+05
   1.041018e+06  -8.924034e+05
   2.252289e+06  -7.686340e+05
   3.500619e+06   3.059902e+05
   2.937629e+06   2.092102e+06
   2.199660e+05   3.453226e+06
  -2.777357e+06   3.295029e+06
  -3.726951e+06   1.508756e+06
  -2.138297e+06  -8.001849e+05
   2.589947e+05  -2.034087e+06
   1.303597e+06  -1.413929e+06
   4.270863e+05   1.973512e+05
  -1.057458e+06   1.032944e+06
  -1.494063e+06   2.905507e+05
  -5.577891e+05  -9.314661e+05
   5.936939e+05  -9.663180e+05
   6.662084e+05   2.758765e+05
  -4.383695e+05   1.073027e+06
  -1.587786e+06  -2.686258e+03
  -1.517957e+06  -2.221557e+06
   6.191193e+04  -3.381321e+06
   2.207632e+06  -2.182400e+06
   3.404350e+06   4.674249e+05
   2.715916e+06   2.482739e+06
   6.366894e+05   2.601743e+06
  -1.195246e+06   1.313425e+06
  -1.452760e+06   9.832122e+04
  -4.260999e+05  -3.818884e+04
   3.291295e+05   6.311810e+05
  -2.230155e+05   1.035263e+06
  -1.400521e+06   5.063415e+05
  -1.650552e+06  -5.268856e+05
  -4.617951e+05  -1.050502e+06
   9.412593e+05  -5.777442e+05
   9.494509e+05   3.544346e+05
  -5.939469e+05   7.529758e+05
  -2.130771e+06   1.147981e+05
  -1.971591e+06  -1.140258e+06
  -3.898943e+04  -2.007888e+06
   2.019850e+06  -1.696852e+06
   2.442016e+06  -3.430127e+05
   1.042439e+06   9.710613e+05
  -6.927352e+05   1.133622e+06
  -1.138991e+06   1.403143e+05
  -7.900713e+04  -8.176227e+05
   1.253661e+06  -6.135014e+05
   1.510142e+06   5.531755e+05
   4.971157e+05   1.400463e+06
  -7.774501e+05   1.047850e+06
  -1.149660e+06  -2.330758e+04
  -3.959632e+05  -5.983116e+05
   5.736039e+05  -9.924993e+04
   5.999454e+05   8.619946e+05
  -5.256164e+05   1.195726e+06
  -1.737362e+06   4.212319e+05
  -1.726867e+06  -9.156587e+05
  -3.515989e+05  -1.751225e+06
   1.150590e+06  -1.430413e+06
   1.457929e+06  -2.755942e+05
   5.233998e+05   7.053885e+05
  -5.165452e+05   7.552966e+05
  -6.555348e+05   6.389689e+04
   5.875193e+03  -5.062946e+05
   5.763523e+05  -3.859965e+05
   4.188565e+05   1.087376e+05
  -2.284049e+05   2.108256e+05
  -5.513764e+05  -3.541137e+05
   4.771988e+03  -9.900212e+05
   1.122777e+06  -8.356953e+05
   1.801861e+06   2.999434e+05
   1.278890e+06   1.649069e+06
  -1.646266e+05   2.143658e+06
  -1.414036e+06   1.389224e+06
  -1.617222e+06   2.000570e+04
  -9.732319e+05  -9.078074e+05
  -3.472165e+05  -8.957927e+05
  -2.404072e+05  -3.876105e+05
  -3.400708e+05  -1.838419e+05
  -5.923080e+04  -5.233308e+05
   6.814242e+05  -8.304356e+05
   1.294332e+06  -4.128057e+05
   1.074022e+06   6.533542e+05
  -9.942021e+04   1.447398e+06
  -1.503532e+06   1.081149e+06
  -2.033717e+06  -3.567214e+05
  -1.117616e+06  -1.778981e+06
   6.867671e+05  -2.060806e+06
   2.078860e+06  -1.047357e+06
   2.138688e+06   3.704439e+05
   1.093418e+06   1.149190e+06
  -3.819565e+04   1.036155e+06
  -4.825463e+05   6.389448e+05
  -3.281193e+05   6.286001e+05
  -2.063730e+05   9.706608e+05
  -5.222662e+05   1.003942e+06
  -1.036754e+06   2.507988e+05
  -1.134827e+06  -9.443594e+05
  -4.809874e+05  -1.655746e+06
   5.527940e+05  -1.258538e+06
   1.138890e+06  -4.595160e+04
   7.703365e+05   1.030363e+06
  -1.954272e+05   1.208909e+06
  -8.603469e+05   5.223898e+05
  -6.991060e+05  -3.610474e+05
  -7.037684e+04  -8.077211e+05
   2.518412e+05  -7.190039e+05
  -1.304545e+04  -4.490634e+05
  -3.401035e+05  -3.336083e+05
  -2.945331e+04  -3.512910e+05
   9.256361e+05  -2.223045e+05
   1.698118e+06   2.237637e+05
   1.418140e+06   8.145822e+05
   1.111794e+05   1.155089e+06
  -1.221096e+06   9.686361e+05
  -1.540275e+06   3.547607e+05
  -7.821269e+05  -2.522159e+05
   1.524084e+05  -4.192341e+05
   4.004988e+05  -1.049217e+05
  -2.086603e+04   2.628070e+05
  -4.389976e+05   1.958317e+05
  -4.011286e+05  -2.983391e+05
  -9.837421e+04  -6.621618e+05
   3.167316e+04  -4.234538e+05
  -1.349176e+05   1.698417e+05
  -3.396216e+05   3.632461e+05
  -2.657398e+05  -1.854527e+05
   1.786201e+05  -9.020186e+05
   7.683990e+05  -9.126310e+05
   1.036609e+06  -8.292483e+04
   6.021998e+05   7.931069e+05
  -3.519656e+05   8.792075e+05
  -1.007739e+06   1.831765e+05
  -6.234220e+05  -5.360443e+05
   5.771913e+05  -5.977257e+05
   1.447312e+06   2.928006e+03
   1.054571e+06   7.182515e+05
  -2.957736e+05   9.766952e+05
  -1.347513e+06   6.072563e+05
  -1.198434e+06  -6.740906e+04
  -1.860538e+05  -4.814003e+05
   5.544337e+05  -3.020172e+05
   3.004055e+05   2.148165e+05
  -5.663258e+05   4.001005e+05
  -1.024204e+06  -1.567257e+05
  -4.812594e+05  -1.078647e+06
   6.427388e+05  -1.447398e+06
   1.363779e+06  -6.977307e+05
   1.101048e+06   7.118968e+05
   1.645450e+05   1.610534e+06
  -6.560881e+05   1.212080e+06
  -8.450470e+05  -7.780247e+04
  -4.667637e+05  -1.046440e+06
   9.124206e+04  -9.209956e+05
   4.687162e+05  -1.212760e+05
   4.882342e+05   3.526296e+05
   2.267385e+05   1.503338e+05
   1.243246e+04  -1.113923e+05
   1.337834e+05   2.006466e+05
   4.118785e+05   8.298653e+05
   2.708916e+05   9.784511e+05
  -5.205540e+05   3.748047e+05
  -1.326807e+06  -4.124161e+05
  -1.231326e+06  -7.423203e+05
  -1.779672e+05  -5.998175e+05
   8.364250e+05  -3.613055e+05
   9.041446e+05  -1.934794e+05
   2.539171e+05  -4.047141e+03
  -1.601653e+05   1.907011e+05
   6.082851e+04   2.323936e+05
   3.328791e+05   1.411806e+05
   5.601997e+03   1.224780e+05
  -6.916717e+05   1.651519e+05
  -9.119397e+05  -4.398973e+04
  -2.344141e+05  -5.922588e+05
   8.419385e+05  -9.738895e+05
   1.436839e+06  -5.887412e+05
   1.120456e+06   4.410772e+05
   1.950540e+05   1.259707e+06
  -6.585543e+05   1.178617e+06
  -9.258049e+05   4.026260e+05
  -5.895817e+05  -2.637947e+05
  -7.431083e+04  -3.140998e+05
   1.440169e+05   1.634099e+03
  -4.284614e+04   8.066352e+04
  -3.089960e+05  -2.989903e+05
  -2.520442e+05  -7.162188e+05
   1.815388e+05  -5.776961e+05
   6.171590e+05   1.759186e+05
   5.874239e+05   9.060939e+05
  -8.107477e+03   8.979645e+05
  -7.192215e+05   1.225734e+05
  -8.749834e+05  -7.258087e+05
  -2.388776e+05  -9.576148e+05
   6.475193e+05  -5.244603e+05
   9.408896e+05   1.000601e+05
   4.146403e+05   4.818187e+05
  -2.499076e+05   5.145578e+05
  -2.636735e+05   3.047920e+05
   2.975234e+05   4.444248e+04
   5.941486e+05  -1.507177e+04
   9.916439e+04   2.564380e+05
  -7.347640e+05   6.031399e+05
  -1.049149e+06   5.288824e+05
  -5.929663e+05  -9.719807e+04
   9.895416e+04  -7.339342e+05
   4.234863e+05  -7.198460e+05
   2.949545e+05  -8.351259e+04
  -7.761169e+02   4.548298e+05
  -2.288417e+05   3.377700e+05
  -3.112576e+05  -2.045911e+05
  -2.070389e+05  -5.141668e+05
   6.785434e+04  -3.103453e+05
   3.403352e+05   7.462379e+04
   3.934006e+05   2.015511e+05
   2.136716e+05   4.275769e+04
   5.408300e+03  -7.541506e+04
  -7.529523e+04   7.715393e+04
  -9.401014e+04   3.546788e+05
  -1.881421e+05   4.014035e+05
  -3.244853e+05   5.726142e+04
  -3.021950e+05  -4.214625e+05
  -3.908118e+03  -5.800402e+05
   3.987132e+05  -2.362062e+05
   5.333850e+05   2.998508e+05
   1.797427e+05   5.361817e+05
  -4.297986e+05   3.067497e+05
  -7.340033e+05  -1.073519e+05
  -3.968508e+05  -3.396236e+05
   2.619505e+05  -2.961015e+05
   5.449019e+05  -1.286679e+05
   1.648066e+05  -3.556056e+03
  -3.825918e+05  -3.725062e+03
  -3.869558e+05  -1.417433e+05
   2.172894e+05  -3.004485e+05
   7.638165e+05  -2.242711e+05
