
 $NMID
 id='ANONYMOUS ', fmtdat='(2E16.6)'
 volume=1.0
 tramp=1.0
 $END
  -3.212697e+07   5.936937e+04
  -2.053349e+07  -1.816599e+07
   2.471802e+06  -2.152153e+07
   1.536690e+07  -1.052626e+07
   1.068066e+07   2.055211e+06
  -8.717044e+05   5.688774e+06
  -6.208139e+06   6.615852e+05
  -2.933498e+06  -5.634336e+06
   2.972957e+06  -6.860281e+06
   5.905783e+06  -2.228876e+06
   4.451044e+06   3.855335e+06
   4.424546e+05   5.650518e+06
  -2.586588e+06   1.463041e+06
  -1.728286e+06  -4.143472e+06
   2.235867e+06  -4.885867e+06
   4.958943e+06   2.726082e+05
   3.107039e+06   6.135598e+06
  -1.958831e+06   7.322237e+06
  -5.962167e+06   3.553766e+06
  -6.183733e+06  -1.434668e+06
  -3.345840e+06  -4.293536e+06
  -1.676717e+05  -4.341879e+06
   9.528275e+05  -2.969368e+06
  -2.240707e+05  -2.132980e+06
  -1.301479e+06  -2.726013e+06
   4.603912e+05  -3.543436e+06
   4.481593e+06  -2.507221e+06
   6.676532e+06   5.212459e+05
   4.207947e+06   3.088592e+06
  -6.540105e+05   3.006091e+06
  -3.084951e+06   8.887410e+05
  -1.401257e+06  -9.520170e+05
   1.616366e+06  -1.138014e+06
   2.714625e+06   1.522974e+05
   1.498047e+06   2.032043e+06
  -3.846255e+05   3.130634e+06
  -1.492414e+06   2.076883e+06
  -1.335735e+06  -6.159025e+05
  -2.973008e+05  -2.049804e+06
   3.739739e+05  -3.057418e+05
  -4.222639e+05   2.306164e+06
  -1.902780e+06   1.778433e+06
  -1.763170e+06  -1.812353e+06
   8.069337e+05  -3.761818e+06
   3.406397e+06  -9.672375e+05
   2.913090e+06   3.668453e+06
  -7.488758e+05   4.867708e+06
  -4.355633e+06   1.456724e+06
  -4.725797e+06  -2.824955e+06
  -1.630640e+06  -4.140227e+06
   2.315997e+06  -2.178080e+06
   3.960563e+06   7.364168e+05
   2.141014e+06   2.280141e+06
  -1.252056e+06   1.617045e+06
  -2.900860e+06  -3.263275e+05
  -1.445764e+06  -1.560997e+06
   9.849309e+05  -8.914384e+05
   1.367275e+06   6.547117e+05
  -4.588698e+05   9.982885e+05
  -1.740257e+06  -3.450664e+05
  -4.797094e+05  -1.708462e+06
   2.104437e+06  -1.465784e+06
   3.233510e+06   2.434509e+05
   1.687514e+06   2.199061e+06
  -1.353459e+06   3.363103e+06
  -3.800691e+06   2.998370e+06
  -4.249952e+06   7.620813e+05
  -2.664565e+06  -2.370581e+06
  -3.271833e+05  -4.187717e+06
   1.089189e+06  -3.428207e+06
   1.033232e+06  -1.412505e+06
   5.568245e+05  -4.102037e+05
   8.919423e+05  -7.437447e+05
   1.845949e+06  -7.222697e+05
   2.143854e+06   6.261414e+05
   1.118340e+06   2.062470e+06
  -5.443727e+05   1.827521e+06
  -1.611853e+06  -9.060479e+04
  -1.314042e+06  -2.002417e+06
   2.722632e+05  -2.326295e+06
   2.173412e+06  -8.783041e+05
   2.928846e+06   1.245308e+06
   1.817737e+06   2.613604e+06
  -1.830186e+05   2.533532e+06
  -1.340766e+06   1.556351e+06
  -1.246719e+06   8.100445e+05
  -1.214426e+06   6.910323e+05
  -2.237438e+06   4.833607e+05
  -3.324672e+06  -5.711605e+05
  -2.649159e+06  -2.179562e+06
   1.750600e+03  -3.242343e+06
   2.721788e+06  -2.929234e+06
   3.454369e+06  -1.319653e+06
   1.966331e+06   6.765263e+05
  -1.654193e+05   1.800419e+06
  -1.128007e+06   1.316265e+06
  -3.931745e+05  -1.364064e+05
   9.775244e+05  -9.270897e+05
   1.439569e+06  -2.220862e+05
   5.590841e+05   9.100576e+05
  -5.362408e+05   8.502887e+05
  -4.906335e+05  -3.221532e+05
   6.547431e+05  -8.165368e+05
   1.520996e+06   4.851382e+05
   9.815552e+05   2.457862e+06
  -7.178131e+05   3.023507e+06
  -2.387484e+06   1.488666e+06
  -2.963169e+06  -9.072442e+05
  -2.111028e+06  -2.426571e+06
  -3.538392e+05  -2.320657e+06
   1.126955e+06  -1.132358e+06
   1.309299e+06  -5.321575e+04
   3.923807e+05   5.531283e+04
  -2.645022e+05  -6.060611e+05
   3.012252e+05  -9.936647e+05
   1.406866e+06  -4.058399e+05
   1.544694e+06   6.490732e+05
   3.339415e+05   1.056993e+06
  -9.249629e+05   4.535619e+05
  -7.880663e+05  -3.990966e+05
   6.579044e+05  -5.570459e+05
   1.904064e+06   1.619309e+05
   1.593383e+06   1.189187e+06
  -1.747664e+05   1.756747e+06
  -1.955121e+06   1.366471e+06
  -2.261430e+06   1.551836e+05
  -9.249189e+05  -9.909259e+05
   7.232878e+05  -1.077200e+06
   1.132608e+06  -9.373982e+04
   7.244849e+04   7.943376e+05
  -1.207116e+06   5.139834e+05
  -1.362548e+06  -6.321013e+05
  -3.146947e+05  -1.336306e+06
   8.395117e+05  -8.595524e+05
   1.045529e+06   1.729128e+05
   2.685775e+05   6.058073e+05
  -5.794655e+05   4.324241e+04
  -5.231062e+05  -8.466214e+05
   5.384115e+05  -1.090301e+06
   1.626583e+06  -3.177752e+05
   1.562707e+06   9.296618e+05
   2.323508e+05   1.653078e+06
  -1.169379e+06   1.265973e+06
  -1.377111e+06   1.512967e+05
  -4.171737e+05  -6.951086e+05
   5.354825e+05  -6.487976e+05
   5.641209e+05  -2.202818e+04
  -8.053879e+04   3.960199e+05
  -5.063308e+05   2.389555e+05
  -2.590341e+05  -1.197908e+05
   2.992210e+05  -8.617419e+04
   4.660957e+05   4.489002e+05
  -1.193166e+05   9.404811e+05
  -1.113337e+06   6.974595e+05
  -1.654959e+06  -3.910160e+05
  -1.097760e+06  -1.602855e+06
   2.689875e+05  -1.956937e+06
   1.376705e+06  -1.150722e+06
   1.443661e+06   1.165563e+05
   7.633156e+05   8.467707e+05
   2.363816e+05   7.225663e+05
   2.612046e+05   2.881393e+05
   3.875494e+05   2.128902e+05
   4.285477e+04   5.419398e+05
  -7.054870e+05   7.213159e+05
  -1.212709e+06   2.651797e+05
  -8.994296e+05  -6.578796e+05
   2.184013e+05  -1.272080e+06
   1.449766e+06  -8.663414e+05
   1.833614e+06   4.604196e+05
   8.931620e+05   1.722467e+06
  -8.113328e+05   1.873814e+06
  -2.027745e+06   8.102976e+05
  -1.927414e+06  -5.298467e+05
  -8.520989e+05  -1.131471e+06
   1.501777e+05  -8.786277e+05
   4.310030e+05  -4.849736e+05
   2.336478e+05  -5.625924e+05
   1.864017e+05  -9.437414e+05
   5.494423e+05  -9.477218e+05
   1.001624e+06  -1.938241e+05
   1.010833e+06   9.247252e+05
   3.621941e+05   1.548267e+06
  -5.682443e+05   1.129442e+06
  -1.046492e+06  -3.415068e+04
  -6.379214e+05  -1.025084e+06
   2.959542e+05  -1.113826e+06
   8.851704e+05  -3.798238e+05
   6.399595e+05   4.628608e+05
  -3.869753e+04   8.058356e+05
  -3.532339e+05   6.445630e+05
  -4.715818e+04   3.845059e+05
   3.112498e+05   3.076403e+05
   1.834242e+04   3.191073e+05
  -8.969289e+05   1.474127e+05
  -1.598103e+06  -3.129737e+05
  -1.267673e+06  -8.573645e+05
   8.181357e+03  -1.113446e+06
   1.237393e+06  -8.486148e+05
   1.463767e+06  -2.091113e+05
   6.937617e+05   3.429704e+05
  -1.876165e+05   4.123867e+05
  -3.958758e+05   4.943819e+04
   8.345883e+03  -2.813887e+05
   3.923686e+05  -1.702322e+05
   3.637829e+05   2.933936e+05
   1.064752e+05   5.985067e+05
  -4.179798e+03   3.820537e+05
   1.309986e+05  -1.156352e+05
   2.989352e+05  -2.711183e+05
   2.273760e+05   1.943213e+05
  -1.898881e+05   8.065245e+05
  -7.612939e+05   8.114629e+05
  -1.018841e+06   5.823023e+04
  -5.729801e+05  -7.580378e+05
   3.675561e+05  -8.401452e+05
   9.701777e+05  -1.681553e+05
   5.546693e+05   5.095061e+05
  -5.769264e+05   5.122099e+05
  -1.313827e+06  -1.080012e+05
  -8.683500e+05  -7.357649e+05
   3.762989e+05  -8.465350e+05
   1.264810e+06  -4.160989e+05
   1.056791e+06   1.664736e+05
   1.186070e+05   4.427057e+05
  -5.336971e+05   2.240913e+05
  -2.818220e+05  -2.285827e+05
   5.170100e+05  -3.616467e+05
   9.368453e+05   1.585885e+05
   4.332449e+05   9.940078e+05
  -6.071249e+05   1.315365e+06
  -1.259586e+06   6.077234e+05
  -9.782863e+05  -6.879470e+05
  -7.862453e+04  -1.474164e+06
   6.629396e+05  -1.052467e+06
   7.638556e+05   1.463307e+05
   3.416963e+05   9.898544e+05
  -1.751167e+05   8.177847e+05
  -4.501483e+05   6.923393e+04
  -3.976169e+05  -3.430004e+05
  -1.643052e+05  -1.403087e+05
  -3.058021e+04   9.134183e+04
  -1.634844e+05  -2.115060e+05
  -3.550068e+05  -7.898799e+05
  -1.566789e+05  -9.041476e+05
   5.440676e+05  -3.123510e+05
   1.187738e+06   4.426669e+05
   1.051504e+06   7.437352e+05
   1.290593e+05   5.676355e+05
  -7.492213e+05   2.922844e+05
  -8.258707e+05   1.186539e+05
  -2.638255e+05  -2.780361e+04
   1.416284e+05  -1.697595e+05
  -2.580378e+03  -1.981543e+05
  -2.529686e+05  -1.250756e+05
  -1.578027e+04  -1.092403e+05
   5.941366e+05  -1.330766e+05
   8.392800e+05   6.824269e+04
   2.535554e+05   5.568287e+05
  -7.720447e+05   8.796515e+05
  -1.372102e+06   5.114359e+05
  -1.061966e+06  -4.249622e+05
  -1.408851e+05  -1.156044e+06
   6.672372e+05  -1.068881e+06
   8.667737e+05  -3.589308e+05
   5.215597e+05   2.444479e+05
   7.299615e+04   2.912430e+05
  -9.266100e+04   1.511255e+04
   5.929798e+04  -4.362246e+04
   2.510557e+05   3.029804e+05
   1.820493e+05   6.699658e+05
  -1.821990e+05   5.305929e+05
  -5.478819e+05  -1.596109e+05
  -5.239999e+05  -8.257517e+05
  -2.646373e+03  -8.246630e+05
   6.362167e+05  -1.214698e+05
   7.839693e+05   6.631765e+05
   2.077069e+05   8.892381e+05
  -6.070070e+05   4.855315e+05
  -8.798046e+05  -1.171235e+05
  -3.867646e+05  -4.866621e+05
   2.511868e+05  -5.004343e+05
   2.885997e+05  -2.801175e+05
  -2.327684e+05  -4.092877e+04
  -5.360803e+05  -5.250112e+03
  -9.434250e+04  -2.460125e+05
   6.999614e+05  -5.181335e+05
   1.019744e+06  -4.161817e+05
   5.805684e+05   1.404074e+05
  -1.162649e+05   6.845710e+05
  -4.502672e+05   6.618564e+05
  -3.100180e+05   9.518485e+04
   1.872044e+02  -4.004578e+05
   2.150468e+05  -3.211018e+05
   2.728453e+05   1.667570e+05
   1.747708e+05   4.787806e+05
  -6.302723e+04   3.126336e+05
  -3.096932e+05  -6.702184e+04
  -3.669727e+05  -2.235468e+05
  -1.966746e+05  -6.901845e+04
   1.130121e+04   9.435961e+04
   7.731522e+04  -1.253133e+04
   5.483062e+04  -2.959774e+05
   1.181013e+05  -3.930635e+05
   2.733156e+05  -1.005148e+05
   3.030540e+05   3.541945e+05
   4.130196e+04   5.223015e+05
  -3.565251e+05   2.169740e+05
  -4.993126e+05  -2.713729e+05
  -1.606843e+05  -4.841591e+05
   4.166819e+05  -2.709896e+05
   6.890594e+05   1.098856e+05
   3.614208e+05   3.254993e+05
  -2.496817e+05   2.875440e+05
  -5.117069e+05   1.297409e+05
  -1.780508e+05   5.057425e+03
   3.105745e+05  -6.280040e+03
   3.313889e+05   1.074962e+05
  -1.819231e+05   2.415366e+05
  -6.586248e+05   1.736433e+05
