
 $NMID
 id='ANONYMOUS ', fmtdat='(2E16.6)'
 volume=1.0
 tramp=1.0
 $END
   1.135452e+07  -1.622240e+06
   8.474275e+06   3.898469e+06
   1.317277e+06   7.067735e+06
  -4.042204e+06   5.843571e+06
  -4.183637e+06   1.490695e+06
  -7.605507e+05  -2.005272e+06
   2.182952e+06  -1.630219e+06
   2.245327e+06   1.505625e+06
   1.045342e+05   3.453290e+06
  -1.940252e+06   1.931849e+06
  -2.164927e+06  -1.233011e+06
  -6.257932e+05  -2.489562e+06
   1.085532e+06  -6.568391e+05
   1.265406e+06   2.031572e+06
  -2.829496e+05   2.650165e+06
  -1.946024e+06   6.148924e+05
  -1.881040e+06  -2.067913e+06
   2.625568e+04  -3.033113e+06
   2.015256e+06  -1.731830e+06
   2.345106e+06   3.814116e+05
   1.102603e+06   1.497311e+06
  -5.963348e+04   1.188950e+06
   1.496072e+05   5.567717e+05
   1.235074e+06   7.746434e+05
   1.489470e+06   1.728968e+06
  -6.777364e+04   2.249424e+06
  -2.425858e+06   1.511320e+06
  -3.421167e+06  -7.752641e+04
  -1.977591e+06  -1.341165e+06
   6.044051e+05  -1.407982e+06
   1.880363e+06  -3.429572e+05
   8.137154e+05   9.327236e+05
  -1.211844e+06   1.261344e+06
  -2.059428e+06   1.920665e+05
  -1.147184e+06  -1.402948e+06
   2.608454e+05  -1.955691e+06
   7.788366e+05  -8.564732e+05
   3.141113e+05   6.820209e+05
  -2.689948e+05   8.921803e+05
  -3.018625e+05  -4.342695e+05
   1.979186e+05  -1.633541e+06
   7.933111e+05  -1.182994e+06
   9.568262e+05   4.437636e+05
   3.634909e+05   1.383304e+06
  -6.689023e+05   6.090867e+05
  -1.122733e+06  -9.708514e+05
  -2.028667e+05  -1.666326e+06
   1.532649e+06  -8.145534e+05
   2.412261e+06   7.472435e+05
   1.373491e+06   1.695168e+06
  -7.584337e+05   1.407122e+06
  -2.050338e+06   2.996314e+05
  -1.464073e+06  -6.793627e+05
   1.762551e+05  -8.394010e+05
   1.199697e+06  -2.501209e+05
   8.123584e+05   3.919589e+05
  -2.794364e+05   4.370407e+05
  -7.881389e+05  -1.046789e+05
  -2.212387e+05  -6.102260e+05
   6.640747e+05  -4.988426e+05
   7.391660e+05   1.697750e+05
  -2.031768e+05   7.236792e+05
  -1.144939e+06   4.898995e+05
  -9.317148e+05  -5.439844e+05
   4.310056e+05  -1.594297e+06
   1.770619e+06  -1.678743e+06
   2.020944e+06  -5.240618e+05
   1.256244e+06   1.081593e+06
   3.663906e+05   1.978304e+06
  -3.340357e+04   1.750261e+06
  -1.057482e+05   1.041000e+06
  -3.274876e+05   6.826550e+05
  -8.419854e+05   6.965990e+05
  -1.338483e+06   4.111606e+05
  -1.374989e+06  -4.826942e+05
  -7.428472e+05  -1.340225e+06
   3.131893e+05  -1.241437e+06
   1.126104e+06  -1.108228e+05
   1.034985e+06   1.097174e+06
   1.464043e+04   1.353989e+06
  -1.148260e+06   5.384266e+05
  -1.511547e+06  -5.762005e+05
  -8.861417e+05  -1.159161e+06
   1.924291e+04  -1.030358e+06
   4.245449e+05  -6.277531e+05
   3.340063e+05  -4.462665e+05
   4.204991e+05  -5.551707e+05
   1.082083e+06  -5.816730e+05
   1.807802e+06  -1.100017e+05
   1.656393e+06   8.555111e+05
   3.588050e+05   1.762550e+06
  -1.218430e+06   1.893402e+06
  -1.847036e+06   1.010131e+06
  -1.153404e+06  -3.133224e+05
   4.306952e+04  -1.090574e+06
   6.139509e+05  -8.017170e+05
   2.256983e+05   8.983580e+04
  -4.909318e+05   5.953814e+05
  -7.334746e+05   2.410603e+05
  -3.225751e+05  -4.344666e+05
   2.516549e+05  -5.370435e+05
   3.845356e+05   8.693305e+04
  -9.836794e+04   6.163359e+05
  -7.953389e+05   2.107947e+05
  -1.016311e+06  -9.482885e+05
  -3.419926e+05  -1.768449e+06
   9.161950e+05  -1.393591e+06
   1.835959e+06  -8.588104e+04
   1.658283e+06   1.089478e+06
   5.424525e+05   1.333805e+06
  -5.393051e+05   7.729199e+05
  -7.554612e+05   1.457092e+05
  -2.230312e+05   1.162855e+04
   2.127471e+05   3.019831e+05
  -3.641396e+04   5.330484e+05
  -6.636971e+05   3.493794e+05
  -8.683684e+05  -1.382423e+05
  -3.147330e+05  -4.863715e+05
   4.383066e+05  -3.625328e+05
   5.273622e+05   1.151135e+05
  -2.420969e+05   4.572193e+05
  -1.115667e+06   2.467064e+05
  -1.145431e+06  -4.446056e+05
  -1.887247e+05  -1.062823e+06
   9.264979e+05  -1.044609e+06
   1.241464e+06  -3.582155e+05
   6.012175e+05   4.157534e+05
  -2.728272e+05   6.122575e+05
  -5.554765e+05   1.432912e+05
  -8.186555e+04  -4.053382e+05
   6.009653e+05  -3.966522e+05
   8.164895e+05   1.699716e+05
   3.719793e+05   6.799299e+05
  -3.070626e+05   6.083096e+05
  -5.923573e+05   9.171865e+04
  -2.573440e+05  -2.673181e+05
   2.797578e+05  -8.666472e+04
   3.623722e+05   4.073445e+05
  -1.993781e+05   6.545086e+05
  -8.764119e+05   3.308622e+05
  -9.548337e+05  -3.592658e+05
  -3.028071e+05  -8.778243e+05
   4.863692e+05  -8.176190e+05
   7.266362e+05  -2.529678e+05
   3.243950e+05   3.181569e+05
  -2.083216e+05   4.265505e+05
  -3.416791e+05   7.781665e+04
  -4.022210e+04  -2.791360e+05
   2.861590e+05  -2.602456e+05
   2.562826e+05   2.960264e+04
  -8.586630e+04   1.508761e+05
  -3.192464e+05  -1.224255e+05
  -8.260925e+04  -5.096851e+05
   5.182608e+05  -5.171081e+05
   9.558186e+05   2.631369e+04
   7.780317e+05   7.646727e+05
   6.702274e+04   1.126930e+06
  -6.330154e+05   8.343932e+05
  -8.482962e+05   1.401447e+05
  -5.943123e+05  -4.075546e+05
  -2.593734e+05  -4.685284e+05
  -1.419220e+05  -2.071704e+05
  -1.701680e+05  -6.957576e+04
  -6.426895e+04  -2.576992e+05
   2.877432e+05  -4.853983e+05
   6.481279e+05  -3.203189e+05
   6.240421e+05   2.644827e+05
   6.514325e+04   7.765227e+05
  -7.058617e+05   6.824473e+05
  -1.089085e+06  -3.694830e+04
  -7.140225e+05  -8.400374e+05
   1.976482e+05  -1.113065e+06
   9.908912e+05  -6.976491e+05
   1.138608e+06   2.282346e+04
   6.704652e+05   5.120346e+05
   7.022327e+04   5.565178e+05
  -2.147405e+05   3.871034e+05
  -1.512932e+05   3.531496e+05
  -5.411395e+04   5.053681e+05
  -1.982198e+05   5.447483e+05
  -5.131164e+05   1.972910e+05
  -6.517769e+05  -4.128644e+05
  -3.637347e+05  -8.268749e+05
   2.009240e+05  -6.919106e+05
   5.882442e+05  -1.065489e+05
   4.742858e+05   4.727059e+05
  -5.044706e+03   6.368918e+05
  -3.928024e+05   3.418389e+05
  -3.815622e+05  -1.176658e+05
  -1.049801e+05  -3.989967e+05
   6.154376e+04  -3.886412e+05
  -4.797005e+04  -2.370627e+05
  -1.991635e+05  -1.539687e+05
  -3.938618e+04  -1.834852e+05
   4.588265e+05  -1.826469e+05
   8.894333e+05  -5.200623e+03
   7.922786e+05   3.174069e+05
   1.467425e+05   5.807421e+05
  -5.542753e+05   5.812305e+05
  -7.669742e+05   2.992637e+05
  -4.232690e+05  -5.991469e+04
   4.540802e+04  -2.202216e+05
   1.952790e+05  -8.817306e+04
   2.321042e+03   1.307860e+05
  -2.185258e+05   1.327281e+05
  -2.282762e+05  -1.263684e+05
  -8.893823e+04  -3.429789e+05
  -3.696005e+03  -2.254800e+05
  -5.748957e+04   1.066127e+05
  -1.582220e+05   2.246420e+05
  -1.550256e+05  -7.746408e+04
   3.336035e+04  -4.890488e+05
   3.370690e+05  -5.273490e+05
   5.242244e+05  -1.047540e+05
   3.567072e+05   3.747140e+05
  -1.243208e+05   4.721300e+05
  -5.068428e+05   1.541368e+05
  -3.614658e+05  -2.383036e+05
   2.538222e+05  -3.532366e+05
   7.556808e+05  -1.091944e+05
   6.135178e+05   2.915940e+05
  -7.080448e+04   5.354870e+05
  -6.564588e+05   4.278842e+05
  -6.359168e+05   6.046990e+04
  -1.371087e+05  -2.382105e+05
   2.642014e+05  -2.004564e+05
   1.662575e+05   8.866223e+04
  -2.736964e+05   2.437648e+05
  -5.450021e+05  -1.866498e+04
  -3.171134e+05  -5.344371e+05
   2.453985e+05  -7.970468e+05
   6.678384e+05  -4.532020e+05
   6.237099e+05   2.969567e+05
   1.985400e+05   8.297497e+05
  -2.547993e+05   6.833838e+05
  -4.459910e+05   2.619509e+04
  -3.235212e+05  -5.097416e+05
  -2.691723e+04  -4.889370e+05
   2.325737e+05  -9.880413e+04
   2.860711e+05   1.495889e+05
   1.361339e+05   6.297142e+04
  -5.012016e+03  -6.009464e+04
   7.189813e+04   9.336392e+04
   2.680874e+05   4.022223e+05
   2.188676e+05   4.893512e+05
  -2.342981e+05   2.303898e+05
  -7.216477e+05  -1.211900e+05
  -7.021352e+05  -2.975988e+05
  -1.357436e+05  -2.982373e+05
   4.177416e+05  -2.486218e+05
   4.595416e+05  -1.679813e+05
   1.249053e+05  -2.257783e+04
  -7.278812e+04   1.103457e+05
   5.819899e+04   1.185510e+05
   1.940574e+05   5.312058e+04
   7.805048e+03   6.570987e+04
  -3.601118e+05   1.335908e+05
  -4.779936e+05   3.678868e+04
  -1.493003e+05  -2.949471e+05
   3.814654e+05  -5.625731e+05
   7.036560e+05  -3.975312e+05
   6.047518e+05   1.607367e+05
   1.857305e+05   6.456310e+05
  -2.605121e+05   6.562037e+05
  -4.568965e+05   2.674815e+05
  -3.284819e+05  -1.019848e+05
  -5.612509e+04  -1.600576e+05
   8.480645e+04  -6.130827e+03
  -1.211624e+04   5.023590e+04
  -1.849392e+05  -1.307823e+05
  -1.837387e+05  -3.548436e+05
   5.774720e+04  -3.117336e+05
   3.370824e+05   5.529420e+04
   3.643062e+05   4.393349e+05
   4.725697e+04   4.701065e+05
  -3.739177e+05   1.063340e+05
  -5.051466e+05  -3.266656e+05
  -1.844472e+05  -4.838415e+05
   3.048413e+05  -3.119144e+05
   4.939142e+05  -8.454699e+03
   2.424010e+05   2.187900e+05
  -9.725242e+04   2.775541e+05
  -1.105881e+05   1.725529e+05
   1.666132e+05   2.874302e+03
   3.112337e+05  -4.809257e+04
   6.629846e+04   1.262251e+05
  -3.410931e+05   3.656434e+05
  -5.019070e+05   3.511326e+05
  -3.059940e+05  -6.259511e+03
   2.870560e+03  -3.861641e+05
   1.655420e+05  -3.988386e+05
   1.421547e+05  -5.589370e+04
   2.780078e+04   2.415076e+05
  -9.890101e+04   1.881301e+05
  -1.788842e+05  -9.190989e+04
  -1.420775e+05  -2.544176e+05
   1.799005e+04  -1.606882e+05
   1.830095e+05   1.878108e+04
   2.147074e+05   7.407091e+04
   1.128355e+05   3.291002e+03
   2.970531e+03  -3.542580e+04
  -3.026773e+04   5.649859e+04
  -3.298495e+04   1.986843e+05
  -8.662928e+04   2.186904e+05
  -1.734602e+05   4.078617e+04
  -1.796440e+05  -2.100996e+05
  -2.971395e+04  -3.070341e+05
   1.963468e+05  -1.480422e+05
   2.953726e+05   1.260695e+05
   1.275511e+05   2.712985e+05
  -2.014590e+05   1.875004e+05
  -3.867710e+05  -1.053149e+04
  -2.278441e+05  -1.508555e+05
   1.180355e+05  -1.667694e+05
   2.751979e+05  -9.703451e+04
   8.040069e+04  -1.039040e+04
  -2.089448e+05   2.065118e+04
  -2.165486e+05  -5.439197e+04
   9.764240e+04  -1.778077e+05
   3.930769e+05  -1.716849e+05
