
 $NMID
 id='ANONYMOUS ', fmtdat='(2E16.6)'
 volume=1.0
 tramp=1.0
 $END
   2.897635e+07  -8.904520e+05
   1.883075e+07   1.500925e+07
  -1.241915e+06   1.889352e+07
  -1.285844e+07   1.040524e+07
  -9.483465e+06  -6.529322e+05
   2.579935e+05  -4.976206e+06
   5.379598e+06  -1.329000e+06
   3.207189e+06   4.644134e+06
  -1.901022e+06   6.561949e+06
  -5.079172e+06   2.596102e+06
  -4.341758e+06  -3.339082e+06
  -7.401101e+05  -5.323485e+06
   2.435467e+06  -1.440451e+06
   2.046497e+06   3.948674e+06
  -1.579575e+06   4.837162e+06
  -4.473459e+06   1.614419e+05
  -3.215374e+06  -5.377079e+06
   1.350605e+06  -6.758628e+06
   5.287385e+06  -3.455151e+06
   5.688590e+06   1.218478e+06
   2.997546e+06   3.925593e+06
   1.038304e+04   3.805726e+06
  -7.286732e+05   2.344947e+06
   8.043099e+05   1.701483e+06
   1.886846e+06   2.657021e+06
  -1.526695e+05   3.730759e+06
  -4.392914e+06   2.798834e+06
  -6.628941e+06  -1.915237e+05
  -4.154880e+06  -2.853054e+06
   7.212772e+05  -3.017513e+06
   3.232311e+06  -1.003111e+06
   1.580808e+06   1.112453e+06
  -1.623370e+06   1.626653e+06
  -2.995941e+06   2.244729e+05
  -1.827131e+06  -2.080441e+06
   2.452411e+05  -3.323625e+06
   1.472495e+06  -2.005154e+06
   1.235538e+06   8.467502e+05
   1.101986e+05   2.043620e+06
  -5.468281e+05   3.431504e+04
   2.341884e+05  -2.540710e+06
   1.678506e+06  -1.934794e+06
   1.739584e+06   1.484700e+06
  -3.866785e+05   3.326073e+06
  -2.774035e+06   9.092951e+05
  -2.642297e+06  -3.157625e+06
   4.454678e+05  -4.314814e+06
   3.904787e+06  -1.487248e+06
   4.646494e+06   2.284162e+06
   1.952975e+06   3.726753e+06
  -1.948936e+06   2.307611e+06
  -3.835252e+06  -2.428679e+05
  -2.290437e+06  -1.870365e+06
   9.565180e+05  -1.564023e+06
   2.666934e+06   7.329217e+04
   1.441028e+06   1.286497e+06
  -8.423697e+05   8.674190e+05
  -1.381290e+06  -4.703957e+05
   1.678271e+05  -9.683111e+05
   1.485485e+06  -1.658622e+04
   6.429053e+05   1.218109e+06
  -1.595212e+06   1.331787e+06
  -2.827205e+06   7.598327e+04
  -1.662306e+06  -1.813144e+06
   1.123166e+06  -3.263365e+06
   3.554257e+06  -3.142248e+06
   4.089126e+06  -9.361922e+05
   2.643729e+06   2.222181e+06
   5.315944e+05   4.026121e+06
  -7.010060e+05   3.330703e+06
  -6.951507e+05   1.508406e+06
  -4.585720e+05   6.742586e+05
  -9.886725e+05   1.015061e+06
  -2.003667e+06   8.915595e+05
  -2.334441e+06  -5.707288e+05
  -1.335264e+06  -2.126565e+06
   4.323521e+05  -2.007522e+06
   1.733735e+06  -1.126199e+05
   1.582520e+06   1.909820e+06
  -7.749528e+04   2.378586e+06
  -2.134288e+06   1.002034e+06
  -2.949100e+06  -1.106339e+06
  -1.832584e+06  -2.455509e+06
   1.171073e+05  -2.370033e+06
   1.180744e+06  -1.445925e+06
   1.045555e+06  -7.958863e+05
   1.034496e+06  -7.891160e+05
   2.102254e+06  -7.183891e+05
   3.292469e+06   2.209125e+05
   2.807968e+06   1.876555e+06
   3.189234e+05   3.200882e+06
  -2.429733e+06   3.173549e+06
  -3.360088e+06   1.620731e+06
  -2.050434e+06  -5.586711e+05
   4.486886e+04  -1.877423e+06
   1.072318e+06  -1.422974e+06
   4.166137e+05   1.292211e+05
  -9.107307e+05   1.019486e+06
  -1.399605e+06   3.364119e+05
  -6.010500e+05  -8.651698e+05
   4.743981e+05  -9.161667e+05
   5.567241e+05   2.343059e+05
  -4.562449e+05   8.911227e+05
  -1.441459e+06  -1.837292e+05
  -1.262393e+06  -2.138607e+06
   1.945202e+05  -2.995658e+06
   2.028875e+06  -1.825553e+06
   3.024403e+06   4.477559e+05
   2.448630e+06   2.139458e+06
   6.500122e+05   2.294322e+06
  -1.021371e+06   1.255717e+06
  -1.319959e+06   1.756912e+05
  -3.950005e+05  -1.725781e+04
   3.238505e+05   5.733324e+05
  -1.979458e+05   9.882420e+05
  -1.327334e+06   5.154726e+05
  -1.561250e+06  -4.757900e+05
  -4.338658e+05  -9.846716e+05
   8.597722e+05  -5.478626e+05
   8.474058e+05   2.951493e+05
  -5.449852e+05   6.478826e+05
  -1.900713e+06   1.093951e+05
  -1.763105e+06  -9.701937e+05
  -6.767123e+04  -1.779079e+06
   1.785027e+06  -1.590466e+06
   2.228848e+06  -3.940590e+05
   1.001130e+06   8.810815e+05
  -6.202127e+05   1.108585e+06
  -1.092558e+06   1.759202e+05
  -1.233877e+05  -7.795211e+05
   1.146648e+06  -6.202782e+05
   1.407867e+06   4.768982e+05
   4.683447e+05   1.273403e+06
  -7.073873e+05   9.475422e+05
  -1.040395e+06  -2.976996e+04
  -3.440610e+05  -5.481364e+05
   5.518671e+05  -9.720701e+04
   5.954682e+05   7.870931e+05
  -4.342547e+05   1.136338e+06
  -1.591458e+06   4.703317e+05
  -1.641551e+06  -7.759271e+05
  -3.904895e+05  -1.613401e+06
   1.025844e+06  -1.363763e+06
   1.340097e+06  -2.923570e+05
   4.895380e+05   6.367714e+05
  -4.569599e+05   7.016055e+05
  -5.767435e+05   8.793611e+04
   4.438878e+03  -4.207879e+05
   4.786653e+05  -3.355548e+05
   3.210437e+05   6.521757e+04
  -2.336230e+05   1.373933e+05
  -4.961407e+05  -3.550004e+05
   4.776807e+03  -9.208335e+05
   1.020006e+06  -8.031745e+05
   1.677000e+06   2.174528e+05
   1.246447e+06   1.479778e+06
  -6.792518e+04   1.976213e+06
  -1.241027e+06   1.303751e+06
  -1.454326e+06   5.982324e+04
  -8.875364e+05  -7.612186e+05
  -3.507778e+05  -7.343716e+05
  -2.841226e+05  -3.072615e+05
  -3.673680e+05  -1.821107e+05
  -7.806864e+04  -5.150881e+05
   6.124719e+05  -7.836371e+05
   1.168483e+06  -4.063818e+05
   9.841140e+05   5.495559e+05
  -5.448105e+04   1.297896e+06
  -1.339683e+06   1.026883e+06
  -1.873359e+06  -2.586700e+05
  -1.072757e+06  -1.604476e+06
   5.943809e+05  -1.924684e+06
   1.902762e+06  -1.013454e+06
   1.961723e+06   2.985686e+05
   9.950671e+05   1.011935e+06
  -1.966317e+04   9.045330e+05
  -3.805055e+05   5.684324e+05
  -2.173125e+05   6.070078e+05
  -1.276660e+05   9.460662e+05
  -4.577300e+05   9.736168e+05
  -9.678775e+05   2.779739e+05
  -1.093272e+06  -8.246319e+05
  -5.131241e+05  -1.506793e+06
   4.554320e+05  -1.182618e+06
   1.043077e+06  -7.827437e+04
   7.360131e+05   9.380057e+05
  -1.645881e+05   1.121277e+06
  -8.034491e+05   4.736226e+05
  -6.551585e+05  -3.624054e+05
  -5.305167e+04  -7.680163e+05
   2.525303e+05  -6.590662e+05
  -1.256823e+04  -3.907972e+05
  -3.383537e+05  -2.850084e+05
  -4.814164e+04  -3.199460e+05
   8.621018e+05  -2.327323e+05
   1.598939e+06   1.543072e+05
   1.338061e+06   7.140035e+05
   1.131273e+05   1.080022e+06
  -1.126481e+06   9.457669e+05
  -1.416404e+06   3.627706e+05
  -7.137226e+05  -2.411353e+05
   1.431275e+05  -4.094817e+05
   3.740961e+05  -9.445016e+04
   9.009436e+02   2.697797e+05
  -3.845672e+05   2.082880e+05
  -3.874650e+05  -2.584461e+05
  -1.494555e+05  -6.026057e+05
  -1.659492e+04  -3.938003e+05
  -1.114447e+05   1.422850e+05
  -2.728362e+05   3.261413e+05
  -2.472969e+05  -1.642718e+05
   1.124775e+05  -8.325340e+05
   6.761219e+05  -8.786298e+05
   9.926611e+05  -1.324707e+05
   6.233689e+05   7.120724e+05
  -2.936860e+05   8.539830e+05
  -9.472964e+05   2.362913e+05
  -6.031887e+05  -4.598647e+05
   5.150298e+05  -5.671590e+05
   1.318324e+06  -4.034269e+04
   9.592008e+05   6.220629e+05
  -2.595868e+05   8.824799e+05
  -1.202917e+06   5.715464e+05
  -1.075854e+06  -3.305375e+04
  -1.757180e+05  -4.264022e+05
   5.001291e+05  -2.846569e+05
   2.934498e+05   1.972753e+05
  -4.937689e+05   4.085975e+05
  -9.565603e+05  -8.013362e+04
  -5.176955e+05  -9.661710e+05
   5.002319e+05  -1.376852e+06
   1.213667e+06  -7.235177e+05
   1.047091e+06   5.968675e+05
   2.252645e+05   1.468158e+06
  -5.492080e+05   1.126203e+06
  -7.717674e+05  -5.450543e+04
  -4.521412e+05  -9.423268e+05
   6.937593e+04  -8.318649e+05
   4.322015e+05  -1.185534e+05
   4.452006e+05   2.967520e+05
   1.945073e+05   1.189557e+05
   1.364611e+04  -9.501518e+04
   1.591711e+05   1.978711e+05
   4.236547e+05   7.531929e+05
   2.652980e+05   8.788852e+05
  -4.908966e+05   3.571175e+05
  -1.232415e+06  -3.213264e+05
  -1.138904e+06  -6.264034e+05
  -1.853758e+05  -5.485675e+05
   7.326634e+05  -3.735684e+05
   8.136939e+05  -2.095027e+05
   2.492251e+05   6.822999e+02
  -1.308859e+05   1.855319e+05
   4.320015e+04   1.948762e+05
   2.879319e+05   9.742991e+04
   2.096835e+04   1.126632e+05
  -6.022188e+05   1.969494e+05
  -8.458564e+05   7.803008e+03
  -2.809084e+05  -5.446330e+05
   7.078353e+05  -9.541119e+05
   1.316817e+06  -6.243553e+05
   1.086931e+06   3.443764e+05
   2.484049e+05   1.147829e+06
  -5.611094e+05   1.123440e+06
  -8.375173e+05   4.311372e+05
  -5.533164e+05  -2.008641e+05
  -9.402785e+04  -2.881417e+05
   1.120801e+05  -2.388089e+04
  -4.192114e+04   5.714339e+04
  -2.847332e+05  -2.676954e+05
  -2.539074e+05  -6.467967e+05
   1.362202e+05  -5.465520e+05
   5.736725e+05   1.152876e+05
   6.008562e+05   7.919168e+05
   6.274665e+04   8.339721e+05
  -6.443174e+05   1.734426e+05
  -8.514622e+05  -6.053268e+05
  -2.817858e+05  -8.745046e+05
   5.701810e+05  -5.331567e+05
   8.852195e+05   4.221444e+04
   4.168686e+05   4.438636e+05
  -2.110861e+05   5.087791e+05
  -2.503604e+05   2.957082e+05
   2.545210e+05   1.475690e+04
   5.412749e+05  -4.650083e+04
   1.109256e+05   2.371203e+05
  -6.480726e+05   5.869717e+05
  -9.589664e+05   5.166064e+05
  -5.713565e+05  -8.265695e+04
   5.561605e+04  -6.901803e+05
   3.774766e+05  -6.900074e+05
   2.929632e+05  -1.046447e+05
   3.440869e+04   4.112030e+05
  -1.920453e+05   3.352726e+05
  -2.979526e+05  -1.529371e+05
  -2.187135e+05  -4.635251e+05
   4.453065e+04  -3.088125e+05
   3.191788e+05   4.351165e+04
   3.774617e+05   1.822505e+05
   1.975027e+05   4.209730e+04
  -6.939701e+03  -8.735103e+04
  -6.171503e+04   4.103027e+04
  -3.912040e+04   3.216198e+05
  -1.160226e+05   4.068996e+05
  -2.878688e+05   1.080152e+05
  -3.295828e+05  -3.524571e+05
  -6.904552e+04  -5.357074e+05
   3.467105e+05  -2.487161e+05
   5.218874e+05   2.383392e+05
   2.034817e+05   4.784251e+05
  -3.879675e+05   3.059085e+05
  -6.953347e+05  -5.545255e+04
  -3.885302e+05  -2.939814e+05
   2.289494e+05  -3.012879e+05
   5.038714e+05  -1.636886e+05
   1.685230e+05  -1.275990e+04
  -3.317350e+05   3.486212e+04
  -3.572415e+05  -8.711659e+04
   1.649973e+05  -2.756798e+05
   6.620174e+05  -2.486436e+05
