
 $NMID
 id='ANONYMOUS ', fmtdat='(2E16.6)'
 volume=1.0
 tramp=1.0
 $END
  -5.159415e+07   8.757617e+05
  -3.188055e+07  -3.115518e+07
   5.882795e+06  -3.507067e+07
   2.507962e+07  -1.427520e+07
   1.554082e+07   5.855789e+06
  -2.713681e+06   8.717796e+06
  -9.208480e+06  -7.349044e+05
  -2.954234e+06  -8.985870e+06
   5.502328e+06  -8.976259e+06
   8.940103e+06  -2.168861e+06
   6.573676e+06   5.658273e+06
   8.366757e+05   8.009273e+06
  -3.671059e+06   2.537986e+06
  -2.489009e+06  -5.158449e+06
   3.421257e+06  -6.275799e+06
   7.345654e+06   1.030567e+06
   4.322379e+06   9.365403e+06
  -3.269442e+06   1.098465e+07
  -9.206210e+06   5.591231e+06
  -9.919532e+06  -1.760542e+06
  -6.098424e+06  -6.734780e+06
  -7.567524e+05  -7.785108e+06
   2.411974e+06  -5.532109e+06
   1.438289e+06  -2.673517e+06
  -1.106139e+06  -2.277765e+06
  -1.287998e+05  -4.016316e+06
   5.149500e+06  -4.047579e+06
   9.031194e+06  -3.982165e+05
   6.521814e+06   3.822978e+06
   1.493775e+05   4.621108e+06
  -3.528709e+06   2.258597e+06
  -2.221361e+06  -1.342849e+05
   8.167492e+05  -9.290951e+05
   2.336612e+06  -3.362187e+05
   2.024056e+06   1.524521e+06
   5.034868e+05   3.725001e+06
  -1.673283e+06   3.511584e+06
  -2.835467e+06  -1.292086e+05
  -1.493239e+06  -3.266532e+06
   6.289147e+05  -1.623454e+06
   1.903656e+05   2.394851e+06
  -2.336210e+06   2.218311e+06
  -2.365125e+06  -2.903493e+06
   2.024830e+06  -5.737153e+06
   6.256973e+06  -1.143526e+06
   4.811155e+06   6.207158e+06
  -1.547443e+06   7.858608e+06
  -6.791427e+06   2.342512e+06
  -6.576237e+06  -4.059911e+06
  -1.867521e+06  -5.664863e+06
   3.241114e+06  -2.649150e+06
   5.042777e+06   1.337417e+06
   2.412309e+06   3.254748e+06
  -2.175497e+06   2.129961e+06
  -4.237263e+06  -7.523909e+05
  -1.893926e+06  -2.482458e+06
   1.560823e+06  -1.304572e+06
   1.682711e+06   9.475996e+05
  -1.161972e+06   9.740628e+05
  -2.396589e+06  -1.451284e+06
   3.284668e+05  -3.152077e+06
   4.117911e+06  -1.920216e+06
   4.944928e+06   1.060078e+06
   2.262985e+06   3.608659e+06
  -1.650486e+06   4.907664e+06
  -4.712395e+06   4.518375e+06
  -5.780054e+06   1.617416e+06
  -4.231524e+06  -2.937471e+06
  -8.880591e+05  -5.765879e+06
   1.671382e+06  -4.543055e+06
   1.637675e+06  -1.290088e+06
   2.744815e+05   1.395812e+05
   1.498368e+05  -8.927942e+05
   1.617359e+06  -1.565153e+06
   2.653642e+06  -8.658991e+04
   1.842142e+06   1.934838e+06
  -8.403615e+04   2.069092e+06
  -1.564279e+06   1.379412e+05
  -1.611334e+06  -2.066028e+06
   3.645792e+04  -2.818219e+06
   2.633262e+06  -1.523678e+06
   4.175467e+06   1.153622e+06
   2.992169e+06   3.493042e+06
  -3.630631e+03   3.898586e+06
  -2.054141e+06   2.531486e+06
  -2.034028e+06   1.115132e+06
  -1.723128e+06   7.103337e+05
  -2.823266e+06   5.033849e+05
  -4.179112e+06  -7.007480e+05
  -3.357252e+06  -2.646728e+06
  -1.253446e+05  -3.976584e+06
   3.108308e+06  -3.743432e+06
   4.035076e+06  -1.990774e+06
   2.525928e+06   4.553007e+05
   2.004907e+05   2.146677e+06
  -1.094997e+06   1.820179e+06
  -5.301771e+05  -5.131046e+04
   1.064511e+06  -1.245441e+06
   1.826574e+06  -3.793248e+05
   8.667699e+05   1.145928e+06
  -5.203770e+05   1.068328e+06
  -4.455990e+05  -3.872005e+05
   1.008182e+06  -7.407470e+05
   1.841308e+06   1.139392e+06
   7.434150e+05   3.338402e+06
  -1.442919e+06   3.395675e+06
  -3.048401e+06   1.206631e+06
  -3.281697e+06  -1.361144e+06
  -2.253308e+06  -2.725274e+06
  -4.320522e+05  -2.571178e+06
   1.221279e+06  -1.408743e+06
   1.531372e+06  -1.993956e+05
   4.769787e+05   4.668948e+04
  -3.458586e+05  -7.297048e+05
   3.892972e+05  -1.292688e+06
   1.829164e+06  -5.637312e+05
   1.968407e+06   8.443195e+05
   3.854634e+05   1.366408e+06
  -1.137416e+06   5.579793e+05
  -8.764832e+05  -4.526486e+05
   8.297770e+05  -5.319598e+05
   2.151752e+06   3.026827e+05
   1.722322e+06   1.345514e+06
  -2.469156e+05   1.946230e+06
  -2.261771e+06   1.610542e+06
  -2.698739e+06   2.561509e+05
  -1.178465e+06  -1.222997e+06
   8.825390e+05  -1.443268e+06
   1.495583e+06  -1.844510e+05
   1.877016e+05   1.034929e+06
  -1.469365e+06   7.076912e+05
  -1.670551e+06  -7.599418e+05
  -3.344074e+05  -1.613343e+06
   1.063326e+06  -9.645300e+05
   1.235158e+06   2.957187e+05
   2.507218e+05   7.639035e+05
  -7.680209e+05   5.836279e+04
  -7.094631e+05  -1.021013e+06
   5.662074e+05  -1.375613e+06
   1.948984e+06  -5.133862e+05
   1.967741e+06   1.028222e+06
   3.652679e+05   2.013788e+06
  -1.400624e+06   1.592259e+06
  -1.679162e+06   2.023566e+05
  -4.906653e+05  -8.477657e+05
   6.436924e+05  -7.827830e+05
   6.224273e+05  -6.491226e+04
  -1.207271e+05   3.674281e+05
  -4.988775e+05   2.057055e+05
  -1.369555e+05  -8.380633e+04
   4.378963e+05   5.031187e+04
   5.169652e+05   6.450961e+05
  -1.938735e+05   1.157042e+06
  -1.344706e+06   8.688753e+05
  -2.020983e+06  -4.093301e+05
  -1.414021e+06  -1.892294e+06
   2.238333e+05  -2.352452e+06
   1.584217e+06  -1.371728e+06
   1.655090e+06   1.312204e+05
   8.351299e+05   8.946474e+05
   2.919856e+05   6.592819e+05
   4.404122e+05   2.193228e+05
   5.979451e+05   2.912090e+05
   8.995488e+04   7.319851e+05
  -8.527114e+05   8.763051e+05
  -1.415971e+06   3.131797e+05
  -1.023029e+06  -7.166203e+05
   2.528243e+05  -1.431996e+06
   1.684928e+06  -1.039887e+06
   2.186935e+06   4.817782e+05
   1.098985e+06   2.048329e+06
  -9.817191e+05   2.300422e+06
  -2.473012e+06   1.002637e+06
  -2.293901e+06  -6.456943e+05
  -9.366963e+05  -1.317118e+06
   2.077420e+05  -9.366903e+05
   3.991928e+05  -4.974277e+05
   9.423902e+04  -7.157173e+05
   1.055952e+05  -1.251914e+06
   6.476701e+05  -1.243172e+06
   1.250552e+06  -3.057103e+05
   1.291089e+06   1.053839e+06
   5.306065e+05   1.841764e+06
  -6.116447e+05   1.391774e+06
  -1.251368e+06  -7.026532e+03
  -7.897260e+05  -1.248195e+06
   3.778115e+05  -1.359939e+06
   1.130593e+06  -4.047642e+05
   7.956852e+05   6.668118e+05
  -1.086289e+05   1.045063e+06
  -5.147417e+05   7.693790e+05
  -8.438112e+04   4.125154e+05
   4.149755e+05   3.281186e+05
   5.435073e+04   3.720390e+05
  -1.113955e+06   2.041480e+05
  -1.999037e+06  -3.239853e+05
  -1.569720e+06  -1.010003e+06
   3.149579e+04  -1.395192e+06
   1.538549e+06  -1.106717e+06
   1.782240e+06  -2.690620e+05
   8.187244e+05   4.778665e+05
  -2.484686e+05   5.512383e+05
  -4.985160e+05   3.625023e+04
  -3.119576e+04  -4.016327e+05
   4.316981e+05  -2.451664e+05
   4.654716e+05   3.327929e+05
   2.370713e+05   6.976214e+05
   8.689014e+04   4.597545e+05
   1.388003e+05  -9.384525e+04
   2.814392e+05  -2.816570e+05
   2.681986e+05   2.273666e+05
  -1.449354e+05   9.555980e+05
  -8.753989e+05   1.032066e+06
  -1.314527e+06   1.713943e+05
  -8.205098e+05  -8.830706e+05
   4.003279e+05  -1.102314e+06
   1.214054e+06  -3.257397e+05
   7.085239e+05   5.585295e+05
  -6.851392e+05   6.296006e+05
  -1.547490e+06  -1.011502e+05
  -9.783154e+05  -8.512096e+05
   4.781163e+05  -9.671797e+05
   1.468224e+06  -4.594099e+05
   1.203695e+06   1.957701e+05
   1.272828e+05   5.040293e+05
  -6.355909e+05   2.602556e+05
  -3.746030e+05  -2.849349e+05
   5.666370e+05  -5.035035e+05
   1.145314e+06   7.957911e+04
   6.495091e+05   1.142992e+06
  -5.713119e+05   1.648674e+06
  -1.438579e+06   8.576606e+05
  -1.218143e+06  -7.371705e+05
  -1.927872e+05  -1.741493e+06
   7.266260e+05  -1.255592e+06
   9.031719e+05   1.776180e+05
   4.142665e+05   1.165402e+06
  -2.233013e+05   9.455249e+05
  -5.506578e+05   8.020921e+04
  -4.483436e+05  -3.718029e+05
  -1.535817e+05  -1.374279e+05
  -5.044729e+04   9.313356e+04
  -2.803471e+05  -2.842647e+05
  -4.972902e+05  -9.400287e+05
  -1.770054e+05  -1.054123e+06
   7.032246e+05  -3.877787e+05
   1.432896e+06   4.560582e+05
   1.238182e+06   8.217309e+05
   1.790405e+05   6.818388e+05
  -8.247086e+05   4.030930e+05
  -9.573698e+05   1.720128e+05
  -3.586019e+05  -5.199878e+04
   1.389163e+05  -2.184045e+05
   4.514108e+04  -2.008384e+05
  -2.462847e+05  -9.275230e+04
  -5.250684e+04  -1.268911e+05
   6.318589e+05  -2.279751e+05
   1.018272e+06   6.163581e+03
   4.373800e+05   6.667654e+05
  -8.043192e+05   1.148696e+06
  -1.655737e+06   7.507186e+05
  -1.384378e+06  -4.040148e+05
  -2.744519e+05  -1.363950e+06
   7.444419e+05  -1.345849e+06
   1.016805e+06  -5.344409e+05
   6.340413e+05   2.186480e+05
   1.363836e+05   3.463973e+05
  -5.512830e+04   6.722311e+04
   8.634489e+04  -1.027502e+04
   2.895042e+05   3.632923e+05
   2.380021e+05   7.883711e+05
  -1.685227e+05   6.634585e+05
  -6.575716e+05  -1.072628e+05
  -7.278862e+05  -9.110266e+05
  -1.328672e+05  -9.992280e+05
   7.185376e+05  -2.550985e+05
   1.010931e+06   6.817910e+05
   3.542966e+05   1.056025e+06
  -6.844212e+05   6.727975e+05
  -1.094556e+06  -6.009157e+04
  -5.320312e+05  -5.999000e+05
   2.721071e+05  -6.746951e+05
   3.777526e+05  -3.672648e+05
  -2.262135e+05  -7.080680e+03
  -6.278337e+05   4.272124e+04
  -1.497988e+05  -2.999715e+05
   8.006897e+05  -6.631695e+05
   1.237786e+06  -5.261218e+05
   7.597452e+05   1.746242e+05
  -8.599486e+04   8.516355e+05
  -5.426845e+05   8.459071e+05
  -4.236389e+05   1.744729e+05
  -6.065909e+04  -4.579258e+05
   2.249628e+05  -4.319846e+05
   3.387801e+05   1.286601e+05
   2.529746e+05   5.591353e+05
  -4.123858e+04   4.267847e+05
  -3.796300e+05  -3.494109e+04
  -4.722021e+05  -2.775364e+05
  -2.393784e+05  -1.002940e+05
   4.423731e+04   1.539599e+05
   8.776421e+04   6.263122e+04
  -2.967526e+04  -3.297676e+05
   1.400218e+04  -5.421388e+05
   2.928343e+05  -2.367188e+05
   4.617295e+05   3.441444e+05
   1.808978e+05   6.196973e+05
  -3.858571e+05   3.140658e+05
  -6.553740e+05  -2.546696e+05
  -2.572047e+05  -5.484080e+05
   4.945968e+05  -3.632281e+05
   8.662121e+05   5.743037e+04
   4.735531e+05   3.620627e+05
  -2.794679e+05   4.027148e+05
  -6.201446e+05   2.416267e+05
  -2.542152e+05   2.557020e+04
   3.171668e+05  -7.656141e+04
   3.863505e+05   4.404453e+04
  -1.508107e+05   2.714331e+05
  -6.993685e+05   2.652118e+05
