
 $NMID
 id='ANONYMOUS ', fmtdat='(2E16.6)'
 volume=1.0
 tramp=1.0
 $END
   3.380692e+07   1.656760e+06
   1.963131e+07   2.121298e+07
  -4.953596e+06   2.245657e+07
  -1.671182e+07   8.766855e+06
  -1.003676e+07  -3.880049e+06
   1.852965e+06  -5.580201e+06
   6.000201e+06   4.625025e+05
   1.898107e+06   5.877034e+06
  -3.675512e+06   5.968679e+06
  -5.930584e+06   1.355827e+06
  -4.216618e+06  -4.022264e+06
  -2.790932e+05  -5.478941e+06
   2.607881e+06  -1.517269e+06
   1.584591e+06   3.721688e+06
  -2.404755e+06   4.261808e+06
  -4.828920e+06  -8.191168e+05
  -2.599736e+06  -6.338379e+06
   2.510047e+06  -7.177962e+06
   6.308117e+06  -3.324002e+06
   6.454466e+06   1.656683e+06
   3.591073e+06   4.734140e+06
   3.023260e+04   5.008520e+06
  -1.698145e+06   3.318038e+06
  -6.726746e+05   1.697726e+06
   9.560098e+05   1.842679e+06
  -1.156458e+05   2.993858e+06
  -3.899745e+06   2.580325e+06
  -6.314415e+06  -2.048021e+05
  -4.237556e+06  -2.950673e+06
   2.862894e+05  -3.154315e+06
   2.714504e+06  -1.291858e+06
   1.554025e+06   4.250073e+05
  -8.278585e+05   8.652958e+05
  -1.949528e+06   1.644210e+05
  -1.454719e+06  -1.370822e+06
  -6.519048e+04  -2.776756e+06
   1.384487e+06  -2.248494e+06
   1.788452e+06   4.069919e+05
   6.632164e+05   2.274867e+06
  -5.525473e+05   8.285094e+05
   3.611896e+04  -1.872194e+06
   1.702218e+06  -1.521153e+06
   1.515359e+06   1.962243e+06
  -1.399137e+06   3.670577e+06
  -3.962105e+06   5.128723e+05
  -2.846632e+06  -4.200691e+06
   1.268102e+06  -5.037853e+06
   4.568126e+06  -1.269472e+06
   4.349732e+06   2.931650e+06
   1.197614e+06   3.901875e+06
  -2.251206e+06   1.790267e+06
  -3.470658e+06  -9.545229e+05
  -1.662778e+06  -2.228229e+06
   1.443383e+06  -1.382673e+06
   2.801493e+06   5.885745e+05
   1.221120e+06   1.674885e+06
  -1.065998e+06   8.174806e+05
  -1.164305e+06  -6.691650e+05
   6.744429e+05  -6.760415e+05
   1.517173e+06   8.519506e+05
  -1.683946e+05   1.893942e+06
  -2.602143e+06   1.114506e+06
  -3.186265e+06  -7.546213e+05
  -1.407800e+06  -2.404709e+06
   1.339939e+06  -3.266056e+06
   3.496735e+06  -2.912537e+06
   4.061344e+06  -8.237927e+05
   2.716499e+06   2.247103e+06
   3.487337e+05   4.006034e+06
  -1.223459e+06   3.083657e+06
  -1.060055e+06   9.562993e+05
  -2.322666e+05   8.456110e+04
  -3.451695e+05   7.207504e+05
  -1.391117e+06   9.791623e+05
  -1.957435e+06  -1.912581e+05
  -1.216975e+06  -1.591187e+06
   2.181097e+05  -1.563614e+06
   1.234061e+06  -5.110477e+04
   1.144102e+06   1.587241e+06
  -1.435972e+05   2.036471e+06
  -1.946433e+06   9.311559e+05
  -2.839067e+06  -1.039228e+06
  -1.850716e+06  -2.538645e+06
   2.023616e+05  -2.600128e+06
   1.467081e+06  -1.571443e+06
   1.356597e+06  -6.759902e+05
   1.167587e+06  -4.817811e+05
   1.984485e+06  -3.182210e+05
   2.926972e+06   5.845567e+05
   2.309363e+06   1.956848e+06
  -1.458504e+04   2.835397e+06
  -2.342930e+06   2.583683e+06
  -2.982923e+06   1.268706e+06
  -1.793055e+06  -4.684302e+05
  -1.374494e+04  -1.579559e+06
   8.985657e+05  -1.251498e+06
   3.763207e+05   7.668141e+04
  -8.189833e+05   8.520152e+05
  -1.298988e+06   2.067067e+05
  -5.499794e+05  -8.387386e+05
   4.226346e+05  -7.578652e+05
   3.477305e+05   2.676861e+05
  -6.534857e+05   5.498405e+05
  -1.238371e+06  -7.090341e+05
  -5.447476e+05  -2.261407e+06
   9.227661e+05  -2.404611e+06
   2.098225e+06  -9.357997e+05
   2.364184e+06   9.351742e+05
   1.652330e+06   2.004292e+06
   2.853615e+05   1.897649e+06
  -9.333293e+05   9.872452e+05
  -1.121523e+06   8.835929e+04
  -3.411190e+05  -4.680862e+04
   2.286663e+05   5.286788e+05
  -3.009533e+05   8.904317e+05
  -1.289049e+06   3.421223e+05
  -1.360033e+06  -6.289922e+05
  -2.499367e+05  -9.572382e+05
   8.146983e+05  -3.759351e+05
   6.383546e+05   3.350369e+05
  -5.771061e+05   3.943403e+05
  -1.552987e+06  -2.123427e+05
  -1.262253e+06  -9.904495e+05
   1.832106e+05  -1.422085e+06
   1.660149e+06  -1.129510e+06
   1.943990e+06  -1.238829e+05
   8.035644e+05   8.919117e+05
  -6.647205e+05   9.801937e+05
  -1.046405e+06   7.790419e+04
  -8.623324e+04  -7.324766e+05
   1.064730e+06  -4.586445e+05
   1.173378e+06   5.725580e+05
   2.235580e+05   1.152150e+06
  -7.548112e+05   6.842506e+05
  -8.747183e+05  -2.064789e+05
  -1.824495e+05  -5.333149e+05
   5.306822e+05  -2.126662e+04
   4.690146e+05   7.461267e+05
  -4.524828e+05   9.635218e+05
  -1.413571e+06   3.026131e+05
  -1.374917e+06  -7.969389e+05
  -2.044782e+05  -1.446157e+06
   1.034685e+06  -1.098203e+06
   1.199962e+06  -1.103273e+05
   3.396687e+05   6.096564e+05
  -4.717621e+05   5.489054e+05
  -4.630888e+05   3.378650e+04
   7.458396e+04  -2.832407e+05
   3.768738e+05  -1.689679e+05
   1.438355e+05   5.878049e+04
  -2.775386e+05  -1.479338e+04
  -3.575775e+05  -4.400205e+05
   1.489418e+05  -8.111549e+05
   9.762473e+05  -5.892531e+05
   1.434236e+06   3.440629e+05
   9.584485e+05   1.392503e+06
  -2.232274e+05   1.686487e+06
  -1.170566e+06   9.637897e+05
  -1.201019e+06  -1.154650e+05
  -6.144997e+05  -6.757174e+05
  -2.164767e+05  -5.286936e+05
  -2.921901e+05  -2.081471e+05
  -3.855960e+05  -2.227031e+05
  -3.348646e+04  -5.083809e+05
   6.243220e+05  -6.080541e+05
   1.025997e+06  -2.040154e+05
   7.390609e+05   5.422019e+05
  -1.982062e+05   1.042713e+06
  -1.234603e+06   7.195673e+05
  -1.564549e+06  -3.966376e+05
  -7.467358e+05  -1.488482e+06
   7.419099e+05  -1.613744e+06
   1.776489e+06  -6.647476e+05
   1.632529e+06   4.942439e+05
   6.734293e+05   9.578493e+05
  -1.450335e+05   6.922111e+05
  -3.140476e+05   3.815425e+05
  -1.290352e+05   5.185952e+05
  -1.370088e+05   8.755065e+05
  -4.966319e+05   8.530474e+05
  -8.939680e+05   1.752162e+05
  -8.917678e+05  -7.956369e+05
  -3.272259e+05  -1.338248e+06
   4.804973e+05  -9.827154e+05
   8.983891e+05   3.299901e+04
   5.361378e+05   9.024322e+05
  -2.887559e+05   9.574576e+05
  -7.921574e+05   2.765462e+05
  -5.392972e+05  -4.646143e+05
   8.722100e+04  -7.191480e+05
   3.571807e+05  -5.329498e+05
   5.495831e+04  -3.028275e+05
  -2.848230e+05  -2.560790e+05
  -2.538071e+04  -2.728470e+05
   7.928113e+05  -1.165851e+05
   1.407748e+06   2.857589e+05
   1.094700e+06   7.568054e+05
  -4.571136e+04   9.789896e+05
  -1.112742e+06   7.380771e+05
  -1.273259e+06   1.563769e+05
  -5.739085e+05  -3.365949e+05
   1.866164e+05  -3.733206e+05
   3.485865e+05  -2.092770e+04
  -1.584742e+03   2.761075e+05
  -3.270629e+05   1.619999e+05
  -3.221117e+05  -2.535737e+05
  -1.326681e+05  -5.191501e+05
  -3.152460e+04  -3.392680e+05
  -1.008611e+05   7.763632e+04
  -2.201935e+05   2.150698e+05
  -1.887938e+05  -1.680051e+05
   1.392996e+05  -6.915602e+05
   6.577558e+05  -7.116967e+05
   9.289821e+05  -6.566762e+04
   5.410036e+05   6.647025e+05
  -3.240431e+05   7.615169e+05
  -8.732199e+05   1.765457e+05
  -4.918941e+05  -4.285018e+05
   5.033698e+05  -4.357234e+05
   1.114487e+06   1.018298e+05
   7.042149e+05   6.257275e+05
  -3.460309e+05   6.926615e+05
  -1.064891e+06   3.192369e+05
  -8.732511e+05  -1.538875e+05
  -8.931901e+04  -3.674112e+05
   4.584933e+05  -1.783847e+05
   2.527630e+05   2.105248e+05
  -4.335093e+05   3.385819e+05
  -8.230680e+05  -1.052953e+05
  -4.182075e+05  -8.531094e+05
   4.817551e+05  -1.167568e+06
   1.073681e+06  -5.648889e+05
   8.566646e+05   5.734539e+05
   8.752065e+04   1.264801e+06
  -5.562214e+05   8.943211e+05
  -6.454914e+05  -1.397712e+05
  -2.781802e+05  -8.453319e+05
   1.677675e+05  -6.792465e+05
   3.915325e+05  -4.786565e+04
   3.255176e+05   2.797430e+05
   1.216665e+05   1.036721e+05
   3.235736e+04  -6.852264e+04
   1.713282e+05   2.087722e+05
   3.230468e+05   6.890780e+05
   1.155088e+05   7.625947e+05
  -4.974115e+05   2.571384e+05
  -1.022409e+06  -3.687831e+05
  -8.846414e+05  -6.225607e+05
  -1.105430e+05  -4.924535e+05
   6.200687e+05  -2.692129e+05
   6.983644e+05  -1.033681e+05
   2.428319e+05   4.280858e+04
  -1.121339e+05   1.535116e+05
  -1.961354e+04   1.470864e+05
   1.946535e+05   7.857975e+04
   2.734336e+04   9.588569e+04
  -4.825967e+05   1.438663e+05
  -7.324371e+05  -4.110644e+04
  -2.683544e+05  -4.978117e+05
   6.337573e+05  -7.971369e+05
   1.207287e+06  -4.740677e+05
   9.660439e+05   3.494507e+05
   1.497976e+05   9.959185e+05
  -5.746022e+05   9.393121e+05
  -7.518038e+05   3.415138e+05
  -4.550348e+05  -1.860950e+05
  -7.981118e+04  -2.554290e+05
   5.966454e+04  -4.064406e+04
  -5.360268e+04   1.485484e+04
  -2.038230e+05  -2.630216e+05
  -1.539954e+05  -5.728946e+05
   1.463856e+05  -4.697659e+05
   4.767762e+05   1.083339e+05
   4.888402e+05   6.930558e+05
   4.521546e+04   7.273353e+05
  -5.403334e+05   1.479418e+05
  -7.056404e+05  -5.395864e+05
  -2.107081e+05  -7.741349e+05
   5.205288e+05  -4.514904e+05
   7.796837e+05   8.509691e+04
   3.514787e+05   4.403319e+05
  -2.205448e+05   4.618860e+05
  -2.710597e+05   2.450367e+05
   1.794133e+05   1.377665e+04
   4.582851e+05  -9.522664e+03
   9.239060e+04   2.194546e+05
  -5.970646e+05   4.545352e+05
  -8.921449e+05   3.475835e+05
  -5.234910e+05  -1.422446e+05
   9.189423e+04  -6.051715e+05
   4.063634e+05  -5.822922e+05
   2.989215e+05  -9.710302e+04
   2.294539e+04   3.403062e+05
  -1.810507e+05   2.967016e+05
  -2.446504e+05  -1.166398e+05
  -1.623753e+05  -4.120328e+05
   5.052206e+04  -2.949000e+05
   2.734669e+05   4.338712e+04
   3.238920e+05   2.069760e+05
   1.667167e+05   7.153931e+04
  -1.708863e+04  -1.036843e+05
  -5.472963e+04  -2.611722e+04
  -5.447599e+03   2.525657e+05
  -5.836853e+04   3.829281e+05
  -2.342129e+05   1.389202e+05
  -3.082197e+05  -2.841038e+05
  -8.688059e+04  -4.613682e+05
   2.970286e+05  -2.090201e+05
   4.574279e+05   2.164265e+05
   1.620472e+05   4.109642e+05
  -3.646500e+05   2.424196e+05
  -6.158674e+05  -7.799444e+04
  -3.254412e+05  -2.777398e+05
   2.173451e+05  -2.708395e+05
   4.545691e+05  -1.403623e+05
   1.739910e+05  -4.933490e+03
  -2.490613e+05   3.816479e+04
  -2.871968e+05  -5.783256e+04
   1.271030e+05  -2.032689e+05
   5.328377e+05  -1.735085e+05
