
 $NMID
 id='ANONYMOUS ', fmtdat='(2E16.6)'
 volume=1.0
 tramp=1.0
 $END
  -1.705927e+07  -1.167636e+05
  -1.099102e+07  -9.088893e+06
   9.214998e+05  -1.115821e+07
   7.888760e+06  -6.135053e+06
   5.848916e+06   4.371408e+05
  -1.657057e+05   3.063829e+06
  -3.379547e+06   8.253507e+05
  -1.977919e+06  -2.904467e+06
   1.279782e+06  -4.082217e+06
   3.178391e+06  -1.541556e+06
   2.531660e+06   2.155218e+06
   2.557730e+05   3.274013e+06
  -1.530631e+06   7.644849e+05
  -1.109096e+06  -2.537536e+06
   1.109211e+06  -2.971096e+06
   2.723920e+06  -3.242292e+04
   1.817868e+06   3.307752e+06
  -9.688404e+05   4.015778e+06
  -3.227492e+06   1.896239e+06
  -3.292403e+06  -9.041781e+05
  -1.597023e+06  -2.363482e+06
   9.227744e+04  -2.145766e+06
   3.738621e+05  -1.331533e+06
  -5.600114e+05  -1.157893e+06
  -1.052792e+06  -1.829070e+06
   3.121388e+05  -2.309052e+06
   2.830235e+06  -1.478369e+06
   4.017460e+06   4.282002e+05
   2.380760e+06   1.893489e+06
  -6.046450e+05   1.758161e+06
  -2.037806e+06   4.075187e+05
  -8.667592e+05  -8.163128e+05
   1.191135e+06  -9.383771e+05
   1.932272e+06   7.151150e+04
   9.820693e+05   1.450677e+06
  -3.933929e+05   2.030139e+06
  -9.827522e+05   1.094511e+06
  -6.133721e+05  -5.900897e+05
   7.250782e+04  -1.175368e+06
   2.715507e+05   9.285671e+04
  -3.255012e+05   1.576055e+06
  -1.121149e+06   1.129350e+06
  -1.040483e+06  -9.392545e+05
   2.351559e+05  -2.019715e+06
   1.597609e+06  -5.583408e+05
   1.504490e+06   1.873291e+06
  -3.025334e+05   2.542948e+06
  -2.343374e+06   7.941569e+05
  -2.766956e+06  -1.519306e+06
  -1.103935e+06  -2.357538e+06
   1.281273e+06  -1.383848e+06
   2.390709e+06   2.638248e+05
   1.387732e+06   1.245676e+06
  -6.130697e+05   9.703026e+05
  -1.634078e+06  -9.391431e+04
  -8.671782e+05  -8.251163e+05
   5.272690e+05  -5.177707e+05
   8.543465e+05   3.428433e+05
  -1.089331e+05   6.568316e+05
  -9.622268e+05   4.640486e+04
  -4.829969e+05  -7.515087e+05
   9.146752e+05  -8.315428e+05
   1.719227e+06  -3.624707e+04
   9.848855e+05   1.114457e+06
  -8.007884e+05   1.912268e+06
  -2.298359e+06   1.732179e+06
  -2.502667e+06   3.796570e+05
  -1.473211e+06  -1.446852e+06
  -1.493317e+05  -2.457982e+06
   5.397846e+05  -2.034293e+06
   4.947338e+05  -9.559456e+05
   3.776480e+05  -4.207132e+05
   7.264550e+05  -5.425256e+05
   1.296367e+06  -3.930750e+05
   1.388891e+06   5.115191e+05
   6.852244e+05   1.406293e+06
  -4.047555e+05   1.227958e+06
  -1.113023e+06  -3.416268e+04
  -8.974086e+05  -1.288185e+06
   1.702147e+05  -1.473614e+06
   1.356046e+06  -5.018428e+05
   1.727686e+06   8.154666e+05
   9.874722e+05   1.548532e+06
  -1.568194e+05   1.394889e+06
  -7.341526e+05   8.137033e+05
  -6.352893e+05   4.591189e+05
  -6.605386e+05   4.678419e+05
  -1.331161e+06   3.732860e+05
  -2.026640e+06  -2.650393e+05
  -1.658089e+06  -1.278263e+06
  -5.957064e+04  -1.998223e+06
   1.649647e+06  -1.852313e+06
   2.157251e+06  -8.318753e+05
   1.231950e+06   4.573949e+05
  -1.379716e+05   1.156591e+06
  -7.450437e+05   8.161507e+05
  -2.526022e+05  -1.050967e+05
   6.136967e+05  -5.886698e+05
   8.818855e+05  -1.511627e+05
   3.306339e+05   5.564143e+05
  -3.461845e+05   5.520943e+05
  -3.579688e+05  -1.725420e+05
   3.100912e+05  -5.733202e+05
   9.170417e+05   1.203830e+05
   7.535080e+05   1.374098e+06
  -2.100143e+05   1.910581e+06
  -1.354524e+06   1.111163e+06
  -1.902635e+06  -4.002705e+05
  -1.451697e+06  -1.470215e+06
  -2.984574e+05  -1.477095e+06
   7.001057e+05  -7.287876e+05
   8.308824e+05  -3.875238e+04
   2.451100e+05   3.073213e+04
  -1.790153e+05  -3.698038e+05
   1.546317e+05  -6.048911e+05
   8.368386e+05  -2.713321e+05
   9.556991e+05   3.502868e+05
   2.424356e+05   6.310138e+05
  -5.563787e+05   3.155160e+05
  -5.277502e+05  -2.189034e+05
   3.619855e+05  -3.955887e+05
   1.202745e+06   3.231809e+03
   1.072928e+06   6.908059e+05
  -3.360994e+04   1.128284e+06
  -1.188589e+06   9.183899e+05
  -1.408542e+06   1.460688e+05
  -5.864716e+05  -5.894449e+05
   4.267724e+05  -6.585044e+05
   6.794164e+05  -6.541773e+04
   4.339561e+04   4.836173e+05
  -7.366217e+05   3.369150e+05
  -8.600316e+05  -3.539675e+05
  -2.461470e+05  -8.195433e+05
   4.810431e+05  -5.757674e+05
   6.597304e+05   5.277485e+04
   2.064009e+05   3.596092e+05
  -3.388875e+05   4.767228e+04
  -3.347376e+05  -5.050274e+05
   3.161622e+05  -6.793504e+05
   1.002748e+06  -2.177421e+05
   9.799615e+05   5.537703e+05
   1.715076e+05   1.017387e+06
  -6.955574e+05   8.039501e+05
  -8.499890e+05   1.253069e+05
  -2.846250e+05  -4.217812e+05
   3.141919e+05  -4.244193e+05
   3.713319e+05  -2.853128e+04
  -1.646874e+04   2.733907e+05
  -3.214702e+05   1.954239e+05
  -2.107810e+05  -6.243417e+04
   1.467869e+05  -9.068491e+04
   2.988163e+05   2.328292e+05
  -3.619182e+04   5.699232e+05
  -6.650495e+05   4.538041e+05
  -1.028959e+06  -2.084217e+05
  -7.050064e+05  -9.721567e+05
   1.344775e+05  -1.225738e+06
   8.372510e+05  -7.603179e+05
   9.179934e+05   2.916193e+04
   5.232004e+05   5.305540e+05
   1.757814e+05   4.948577e+05
   1.442140e+05   2.104709e+05
   2.075362e+05   1.182684e+05
   2.426291e+04   3.117790e+05
  -4.135246e+05   4.577555e+05
  -7.450577e+05   2.000831e+05
  -5.875096e+05  -3.923515e+05
   9.428319e+04  -8.117780e+05
   8.803176e+05  -5.794271e+05
   1.153233e+06   2.459356e+05
   6.001754e+05   1.044146e+06
  -4.449103e+05   1.171421e+06
  -1.223223e+06   5.537347e+05
  -1.215394e+06  -2.669046e+05
  -5.870854e+05  -6.813848e+05
   5.190285e+04  -5.772751e+05
   2.767778e+05  -3.419239e+05
   1.779998e+05  -3.570638e+05
   1.258999e+05  -5.679337e+05
   3.226852e+05  -5.777496e+05
   6.072976e+05  -1.285059e+05
   6.379933e+05   5.616256e+05
   2.482434e+05   9.588124e+05
  -3.380727e+05   7.131791e+05
  -6.535251e+05   3.591304e+03
  -4.198789e+05  -6.117638e+05
   1.447558e+05  -6.917069e+05
   5.154667e+05  -2.718880e+05
   3.957504e+05   2.390064e+05
   1.230570e+04   4.753144e+05
  -1.738489e+05   4.057072e+05
  -7.340161e+03   2.518764e+05
   1.912239e+05   1.947621e+05
   1.138533e+04   2.003741e+05
  -5.408747e+05   1.071496e+05
  -9.774434e+05  -1.639951e+05
  -7.988381e+05  -4.991122e+05
  -3.330944e+04  -6.721989e+05
   7.302281e+05  -5.370320e+05
   8.956041e+05  -1.683700e+05
   4.410409e+05   1.722876e+05
  -1.008385e+05   2.438170e+05
  -2.352206e+05   4.690638e+04
   1.420592e+04  -1.585622e+05
   2.526661e+05  -1.060149e+05
   2.262506e+05   1.794254e+05
   5.327535e+04   3.797893e+05
  -1.694934e+04   2.423370e+05
   7.942814e+04  -8.746296e+04
   1.928437e+05  -1.933767e+05
   1.451913e+05   1.116733e+05
  -1.150331e+05   5.093150e+05
  -4.570947e+05   5.101317e+05
  -6.063468e+05   3.474561e+04
  -3.419041e+05  -4.655027e+05
   2.181139e+05  -5.067672e+05
   5.883702e+05  -9.545644e+04
   3.493537e+05   3.163674e+05
  -3.452936e+05   3.301524e+05
  -8.261977e+05  -3.464498e+04
  -5.781226e+05  -4.344087e+05
   1.979279e+05  -5.461495e+05
   7.814155e+05  -3.091116e+05
   6.768974e+05   6.796204e+04
   9.282871e+04   2.771105e+05
  -3.245215e+05   1.587651e+05
  -1.718165e+05  -1.312973e+05
   3.270533e+05  -2.241323e+05
   5.856199e+05   1.006455e+05
   2.657550e+05   6.236769e+05
  -3.844497e+05   8.228720e+05
  -7.902999e+05   3.824148e+05
  -6.193392e+05  -4.246891e+05
  -6.655152e+04  -9.242584e+05
   3.976938e+05  -6.776340e+05
   4.806713e+05   6.582013e+04
   2.421902e+05   6.083067e+05
  -7.621980e+04   5.208941e+05
  -2.724001e+05   5.769411e+04
  -2.674521e+05  -2.087943e+05
  -1.210232e+05  -8.753580e+04
  -1.167276e+04   6.175272e+04
  -8.229522e+04  -1.219045e+05
  -2.248641e+05  -4.848917e+05
  -1.301830e+05  -5.640064e+05
   3.139219e+05  -2.038752e+05
   7.516581e+05   2.598486e+05
   6.846654e+05   4.472546e+05
   8.994877e+04   3.482525e+05
  -4.793820e+05   1.928124e+05
  -5.188755e+05   9.220846e+04
  -1.507751e+05  -6.382686e+03
   9.281131e+04  -1.075146e+05
  -2.283212e+04  -1.303193e+05
  -1.798909e+05  -8.169763e+04
  -4.343628e+03  -6.928669e+04
   3.902189e+05  -8.595549e+04
   5.228761e+05   3.804481e+04
   1.363388e+05   3.450184e+05
  -4.914855e+05   5.492899e+05
  -8.394444e+05   3.191467e+05
  -6.450688e+05  -2.675286e+05
  -9.365980e+04  -7.240743e+05
   3.995550e+05  -6.669072e+05
   5.373459e+05  -2.206417e+05
   3.321475e+05   1.561854e+05
   4.097322e+04   1.810773e+05
  -7.537887e+04   1.532742e+03
   2.837248e+04  -3.989285e+04
   1.682319e+05   1.787548e+05
   1.295734e+05   4.145383e+05
  -1.116151e+05   3.301292e+05
  -3.494174e+05  -1.051453e+05
  -3.270762e+05  -5.238052e+05
   1.047917e+04  -5.159896e+05
   4.099343e+05  -6.627181e+04
   4.925941e+05   4.236363e+05
   1.262767e+05   5.535896e+05
  -3.787503e+05   2.957447e+05
  -5.415325e+05  -7.062311e+04
  -2.340689e+05  -2.881052e+05
   1.520952e+05  -2.976833e+05
   1.621167e+05  -1.721291e+05
  -1.631025e+05  -2.790327e+04
  -3.389502e+05  -1.143950e+02
  -5.489821e+04  -1.500675e+05
   4.312603e+05  -3.328562e+05
   6.162340e+05  -2.807477e+05
   3.453791e+05   7.114650e+04
  -6.819836e+04   4.221857e+05
  -2.608597e+05   4.086126e+05
  -1.775162e+05   4.787525e+04
   4.239417e+03  -2.580103e+05
   1.355172e+05  -1.936395e+05
   1.747997e+05   1.162706e+05
   1.113147e+05   2.979748e+05
  -4.235687e+04   1.825959e+05
  -1.943351e+05  -4.552150e+04
  -2.245634e+05  -1.263752e+05
  -1.218631e+05  -3.199759e+04
  -1.154043e+03   4.805875e+04
   4.441399e+04  -3.283513e+04
   5.082069e+04  -1.979705e+05
   1.020843e+05  -2.342948e+05
   1.832707e+05  -3.915390e+04
   1.750190e+05   2.392319e+05
   4.065389e+03   3.318542e+05
  -2.292672e+05   1.321531e+05
  -3.052434e+05  -1.763630e+05
  -9.770138e+04  -3.077372e+05
   2.532416e+05  -1.698603e+05
   4.229496e+05   7.044600e+04
   2.240951e+05   2.009410e+05
  -1.549834e+05   1.705022e+05
  -3.164674e+05   7.102368e+04
  -9.972465e+04   2.557985e+02
   2.124829e+05   2.795216e+03
   2.171947e+05   8.024473e+04
  -1.235389e+05   1.648075e+05
  -4.322941e+05   1.169606e+05
