
 $NMID
 id='ANONYMOUS ', fmtdat='(2E16.6)'
 volume=1.0
 tramp=1.0
 $END
   5.408701e+07   1.326480e+04
   3.266085e+07   3.337387e+07
  -6.996973e+06   3.661461e+07
  -2.650586e+07   1.425972e+07
  -1.597490e+07  -6.585104e+06
   3.097119e+06  -9.011184e+06
   9.521592e+06   1.064533e+06
   2.787584e+06   9.415150e+06
  -5.935317e+06   9.117934e+06
  -9.325021e+06   2.006585e+06
  -6.748821e+06  -5.994477e+06
  -7.642816e+05  -8.326386e+06
   3.859949e+06  -2.617835e+06
   2.526511e+06   5.325194e+06
  -3.648189e+06   6.390274e+06
  -7.611426e+06  -1.249834e+06
  -4.310297e+06  -9.838833e+06
   3.624800e+06  -1.138334e+07
   9.721689e+06  -5.683633e+06
   1.037396e+07   1.991746e+06
   6.321599e+06   7.180240e+06
   6.599746e+05   8.247349e+06
  -2.721564e+06   5.785652e+06
  -1.677169e+06   2.667626e+06
   1.094930e+06   2.218803e+06
   1.698933e+05   4.103178e+06
  -5.313451e+06   4.197597e+06
  -9.369550e+06   3.859132e+05
  -6.771027e+06  -4.033406e+06
  -1.683511e+05  -4.858457e+06
   3.649266e+06  -2.401313e+06
   2.358857e+06   7.322812e+04
  -7.106397e+05   9.353529e+05
  -2.312925e+06   4.072995e+05
  -2.109986e+06  -1.490706e+06
  -5.799724e+05  -3.842231e+06
   1.768557e+06  -3.681527e+06
   3.045721e+06   1.403165e+05
   1.582013e+06   3.475557e+06
  -7.226902e+05   1.775808e+06
  -2.562516e+05  -2.434223e+06
   2.417261e+06  -2.249180e+06
   2.386334e+06   3.073243e+06
  -2.279593e+06   5.927183e+06
  -6.626393e+06   1.024320e+06
  -4.921800e+06  -6.622827e+06
   1.800844e+06  -8.196106e+06
   7.143983e+06  -2.328603e+06
   6.744823e+06   4.315407e+06
   1.815708e+06   5.873620e+06
  -3.385447e+06   2.660015e+06
  -5.150179e+06  -1.473797e+06
  -2.397068e+06  -3.395759e+06
   2.318101e+06  -2.148591e+06
   4.384623e+06   8.748898e+05
   1.904650e+06   2.622047e+06
  -1.653857e+06   1.326982e+06
  -1.707519e+06  -1.002226e+06
   1.250965e+06  -9.370922e+05
   2.426882e+06   1.624642e+06
  -5.008875e+05   3.296520e+06
  -4.396152e+06   1.878306e+06
  -5.122826e+06  -1.250592e+06
  -2.264819e+06  -3.817963e+06
   1.769820e+06  -5.086348e+06
   4.908408e+06  -4.658429e+06
   6.016560e+06  -1.642411e+06
   4.396892e+06   3.090025e+06
   8.743566e+05   5.993055e+06
  -1.805410e+06   4.655268e+06
  -1.712189e+06   1.245882e+06
  -2.159959e+05  -1.957188e+05
  -6.739082e+04   9.435892e+05
  -1.631015e+06   1.675598e+06
  -2.749385e+06   1.454275e+05
  -1.933204e+06  -1.956126e+06
   4.251145e+04  -2.119467e+06
   1.568695e+06  -1.642958e+05
   1.640412e+06   2.091833e+06
  -3.597047e+04   2.890793e+06
  -2.723941e+06   1.577734e+06
  -4.334112e+06  -1.208483e+06
  -3.092791e+06  -3.664220e+06
   5.128294e+04  -4.079276e+06
   2.194084e+06  -2.618296e+06
   2.150341e+06  -1.114221e+06
   1.790791e+06  -6.861725e+05
   2.900434e+06  -4.723723e+05
   4.280639e+06   7.667552e+05
   3.419785e+06   2.747060e+06
   9.790777e+04   4.076229e+06
  -3.204559e+06   3.821311e+06
  -4.144566e+06   2.039011e+06
  -2.605207e+06  -4.590223e+05
  -2.252202e+05  -2.207169e+06
   1.117892e+06  -1.882510e+06
   5.506456e+05   4.760532e+04
  -1.092924e+06   1.278610e+06
  -1.883006e+06   3.773489e+05
  -8.921043e+05  -1.191184e+06
   5.302922e+05  -1.094976e+06
   4.354934e+05   3.944785e+05
  -1.051530e+06   7.127042e+05
  -1.849973e+06  -1.241344e+06
  -6.660503e+05  -3.441905e+06
   1.559875e+06  -3.408150e+06
   3.123698e+06  -1.134604e+06
   3.299988e+06   1.441621e+06
   2.251907e+06   2.776518e+06
   4.239027e+05   2.608504e+06
  -1.249814e+06   1.436665e+06
  -1.566877e+06   2.040723e+05
  -4.881427e+05  -5.049846e+04
   3.485344e+05   7.498531e+05
  -4.171880e+05   1.325327e+06
  -1.890886e+06   5.599680e+05
  -2.010887e+06  -8.927653e+05
  -3.746818e+05  -1.408265e+06
   1.170053e+06  -5.582032e+05
   8.835175e+05   4.658542e+05
  -8.525766e+05   5.186339e+05
  -2.176754e+06  -3.379646e+05
  -1.728357e+06  -1.376461e+06
   2.700522e+05  -1.966892e+06
   2.316397e+06  -1.621939e+06
   2.759752e+06  -2.423727e+05
   1.197253e+06   1.266623e+06
  -9.225606e+05   1.480128e+06
  -1.545814e+06   1.760758e+05
  -1.887705e+05  -1.070620e+06
   1.512997e+06  -7.164388e+05
   1.701855e+06   7.942535e+05
   3.204670e+05   1.650148e+06
  -1.098667e+06   9.651070e+05
  -1.252727e+06  -3.227633e+05
  -2.393192e+05  -7.833234e+05
   7.925070e+05  -4.918383e+04
   7.219605e+05   1.053746e+06
  -5.868831e+05   1.408900e+06
  -2.000427e+06   5.180676e+05
  -2.012032e+06  -1.064502e+06
  -3.605820e+05  -2.066637e+06
   1.448784e+06  -1.619775e+06
   1.720338e+06  -1.912550e+05
   4.910857e+05   8.712947e+05
  -6.652080e+05   7.930024e+05
  -6.315367e+05   6.611171e+04
   1.259899e+05  -3.614223e+05
   4.973128e+05  -2.000065e+05
   1.226909e+05   7.462754e+04
  -4.498187e+05  -7.493587e+04
  -5.133106e+05  -6.741088e+05
   2.163257e+05  -1.181216e+06
   1.384635e+06  -8.767947e+05
   2.065948e+06   4.337986e+05
   1.436259e+06   1.947481e+06
  -2.421537e+05   2.404531e+06
  -1.624323e+06   1.386602e+06
  -1.681354e+06  -1.468352e+05
  -8.402293e+05  -9.063266e+05
  -3.004517e+05  -6.548205e+05
  -4.658029e+05  -2.200425e+05
  -6.204866e+05  -3.124546e+05
  -8.543437e+04  -7.589462e+05
   8.811946e+05  -8.875795e+05
   1.445632e+06  -3.063330e+05
   1.034705e+06   7.330217e+05
  -2.684895e+05   1.450797e+06
  -1.726139e+06   1.047027e+06
  -2.230099e+06  -5.065621e+05
  -1.105022e+06  -2.102317e+06
   1.028962e+06  -2.344535e+06
   2.541211e+06  -1.000514e+06
   2.333812e+06   6.830062e+05
   9.357846e+05   1.347092e+06
  -2.201507e+05   9.410901e+05
  -3.971741e+05   4.995313e+05
  -8.542518e+04   7.413149e+05
  -1.125315e+05   1.294573e+06
  -6.767869e+05   1.274718e+06
  -1.288167e+06   3.054120e+05
  -1.318219e+06  -1.086462e+06
  -5.339067e+05  -1.888274e+06
   6.327473e+05  -1.421638e+06
   1.278662e+06   1.619264e+04
   7.956438e+05   1.285645e+06
  -4.029798e+05   1.386650e+06
  -1.164073e+06   3.938496e+05
  -8.045437e+05  -7.020090e+05
   1.311680e+05  -1.072133e+06
   5.430441e+05  -7.765732e+05
   9.139431e+04  -4.141608e+05
  -4.265838e+05  -3.366634e+05
  -5.559284e+04  -3.807666e+05
   1.144978e+06  -1.986335e+05
   2.049112e+06   3.490240e+05
   1.598727e+06   1.047462e+06
  -5.107801e+04   1.429960e+06
  -1.591719e+06   1.121851e+06
  -1.826281e+06   2.576004e+05
  -8.272137e+05  -5.028479e+05
   2.640418e+05  -5.655781e+05
   5.111732e+05  -2.859888e+04
   2.977561e+04   4.190563e+05
  -4.408291e+05   2.520653e+05
  -4.759661e+05  -3.436462e+05
  -2.475613e+05  -7.170243e+05
  -9.383806e+04  -4.741355e+05
  -1.391158e+05   9.043372e+04
  -2.805542e+05   2.830440e+05
  -2.713745e+05  -2.344475e+05
   1.486474e+05  -9.766311e+05
   9.030421e+05  -1.052772e+06
   1.358145e+06  -1.686834e+05
   8.441517e+05   9.127078e+05
  -4.194921e+05   1.133354e+06
  -1.253449e+06   3.315896e+05
  -7.246313e+05  -5.736953e+05
   7.059653e+05  -6.379936e+05
   1.577543e+06   1.148331e+05
   9.850466e+05   8.735166e+05
  -4.990992e+05   9.768337e+05
  -1.497444e+06   4.519676e+05
  -1.220681e+06  -2.093108e+05
  -1.243104e+05  -5.125858e+05
   6.508886e+05  -2.585408e+05
   3.830514e+05   2.973719e+05
  -5.808586e+05   5.178767e+05
  -1.175423e+06  -8.202999e+04
  -6.674263e+05  -1.173701e+06
   5.862275e+05  -1.691613e+06
   1.475188e+06  -8.778861e+05
   1.244816e+06   7.575406e+05
   1.907977e+05   1.781511e+06
  -7.472653e+05   1.276894e+06
  -9.191173e+05  -1.903189e+05
  -4.125042e+05  -1.192264e+06
   2.377819e+05  -9.590143e+05
   5.642388e+05  -7.549755e+04
   4.525358e+05   3.789648e+05
   1.519452e+05   1.369068e+05
   5.325539e+04  -9.230227e+04
   2.911873e+05   2.997347e+05
   5.061998e+05   9.670422e+05
   1.700730e+05   1.074594e+06
  -7.280178e+05   3.882681e+05
  -1.462529e+06  -4.726190e+05
  -1.256454e+06  -8.433708e+05
  -1.784639e+05  -6.992581e+05
   8.405153e+05  -4.118227e+05
   9.771028e+05  -1.704026e+05
   3.694948e+05   6.041009e+04
  -1.413111e+05   2.244314e+05
  -5.181257e+04   1.988515e+05
   2.466900e+05   8.893336e+04
   5.600873e+04   1.310321e+05
  -6.416969e+05   2.368340e+05
  -1.044044e+06  -9.067902e+03
  -4.541634e+05  -6.905041e+05
   8.237493e+05  -1.179698e+06
   1.705019e+06  -7.641164e+05
   1.425698e+06   4.197311e+05
   2.785775e+05   1.397482e+06
  -7.705527e+05   1.375908e+06
  -1.045553e+06   5.474121e+05
  -6.491025e+05  -2.221789e+05
  -1.410279e+05  -3.567689e+05
   5.294390e+04  -7.551702e+04
  -8.827536e+04   4.517009e+03
  -2.906946e+05  -3.735175e+05
  -2.376698e+05  -8.066727e+05
   1.745857e+05  -6.806284e+05
   6.737469e+05   1.072881e+05
   7.477787e+05   9.331746e+05
   1.390072e+05   1.027950e+06
  -7.359056e+05   2.666678e+05
  -1.037498e+06  -6.971648e+05
  -3.627553e+05  -1.085087e+06
   7.047180e+05  -6.915324e+05
   1.124586e+06   6.548353e+04
   5.438512e+05   6.225153e+05
  -2.846231e+05   6.953624e+05
  -3.941478e+05   3.732652e+05
   2.269653e+05   2.913821e+03
   6.419511e+05  -4.306946e+04
   1.536677e+05   3.098569e+05
  -8.219306e+05   6.751027e+05
  -1.272065e+06   5.270039e+05
  -7.806565e+05  -1.892176e+05
   9.195505e+04  -8.742216e+05
   5.651560e+05  -8.638352e+05
   4.423557e+05  -1.782901e+05
   6.469659e+04   4.682867e+05
  -2.324699e+05   4.452032e+05
  -3.487295e+05  -1.276576e+05
  -2.578961e+05  -5.736881e+05
   4.482242e+04  -4.423374e+05
   3.899972e+05   3.499971e+04
   4.824654e+05   2.904996e+05
   2.431373e+05   1.068676e+05
  -4.527663e+04  -1.632530e+05
  -8.540025e+04  -7.297370e+04
   3.816118e+04   3.381259e+05
  -8.924841e+03   5.661096e+05
  -3.022875e+05   2.525948e+05
  -4.817402e+05  -3.513780e+05
  -1.927702e+05  -6.391623e+05
   3.949114e+05  -3.242244e+05
   6.755558e+05   2.614084e+05
   2.652534e+05   5.617778e+05
  -5.097714e+05   3.702028e+05
  -8.912182e+05  -6.108442e+04
  -4.853282e+05  -3.731180e+05
   2.896298e+05  -4.153970e+05
   6.398324e+05  -2.494160e+05
   2.650039e+05  -2.404077e+04
  -3.214443e+05   8.451998e+04
  -3.962411e+05  -3.936515e+04
   1.488311e+05  -2.763396e+05
   7.094492e+05  -2.733900e+05
