
 $NMID
 id='ANONYMOUS ', fmtdat='(2E16.6)'
 volume=1.0
 tramp=1.0
 $END
  -2.329504e+07   1.586170e+06
  -1.719304e+07  -8.816583e+06
  -2.155357e+06  -1.470044e+07
   9.275986e+06  -1.195418e+07
   9.361011e+06  -2.795798e+06
   1.475402e+06   4.471274e+06
  -5.080151e+06   3.338502e+06
  -4.761351e+06  -3.614345e+06
   3.432478e+05  -7.611443e+06
   4.519672e+06  -3.917487e+06
   4.315564e+06   3.026118e+06
   7.622768e+05   5.411024e+06
  -2.428325e+06   1.092326e+06
  -2.223958e+06  -4.699059e+06
   1.146930e+06  -5.702575e+06
   4.249693e+06  -1.044395e+06
   3.627653e+06   4.649179e+06
  -5.434317e+05   6.332371e+06
  -4.435187e+06   3.199268e+06
  -4.649944e+06  -1.243882e+06
  -1.844542e+06  -3.166665e+06
   3.204230e+05  -2.185364e+06
  -4.827412e+05  -1.077462e+06
  -2.701366e+06  -2.086234e+06
  -2.782222e+06  -4.268234e+06
   8.039094e+05  -4.840680e+06
   5.589762e+06  -2.536174e+06
   7.213778e+06   1.071465e+06
   3.795340e+06   3.299521e+06
  -1.713062e+06   2.740964e+06
  -4.127450e+06   1.315499e+05
  -1.409413e+06  -2.319144e+06
   3.121219e+06  -2.417438e+06
   4.597253e+06   2.347534e+05
   2.022536e+06   3.442277e+06
  -1.210928e+06   4.111245e+06
  -1.860344e+06   1.506375e+06
  -3.066613e+05  -1.568421e+06
   8.972179e+05  -1.693386e+06
   4.304065e+05   1.165063e+06
  -9.532851e+05   3.492086e+06
  -1.999858e+06   2.356551e+06
  -1.989132e+06  -1.099980e+06
  -6.784227e+05  -3.024686e+06
   1.324185e+06  -1.328627e+06
   2.173833e+06   2.048442e+06
   2.791013e+05   3.454373e+06
  -3.274064e+06   1.435374e+06
  -4.986094e+06  -2.056326e+06
  -2.624556e+06  -3.934930e+06
   1.942017e+06  -2.900719e+06
   4.529368e+06  -2.178053e+05
   3.060919e+06   1.803240e+06
  -5.120885e+05   1.823795e+06
  -2.615006e+06   3.437613e+05
  -1.692961e+06  -9.864941e+05
   6.599076e+05  -8.924074e+05
   1.698620e+06   4.090787e+05
   3.837864e+05   1.470930e+06
  -1.617680e+06   1.073048e+06
  -1.771191e+06  -4.943711e+05
   4.005246e+05  -1.627978e+06
   2.524723e+06  -9.538385e+05
   1.924234e+06   1.268302e+06
  -1.264970e+06   3.225284e+06
  -4.166072e+06   3.074125e+06
  -4.365493e+06   5.847686e+05
  -2.320308e+06  -2.570611e+06
  -2.830773e+05  -4.251214e+06
   4.431230e+05  -3.758522e+06
   4.789054e+05  -2.300669e+06
   9.775873e+05  -1.432366e+06
   2.106377e+06  -1.224527e+06
   3.020427e+06  -4.316776e+05
   2.791020e+06   1.482382e+06
   1.179991e+06   3.128271e+06
  -1.072263e+06   2.600352e+06
  -2.511066e+06  -9.439775e+04
  -1.951929e+06  -2.685326e+06
   3.421171e+05  -2.924797e+06
   2.592932e+06  -8.252811e+05
   3.024601e+06   1.625179e+06
   1.547588e+06   2.630975e+06
  -2.691518e+05   2.098605e+06
  -9.700545e+05   1.193507e+06
  -7.507018e+05   8.975146e+05
  -1.019665e+06   1.131632e+06
  -2.473746e+06   1.015238e+06
  -3.917809e+06  -1.906691e+05
  -3.354741e+06  -2.247282e+06
  -3.323968e+05  -3.890050e+06
   3.111565e+06  -3.761207e+06
   4.241490e+06  -1.669070e+06
   2.381546e+06   1.003226e+06
  -4.159966e+05   2.331568e+06
  -1.555543e+06   1.539125e+06
  -4.615635e+05  -2.642366e+05
   1.218007e+06  -1.152308e+06
   1.640188e+06  -3.373947e+05
   5.757830e+05   1.008006e+06
  -6.996380e+05   1.098575e+06
  -8.440422e+05  -2.923645e+05
   3.502174e+05  -1.370882e+06
   1.820647e+06  -3.460564e+05
   2.058692e+06   2.287880e+06
   3.615534e+05   3.998834e+06
  -2.352238e+06   2.886591e+06
  -4.056506e+06  -2.583857e+05
  -3.345620e+06  -2.824642e+06
  -8.273021e+05  -3.055147e+06
   1.376065e+06  -1.522484e+06
   1.672022e+06  -1.033013e+05
   4.845203e+05   3.525589e+04
  -3.871923e+05  -7.058806e+05
   1.960945e+05  -1.141246e+06
   1.505341e+06  -5.999410e+05
   1.849279e+06   4.979294e+05
   5.794365e+05   1.130639e+06
  -1.038047e+06   6.907597e+05
  -1.133259e+06  -3.827156e+05
   6.323231e+05  -9.564786e+05
   2.502330e+06  -2.712392e+05
   2.395547e+06   1.268125e+06
   1.426307e+05   2.376701e+06
  -2.281342e+06   2.035794e+06
  -2.781369e+06   4.576768e+05
  -1.196612e+06  -1.046407e+06
   7.330889e+05  -1.246548e+06
   1.223089e+06  -1.738637e+05
   7.377435e+04   8.862516e+05
  -1.394240e+06   7.063200e+05
  -1.729695e+06  -5.680435e+05
  -6.477065e+05  -1.574906e+06
   8.179206e+05  -1.263779e+06
   1.325567e+06  -6.463329e+04
   5.128367e+05   6.499771e+05
  -6.156103e+05   1.342675e+05
  -6.799515e+05  -9.574146e+05
   5.911388e+05  -1.353228e+06
   1.967275e+06  -4.863555e+05
   1.962523e+06   1.017058e+06
   4.312202e+05   1.968939e+06
  -1.254402e+06   1.644643e+06
  -1.639156e+06   3.656159e+05
  -6.314454e+05  -7.766924e+05
   5.586165e+05  -8.809966e+05
   7.723317e+05  -7.803443e+04
   2.216378e+04   6.348315e+05
  -7.014737e+05   5.030843e+05
  -5.705106e+05  -1.430463e+05
   2.170136e+05  -3.318223e+05
   6.705296e+05   3.286321e+05
   6.296422e+04   1.119440e+06
  -1.243438e+06   9.867456e+05
  -2.053055e+06  -2.971316e+05
  -1.480745e+06  -1.844816e+06
   1.486313e+05  -2.451800e+06
   1.592221e+06  -1.649136e+06
   1.885872e+06  -8.428196e+04
   1.187910e+06   1.059562e+06
   4.248956e+05   1.113516e+06
   2.237819e+05   4.933617e+05
   3.307414e+05   1.743337e+05
   7.322538e+04   5.537515e+05
  -7.402687e+05   9.734986e+05
  -1.482950e+06   5.286872e+05
  -1.282904e+06  -7.399802e+05
   5.967989e+04  -1.706974e+06
   1.701544e+06  -1.297836e+06
   2.344813e+06   3.589395e+05
   1.337102e+06   1.995770e+06
  -6.941022e+05   2.357974e+06
  -2.311482e+06   1.269017e+06
  -2.469124e+06  -3.299557e+05
  -1.339398e+06  -1.290489e+06
  -1.018215e+04  -1.245858e+06
   5.867330e+05  -7.899708e+05
   4.417482e+05  -7.065628e+05
   2.518148e+05  -1.054198e+06
   5.580165e+05  -1.115062e+06
   1.147835e+06  -2.940511e+05
   1.295197e+06   1.058190e+06
   5.694818e+05   1.877828e+06
  -6.140640e+05   1.440798e+06
  -1.300960e+06   8.223520e+04
  -9.113423e+05  -1.135985e+06
   1.611440e+05  -1.378534e+06
   9.285633e+05  -6.602062e+05
   8.031728e+05   3.268233e+05
   1.474184e+05   8.826937e+05
  -2.125534e+05   8.367590e+05
   4.615417e+04   5.378138e+05
   3.809866e+05   3.863733e+05
   3.216971e+04   4.049606e+05
  -1.029108e+06   2.803556e+05
  -1.908323e+06  -2.085590e+05
  -1.629920e+06  -8.803605e+05
  -1.871980e+05  -1.286726e+06
   1.326232e+06  -1.114807e+06
   1.732031e+06  -4.607791e+05
   9.128927e+05   2.230166e+05
  -1.434276e+05   4.579082e+05
  -4.422809e+05   1.489524e+05
   3.128157e+04  -2.679304e+05
   5.115218e+05  -2.207495e+05
   4.558341e+05   3.327214e+05
   8.495159e+04   7.597219e+05
  -6.455179e+04   4.819241e+05
   1.575433e+05  -2.220477e+05
   4.134407e+05  -4.493105e+05
   3.144531e+05   2.041859e+05
  -2.081464e+05   1.042910e+06
  -8.582323e+05   1.045359e+06
  -1.133148e+06   8.969585e+04
  -6.542059e+05  -8.912342e+05
   3.835323e+05  -9.714469e+05
   1.115763e+06  -1.908013e+05
   7.119104e+05   6.118210e+05
  -6.377760e+05   6.995106e+05
  -1.667918e+06   4.206567e+04
  -1.266355e+06  -7.945166e+05
   2.852048e+05  -1.153803e+06
   1.540719e+06  -7.688510e+05
   1.404771e+06   3.101772e+04
   2.393991e+05   5.565232e+05
  -6.238714e+05   3.722121e+05
  -3.342172e+05  -2.269509e+05
   6.558522e+05  -4.445092e+05
   1.163512e+06   1.915742e+05
   5.285475e+05   1.234138e+06
  -7.510485e+05   1.641283e+06
  -1.562296e+06   7.878605e+05
  -1.263290e+06  -8.105873e+05
  -2.051397e+05  -1.844641e+06
   7.340262e+05  -1.414310e+06
   9.759042e+05   5.316126e+04
   5.742105e+05   1.187828e+06
  -6.069830e+04   1.074831e+06
  -5.257843e+05   1.597580e+05
  -5.859546e+05  -4.036457e+05
  -2.861768e+05  -1.792682e+05
  -3.151835e+03   1.363359e+05
  -1.200579e+05  -2.062505e+05
  -4.692403e+05  -9.332490e+05
  -3.546709e+05  -1.122649e+06
   5.538920e+05  -4.448508e+05
   1.527492e+06   4.535413e+05
   1.447881e+06   8.332232e+05
   2.163863e+05   6.771632e+05
  -9.764870e+05   4.194993e+05
  -1.041306e+06   2.429575e+05
  -2.696539e+05   2.572325e+04
   1.901420e+05  -2.162464e+05
  -1.023274e+05  -2.828216e+05
  -4.134090e+05  -1.779380e+05
   5.382732e+03  -1.411245e+05
   8.223235e+05  -1.811351e+05
   1.036468e+06   5.000624e+04
   2.260193e+05   6.641266e+05
  -9.801336e+05   1.097987e+06
  -1.609196e+06   6.644056e+05
  -1.240988e+06  -5.072356e+05
  -2.220472e+05  -1.440261e+06
   7.300326e+05  -1.341422e+06
   1.050268e+06  -4.462689e+05
   6.787359e+05   3.141968e+05
   7.350536e+04   3.562465e+05
  -1.913221e+05  -2.195784e+04
   3.927461e+04  -1.154304e+05
   3.714625e+05   3.294757e+05
   3.074579e+05   8.154804e+05
  -2.079571e+05   6.529644e+05
  -7.102218e+05  -2.176938e+05
  -6.570999e+05  -1.048319e+06
   3.652360e+04  -1.018025e+06
   8.361337e+05  -1.140315e+05
   9.918127e+05   8.480509e+05
   2.600758e+05   1.087032e+06
  -7.376305e+05   5.801090e+05
  -1.057946e+06  -1.143211e+05
  -4.605455e+05  -5.237240e+05
   2.768704e+05  -5.607699e+05
   2.723304e+05  -3.446460e+05
  -3.670914e+05  -6.080046e+04
  -6.848028e+05   1.706884e+04
  -1.059352e+05  -2.855423e+05
   8.331277e+05  -6.980251e+05
   1.169341e+06  -6.350532e+05
   6.504466e+05   8.158897e+04
  -1.084664e+05   8.262979e+05
  -4.514506e+05   8.145978e+05
  -3.061799e+05   7.919354e+04
   1.297359e+04  -5.293726e+05
   2.626586e+05  -3.713765e+05
   3.565224e+05   2.561602e+05
   2.359798e+05   5.854949e+05
  -8.032258e+04   3.307945e+05
  -3.867470e+05  -9.363091e+04
  -4.423468e+05  -2.084924e+05
  -2.448003e+05  -3.116180e+04
  -1.719328e+04   6.525897e+04
   8.759002e+04  -1.298758e+05
   1.410759e+05  -4.191685e+05
   2.600049e+05  -4.277356e+05
   3.826114e+05  -2.001193e+04
   3.116333e+05   5.066207e+05
  -3.711666e+04   6.624968e+05
  -4.652654e+05   2.585613e+05
  -5.920407e+05  -3.543201e+05
  -1.946784e+05  -6.197822e+05
   4.801272e+05  -3.493451e+05
   8.216339e+05   1.282223e+05
   4.469577e+05   3.847877e+05
  -2.954954e+05   3.199188e+05
  -6.118661e+05   1.269554e+05
  -1.673642e+05   2.397102e+03
   4.630965e+05   2.449787e+04
   4.512444e+05   1.886552e+05
  -2.701042e+05   3.595715e+05
  -9.073642e+05   2.569920e+05
