
 $NMID
 id='ANONYMOUS ', fmtdat='(2E16.6)'
 volume=1.0
 tramp=1.0
 $END
   5.613711e+07  -2.597712e+05
   3.406680e+07   3.455057e+07
  -7.125476e+06   3.808145e+07
  -2.749392e+07   1.487612e+07
  -1.661519e+07  -6.839489e+06
   3.206347e+06  -9.378266e+06
   9.896635e+06   1.110170e+06
   2.898498e+06   9.783034e+06
  -6.162143e+06   9.457718e+06
  -9.677951e+06   2.088530e+06
  -7.014721e+06  -6.186404e+06
  -8.218402e+05  -8.614526e+06
   3.980713e+06  -2.734212e+06
   2.620956e+06   5.485776e+06
  -3.774738e+06   6.613236e+06
  -7.901863e+06  -1.283296e+06
  -4.499513e+06  -1.019205e+07
   3.722940e+06  -1.181937e+07
   1.005943e+07  -5.938998e+06
   1.077170e+07   2.006587e+06
   6.610967e+06   7.410604e+06
   7.466263e+05   8.570308e+06
  -2.806917e+06   6.048906e+06
  -1.779379e+06   2.786044e+06
   1.095447e+06   2.265161e+06
   1.916697e+05   4.208929e+06
  -5.449648e+06   4.354366e+06
  -9.669279e+06   4.493399e+05
  -7.027157e+06  -4.132164e+06
  -2.226012e+05  -5.021020e+06
   3.732546e+06  -2.509062e+06
   2.428703e+06   3.353109e+04
  -7.057922e+05   9.291868e+05
  -2.345704e+06   4.185383e+05
  -2.165050e+06  -1.504106e+06
  -6.276184e+05  -3.941603e+06
   1.799919e+06  -3.824630e+06
   3.166366e+06   1.019713e+05
   1.681530e+06   3.585642e+06
  -7.265636e+05   1.872698e+06
  -2.787125e+05  -2.484254e+06
   2.491675e+06  -2.322009e+06
   2.481501e+06   3.185252e+06
  -2.358838e+06   6.166996e+06
  -6.897277e+06   1.096468e+06
  -5.147861e+06  -6.856933e+06
   1.838032e+06  -8.522392e+06
   7.400536e+06  -2.448158e+06
   6.992661e+06   4.451460e+06
   1.882054e+06   6.077294e+06
  -3.502790e+06   2.751790e+06
  -5.325987e+06  -1.527261e+06
  -2.476278e+06  -3.518899e+06
   2.405809e+06  -2.233448e+06
   4.549419e+06   8.980324e+05
   1.980164e+06   2.718012e+06
  -1.711456e+06   1.382261e+06
  -1.764472e+06  -1.036902e+06
   1.312119e+06  -9.704778e+05
   2.530530e+06   1.700446e+06
  -5.230901e+05   3.448646e+06
  -4.577263e+06   1.971153e+06
  -5.327879e+06  -1.292435e+06
  -2.360320e+06  -3.960810e+06
   1.808631e+06  -5.270448e+06
   5.046818e+06  -4.833267e+06
   6.209444e+06  -1.727654e+06
   4.566005e+06   3.168303e+06
   9.309323e+05   6.190938e+06
  -1.863747e+06   4.818886e+06
  -1.784863e+06   1.279647e+06
  -2.228273e+05  -2.284889e+05
  -4.128934e+04   9.550176e+05
  -1.649360e+06   1.737096e+06
  -2.820301e+06   1.773273e+05
  -1.997871e+06  -1.989817e+06
   2.826380e+04  -2.169837e+06
   1.600529e+06  -1.701468e+05
   1.685559e+06   2.144734e+06
  -2.732246e+04   2.974864e+06
  -2.799367e+06   1.641401e+06
  -4.481423e+06  -1.222380e+06
  -3.219959e+06  -3.772538e+06
   2.978147e+04  -4.227319e+06
   2.262830e+06  -2.727951e+06
   2.230576e+06  -1.163190e+06
   1.856430e+06  -7.086172e+05
   2.995342e+06  -4.870635e+05
   4.418405e+06   7.873077e+05
   3.531075e+06   2.829134e+06
   1.065112e+05   4.201725e+06
  -3.293859e+06   3.942819e+06
  -4.260808e+06   2.112309e+06
  -2.683652e+06  -4.587323e+05
  -2.443470e+05  -2.266915e+06
   1.139454e+06  -1.943063e+06
   5.671602e+05   4.423077e+04
  -1.120436e+06   1.319891e+06
  -1.941572e+06   3.945052e+05
  -9.266910e+05  -1.225523e+06
   5.415125e+05  -1.127781e+06
   4.442414e+05   4.091122e+05
  -1.095120e+06   7.311994e+05
  -1.917627e+06  -1.296508e+06
  -6.803965e+05  -3.567920e+06
   1.630085e+06  -3.516686e+06
   3.236318e+06  -1.155028e+06
   3.398236e+06   1.499504e+06
   2.309099e+06   2.861340e+06
   4.331788e+05   2.681934e+06
  -1.283254e+06   1.479976e+06
  -1.611285e+06   2.139200e+05
  -5.030182e+05  -5.127125e+04
   3.601373e+05   7.723395e+05
  -4.289043e+05   1.369549e+06
  -1.951730e+06   5.822314e+05
  -2.077349e+06  -9.198249e+05
  -3.876716e+05  -1.454576e+06
   1.206316e+06  -5.761817e+05
   9.077620e+05   4.805346e+05
  -8.826847e+05   5.308544e+05
  -2.241482e+06  -3.543976e+05
  -1.773938e+06  -1.419830e+06
   2.825847e+05  -2.022948e+06
   2.385464e+06  -1.669276e+06
   2.842751e+06  -2.518224e+05
   1.236902e+06   1.305167e+06
  -9.483549e+05   1.530555e+06
  -1.596095e+06   1.864415e+05
  -1.993017e+05  -1.103997e+06
   1.558275e+06  -7.416524e+05
   1.755214e+06   8.179057e+05
   3.292598e+05   1.701834e+06
  -1.135223e+06   9.937307e+05
  -1.292128e+06  -3.356278e+05
  -2.451594e+05  -8.096416e+05
   8.188128e+05  -5.207907e+04
   7.465401e+05   1.084752e+06
  -6.013169e+05   1.452632e+06
  -2.059321e+06   5.378851e+05
  -2.075035e+06  -1.092790e+06
  -3.749321e+05  -2.129411e+06
   1.491759e+06  -1.671803e+06
   1.773600e+06  -1.984431e+05
   5.062195e+05   8.984883e+05
  -6.854195e+05   8.174525e+05
  -6.483594e+05   6.841623e+04
   1.327044e+05  -3.694266e+05
   5.106825e+05  -2.014134e+05
   1.197828e+05   7.836589e+04
  -4.691114e+05  -8.064598e+04
  -5.297708e+05  -6.990873e+05
   2.241325e+05  -1.219428e+06
   1.426968e+06  -9.048517e+05
   2.129416e+06   4.446965e+05
   1.482796e+06   2.004603e+06
  -2.464113e+05   2.476737e+06
  -1.672250e+06   1.427722e+06
  -1.730493e+06  -1.524521e+05
  -8.614021e+05  -9.318807e+05
  -3.062055e+05  -6.683519e+05
  -4.817824e+05  -2.205777e+05
  -6.443619e+05  -3.208160e+05
  -9.071386e+04  -7.842372e+05
   9.084199e+05  -9.153670e+05
   1.489102e+06  -3.147627e+05
   1.063447e+06   7.545091e+05
  -2.783195e+05   1.492360e+06
  -1.777612e+06   1.078134e+06
  -2.296923e+06  -5.202707e+05
  -1.139409e+06  -2.165836e+06
   1.059915e+06  -2.418269e+06
   2.619945e+06  -1.032894e+06
   2.405078e+06   7.046166e+05
   9.611178e+05   1.388742e+06
  -2.299242e+05   9.668185e+05
  -4.072497e+05   5.100771e+05
  -8.149078e+04   7.619550e+05
  -1.100907e+05   1.335926e+06
  -6.952558e+05   1.316986e+06
  -1.327913e+06   3.179712e+05
  -1.360124e+06  -1.116660e+06
  -5.530040e+05  -1.944000e+06
   6.493033e+05  -1.465141e+06
   1.317135e+06   1.571573e+04
   8.211329e+05   1.325250e+06
  -4.156489e+05   1.430369e+06
  -1.202884e+06   4.055683e+05
  -8.321272e+05  -7.265817e+05
   1.357552e+05  -1.108635e+06
   5.626586e+05  -8.019087e+05
   9.593394e+04  -4.258400e+05
  -4.402801e+05  -3.450183e+05
  -5.810574e+04  -3.915945e+05
   1.180898e+06  -2.062463e+05
   2.113712e+06   3.567458e+05
   1.648984e+06   1.078212e+06
  -5.231747e+04   1.476081e+06
  -1.640712e+06   1.159995e+06
  -1.882824e+06   2.665428e+05
  -8.533507e+05  -5.206060e+05
   2.718898e+05  -5.851453e+05
   5.280452e+05  -2.916256e+04
   3.313806e+04   4.332650e+05
  -4.524396e+05   2.604576e+05
  -4.911996e+05  -3.530836e+05
  -2.582589e+05  -7.364935e+05
  -9.964628e+04  -4.871081e+05
  -1.436518e+05   9.148011e+04
  -2.875642e+05   2.889327e+05
  -2.794371e+05  -2.416570e+05
   1.509213e+05  -1.004819e+06
   9.286353e+05  -1.086202e+06
   1.400968e+06  -1.785929e+05
   8.737541e+05   9.375886e+05
  -4.294642e+05   1.170395e+06
  -1.291346e+06   3.465420e+05
  -7.473154e+05  -5.889076e+05
   7.271715e+05  -6.579523e+05
   1.624612e+06   1.179852e+05
   1.012751e+06   9.005196e+05
  -5.161558e+05   1.005811e+06
  -1.542621e+06   4.637025e+05
  -1.256077e+06  -2.167890e+05
  -1.271633e+05  -5.277407e+05
   6.708623e+05  -2.661032e+05
   3.961159e+05   3.061866e+05
  -5.957815e+05   5.349784e+05
  -1.210201e+06  -8.071761e+04
  -6.911002e+05  -1.205885e+06
   5.980450e+05  -1.742995e+06
   1.515938e+06  -9.076114e+05
   1.282895e+06   7.772451e+05
   1.992728e+05   1.833640e+06
  -7.681945e+05   1.314666e+06
  -9.469602e+05  -1.964872e+05
  -4.248779e+05  -1.228111e+06
   2.461661e+05  -9.875431e+05
   5.819471e+05  -7.787016e+04
   4.647953e+05   3.898710e+05
   1.546682e+05   1.408970e+05
   5.560295e+04  -9.486235e+04
   3.033071e+05   3.084195e+05
   5.238409e+05   9.952284e+05
   1.744014e+05   1.106798e+06
  -7.517301e+05   4.014765e+05
  -1.506357e+06  -4.846358e+05
  -1.293045e+06  -8.674718e+05
  -1.847060e+05  -7.203472e+05
   8.630760e+05  -4.248129e+05
   1.005534e+06  -1.759624e+05
   3.825026e+05   6.212458e+04
  -1.443990e+05   2.312460e+05
  -5.556881e+04   2.046571e+05
   2.514318e+05   9.088605e+04
   5.868385e+04   1.343362e+05
  -6.576547e+05   2.448102e+05
  -1.075113e+06  -6.787661e+03
  -4.722712e+05  -7.093277e+05
   8.435619e+05  -1.216703e+06
   1.755270e+06  -7.920484e+05
   1.471095e+06   4.273642e+05
   2.900292e+05   1.437824e+06
  -7.913700e+05   1.419155e+06
  -1.075123e+06   5.670498e+05
  -6.679623e+05  -2.265304e+05
  -1.468159e+05  -3.667696e+05
   5.194206e+04  -7.838858e+04
  -9.221013e+04   3.590760e+03
  -2.992285e+05  -3.851957e+05
  -2.452812e+05  -8.305985e+05
   1.779007e+05  -7.014654e+05
   6.929333e+05   1.079359e+05
   7.724399e+05   9.575613e+05
   1.475346e+05   1.057532e+06
  -7.551589e+05   2.775157e+05
  -1.069565e+06  -7.137477e+05
  -3.770062e+05  -1.116223e+06
   7.234031e+05  -7.148356e+05
   1.158934e+06   6.429968e+04
   5.629521e+05   6.409588e+05
  -2.911626e+05   7.185282e+05
  -4.067016e+05   3.862341e+05
   2.315353e+05   2.601715e+03
   6.603265e+05  -4.565246e+04
   1.596226e+05   3.188903e+05
  -8.452113e+05   6.964419e+05
  -1.311109e+06   5.442606e+05
  -8.067292e+05  -1.941230e+05
   9.256472e+04  -9.010789e+05
   5.816917e+05  -8.920315e+05
   4.565233e+05  -1.865676e+05
   6.820548e+04   4.808908e+05
  -2.377575e+05   4.597690e+05
  -3.585482e+05  -1.291279e+05
  -2.669034e+05  -5.900668e+05
   4.421393e+04  -4.569496e+05
   4.014255e+05   3.449995e+04
   4.984451e+05   2.991580e+05
   2.510192e+05   1.106448e+05
  -4.834455e+04  -1.690133e+05
  -8.922528e+04  -7.775745e+04
   4.190033e+04   3.460301e+05
  -3.931889e+03   5.834810e+05
  -3.084262e+05   2.634045e+05
  -4.982123e+05  -3.578971e+05
  -2.027083e+05  -6.562693e+05
   4.047793e+05  -3.351366e+05
   6.968306e+05   2.662230e+05
   2.748488e+05   5.768792e+05
  -5.245982e+05   3.826680e+05
  -9.185221e+05  -5.993560e+04
  -5.009832e+05  -3.829811e+05
   2.968771e+05  -4.296160e+05
   6.581640e+05  -2.598944e+05
   2.740866e+05  -2.611135e+04
  -3.283392e+05   8.831893e+04
  -4.065561e+05  -3.808414e+04
   1.515887e+05  -2.830516e+05
   7.273601e+05  -2.819776e+05
