
 $NMID
 id='ANONYMOUS ', fmtdat='(2E16.6)'
 volume=1.0
 tramp=1.0
 $END
   2.172106e+07   1.166610e+06
   1.360679e+07   1.134447e+07
  -1.184236e+06   1.373909e+07
  -9.855915e+06   8.122885e+06
  -7.559164e+06   1.122352e+05
  -8.488801e+04  -3.811754e+06
   4.309609e+06  -1.472010e+06
   2.862563e+06   3.577485e+06
  -1.370511e+06   5.588826e+06
  -4.080073e+06   2.265237e+06
  -3.324890e+06  -2.913946e+06
  -2.702955e+05  -4.454590e+06
   2.107334e+06  -8.953241e+05
   1.518598e+06   3.647873e+06
  -1.419451e+06   4.171417e+06
  -3.565203e+06   1.549769e+05
  -2.407770e+06  -4.343035e+06
   1.276593e+06  -5.271621e+06
   4.268894e+06  -2.357826e+06
   4.209603e+06   1.431480e+06
   1.743304e+06   3.191083e+06
  -4.340823e+05   2.540332e+06
  -3.575043e+05   1.357887e+06
   1.267496e+06   1.515484e+06
   1.772723e+06   2.868455e+06
  -5.679341e+05   3.493036e+06
  -4.248056e+06   1.960482e+06
  -5.685665e+06  -8.970715e+05
  -3.110403e+06  -2.797581e+06
   1.169265e+06  -2.369515e+06
   3.088149e+06  -3.255515e+05
   1.211581e+06   1.471984e+06
  -1.963285e+06   1.584732e+06
  -3.089487e+06  -1.172335e+05
  -1.493756e+06  -2.328237e+06
   7.462999e+05  -3.048647e+06
   1.507947e+06  -1.382223e+06
   6.458883e+05   1.083655e+06
  -4.323145e+05   1.598215e+06
  -4.583419e+05  -4.580088e+05
   5.875599e+05  -2.454601e+06
   1.608864e+06  -1.648049e+06
   1.407913e+06   1.181167e+06
  -1.543937e+05   2.549396e+06
  -1.782504e+06   6.580779e+05
  -1.740427e+06  -2.375656e+06
   4.189093e+05  -3.163745e+06
   3.073439e+06  -9.168363e+05
   3.781127e+06   2.084873e+06
   1.615310e+06   3.239447e+06
  -1.725640e+06   1.986784e+06
  -3.372550e+06  -2.526366e+05
  -2.042179e+06  -1.630812e+06
   7.116302e+05  -1.300312e+06
   2.148934e+06   8.268191e+04
   1.181055e+06   1.029612e+06
  -6.793234e+05   6.588726e+05
  -1.219200e+06  -4.410725e+05
  -2.509660e+04  -9.478738e+05
   1.225939e+06  -3.139633e+05
   8.368786e+05   7.262738e+05
  -9.420225e+05   1.047915e+06
  -2.178518e+06   1.883914e+05
  -1.319825e+06  -1.386440e+06
   1.193864e+06  -2.598383e+06
   3.358853e+06  -2.346114e+06
   3.538878e+06  -3.789784e+05
   1.919220e+06   2.143806e+06
   8.754401e+04   3.436940e+06
  -6.825877e+05   2.838446e+06
  -5.581524e+05   1.479009e+06
  -5.835368e+05   8.268561e+05
  -1.286157e+06   8.921486e+05
  -2.101142e+06   4.706974e+05
  -2.086721e+06  -9.426778e+05
  -9.404176e+05  -2.212937e+06
   6.999379e+05  -1.867058e+06
   1.728211e+06   6.591141e+04
   1.343305e+06   1.945145e+06
  -2.958581e+05   2.162406e+06
  -1.996860e+06   6.357626e+05
  -2.399208e+06  -1.293357e+06
  -1.244607e+06  -2.215867e+06
   3.210929e+05  -1.845205e+06
   9.986536e+05  -1.007193e+06
   7.985324e+05  -6.097457e+05
   8.824638e+05  -7.059068e+05
   1.899776e+06  -5.761681e+05
   2.920510e+06   3.626610e+05
   2.400556e+06   1.842434e+06
   8.369388e+04   2.905430e+06
  -2.434610e+06   2.692182e+06
  -3.192554e+06   1.163645e+06
  -1.788854e+06  -7.453708e+05
   2.796160e+05  -1.723080e+06
   1.149151e+06  -1.161717e+06
   3.560163e+05   1.812142e+05
  -9.235042e+05   8.391862e+05
  -1.260717e+06   1.947227e+05
  -4.333941e+05  -8.040418e+05
   5.253835e+05  -7.985903e+05
   5.504613e+05   2.380158e+05
  -3.737014e+05   8.748297e+05
  -1.289464e+06  -3.386142e+04
  -1.196771e+06  -1.862084e+06
   1.095146e+05  -2.796646e+06
   1.862855e+06  -1.772380e+06
   2.830004e+06   4.547372e+05
   2.231564e+06   2.136391e+06
   4.796552e+05   2.202625e+06
  -1.042829e+06   1.077797e+06
  -1.229816e+06   4.499217e+04
  -3.574876e+05  -4.320732e+04
   2.570562e+05   5.386312e+05
  -2.206844e+05   8.549730e+05
  -1.186459e+06   3.743950e+05
  -1.358516e+06  -4.897018e+05
  -3.517713e+05  -8.849104e+05
   8.017751e+05  -4.534743e+05
   7.856403e+05   3.184629e+05
  -5.099681e+05   6.134301e+05
  -1.784457e+06   4.878743e+04
  -1.630737e+06  -9.976747e+05
   9.427215e+03  -1.684162e+06
   1.736951e+06  -1.374145e+06
   2.059276e+06  -2.230184e+05
   8.437350e+05   8.429701e+05
  -6.186193e+05   9.255255e+05
  -9.575006e+05   7.722644e+04
  -3.603981e+04  -6.898177e+05
   1.070829e+06  -4.758755e+05
   1.247964e+06   5.049650e+05
   3.798831e+05   1.181052e+06
  -6.710119e+05   8.535298e+05
  -9.541522e+05  -4.583561e+04
  -3.134397e+05  -5.030526e+05
   4.811428e+05  -5.933720e+04
   4.747520e+05   7.454330e+05
  -4.814088e+05   9.911101e+05
  -1.477042e+06   3.021176e+05
  -1.425962e+06  -8.222383e+05
  -2.438763e+05  -1.481263e+06
   1.005878e+06  -1.166141e+06
   1.228082e+06  -1.914843e+05
   4.188566e+05   6.010276e+05
  -4.514707e+05   6.168183e+05
  -5.522196e+05   3.901151e+04
   1.259480e+04  -4.229863e+05
   4.906556e+05  -3.150327e+05
   3.547877e+05   9.310546e+04
  -1.868255e+05   1.683083e+05
  -4.473474e+05  -3.077996e+05
   3.193360e+04  -8.269339e+05
   9.665419e+05  -6.693268e+05
   1.505903e+06   3.038620e+05
   1.027845e+06   1.423916e+06
  -1.967761e+05   1.798780e+06
  -1.221537e+06   1.131758e+06
  -1.357798e+06  -1.988346e+04
  -8.030176e+05  -7.821818e+05
  -2.833948e+05  -7.642622e+05
  -1.986653e+05  -3.432158e+05
  -2.756002e+05  -1.730765e+05
  -2.937042e+04  -4.431700e+05
   5.949824e+05  -6.788617e+05
   1.098624e+06  -3.144900e+05
   8.907807e+05   5.752472e+05
  -1.158560e+05   1.214604e+06
  -1.291687e+06   8.701091e+05
  -1.700775e+06  -3.543685e+05
  -8.890870e+05  -1.523062e+06
   6.347441e+05  -1.706163e+06
   1.770912e+06  -8.180989e+05
   1.781016e+06   3.654869e+05
   8.898249e+05   9.857589e+05
  -5.044385e+04   8.669535e+05
  -4.173002e+05   5.327544e+05
  -2.979289e+05   5.309175e+05
  -2.093114e+05   8.142174e+05
  -4.719546e+05   8.260993e+05
  -8.796216e+05   1.775781e+05
  -9.281081e+05  -8.281122e+05
  -3.580811e+05  -1.407057e+06
   5.004874e+05  -1.043706e+06
   9.573708e+05  -7.481911e+03
   6.155672e+05   8.852912e+05
  -1.974834e+05   1.005234e+06
  -7.296921e+05   4.100082e+05
  -5.671406e+05  -3.217792e+05
  -3.222586e+04  -6.726993e+05
   2.287869e+05  -5.884736e+05
  -3.265253e+03  -3.748643e+05
  -2.792377e+05  -2.926291e+05
  -1.591011e+04  -2.984249e+05
   7.836877e+05  -1.584500e+05
   1.420266e+06   2.403796e+05
   1.166867e+06   7.248240e+05
   5.721185e+04   9.678962e+05
  -1.055158e+06   7.729028e+05
  -1.300345e+06   2.536364e+05
  -6.430889e+05  -2.301537e+05
   1.430085e+05  -3.447350e+05
   3.364962e+05  -7.573695e+04
  -2.942619e+04   2.226236e+05
  -3.765433e+05   1.558101e+05
  -3.297855e+05  -2.628096e+05
  -6.555872e+04  -5.663812e+05
   3.886482e+04  -3.610080e+05
  -1.146803e+05   1.410563e+05
  -2.926160e+05   3.014763e+05
  -2.186607e+05  -1.635566e+05
   1.745138e+05  -7.587430e+05
   6.745352e+05  -7.462073e+05
   8.783256e+05  -3.238992e+04
   4.837006e+05   6.919336e+05
  -3.266855e+05   7.293703e+05
  -8.586511e+05   1.211980e+05
  -5.118763e+05  -4.697310e+05
   5.007062e+05  -4.860130e+05
   1.215302e+06   3.887312e+04
   8.679222e+05   6.254760e+05
  -2.697377e+05   8.093151e+05
  -1.142863e+06   4.772084e+05
  -1.003392e+06  -8.373603e+04
  -1.452315e+05  -4.074074e+05
   4.717697e+05  -2.383139e+05
   2.441830e+05   1.908584e+05
  -4.915136e+05   3.230816e+05
  -8.621354e+05  -1.620186e+05
  -3.765561e+05  -9.273144e+05
   5.843835e+05  -1.206940e+06
   1.171982e+06  -5.526061e+05
   9.100287e+05   6.300580e+05
   9.612724e+04   1.361756e+06
  -5.822343e+05   1.003508e+06
  -7.059213e+05  -8.685622e+04
  -3.644886e+05  -8.899016e+05
   9.860886e+04  -7.682519e+05
   3.957663e+05  -8.779109e+04
   4.027722e+05   3.068780e+05
   1.884900e+05   1.288955e+05
   1.177647e+04  -9.198718e+04
   1.032816e+05   1.781615e+05
   3.225092e+05   7.118437e+05
   2.031808e+05   8.260214e+05
  -4.465673e+05   2.957302e+05
  -1.106247e+06  -3.823094e+05
  -1.017485e+06  -6.536664e+05
  -1.327410e+05  -5.093860e+05
   7.153177e+05  -2.858402e+05
   7.653682e+05  -1.402021e+05
   2.110440e+05   6.639497e+03
  -1.405239e+05   1.577515e+05
   4.836009e+04   1.929104e+05
   2.801399e+05   1.235049e+05
   1.103624e+03   1.057097e+05
  -5.903005e+05   1.254871e+05
  -7.686492e+05  -6.320798e+04
  -1.792249e+05  -5.131486e+05
   7.399971e+05  -8.020129e+05
   1.230301e+06  -4.525494e+05
   9.343357e+05   4.093832e+05
   1.304733e+05   1.069280e+06
  -5.892014e+05   9.736501e+05
  -7.952127e+05   3.131158e+05
  -4.926720e+05  -2.385265e+05
  -5.330988e+04  -2.692000e+05
   1.251795e+05   1.287648e+03
  -3.461287e+04   6.558884e+04
  -2.508331e+05  -2.579710e+05
  -1.926211e+05  -6.084140e+05
   1.703553e+05  -4.824942e+05
   5.187710e+05   1.649862e+05
   4.729252e+05   7.833948e+05
  -3.288895e+04   7.621039e+05
  -6.148080e+05   8.595082e+04
  -7.219443e+05  -6.380826e+05
  -1.743512e+05  -8.171611e+05
   5.642267e+05  -4.247072e+05
   7.916899e+05   1.130884e+05
   3.323663e+05   4.202972e+05
  -2.296990e+05   4.259872e+05
  -2.314365e+05   2.451352e+05
   2.520010e+05   4.110861e+04
   5.023578e+05   2.562331e+03
   7.553031e+04   2.204644e+05
  -6.353631e+05   4.882488e+05
  -8.950418e+05   4.134067e+05
  -4.930486e+05  -1.023390e+05
   1.054615e+05  -6.161192e+05
   3.782322e+05  -5.909902e+05
   2.538124e+05  -5.738137e+04
  -1.152773e+04   3.861278e+05
  -2.048786e+05   2.791331e+05
  -2.609674e+05  -1.812696e+05
  -1.604791e+05  -4.399278e+05
   6.965005e+04  -2.604888e+05
   2.866307e+05   7.268934e+04
   3.230543e+05   1.818585e+05
   1.764368e+05   4.164563e+04
   1.016933e+04  -6.514593e+04
  -5.892150e+04   6.368127e+04
  -8.707101e+04   3.024542e+05
  -1.751350e+05   3.408529e+05
  -2.829686e+05   4.112058e+04
  -2.475022e+05  -3.697271e+05
   1.285578e+04  -4.966604e+05
   3.450762e+05  -1.900940e+05
   4.440364e+05   2.707194e+05
   1.381869e+05   4.595400e+05
  -3.714773e+05   2.455064e+05
  -6.176416e+05  -1.135451e+05
  -3.252159e+05  -2.986263e+05
   2.321719e+05  -2.420592e+05
   4.666752e+05  -9.191808e+04
   1.393690e+05   4.758026e+03
  -3.262774e+05  -9.608473e+03
  -3.271483e+05  -1.288843e+05
   1.891599e+05  -2.513092e+05
   6.511208e+05  -1.741321e+05
