
 $NMID
 id='ANONYMOUS ', fmtdat='(2E16.6)'
 volume=1.0
 tramp=1.0
 $END
  -4.878503e+07  -2.105684e+06
  -2.869560e+07  -3.022759e+07
   6.715854e+06  -3.243646e+07
   2.403002e+07  -1.308109e+07
   1.471696e+07   5.277724e+06
  -2.511417e+06   8.128882e+06
  -8.778451e+06  -4.578527e+05
  -2.962090e+06  -8.508600e+06
   5.222464e+06  -8.861181e+06
   8.625507e+06  -2.137180e+06
   6.160672e+06   5.825659e+06
   4.154705e+05   7.996260e+06
  -3.790739e+06   2.175639e+06
  -2.316145e+06  -5.513626e+06
   3.477688e+06  -6.325916e+06
   7.047531e+06   1.084953e+06
   3.874460e+06   9.173743e+06
  -3.539886e+06   1.045501e+07
  -9.091410e+06   4.866632e+06
  -9.311555e+06  -2.368520e+06
  -5.155108e+06  -6.786124e+06
  -6.585233e+04  -7.131621e+06
   2.311771e+06  -4.742530e+06
   7.869803e+05  -2.559343e+06
  -1.459760e+06  -2.870747e+06
   2.508838e+05  -4.470370e+06
   5.802650e+06  -3.723950e+06
   9.256293e+06   3.873277e+05
   6.140133e+06   4.335246e+06
  -5.130753e+05   4.550857e+06
  -4.034675e+06   1.775756e+06
  -2.222660e+06  -7.405486e+05
   1.379694e+06  -1.311261e+06
   2.996725e+06  -1.617698e+05
   2.112574e+06   2.133931e+06
  -1.294178e+04   4.101369e+06
  -2.036152e+06   3.220880e+06
  -2.492900e+06  -6.400249e+05
  -8.765835e+05  -3.257013e+06
   7.642049e+05  -1.090823e+06
  -1.426300e+05   2.813059e+06
  -2.520367e+06   2.261908e+06
  -2.248975e+06  -2.825581e+06
   1.917612e+06  -5.357023e+06
   5.644861e+06  -8.377538e+05
   4.147458e+06   6.001217e+06
  -1.740660e+06   7.290702e+06
  -6.599700e+06   1.878841e+06
  -6.400613e+06  -4.250600e+06
  -1.824611e+06  -5.728293e+06
   3.294530e+06  -2.678290e+06
   5.149119e+06   1.353668e+06
   2.508524e+06   3.255846e+06
  -2.068292e+06   2.053065e+06
  -4.093661e+06  -8.118763e+05
  -1.813292e+06  -2.416225e+06
   1.539378e+06  -1.199926e+06
   1.732351e+06   9.761247e+05
  -9.422634e+05   1.050994e+06
  -2.254614e+06  -1.137787e+06
   1.123268e+05  -2.719719e+06
   3.681692e+06  -1.693668e+06
   4.641208e+06   9.938779e+05
   2.102033e+06   3.454294e+06
  -1.954066e+06   4.763321e+06
  -5.149092e+06   4.242260e+06
  -5.941999e+06   1.175733e+06
  -3.930499e+06  -3.296053e+06
  -4.912015e+05  -5.859447e+06
   1.758357e+06  -4.549995e+06
   1.536334e+06  -1.481926e+06
   4.038952e+05  -1.899947e+05
   6.182446e+05  -1.052040e+06
   2.122513e+06  -1.365853e+06
   2.885378e+06   3.769740e+05
   1.741049e+06   2.418924e+06
  -3.956719e+05   2.327966e+06
  -1.876763e+06   3.618588e+04
  -1.692670e+06  -2.403113e+06
   2.451774e+05  -3.021698e+06
   2.880809e+06  -1.334776e+06
   4.141164e+06   1.562038e+06
   2.675403e+06   3.707821e+06
  -2.946381e+05   3.762017e+06
  -2.105647e+06   2.277360e+06
  -1.947274e+06   1.009639e+06
  -1.707951e+06   7.437990e+05
  -2.940728e+06   4.943730e+05
  -4.339486e+06  -8.527381e+05
  -3.424990e+06  -2.897489e+06
   2.603326e+04  -4.209568e+06
   3.493724e+06  -3.824282e+06
   4.439844e+06  -1.845954e+06
   2.640979e+06   7.324253e+05
  -2.453350e+04   2.343325e+06
  -1.360168e+06   1.827526e+06
  -5.499641e+05  -1.283962e+05
   1.229239e+06  -1.252265e+06
   1.920767e+06  -2.974838e+05
   7.975062e+05   1.237741e+06
  -6.447809e+05   1.118528e+06
  -5.369756e+05  -4.058216e+05
   9.553170e+05  -8.575864e+05
   1.864458e+06   9.864202e+05
   8.815318e+05   3.333658e+06
  -1.306396e+06   3.628288e+06
  -3.117595e+06   1.473973e+06
  -3.562557e+06  -1.360672e+06
  -2.492772e+06  -3.009681e+06
  -4.232260e+05  -2.850206e+06
   1.400240e+06  -1.462739e+06
   1.669529e+06  -1.165477e+05
   5.058938e+05   7.110565e+04
  -3.387261e+05  -7.870459e+05
   4.410682e+05  -1.317386e+06
   1.902115e+06  -5.072307e+05
   2.016024e+06   9.252501e+05
   3.768295e+05   1.416785e+06
  -1.212979e+06   5.612123e+05
  -9.617272e+05  -5.056024e+05
   8.583305e+05  -6.101637e+05
   2.335146e+06   3.010174e+05
   1.904807e+06   1.487358e+06
  -2.691053e+05   2.140229e+06
  -2.480997e+06   1.688256e+06
  -2.894496e+06   1.801616e+05
  -1.190522e+06  -1.321037e+06
   9.829185e+05  -1.443541e+06
   1.540216e+06  -1.123376e+05
   1.193438e+05   1.079534e+06
  -1.581245e+06   6.754528e+05
  -1.745328e+06  -8.500334e+05
  -3.398068e+05  -1.716686e+06
   1.120145e+06  -1.030005e+06
   1.309392e+06   2.979152e+05
   2.812707e+05   7.945795e+05
  -7.850102e+05   3.582422e+04
  -6.942948e+05  -1.108348e+06
   6.776911e+05  -1.428899e+06
   2.101949e+06  -4.410638e+05
   2.037598e+06   1.190422e+06
   2.991437e+05   2.147624e+06
  -1.536762e+06   1.629220e+06
  -1.782628e+06   1.641131e+05
  -5.069967e+05  -9.074606e+05
   7.034999e+05  -8.182359e+05
   6.963499e+05  -4.309186e+04
  -1.112629e+05   4.387092e+05
  -5.782513e+05   2.608892e+05
  -2.353724e+05  -1.002250e+05
   4.080177e+05  -1.872561e+03
   5.434166e+05   6.409915e+05
  -2.104596e+05   1.206765e+06
  -1.449227e+06   8.784545e+05
  -2.131712e+06  -5.129494e+05
  -1.420061e+06  -2.071319e+06
   3.390769e+05  -2.508427e+06
   1.749205e+06  -1.436987e+06
   1.797316e+06   1.724870e+05
   9.211511e+05   1.021181e+06
   3.146680e+05   8.099873e+05
   4.161719e+05   3.185220e+05
   5.612110e+05   3.202747e+05
   5.139407e+04   7.448272e+05
  -9.246730e+05   9.068283e+05
  -1.530986e+06   3.086490e+05
  -1.107298e+06  -8.133513e+05
   2.943857e+05  -1.564264e+06
   1.841959e+06  -1.075363e+06
   2.331180e+06   5.935250e+05
   1.113880e+06   2.216617e+06
  -1.097392e+06   2.401418e+06
  -2.639065e+06   9.937716e+05
  -2.436114e+06  -7.314261e+05
  -1.014284e+06  -1.433359e+06
   2.153780e+05  -1.046679e+06
   4.837077e+05  -5.748431e+05
   2.110519e+05  -7.609318e+05
   2.110188e+05  -1.285712e+06
   7.347452e+05  -1.259042e+06
   1.322752e+06  -2.568532e+05
   1.319572e+06   1.186317e+06
   4.794691e+05   1.991156e+06
  -7.201689e+05   1.458553e+06
  -1.338289e+06  -5.090987e+04
  -7.996504e+05  -1.340122e+06
   4.237842e+05  -1.425665e+06
   1.173653e+06  -4.233288e+05
   8.064893e+05   6.761499e+05
  -1.169938e+05   1.065202e+06
  -5.200931e+05   7.998001e+05
  -8.011779e+04   4.582298e+05
   4.183820e+05   3.829093e+05
   3.488075e+04   4.057028e+05
  -1.174589e+06   1.750958e+05
  -2.086430e+06  -4.228846e+05
  -1.627253e+06  -1.124113e+06
   5.976945e+04  -1.453517e+06
   1.645719e+06  -1.095501e+06
   1.893046e+06  -2.354965e+05
   8.607646e+05   4.929735e+05
  -2.714589e+05   5.511569e+05
  -5.173471e+05   3.621734e+04
   3.203395e+03  -4.011511e+05
   4.887276e+05  -2.351696e+05
   4.757967e+05   3.773992e+05
   1.854019e+05   7.698066e+05
   3.713146e+04   5.008307e+05
   1.536850e+05  -1.205485e+05
   3.382912e+05  -3.236060e+05
   2.830396e+05   2.494632e+05
  -2.142320e+05   1.028352e+06
  -9.788886e+05   1.055012e+06
  -1.368763e+06   9.427553e+04
  -7.918817e+05  -9.853184e+05
   4.804686e+05  -1.122931e+06
   1.288559e+06  -2.538085e+05
   7.265235e+05   6.408183e+05
  -7.484919e+05   6.483897e+05
  -1.662333e+06  -1.528367e+05
  -1.057031e+06  -9.362425e+05
   5.120921e+05  -1.039653e+06
   1.592879e+06  -4.814592e+05
   1.308966e+06   2.297852e+05
   1.347453e+05   5.510555e+05
  -6.838915e+05   2.680110e+05
  -3.738093e+05  -3.102811e+05
   6.480553e+05  -4.955660e+05
   1.219350e+06   1.662573e+05
   6.083191e+05   1.269633e+06
  -7.293136e+05   1.725285e+06
  -1.600202e+06   8.261958e+05
  -1.268392e+06  -8.599315e+05
  -1.213806e+05  -1.882368e+06
   8.342254e+05  -1.331654e+06
   9.638785e+05   2.064861e+05
   4.158069e+05   1.261118e+06
  -2.479294e+05   1.017869e+06
  -5.823946e+05   7.377785e+04
  -4.876786e+05  -4.219043e+05
  -1.854061e+05  -1.600900e+05
  -4.733265e+04   1.046701e+05
  -2.476850e+05  -3.029483e+05
  -4.746933e+05  -1.023369e+06
  -1.740087e+05  -1.140246e+06
   7.339571e+05  -3.855908e+05
   1.519870e+06   5.548516e+05
   1.319287e+06   9.342524e+05
   1.636106e+05   7.319783e+05
  -9.290001e+05   3.932178e+05
  -1.042681e+06   1.511492e+05
  -3.579027e+05  -5.865659e+04
   1.696726e+05  -2.256430e+05
   2.494948e+04  -2.256559e+05
  -2.944959e+05  -1.258797e+05
  -3.727255e+04  -1.417839e+05
   7.247564e+05  -2.041391e+05
   1.086675e+06   6.719791e+04
   3.858247e+05   7.345656e+05
  -9.516396e+05   1.172782e+06
  -1.789562e+06   6.945141e+05
  -1.422300e+06  -5.245355e+05
  -2.129098e+05  -1.480875e+06
   8.564458e+05  -1.391383e+06
   1.116728e+06  -4.982891e+05
   6.742746e+05   2.840544e+05
   1.141301e+05   3.784777e+05
  -9.292959e+04   5.238118e+04
   8.008946e+04  -2.804402e+04
   3.060712e+05   3.918985e+05
   2.283267e+05   8.543127e+05
  -2.214081e+05   6.951027e+05
  -7.069050e+05  -1.698838e+05
  -7.150462e+05  -1.035898e+06
  -5.474341e+04  -1.076151e+06
   8.045652e+05  -2.069517e+05
   1.039140e+06   8.117365e+05
   3.035182e+05   1.148833e+06
  -7.747625e+05   6.616387e+05
  -1.153532e+06  -1.316958e+05
  -5.181898e+05  -6.497566e+05
   3.267754e+05  -6.790348e+05
   3.980637e+05  -3.641596e+05
  -2.712443e+05  -2.755581e+04
  -6.821255e+05   9.266587e+03
  -1.343434e+05  -3.242193e+05
   8.907902e+05  -6.723145e+05
   1.325317e+06  -5.182572e+05
   7.733404e+05   2.064646e+05
  -1.398824e+05   8.957798e+05
  -6.007922e+05   8.629501e+05
  -4.359514e+05   1.412070e+05
  -2.699736e+04  -5.065165e+05
   2.702777e+05  -4.355391e+05
   3.599311e+05   1.807728e+05
   2.374231e+05   6.130433e+05
  -7.577392e+04   4.317899e+05
  -4.044066e+05  -6.876979e+04
  -4.799820e+05  -3.047622e+05
  -2.490679e+05  -1.038452e+05
   2.426879e+04   1.481847e+05
   8.612250e+04   2.990447e+04
   1.981882e+04  -3.745568e+05
   9.723837e+04  -5.560609e+05
   3.468178e+05  -1.922944e+05
   4.445395e+05   4.269201e+05
   1.151598e+05   6.813739e+05
  -4.440999e+05   3.039982e+05
  -6.721304e+05  -3.264624e+05
  -2.336583e+05  -6.124093e+05
   5.412648e+05  -3.577010e+05
   9.096144e+05   1.209858e+05
   4.797090e+05   4.141995e+05
  -3.225439e+05   3.964670e+05
  -6.718918e+05   2.006960e+05
  -2.533905e+05   7.576417e+03
   3.741796e+05  -4.667606e+04
   4.251723e+05   9.594944e+04
  -1.977146e+05   3.020763e+05
  -8.012982e+05   2.488974e+05
