
 $NMID
 id='ANONYMOUS ', fmtdat='(2E16.6)'
 volume=1.0
 tramp=1.0
 $END
  -4.299118e+07   1.133058e+06
  -2.776867e+07  -2.369678e+07
   2.822588e+06  -2.872683e+07
   2.004636e+07  -1.432023e+07
   1.402533e+07   2.489745e+06
  -1.063818e+06   7.520388e+06
  -8.102773e+06   1.017234e+06
  -3.986759e+06  -7.310419e+06
   3.657589e+06  -9.077997e+06
   7.687317e+06  -3.106628e+06
   6.072958e+06   4.949305e+06
   8.462881e+05   7.489589e+06
  -3.412178e+06   2.085968e+06
  -2.547949e+06  -5.368992e+06
   2.699850e+06  -6.509797e+06
   6.545065e+06   2.050049e+05
   4.326160e+06   8.015038e+06
  -2.347714e+06   9.767847e+06
  -7.822072e+06   4.934574e+06
  -8.339541e+06  -1.700155e+06
  -4.655844e+06  -5.683487e+06
  -3.198973e+05  -5.891407e+06
   1.312445e+06  -3.978062e+06
  -2.894050e+05  -2.640639e+06
  -1.917477e+06  -3.367783e+06
   3.075653e+05  -4.697744e+06
   5.766683e+06  -3.658134e+06
   8.924614e+06   2.664486e+05
   5.802028e+06   3.908503e+06
  -6.815716e+05   4.135964e+06
  -4.072997e+06   1.466612e+06
  -2.020766e+06  -1.128390e+06
   1.926990e+06  -1.652650e+06
   3.535239e+06  -8.045334e+04
   2.166238e+06   2.521856e+06
  -2.495718e+05   4.193429e+06
  -1.902532e+06   2.883442e+06
  -1.921968e+06  -7.871614e+05
  -5.325926e+05  -2.815704e+06
   5.826046e+05  -4.988577e+05
  -3.273940e+05   3.071210e+06
  -2.385169e+06   2.443991e+06
  -2.380357e+06  -2.335724e+06
   9.868771e+05  -4.977770e+06
   4.545369e+06  -1.310144e+06
   3.996715e+06   4.842219e+06
  -8.696337e+05   6.502933e+06
  -5.757532e+06   2.101170e+06
  -6.369925e+06  -3.509824e+06
  -2.332436e+06  -5.352046e+06
   2.930411e+06  -2.962943e+06
   5.214060e+06   7.693891e+05
   2.888646e+06   2.880617e+06
  -1.607792e+06   2.163832e+06
  -3.848410e+06  -3.305440e+05
  -1.953851e+06  -2.017465e+06
   1.282065e+06  -1.222147e+06
   1.823232e+06   7.891802e+05
  -5.652660e+05   1.278220e+06
  -2.243847e+06  -4.396669e+05
  -5.887560e+05  -2.217732e+06
   2.783475e+06  -1.938806e+06
   4.257227e+06   2.551942e+05
   2.282994e+06   2.856460e+06
  -1.630240e+06   4.534676e+06
  -4.862581e+06   4.203233e+06
  -5.608666e+06   1.255196e+06
  -3.694701e+06  -3.020930e+06
  -6.627375e+05  -5.547276e+06
   1.275027e+06  -4.551775e+06
   1.264087e+06  -1.845364e+06
   6.243044e+05  -5.483803e+05
   1.048152e+06  -1.097184e+06
   2.375444e+06  -1.160977e+06
   2.914886e+06   6.259993e+05
   1.673918e+06   2.628770e+06
  -5.464012e+05   2.465591e+06
  -2.111493e+06   3.274743e+04
  -1.877984e+06  -2.516814e+06
   1.912926e+05  -3.087824e+06
   2.828224e+06  -1.317641e+06
   3.981631e+06   1.474026e+06
   2.566547e+06   3.393775e+06
  -1.361871e+05   3.399978e+06
  -1.739629e+06   2.126146e+06
  -1.626610e+06   1.100407e+06
  -1.551266e+06   9.485636e+05
  -2.895388e+06   7.573239e+05
  -4.390826e+06  -5.516740e+05
  -3.608381e+06  -2.697593e+06
  -2.053470e+05  -4.254132e+06
   3.377972e+06  -4.028718e+06
   4.457366e+06  -1.979637e+06
   2.656234e+06   7.496788e+05
  -7.257554e+04   2.397045e+06
  -1.396647e+06   1.831361e+06
  -5.407283e+05  -1.512976e+05
   1.222515e+06  -1.295640e+06
   1.888869e+06  -3.835303e+05
   8.007456e+05   1.177047e+06
  -6.458803e+05   1.164452e+06
  -6.576299e+05  -3.772616e+05
   7.982923e+05  -1.079064e+06
   1.977041e+06   5.727831e+05
   1.378371e+06   3.142421e+06
  -7.698714e+05   3.937133e+06
  -2.993681e+06   2.042069e+06
  -3.888406e+06  -9.984805e+05
  -2.906364e+06  -3.005804e+06
  -6.259086e+05  -2.996938e+06
   1.397113e+06  -1.563535e+06
   1.717398e+06  -1.628137e+05
   5.186054e+05   4.808312e+04
  -3.878833e+05  -7.780997e+05
   3.388637e+05  -1.325140e+06
   1.830849e+06  -6.166921e+05
   2.068027e+06   7.642242e+05
   4.986446e+05   1.370510e+06
  -1.184026e+06   6.563706e+05
  -1.057585e+06  -4.611085e+05
   8.113252e+05  -7.583861e+05
   2.478873e+06   8.448363e+04
   2.152194e+06   1.430463e+06
  -1.052398e+05   2.293284e+06
  -2.460848e+06   1.915499e+06
  -2.952402e+06   3.513784e+05
  -1.274998e+06  -1.247155e+06
   8.915755e+05  -1.465700e+06
   1.492855e+06  -1.885237e+05
   1.474905e+05   1.049840e+06
  -1.554918e+06   7.555286e+05
  -1.826054e+06  -7.428264e+05
  -4.936696e+05  -1.726951e+06
   1.043080e+06  -1.171240e+06
   1.373423e+06   1.631316e+05
   3.858272e+05   7.743396e+05
  -7.586910e+05   9.303252e+04
  -7.448553e+05  -1.075914e+06
   6.304019e+05  -1.468980e+06
   2.113404e+06  -5.291618e+05
   2.114484e+06   1.116112e+06
   4.124233e+05   2.155329e+06
  -1.455119e+06   1.734961e+06
  -1.796828e+06   2.832752e+05
  -5.898429e+05  -8.857786e+05
   6.598286e+05  -8.860229e+05
   7.388333e+05  -7.325173e+04
  -6.889942e+04   5.146054e+05
  -6.304737e+05   3.505557e+05
  -3.402687e+05  -1.193508e+05
   3.752649e+05  -1.140779e+05
   6.235567e+05   5.591270e+05
  -1.019700e+05   1.231682e+06
  -1.411987e+06   9.820572e+05
  -2.193062e+06  -4.042885e+05
  -1.544359e+06  -2.029817e+06
   2.223277e+05  -2.582791e+06
   1.722763e+06  -1.596147e+06
   1.890679e+06   5.551274e+04
   1.054743e+06   1.046764e+06
   3.696631e+05   9.188852e+05
   3.755549e+05   3.624458e+05
   5.233555e+05   2.651450e+05
   8.458473e+04   7.110296e+05
  -8.769492e+05   9.842663e+05
  -1.561717e+06   4.242484e+05
  -1.215696e+06  -7.927740e+05
   1.972257e+05  -1.668287e+06
   1.833894e+06  -1.226684e+06
   2.428368e+06   4.794313e+05
   1.280410e+06   2.194206e+06
  -9.442336e+05   2.503007e+06
  -2.603041e+06   1.187384e+06
  -2.551733e+06  -5.690144e+05
  -1.184497e+06  -1.416316e+06
   1.327313e+05  -1.149392e+06
   5.192212e+05  -6.653937e+05
   2.623604e+05  -7.667563e+05
   1.866369e+05  -1.261403e+06
   6.657837e+05  -1.280695e+06
   1.305303e+06  -3.175069e+05
   1.388886e+06   1.147112e+06
   5.789748e+05   2.007177e+06
  -6.695298e+05   1.520432e+06
  -1.372758e+06   2.508278e+04
  -8.996110e+05  -1.301529e+06
   3.185324e+05  -1.474301e+06
   1.132241e+06  -5.453735e+05
   8.586757e+05   5.716301e+05
  -8.147392e+03   1.054684e+06
  -4.242983e+05   8.579917e+05
  -3.486605e+04   5.014826e+05
   4.304430e+05   3.834227e+05
   4.590975e+04   4.170274e+05
  -1.165912e+06   2.475037e+05
  -2.114938e+06  -3.106278e+05
  -1.715075e+06  -1.041659e+06
  -5.601891e+04  -1.456724e+06
   1.571662e+06  -1.188775e+06
   1.902925e+06  -3.661215e+05
   9.235552e+05   4.059350e+05
  -2.242871e+05   5.515810e+05
  -5.132730e+05   8.672332e+04
  -2.922604e+03  -3.739311e+05
   5.040565e+05  -2.511603e+05
   4.963954e+05   3.623936e+05
   1.829091e+05   7.827880e+05
   2.273486e+04   5.067818e+05
   1.593559e+05  -1.580253e+05
   3.652344e+05  -3.770620e+05
   3.081850e+05   2.373496e+05
  -1.919648e+05   1.069747e+06
  -9.439751e+05   1.113720e+06
  -1.337835e+06   1.394032e+05
  -8.047880e+05  -9.620083e+05
   4.315479e+05  -1.128207e+06
   1.268294e+06  -2.830758e+05
   7.628915e+05   6.315804e+05
  -7.224547e+05   7.070388e+05
  -1.724584e+06  -5.458048e+04
  -1.180616e+06  -9.000521e+05
   4.357363e+05  -1.125517e+06
   1.620967e+06  -6.259830e+05
   1.388834e+06   1.449509e+05
   1.847095e+05   5.686172e+05
  -6.823080e+05   3.274591e+05
  -3.842583e+05  -2.834809e+05
   6.548224e+05  -5.130336e+05
   1.243679e+06   1.435717e+05
   6.393011e+05   1.278793e+06
  -7.080656e+05   1.772749e+06
  -1.614196e+06   8.853981e+05
  -1.330879e+06  -8.366321e+05
  -2.026970e+05  -1.927887e+06
   7.958243e+05  -1.422448e+06
   1.006674e+06   1.414481e+05
   5.117972e+05   1.270771e+06
  -1.737612e+05   1.077346e+06
  -5.835360e+05   1.187722e+05
  -5.434578e+05  -4.185223e+05
  -2.246001e+05  -1.680464e+05
  -3.365515e+04   1.198194e+05
  -2.285125e+05  -2.733207e+05
  -5.183176e+05  -1.014688e+06
  -2.647222e+05  -1.169902e+06
   6.941553e+05  -4.400004e+05
   1.586671e+06   5.001697e+05
   1.426037e+06   9.001455e+05
   2.056905e+05   7.351645e+05
  -9.614072e+05   4.373128e+05
  -1.072461e+06   2.115671e+05
  -3.467034e+05  -2.340798e+04
   1.743592e+05  -2.340513e+05
  -1.646855e+04  -2.537030e+05
  -3.404001e+05  -1.401814e+05
  -2.954788e+04  -1.435671e+05
   7.693890e+05  -2.207750e+05
   1.107215e+06   3.288144e+04
   3.725771e+05   7.212565e+05
  -9.547243e+05   1.212060e+06
  -1.771103e+06   7.610568e+05
  -1.427250e+06  -4.914826e+05
  -2.639392e+05  -1.508591e+06
   8.057662e+05  -1.446008e+06
   1.116055e+06  -5.304905e+05
   7.029751e+05   2.831937e+05
   1.165197e+05   3.790762e+05
  -1.213156e+05   3.187617e+04
   7.207761e+04  -5.793422e+04
   3.470768e+05   3.787335e+05
   2.832135e+05   8.645695e+05
  -2.037187e+05   7.102346e+05
  -7.326890e+05  -1.696556e+05
  -7.480575e+05  -1.049754e+06
  -6.085613e+04  -1.087922e+06
   8.302624e+05  -2.073050e+05
   1.078426e+06   8.173310e+05
   3.332936e+05   1.156245e+06
  -7.671397e+05   6.801281e+05
  -1.164627e+06  -9.633623e+04
  -5.381332e+05  -6.165697e+05
   3.002040e+05  -6.750436e+05
   3.624100e+05  -3.837227e+05
  -3.078623e+05  -3.332976e+04
  -7.037444e+05   3.046580e+04
  -1.399911e+05  -3.183222e+05
   8.831580e+05  -7.265727e+05
   1.308625e+06  -6.092867e+05
   7.697860e+05   1.513369e+05
  -1.082981e+05   9.074080e+05
  -5.500486e+05   8.956284e+05
  -4.054971e+05   1.426427e+05
  -2.935988e+04  -5.270009e+05
   2.626550e+05  -4.375618e+05
   3.729421e+05   1.985886e+05
   2.618681e+05   6.171019e+05
  -6.486484e+04   4.171671e+05
  -4.128058e+05  -6.655881e+04
  -4.945425e+05  -2.714141e+05
  -2.602548e+05  -7.861556e+04
   1.905538e+04   1.264353e+05
   9.425812e+04  -1.867104e+04
   4.704256e+04  -3.964989e+05
   1.294895e+05  -5.335944e+05
   3.581445e+05  -1.559885e+05
   4.286129e+05   4.477275e+05
   9.302063e+04   6.894628e+05
  -4.543784e+05   3.115486e+05
  -6.772951e+05  -3.240701e+05
  -2.459245e+05  -6.258430e+05
   5.297184e+05  -3.826670e+05
   9.145870e+05   9.943381e+04
   4.969148e+05   4.040769e+05
  -3.114244e+05   3.956392e+05
  -6.672483e+05   2.052700e+05
  -2.355029e+05   1.557122e+04
   4.086141e+05  -3.514654e+04
   4.460928e+05   1.151155e+05
  -2.182358e+05   3.318193e+05
  -8.504310e+05   2.782401e+05
