
 $NMID
 id='ANONYMOUS ', fmtdat='(2E16.6)'
 volume=1.0
 tramp=1.0
 $END
   1.316945e+07   1.521145e+05
   9.355238e+06   5.243901e+06
   9.026174e+05   8.138360e+06
  -5.462249e+06   6.731260e+06
  -5.469811e+06   1.692776e+06
  -8.781821e+05  -2.561037e+06
   3.005493e+06  -2.000732e+06
   2.811889e+06   2.129193e+06
  -2.643118e+05   4.542236e+06
  -2.698757e+06   2.273212e+06
  -2.421285e+06  -1.923769e+06
  -2.496743e+05  -3.243565e+06
   1.496716e+06  -5.116782e+05
   1.193531e+06   2.949278e+06
  -8.066140e+05   3.414604e+06
  -2.488986e+06   5.474878e+05
  -1.983592e+06  -2.788871e+06
   4.910507e+05  -3.641919e+06
   2.662927e+06  -1.654249e+06
   2.587127e+06   9.685356e+05
   7.998996e+05   1.914464e+06
  -3.914121e+05   1.109554e+06
   3.241178e+05   4.495680e+05
   1.761057e+06   1.291496e+06
   1.668497e+06   2.779896e+06
  -6.837813e+05   2.999042e+06
  -3.562426e+06   1.316128e+06
  -4.344719e+06  -9.865325e+05
  -2.101312e+06  -2.171124e+06
   1.250724e+06  -1.574293e+06
   2.598393e+06   1.394358e+05
   7.849743e+05   1.578068e+06
  -2.078497e+06   1.478004e+06
  -2.924079e+06  -2.907910e+05
  -1.155425e+06  -2.265783e+06
   9.492480e+05  -2.527614e+06
   1.229115e+06  -7.815138e+05
   4.776418e+04   1.070574e+06
  -7.316669e+05   9.772422e+05
  -2.554938e+05  -8.523720e+05
   7.362432e+05  -2.178730e+06
   1.292155e+06  -1.384591e+06
   1.146253e+06   6.711408e+05
   3.947143e+05   1.731248e+06
  -6.465632e+05   7.142318e+05
  -1.100681e+06  -1.191576e+06
  -7.485534e+04  -1.922585e+06
   1.924644e+06  -6.880711e+05
   2.904354e+06   1.367083e+06
   1.492550e+06   2.423974e+06
  -1.232507e+06   1.712689e+06
  -2.750470e+06   4.242715e+04
  -1.830336e+06  -1.140236e+06
   3.095817e+05  -1.068662e+06
   1.536042e+06  -1.486134e+05
   9.790863e+05   6.022517e+05
  -4.033107e+05   4.969480e+05
  -1.024403e+06  -2.851834e+05
  -2.592367e+05  -9.175732e+05
   9.633362e+05  -7.027555e+05
   1.125918e+06   2.216738e+05
  -1.465434e+05   9.253345e+05
  -1.454371e+06   5.557606e+05
  -1.095401e+06  -7.490307e+05
   8.912764e+05  -1.865141e+06
   2.660681e+06  -1.683912e+06
   2.658424e+06  -1.518081e+05
   1.255611e+06   1.668464e+06
  -1.342630e+04   2.567994e+06
  -3.557748e+05   2.246875e+06
  -3.076145e+05   1.426292e+06
  -6.569724e+05   9.251053e+05
  -1.414936e+06   7.243311e+05
  -1.947679e+06   1.363286e+05
  -1.695069e+06  -1.069550e+06
  -6.098728e+05  -2.023543e+06
   7.811726e+05  -1.599986e+06
   1.585145e+06   1.388476e+05
   1.134237e+06   1.738734e+06
  -3.194386e+05   1.796478e+06
  -1.630283e+06   3.910870e+05
  -1.763903e+06  -1.135892e+06
  -7.913541e+05  -1.652548e+06
   2.708775e+05  -1.208818e+06
   6.081120e+05  -6.303120e+05
   4.396857e+05  -5.006275e+05
   6.290915e+05  -6.707861e+05
   1.533707e+06  -5.595704e+05
   2.385803e+06   2.290464e+05
   1.983597e+06   1.476757e+06
   8.295030e+04   2.397604e+06
  -2.038881e+06   2.211332e+06
  -2.677711e+06   8.749603e+05
  -1.432900e+06  -7.216896e+05
   3.572105e+05  -1.436730e+06
   1.031532e+06  -8.891605e+05
   2.750388e+05   1.881699e+05
  -7.955746e+05   6.664844e+05
  -1.012936e+06   1.484508e+05
  -3.062571e+05  -6.374444e+05
   4.744350e+05  -6.560476e+05
   5.252480e+05   1.988201e+05
  -2.247384e+05   8.497207e+05
  -1.110825e+06   2.152365e+05
  -1.232250e+06  -1.413366e+06
  -1.744342e+05  -2.473140e+06
   1.490533e+06  -1.759647e+06
   2.504719e+06   2.361584e+05
   2.011965e+06   1.838048e+06
   4.308258e+05   1.922078e+06
  -9.019999e+05   8.977720e+05
  -1.039146e+06   5.765824e+03
  -2.969646e+05  -3.719676e+04
   2.161620e+05   4.456379e+05
  -1.525131e+05   6.865912e+05
  -9.318651e+05   3.161216e+05
  -1.111310e+06  -3.548976e+05
  -3.236849e+05  -7.023460e+05
   6.558554e+05  -3.946986e+05
   6.945926e+05   2.669296e+05
  -4.067050e+05   5.831002e+05
  -1.555735e+06   1.130452e+05
  -1.459280e+06  -8.473233e+05
  -3.119533e+04  -1.479950e+06
   1.466144e+06  -1.194949e+06
   1.726944e+06  -1.987740e+05
   6.995865e+05   6.757544e+05
  -4.888169e+05   7.320079e+05
  -7.467218e+05   6.201557e+04
  -8.941023e+03  -5.429670e+05
   8.781192e+05  -3.870638e+05
   1.045101e+06   3.980766e+05
   3.587761e+05   9.845440e+05
  -5.308497e+05   7.595754e+05
  -8.166229e+05   1.203650e+04
  -3.033323e+05  -4.087316e+05
   3.759668e+05  -6.339529e+04
   3.846329e+05   6.093934e+05
  -4.098889e+05   8.124682e+05
  -1.227592e+06   2.331279e+05
  -1.173217e+06  -6.904078e+05
  -2.020680e+05  -1.222770e+06
   8.193979e+05  -9.702537e+05
   1.016513e+06  -1.767198e+05
   3.674638e+05   4.939611e+05
  -3.681798e+05   5.263881e+05
  -4.839932e+05   2.471978e+04
  -2.154005e+03  -4.009666e+05
   4.530252e+05  -3.016988e+05
   3.656197e+05   1.036968e+05
  -1.299356e+05   2.104119e+05
  -4.039690e+05  -2.087362e+05
  -1.216598e+04  -6.856869e+05
   7.916979e+05  -5.695092e+05
   1.252999e+06   2.456303e+05
   8.519243e+05   1.181050e+06
  -1.682826e+05   1.506470e+06
  -1.030833e+06   9.734366e+05
  -1.169746e+06   1.459886e+03
  -7.126302e+05  -6.934477e+05
  -2.360208e+05  -7.164917e+05
  -1.157187e+05  -3.253347e+05
  -1.848348e+05  -1.166892e+05
  -2.374607e+04  -3.356224e+05
   4.814105e+05  -5.769591e+05
   9.296511e+05  -2.862793e+05
   7.760535e+05   4.950852e+05
  -8.131165e+04   1.057162e+06
  -1.086946e+06   7.532369e+05
  -1.435615e+06  -2.911793e+05
  -7.657784e+05  -1.266714e+06
   4.922484e+05  -1.426198e+06
   1.453672e+06  -7.131228e+05
   1.511189e+06   2.692276e+05
   7.978067e+05   8.318691e+05
  -2.176495e+04   7.769770e+05
  -3.912289e+05   4.813699e+05
  -3.100484e+05   4.241610e+05
  -1.987032e+05   6.336305e+05
  -3.781495e+05   6.607609e+05
  -7.116366e+05   1.409424e+05
  -7.618552e+05  -6.940539e+05
  -2.901217e+05  -1.175071e+06
   4.250369e+05  -8.680418e+05
   8.039842e+05  -1.183299e+04
   5.266286e+05   7.227068e+05
  -1.354340e+05   8.406123e+05
  -5.812117e+05   3.835155e+05
  -4.791228e+05  -2.131556e+05
  -7.015884e+04  -5.376520e+05
   1.448226e+05  -5.066216e+05
  -1.768822e+04  -3.359655e+05
  -2.208559e+05  -2.531496e+05
  -5.893528e+03  -2.518069e+05
   6.376977e+05  -1.405058e+05
   1.161615e+06   1.877728e+05
   9.743282e+05   5.893047e+05
   8.035151e+04   7.903471e+05
  -8.437017e+05   6.393942e+05
  -1.076115e+06   2.334363e+05
  -5.548476e+05  -1.554741e+05
   1.001508e+05  -2.715983e+05
   2.731402e+05  -8.102685e+04
  -3.247149e+04   1.588424e+05
  -3.255926e+05   1.187748e+05
  -2.689010e+05  -2.198654e+05
  -2.141590e+04  -4.746716e+05
   6.183113e+04  -2.971753e+05
  -1.033661e+05   1.370535e+05
  -2.726407e+05   2.715563e+05
  -1.884099e+05  -1.343569e+05
   1.640444e+05  -6.391363e+05
   5.616314e+05  -6.150168e+05
   6.934028e+05  -1.190603e+04
   3.659765e+05   5.723722e+05
  -2.690707e+05   5.791042e+05
  -6.902010e+05   7.341579e+04
  -4.184388e+05  -4.021353e+05
   4.125695e+05  -4.114679e+05
   1.030577e+06   2.179558e+04
   7.640848e+05   5.245572e+05
  -2.030744e+05   7.056688e+05
  -9.722781e+05   4.359093e+05
  -8.694802e+05  -5.606940e+04
  -1.342343e+05  -3.510509e+05
   3.941911e+05  -2.128609e+05
   1.956274e+05   1.487783e+05
  -4.227204e+05   2.503626e+05
  -7.115888e+05  -1.609272e+05
  -2.802547e+05  -7.820905e+05
   5.241114e+05  -9.866613e+05
   9.932306e+05  -4.314366e+05
   7.530174e+05   5.430106e+05
   6.686712e+04   1.145648e+06
  -4.966656e+05   8.524364e+05
  -6.000212e+05  -5.883741e+04
  -3.209103e+05  -7.485966e+05
   6.442274e+04  -6.625690e+05
   3.266686e+05  -8.392123e+04
   3.533125e+05   2.673103e+05
   1.762540e+05   1.198586e+05
   3.914366e+03  -8.497081e+04
   5.923674e+04   1.296000e+05
   2.564160e+05   5.896999e+05
   1.893216e+05   7.029621e+05
  -3.484129e+05   2.557768e+05
  -9.285103e+05  -3.283130e+05
  -8.720109e+05  -5.583304e+05
  -1.121908e+05  -4.230179e+05
   6.207577e+05  -2.282967e+05
   6.512212e+05  -1.190089e+05
   1.619587e+05  -9.050728e+03
  -1.263364e+05   1.272571e+05
   6.085950e+04   1.789269e+05
   2.565884e+05   1.246235e+05
  -1.022918e+04   8.798730e+04
  -5.204923e+05   8.462690e+04
  -6.372388e+05  -6.673839e+04
  -1.080331e+05  -4.185953e+05
   6.473933e+05  -6.429872e+05
   1.010993e+06  -3.510872e+05
   7.417697e+05   3.593362e+05
   8.760184e+04   8.971752e+05
  -4.929472e+05   8.005712e+05
  -6.633709e+05   2.364144e+05
  -4.102242e+05  -2.192329e+05
  -3.088949e+04  -2.228054e+05
   1.238642e+05   2.187578e+04
  -2.464826e+04   7.355945e+04
  -2.206245e+05  -2.125044e+05
  -1.653843e+05  -5.120948e+05
   1.513873e+05  -3.948348e+05
   4.333160e+05   1.614660e+05
   3.681936e+05   6.733602e+05
  -6.316430e+04   6.279511e+05
  -5.248798e+05   3.793685e+04
  -5.832644e+05  -5.618147e+05
  -1.203459e+05  -6.797762e+05
   4.763819e+05  -3.291357e+05
   6.461126e+05   1.081408e+05
   2.619507e+05   3.351022e+05
  -1.905389e+05   3.310186e+05
  -1.747796e+05   2.006900e+05
   2.304147e+05   5.004793e+04
   4.245305e+05   1.254830e+04
   5.365953e+04   1.790911e+05
  -5.365381e+05   4.036332e+05
  -7.360467e+05   3.556048e+05
  -3.915758e+05  -6.920151e+04
   9.539139e+04  -5.038797e+05
   3.012288e+05  -4.836142e+05
   1.871918e+05  -3.303929e+04
  -2.773568e+04   3.291486e+05
  -1.762336e+05   2.176451e+05
  -2.131786e+05  -1.745530e+05
  -1.253635e+05  -3.692970e+05
   6.324718e+04  -1.972447e+05
   2.358373e+05   7.281266e+04
   2.630366e+05   1.403702e+05
   1.488920e+05   2.428477e+04
   1.646672e+04  -3.660205e+04
  -5.572655e+04   8.513341e+04
  -1.067683e+05   2.591184e+05
  -1.859865e+05   2.527681e+05
  -2.425679e+05  -8.413638e+03
  -1.706011e+05  -3.307478e+05
   5.347875e+04  -4.108607e+05
   2.988252e+05  -1.422827e+05
   3.510131e+05   2.425900e+05
   9.747226e+04   3.915048e+05
  -3.064724e+05   1.982050e+05
  -5.001629e+05  -1.096684e+05
  -2.613375e+05  -2.528067e+05
   1.941055e+05  -1.836867e+05
   3.816840e+05  -5.283816e+04
   9.963345e+04   6.164695e+03
  -2.915206e+05  -3.285229e+04
  -2.758976e+05  -1.363132e+05
   1.820050e+05  -2.174742e+05
   5.755673e+05  -1.302912e+05
