
 $NMID
 id='ANONYMOUS ', fmtdat='(2E16.6)'
 volume=1.0
 tramp=1.0
 $END
  -2.826015e+07   1.560972e+06
  -1.990119e+07  -1.300395e+07
  -6.472033e+05  -1.851763e+07
   1.231375e+07  -1.221303e+07
   1.054231e+07  -9.437031e+05
   6.030354e+05   5.296968e+06
  -5.896233e+06   2.417972e+06
  -4.302515e+06  -4.701204e+06
   1.473943e+06  -7.753840e+06
   5.372419e+06  -3.458771e+06
   4.632193e+06   3.490511e+06
   7.073455e+05   5.775400e+06
  -2.590992e+06   1.327513e+06
  -2.129809e+06  -4.682857e+06
   1.659853e+06  -5.669057e+06
   4.799934e+06  -5.853617e+05
   3.667971e+06   5.499349e+06
  -1.089577e+06   7.112753e+06
  -5.258561e+06   3.595818e+06
  -5.544279e+06  -1.283852e+06
  -2.651366e+06  -3.724006e+06
   1.780856e+04  -3.204114e+06
   3.336556e+04  -2.002187e+06
  -1.767915e+06  -2.278806e+06
  -2.240372e+06  -3.829833e+06
   7.026706e+05  -4.493378e+06
   5.346660e+06  -2.644465e+06
   7.303123e+06   8.434386e+05
   4.170817e+06   3.316015e+06
  -1.301375e+06   2.959111e+06
  -3.838870e+06   4.602245e+05
  -1.437401e+06  -1.822485e+06
   2.644416e+06  -1.939062e+06
   3.990009e+06   2.489627e+05
   1.855132e+06   2.993400e+06
  -9.183653e+05   3.849199e+06
  -1.751782e+06   1.820425e+06
  -7.403559e+05  -1.185656e+06
   3.922566e+05  -1.886676e+06
   3.751919e+05   5.782625e+05
  -7.858255e+05   3.124419e+06
  -2.053078e+06   2.226387e+06
  -2.020908e+06  -1.454771e+06
  -1.204646e+05  -3.542532e+06
   2.294517e+06  -1.331474e+06
   2.682368e+06   2.798211e+06
  -6.418930e+04   4.269547e+06
  -3.881717e+06   1.585301e+06
  -5.153986e+06  -2.452378e+06
  -2.356243e+06  -4.224575e+06
   2.201249e+06  -2.752996e+06
   4.530284e+06   1.728984e+05
   2.835219e+06   2.108556e+06
  -8.552546e+05   1.854797e+06
  -2.887741e+06   1.004331e+05
  -1.694566e+06  -1.281640e+06
   8.269902e+05  -9.539116e+05
   1.647268e+06   5.360920e+05
   2.607093e+04   1.367248e+06
  -1.797347e+06   5.239182e+05
  -1.346528e+06  -1.086434e+06
   1.152658e+06  -1.708138e+06
   2.990240e+06  -5.278475e+05
   1.958851e+06   1.724430e+06
  -1.327984e+06   3.445895e+06
  -4.174602e+06   3.200637e+06
  -4.502531e+06   7.202470e+05
  -2.589089e+06  -2.567980e+06
  -3.469921e+05  -4.415085e+06
   7.281810e+05  -3.817611e+06
   7.599101e+05  -2.044925e+06
   8.684026e+05  -1.042251e+06
   1.682761e+06  -1.039476e+06
   2.632693e+06  -5.570455e+05
   2.616760e+06   1.180373e+06
   1.191138e+06   2.803108e+06
  -9.031426e+05   2.373666e+06
  -2.238988e+06  -1.128640e+05
  -1.760493e+06  -2.523964e+06
   3.282566e+05  -2.801086e+06
   2.522260e+06  -8.909795e+05
   3.120406e+06   1.514085e+06
   1.756569e+06   2.720440e+06
  -2.092174e+05   2.381964e+06
  -1.150136e+06   1.428193e+06
  -9.955104e+05   9.266319e+05
  -1.158876e+06   1.008929e+06
  -2.497742e+06   8.430430e+05
  -3.857266e+06  -3.547683e+05
  -3.218727e+06  -2.321326e+06
  -2.094253e+05  -3.798954e+06
   3.087115e+06  -3.583785e+06
   4.095275e+06  -1.597580e+06
   2.306772e+06   9.053092e+05
  -3.285072e+05   2.202393e+06
  -1.439288e+06   1.508797e+06
  -4.515371e+05  -2.209740e+05
   1.169921e+06  -1.109297e+06
   1.632529e+06  -3.084594e+05
   6.000093e+05   1.009230e+06
  -6.638692e+05   1.041893e+06
  -7.353648e+05  -3.267064e+05
   5.097877e+05  -1.210904e+06
   1.807264e+06  -5.838528e+03
   1.713134e+06   2.493935e+06
  -9.703241e+04   3.801783e+06
  -2.509203e+06   2.434347e+06
  -3.796874e+06  -5.630936e+05
  -2.970428e+06  -2.804918e+06
  -6.553187e+05  -2.889404e+06
   1.334330e+06  -1.424001e+06
   1.592775e+06  -8.472675e+04
   4.677829e+05   4.574861e+04
  -3.542906e+05  -6.972029e+05
   2.468571e+05  -1.136869e+06
   1.535808e+06  -5.528681e+05
   1.814375e+06   5.839746e+05
   5.067930e+05   1.157999e+06
  -1.041895e+06   6.256856e+05
  -1.041688e+06  -4.117905e+05
   6.794280e+05  -8.349491e+05
   2.373356e+06  -9.393846e+04
   2.165943e+06   1.304337e+06
   6.660410e+03   2.229299e+06
  -2.255153e+06   1.845374e+06
  -2.692762e+06   3.493091e+05
  -1.140417e+06  -1.072492e+06
   7.597116e+05  -1.236912e+06
   1.242942e+06  -1.534030e+05
   8.064284e+04   8.876606e+05
  -1.379816e+06   6.602572e+05
  -1.658359e+06  -6.227579e+05
  -5.366293e+05  -1.553259e+06
   8.719545e+05  -1.155335e+06
   1.275893e+06   3.600479e+04
   4.351245e+05   6.679983e+05
  -6.312434e+05   1.066385e+05
  -6.482617e+05  -9.530023e+05
   5.931944e+05  -1.304571e+06
   1.912060e+06  -4.392995e+05
   1.884551e+06   1.025111e+06
   3.686885e+05   1.927171e+06
  -1.277280e+06   1.563344e+06
  -1.607345e+06   2.918718e+05
  -5.709685e+05  -7.819632e+05
   5.771573e+05  -8.257426e+05
   7.205808e+05  -5.526788e+04
  -2.467155e+04   5.656127e+05
  -6.555256e+05   4.108946e+05
  -4.627623e+05  -1.469149e+05
   2.687932e+05  -2.462049e+05
   6.200053e+05   3.975399e+05
  -1.043784e+04   1.099368e+06
  -1.246723e+06   9.117796e+05
  -1.980655e+06  -3.498336e+05
  -1.388349e+06  -1.827219e+06
   2.074513e+05  -2.355823e+06
   1.578957e+06  -1.513246e+06
   1.788433e+06   1.704423e+03
   1.057849e+06   1.024259e+06
   3.547577e+05   9.998852e+05
   2.449184e+05   4.233322e+05
   3.730237e+05   1.928344e+05
   6.765744e+04   5.733484e+05
  -7.604841e+05   9.128134e+05
  -1.438866e+06   4.401802e+05
  -1.177478e+06  -7.424864e+05
   1.344078e+05  -1.603033e+06
   1.676215e+06  -1.174305e+06
   2.237509e+06   4.200608e+05
   1.212230e+06   1.975504e+06
  -7.758770e+05   2.267404e+06
  -2.302562e+06   1.136969e+06
  -2.359206e+06  -4.330581e+05
  -1.194464e+06  -1.290171e+06
   6.361800e+04  -1.151032e+06
   5.525964e+05  -6.924965e+05
   3.721953e+05  -6.710314e+05
   2.306856e+05  -1.053446e+06
   5.771112e+05  -1.097836e+06
   1.138474e+06  -2.678984e+05
   1.234691e+06   1.049491e+06
   5.081044e+05   1.824782e+06
  -6.230382e+05   1.375317e+06
  -1.254737e+06   3.633159e+04
  -8.401920e+05  -1.143369e+06
   2.257706e+05  -1.334234e+06
   9.582823e+05  -5.759247e+05
   7.781818e+05   3.998408e+05
   7.872237e+04   8.962549e+05
  -2.834486e+05   8.001646e+05
   5.938473e+03   5.000639e+05
   3.675760e+05   3.694331e+05
   2.725747e+04   3.861662e+05
  -1.021450e+06   2.389869e+05
  -1.866546e+06  -2.592659e+05
  -1.554218e+06  -9.113013e+05
  -1.159389e+05  -1.277147e+06
   1.349159e+06  -1.058573e+06
   1.701822e+06  -3.768882e+05
   8.674287e+05   2.861695e+05
  -1.666151e+05   4.620144e+05
  -4.451636e+05   1.148044e+05
   2.009395e+04  -2.844487e+05
   4.836339e+05  -2.075200e+05
   4.375421e+05   3.309571e+05
   9.698734e+04   7.224966e+05
  -4.198941e+04   4.583322e+05
   1.559179e+05  -1.863617e+05
   3.865705e+05  -3.915685e+05
   2.922658e+05   2.094969e+05
  -2.107525e+05   9.883703e+05
  -8.554364e+05   9.948994e+05
  -1.134571e+06   8.567027e+04
  -6.503102e+05  -8.711736e+05
   3.907083e+05  -9.609115e+05
   1.101948e+06  -1.928614e+05
   6.767858e+05   5.960101e+05
  -6.423922e+05   6.531705e+05
  -1.596775e+06  -2.177800e+04
  -1.156487e+06  -8.115388e+05
   3.406423e+05  -1.080083e+06
   1.500262e+06  -6.531007e+05
   1.324691e+06   9.366881e+04
   1.981318e+05   5.359534e+05
  -6.165277e+05   3.270057e+05
  -3.289789e+05  -2.370051e+05
   6.251692e+05  -4.283781e+05
   1.118304e+06   1.857701e+05
   5.112314e+05   1.185651e+06
  -7.231142e+05   1.574562e+06
  -1.503270e+06   7.455476e+05
  -1.198808e+06  -7.959823e+05
  -1.593978e+05  -1.771826e+06
   7.401754e+05  -1.325443e+06
   9.332192e+05   9.628636e+04
   5.018999e+05   1.161276e+06
  -1.142618e+05   1.018519e+06
  -5.193645e+05   1.296297e+05
  -5.323335e+05  -3.989488e+05
  -2.467451e+05  -1.736737e+05
  -1.596185e+04   1.245095e+05
  -1.460653e+05  -2.143374e+05
  -4.430011e+05  -9.143169e+05
  -2.858003e+05  -1.085137e+06
   5.762959e+05  -4.125987e+05
   1.453434e+06   4.710140e+05
   1.345874e+06   8.372399e+05
   1.896491e+05   6.622664e+05
  -9.246705e+05   3.817478e+05
  -9.988423e+05   1.999605e+05
  -2.812573e+05   6.259513e+03
   1.781596e+05  -2.053856e+05
  -6.275588e+04  -2.629153e+05
  -3.623171e+05  -1.668933e+05
  -3.337251e+03  -1.326446e+05
   7.616760e+05  -1.653501e+05
   9.992703e+05   5.970180e+04
   2.487118e+05   6.441174e+05
  -9.347982e+05   1.052267e+06
  -1.579958e+06   6.318862e+05
  -1.219822e+06  -4.915491e+05
  -1.968828e+05  -1.384100e+06
   7.358076e+05  -1.287806e+06
   1.018039e+06  -4.296377e+05
   6.411160e+05   2.993287e+05
   7.683926e+04   3.434429e+05
  -1.560439e+05  -1.003542e+04
   5.186035e+04  -9.121994e+04
   3.382798e+05   3.348882e+05
   2.682511e+05   7.924209e+05
  -2.058485e+05   6.303166e+05
  -6.715580e+05  -2.035746e+05
  -6.283903e+05  -9.998183e+05
   2.129248e+04  -9.788572e+05
   7.863003e+05  -1.203526e+05
   9.457474e+05   8.073241e+05
   2.497060e+05   1.050523e+06
  -7.134596e+05   5.657707e+05
  -1.029572e+06  -1.192215e+05
  -4.524252e+05  -5.300533e+05
   2.756237e+05  -5.609766e+05
   2.910201e+05  -3.357046e+05
  -3.255264e+05  -5.816404e+04
  -6.522958e+05   7.516806e+03
  -1.063468e+05  -2.807523e+05
   8.151063e+05  -6.533217e+05
   1.161511e+06  -5.733217e+05
   6.527553e+05   1.075750e+05
  -1.157330e+05   8.035481e+05
  -4.705230e+05   7.893371e+05
  -3.196775e+05   9.245999e+04
   9.424669e+03  -4.971484e+05
   2.528437e+05  -3.663298e+05
   3.345435e+05   2.300448e+05
   2.205351e+05   5.664346e+05
  -7.428883e+04   3.374460e+05
  -3.704876e+05  -8.653219e+04
  -4.322947e+05  -2.235797e+05
  -2.371153e+05  -4.871058e+04
  -3.783494e+03   7.929598e+04
   9.148707e+04  -8.592136e+04
   1.125723e+05  -3.822567e+05
   2.087114e+05  -4.273012e+05
   3.488073e+05  -5.342303e+04
   3.189766e+05   4.614677e+05
  -5.983923e+03   6.283825e+05
  -4.389269e+05   2.512371e+05
  -5.777417e+05  -3.334727e+05
  -1.879590e+05  -5.889635e+05
   4.746260e+05  -3.326699e+05
   8.014593e+05   1.247682e+05
   4.308380e+05   3.763670e+05
  -2.875464e+05   3.207028e+05
  -5.947617e+05   1.345335e+05
  -1.790937e+05   5.625708e+03
   4.172643e+05   1.546740e+04
   4.178879e+05   1.639851e+05
  -2.467485e+05   3.233903e+05
  -8.428732e+05   2.292230e+05
