
 $NMID
 id='ANONYMOUS ', fmtdat='(2E16.6)'
 volume=1.0
 tramp=1.0
 $END
   1.871868e+07  -2.054929e+06
   1.391714e+07   7.618014e+06
   1.416544e+06   1.224776e+07
  -7.691129e+06   8.952689e+06
  -7.216142e+06   1.350656e+06
  -7.705754e+05  -3.572426e+06
   3.952927e+06  -2.062173e+06
   3.273900e+06   2.991834e+06
  -6.106734e+05   5.491205e+06
  -3.528034e+06   2.686586e+06
  -3.283722e+06  -2.217819e+06
  -6.637709e+05  -3.949615e+06
   1.732862e+06  -9.515376e+05
   1.617548e+06   3.231008e+06
  -9.245044e+05   4.038071e+06
  -3.257029e+06   6.472075e+05
  -2.735481e+06  -3.583486e+06
   4.376406e+05  -4.872237e+06
   3.401605e+06  -2.606348e+06
   3.728278e+06   7.056645e+05
   1.811875e+06   2.381040e+06
   6.204298e+04   2.017636e+06
   1.816745e+05   1.244417e+06
   1.488517e+06   1.566397e+06
   1.740138e+06   2.743269e+06
  -4.250686e+05   3.221129e+06
  -3.716746e+06   1.939204e+06
  -5.093077e+06  -4.568693e+05
  -2.919200e+06  -2.193451e+06
   9.093590e+05  -2.031145e+06
   2.710905e+06  -3.298344e+05
   1.013294e+06   1.337823e+06
  -1.925837e+06   1.486368e+06
  -2.917462e+06  -1.117484e+05
  -1.375286e+06  -2.148012e+06
   6.243880e+05  -2.747756e+06
   1.184653e+06  -1.244600e+06
   4.362197e+05   8.627057e+05
  -3.195911e+05   1.259716e+06
  -2.529496e+05  -5.163725e+05
   5.301138e+05  -2.266525e+06
   1.379015e+06  -1.634070e+06
   1.461210e+06   8.956426e+05
   3.104051e+05   2.401429e+06
  -1.376990e+06   1.040800e+06
  -1.882486e+06  -1.711950e+06
  -1.726700e+05  -2.841788e+06
   2.544669e+06  -1.205241e+06
   3.649702e+06   1.502482e+06
   1.817799e+06   2.854173e+06
  -1.429651e+06   2.021083e+06
  -3.192911e+06   6.520781e+04
  -2.094760e+06  -1.358128e+06
   4.828893e+05  -1.330269e+06
   1.975176e+06  -2.034661e+05
   1.231603e+06   7.960496e+05
  -5.181699e+05   6.836083e+05
  -1.181699e+06  -3.130186e+05
  -1.165452e+05  -9.965156e+05
   1.239515e+06  -5.296001e+05
   1.086571e+06   6.330207e+05
  -6.093379e+05   1.248754e+06
  -2.008667e+06   5.525228e+05
  -1.429575e+06  -1.065128e+06
   8.209249e+05  -2.399361e+06
   2.832775e+06  -2.311243e+06
   3.094504e+06  -5.910173e+05
   1.816410e+06   1.718317e+06
   3.440111e+05   3.040958e+06
  -3.575910e+05   2.690218e+06
  -4.409481e+05   1.515067e+06
  -6.268330e+05   8.211992e+05
  -1.247395e+06   7.790539e+05
  -1.897520e+06   4.040423e+05
  -1.874392e+06  -8.337604e+05
  -8.778617e+05  -1.995575e+06
   6.220554e+05  -1.716111e+06
   1.623250e+06   3.788169e+04
   1.319384e+06   1.765808e+06
  -1.729320e+05   1.989553e+06
  -1.752090e+06   6.652614e+05
  -2.191165e+06  -1.000934e+06
  -1.255516e+06  -1.829591e+06
   8.525591e+04  -1.609401e+06
   7.201644e+05  -9.888571e+05
   6.229548e+05  -6.796891e+05
   7.652210e+05  -7.654224e+05
   1.730957e+06  -6.844660e+05
   2.726111e+06   1.270116e+05
   2.336392e+06   1.539119e+06
   2.559081e+05   2.675689e+06
  -2.087898e+06   2.612291e+06
  -2.857936e+06   1.219638e+06
  -1.643056e+06  -6.020174e+05
   2.024380e+05  -1.567957e+06
   9.952356e+05  -1.088016e+06
   3.202840e+05   1.529888e+05
  -8.035273e+05   8.088838e+05
  -1.136870e+06   2.596741e+05
  -4.384863e+05  -6.894544e+05
   4.497146e+05  -7.532123e+05
   5.454821e+05   2.103219e+05
  -3.048370e+05   8.997870e+05
  -1.285446e+06   1.144684e+05
  -1.337905e+06  -1.681136e+06
  -1.030619e+05  -2.725692e+06
   1.690744e+06  -1.860937e+06
   2.736991e+06   2.573286e+05
   2.216920e+06   1.915705e+06
   5.515037e+05   2.047235e+06
  -9.129206e+05   1.044316e+06
  -1.128219e+06   9.615889e+04
  -3.320052e+05  -1.972564e+04
   2.702500e+05   4.825422e+05
  -1.356395e+05   8.042505e+05
  -1.056903e+06   4.340488e+05
  -1.293936e+06  -3.498521e+05
  -3.978303e+05  -7.960117e+05
   7.163624e+05  -4.752606e+05
   7.578659e+05   2.626086e+05
  -4.527178e+05   6.268202e+05
  -1.692814e+06   1.500455e+05
  -1.593006e+06  -8.663448e+05
  -7.627683e+04  -1.595475e+06
   1.548741e+06  -1.380014e+06
   1.897849e+06  -3.246582e+05
   8.353125e+05   7.205393e+05
  -4.968370e+05   8.859983e+05
  -8.622606e+05   1.419717e+05
  -7.610678e+04  -6.177916e+05
   9.542945e+05  -5.025989e+05
   1.191335e+06   3.890729e+05
   4.329605e+05   1.083660e+06
  -5.774518e+05   8.530735e+05
  -9.083949e+05   2.242653e+04
  -3.365849e+05  -4.574239e+05
   4.371417e+05  -9.591019e+04
   4.817809e+05   6.534768e+05
  -3.861121e+05   9.357823e+05
  -1.339833e+06   3.586295e+05
  -1.357627e+06  -6.747012e+05
  -3.135396e+05  -1.350235e+06
   8.557577e+05  -1.140627e+06
   1.127146e+06  -2.551114e+05
   4.300541e+05   5.354086e+05
  -3.832786e+05   6.029669e+05
  -5.140040e+05   5.727695e+04
  -1.517166e+03  -4.125164e+05
   4.630247e+05  -3.185531e+05
   3.487753e+05   9.721486e+04
  -1.766387e+05   1.986650e+05
  -4.569510e+05  -2.522637e+05
  -3.235866e+04  -7.769608e+05
   8.534648e+05  -6.821142e+05
   1.410271e+06   1.911493e+05
   1.031261e+06   1.253083e+06
  -8.285195e+04   1.674185e+06
  -1.078225e+06   1.121644e+06
  -1.274594e+06   5.286558e+04
  -7.877513e+05  -7.054051e+05
  -2.791889e+05  -7.173049e+05
  -1.729444e+05  -3.029024e+05
  -2.579053e+05  -1.197776e+05
  -6.316327e+04  -3.955520e+05
   5.093487e+05  -6.694377e+05
   1.009264e+06  -3.570267e+05
   8.619523e+05   4.966451e+05
  -4.693614e+04   1.148848e+06
  -1.155994e+06   8.838870e+05
  -1.598962e+06  -2.344725e+05
  -9.180337e+05  -1.363326e+06
   4.773535e+05  -1.626117e+06
   1.591837e+06  -8.752869e+05
   1.687258e+06   2.323886e+05
   8.945354e+05   8.818753e+05
  -7.843939e+03   8.293184e+05
  -3.823013e+05   5.147104e+05
  -2.602322e+05   4.809471e+05
  -1.405163e+05   7.407043e+05
  -3.744833e+05   7.855866e+05
  -7.927704e+05   2.189660e+05
  -8.995216e+05  -7.094942e+05
  -4.076747e+05  -1.277569e+06
   4.048316e+05  -9.897104e+05
   8.880619e+05  -6.168929e+04
   6.290763e+05   7.818663e+05
  -1.157495e+05   9.505490e+05
  -6.550503e+05   4.439021e+05
  -5.626426e+05  -2.478145e+05
  -9.084892e+04  -6.258347e+05
   1.670397e+05  -5.774449e+05
  -2.189662e+04  -3.592725e+05
  -2.674075e+05  -2.536668e+05
  -2.812147e+04  -2.733278e+05
   7.122179e+05  -1.991408e+05
   1.322116e+06   1.291743e+05
   1.124927e+06   5.982630e+05
   1.250628e+05   8.959664e+05
  -9.165492e+05   7.845104e+05
  -1.191462e+06   3.188807e+05
  -6.258487e+05  -1.694084e+05
   1.006073e+05  -3.274055e+05
   3.098287e+05  -9.782216e+04
  -8.567778e+03   1.953441e+05
  -3.394622e+05   1.575786e+05
  -3.172504e+05  -2.223446e+05
  -8.038433e+04  -5.094589e+05
   2.435295e+04  -3.247738e+05
  -1.069507e+05   1.410252e+05
  -2.696426e+05   2.928831e+05
  -2.140234e+05  -1.397300e+05
   1.264842e+05  -7.069372e+05
   5.778032e+05  -7.256577e+05
   7.909553e+05  -8.769017e+04
   4.748440e+05   5.977377e+05
  -2.494600e+05   6.834465e+05
  -7.682980e+05   1.597503e+05
  -4.933228e+05  -4.057227e+05
   4.352574e+05  -4.813459e+05
   1.134553e+06  -3.136257e+04
   8.506092e+05   5.427296e+05
  -2.056127e+05   7.810076e+05
  -1.047930e+06   5.129591e+05
  -9.478051e+05  -2.610970e+04
  -1.582857e+05  -3.764174e+05
   4.272542e+05  -2.518254e+05
   2.371947e+05   1.561425e+05
  -4.338893e+05   3.157136e+05
  -7.947855e+05  -1.070862e+05
  -3.861380e+05  -8.273104e+05
   4.775099e+05  -1.129478e+06
   1.047304e+06  -5.618605e+05
   8.688934e+05   5.345576e+05
   1.584283e+05   1.251892e+06
  -4.898010e+05   9.621675e+05
  -6.656199e+05  -3.898007e+04
  -3.913231e+05  -8.092825e+05
   4.822329e+04  -7.289993e+05
   3.629745e+05  -1.085933e+05
   3.920199e+05   2.702619e+05
   1.841590e+05   1.189377e+05
   6.317110e+03  -9.051420e+04
   1.024396e+05   1.432266e+05
   3.355038e+05   6.338695e+05
   2.371453e+05   7.631811e+05
  -3.903948e+05   3.098247e+05
  -1.042924e+06  -2.955034e+05
  -9.812585e+05  -5.583478e+05
  -1.527745e+05  -4.629330e+05
   6.498125e+05  -2.933470e+05
   7.044031e+05  -1.696326e+05
   1.952444e+05  -1.562045e+04
  -1.226769e+05   1.492675e+05
   5.688356e+04   1.885539e+05
   2.668046e+05   1.132230e+05
   3.241513e+03   9.383459e+04
  -5.415244e+05   1.333097e+05
  -7.078859e+05  -1.822223e+04
  -1.834290e+05  -4.470107e+05
   6.401379e+05  -7.642246e+05
   1.097076e+06  -4.839943e+05
   8.676188e+05   3.189861e+05
   1.722642e+05   9.754720e+05
  -4.856833e+05   9.286761e+05
  -7.088003e+05   3.259356e+05
  -4.619011e+05  -1.991603e+05
  -6.044949e+04  -2.406070e+05
   1.156861e+05   7.737550e+03
  -3.296333e+04   7.056707e+04
  -2.513536e+05  -2.268832e+05
  -2.128226e+05  -5.543951e+05
   1.306550e+05  -4.498674e+05
   4.811548e+05   1.314186e+05
   4.658993e+05   6.952976e+05
   3.037474e+03   6.916562e+05
  -5.563544e+05   9.864037e+04
  -6.870816e+05  -5.526616e+05
  -1.994407e+05  -7.362658e+05
   4.909259e+05  -4.138674e+05
   7.284364e+05   5.955272e+04
   3.308046e+05   3.589573e+05
  -1.795785e+05   3.985359e+05
  -1.922233e+05   2.444225e+05
   2.370848e+05   3.585393e+04
   4.628202e+05  -2.077260e+04
   8.063965e+04   1.946491e+05
  -5.604180e+05   4.839100e+05
  -8.033863e+05   4.402135e+05
  -4.598487e+05  -5.435921e+04
   6.167872e+04  -5.693769e+05
   3.077848e+05  -5.690523e+05
   2.177816e+05  -7.033973e+04
   2.641833e+03   3.539631e+05
  -1.702915e+05   2.625001e+05
  -2.421893e+05  -1.593518e+05
  -1.695846e+05  -3.953952e+05
   4.473923e+04  -2.359477e+05
   2.638584e+05   5.405004e+04
   3.103519e+05   1.435733e+05
   1.694460e+05   2.534808e+04
   2.637122e+03  -5.192996e+04
  -6.366674e+04   7.125460e+04
  -7.745163e+04   2.756014e+05
  -1.460352e+05   3.007472e+05
  -2.473747e+05   3.697776e+04
  -2.298294e+05  -3.235962e+05
  -2.529015e+03  -4.443943e+05
   3.065304e+05  -1.859714e+05
   4.133994e+05   2.243743e+05
   1.449228e+05   4.137667e+05
  -3.259188e+05   2.468143e+05
  -5.669981e+05  -7.004282e+04
  -3.128173e+05  -2.554600e+05
   1.949196e+05  -2.303698e+05
   4.155121e+05  -1.056469e+05
   1.225114e+05  -8.216717e+03
  -3.006759e+05  -5.365246e+03
  -3.012348e+05  -1.115681e+05
   1.715610e+05  -2.377903e+05
   5.982185e+05  -1.820601e+05
