
 $NMID
 id='ANONYMOUS ', fmtdat='(2E16.6)'
 volume=1.0
 tramp=1.0
 $END
   1.539301e+07  -7.819883e+05
   1.096049e+07   6.363427e+06
   8.739211e+05   9.745725e+06
  -6.295134e+06   7.311276e+06
  -5.897581e+06   1.343719e+06
  -7.128406e+05  -2.867963e+06
   3.232244e+06  -1.862075e+06
   2.809587e+06   2.398901e+06
  -4.045584e+05   4.673951e+06
  -2.917958e+06   2.306145e+06
  -2.720727e+06  -1.964173e+06
  -4.648753e+05  -3.415969e+06
   1.545993e+06  -7.234880e+05
   1.384080e+06   2.892217e+06
  -7.799261e+05   3.500520e+06
  -2.705994e+06   5.444534e+05
  -2.225479e+06  -3.030081e+06
   4.596103e+05  -4.043268e+06
   2.916261e+06  -2.029856e+06
   3.058446e+06   8.110656e+05
   1.280646e+06   2.111914e+06
  -1.931018e+05   1.572991e+06
   1.454483e+05   8.120462e+05
   1.490772e+06   1.256512e+06
   1.668592e+06   2.510417e+06
  -4.313870e+05   2.942617e+06
  -3.410536e+06   1.636869e+06
  -4.507658e+06  -5.887370e+05
  -2.440270e+06  -2.052965e+06
   9.822848e+05  -1.776007e+06
   2.522475e+06  -1.843569e+05
   9.223270e+05   1.335499e+06
  -1.798660e+06   1.451108e+06
  -2.730554e+06  -8.614995e+04
  -1.266258e+06  -2.024025e+06
   6.559350e+05  -2.520299e+06
   1.143464e+06  -1.010320e+06
   3.061543e+05   9.234730e+05
  -4.616346e+05   1.123613e+06
  -2.992376e+05  -6.018844e+05
   5.168408e+05  -2.107762e+06
   1.229024e+06  -1.441754e+06
   1.221489e+06   7.427016e+05
   2.939464e+05   1.936496e+06
  -1.003250e+06   7.690341e+05
  -1.409256e+06  -1.436962e+06
  -7.210771e+04  -2.276662e+06
   2.149545e+06  -8.971092e+05
   3.108071e+06   1.336538e+06
   1.575838e+06   2.464269e+06
  -1.229899e+06   1.761904e+06
  -2.780850e+06   8.166169e+04
  -1.841876e+06  -1.146845e+06
   3.776304e+05  -1.116482e+06
   1.656372e+06  -1.610075e+05
   1.034926e+06   6.605238e+05
  -4.413821e+05   5.575191e+05
  -1.036330e+06  -2.665984e+05
  -1.816483e+05  -8.665087e+05
   9.971074e+05  -5.543143e+05
   9.792563e+05   3.861124e+05
  -3.917759e+05   9.788183e+05
  -1.623080e+06   4.914018e+05
  -1.176591e+06  -8.669948e+05
   7.931325e+05  -2.043798e+06
   2.574777e+06  -1.950290e+06
   2.736996e+06  -4.026058e+05
   1.503373e+06   1.597256e+06
   1.991175e+05   2.668453e+06
  -3.146732e+05   2.324161e+06
  -3.231531e+05   1.359887e+06
  -5.517517e+05   8.233420e+05
  -1.204256e+06   7.607341e+05
  -1.801926e+06   3.324312e+05
  -1.722562e+06  -8.342750e+05
  -7.700007e+05  -1.869954e+06
   6.040950e+05  -1.583435e+06
   1.502511e+06   3.222366e+04
   1.196101e+06   1.610672e+06
  -1.867181e+05   1.790896e+06
  -1.592974e+06   5.417912e+05
  -1.908095e+06  -9.759922e+05
  -1.007327e+06  -1.652811e+06
   1.622618e+05  -1.360521e+06
   6.446568e+05  -7.787170e+05
   5.097918e+05  -5.501675e+05
   6.452047e+05  -6.738121e+05
   1.521383e+06  -6.069065e+05
   2.406457e+06   1.258998e+05
   2.059118e+06   1.380910e+06
   2.078351e+05   2.383234e+06
  -1.892624e+06   2.313714e+06
  -2.586556e+06   1.051339e+06
  -1.472466e+06  -5.857923e+05
   2.206813e+05  -1.427344e+06
   9.315820e+05  -9.629233e+05
   2.881547e+05   1.526382e+05
  -7.369734e+05   7.149905e+05
  -1.011488e+06   2.120479e+05
  -3.664322e+05  -6.236545e+05
   4.177433e+05  -6.754078e+05
   5.013399e+05   1.769912e+05
  -2.311848e+05   8.102125e+05
  -1.102591e+06   1.583491e+05
  -1.207138e+06  -1.425408e+06
  -1.676062e+05  -2.408554e+06
   1.444662e+06  -1.702701e+06
   2.444849e+06   1.820965e+05
   2.015588e+06   1.705372e+06
   5.053247e+05   1.845611e+06
  -8.303602e+05   9.338627e+05
  -1.018790e+06   7.390365e+04
  -2.963943e+05  -2.037023e+04
   2.377117e+05   4.317605e+05
  -1.253755e+05   7.042713e+05
  -9.328650e+05   3.683420e+05
  -1.136297e+06  -3.138933e+05
  -3.487581e+05  -6.986712e+05
   6.367040e+05  -4.204937e+05
   6.847940e+05   2.314530e+05
  -3.883889e+05   5.696375e+05
  -1.513014e+06   1.547799e+05
  -1.444060e+06  -7.659998e+05
  -8.347282e+04  -1.434768e+06
   1.386044e+06  -1.237797e+06
   1.696968e+06  -2.822993e+05
   7.341161e+05   6.438790e+05
  -4.525944e+05   7.725845e+05
  -7.596137e+05   1.085952e+05
  -5.140131e+04  -5.496544e+05
   8.547527e+05  -4.367671e+05
   1.057407e+06   3.493920e+05
   3.890240e+05   9.614405e+05
  -5.042351e+05   7.627114e+05
  -8.051455e+05   3.015998e+04
  -3.047369e+05  -3.990234e+05
   3.823776e+05  -8.017077e+04
   4.206859e+05   5.869714e+05
  -3.565057e+05   8.322073e+05
  -1.202824e+06   3.060382e+05
  -1.205696e+06  -6.166946e+05
  -2.677957e+05  -1.205763e+06
   7.681965e+05  -1.008214e+06
   1.002926e+06  -2.224457e+05
   3.829687e+05   4.754190e+05
  -3.419784e+05   5.368644e+05
  -4.668080e+05   5.096483e+04
  -1.223720e+04  -3.771079e+05
   4.174599e+05  -3.004799e+05
   3.332145e+05   7.968774e+04
  -1.373492e+05   1.870001e+05
  -4.030830e+05  -2.102075e+05
  -3.195714e+04  -6.847506e+05
   7.611694e+05  -6.031503e+05
   1.256273e+06   1.790797e+05
   9.102248e+05   1.126133e+06
  -8.484734e+04   1.497514e+06
  -9.669627e+05   1.004350e+06
  -1.143644e+06   5.127388e+04
  -7.182249e+05  -6.353272e+05
  -2.623123e+05  -6.611228e+05
  -1.496484e+05  -2.920699e+05
  -2.129731e+05  -1.123788e+05
  -4.609390e+04  -3.460487e+05
   4.535516e+05  -5.939411e+05
   9.018193e+05  -3.209845e+05
   7.780548e+05   4.454997e+05
  -3.601661e+04   1.032986e+06
  -1.034762e+06   7.906347e+05
  -1.430021e+06  -2.153056e+05
  -8.158760e+05  -1.217946e+06
   4.280793e+05  -1.442009e+06
   1.415711e+06  -7.731873e+05
   1.503804e+06   2.049183e+05
   8.083475e+05   7.836437e+05
   4.240484e+03   7.488506e+05
  -3.467426e+05   4.756071e+05
  -2.542510e+05   4.374112e+05
  -1.463510e+05   6.556024e+05
  -3.425825e+05   6.892409e+05
  -7.062162e+05   1.836685e+05
  -7.967642e+05  -6.434557e+05
  -3.539563e+05  -1.146407e+06
   3.706890e+05  -8.826078e+05
   7.938544e+05  -5.163118e+04
   5.563182e+05   6.961749e+05
  -1.025112e+05   8.423919e+05
  -5.725373e+05   3.956953e+05
  -4.900578e+05  -2.109708e+05
  -8.178080e+04  -5.445994e+05
   1.388989e+05  -5.081515e+05
  -2.583205e+04  -3.231686e+05
  -2.364628e+05  -2.331800e+05
  -2.228097e+04  -2.466947e+05
   6.320469e+05  -1.715610e+05
   1.172175e+06   1.264055e+05
   9.978733e+05   5.382657e+05
   1.094841e+05   7.901112e+05
  -8.168784e+05   6.853841e+05
  -1.059733e+06   2.800482e+05
  -5.541100e+05  -1.429696e+05
   9.118940e+04  -2.838555e+05
   2.717130e+05  -8.780275e+04
  -1.675494e+04   1.699670e+05
  -3.094357e+05   1.384874e+05
  -2.806392e+05  -2.022538e+05
  -6.121174e+04  -4.636102e+05
   3.164091e+04  -2.956355e+05
  -9.392241e+04   1.315365e+05
  -2.450316e+05   2.709697e+05
  -1.913181e+05  -1.244192e+05
   1.205373e+05  -6.363854e+05
   5.225084e+05  -6.426020e+05
   7.015855e+05  -6.083380e+04
   4.105140e+05   5.444799e+05
  -2.331809e+05   6.014052e+05
  -6.876194e+05   1.253786e+05
  -4.383577e+05  -3.700536e+05
   3.895206e+05  -4.274012e+05
   1.015348e+06  -2.669811e+04
   7.662785e+05   4.822264e+05
  -1.769547e+05   6.985909e+05
  -9.355982e+05   4.643298e+05
  -8.510919e+05  -1.918897e+04
  -1.444433e+05  -3.370372e+05
   3.804326e+05  -2.255301e+05
   2.066765e+05   1.405019e+05
  -3.970106e+05   2.775869e+05
  -7.133922e+05  -1.086662e+05
  -3.335202e+05  -7.512772e+05
   4.471501e+05  -1.009420e+06
   9.496274e+05  -4.916175e+05
   7.751832e+05   4.887725e+05
   1.322776e+05   1.124731e+06
  -4.431306e+05   8.623649e+05
  -5.939799e+05  -3.361094e+04
  -3.495396e+05  -7.233501e+05
   3.898234e+04  -6.520715e+05
   3.218591e+05  -9.631290e+04
   3.549993e+05   2.428510e+05
   1.709011e+05   1.061307e+05
   3.042748e+03  -8.140321e+04
   8.008814e+04   1.302538e+05
   2.916673e+05   5.704280e+05
   2.144582e+05   6.822304e+05
  -3.432502e+05   2.709219e+05
  -9.332141e+05  -2.718780e+05
  -8.812580e+05  -5.032250e+05
  -1.333363e+05  -4.138480e+05
   5.903416e+05  -2.607691e+05
   6.329667e+05  -1.501861e+05
   1.680247e+05  -1.290111e+04
  -1.136787e+05   1.335514e+05
   5.834521e+04   1.684197e+05
   2.477646e+05   1.028414e+05
  -3.429380e+02   8.632339e+04
  -4.956926e+05   1.171200e+05
  -6.345508e+05  -2.513673e+04
  -1.491800e+05  -4.076584e+05
   5.898036e+05  -6.791846e+05
   9.857337e+05  -4.155602e+05
   7.682840e+05   3.032941e+05
   1.436488e+05   8.786032e+05
  -4.430400e+05   8.241161e+05
  -6.409836e+05   2.807568e+05
  -4.157162e+05  -1.858851e+05
  -4.887175e+04  -2.180127e+05
   1.124573e+05   8.161505e+03
  -2.474036e+04   6.625717e+04
  -2.251016e+05  -2.012278e+05
  -1.885469e+05  -4.967661e+05
   1.236137e+05  -4.013570e+05
   4.344638e+05   1.260401e+05
   4.099332e+05   6.347977e+05
  -1.192885e+04   6.241271e+05
  -5.080322e+05   7.926254e+04
  -6.123552e+05  -5.094204e+05
  -1.670433e+05  -6.642857e+05
   4.482939e+05  -3.619402e+05
   6.501839e+05   6.444474e+04
   2.861703e+05   3.227401e+05
  -1.682786e+05   3.490109e+05
  -1.700014e+05   2.121455e+05
   2.197566e+05   3.275145e+04
   4.172274e+05  -1.429221e+04
   6.751547e+04   1.754065e+05
  -5.062500e+05   4.292083e+05
  -7.158601e+05   3.880697e+05
  -4.023045e+05  -5.228115e+04
   6.287081e+04  -5.076003e+05
   2.775575e+05  -5.009980e+05
   1.926601e+05  -5.249497e+04
  -2.623133e+03   3.219257e+05
  -1.585106e+05   2.310597e+05
  -2.194716e+05  -1.503926e+05
  -1.474240e+05  -3.568205e+05
   4.720399e+04  -2.070067e+05
   2.373343e+05   5.360141e+04
   2.722968e+05   1.291568e+05
   1.492829e+05   2.096995e+04
   8.506566e+03  -4.405181e+04
  -5.174588e+04   7.211719e+04
  -7.742709e+04   2.549005e+05
  -1.487549e+05   2.692966e+05
  -2.322843e+05   2.294181e+04
  -1.998431e+05  -3.038053e+05
   1.137436e+04  -4.057796e+05
   2.812728e+05  -1.627822e+05
   3.670937e+05   2.114202e+05
   1.244212e+05   3.764992e+05
  -2.935117e+05   2.160574e+05
  -5.059529e+05  -7.317937e+04
  -2.762950e+05  -2.333986e+05
   1.798508e+05  -2.003874e+05
   3.754823e+05  -8.439138e+04
   1.061380e+05  -2.311334e+03
  -2.786181e+05  -8.253005e+03
  -2.754936e+05  -1.076999e+05
   1.587345e+05  -2.185121e+05
   5.465262e+05  -1.624170e+05
