
 $NMID
 id='ANONYMOUS ', fmtdat='(2E16.6)'
 volume=1.0
 tramp=1.0
 $END
   5.958217e+07  -2.908875e+05
   3.579920e+07   3.723132e+07
  -8.118559e+06   4.051480e+07
  -2.931493e+07   1.509810e+07
  -1.723992e+07  -7.898568e+06
   3.730768e+06  -9.844499e+06
   1.031775e+07   1.623680e+06
   2.638731e+06   1.037247e+07
  -6.732772e+06   9.542057e+06
  -1.014801e+07   1.861553e+06
  -7.295235e+06  -6.458922e+06
  -8.811399e+05  -8.896638e+06
   4.117714e+06  -2.937211e+06
   2.699667e+06   5.477890e+06
  -3.984457e+06   6.640731e+06
  -8.238753e+06  -1.522850e+06
  -4.591332e+06  -1.071779e+07
   4.015077e+06  -1.235642e+07
   1.061101e+07  -6.249893e+06
   1.142783e+07   2.034329e+06
   7.165973e+06   7.848971e+06
   8.813463e+05   9.289191e+06
  -3.201964e+06   6.590791e+06
  -2.314852e+06   2.777997e+06
   9.271489e+05   1.919510e+06
   3.930991e+05   4.078043e+06
  -5.319535e+06   4.610355e+06
  -9.869160e+06   7.376413e+05
  -7.391667e+06  -4.138583e+06
  -5.036778e+05  -5.279729e+06
   3.633816e+06  -2.846262e+06
   2.570043e+06  -2.835088e+05
  -3.366176e+05   7.749560e+05
  -2.020257e+06   5.737307e+05
  -2.207631e+06  -1.198041e+06
  -9.186638e+05  -3.884355e+06
   1.752880e+06  -4.097899e+06
   3.522962e+06  -8.422870e+04
   2.011940e+06   3.804407e+06
  -7.836123e+05   2.249107e+06
  -4.913146e+05  -2.333085e+06
   2.484170e+06  -2.309313e+06
   2.516456e+06   3.385186e+06
  -2.691070e+06   6.466130e+06
  -7.506169e+06   1.047043e+06
  -5.472974e+06  -7.366061e+06
   2.057619e+06  -9.048316e+06
   7.814565e+06  -2.576299e+06
   7.171995e+06   4.634307e+06
   1.804919e+06   6.226301e+06
  -3.613068e+06   2.712992e+06
  -5.340888e+06  -1.671335e+06
  -2.380855e+06  -3.645690e+06
   2.595226e+06  -2.254378e+06
   4.726394e+06   1.017979e+06
   1.995341e+06   2.882677e+06
  -1.813789e+06   1.431955e+06
  -1.750278e+06  -1.080072e+06
   1.492634e+06  -8.785690e+05
   2.586639e+06   2.019959e+06
  -8.211529e+05   3.751421e+06
  -5.035275e+06   1.976420e+06
  -5.593333e+06  -1.542930e+06
  -2.389660e+06  -4.228868e+06
   1.813942e+06  -5.475311e+06
   5.048288e+06  -5.047820e+06
   6.353736e+06  -1.907695e+06
   4.826991e+06   3.174218e+06
   1.055602e+06   6.351037e+06
  -1.972795e+06   4.886155e+06
  -1.892632e+06   1.126935e+06
  -9.244164e+04  -4.273120e+05
   2.506153e+05   9.437297e+05
  -1.442610e+06   1.932531e+06
  -2.809978e+06   4.338784e+05
  -2.125637e+06  -1.796476e+06
  -1.487418e+05  -2.100851e+06
   1.459753e+06  -2.425928e+05
   1.666705e+06   2.012367e+06
   5.659868e+04   2.943283e+06
  -2.775917e+06   1.760865e+06
  -4.630588e+06  -1.113015e+06
  -3.424584e+06  -3.849933e+06
  -2.389064e+04  -4.448026e+06
   2.387309e+06  -2.897039e+06
   2.379174e+06  -1.185202e+06
   1.920015e+06  -6.537005e+05
   3.001609e+06  -4.443796e+05
   4.417648e+06   7.985629e+05
   3.531162e+06   2.814652e+06
   1.306999e+05   4.173544e+06
  -3.213834e+06   3.951762e+06
  -4.176529e+06   2.200252e+06
  -2.699919e+06  -3.470185e+05
  -3.616736e+05  -2.233163e+06
   1.047299e+06  -1.991190e+06
   5.777244e+05   8.661803e+03
  -1.074786e+06   1.340559e+06
  -1.947879e+06   4.187861e+05
  -9.728502e+05  -1.229129e+06
   4.972970e+05  -1.125928e+06
   3.894965e+05   4.045006e+05
  -1.153961e+06   6.388573e+05
  -1.890301e+06  -1.466210e+06
  -5.173758e+05  -3.646894e+06
   1.807340e+06  -3.387322e+06
   3.254895e+06  -9.407468e+05
   3.259017e+06   1.578616e+06
   2.178666e+06   2.770408e+06
   4.206837e+05   2.578783e+06
  -1.229364e+06   1.472224e+06
  -1.577972e+06   2.495279e+05
  -4.982726e+05  -4.579276e+04
   3.613794e+05   7.637780e+05
  -4.371988e+05   1.381183e+06
  -1.972455e+06   5.915569e+05
  -2.082138e+06  -9.355550e+05
  -3.720831e+05  -1.466668e+06
   1.200046e+06  -5.675412e+05
   8.702942e+05   4.685775e+05
  -8.861326e+05   4.754823e+05
  -2.166842e+06  -3.933199e+05
  -1.683524e+06  -1.380783e+06
   2.980206e+05  -1.942254e+06
   2.332086e+06  -1.628830e+06
   2.800606e+06  -2.610922e+05
   1.237785e+06   1.302552e+06
  -9.455501e+05   1.554852e+06
  -1.618907e+06   2.015215e+05
  -2.249715e+05  -1.115727e+06
   1.546379e+06  -7.550207e+05
   1.739671e+06   8.134104e+05
   3.049231e+05   1.682533e+06
  -1.140653e+06   9.542438e+05
  -1.266237e+06  -3.637650e+05
  -2.154873e+05  -8.103521e+05
   8.309234e+05  -4.929297e+04
   7.578997e+05   1.075073e+06
  -5.737471e+05   1.452372e+06
  -2.033194e+06   5.651116e+05
  -2.073041e+06  -1.057932e+06
  -3.899636e+05  -2.111916e+06
   1.476753e+06  -1.667534e+06
   1.758798e+06  -1.965972e+05
   4.930713e+05   8.917230e+05
  -6.788777e+05   8.048073e+05
  -6.215709e+05   7.790373e+04
   1.403327e+05  -3.283519e+05
   4.692629e+05  -1.701260e+05
   6.133681e+04   5.834302e+04
  -4.882891e+05  -1.313895e+05
  -5.063940e+05  -7.265635e+05
   2.424203e+05  -1.211785e+06
   1.414545e+06  -8.977369e+05
   2.110859e+06   4.276148e+05
   1.486854e+06   1.973594e+06
  -2.200424e+05   2.444332e+06
  -1.632813e+06   1.399899e+06
  -1.681846e+06  -1.533700e+05
  -8.212202e+05  -8.827658e+05
  -3.035850e+05  -5.933534e+05
  -5.163107e+05  -1.791386e+05
  -6.775518e+05  -3.313358e+05
  -9.872914e+04  -8.012490e+05
   9.021709e+05  -9.036802e+05
   1.458427e+06  -3.034010e+05
   1.028913e+06   7.252647e+05
  -2.770984e+05   1.441346e+06
  -1.740663e+06   1.057364e+06
  -2.260325e+06  -4.991530e+05
  -1.124754e+06  -2.135096e+06
   1.057609e+06  -2.398400e+06
   2.601428e+06  -1.018882e+06
   2.363830e+06   7.069703e+05
   9.154624e+05   1.359878e+06
  -2.387878e+05   9.146736e+05
  -3.650942e+05   4.748547e+05
  -2.304015e+04   7.653801e+05
  -7.564137e+04   1.356779e+06
  -6.873038e+05   1.331115e+06
  -1.327240e+06   3.323131e+05
  -1.363226e+06  -1.088854e+06
  -5.695469e+05  -1.914963e+06
   6.232722e+05  -1.455028e+06
   1.297866e+06   9.394810e+03
   8.128050e+05   1.316394e+06
  -4.228096e+05   1.416976e+06
  -1.210089e+06   3.786869e+05
  -8.266576e+05  -7.562581e+05
   1.586791e+05  -1.118249e+06
   5.875990e+05  -7.871206e+05
   1.048977e+05  -4.036504e+05
  -4.469742e+05  -3.290380e+05
  -6.646691e+04  -3.834232e+05
   1.178405e+06  -2.077699e+05
   2.110881e+06   3.436853e+05
   1.638586e+06   1.064089e+06
  -6.467898e+04   1.474951e+06
  -1.640890e+06   1.166551e+06
  -1.866749e+06   2.617425e+05
  -8.349423e+05  -5.381684e+05
   2.783405e+05  -5.945081e+05
   5.286359e+05  -1.917298e+04
   4.425118e+04   4.488611e+05
  -4.348564e+05   2.691343e+05
  -4.930270e+05  -3.439866e+05
  -2.879279e+05  -7.216248e+05
  -1.264856e+05  -4.819012e+05
  -1.359528e+05   7.530074e+04
  -2.595840e+05   2.700587e+05
  -2.733425e+05  -2.379936e+05
   1.258602e+05  -9.875928e+05
   9.085236e+05  -1.087226e+06
   1.413514e+06  -2.031225e+05
   9.018921e+05   9.205793e+05
  -4.154884e+05   1.183971e+06
  -1.292377e+06   3.771413e+05
  -7.494803e+05  -5.668201e+05
   7.175787e+05  -6.514281e+05
   1.593144e+06   1.128802e+05
   9.753654e+05   8.815184e+05
  -5.213053e+05   9.745205e+05
  -1.507300e+06   4.390968e+05
  -1.217433e+06  -2.168957e+05
  -1.187475e+05  -5.121462e+05
   6.611057e+05  -2.571541e+05
   4.012835e+05   3.072232e+05
  -5.727266e+05   5.484131e+05
  -1.201102e+06  -4.829022e+04
  -7.198023e+05  -1.176803e+06
   5.456421e+05  -1.741209e+06
   1.475942e+06  -9.321713e+05
   1.277803e+06   7.429623e+05
   2.221387e+05   1.801415e+06
  -7.402330e+05   1.292213e+06
  -9.291035e+05  -1.979748e+05
  -4.160369e+05  -1.205911e+06
   2.507066e+05  -9.614735e+05
   5.778227e+05  -7.349893e+04
   4.478657e+05   3.732442e+05
   1.379506e+05   1.291765e+05
   5.951916e+04  -8.790668e+04
   3.252648e+05   3.159073e+05
   5.363374e+05   9.816342e+05
   1.645585e+05   1.082288e+06
  -7.595607e+05   3.971211e+05
  -1.487234e+06  -4.592100e+05
  -1.265184e+06  -8.373536e+05
  -1.874106e+05  -7.117861e+05
   8.291591e+05  -4.335154e+05
   9.818811e+05  -1.797311e+05
   3.907303e+05   6.909894e+04
  -1.332107e+05   2.326048e+05
  -7.100285e+04   1.893614e+05
   2.293663e+05   7.160139e+04
   6.825346e+04   1.316531e+05
  -6.237712e+05   2.618350e+05
  -1.064713e+06   1.384915e+04
  -5.066683e+05  -7.019856e+05
   7.974952e+05  -1.228354e+06
   1.738506e+06  -8.194612e+05
   1.486344e+06   3.932902e+05
   3.153071e+05   1.412694e+06
  -7.681799e+05   1.418093e+06
  -1.055940e+06   5.893151e+05
  -6.612538e+05  -2.017639e+05
  -1.593044e+05  -3.617227e+05
   3.361204e+04  -9.350548e+04
  -9.566642e+04  -1.064209e+04
  -2.898752e+05  -3.809836e+05
  -2.452572e+05  -8.153259e+05
   1.619718e+05  -7.003045e+05
   6.837120e+05   8.162664e+04
   7.912568e+05   9.221013e+05
   1.838723e+05   1.047804e+06
  -7.320656e+05   3.069616e+05
  -1.076178e+06  -6.713598e+05
  -4.021325e+05  -1.099717e+06
   7.026208e+05  -7.322447e+05
   1.156312e+06   4.182250e+04
   5.749644e+05   6.401467e+05
  -2.809635e+05   7.321375e+05
  -4.131613e+05   3.893426e+05
   2.114179e+05  -1.072302e+04
   6.469419e+05  -5.866021e+04
   1.682024e+05   3.170289e+05
  -8.238796e+05   6.976824e+05
  -1.300232e+06   5.406317e+05
  -8.156727e+05  -1.969512e+05
   7.739791e+04  -8.987883e+05
   5.783164e+05  -8.946926e+05
   4.683731e+05  -2.016564e+05
   8.554126e+04   4.677263e+05
  -2.258196e+05   4.681718e+05
  -3.574741e+05  -1.054815e+05
  -2.753286e+05  -5.783981e+05
   3.446575e+04  -4.677270e+05
   3.988029e+05   2.073340e+04
   5.009232e+05   3.002256e+05
   2.482116e+05   1.158099e+05
  -5.676761e+04  -1.804239e+05
  -8.554049e+04  -1.023636e+05
   7.139446e+04   3.338912e+05
   3.515540e+04   5.995077e+05
  -2.945908e+05   2.968751e+05
  -5.227593e+05  -3.292049e+05
  -2.404612e+05  -6.468131e+05
   3.872666e+05  -3.469413e+05
   7.053064e+05   2.424849e+05
   2.902218e+05   5.599721e+05
  -5.174805e+05   3.879990e+05
  -9.192835e+05  -3.855944e+04
  -5.059968e+05  -3.706520e+05
   2.882913e+05  -4.416673e+05
   6.528276e+05  -2.819616e+05
   2.838773e+05  -3.085644e+04
  -3.065490e+05   1.088191e+05
  -3.978059e+05  -1.123841e+04
   1.284125e+05  -2.730999e+05
   6.892677e+05  -2.946583e+05
