
 $NMID
 id='ANONYMOUS ', fmtdat='(2E16.6)'
 volume=1.0
 tramp=1.0
 $END
   1.387703e+07  -2.325138e+06
   1.112809e+07   5.162340e+06
   1.774186e+06   9.381643e+06
  -5.728099e+06   7.262800e+06
  -5.801289e+06   1.247584e+06
  -7.487076e+05  -2.852171e+06
   3.166930e+06  -1.713128e+06
   2.675747e+06   2.349368e+06
  -4.598698e+05   4.361439e+06
  -2.756026e+06   2.174077e+06
  -2.522595e+06  -1.629069e+06
  -5.200826e+05  -2.977637e+06
   1.259124e+06  -7.147107e+05
   1.166433e+06   2.475934e+06
  -7.427513e+05   3.135733e+06
  -2.534446e+06   5.761362e+05
  -2.182917e+06  -2.691513e+06
   2.138246e+05  -3.741231e+06
   2.477995e+06  -2.066100e+06
   2.760620e+06   3.957520e+05
   1.407365e+06   1.619001e+06
   2.217177e+05   1.404313e+06
   3.434095e+05   1.008429e+06
   1.180641e+06   1.399325e+06
   1.192964e+06   2.232880e+06
  -4.542014e+05   2.410138e+06
  -2.815015e+06   1.338572e+06
  -3.768602e+06  -4.178010e+05
  -2.146404e+06  -1.613001e+06
   6.867218e+05  -1.411772e+06
   1.984304e+06  -1.260007e+05
   6.298160e+05   1.039356e+06
  -1.600320e+06   1.005008e+06
  -2.225617e+06  -2.642600e+05
  -9.103665e+05  -1.698212e+06
   5.857587e+05  -2.007751e+06
   8.491006e+05  -8.795069e+05
   2.108883e+05   5.792605e+05
  -2.422114e+05   8.224378e+05
  -5.586489e+04  -4.331933e+05
   5.246972e+05  -1.677356e+06
   1.090696e+06  -1.224381e+06
   1.161429e+06   6.732224e+05
   3.352142e+05   1.907767e+06
  -1.004437e+06   9.723432e+05
  -1.526478e+06  -1.170015e+06
  -2.778227e+05  -2.174550e+06
   1.871116e+06  -9.896329e+05
   2.798221e+06   1.134211e+06
   1.396641e+06   2.221436e+06
  -1.127764e+06   1.561214e+06
  -2.488329e+06   1.644449e+04
  -1.632884e+06  -1.090682e+06
   3.595718e+05  -1.067556e+06
   1.528942e+06  -1.937286e+05
   9.797115e+05   6.035997e+05
  -3.779652e+05   5.397961e+05
  -9.146384e+05  -2.591504e+05
  -6.743923e+04  -8.350001e+05
   1.052351e+06  -4.451861e+05
   9.582627e+05   5.570572e+05
  -4.240872e+05   1.089644e+06
  -1.590977e+06   5.051328e+05
  -1.156025e+06  -7.953267e+05
   6.069030e+05  -1.794914e+06
   2.142554e+06  -1.687696e+06
   2.302144e+06  -4.164896e+05
   1.324659e+06   1.264515e+06
   2.417201e+05   2.272046e+06
  -2.863866e+05   2.078476e+06
  -3.997905e+05   1.207594e+06
  -5.773208e+05   6.028508e+05
  -1.013245e+06   4.809270e+05
  -1.425104e+06   1.806329e+05
  -1.337835e+06  -7.110566e+05
  -5.558140e+05  -1.528369e+06
   5.531645e+05  -1.254463e+06
   1.237068e+06   1.131931e+05
   9.376342e+05   1.398948e+06
  -1.899344e+05   1.496640e+06
  -1.317725e+06   4.533089e+05
  -1.603127e+06  -7.734301e+05
  -9.240757e+05  -1.347471e+06
   3.175946e+04  -1.183018e+06
   4.986991e+05  -7.602279e+05
   4.623712e+05  -5.530424e+05
   6.087335e+05  -5.992704e+05
   1.349876e+06  -4.994037e+05
   2.087302e+06   1.465217e+05
   1.754800e+06   1.222976e+06
   1.341569e+05   2.048170e+06
  -1.654007e+06   1.933451e+06
  -2.192880e+06   8.417667e+05
  -1.208325e+06  -5.006032e+05
   2.103716e+05  -1.163045e+06
   7.784469e+05  -7.786531e+05
   2.294147e+05   1.237974e+05
  -6.288886e+05   5.866442e+05
  -8.656208e+05   1.770126e+05
  -3.179642e+05  -5.199210e+05
   3.637842e+05  -5.544297e+05
   4.191624e+05   1.883875e+05
  -2.707147e+05   7.138435e+05
  -1.042861e+06   7.844950e+04
  -1.040148e+06  -1.352059e+06
  -1.196654e+04  -2.161810e+06
   1.393751e+06  -1.428128e+06
   2.134239e+06   2.809679e+05
   1.650308e+06   1.560888e+06
   3.531447e+05   1.594876e+06
  -7.278363e+05   7.662970e+05
  -8.584854e+05   3.752178e+04
  -2.527566e+05  -2.339755e+04
   1.949501e+05   3.747277e+05
  -1.135216e+05   6.136147e+05
  -8.104555e+05   3.180738e+05
  -9.877985e+05  -2.872357e+05
  -2.961344e+05  -6.190659e+05
   5.597185e+05  -3.495090e+05
   5.757930e+05   2.279944e+05
  -3.751573e+05   4.792644e+05
  -1.320323e+06   6.473564e+04
  -1.202571e+06  -7.264059e+05
  -5.307855e+03  -1.237973e+06
   1.230576e+06  -1.015882e+06
   1.460993e+06  -1.989682e+05
   6.251995e+05   5.665616e+05
  -3.887647e+05   6.646288e+05
  -6.543257e+05   9.832620e+04
  -4.730101e+04  -4.639902e+05
   7.364678e+05  -3.613814e+05
   9.049914e+05   3.249057e+05
   3.088043e+05   8.472742e+05
  -4.689060e+05   6.493132e+05
  -7.077009e+05  -3.502527e+03
  -2.535800e+05  -3.649460e+05
   3.348961e+05  -6.920290e+04
   3.513257e+05   5.064790e+05
  -3.168491e+05   6.996866e+05
  -1.026627e+06   2.372433e+05
  -1.015367e+06  -5.467903e+05
  -2.074057e+05  -1.036468e+06
   6.790901e+05  -8.529011e+05
   8.697952e+05  -1.703475e+05
   3.191849e+05   4.223161e+05
  -3.088159e+05   4.538870e+05
  -3.946630e+05   2.489459e+04
   1.848562e+04  -3.231456e+05
   3.755018e+05  -2.259114e+05
   2.663084e+05   1.021146e+05
  -1.525606e+05   1.613942e+05
  -3.567822e+05  -2.055381e+05
  -1.011355e+04  -6.020535e+05
   6.698599e+05  -5.029870e+05
   1.072650e+06   1.807967e+05
   7.554192e+05   9.809728e+05
  -1.082020e+05   1.275688e+06
  -8.599030e+05   8.297941e+05
  -9.833362e+05   1.736511e+03
  -5.800154e+05  -5.737866e+05
  -1.773155e+05  -5.652784e+05
  -1.090329e+05  -2.299646e+05
  -1.938373e+05  -8.481704e+04
  -4.501265e+04  -2.992911e+05
   4.071165e+05  -5.024685e+05
   7.870166e+05  -2.459898e+05
   6.458266e+05   4.113757e+05
  -7.381023e+04   8.849334e+05
  -9.128202e+05   6.458341e+05
  -1.217464e+06  -2.237302e+05
  -6.693111e+05  -1.068962e+06
   4.020308e+05  -1.237166e+06
   1.241085e+06  -6.362180e+05
   1.293028e+06   2.216502e+05
   6.653228e+05   7.095229e+05
  -3.649393e+04   6.442709e+05
  -3.188840e+05   3.783390e+05
  -2.149564e+05   3.444184e+05
  -1.194020e+05   5.505623e+05
  -2.977497e+05   5.897640e+05
  -6.062413e+05   1.506611e+05
  -6.659458e+05  -5.623781e+05
  -2.768574e+05  -9.838270e+05
   3.347851e+05  -7.429450e+05
   6.811703e+05  -2.383694e+04
   4.650856e+05   6.136805e+05
  -1.094369e+05   7.291627e+05
  -5.168046e+05   3.333258e+05
  -4.358152e+05  -1.977845e+05
  -6.392680e+04  -4.863424e+05
   1.397632e+05  -4.483960e+05
  -4.457521e+03  -2.810948e+05
  -1.940602e+05  -1.993124e+05
  -1.268415e+04  -2.083090e+05
   5.486616e+05  -1.380347e+05
   1.005575e+06   1.263443e+05
   8.465221e+05   4.839309e+05
   8.023542e+04   6.917146e+05
  -7.138324e+05   5.822199e+05
  -9.211743e+05   2.174898e+05
  -4.835916e+05  -1.445343e+05
   7.935118e+04  -2.493675e+05
   2.419420e+05  -7.057474e+04
  -6.910567e+03   1.439208e+05
  -2.625092e+05   1.077711e+05
  -2.356601e+05  -1.767609e+05
  -4.341825e+04  -3.843007e+05
   2.991566e+04  -2.405030e+05
  -9.060776e+04   1.057280e+05
  -2.214755e+05   2.128400e+05
  -1.607216e+05  -1.135378e+05
   1.189629e+05  -5.332309e+05
   4.582554e+05  -5.379050e+05
   5.975630e+05  -5.260888e+04
   3.429953e+05   4.599570e+05
  -2.014471e+05   5.120910e+05
  -5.813514e+05   1.039916e+05
  -3.628290e+05  -3.220353e+05
   3.453826e+05  -3.581522e+05
   8.714844e+05   7.594374e+03
   6.399571e+05   4.453471e+05
  -1.809274e+05   5.996531e+05
  -8.238498e+05   3.653482e+05
  -7.299953e+05  -4.962844e+04
  -1.104076e+05  -2.956747e+05
   3.356335e+05  -1.828848e+05
   1.781100e+05   1.221277e+05
  -3.368759e+05   2.244509e+05
  -5.973144e+05  -1.040278e+05
  -2.671127e+05  -6.353355e+05
   3.941367e+05  -8.394357e+05
   8.097539e+05  -3.947451e+05
   6.450540e+05   4.314813e+05
   8.482817e+04   9.582473e+05
  -4.034827e+05   7.215157e+05
  -5.114429e+05  -4.759484e+04
  -2.786009e+05  -6.322636e+05
   5.796746e+04  -5.617295e+05
   2.816282e+05  -7.553704e+04
   2.920192e+05   2.215780e+05
   1.373049e+05   1.011272e+05
   8.098772e+03  -7.129675e+04
   7.498982e+04   1.037544e+05
   2.389757e+05   4.892518e+05
   1.610145e+05   5.946689e+05
  -3.047539e+05   2.327335e+05
  -7.872559e+05  -2.549131e+05
  -7.348983e+05  -4.582128e+05
  -1.052096e+05  -3.574367e+05
   5.046526e+05  -2.007304e+05
   5.442031e+05  -1.088293e+05
   1.507156e+05  -1.173684e+04
  -9.772364e+04   1.083295e+05
   3.741203e+04   1.521781e+05
   1.990507e+05   1.010342e+05
  -1.468504e+03   6.927767e+04
  -4.162254e+05   7.912797e+04
  -5.363374e+05  -3.321093e+04
  -1.250495e+05  -3.359201e+05
   5.067636e+05  -5.570582e+05
   8.423574e+05  -3.409240e+05
   6.453956e+05   2.602892e+05
   1.023995e+05   7.452859e+05
  -3.925343e+05   6.944847e+05
  -5.442370e+05   2.271481e+05
  -3.429599e+05  -1.664882e+05
  -3.844960e+04  -1.820702e+05
   8.622998e+04   1.577242e+04
  -3.043998e+04   5.634987e+04
  -1.880103e+05  -1.817444e+05
  -1.477388e+05  -4.301999e+05
   1.108862e+05  -3.369807e+05
   3.588175e+05   1.159523e+05
   3.300232e+05   5.397178e+05
  -1.850505e+04   5.194399e+05
  -4.216323e+05   5.401651e+04
  -5.015021e+05  -4.394364e+05
  -1.303527e+05  -5.616403e+05
   3.808888e+05  -2.987485e+05
   5.497111e+05   6.309556e+04
   2.444595e+05   2.773007e+05
  -1.421278e+05   2.965636e+05
  -1.498144e+05   1.849090e+05
   1.794225e+05   3.981746e+04
   3.523619e+05  -1.339500e+03
   5.631792e+04   1.480934e+05
  -4.403670e+05   3.530607e+05
  -6.255194e+05   3.189264e+05
  -3.504875e+05  -4.709137e+04
   6.060309e+04  -4.301676e+05
   2.458118e+05  -4.282428e+05
   1.617543e+05  -5.130926e+04
  -1.098193e+04   2.673763e+05
  -1.342836e+05   1.928740e+05
  -1.752516e+05  -1.300016e+05
  -1.176317e+05  -3.047201e+05
   3.668501e+04  -1.752584e+05
   1.970170e+05   4.895830e+04
   2.347593e+05   1.147597e+05
   1.311413e+05   2.273152e+04
   6.523208e+02  -3.555832e+04
  -5.806494e+04   5.552867e+04
  -7.212218e+04   2.020441e+05
  -1.177573e+05   2.132672e+05
  -1.816139e+05   1.491336e+04
  -1.577060e+05  -2.482811e+05
   1.439193e+04  -3.298205e+05
   2.367959e+05  -1.295964e+05
   3.036999e+05   1.800650e+05
   9.586541e+04   3.169018e+05
  -2.533446e+05   1.798271e+05
  -4.258746e+05  -6.689343e+04
  -2.301064e+05  -2.014577e+05
   1.509251e+05  -1.683535e+05
   3.138720e+05  -6.844550e+04
   9.113570e+04  -6.356827e+03
  -2.266094e+05  -1.916277e+04
  -2.213680e+05  -9.728967e+04
   1.418792e+05  -1.729777e+05
   4.623895e+05  -1.147390e+05
