
 $NMID
 id='ANONYMOUS ', fmtdat='(2E16.6)'
 volume=1.0
 tramp=1.0
 $END
  -2.527090e+07   1.797524e+06
  -1.788085e+07  -1.105685e+07
  -9.585014e+05  -1.631659e+07
   1.054700e+07  -1.123770e+07
   9.278459e+06  -1.316276e+06
   7.278356e+05   4.637120e+06
  -5.140096e+06   2.432730e+06
  -4.040119e+06  -3.996231e+06
   9.820215e+05  -7.030843e+06
   4.665525e+06  -3.310919e+06
   4.266854e+06   3.040523e+06
   7.889617e+05   5.228998e+06
  -2.350328e+06   1.241119e+06
  -2.121094e+06  -4.240657e+06
   1.273638e+06  -5.216472e+06
   4.267339e+06  -6.935041e+05
   3.448595e+06   4.821903e+06
  -7.784714e+05   6.398274e+06
  -4.638645e+06   3.325165e+06
  -5.003103e+06  -1.092975e+06
  -2.381872e+06  -3.348215e+06
   7.077851e+04  -2.838709e+06
   2.395399e+03  -1.651713e+06
  -1.806134e+06  -1.895570e+06
  -2.314557e+06  -3.439811e+06
   4.691061e+05  -4.215733e+06
   4.878258e+06  -2.624049e+06
   6.762323e+06   5.814095e+05
   3.888086e+06   2.963767e+06
  -1.193351e+06   2.786866e+06
  -3.604349e+06   5.333077e+05
  -1.438380e+06  -1.706065e+06
   2.379731e+06  -1.991397e+06
   3.756289e+06   2.609923e+04
   1.871514e+06   2.727948e+06
  -7.326487e+05   3.628675e+06
  -1.599368e+06   1.692692e+06
  -6.979245e+05  -1.171831e+06
   3.943411e+05  -1.781129e+06
   4.400050e+05   5.919244e+05
  -5.998367e+05   2.968097e+06
  -1.789878e+06   2.125990e+06
  -1.857111e+06  -1.229680e+06
  -2.396159e+05  -3.123332e+06
   1.938931e+06  -1.188604e+06
   2.407922e+06   2.446517e+06
   3.650875e+04   3.785036e+06
  -3.454506e+06   1.499105e+06
  -4.756067e+06  -2.051156e+06
  -2.309274e+06  -3.737583e+06
   1.885160e+06  -2.592092e+06
   4.126983e+06  -3.899166e+04
   2.663770e+06   1.780064e+06
  -6.935674e+05   1.686242e+06
  -2.589716e+06   1.811385e+05
  -1.558403e+06  -1.088600e+06
   7.209431e+05  -8.758335e+05
   1.522719e+06   4.200957e+05
   1.222225e+05   1.229780e+06
  -1.550001e+06   5.888205e+05
  -1.258765e+06  -8.323334e+05
   9.146720e+05  -1.513373e+06
   2.619029e+06  -5.870394e+05
   1.800061e+06   1.462459e+06
  -1.119766e+06   3.171915e+06
  -3.739230e+06   3.060569e+06
  -4.108947e+06   7.778465e+05
  -2.427549e+06  -2.304512e+06
  -4.347494e+05  -4.030193e+06
   5.141308e+05  -3.488221e+06
   5.615285e+05  -1.900909e+06
   7.270426e+05  -1.048876e+06
   1.543514e+06  -1.087903e+06
   2.469679e+06  -6.320214e+05
   2.506741e+06   1.018253e+06
   1.223974e+06   2.586131e+06
  -7.526776e+05   2.264200e+06
  -2.100566e+06   1.282797e+03
  -1.745944e+06  -2.266504e+06
   2.002070e+05  -2.605805e+06
   2.308671e+06  -9.000288e+05
   2.917616e+06   1.316041e+06
   1.664076e+06   2.453430e+06
  -1.544614e+05   2.162676e+06
  -1.010065e+06   1.296865e+06
  -8.513560e+05   8.524600e+05
  -9.973049e+05   9.674152e+05
  -2.245317e+06   8.804384e+05
  -3.547553e+06  -1.664568e+05
  -3.046099e+06  -2.000283e+06
  -3.461811e+05  -3.484676e+06
   2.701404e+06  -3.425484e+06
   3.723562e+06  -1.630454e+06
   2.172376e+06   7.631842e+05
  -2.274359e+05   2.064709e+06
  -1.288384e+06   1.450030e+06
  -4.296922e+05  -1.968841e+05
   1.043466e+06  -1.071165e+06
   1.491833e+06  -3.396019e+05
   5.803132e+05   9.138575e+05
  -5.795280e+05   9.912108e+05
  -7.007555e+05  -2.627532e+05
   3.913424e+05  -1.137076e+06
   1.628979e+06  -1.136464e+05
   1.682363e+06   2.169641e+06
   1.197708e+05   3.473583e+06
  -2.153965e+06   2.364813e+06
  -3.507880e+06  -3.207617e+05
  -2.874856e+06  -2.439958e+06
  -7.402117e+05  -2.637241e+06
   1.172980e+06  -1.370566e+06
   1.469167e+06  -1.407158e+05
   4.317175e+05   2.382937e+04
  -3.548847e+05  -6.282152e+05
   1.829382e+05  -1.050534e+06
   1.387004e+06  -5.621545e+05
   1.684402e+06   4.645647e+05
   5.094170e+05   1.040318e+06
  -9.339288e+05   6.198382e+05
  -9.845753e+05  -3.321243e+05
   5.760450e+05  -8.056341e+05
   2.178313e+06  -2.067286e+05
   2.063821e+06   1.096254e+06
   1.157961e+05   2.055384e+06
  -1.994798e+06   1.800854e+06
  -2.464119e+06   4.340084e+05
  -1.087448e+06  -9.400161e+05
   6.549462e+05  -1.160765e+06
   1.133869e+06  -1.807671e+05
   1.015200e+05   8.162962e+05
  -1.245636e+06   6.610537e+05
  -1.549923e+06  -5.038363e+05
  -5.609865e+05  -1.402718e+06
   7.468457e+05  -1.099926e+06
   1.171967e+06  -2.598895e+04
   4.303288e+05   5.924280e+05
  -5.747935e+05   1.238077e+05
  -6.364529e+05  -8.518438e+05
   4.939798e+05  -1.228143e+06
   1.745681e+06  -4.826990e+05
   1.777438e+06   8.692026e+05
   4.162491e+05   1.758715e+06
  -1.111091e+06   1.487864e+06
  -1.464382e+06   3.330820e+05
  -5.568975e+05  -6.952063e+05
   4.973742e+05  -7.846905e+05
   6.675293e+05  -8.173670e+04
   1.080819e+04   5.284940e+05
  -5.863749e+05   4.198787e+05
  -4.469860e+05  -1.070777e+05
   2.207161e+05  -2.434658e+05
   5.830239e+05   3.272569e+05
   4.149398e+04   1.004771e+06
  -1.105192e+06   8.907135e+05
  -1.836437e+06  -2.387101e+05
  -1.352414e+06  -1.624519e+06
   9.366758e+04  -2.178418e+06
   1.388453e+06  -1.462758e+06
   1.647314e+06  -7.949680e+04
   1.025890e+06   8.971943e+05
   3.788516e+05   9.144697e+05
   2.426401e+05   3.911487e+05
   3.417785e+05   1.644393e+05
   8.161562e+04   5.191955e+05
  -6.565218e+05   8.699989e+05
  -1.301811e+06   4.714575e+05
  -1.120697e+06  -6.285525e+05
   4.677071e+04  -1.482923e+06
   1.489478e+06  -1.156263e+06
   2.078436e+06   2.896853e+05
   1.200840e+06   1.764575e+06
  -6.154556e+05   2.115121e+06
  -2.065816e+06   1.142158e+06
  -2.187671e+06  -2.937420e+05
  -1.160761e+06  -1.131781e+06
   6.007826e+02  -1.065873e+06
   4.796096e+05  -6.713263e+05
   3.252696e+05  -6.400922e+05
   1.790898e+05  -9.772243e+05
   4.887391e+05  -1.028456e+06
   1.035582e+06  -2.892769e+05
   1.179072e+06   9.176701e+05
   5.422050e+05   1.660809e+06
  -5.185771e+05   1.292976e+06
  -1.154196e+06   8.661978e+04
  -8.204193e+05  -1.014370e+06
   1.489307e+05  -1.233827e+06
   8.492639e+05  -5.710942e+05
   7.258988e+05   3.280021e+05
   1.117121e+05   8.127559e+05
  -2.198775e+05   7.441577e+05
   3.088389e+04   4.609838e+05
   3.529527e+05   3.269667e+05
   4.078385e+04   3.549282e+05
  -9.263693e+05   2.612959e+05
  -1.723780e+06  -1.621098e+05
  -1.466729e+06  -7.722672e+05
  -1.617344e+05  -1.164912e+06
   1.194454e+06  -1.025024e+06
   1.547369e+06  -4.185042e+05
   8.079122e+05   2.208368e+05
  -1.338506e+05   4.274081e+05
  -4.013386e+05   1.254359e+05
   1.143758e+04  -2.593076e+05
   4.389896e+05  -2.101379e+05
   4.149173e+05   2.873502e+05
   1.147519e+05   6.650525e+05
  -2.427464e+04   4.268564e+05
   1.336154e+05  -1.814182e+05
   3.401350e+05  -3.835964e+05
   2.786866e+05   1.781556e+05
  -1.532734e+05   9.210477e+05
  -7.459595e+05   9.509146e+05
  -1.037524e+06   1.199494e+05
  -6.295250e+05  -7.787384e+05
   3.228412e+05  -8.964409e+05
   1.006098e+06  -2.161882e+05
   6.474646e+05   5.228537e+05
  -5.626538e+05   6.274459e+05
  -1.470760e+06   4.938214e+04
  -1.103193e+06  -6.938097e+05
   2.617491e+05  -1.008732e+06
   1.350932e+06  -6.704621e+05
   1.225486e+06   2.519379e+04
   2.077018e+05   4.848730e+05
  -5.525496e+05   3.285107e+05
  -3.106437e+05  -2.044720e+05
   5.618539e+05  -4.197571e+05
   1.039676e+06   1.289252e+05
   5.163538e+05   1.075725e+06
  -6.079932e+05   1.481039e+06
  -1.358514e+06   7.460541e+05
  -1.137255e+06  -6.862307e+05
  -2.191390e+05  -1.626806e+06
   6.258656e+05  -1.253692e+06
   8.625759e+05   4.668635e+04
   5.132127e+05   1.046702e+06
  -5.770391e+04   9.431617e+05
  -4.709548e+05   1.422337e+05
  -5.105080e+05  -3.444160e+05
  -2.386349e+05  -1.490721e+05
  -7.924735e+03   1.155283e+05
  -1.375079e+05  -1.921235e+05
  -4.433362e+05  -8.244790e+05
  -3.120540e+05  -9.865703e+05
   5.091895e+05  -4.017617e+05
   1.359025e+06   3.741519e+05
   1.277905e+06   7.137698e+05
   2.019644e+05   6.010222e+05
  -8.395335e+05   3.910553e+05
  -9.123916e+05   2.272220e+05
  -2.548194e+05   1.767452e+04
   1.574682e+05  -1.968128e+05
  -7.346554e+04  -2.389679e+05
  -3.463624e+05  -1.384007e+05
  -7.478855e+03  -1.233190e+05
   7.002982e+05  -1.847311e+05
   9.235762e+05   1.583311e+04
   2.489291e+05   5.864456e+05
  -8.242157e+05   1.007382e+06
  -1.429272e+06   6.414029e+05
  -1.140041e+06  -4.089561e+05
  -2.362582e+05  -1.268899e+06
   6.253023e+05  -1.214357e+06
   9.221155e+05  -4.345651e+05
   6.051024e+05   2.515082e+05
   8.323533e+04   3.144357e+05
  -1.491477e+05  -2.994174e+03
   4.100932e+04  -8.813739e+04
   3.265517e+05   2.924152e+05
   2.810818e+05   7.185106e+05
  -1.656892e+05   5.891278e+05
  -6.298831e+05  -1.626762e+05
  -6.187779e+05  -9.004058e+05
  -1.497533e+04  -9.053184e+05
   7.245987e+05  -1.401242e+05
   9.048240e+05   7.103300e+05
   2.696091e+05   9.593048e+05
  -6.370024e+05   5.475201e+05
  -9.522799e+05  -7.060263e+04
  -4.346030e+05  -4.688375e+05
   2.330904e+05  -5.245157e+05
   2.520576e+05  -3.185875e+05
  -3.063864e+05  -3.982696e+04
  -6.019058e+05   3.328077e+04
  -1.076367e+05  -2.543766e+05
   7.245459e+05  -6.352726e+05
   1.042640e+06  -5.757979e+05
   6.005513e+05   7.231993e+04
  -7.563473e+04   7.438881e+05
  -3.996469e+05   7.428717e+05
  -2.888055e+05   9.334504e+04
  -1.027650e+04  -4.610094e+05
   2.200303e+05  -3.461677e+05
   3.195598e+05   2.015420e+05
   2.255308e+05   5.135094e+05
  -5.754314e+04   3.115549e+05
  -3.456293e+05  -6.640751e+04
  -4.048581e+05  -1.872348e+05
  -2.191371e+05  -3.342667e+04
  -3.387110e+03   7.177007e+04
   7.763913e+04  -8.795173e+04
   9.158601e+04  -3.615683e+05
   1.836851e+05  -4.024905e+05
   3.248982e+05  -5.856029e+04
   3.104820e+05   4.189232e+05
   1.428069e+04   5.832737e+05
  -3.969795e+05   2.485076e+05
  -5.449180e+05  -2.875594e+05
  -1.960129e+05  -5.374876e+05
   4.233431e+05  -3.245377e+05
   7.426007e+05   8.548966e+04
   4.112162e+05   3.303164e+05
  -2.537446e+05   3.046612e+05
  -5.437828e+05   1.441668e+05
  -1.625388e+05   1.014136e+04
   3.904744e+05  -1.988600e+03
   3.953420e+05   1.373143e+05
  -2.161450e+05   3.119092e+05
  -7.725519e+05   2.476859e+05
