
 $NMID
 id='ANONYMOUS ', fmtdat='(2E16.6)'
 volume=1.0
 tramp=1.0
 $END
   2.644092e+07  -1.119814e+06
   1.880299e+07   1.130092e+07
   1.268089e+06   1.691743e+07
  -1.112903e+07   1.235563e+07
  -1.023646e+07   1.983613e+06
  -1.087447e+06  -4.999772e+06
   5.655455e+06  -3.009052e+06
   4.695764e+06   4.273055e+06
  -9.334279e+05   7.967294e+06
  -5.112332e+06   3.811275e+06
  -4.584865e+06  -3.429013e+06
  -6.867452e+05  -5.819117e+06
   2.632573e+06  -1.200396e+06
   2.226041e+06   4.934850e+06
  -1.486028e+06   5.914235e+06
  -4.666769e+06   8.222939e+05
  -3.712469e+06  -5.264956e+06
   9.127113e+05  -6.915698e+06
   5.040061e+06  -3.415396e+06
   5.215654e+06   1.419205e+06
   2.196098e+06   3.603225e+06
  -2.843744e+05   2.716012e+06
   2.367725e+05   1.492616e+06
   2.404521e+06   2.256782e+06
   2.649649e+06   4.297460e+06
  -8.482781e+05   4.914685e+06
  -5.786120e+06   2.634438e+06
  -7.579716e+06  -1.126706e+06
  -4.081062e+06  -3.525814e+06
   1.668322e+06  -2.953049e+06
   4.215243e+06  -2.311796e+05
   1.477178e+06   2.241209e+06
  -3.079560e+06   2.311171e+06
  -4.555164e+06  -2.857689e+05
  -2.020907e+06  -3.435468e+06
   1.189177e+06  -4.189795e+06
   1.935371e+06  -1.685670e+06
   4.959326e+05   1.506091e+06
  -7.612535e+05   1.861791e+06
  -4.379300e+05  -9.799056e+05
   9.583794e+05  -3.496328e+06
   2.139797e+06  -2.382721e+06
   2.063827e+06   1.325124e+06
   4.162987e+05   3.362562e+06
  -1.803748e+06   1.330685e+06
  -2.423820e+06  -2.503989e+06
  -6.830261e+04  -3.939024e+06
   3.701885e+06  -1.493179e+06
   5.240880e+06   2.388554e+06
   2.569888e+06   4.259323e+06
  -2.170797e+06   2.936441e+06
  -4.724602e+06   6.287271e+03
  -3.071657e+06  -2.043320e+06
   7.030439e+05  -1.898865e+06
   2.842217e+06  -2.123528e+05
   1.745663e+06   1.176500e+06
  -7.739567e+05   9.428622e+05
  -1.744830e+06  -5.007335e+05
  -2.388521e+05  -1.485368e+06
   1.756585e+06  -8.664543e+05
   1.644948e+06   7.664284e+05
  -7.547360e+05   1.697709e+06
  -2.827395e+06   7.678807e+05
  -1.990387e+06  -1.542321e+06
   1.402061e+06  -3.445740e+06
   4.408511e+06  -3.212575e+06
   4.637488e+06  -6.035987e+05
   2.504384e+06   2.731005e+06
   2.587606e+05   4.521833e+06
  -6.338746e+05   3.938043e+06
  -6.363352e+05   2.282574e+06
  -9.794780e+05   1.329297e+06
  -2.036895e+06   1.195400e+06
  -3.011155e+06   4.803408e+05
  -2.841634e+06  -1.455591e+06
  -1.211865e+06  -3.154718e+06
   1.076538e+06  -2.620096e+06
   2.512662e+06   1.277540e+05
   1.934478e+06   2.760250e+06
  -3.856291e+05   3.004890e+06
  -2.697409e+06   8.591655e+05
  -3.187165e+06  -1.698845e+06
  -1.666409e+06  -2.819260e+06
   2.972729e+05  -2.311599e+06
   1.115454e+06  -1.324669e+06
   8.996706e+05  -9.301922e+05
   1.133867e+06  -1.113535e+06
   2.603815e+06  -9.570848e+05
   4.064001e+06   3.166533e+05
   3.420394e+06   2.420265e+06
   2.492733e+05   4.031120e+06
  -3.287384e+06   3.821398e+06
  -4.396091e+06   1.666707e+06
  -2.451671e+06  -1.037512e+06
   4.243927e+05  -2.384274e+06
   1.598531e+06  -1.582151e+06
   4.771427e+05   2.642770e+05
  -1.267843e+06   1.173706e+06
  -1.715999e+06   3.195592e+05
  -5.989220e+05  -1.063802e+06
   7.292946e+05  -1.118196e+06
   8.327578e+05   3.264702e+05
  -4.434353e+05   1.356451e+06
  -1.888790e+06   1.979616e+05
  -1.971593e+06  -2.490741e+06
  -1.444547e+05  -4.086743e+06
   2.544102e+06  -2.795003e+06
   4.119797e+06   4.385945e+05
   3.308573e+06   2.974892e+06
   7.612077e+05   3.131249e+06
  -1.438295e+06   1.535697e+06
  -1.717093e+06   8.166990e+04
  -4.990591e+05  -4.692050e+04
   3.824902e+05   7.386001e+05
  -2.410942e+05   1.187305e+06
  -1.593354e+06   5.868537e+05
  -1.909868e+06  -5.795055e+05
  -5.599659e+05  -1.198658e+06
   1.093897e+06  -6.818268e+05
   1.141428e+06   4.234228e+05
  -6.883290e+05   9.399968e+05
  -2.560445e+06   1.829906e+05
  -2.392948e+06  -1.363366e+06
  -6.798964e+04  -2.421521e+06
   2.394571e+06  -2.022036e+06
   2.874565e+06  -4.010042e+05
   1.213618e+06   1.118944e+06
  -7.940959e+05   1.289226e+06
  -1.289191e+06   1.563042e+05
  -6.816903e+04  -9.290565e+05
   1.460047e+06  -7.020250e+05
   1.770171e+06   6.367231e+05
   6.117794e+05   1.642424e+06
  -8.900256e+05   1.264121e+06
  -1.362703e+06   1.063673e+04
  -4.950022e+05  -6.908276e+05
   6.510660e+05  -1.201851e+05
   6.857394e+05   1.007461e+06
  -6.351406e+05   1.387697e+06
  -2.039742e+06   4.656713e+05
  -2.007105e+06  -1.090018e+06
  -4.009837e+05  -2.045618e+06
   1.340072e+06  -1.669356e+06
   1.703344e+06  -3.316658e+05
   6.250835e+05   8.204714e+05
  -6.013500e+05   8.906324e+05
  -7.866744e+05   6.425541e+04
   1.532216e+03  -6.338044e+05
   7.175239e+05  -4.809643e+05
   5.503071e+05   1.540770e+05
  -2.490446e+05   3.066289e+05
  -6.732288e+05  -3.789458e+05
  -2.156807e+04  -1.160457e+06
   1.312042e+06  -9.846947e+05
   2.111721e+06   3.567197e+05
   1.487242e+06   1.938378e+06
  -2.081466e+05   2.520856e+06
  -1.676221e+06   1.648623e+06
  -1.930079e+06   3.190110e+04
  -1.176556e+06  -1.103982e+06
  -4.057789e+05  -1.120591e+06
  -2.393785e+05  -4.911502e+05
  -3.603394e+05  -1.962918e+05
  -6.607863e+04  -5.881492e+05
   7.930749e+05  -9.826752e+05
   1.536372e+06  -4.987948e+05
   1.288688e+06   7.875995e+05
  -1.113962e+05   1.738817e+06
  -1.781487e+06   1.285277e+06
  -2.401352e+06  -4.271962e+05
  -1.321667e+06  -2.091858e+06
   7.872824e+05  -2.416659e+06
   2.425615e+06  -1.242774e+06
   2.528856e+06   4.157431e+05
   1.324284e+06   1.361377e+06
  -3.219427e+04   1.261133e+06
  -6.059412e+05   7.799252e+05
  -4.412657e+05   7.217306e+05
  -2.687106e+05   1.100169e+06
  -6.057444e+05   1.151193e+06
  -1.199747e+06   2.819854e+05
  -1.316357e+06  -1.118031e+06
  -5.478187e+05  -1.947532e+06
   6.624023e+05  -1.471756e+06
   1.341037e+06  -5.182346e+04
   9.086315e+05   1.200483e+06
  -2.116445e+05   1.418924e+06
  -9.887815e+05   6.422451e+05
  -8.223829e+05  -3.816426e+05
  -1.135286e+05  -9.279914e+05
   2.611519e+05  -8.543436e+05
  -2.619888e+04  -5.459086e+05
  -3.886590e+05  -4.017015e+05
  -2.707257e+04  -4.161184e+05
   1.075384e+06  -2.628790e+05
   1.974212e+06   2.626603e+05
   1.660882e+06   9.521322e+05
   1.497368e+05   1.341550e+06
  -1.409301e+06   1.124436e+06
  -1.801988e+06   4.257298e+05
  -9.305354e+05  -2.695226e+05
   1.658972e+05  -4.778234e+05
   4.643732e+05  -1.357256e+05
  -3.240103e+04   2.872048e+05
  -5.259882e+05   2.199143e+05
  -4.649916e+05  -3.526163e+05
  -8.538593e+04  -7.811089e+05
   6.358550e+04  -4.945843e+05
  -1.655257e+05   2.155484e+05
  -4.248693e+05   4.419158e+05
  -3.168684e+05  -2.190120e+05
   2.302970e+05  -1.065685e+06
   9.083949e+05  -1.061525e+06
   1.187094e+06  -7.704426e+04
   6.718509e+05   9.326493e+05
  -4.166654e+05   1.006553e+06
  -1.164229e+06   1.862371e+05
  -7.228564e+05  -6.414710e+05
   6.763977e+05  -7.040057e+05
   1.713331e+06   1.387139e+03
   1.268174e+06   8.502316e+05
  -3.333535e+05   1.170422e+06
  -1.600297e+06   7.378765e+05
  -1.433419e+06  -7.345951e+04
  -2.269282e+05  -5.750986e+05
   6.526104e+05  -3.627698e+05
   3.440305e+05   2.457986e+05
  -6.786794e+05   4.510162e+05
  -1.196303e+06  -2.115035e+05
  -5.315433e+05  -1.277393e+06
   7.930884e+05  -1.680800e+06
   1.618702e+06  -7.886162e+05
   1.284889e+06   8.559524e+05
   1.744166e+05   1.900496e+06
  -7.853539e+05   1.432919e+06
  -1.000749e+06  -8.451358e+04
  -5.562578e+05  -1.236176e+06
   9.742172e+04  -1.098058e+06
   5.482147e+05  -1.479904e+05
   5.857235e+05   4.257754e+05
   2.809799e+05   1.873029e+05
   9.876562e+03  -1.371431e+05
   1.332405e+05   2.218625e+05
   4.685082e+05   9.736234e+05
   3.293483e+05   1.160694e+06
  -5.932182e+05   4.437281e+05
  -1.560672e+06  -4.987471e+05
  -1.461391e+06  -8.881185e+05
  -2.069959e+05  -7.039894e+05
   1.004112e+06  -4.125948e+05
   1.073207e+06  -2.244571e+05
   2.863824e+05  -1.477694e+04
  -1.963743e+05   2.197523e+05
   8.783555e+04   2.872798e+05
   4.095340e+05   1.848379e+05
  -3.533473e+03   1.444563e+05
  -8.369822e+05   1.747293e+05
  -1.067895e+06  -6.845945e+04
  -2.378802e+05  -6.905525e+05
   1.019274e+06  -1.118799e+06
   1.678858e+06  -6.615617e+05
   1.283522e+06   5.397591e+05
   2.052425e+05   1.485446e+06
  -7.816097e+05   1.371287e+06
  -1.090677e+06   4.474736e+05
  -6.910358e+05  -3.299364e+05
  -7.410516e+04  -3.685415e+05
   1.858302e+05   1.903546e+04
  -4.675007e+04   1.096887e+05
  -3.703011e+05  -3.504034e+05
  -2.956475e+05  -8.459861e+05
   2.243758e+05  -6.711041e+05
   7.247955e+05   2.296575e+05
   6.638019e+05   1.084191e+06
  -4.373077e+04   1.049067e+06
  -8.559794e+05   1.129908e+05
  -1.009131e+06  -8.815656e+05
  -2.549649e+05  -1.125173e+06
   7.688063e+05  -5.922445e+05
   1.093365e+06   1.344412e+05
   4.712221e+05   5.562955e+05
  -2.966121e+05   5.831318e+05
  -2.968145e+05   3.524270e+05
   3.661963e+05   6.556582e+04
   7.028203e+05  -6.242889e+03
   1.074127e+05   2.981819e+05
  -8.714800e+05   7.015296e+05
  -1.225842e+06   6.236970e+05
  -6.792124e+05  -1.048386e+05
   1.264607e+05  -8.533112e+05
   4.898957e+05  -8.349508e+05
   3.275351e+05  -8.366028e+04
  -1.772397e+04   5.405065e+05
  -2.754556e+05   3.833885e+05
  -3.616646e+05  -2.609815e+05
  -2.335597e+05  -6.071275e+05
   8.623517e+04  -3.480193e+05
   3.969678e+05   9.945025e+04
   4.551905e+05   2.297907e+05
   2.517457e+05   4.276229e+04
   1.393950e+04  -7.443256e+04
  -9.302980e+04   1.163916e+05
  -1.397684e+05   4.226756e+05
  -2.565083e+05   4.461235e+05
  -3.880720e+05   3.113541e+04
  -3.243178e+05  -5.158507e+05
   3.328131e+04  -6.798976e+05
   4.789986e+05  -2.624574e+05
   6.096945e+05   3.693222e+05
   1.940163e+05   6.379804e+05
  -5.039437e+05   3.524558e+05
  -8.497059e+05  -1.427549e+05
  -4.562037e+05  -4.043176e+05
   3.101528e+05  -3.314418e+05
   6.350917e+05  -1.285669e+05
   1.801123e+05  -1.096585e+03
  -4.656398e+05  -2.603477e+04
  -4.568987e+05  -1.917120e+05
   2.761219e+05  -3.586838e+05
   9.248437e+05  -2.481814e+05
