
 $NMID
 id='ANONYMOUS ', fmtdat='(2E16.6)'
 volume=1.0
 tramp=1.0
 $END
  -3.847869e+07   1.162810e+06
  -2.461418e+07  -2.173942e+07
   3.003261e+06  -2.587401e+07
   1.810419e+07  -1.217628e+07
   1.221186e+07   2.884680e+06
  -1.284126e+06   6.650029e+06
  -7.103180e+06   4.516317e+05
  -3.134482e+06  -6.565911e+06
   3.498422e+06  -7.642228e+06
   6.778914e+06  -2.422232e+06
   5.281276e+06   4.316510e+06
   7.611421e+05   6.442635e+06
  -2.933313e+06   1.898236e+06
  -2.175000e+06  -4.453675e+06
   2.413481e+06  -5.442983e+06
   5.722017e+06   3.438019e+05
   3.697555e+06   7.074406e+06
  -2.151896e+06   8.560440e+06
  -6.918674e+06   4.379784e+06
  -7.452301e+06  -1.395211e+06
  -4.336781e+06  -5.038253e+06
  -4.156915e+05  -5.460606e+06
   1.374555e+06  -3.760691e+06
   1.880615e+05  -2.217788e+06
  -1.438558e+06  -2.531159e+06
   1.028076e+05  -3.787054e+06
   4.673922e+06  -3.235496e+06
   7.558475e+06  -1.724565e+04
   5.109664e+06   3.234737e+06
  -3.310859e+05   3.626411e+06
  -3.288173e+06   1.478687e+06
  -1.772846e+06  -6.781269e+05
   1.316197e+06  -1.227090e+06
   2.666982e+06  -1.705457e+05
   1.813212e+06   1.846087e+06
   2.057252e+04   3.417139e+06
  -1.525654e+06   2.608808e+06
  -1.868305e+06  -4.843579e+05
  -7.178618e+05  -2.494565e+06
   5.074114e+05  -7.191210e+05
  -1.117057e+05   2.417882e+06
  -1.976344e+06   2.019571e+06
  -2.015791e+06  -2.099583e+06
   1.070528e+06  -4.395919e+06
   4.268454e+06  -1.084510e+06
   3.611305e+06   4.413876e+06
  -8.681426e+05   5.839256e+06
  -5.108936e+06   1.872815e+06
  -5.447502e+06  -3.053740e+06
  -1.883971e+06  -4.571545e+06
   2.526992e+06  -2.435699e+06
   4.352372e+06   7.561783e+05
   2.328084e+06   2.501038e+06
  -1.489550e+06   1.823397e+06
  -3.346237e+06  -3.634332e+05
  -1.642125e+06  -1.808414e+06
   1.146475e+06  -1.060012e+06
   1.504860e+06   6.926539e+05
  -6.221406e+05   9.986475e+05
  -1.928441e+06  -6.200927e+05
  -2.663558e+05  -2.104605e+06
   2.680701e+06  -1.642353e+06
   3.764287e+06   3.976564e+05
   1.935718e+06   2.586306e+06
  -1.345755e+06   3.931111e+06
  -4.026998e+06   3.663154e+06
  -4.763740e+06   1.195231e+06
  -3.278098e+06  -2.498821e+06
  -6.584606e+05  -4.728569e+06
   1.143735e+06  -3.840241e+06
   1.144817e+06  -1.415506e+06
   4.241029e+05  -2.881777e+05
   6.368388e+05  -8.860772e+05
   1.797290e+06  -1.109498e+06
   2.399081e+06   3.159449e+05
   1.480586e+06   2.022849e+06
  -3.182954e+05   1.982607e+06
  -1.638007e+06   7.509184e+04
  -1.536084e+06  -1.987827e+06
   9.539918e+04  -2.535117e+06
   2.324483e+06  -1.187662e+06
   3.420142e+06   1.129127e+06
   2.299677e+06   2.869090e+06
  -5.730123e+04   2.997418e+06
  -1.534224e+06   1.908778e+06
  -1.468248e+06   9.408029e+05
  -1.342813e+06   7.481226e+05
  -2.413524e+06   5.955013e+05
  -3.648381e+06  -4.674336e+05
  -2.996872e+06  -2.229871e+06
  -1.876079e+05  -3.510802e+06
   2.742558e+06  -3.349474e+06
   3.630837e+06  -1.709132e+06
   2.212830e+06   5.337254e+05
   3.058968e+04   1.957720e+06
  -1.084645e+06   1.553311e+06
  -4.553858e+05  -9.794257e+04
   9.791714e+05  -1.090060e+06
   1.573693e+06  -3.369310e+05
   7.015132e+05   9.789857e+05
  -5.030635e+05   9.625046e+05
  -5.027030e+05  -3.146287e+05
   7.173017e+05  -8.267690e+05
   1.632376e+06   6.140243e+05
   1.019254e+06   2.684657e+06
  -7.906683e+05   3.178277e+06
  -2.515761e+06   1.525699e+06
  -3.123313e+06  -9.018294e+05
  -2.303666e+06  -2.432749e+06
  -5.031741e+05  -2.408186e+06
   1.118022e+06  -1.289150e+06
   1.397646e+06  -1.610972e+05
   4.264063e+05   3.602523e+04
  -3.226157e+05  -6.401363e+05
   2.882677e+05  -1.111314e+06
   1.538123e+06  -5.204833e+05
   1.723095e+06   6.488487e+05
   4.013644e+05   1.150532e+06
  -9.809177e+05   5.378236e+05
  -8.488325e+05  -3.771546e+05
   6.806148e+05  -5.871864e+05
   2.003112e+06   1.057089e+05
   1.713807e+06   1.163365e+06
  -1.051278e+05   1.842214e+06
  -2.004984e+06   1.555544e+06
  -2.418754e+06   2.958748e+05
  -1.059115e+06  -1.034661e+06
   7.379596e+05  -1.236696e+06
   1.257869e+06  -1.691151e+05
   1.430948e+05   8.806768e+05
  -1.282400e+06   6.373041e+05
  -1.504482e+06  -6.155074e+05
  -3.885613e+05  -1.421452e+06
   8.745568e+05  -9.414098e+05
   1.122524e+06   1.608735e+05
   2.961973e+05   6.469320e+05
  -6.414820e+05   7.615846e+04
  -6.283309e+05  -8.860990e+05
   5.015992e+05  -1.219536e+06
   1.733802e+06  -4.602495e+05
   1.753330e+06   8.998190e+05
   3.532196e+05   1.776106e+06
  -1.197816e+06   1.436738e+06
  -1.481098e+06   2.319844e+05
  -4.782261e+05  -7.320970e+05
   5.448705e+05  -7.254982e+05
   5.923618e+05  -6.586843e+04
  -6.617751e+04   3.962370e+05
  -4.933849e+05   2.641812e+05
  -2.353992e+05  -8.705984e+04
   3.300833e+05  -5.614128e+04
   5.014520e+05   4.874183e+05
  -9.928126e+04   1.018379e+06
  -1.163434e+06   8.098082e+05
  -1.806353e+06  -3.232258e+05
  -1.284510e+06  -1.661430e+06
   1.659741e+05  -2.118145e+06
   1.401884e+06  -1.300886e+06
   1.531761e+06   5.040604e+04
   8.402656e+05   8.329690e+05
   2.995104e+05   7.032162e+05
   3.367848e+05   2.652284e+05
   4.623608e+05   2.260112e+05
   7.839589e+04   6.034069e+05
  -7.236724e+05   8.080675e+05
  -1.273303e+06   3.420809e+05
  -9.806411e+05  -6.367637e+05
   1.657131e+05  -1.345070e+06
   1.495167e+06  -1.000612e+06
   1.987082e+06   3.835550e+05
   1.050296e+06   1.799750e+06
  -7.841541e+05   2.064078e+06
  -2.149277e+06   9.741434e+05
  -2.087436e+06  -4.778370e+05
  -9.454455e+05  -1.157146e+06
   1.211841e+05  -9.139515e+05
   4.001281e+05  -5.216642e+05
   1.709119e+05  -6.356458e+05
   1.260554e+05  -1.062268e+06
   5.458985e+05  -1.074818e+06
   1.083075e+06  -2.752359e+05
   1.154581e+06   9.307173e+05
   4.922317e+05   1.643482e+06
  -5.363513e+05   1.253456e+06
  -1.124996e+06   2.443212e+04
  -7.403500e+05  -1.075132e+06
   2.714037e+05  -1.214945e+06
   9.486928e+05  -4.322587e+05
   7.114846e+05   4.990989e+05
  -2.429522e+04   8.858687e+05
  -3.736616e+05   7.031551e+05
  -3.794215e+04   3.996006e+05
   3.617969e+05   3.049772e+05
   4.442127e+04   3.391138e+05
  -9.664566e+05   2.069702e+05
  -1.754148e+06  -2.473146e+05
  -1.415979e+06  -8.548427e+05
  -3.676327e+04  -1.210798e+06
   1.305609e+06  -9.934025e+05
   1.568825e+06  -2.991736e+05
   7.541413e+05   3.528920e+05
  -1.906880e+05   4.663600e+05
  -4.276810e+05   6.422496e+04
  -1.269613e+04  -3.220402e+05
   4.037624e+05  -2.140894e+05
   4.130432e+05   2.935214e+05
   1.746381e+05   6.359090e+05
   3.999617e+04   4.147227e+05
   1.273250e+05  -1.177850e+05
   2.824533e+05  -2.963067e+05
   2.512546e+05   1.943245e+05
  -1.401626e+05   8.730741e+05
  -7.677941e+05   9.251908e+05
  -1.119847e+06   1.371205e+05
  -6.902619e+05  -7.832542e+05
   3.460078e+05  -9.473912e+05
   1.052099e+06  -2.601076e+05
   6.338946e+05   5.067292e+05
  -5.929750e+05   5.815131e+05
  -1.407226e+06  -4.353723e+04
  -9.496058e+05  -7.353501e+05
   3.684269e+05  -9.105138e+05
   1.320404e+06  -4.978497e+05
   1.123123e+06   1.233806e+05
   1.455662e+05   4.606600e+05
  -5.599498e+05   2.642475e+05
  -3.236899e+05  -2.360338e+05
   5.245310e+05  -4.354510e+05
   1.023664e+06   9.383833e+04
   5.521000e+05   1.036914e+06
  -5.462588e+05   1.467421e+06
  -1.307046e+06   7.522879e+05
  -1.099005e+06  -6.679146e+05
  -1.843762e+05  -1.574122e+06
   6.404514e+05  -1.161771e+06
   8.223416e+05   1.199837e+05
   4.166643e+05   1.038826e+06
  -1.499658e+05   8.748988e+05
  -4.820185e+05   9.508827e+04
  -4.368327e+05  -3.357751e+05
  -1.723586e+05  -1.316843e+05
  -3.171630e+04   9.427974e+04
  -2.082089e+05  -2.312784e+05
  -4.397487e+05  -8.312162e+05
  -2.101564e+05  -9.533478e+05
   5.834366e+05  -3.629010e+05
   1.301072e+06   3.966041e+05
   1.160271e+06   7.259096e+05
   1.725594e+05   6.037113e+05
  -7.708313e+05   3.676754e+05
  -8.718465e+05   1.770628e+05
  -2.952672e+05  -2.424727e+04
   1.358190e+05  -1.946069e+05
  -6.449497e+01  -1.997584e+05
  -2.636910e+05  -1.027670e+05
  -3.215628e+04  -1.163898e+05
   6.106997e+05  -1.944906e+05
   9.100799e+05   1.141740e+04
   3.367194e+05   5.905138e+05
  -7.552527e+05   1.012826e+06
  -1.455851e+06   6.532973e+05
  -1.195416e+06  -3.795076e+05
  -2.377853e+05  -1.231232e+06
   6.507087e+05  -1.198994e+06
   9.100489e+05  -4.573953e+05
   5.768539e+05   2.158479e+05
   1.065808e+05   3.099412e+05
  -8.483949e+04   3.713957e+04
   6.384029e+04  -3.705805e+04
   2.806930e+05   3.120650e+05
   2.342510e+05   7.062438e+05
  -1.565489e+05   5.880557e+05
  -5.993862e+05  -1.205540e+05
  -6.339313e+05  -8.422687e+05
  -7.902009e+04  -8.931956e+05
   6.689171e+05  -1.940302e+05
   8.979881e+05   6.444631e+05
   2.959210e+05   9.453662e+05
  -6.191764e+05   5.775201e+05
  -9.638075e+05  -6.197800e+04
  -4.569433e+05  -5.105751e+05
   2.399521e+05  -5.711378e+05
   3.060503e+05  -3.220705e+05
  -2.384886e+05  -1.866897e+04
  -5.729285e+05   3.479914e+04
  -1.231227e+05  -2.622344e+05
   7.165462e+05  -6.031150e+05
   1.078924e+06  -5.027177e+05
   6.470946e+05   1.271240e+05
  -7.788301e+04   7.509214e+05
  -4.539620e+05   7.461890e+05
  -3.451158e+05   1.317318e+05
  -3.728046e+04  -4.258643e+05
   2.078535e+05  -3.693735e+05
   3.070519e+05   1.460653e+05
   2.234976e+05   5.026631e+05
  -4.508044e+04   3.544743e+05
  -3.397760e+05  -4.443201e+04
  -4.130783e+05  -2.261050e+05
  -2.144506e+05  -6.965090e+04
   2.359331e+04   1.135091e+05
   7.746360e+04   4.505532e+03
   1.641428e+04  -3.172585e+05
   7.481633e+04  -4.529385e+05
   2.836332e+05  -1.553208e+05
   3.734690e+05   3.468801e+05
   1.068912e+05   5.620992e+05
  -3.624542e+05   2.669565e+05
  -5.676562e+05  -2.493810e+05
  -2.153971e+05  -5.051408e+05
   4.339301e+05  -3.217833e+05
   7.588245e+05   6.522935e+04
   4.159801e+05   3.253799e+05
  -2.508247e+05   3.377550e+05
  -5.482827e+05   1.879028e+05
  -2.030981e+05   1.759625e+04
   3.203827e+05  -4.383424e+04
   3.614168e+05   7.484878e+04
  -1.635962e+05   2.658403e+05
  -6.750484e+05   2.382768e+05
