
 $NMID
 id='ANONYMOUS ', fmtdat='(2E16.6)'
 volume=1.0
 tramp=1.0
 $END
   2.171979e+07  -1.444453e+06
   1.589969e+07   8.898406e+06
   1.513611e+06   1.400738e+07
  -9.052469e+06   1.055268e+07
  -8.616140e+06   1.863094e+06
  -1.030744e+06  -4.192892e+06
   4.739252e+06  -2.628042e+06
   4.030155e+06   3.532371e+06
  -6.953883e+05   6.716736e+06
  -4.241657e+06   3.275086e+06
  -3.841253e+06  -2.787350e+06
  -6.169464e+05  -4.818014e+06
   2.153364e+06  -1.005263e+06
   1.858665e+06   4.103075e+06
  -1.203460e+06   4.962847e+06
  -3.891056e+06   7.640387e+05
  -3.169718e+06  -4.321605e+06
   6.467986e+05  -5.758786e+06
   4.102785e+06  -2.903685e+06
   4.294584e+06   1.082915e+06
   1.844296e+06   2.885199e+06
  -1.490604e+05   2.178786e+06
   3.113056e+05   1.244491e+06
   2.062401e+06   1.949748e+06
   2.190614e+06   3.636184e+06
  -7.343938e+05   4.088612e+06
  -4.801034e+06   2.168107e+06
  -6.268893e+06  -9.257583e+05
  -3.377626e+06  -2.884186e+06
   1.379052e+06  -2.404644e+06
   3.481436e+06  -1.554649e+05
   1.181243e+06   1.879158e+06
  -2.621122e+06   1.900873e+06
  -3.812406e+06  -2.870646e+05
  -1.648784e+06  -2.886093e+06
   1.019039e+06  -3.465076e+06
   1.579275e+06  -1.377716e+06
   3.573466e+05   1.226217e+06
  -6.344500e+05   1.489740e+06
  -3.119711e+05  -8.457927e+05
   8.330160e+05  -2.905798e+06
   1.782731e+06  -1.992939e+06
   1.747842e+06   1.077077e+06
   4.263989e+05   2.819671e+06
  -1.449505e+06   1.199667e+06
  -2.063526e+06  -1.991556e+06
  -1.563787e+05  -3.264554e+06
   3.028402e+06  -1.296183e+06
   4.384790e+06   1.940354e+06
   2.180575e+06   3.544187e+06
  -1.799426e+06   2.472998e+06
  -3.959659e+06   3.122044e+04
  -2.593256e+06  -1.698487e+06
   5.613435e+05  -1.608614e+06
   2.369518e+06  -2.182405e+05
   1.479185e+06   9.597152e+05
  -6.272490e+05   7.968649e+05
  -1.463875e+06  -4.117646e+05
  -2.077398e+05  -1.271567e+06
   1.500625e+06  -7.651309e+05
   1.443125e+06   6.460166e+05
  -5.809238e+05   1.478343e+06
  -2.364856e+06   7.063660e+05
  -1.696760e+06  -1.252624e+06
   1.134685e+06  -2.858886e+06
   3.642801e+06  -2.669353e+06
   3.830182e+06  -5.152346e+05
   2.070831e+06   2.238079e+06
   2.346858e+05   3.740131e+06
  -5.008499e+05   3.294980e+06
  -5.356623e+05   1.935069e+06
  -8.533651e+05   1.113441e+06
  -1.726966e+06   9.642722e+05
  -2.505776e+06   3.607314e+05
  -2.341113e+06  -1.234926e+06
  -9.796631e+05  -2.631563e+06
   9.191636e+05  -2.171565e+06
   2.100833e+06   1.271328e+05
   1.604088e+06   2.314408e+06
  -3.278102e+05   2.499890e+06
  -2.235231e+06   7.077806e+05
  -2.633830e+06  -1.401532e+06
  -1.386785e+06  -2.314008e+06
   2.189696e+05  -1.900735e+06
   8.932478e+05  -1.107774e+06
   7.312552e+05  -7.957325e+05
   9.448179e+05  -9.453759e+05
   2.175660e+06  -8.091229e+05
   3.393257e+06   2.545517e+05
   2.857181e+06   2.013539e+06
   2.104491e+05   3.362527e+06
  -2.741452e+06   3.184048e+06
  -3.660993e+06   1.380267e+06
  -2.031347e+06  -8.692185e+05
   3.649984e+05  -1.977982e+06
   1.332967e+06  -1.306491e+06
   3.928223e+05   2.216183e+05
  -1.057135e+06   9.738644e+05
  -1.427231e+06   2.686297e+05
  -4.978684e+05  -8.798555e+05
   6.107215e+05  -9.287030e+05
   7.001673e+05   2.784747e+05
  -3.737716e+05   1.149501e+06
  -1.600816e+06   1.819550e+05
  -1.676704e+06  -2.088052e+06
  -1.292583e+05  -3.445695e+06
   2.143475e+06  -2.360824e+06
   3.462470e+06   3.679262e+05
   2.767551e+06   2.501277e+06
   6.293203e+05   2.622735e+06
  -1.203063e+06   1.278036e+06
  -1.431001e+06   6.391871e+04
  -4.162144e+05  -3.923057e+04
   3.194161e+05   6.161631e+05
  -1.963668e+05   9.911406e+05
  -1.324993e+06   4.948099e+05
  -1.596335e+06  -4.773943e+05
  -4.727518e+05  -9.998373e+05
   9.131311e+05  -5.711165e+05
   9.553153e+05   3.571540e+05
  -5.794720e+05   7.916903e+05
  -2.148546e+06   1.519682e+05
  -2.003173e+06  -1.148358e+06
  -5.262237e+04  -2.030268e+06
   2.004289e+06  -1.689076e+06
   2.400478e+06  -3.341802e+05
   1.014506e+06   9.311664e+05
  -6.569104e+05   1.074596e+06
  -1.071078e+06   1.346648e+05
  -5.783730e+04  -7.704868e+05
   1.216162e+06  -5.859185e+05
   1.479229e+06   5.300620e+05
   5.136785e+05   1.374202e+06
  -7.446893e+05   1.061128e+06
  -1.143201e+06   1.097633e+04
  -4.173526e+05  -5.792619e+05
   5.422887e+05  -1.034759e+05
   5.719526e+05   8.387057e+05
  -5.297776e+05   1.155678e+06
  -1.699948e+06   3.867832e+05
  -1.672612e+06  -9.089122e+05
  -3.351197e+05  -1.705695e+06
   1.116617e+06  -1.394124e+06
   1.422164e+06  -2.785394e+05
   5.235880e+05   6.856446e+05
  -5.022365e+05   7.446931e+05
  -6.575654e+05   5.071463e+04
   4.744769e+03  -5.338993e+05
   6.059475e+05  -4.003568e+05
   4.625440e+05   1.371753e+05
  -2.120784e+05   2.639284e+05
  -5.685445e+05  -3.151853e+05
  -2.126986e+04  -9.714578e+05
   1.094830e+06  -8.235098e+05
   1.762337e+06   2.972643e+05
   1.240581e+06   1.616684e+06
  -1.751667e+05   2.103452e+06
  -1.402625e+06   1.376592e+06
  -1.615184e+06   2.435157e+04
  -9.813956e+05  -9.287004e+05
  -3.312382e+05  -9.417004e+05
  -1.919509e+05  -4.086810e+05
  -2.993289e+05  -1.575669e+05
  -5.795167e+04  -4.879139e+05
   6.617645e+05  -8.219983e+05
   1.285396e+06  -4.165719e+05
   1.076487e+06   6.618154e+05
  -9.610300e+04   1.455922e+06
  -1.490090e+06   1.073388e+06
  -2.005366e+06  -3.582350e+05
  -1.104583e+06  -1.747589e+06
   6.546637e+05  -2.019777e+06
   2.024966e+06  -1.041013e+06
   2.115250e+06   3.467997e+05
   1.108418e+06   1.141989e+06
  -3.028586e+04   1.058569e+06
  -5.126982e+05   6.498387e+05
  -3.718293e+05   5.950258e+05
  -2.224031e+05   9.119407e+05
  -5.018609e+05   9.594174e+05
  -9.986244e+05   2.363694e+05
  -1.096744e+06  -9.323566e+05
  -4.557718e+05  -1.624458e+06
   5.534477e+05  -1.226944e+06
   1.119877e+06  -4.289496e+04
   7.603410e+05   1.001739e+06
  -1.746830e+05   1.186659e+06
  -8.265882e+05   5.415427e+05
  -6.915186e+05  -3.145782e+05
  -1.001944e+05  -7.762320e+05
   2.156822e+05  -7.181901e+05
  -2.091125e+04  -4.587740e+05
  -3.223985e+05  -3.349731e+05
  -2.161009e+04  -3.468222e+05
   8.967900e+05  -2.211929e+05
   1.646422e+06   2.165626e+05
   1.387017e+06   7.936830e+05
   1.288211e+05   1.120873e+06
  -1.172668e+06   9.406497e+05
  -1.504876e+06   3.573711e+05
  -7.811322e+05  -2.237021e+05
   1.355316e+05  -3.990280e+05
   3.884718e+05  -1.152885e+05
  -2.536976e+04   2.367253e+05
  -4.389097e+05   1.814463e+05
  -3.873523e+05  -2.938372e+05
  -6.810309e+04  -6.490193e+05
   5.526300e+04  -4.097205e+05
  -1.405515e+05   1.807449e+05
  -3.587979e+05   3.677318e+05
  -2.650123e+05  -1.832371e+05
   1.945571e+05  -8.880463e+05
   7.575159e+05  -8.849487e+05
   9.859228e+05  -6.617675e+04
   5.576505e+05   7.746495e+05
  -3.450386e+05   8.376229e+05
  -9.668586e+05   1.551155e+05
  -6.013726e+05  -5.355200e+05
   5.646720e+05  -5.882200e+05
   1.431952e+06   2.183611e+03
   1.061042e+06   7.135492e+05
  -2.793361e+05   9.810183e+05
  -1.340408e+06   6.167493e+05
  -1.199943e+06  -6.339664e+04
  -1.892964e+05  -4.820072e+05
   5.459150e+05  -3.036349e+05
   2.872340e+05   2.035891e+05
  -5.657564e+05   3.734191e+05
  -9.952038e+05  -1.782519e+05
  -4.396202e+05  -1.063682e+06
   6.634171e+05  -1.397330e+06
   1.349506e+06  -6.537900e+05
   1.069851e+06   7.154212e+05
   1.431036e+05   1.585439e+06
  -6.579244e+05   1.195731e+06
  -8.371345e+05  -7.062999e+04
  -4.646670e+05  -1.033614e+06
   8.201630e+04  -9.195602e+05
   4.581217e+05  -1.245239e+05
   4.890417e+05   3.578908e+05
   2.348760e+05   1.590599e+05
   8.507392e+03  -1.156383e+05
   1.105647e+05   1.811883e+05
   3.899931e+05   8.110347e+05
   2.749367e+05   9.714598e+05
  -4.938861e+05   3.729858e+05
  -1.301733e+06  -4.178188e+05
  -1.219931e+06  -7.445477e+05
  -1.728289e+05  -5.874361e+05
   8.390312e+05  -3.410495e+05
   8.967784e+05  -1.860570e+05
   2.390863e+05  -1.471502e+04
  -1.642718e+05   1.821472e+05
   7.333153e+04   2.430473e+05
   3.416460e+05   1.581616e+05
  -3.907581e+03   1.195303e+05
  -6.989754e+05   1.414249e+05
  -8.894527e+05  -5.820752e+04
  -1.957066e+05  -5.717922e+05
   8.509427e+05  -9.284366e+05
   1.397383e+06  -5.507496e+05
   1.066130e+06   4.488391e+05
   1.686597e+05   1.238055e+06
  -6.516129e+05   1.142905e+06
  -9.079800e+05   3.710277e+05
  -5.746493e+05  -2.770946e+05
  -6.075728e+04  -3.061778e+05
   1.548242e+05   1.938326e+04
  -4.035633e+04   9.344902e+04
  -3.100668e+05  -2.932548e+05
  -2.464518e+05  -7.067476e+05
   1.874756e+05  -5.584390e+05
   6.026309e+05   1.938370e+05
   5.496522e+05   9.041167e+05
  -3.902102e+04   8.715078e+05
  -7.122545e+05   9.020304e+04
  -8.376055e+05  -7.365915e+05
  -2.105477e+05  -9.365247e+05
   6.398858e+05  -4.913827e+05
   9.098558e+05   1.123340e+05
   3.931415e+05   4.616506e+05
  -2.454023e+05   4.845580e+05
  -2.458944e+05   2.952808e+05
   3.058248e+05   5.788952e+04
   5.859684e+05  -3.682097e+03
   8.920207e+04   2.476050e+05
  -7.275493e+05   5.842544e+05
  -1.023062e+06   5.219330e+05
  -5.665020e+05  -8.455694e+04
   1.054501e+05  -7.104735e+05
   4.069586e+05  -6.970446e+05
   2.699703e+05  -7.066607e+04
  -1.704901e+04   4.499747e+05
  -2.290334e+05   3.180980e+05
  -2.992682e+05  -2.193888e+05
  -1.938191e+05  -5.060828e+05
   7.069314e+04  -2.882459e+05
   3.298530e+05   8.379909e+04
   3.802192e+05   1.903361e+05
   2.111142e+05   3.502693e+04
   1.074322e+04  -5.992301e+04
  -8.103152e+04   9.916682e+04
  -1.201615e+05   3.501858e+05
  -2.146528e+05   3.660299e+05
  -3.205719e+05   2.176497e+04
  -2.655316e+05  -4.291800e+05
   3.117948e+04  -5.632257e+05
   3.992090e+05  -2.165522e+05
   5.055428e+05   3.079885e+05
   1.595256e+05   5.314797e+05
  -4.197123e+05   2.937153e+05
  -7.063811e+05  -1.192343e+05
  -3.793994e+05  -3.368990e+05
   2.572913e+05  -2.749244e+05
   5.272047e+05  -1.058169e+05
   1.487141e+05  -2.164369e+03
  -3.879204e+05  -2.561142e+04
  -3.788826e+05  -1.627261e+05
   2.331823e+05  -2.977186e+05
   7.731061e+05  -2.027414e+05
