
 $NMID
 id='ANONYMOUS ', fmtdat='(2E16.6)'
 volume=1.0
 tramp=1.0
 $END
   1.701028e+07   4.855669e+05
   1.134599e+07   8.342241e+06
  -2.180742e+05   1.091833e+07
  -7.720659e+06   7.092892e+06
  -6.437490e+06   5.390513e+05
  -3.280406e+05  -3.182869e+06
   3.650007e+06  -1.477287e+06
   2.615075e+06   2.922352e+06
  -1.021023e+06   4.826175e+06
  -3.373547e+06   2.055270e+06
  -2.720558e+06  -2.348292e+06
  -1.946403e+05  -3.648414e+06
   1.692952e+06  -6.715622e+05
   1.182233e+06   3.102774e+06
  -1.191842e+06   3.552382e+06
  -2.953726e+06   2.493962e+05
  -2.063178e+06  -3.490383e+06
   9.180523e+05  -4.306295e+06
   3.355397e+06  -1.942760e+06
   3.285122e+06   1.102577e+06
   1.314664e+06   2.411898e+06
  -2.758662e+05   1.822172e+06
  -2.642763e+04   1.033427e+06
   1.256652e+06   1.452132e+06
   1.424262e+06   2.644274e+06
  -6.604925e+05   2.947363e+06
  -3.619482e+06   1.445894e+06
  -4.644193e+06  -9.282062e+05
  -2.438183e+06  -2.329818e+06
   1.080307e+06  -1.807458e+06
   2.573240e+06  -5.573446e+04
   8.581065e+05   1.359207e+06
  -1.880766e+06   1.268367e+06
  -2.702036e+06  -3.050997e+05
  -1.122540e+06  -2.107858e+06
   8.192868e+05  -2.510701e+06
   1.247067e+06  -1.020553e+06
   3.339836e+05   9.083752e+05
  -4.695659e+05   1.170633e+06
  -2.568580e+05  -5.302412e+05
   6.679397e+05  -2.071555e+06
   1.399400e+06  -1.369487e+06
   1.209104e+06   9.384842e+05
   3.181611e+04   2.127708e+06
  -1.295536e+06   7.062824e+05
  -1.437969e+06  -1.758200e+06
   1.866910e+05  -2.524763e+06
   2.423675e+06  -7.799843e+05
   3.143254e+06   1.716894e+06
   1.378520e+06   2.736239e+06
  -1.466152e+06   1.694888e+06
  -2.884599e+06  -2.167460e+05
  -1.769318e+06  -1.394214e+06
   5.484384e+05  -1.128376e+06
   1.780498e+06   1.732624e+04
   1.016926e+06   8.252072e+05
  -5.354747e+05   5.520106e+05
  -1.040773e+06  -3.837755e+05
  -4.885471e+04  -8.872570e+05
   1.107288e+06  -3.830555e+05
   8.924481e+05   5.915625e+05
  -6.359685e+05   9.905457e+05
  -1.810592e+06   2.890911e+05
  -1.152294e+06  -1.084871e+06
   1.001408e+06  -2.099278e+06
   2.829322e+06  -1.841090e+06
   2.898995e+06  -2.234391e+05
   1.484304e+06   1.778906e+06
   3.631751e+03   2.815552e+06
  -5.696848e+05   2.392989e+06
  -4.971142e+05   1.330640e+06
  -6.124707e+05   7.336127e+05
  -1.223844e+06   6.596712e+05
  -1.819106e+06   2.282156e+05
  -1.686712e+06  -9.417520e+05
  -6.530340e+05  -1.935167e+06
   7.171795e+05  -1.548538e+06
   1.499577e+06   1.552742e+05
   1.073263e+06   1.731023e+06
  -3.333034e+05   1.816274e+06
  -1.680972e+06   4.473413e+05
  -1.919815e+06  -1.143651e+06
  -9.526798e+05  -1.814263e+06
   2.681499e+05  -1.454883e+06
   7.693872e+05  -8.010537e+05
   6.222896e+05  -5.331348e+05
   7.498958e+05  -6.208010e+05
   1.629247e+06  -4.719292e+05
   2.471089e+06   3.565059e+05
   1.995806e+06   1.610649e+06
   1.411219e+01   2.467807e+06
  -2.141604e+06   2.211099e+06
  -2.735850e+06   8.692170e+05
  -1.465006e+06  -7.050393e+05
   3.247445e+05  -1.436644e+06
   1.018948e+06  -9.182946e+05
   2.842224e+05   1.723522e+05
  -8.112536e+05   6.732775e+05
  -1.063001e+06   1.325973e+05
  -3.342261e+05  -6.759369e+05
   4.789770e+05  -6.548892e+05
   4.825023e+05   2.295516e+05
  -3.352684e+05   7.868764e+05
  -1.149097e+06   6.802273e+03
  -1.065169e+06  -1.612422e+06
   1.095485e+05  -2.465737e+06
   1.661140e+06  -1.556680e+06
   2.464886e+06   4.433397e+05
   1.877725e+06   1.921765e+06
   3.428491e+05   1.918908e+06
  -9.264626e+05   8.823027e+05
  -1.045907e+06  -7.879697e+03
  -3.021732e+05  -4.667333e+04
   2.049301e+05   4.645402e+05
  -1.969386e+05   7.181979e+05
  -1.001986e+06   2.966801e+05
  -1.144107e+06  -4.335458e+05
  -2.900661e+05  -7.563280e+05
   6.936804e+05  -3.707910e+05
   6.718623e+05   3.001880e+05
  -4.572792e+05   5.341029e+05
  -1.553435e+06   4.045428e+03
  -1.388829e+06  -9.153510e+05
   5.477642e+04  -1.463050e+06
   1.529149e+06  -1.133697e+06
   1.762784e+06  -1.355151e+05
   6.976119e+05   7.307792e+05
  -5.363185e+05   7.619766e+05
  -7.995329e+05   4.722448e+04
  -1.022295e+04  -5.739118e+05
   9.176517e+05  -3.746167e+05
   1.052834e+06   4.574018e+05
   3.038034e+05   1.022028e+06
  -5.934247e+05   7.273629e+05
  -8.254577e+05  -5.318589e+04
  -2.675374e+05  -4.404682e+05
   4.057491e+05  -4.589706e+04
   3.821578e+05   6.416629e+05
  -4.370254e+05   8.243323e+05
  -1.260350e+06   2.113810e+05
  -1.184606e+06  -7.372941e+05
  -1.684805e+05  -1.262436e+06
   8.810148e+05  -9.667695e+05
   1.050079e+06  -1.357050e+05
   3.463787e+05   5.235348e+05
  -4.006457e+05   5.172627e+05
  -4.768788e+05   1.114017e+04
   2.685553e+04  -3.772553e+05
   4.469656e+05  -2.594484e+05
   3.171263e+05   1.093833e+05
  -1.673971e+05   1.650739e+05
  -3.904003e+05  -2.639777e+05
   3.657092e+04  -7.080471e+05
   8.378188e+05  -5.491354e+05
   1.273139e+06   2.966498e+05
   8.348139e+05   1.236364e+06
  -2.190409e+05   1.525832e+06
  -1.078900e+06   9.363433e+05
  -1.169180e+06  -5.482672e+04
  -6.679591e+05  -7.075358e+05
  -2.063008e+05  -6.825942e+05
  -1.370613e+05  -3.009667e+05
  -2.203856e+05  -1.381075e+05
  -1.878256e+04  -3.668293e+05
   5.215804e+05  -5.673154e+05
   9.514731e+05  -2.431078e+05
   7.500614e+05   5.239989e+05
  -1.343079e+05   1.046700e+06
  -1.130315e+06   7.120945e+05
  -1.443288e+06  -3.494514e+05
  -7.228983e+05  -1.323053e+06
   5.755355e+05  -1.441450e+06
   1.526787e+06  -6.611288e+05
   1.519197e+06   3.529601e+05
   7.457017e+05   8.756165e+05
  -6.963181e+04   7.566127e+05
  -3.896189e+05   4.459460e+05
  -2.841742e+05   4.268341e+05
  -2.000753e+05   6.682163e+05
  -4.142732e+05   6.834580e+05
  -7.448675e+05   1.284883e+05
  -7.623009e+05  -7.287804e+05
  -2.630339e+05  -1.205678e+06
   4.563516e+05  -8.719452e+05
   8.173060e+05   1.913610e+04
   5.062602e+05   7.673208e+05
  -1.866851e+05   8.554569e+05
  -6.305585e+05   3.466515e+05
  -4.852130e+05  -2.728805e+05
  -2.674934e+04  -5.732871e+05
   1.990190e+05  -5.073618e+05
   6.891304e+03  -3.288863e+05
  -2.241622e+05  -2.572012e+05
  -2.635502e+03  -2.538580e+05
   6.673395e+05  -1.188609e+05
   1.196559e+06   2.351810e+05
   9.757767e+05   6.438827e+05
   3.538578e+04   8.253569e+05
  -9.063660e+05   6.333005e+05
  -1.114202e+06   1.884465e+05
  -5.529183e+05  -2.051845e+05
   1.222286e+05  -2.876655e+05
   2.890535e+05  -6.219806e+04
  -2.880210e+04   1.786220e+05
  -3.260652e+05   1.166550e+05
  -2.712100e+05  -2.316041e+05
  -2.942841e+04  -4.783158e+05
   5.151194e+04  -2.995516e+05
  -1.071935e+05   1.216497e+05
  -2.697300e+05   2.498435e+05
  -1.839803e+05  -1.454446e+05
   1.759471e+05  -6.394254e+05
   5.925709e+05  -6.143092e+05
   7.331176e+05  -5.792558e+03
   3.816392e+05   5.936927e+05
  -2.915781e+05   6.029137e+05
  -7.206034e+05   7.552390e+04
  -4.180386e+05  -4.152613e+05
   4.386255e+05  -4.024921e+05
   1.039799e+06   6.590976e+04
   7.332887e+05   5.636880e+05
  -2.500112e+05   6.945079e+05
  -9.978049e+05   3.832400e+05
  -8.638882e+05  -1.000695e+05
  -1.145236e+05  -3.563658e+05
   4.105563e+05  -1.940830e+05
   2.018002e+05   1.643975e+05
  -4.276107e+05   2.531355e+05
  -7.220298e+05  -1.682147e+05
  -2.827586e+05  -7.958364e+05
   5.380966e+05  -9.978188e+05
   1.011679e+06  -4.259043e+05
   7.517926e+05   5.652223e+05
   3.859246e+04   1.161611e+06
  -5.288696e+05   8.405370e+05
  -6.040235e+05  -9.088209e+04
  -2.899007e+05  -7.719248e+05
   1.031676e+05  -6.608373e+05
   3.399121e+05  -6.784594e+04
   3.376871e+05   2.787217e+05
   1.606044e+05   1.220940e+05
   1.214561e+04  -8.153315e+04
   7.789390e+04   1.436494e+05
   2.515833e+05   6.108356e+05
   1.539374e+05   7.160844e+05
  -3.820050e+05   2.464387e+05
  -9.306341e+05  -3.594588e+05
  -8.525841e+05  -5.920892e+05
  -9.979521e+04  -4.365802e+05
   6.220202e+05  -2.161131e+05
   6.592511e+05  -9.670119e+04
   1.774980e+05   4.324275e+03
  -1.259523e+05   1.273257e+05
   3.912789e+04   1.746789e+05
   2.383292e+05   1.235799e+05
  -5.390337e+03   8.795803e+04
  -5.108424e+05   7.933534e+04
  -6.484077e+05  -7.851809e+04
  -1.270561e+05  -4.310860e+05
   6.562676e+05  -6.484210e+05
   1.049414e+06  -3.456729e+05
   7.685646e+05   3.727181e+05
   7.413449e+04   9.109838e+05
  -5.262155e+05   8.082061e+05
  -6.806333e+05   2.368307e+05
  -4.087692e+05  -2.226201e+05
  -3.404241e+04  -2.275289e+05
   1.088776e+05   1.448854e+04
  -3.325354e+04   6.152524e+04
  -2.103777e+05  -2.274914e+05
  -1.478538e+05  -5.251207e+05
   1.597229e+05  -4.017265e+05
   4.327464e+05   1.621692e+05
   3.690269e+05   6.809358e+05
  -5.871560e+04   6.385761e+05
  -5.231069e+05   4.351751e+04
  -5.854153e+05  -5.684472e+05
  -1.183901e+05  -6.948127e+05
   4.888916e+05  -3.369139e+05
   6.634077e+05   1.196522e+05
   2.691882e+05   3.590436e+05
  -2.023951e+05   3.486545e+05
  -1.972001e+05   2.042549e+05
   2.167479e+05   5.038559e+04
   4.271193e+05   2.014924e+04
   5.614358e+04   1.864169e+05
  -5.552238e+05   3.956091e+05
  -7.712478e+05   3.323980e+05
  -4.132649e+05  -9.196883e+04
   1.071239e+05  -5.167041e+05
   3.317528e+05  -4.919427e+05
   2.071222e+05  -4.157405e+04
  -2.731235e+04   3.271189e+05
  -1.808755e+05   2.261134e+05
  -2.114548e+05  -1.678536e+05
  -1.213860e+05  -3.778197e+05
   6.442846e+04  -2.124585e+05
   2.386335e+05   7.292945e+04
   2.697989e+05   1.588365e+05
   1.513296e+05   3.726871e+04
   9.790282e+03  -4.815410e+04
  -5.961451e+04   6.144180e+04
  -9.428266e+04   2.509683e+05
  -1.652304e+05   2.681336e+05
  -2.362772e+05   1.264891e+04
  -1.851707e+05  -3.219123e+05
   3.734588e+04  -4.134350e+05
   2.992789e+05  -1.451919e+05
   3.612337e+05   2.442449e+05
   9.793617e+04   3.940831e+05
  -3.204647e+05   1.972103e+05
  -5.148917e+05  -1.155098e+05
  -2.646774e+05  -2.623191e+05
   2.010212e+05  -1.937337e+05
   3.928510e+05  -5.925958e+04
   1.127876e+05   5.599203e+03
  -2.789513e+05  -2.836555e+04
  -2.705642e+05  -1.281847e+05
   1.767980e+05  -2.067458e+05
   5.661509e+05  -1.198212e+05
