
 $NMID
 id='ANONYMOUS ', fmtdat='(2E16.6)'
 volume=1.0
 tramp=1.0
 $END
   2.431642e+07  -1.054698e+06
   1.615663e+07   1.244614e+07
  -7.590053e+05   1.600313e+07
  -1.084522e+07   8.955169e+06
  -8.152779e+06  -4.871178e+05
   1.851768e+05  -4.237745e+06
   4.635170e+06  -1.120051e+06
   2.746099e+06   3.992191e+06
  -1.672157e+06   5.599774e+06
  -4.337927e+06   2.208506e+06
  -3.633318e+06  -2.797174e+06
  -5.941117e+05  -4.444828e+06
   2.007993e+06  -1.172788e+06
   1.637207e+06   3.352019e+06
  -1.398240e+06   4.098038e+06
  -3.811072e+06   1.565375e+05
  -2.753318e+06  -4.531438e+06
   1.081131e+06  -5.723071e+06
   4.393924e+06  -2.962912e+06
   4.751853e+06   9.432648e+05
   2.546759e+06   3.200754e+06
   1.075722e+05   3.139986e+06
  -5.033752e+05   2.015907e+06
   7.004684e+05   1.553531e+06
   1.510073e+06   2.326958e+06
  -2.184313e+05   3.122965e+06
  -3.713061e+06   2.261213e+06
  -5.523525e+06  -2.408299e+05
  -3.428806e+06  -2.396517e+06
   6.367025e+05  -2.448102e+06
   2.684842e+06  -7.352573e+05
   1.237205e+06   9.633410e+05
  -1.451650e+06   1.280933e+06
  -2.517151e+06   7.514126e+04
  -1.450576e+06  -1.770592e+06
   2.668531e+05  -2.725060e+06
   1.197221e+06  -1.643915e+06
   9.580822e+05   6.589746e+05
   8.465528e+04   1.639403e+06
  -3.830646e+05   1.211825e+04
   2.752907e+05  -2.107958e+06
   1.443945e+06  -1.615481e+06
   1.479464e+06   1.255910e+06
  -3.038225e+05   2.856050e+06
  -2.339911e+06   8.537909e+05
  -2.274576e+06  -2.622592e+06
   3.236694e+05  -3.669560e+06
   3.280447e+06  -1.283120e+06
   3.928401e+06   1.954178e+06
   1.634271e+06   3.185184e+06
  -1.680743e+06   1.938904e+06
  -3.259675e+06  -2.521978e+05
  -1.928500e+06  -1.611152e+06
   8.206069e+05  -1.321460e+06
   2.256009e+06   6.875814e+04
   1.213829e+06   1.086273e+06
  -7.144253e+05   7.248726e+05
  -1.159662e+06  -4.182717e+05
   1.737380e+05  -8.455516e+05
   1.310401e+06  -1.208300e+04
   5.878600e+05   1.083034e+06
  -1.348517e+06   1.194537e+06
  -2.424808e+06   9.585109e+04
  -1.435201e+06  -1.531480e+06
   9.384204e+05  -2.737413e+06
   2.988647e+06  -2.607631e+06
   3.419780e+06  -7.664143e+05
   2.194396e+06   1.852168e+06
   4.251492e+05   3.366365e+06
  -6.097561e+05   2.813752e+06
  -6.182056e+05   1.292479e+06
  -4.302601e+05   5.562852e+05
  -8.659650e+05   7.980547e+05
  -1.686037e+06   6.784139e+05
  -1.919056e+06  -5.340009e+05
  -1.048012e+06  -1.802423e+06
   4.236624e+05  -1.652295e+06
   1.458017e+06  -2.923478e+04
   1.276877e+06   1.649644e+06
  -1.140746e+05   1.988391e+06
  -1.792156e+06   8.016292e+05
  -2.443506e+06  -9.474577e+05
  -1.522004e+06  -2.046141e+06
   8.189036e+04  -1.974780e+06
   9.683009e+05  -1.226474e+06
   8.767890e+05  -6.949097e+05
   8.921023e+05  -6.740511e+05
   1.798489e+06  -5.860880e+05
   2.787721e+06   2.260810e+05
   2.349059e+06   1.621466e+06
   2.202702e+05   2.708107e+06
  -2.098893e+06   2.637335e+06
  -2.846016e+06   1.303822e+06
  -1.696911e+06  -5.048302e+05
   7.994912e+04  -1.562664e+06
   9.187080e+05  -1.158932e+06
   3.359709e+05   1.206803e+05
  -7.869210e+05   8.348426e+05
  -1.180439e+06   2.563549e+05
  -4.873297e+05  -7.304652e+05
   4.209625e+05  -7.483533e+05
   4.656939e+05   2.272762e+05
  -4.232504e+05   7.634074e+05
  -1.259965e+06  -1.789002e+05
  -1.064186e+06  -1.857997e+06
   2.247352e+05  -2.571328e+06
   1.783939e+06  -1.530756e+06
   2.572534e+06   4.391381e+05
   2.027444e+06   1.868141e+06
   4.987999e+05   1.954892e+06
  -8.811339e+05   1.037930e+06
  -1.108156e+06   1.225756e+05
  -3.305065e+05  -1.993657e+04
   2.621703e+05   4.919517e+05
  -1.829602e+05   8.346244e+05
  -1.129017e+06   4.169689e+05
  -1.312345e+06  -4.285544e+05
  -3.468838e+05  -8.427297e+05
   7.446959e+05  -4.440147e+05
   7.120183e+05   2.797168e+05
  -4.881140e+05   5.505339e+05
  -1.628242e+06   5.333787e+04
  -1.476847e+06  -8.684110e+05
  -1.547061e+04  -1.514975e+06
   1.543124e+06  -1.311287e+06
   1.887535e+06  -2.925821e+05
   8.294384e+05   7.574475e+05
  -5.364943e+05   9.231028e+05
  -9.191262e+05   1.338313e+05
  -8.984011e+04  -6.553342e+05
   9.784857e+05  -5.023632e+05
   1.181631e+06   4.293246e+05
   3.706801e+05   1.088533e+06
  -6.225766e+05   7.892243e+05
  -8.844390e+05  -5.035408e+04
  -2.773649e+05  -4.780521e+05
   4.769461e+05  -7.485693e+04
   4.948366e+05   6.791051e+05
  -3.858354e+05   9.566325e+05
  -1.352461e+06   3.726968e+05
  -1.373130e+06  -6.808096e+05
  -3.036222e+05  -1.367610e+06
   8.873437e+05  -1.134364e+06
   1.134071e+06  -2.233737e+05
   3.975854e+05   5.480756e+05
  -4.037384e+05   5.819804e+05
  -4.871984e+05   5.374539e+04
   2.379684e+04  -3.645268e+05
   4.246143e+05  -2.703220e+05
   2.719396e+05   7.760295e+04
  -2.120151e+05   1.254574e+05
  -4.276291e+05  -3.086281e+05
   1.263884e+04  -7.863580e+05
   8.752274e+05  -6.683308e+05
   1.415674e+06   2.084126e+05
   1.030912e+06   1.268106e+06
  -9.006353e+04   1.665018e+06
  -1.073226e+06   1.076868e+06
  -1.230480e+06   2.100885e+04
  -7.281915e+05  -6.624219e+05
  -2.687233e+05  -6.237117e+05
  -2.271576e+05  -2.529572e+05
  -3.142830e+05  -1.484501e+05
  -6.919131e+04  -4.346354e+05
   5.268624e+05  -6.584816e+05
   9.981362e+05  -3.292319e+05
   8.248637e+05   4.821445e+05
  -7.012814e+04   1.100919e+06
  -1.152461e+06   8.493396e+05
  -1.580829e+06  -2.494097e+05
  -8.820081e+05  -1.377983e+06
   5.338032e+05  -1.624302e+06
   1.629036e+06  -8.297452e+05
   1.657717e+06   2.890875e+05
   8.211449e+05   8.817147e+05
  -4.227246e+04   7.681150e+05
  -3.383775e+05   4.656668e+05
  -1.901973e+05   4.956154e+05
  -1.138830e+05   7.896163e+05
  -3.956783e+05   8.161269e+05
  -8.193491e+05   2.231690e+05
  -9.083472e+05  -7.113124e+05
  -4.077503e+05  -1.278517e+06
   4.039707e+05  -9.887022e+05
   8.835459e+05  -4.683395e+04
   6.096675e+05   8.072454e+05
  -1.574646e+05   9.501983e+05
  -6.951469e+05   3.930421e+05
  -5.601114e+05  -3.173104e+05
  -3.824626e+04  -6.589554e+05
   2.276250e+05  -5.632073e+05
   1.448183e+03  -3.328621e+05
  -2.798295e+05  -2.413983e+05
  -3.675732e+04  -2.685669e+05
   7.325910e+05  -1.884674e+05
   1.351260e+06   1.479127e+05
   1.122619e+06   6.241314e+05
   8.168720e+04   9.225887e+05
  -9.654987e+05   7.893680e+05
  -1.206125e+06   2.845887e+05
  -6.066500e+05  -2.201092e+05
   1.230546e+05  -3.480542e+05
   3.212785e+05  -7.627786e+04
   4.758724e+03   2.245882e+05
  -3.225018e+05   1.669529e+05
  -3.220620e+05  -2.210255e+05
  -1.172211e+05  -5.011845e+05
  -9.032451e+03  -3.247958e+05
  -1.000008e+05   1.173491e+05
  -2.408573e+05   2.658408e+05
  -2.100532e+05  -1.430040e+05
   1.062481e+05  -6.980558e+05
   5.826291e+05  -7.345031e+05
   8.386162e+05  -1.080835e+05
   5.180776e+05   6.014833e+05
  -2.534473e+05   7.181660e+05
  -7.961306e+05   1.924138e+05
  -4.993825e+05  -3.942740e+05
   4.439394e+05  -4.716137e+05
   1.114452e+06  -1.037951e+04
   7.990766e+05   5.483664e+05
  -2.390423e+05   7.455998e+05
  -1.032379e+06   4.593760e+05
  -9.107368e+05  -5.228800e+04
  -1.387698e+05  -3.657087e+05
   4.305805e+05  -2.316688e+05
   2.473820e+05   1.702384e+05
  -4.189223e+05   3.347739e+05
  -8.003185e+05  -8.061188e+04
  -4.201864e+05  -8.149775e+05
   4.376553e+05  -1.144648e+06
   1.026662e+06  -5.879345e+05
   8.692576e+05   5.172536e+05
   1.654814e+05   1.237770e+06
  -4.839377e+05   9.386633e+05
  -6.538691e+05  -6.060845e+04
  -3.655793e+05  -8.066826e+05
   7.759719e+04  -7.060565e+05
   3.703302e+05  -9.450990e+04
   3.684657e+05   2.620695e+05
   1.588077e+05   1.088315e+05
   1.530473e+04  -8.089417e+04
   1.367807e+05   1.630960e+05
   3.467336e+05   6.391195e+05
   2.056038e+05   7.505085e+05
  -4.226751e+05   2.995773e+05
  -1.031945e+06  -2.914488e+05
  -9.473892e+05  -5.516030e+05
  -1.490004e+05  -4.659840e+05
   6.203133e+05  -2.980092e+05
   6.900334e+05  -1.611207e+05
   2.144074e+05   6.875358e+02
  -1.120159e+05   1.516297e+05
   2.870816e+04   1.695643e+05
   2.361846e+05   9.239835e+04
   1.672149e+04   9.328803e+04
  -5.056970e+05   1.504797e+05
  -7.107687e+05  -5.264468e+03
  -2.319922e+05  -4.533541e+05
   6.046447e+05  -7.865632e+05
   1.113912e+06  -5.110095e+05
   9.077732e+05   2.966671e+05
   1.913596e+05   9.664678e+05
  -4.873136e+05   9.397816e+05
  -7.072271e+05   3.521362e+05
  -4.593097e+05  -1.775270e+05
  -7.592740e+04  -2.417589e+05
   8.933822e+04  -1.400933e+04
  -4.129567e+04   4.848666e+04
  -2.369545e+05  -2.335449e+05
  -2.028580e+05  -5.515434e+05
   1.219431e+05  -4.570346e+05
   4.765126e+05   1.063993e+05
   4.897798e+05   6.707308e+05
   4.239557e+04   6.952725e+05
  -5.371016e+05   1.335769e+05
  -7.014152e+05  -5.181949e+05
  -2.254139e+05  -7.354115e+05
   4.823205e+05  -4.402665e+05
   7.431867e+05   4.490036e+04
   3.498394e+05   3.774865e+05
  -1.795749e+05   4.275135e+05
  -2.158506e+05   2.508678e+05
   2.094060e+05   2.105633e+04
   4.545929e+05  -3.011091e+04
   9.164520e+04   1.992316e+05
  -5.547026e+05   4.835678e+05
  -8.201434e+05   4.236306e+05
  -4.853632e+05  -7.357086e+04
   5.479282e+04  -5.795128e+05
   3.267707e+05  -5.803477e+05
   2.452554e+05  -9.086850e+04
   2.137169e+04   3.423384e+05
  -1.627950e+05   2.789735e+05
  -2.428862e+05  -1.316976e+05
  -1.770883e+05  -3.920819e+05
   3.678955e+04  -2.589280e+05
   2.654020e+05   4.058067e+04
   3.187189e+05   1.581513e+05
   1.686516e+05   3.911695e+04
  -9.400844e+03  -7.220213e+04
  -6.108924e+04   3.121801e+04
  -3.911138e+04   2.615021e+05
  -9.487955e+04   3.314339e+05
  -2.328550e+05   8.579229e+04
  -2.673560e+05  -2.922955e+05
  -5.194960e+04  -4.416099e+05
   2.916650e+05  -2.020621e+05
   4.327478e+05   2.033946e+05
   1.627691e+05   4.019184e+05
  -3.303287e+05   2.534084e+05
  -5.822851e+05  -5.306408e+04
  -3.225190e+05  -2.513281e+05
   1.930288e+05  -2.508447e+05
   4.213295e+05  -1.326671e+05
   1.418166e+05  -1.269120e+04
  -2.735344e+05   1.931546e+04
  -2.921006e+05  -7.944612e+04
   1.452944e+05  -2.233215e+05
   5.577161e+05  -1.910530e+05
