
 $NMID
 id='ANONYMOUS ', fmtdat='(2E16.6)'
 volume=1.0
 tramp=1.0
 $END
  -1.787545e+07  -1.125443e+06
  -1.138557e+07  -9.025360e+06
   6.661149e+05  -1.123207e+07
   8.076183e+06  -7.123069e+06
   6.513136e+06  -5.050085e+05
   2.780229e+05   3.221113e+06
  -3.700497e+06   1.506831e+06
  -2.652957e+06  -2.977959e+06
   1.030667e+06  -4.958805e+06
   3.469070e+06  -2.095532e+06
   2.825061e+06   2.504983e+06
   1.797528e+05   3.851722e+06
  -1.823257e+06   6.932615e+05
  -1.284489e+06  -3.271497e+06
   1.215852e+06  -3.704129e+06
   3.045299e+06  -2.202253e+05
   2.086021e+06   3.665193e+06
  -1.041362e+06   4.466413e+06
  -3.577034e+06   1.947241e+06
  -3.455708e+06  -1.279308e+06
  -1.300402e+06  -2.650503e+06
   4.418863e+05  -1.944946e+06
   1.407359e+05  -9.882372e+05
  -1.346079e+06  -1.386383e+06
  -1.612933e+06  -2.729325e+06
   6.312775e+05  -3.158369e+06
   3.853794e+06  -1.592943e+06
   4.965710e+06   9.718587e+05
   2.589977e+06   2.510292e+06
  -1.179145e+06   1.981299e+06
  -2.789572e+06   1.110775e+05
  -9.940811e+05  -1.456851e+06
   1.931796e+06  -1.446832e+06
   2.887940e+06   2.141946e+05
   1.277298e+06   2.220283e+06
  -8.245250e+05   2.722808e+06
  -1.367590e+06   1.096291e+06
  -4.031018e+05  -1.040230e+06
   5.357789e+05  -1.314398e+06
   3.650373e+05   5.727031e+05
  -6.451441e+05   2.240143e+06
  -1.453796e+06   1.459194e+06
  -1.236354e+06  -9.802192e+05
   7.665014e+03  -2.157420e+06
   1.336210e+06  -6.155934e+05
   1.410575e+06   1.903720e+06
  -2.874972e+05   2.600708e+06
  -2.566373e+06   7.502619e+05
  -3.282874e+06  -1.809392e+06
  -1.448725e+06  -2.843344e+06
   1.512986e+06  -1.776111e+06
   3.004881e+06   1.958517e+05
   1.849959e+06   1.424044e+06
  -5.674092e+05   1.151133e+06
  -1.845171e+06  -3.727676e+04
  -1.041935e+06  -8.597696e+05
   5.678253e+05  -5.639527e+05
   1.090717e+06   3.881639e+05
   8.587958e+04   8.929260e+05
  -1.085611e+06   4.070167e+05
  -8.792586e+05  -5.388057e+05
   6.531448e+05  -9.420598e+05
   1.839847e+06  -2.653077e+05
   1.161410e+06   1.132192e+06
  -1.078381e+06   2.216554e+06
  -3.007235e+06   1.966601e+06
  -3.089103e+06   2.320695e+05
  -1.578083e+06  -1.916849e+06
   3.089157e+03  -2.991296e+06
   5.871416e+05  -2.498973e+06
   4.714439e+05  -1.382007e+06
   5.910474e+05  -8.110743e+05
   1.280376e+06  -7.768441e+05
   1.959405e+06  -3.084012e+05
   1.846807e+06   9.711052e+05
   7.549396e+05   2.061362e+06
  -7.218852e+05   1.681665e+06
  -1.599331e+06  -1.125265e+05
  -1.182305e+06  -1.806289e+06
   3.226598e+05  -1.936294e+06
   1.792743e+06  -4.951047e+05
   2.058250e+06   1.217907e+06
   1.002844e+06   1.946226e+06
  -3.186390e+05   1.544461e+06
  -8.393113e+05   8.200172e+05
  -6.522034e+05   5.321701e+05
  -7.679637e+05   6.473075e+05
  -1.698423e+06   5.147421e+05
  -2.601464e+06  -3.458546e+05
  -2.122327e+06  -1.671774e+06
  -3.551044e+04  -2.602976e+06
   2.230572e+06  -2.370677e+06
   2.890869e+06  -9.657518e+05
   1.576836e+06   7.298856e+05
  -3.179618e+05   1.544183e+06
  -1.074482e+06   1.000224e+06
  -3.102515e+05  -1.807654e+05
   8.510218e+05  -7.292576e+05
   1.123377e+06  -1.509422e+05
   3.589361e+05   7.185833e+05
  -4.965332e+05   7.064107e+05
  -5.129802e+05  -2.223434e+05
   3.202745e+05  -8.196947e+05
   1.169096e+06  -3.009016e+04
   1.123264e+06   1.644466e+06
  -5.339378e+04   2.555977e+06
  -1.678765e+06   1.655968e+06
  -2.582032e+06  -4.040565e+05
  -2.021700e+06  -1.970942e+06
  -4.078815e+05  -2.013689e+06
   9.636236e+05  -9.520589e+05
   1.109931e+06  -1.126426e+04
   3.200281e+05   4.469968e+04
  -2.234454e+05  -4.867304e+05
   2.009996e+05  -7.562210e+05
   1.052922e+06  -3.195337e+05
   1.206023e+06   4.433396e+05
   3.123725e+05   7.890065e+05
  -7.233200e+05   4.009023e+05
  -7.143403e+05  -2.984228e+05
   4.608848e+05  -5.671286e+05
   1.625781e+06  -4.109655e+04
   1.482629e+06   9.255311e+05
  -2.082354e+04   1.537493e+06
  -1.586809e+06   1.224323e+06
  -1.856448e+06   1.732764e+05
  -7.436924e+05  -7.613422e+05
   5.612231e+05  -8.090000e+05
   8.445542e+05  -5.375415e+04
   1.487760e+04   6.099837e+05
  -9.645320e+05   4.081295e+05
  -1.114956e+06  -4.651105e+05
  -3.370361e+05  -1.066715e+06
   6.064586e+05  -7.722508e+05
   8.634475e+05   3.928574e+04
   2.877256e+05   4.534021e+05
  -4.250538e+05   5.087973e+04
  -4.118887e+05  -6.727557e+05
   4.499493e+05  -8.786916e+05
   1.330073e+06  -2.431581e+05
   1.263420e+06   7.616965e+05
   1.962199e+05   1.330306e+06
  -9.150020e+05   1.031552e+06
  -1.103655e+06   1.587614e+05
  -3.730080e+05  -5.441548e+05
   4.124148e+05  -5.513535e+05
   5.046813e+05  -2.407294e+04
  -1.325840e+04   3.958922e+05
  -4.598504e+05   2.888008e+05
  -3.404879e+05  -9.724995e+04
   1.614523e+05  -1.714313e+05
   4.071739e+05   2.671820e+05
  -2.828475e+04   7.408165e+05
  -8.734392e+05   5.903881e+05
  -1.347184e+06  -2.930300e+05
  -9.001031e+05  -1.292459e+06
   2.053573e+05  -1.614940e+06
   1.118428e+06  -1.007867e+06
   1.231614e+06   3.249651e+04
   7.235096e+05   7.282619e+05
   2.428585e+05   7.167861e+05
   1.568210e+05   3.241530e+05
   2.300842e+05   1.504524e+05
   1.944633e+04   3.871387e+05
  -5.396155e+05   6.042115e+05
  -9.957032e+05   2.739361e+05
  -8.022939e+05  -5.348925e+05
   1.171527e+05  -1.103646e+06
   1.176371e+06  -7.712509e+05
   1.528046e+06   3.424176e+05
   7.837530e+05   1.380408e+06
  -5.836905e+05   1.524204e+06
  -1.595543e+06   7.183179e+05
  -1.602889e+06  -3.435532e+05
  -8.027711e+05  -9.021922e+05
   5.169249e+04  -7.957880e+05
   3.970854e+05  -4.845015e+05
   2.959463e+05  -4.663432e+05
   2.083633e+05  -7.133112e+05
   4.314246e+05  -7.256470e+05
   7.856491e+05  -1.438445e+05
   8.172216e+05   7.590749e+05
   2.976127e+05   1.269956e+06
  -4.679157e+05   9.292683e+05
  -8.620299e+05  -5.885007e+03
  -5.440068e+05  -7.994303e+05
   1.829436e+05  -9.007814e+05
   6.526748e+05  -3.710116e+05
   5.066275e+05   2.793883e+05
   3.308012e+04   5.970576e+05
  -1.992238e+05   5.304357e+05
   2.167162e+03   3.445106e+05
   2.423762e+05   2.700216e+05
   7.349484e+03   2.691819e+05
  -7.010322e+05   1.332592e+05
  -1.264553e+06  -2.330952e+05
  -1.037657e+06  -6.636709e+05
  -4.762477e+04  -8.648189e+05
   9.475291e+05  -6.767087e+05
   1.169229e+06  -2.154110e+05
   5.803772e+05   2.044579e+05
  -1.273350e+05   3.022475e+05
  -3.009128e+05   6.885686e+04
   3.243933e+04  -1.905645e+05
   3.443803e+05  -1.304514e+05
   2.901536e+05   2.412965e+05
   3.927175e+04   5.104411e+05
  -5.012031e+04   3.223785e+05
   1.076536e+05  -1.313583e+05
   2.767974e+05  -2.730900e+05
   1.959525e+05   1.493731e+05
  -1.742208e+05   6.808957e+05
  -6.167331e+05   6.577516e+05
  -7.764636e+05   1.099872e+04
  -4.116983e+05  -6.271984e+05
   3.032774e+05  -6.405865e+05
   7.644923e+05  -8.676994e+04
   4.498574e+05   4.330987e+05
  -4.554603e+05   4.309939e+05
  -1.096670e+06  -4.982257e+04
  -7.834372e+05  -5.759331e+05
   2.473078e+05  -7.330211e+05
   1.040141e+06  -4.238985e+05
   9.108598e+05   8.583725e+04
   1.286307e+05   3.719034e+05
  -4.276726e+05   2.116351e+05
  -2.138737e+05  -1.716954e+05
   4.505969e+05  -2.765115e+05
   7.695327e+05   1.670648e+05
   3.130626e+05   8.415251e+05
  -5.553309e+05   1.068685e+06
  -1.066310e+06   4.688731e+05
  -8.059011e+05  -5.855427e+05
  -6.131064e+04  -1.227932e+06
   5.418595e+05  -8.977203e+05
   6.365406e+05   8.418703e+04
   3.195834e+05   8.070177e+05
  -9.427711e+04   6.959034e+05
  -3.557176e+05   7.648338e+04
  -3.629433e+05  -2.855191e+05
  -1.736970e+05  -1.227629e+05
  -1.004740e+04   8.519247e+04
  -8.121888e+04  -1.552684e+05
  -2.747983e+05  -6.429933e+05
  -1.765760e+05  -7.497882e+05
   3.976820e+05  -2.619668e+05
   9.898722e+05   3.633039e+05
   9.118288e+05   6.069511e+05
   1.120353e+05   4.589487e+05
  -6.548521e+05   2.425470e+05
  -6.938962e+05   1.150427e+05
  -1.848286e+05  -4.290959e+03
   1.316634e+05  -1.381317e+05
  -4.727580e+04  -1.800027e+05
  -2.573659e+05  -1.223385e+05
   4.254014e+03  -9.488478e+04
   5.414327e+05  -9.714178e+04
   6.882305e+05   7.301084e+04
   1.395319e+05   4.604838e+05
  -6.868292e+05   7.006194e+05
  -1.106950e+06   3.792100e+05
  -8.206386e+05  -3.877311e+05
  -9.400007e+04  -9.642116e+05
   5.444395e+05  -8.618965e+05
   7.190346e+05  -2.610847e+05
   4.387142e+05   2.283960e+05
   3.936304e+04   2.420290e+05
  -1.188316e+05  -9.957953e+03
   3.070804e+04  -6.465273e+04
   2.252269e+05   2.346497e+05
   1.654280e+05   5.510088e+05
  -1.633892e+05   4.283568e+05
  -4.637218e+05  -1.639370e+05
  -4.042782e+05  -7.174614e+05
   5.290249e+04  -6.815100e+05
   5.575448e+05  -5.670311e+04
   6.325612e+05   5.938931e+05
   1.359536e+05   7.360443e+05
  -5.151225e+05   3.646498e+05
  -7.047210e+05  -1.180898e+05
  -2.871998e+05  -3.774057e+05
   2.123554e+05  -3.711572e+05
   2.055421e+05  -2.155257e+05
  -2.324047e+05  -4.601597e+04
  -4.530225e+05  -1.334622e+04
  -6.142499e+04  -1.975664e+05
   5.803088e+05  -4.277827e+05
   8.068110e+05  -3.614301e+05
   4.348635e+05   9.399894e+04
  -1.065040e+05   5.485353e+05
  -3.439586e+05   5.220991e+05
  -2.207032e+05   4.283761e+04
   2.221694e+04  -3.489922e+05
   1.899975e+05  -2.425995e+05
   2.301464e+05   1.745136e+05
   1.346896e+05   3.983745e+05
  -6.817539e+04   2.262932e+05
  -2.552909e+05  -7.366654e+04
  -2.853451e+05  -1.644901e+05
  -1.584490e+05  -3.661801e+04
  -1.272846e+04   5.247555e+04
   5.613156e+04  -6.691705e+04
   9.412096e+04  -2.725909e+05
   1.756570e+05  -2.930145e+05
   2.569093e+05  -1.848077e+04
   2.048154e+05   3.432217e+05
  -3.322834e+04   4.447479e+05
  -3.164670e+05   1.601282e+05
  -3.883341e+05  -2.554209e+05
  -1.112817e+05  -4.175735e+05
   3.362692e+05  -2.127543e+05
   5.481099e+05   1.162596e+05
   2.843351e+05   2.743907e+05
  -2.123440e+05   2.078977e+05
  -4.180640e+05   6.762072e+04
  -1.196057e+05  -7.094588e+03
   2.993499e+05   2.183067e+04
   2.928918e+05   1.302944e+05
  -1.817775e+05   2.254666e+05
  -5.982869e+05   1.415647e+05
