
 $NMID
 id='ANONYMOUS ', fmtdat='(2E16.6)'
 volume=1.0
 tramp=1.0
 $END
  -5.417687e+07   6.190924e+05
  -3.289659e+07  -3.325137e+07
   6.829946e+06  -3.674215e+07
   2.637806e+07  -1.428441e+07
   1.584944e+07   6.646694e+06
  -3.132493e+06   8.989125e+06
  -9.436991e+06  -1.125938e+06
  -2.720076e+06  -9.358156e+06
   5.877997e+06  -8.980571e+06
   9.235825e+06  -1.979464e+06
   6.774761e+06   5.872961e+06
   8.823529e+05   8.231790e+06
  -3.799964e+06   2.688007e+06
  -2.591618e+06  -5.159004e+06
   3.536561e+06  -6.289734e+06
   7.561159e+06   1.217297e+06
   4.361752e+06   9.744556e+06
  -3.508168e+06   1.135405e+07
  -9.635988e+06   5.783675e+06
  -1.041569e+07  -1.836882e+06
  -6.474723e+06  -7.125146e+06
  -7.729141e+05  -8.340107e+06
   2.769886e+06  -5.874068e+06
   1.810812e+06  -2.572801e+06
  -1.070899e+06  -1.982608e+06
  -3.350757e+05  -3.963822e+06
   5.079383e+06  -4.306988e+06
   9.243692e+06  -6.401142e+05
   6.825259e+06   3.856857e+06
   3.373908e+05   4.873887e+06
  -3.513747e+06   2.555974e+06
  -2.393422e+06   8.578533e+04
   5.094932e+05  -8.976385e+05
   2.128423e+06  -5.329628e+05
   2.127405e+06   1.294209e+06
   7.547358e+05   3.738998e+06
  -1.668245e+06   3.735239e+06
  -3.136589e+06  -4.390624e+04
  -1.717847e+06  -3.485597e+06
   7.337383e+05  -1.894971e+06
   3.952581e+05   2.327374e+06
  -2.312716e+06   2.230608e+06
  -2.375555e+06  -3.043035e+06
   2.285574e+06  -5.914013e+06
   6.692170e+06  -1.037139e+06
   5.003791e+06   6.614660e+06
  -1.751559e+06   8.222420e+06
  -7.109384e+06   2.411055e+06
  -6.711252e+06  -4.181915e+06
  -1.827815e+06  -5.750285e+06
   3.298357e+06  -2.626947e+06
   5.041659e+06   1.409033e+06
   2.343182e+06   3.315132e+06
  -2.307828e+06   2.127604e+06
  -4.355467e+06  -8.449663e+05
  -1.892454e+06  -2.596816e+06
   1.639391e+06  -1.335127e+06
   1.673072e+06   9.658352e+05
  -1.271526e+06   8.821781e+05
  -2.389549e+06  -1.680752e+06
   5.830873e+05  -3.323229e+06
   4.444739e+06  -1.868367e+06
   5.103070e+06   1.259422e+06
   2.261423e+06   3.797019e+06
  -1.657760e+06   5.073233e+06
  -4.724104e+06   4.715270e+06
  -5.913653e+06   1.767221e+06
  -4.448186e+06  -2.963254e+06
  -9.924524e+05  -5.906641e+06
   1.732401e+06  -4.587414e+06
   1.678379e+06  -1.168638e+06
   1.393702e+05   2.594729e+05
  -7.520067e+04  -9.445663e+05
   1.493368e+06  -1.765350e+06
   2.699855e+06  -2.985354e+05
   1.991826e+06   1.806797e+06
   7.477958e+04   2.057580e+06
  -1.477371e+06   2.312388e+05
  -1.642137e+06  -1.955979e+06
  -5.264424e+04  -2.815763e+06
   2.631401e+06  -1.637916e+06
   4.319700e+06   1.072077e+06
   3.156303e+06   3.570540e+06
   2.185063e+04   4.074349e+06
  -2.160846e+06   2.648437e+06
  -2.139804e+06   1.118129e+06
  -1.754377e+06   6.715637e+05
  -2.817893e+06   4.940013e+05
  -4.185584e+06  -6.760339e+05
  -3.384035e+06  -2.612013e+06
  -1.802612e+05  -3.963802e+06
   3.024651e+06  -3.794240e+06
   3.979201e+06  -2.105459e+06
   2.566628e+06   3.579586e+05
   3.101155e+05   2.146439e+06
  -1.024959e+06   1.884020e+06
  -5.468033e+05  -2.417227e+04
   1.027096e+06  -1.280063e+06
   1.836268e+06  -4.103143e+05
   9.098893e+05   1.153206e+06
  -4.812761e+05   1.081620e+06
  -4.113002e+05  -3.704067e+05
   1.028365e+06  -6.713729e+05
   1.799491e+06   1.244138e+06
   6.356607e+05   3.361457e+06
  -1.522319e+06   3.280802e+06
  -3.013181e+06   1.071120e+06
  -3.177320e+06  -1.367372e+06
  -2.198759e+06  -2.618041e+06
  -4.638555e+05  -2.492220e+06
   1.170293e+06  -1.424335e+06
   1.513962e+06  -2.437447e+05
   4.752699e+05   3.835123e+04
  -3.549452e+05  -7.220242e+05
   3.878620e+05  -1.304721e+06
   1.844393e+06  -5.818174e+05
   1.978485e+06   8.428410e+05
   3.829918e+05   1.372004e+06
  -1.128897e+06   5.635717e+05
  -8.573381e+05  -4.300438e+05
   8.170880e+05  -4.988199e+05
   2.093964e+06   2.986662e+05
   1.676700e+06   1.286405e+06
  -2.267917e+05   1.888246e+06
  -2.204353e+06   1.611169e+06
  -2.670676e+06   2.924713e+05
  -1.190341e+06  -1.213908e+06
   8.754587e+05  -1.470380e+06
   1.516005e+06  -2.025389e+05
   2.125883e+05   1.048969e+06
  -1.459778e+06   7.325490e+05
  -1.668296e+06  -7.415290e+05
  -3.333548e+05  -1.594179e+06
   1.053789e+06  -9.443923e+05
   1.215223e+06   3.021073e+05
   2.356107e+05   7.584829e+05
  -7.770950e+05   6.129614e+04
  -7.295745e+05  -1.011045e+06
   5.346623e+05  -1.387103e+06
   1.932795e+06  -5.551248e+05
   1.983440e+06   9.874647e+05
   3.960604e+05   2.003246e+06
  -1.377992e+06   1.604793e+06
  -1.668489e+06   2.167842e+05
  -4.895285e+05  -8.382155e+05
   6.315372e+05  -7.813851e+05
   6.057707e+05  -8.198624e+04
  -1.146919e+05   3.380347e+05
  -4.612119e+05   1.960964e+05
  -9.959655e+04  -5.617895e+04
   4.419121e+05   8.747795e+04
   4.997724e+05   6.563459e+05
  -1.963235e+05   1.149927e+06
  -1.328017e+06   8.776264e+05
  -2.015735e+06  -3.771617e+05
  -1.439468e+06  -1.860704e+06
   1.799318e+05  -2.337863e+06
   1.540911e+06  -1.372861e+06
   1.621985e+06   1.097128e+05
   8.227590e+05   8.455399e+05
   3.095574e+05   6.024923e+05
   4.753645e+05   1.923337e+05
   6.227034e+05   3.003055e+05
   9.842264e+04   7.451221e+05
  -8.390970e+05   8.760199e+05
  -1.389229e+06   3.225569e+05
  -1.009621e+06  -6.803567e+05
   2.304971e+05  -1.397754e+06
   1.646471e+06  -1.046336e+06
   2.169938e+06   4.418897e+05
   1.111962e+06   2.016069e+06
  -9.583789e+05   2.296624e+06
  -2.451136e+06   1.016954e+06
  -2.270931e+06  -6.217843e+05
  -9.205407e+05  -1.281309e+06
   1.968678e+05  -8.997444e+05
   3.581902e+05  -4.835623e+05
   4.684442e+04  -7.307604e+05
   7.476718e+04  -1.275594e+06
   6.353259e+05  -1.261249e+06
   1.251524e+06  -3.265617e+05
   1.308342e+06   1.024859e+06
   5.635015e+05   1.821362e+06
  -5.802591e+05   1.395740e+06
  -1.240005e+06   1.140183e+04
  -7.963305e+05  -1.234948e+06
   3.697854e+05  -1.353217e+06
   1.128476e+06  -3.935471e+05
   7.922276e+05   6.812796e+05
  -1.185814e+05   1.049448e+06
  -5.241039e+05   7.589398e+05
  -8.350033e+04   3.959346e+05
   4.255775e+05   3.146170e+05
   6.491962e+04   3.673130e+05
  -1.111441e+06   2.148626e+05
  -2.003463e+06  -2.978634e+05
  -1.574446e+06  -9.858166e+05
   2.863834e+04  -1.393615e+06
   1.532157e+06  -1.125022e+06
   1.769254e+06  -2.833077e+05
   8.068876e+05   4.808968e+05
  -2.505648e+05   5.591978e+05
  -4.970918e+05   3.300849e+04
  -3.940050e+04  -4.147479e+05
   4.190165e+05  -2.580322e+05
   4.713299e+05   3.231707e+05
   2.668359e+05   6.909526e+05
   1.108898e+05   4.606643e+05
   1.294437e+05  -8.471383e+04
   2.554491e+05  -2.759431e+05
   2.664480e+05   2.210798e+05
  -1.157483e+05   9.493913e+05
  -8.529409e+05   1.044568e+06
  -1.327497e+06   1.979115e+05
  -8.517901e+05  -8.698503e+05
   3.839832e+05  -1.118764e+06
   1.218639e+06  -3.576724e+05
   7.191663e+05   5.377202e+05
  -6.724727e+05   6.326362e+05
  -1.527728e+06  -7.925970e+04
  -9.625041e+05  -8.232595e+05
   4.685294e+05  -9.481949e+05
   1.435588e+06  -4.605154e+05
   1.178399e+06   1.789732e+05
   1.283445e+05   4.906274e+05
  -6.253834e+05   2.611217e+05
  -3.809176e+05  -2.837949e+05
   5.488200e+05  -5.225823e+05
   1.146403e+06   4.520440e+04
   6.853974e+05   1.123015e+06
  -5.204039e+05   1.663020e+06
  -1.408566e+06   8.949711e+05
  -1.227685e+06  -7.023534e+05
  -2.293815e+05  -1.722327e+06
   6.927454e+05  -1.251476e+06
   8.922022e+05   1.681201e+05
   4.219275e+05   1.145313e+06
  -2.140590e+05   9.286242e+05
  -5.466174e+05   8.255488e+04
  -4.427384e+05  -3.533057e+05
  -1.451064e+05  -1.248035e+05
  -5.132244e+04   8.792427e+04
  -2.973109e+05  -2.915757e+05
  -5.168695e+05  -9.293067e+05
  -1.832072e+05  -1.034234e+06
   7.054569e+05  -3.893078e+05
   1.428715e+06   4.230099e+05
   1.231397e+06   7.855491e+05
   1.882567e+05   6.751816e+05
  -7.993125e+05   4.225422e+05
  -9.404134e+05   1.870225e+05
  -3.638784e+05  -5.559669e+04
   1.295566e+05  -2.227383e+05
   5.186531e+04  -1.875204e+05
  -2.349939e+05  -7.282393e+04
  -6.106057e+04  -1.263227e+05
   6.092500e+05  -2.517900e+05
   1.015471e+06  -1.894738e+04
   4.692008e+05   6.647330e+05
  -7.646939e+05   1.172989e+06
  -1.643894e+06   7.875638e+05
  -1.405873e+06  -3.713763e+05
  -3.085347e+05  -1.349335e+06
   7.170838e+05  -1.356443e+06
   1.003442e+06  -5.627255e+05
   6.360828e+05   1.945276e+05
   1.493088e+05   3.441821e+05
  -4.421843e+04   8.195153e+04
   8.617096e+04  -1.656080e+02
   2.868190e+05   3.564225e+05
   2.475408e+05   7.761149e+05
  -1.515590e+05   6.675614e+05
  -6.572712e+05  -8.134848e+04
  -7.559819e+05  -8.838652e+05
  -1.689504e+05  -9.986719e+05
   7.059094e+05  -2.864907e+05
   1.029791e+06   6.449285e+05
   3.842162e+05   1.046702e+06
  -6.677106e+05   6.951717e+05
  -1.098095e+06  -3.454233e+04
  -5.461614e+05  -5.975429e+05
   2.618687e+05  -6.890744e+05
   3.801872e+05  -3.717967e+05
  -2.144282e+05   7.912476e+03
  -6.207026e+05   5.967537e+04
  -1.588353e+05  -2.991768e+05
   7.808354e+05  -6.750365e+05
   1.225993e+06  -5.360752e+05
   7.676415e+05   1.722078e+05
  -6.783041e+04   8.541453e+05
  -5.342383e+05   8.535155e+05
  -4.337381e+05   1.867027e+05
  -7.925334e+04  -4.515047e+05
   2.145615e+05  -4.423264e+05
   3.436171e+05   1.088638e+05
   2.659125e+05   5.506631e+05
  -3.276070e+04   4.369358e+05
  -3.808621e+05  -2.153045e+04
  -4.764303e+05  -2.751104e+05
  -2.374153e+05  -1.016034e+05
   4.949911e+04   1.634236e+05
   8.121515e+04   7.889634e+04
  -5.572726e+04  -3.264917e+05
  -1.545958e+04  -5.612831e+05
   2.873454e+05  -2.657610e+05
   4.877022e+05   3.245903e+05
   2.148510e+05   6.188076e+05
  -3.731839e+05   3.291068e+05
  -6.683454e+05  -2.340283e+05
  -2.760031e+05  -5.373961e+05
   4.878463e+05  -3.726801e+05
   8.717929e+05   3.518910e+04
   4.827376e+05   3.505504e+05
  -2.724549e+05   4.155259e+05
  -6.188881e+05   2.636491e+05
  -2.620679e+05   2.923295e+04
   3.049917e+05  -9.789340e+04
   3.856918e+05   2.013407e+04
  -1.303153e+05   2.700327e+05
  -6.728245e+05   2.871908e+05
