
 $NMID
 id='ANONYMOUS ', fmtdat='(2E16.6)'
 volume=1.0
 tramp=1.0
 $END
   8.267093e+06   6.020117e+05
   5.119636e+06   4.115801e+06
  -3.478652e+05   5.052291e+06
  -3.595766e+06   3.251915e+06
  -2.874192e+06   3.314668e+05
  -1.401145e+05  -1.394979e+06
   1.625187e+06  -7.153730e+05
   1.216145e+06   1.297354e+06
  -3.981531e+05   2.253064e+06
  -1.536654e+06   9.831333e+05
  -1.304950e+06  -1.136448e+06
  -1.089679e+05  -1.771923e+06
   8.453095e+05  -3.137114e+05
   6.353848e+05   1.522026e+06
  -5.085275e+05   1.726517e+06
  -1.381007e+06   1.287786e+05
  -9.846266e+05  -1.662983e+06
   4.384880e+05  -2.056109e+06
   1.634539e+06  -9.144153e+05
   1.605773e+06   5.912580e+05
   5.895078e+05   1.249393e+06
  -2.514352e+05   8.981453e+05
  -8.478813e+04   3.937866e+05
   6.899032e+05   5.620305e+05
   8.596330e+05   1.247446e+06
  -2.337187e+05   1.523993e+06
  -1.817513e+06   8.168878e+05
  -2.364885e+06  -4.111323e+05
  -1.225551e+06  -1.174094e+06
   5.747476e+05  -9.566232e+05
   1.350081e+06  -7.826579e+04
   5.142329e+05   7.034791e+05
  -8.817181e+05   7.573714e+05
  -1.385663e+06  -1.791428e+04
  -6.704440e+05  -1.021148e+06
   3.346548e+05  -1.309177e+06
   6.395489e+05  -5.277312e+05
   2.017568e+05   5.210092e+05
  -2.711927e+05   6.471488e+05
  -2.216892e+05  -2.842751e+05
   2.544411e+05  -1.091089e+06
   6.515209e+05  -7.139842e+05
   5.664191e+05   4.301247e+05
   7.229789e+03   9.609277e+05
  -5.890395e+05   2.431115e+05
  -6.232537e+05  -8.913059e+05
   1.438910e+05  -1.186756e+06
   1.193082e+06  -3.468218e+05
   1.546618e+06   8.071459e+05
   7.160368e+05   1.293067e+06
  -6.689518e+05   8.421159e+05
  -1.390397e+06  -3.798486e+04
  -8.730720e+05  -6.094819e+05
   2.441572e+05  -5.103009e+05
   8.367632e+05   8.890518e+03
   4.710204e+05   3.736908e+05
  -2.621430e+05   2.506073e+05
  -5.063528e+05  -1.602233e+05
  -6.701601e+04  -3.919923e+05
   4.582576e+05  -2.095369e+05
   3.881351e+05   1.913484e+05
  -2.768399e+05   3.997324e+05
  -8.168893e+05   1.390931e+05
  -5.344110e+05  -5.002251e+05
   4.796904e+05  -1.052315e+06
   1.388764e+06  -9.743940e+05
   1.455125e+06  -1.478766e+05
   7.646636e+05   8.937791e+05
   3.188165e+04   1.403121e+06
  -2.281066e+05   1.159576e+06
  -1.642433e+05   6.479337e+05
  -2.356098e+05   4.192985e+05
  -5.957772e+05   4.290658e+05
  -9.497898e+05   1.983632e+05
  -9.163368e+05  -4.342415e+05
  -4.036442e+05  -9.769923e+05
   3.129975e+05  -8.198032e+05
   7.646267e+05   1.807390e+04
   5.961739e+05   8.311098e+05
  -1.202938e+05   9.204667e+05
  -8.445160e+05   2.583366e+05
  -9.902884e+05  -5.533411e+05
  -4.888801e+05  -9.086639e+05
   1.439725e+05  -7.239616e+05
   3.871524e+05  -3.812400e+05
   2.889604e+05  -2.484591e+05
   3.390880e+05  -3.158296e+05
   7.843472e+05  -2.753963e+05
   1.228289e+06   1.116724e+05
   1.029277e+06   7.439371e+05
   6.619927e+04   1.224726e+06
  -1.007332e+06   1.163201e+06
  -1.349532e+06   5.113146e+05
  -7.608287e+05  -3.219052e+05
   1.247764e+05  -7.432466e+05
   4.936788e+05  -4.910702e+05
   1.477727e+05   8.611707e+04
  -3.936957e+05   3.586395e+05
  -5.252934e+05   8.288695e+04
  -1.738416e+05  -3.360737e+05
   2.252128e+05  -3.377763e+05
   2.447807e+05   9.625245e+04
  -1.295437e+05   3.868488e+05
  -5.351742e+05   3.979765e+04
  -5.546628e+05  -7.322171e+05
  -4.045207e+04  -1.183720e+06
   7.336256e+05  -8.129332e+05
   1.213461e+06   1.212766e+05
   9.973618e+05   8.734767e+05
   2.399424e+05   9.386559e+05
  -4.334998e+05   4.705912e+05
  -5.224403e+05   2.785025e+04
  -1.500567e+05  -1.407149e+04
   1.130389e+05   2.266161e+05
  -8.519249e+04   3.574369e+05
  -4.903598e+05   1.628606e+05
  -5.688337e+05  -1.911289e+05
  -1.530568e+05  -3.636082e+05
   3.371706e+05  -1.974797e+05
   3.433646e+05   1.306563e+05
  -2.047202e+05   2.806736e+05
  -7.658306e+05   5.827861e+04
  -7.217394e+05  -4.014730e+05
  -2.611508e+04  -7.246988e+05
   7.208037e+05  -6.099544e+05
   8.685637e+05  -1.179567e+05
   3.595855e+05   3.433360e+05
  -2.529669e+05   3.861497e+05
  -3.941248e+05   3.438409e+04
  -1.212827e+04  -2.886380e+05
   4.489899e+05  -2.071816e+05
   5.309634e+05   1.991621e+05
   1.765731e+05   4.920780e+05
  -2.687236e+05   3.702453e+05
  -4.023178e+05  -4.017055e+03
  -1.387934e+05  -2.069669e+05
   2.040076e+05  -2.862417e+04
   2.091732e+05   3.148850e+05
  -1.975069e+05   4.284448e+05
  -6.268216e+05   1.421281e+05
  -6.121380e+05  -3.359587e+05
  -1.170199e+05  -6.230829e+05
   4.107435e+05  -5.007278e+05
   5.123925e+05  -9.401972e+04
   1.811256e+05   2.474408e+05
  -1.858915e+05   2.642666e+05
  -2.377363e+05   1.822367e+04
  -1.450395e+03  -1.903047e+05
   2.133421e+05  -1.496143e+05
   1.677315e+05   3.725268e+04
  -6.838600e+04   8.725739e+04
  -1.978162e+05  -1.131445e+05
  -4.731343e+03  -3.487513e+05
   3.986125e+05  -2.978633e+05
   6.419973e+05   1.098863e+05
   4.511764e+05   5.912279e+05
  -6.332486e+04   7.644978e+05
  -5.039709e+05   4.968590e+05
  -5.782019e+05   1.229983e+04
  -3.566925e+05  -3.233237e+05
  -1.333127e+05  -3.300937e+05
  -8.354066e+04  -1.507066e+05
  -1.120612e+05  -6.749640e+04
  -1.876280e+04  -1.817956e+05
   2.381612e+05  -2.975567e+05
   4.624818e+05  -1.551761e+05
   3.935368e+05   2.306618e+05
  -2.669522e+04   5.231410e+05
  -5.367740e+05   3.917534e+05
  -7.285739e+05  -1.276640e+05
  -3.979530e+05  -6.345397e+05
   2.449755e+05  -7.295251e+05
   7.365163e+05  -3.693414e+05
   7.596961e+05   1.289273e+05
   3.956962e+05   4.060836e+05
  -6.017447e+03   3.746258e+05
  -1.750003e+05   2.383887e+05
  -1.303139e+05   2.286578e+05
  -8.559708e+04   3.410132e+05
  -1.898226e+05   3.494415e+05
  -3.676379e+05   8.253950e+04
  -4.005882e+05  -3.417624e+05
  -1.657188e+05  -5.929320e+05
   2.023418e+05  -4.473989e+05
   4.065049e+05  -1.394847e+04
   2.718350e+05   3.660261e+05
  -6.838518e+04   4.270579e+05
  -2.991598e+05   1.864261e+05
  -2.428285e+05  -1.218370e+05
  -2.652501e+04  -2.797512e+05
   8.366341e+04  -2.526276e+05
  -8.140048e+03  -1.609514e+05
  -1.208606e+05  -1.211598e+05
  -1.057208e+04  -1.264413e+05
   3.271427e+05  -7.803543e+04
   6.015701e+05   8.303186e+04
   5.028746e+05   2.916724e+05
   3.868154e+04   4.071237e+05
  -4.340864e+05   3.377884e+05
  -5.459176e+05   1.240563e+05
  -2.760075e+05  -8.530229e+04
   5.420389e+04  -1.449846e+05
   1.399244e+05  -3.861904e+04
  -1.049816e+04   9.023493e+04
  -1.576552e+05   6.900287e+04
  -1.412731e+05  -1.065755e+05
  -3.050807e+04  -2.390818e+05
   1.629899e+04  -1.530919e+05
  -4.672997e+04   6.454636e+04
  -1.242373e+05   1.359108e+05
  -9.773825e+04  -6.549756e+04
   6.513104e+04  -3.258469e+05
   2.771055e+05  -3.251886e+05
   3.683771e+05  -2.245178e+04
   2.089862e+05   2.876873e+05
  -1.297624e+05   3.094227e+05
  -3.591598e+05   5.780420e+04
  -2.212831e+05  -1.938182e+05
   2.048293e+05  -2.121033e+05
   5.161502e+05  -1.637780e+02
   3.803044e+05   2.532163e+05
  -1.001761e+05   3.491193e+05
  -4.794060e+05   2.212631e+05
  -4.299592e+05  -2.090812e+04
  -6.819515e+04  -1.720058e+05
   1.972528e+05  -1.079023e+05
   1.044678e+05   7.761804e+04
  -2.070239e+05   1.407748e+05
  -3.670505e+05  -6.231006e+04
  -1.660820e+05  -3.902547e+05
   2.383311e+05  -5.156308e+05
   4.916392e+05  -2.439268e+05
   3.916336e+05   2.579400e+05
   5.529290e+04   5.761480e+05
  -2.354772e+05   4.336961e+05
  -3.011975e+05  -2.635703e+04
  -1.672980e+05  -3.732725e+05
   3.042156e+04  -3.295907e+05
   1.666576e+05  -4.342264e+04
   1.769101e+05   1.267480e+05
   8.391933e+04   5.418652e+04
   3.133033e+03  -3.969642e+04
   4.227532e+04   7.246315e+04
   1.429298e+05   2.974725e+05
   9.779885e+04   3.487716e+05
  -1.826098e+05   1.310205e+05
  -4.733341e+05  -1.500445e+05
  -4.413855e+05  -2.659408e+05
  -6.272315e+04  -2.137178e+05
   3.022086e+05  -1.285422e+05
   3.238939e+05  -6.890981e+04
   8.752166e+04  -1.526357e+03
  -5.886968e+04   6.756595e+04
   2.574334e+04   8.266307e+04
   1.237605e+05   5.150810e+04
   7.119854e+02   4.543911e+04
  -2.523821e+05   5.829728e+04
  -3.262327e+05  -1.962862e+04
  -7.669452e+04  -2.146007e+05
   3.080270e+05  -3.451932e+05
   5.138736e+05  -2.024927e+05
   3.958244e+05   1.647285e+05
   6.546257e+04   4.519100e+05
  -2.380915e+05   4.181449e+05
  -3.335783e+05   1.393820e+05
  -2.121290e+05  -9.779312e+04
  -2.426147e+04  -1.138042e+05
   5.582631e+04   1.209622e+03
  -1.314873e+04   3.058194e+04
  -1.108463e+05  -1.059851e+05
  -8.922700e+04  -2.563829e+05
   6.827806e+04  -2.056355e+05
   2.222988e+05   6.714948e+04
   2.061538e+05   3.293238e+05
  -9.848086e+03   3.223918e+05
  -2.610781e+05   3.928623e+04
  -3.108721e+05  -2.654905e+05
  -8.033938e+04  -3.437824e+05
   2.346939e+05  -1.834981e+05
   3.350689e+05   4.024154e+04
   1.439778e+05   1.724885e+05
  -9.239205e+04   1.805386e+05
  -9.339513e+04   1.060758e+05
   1.094046e+05   1.595745e+04
   2.134977e+05  -3.895015e+03
   3.352497e+04   9.181794e+04
  -2.640749e+05   2.137031e+05
  -3.726679e+05   1.866473e+05
  -2.072418e+05  -3.571183e+04
   3.850249e+04  -2.607454e+05
   1.514300e+05  -2.533100e+05
   1.038133e+05  -2.539824e+04
  -2.405534e+03   1.644952e+05
  -8.407311e+04   1.188472e+05
  -1.122200e+05  -7.641601e+04
  -7.215094e+04  -1.846676e+05
   2.718140e+04  -1.086771e+05
   1.218593e+05   2.900153e+04
   1.379187e+05   7.191354e+04
   7.522733e+04   1.418425e+04
   4.676697e+03  -2.570048e+04
  -2.472149e+04   3.161278e+04
  -3.748916e+04   1.301807e+05
  -7.530614e+04   1.427252e+05
  -1.203575e+05   1.547726e+04
  -1.048188e+05  -1.565798e+05
   4.819023e+03  -2.102575e+05
   1.452512e+05  -8.269940e+04
   1.890074e+05   1.114736e+05
   6.194884e+04   1.940987e+05
  -1.539920e+05   1.076054e+05
  -2.611709e+05  -4.273039e+04
  -1.399843e+05  -1.231793e+05
   9.573320e+04  -1.028797e+05
   1.956687e+05  -4.121982e+04
   5.678929e+04   7.768844e+02
  -1.409303e+05  -3.387458e+03
  -1.404528e+05  -5.443091e+04
   8.023121e+04  -1.096911e+05
   2.777104e+05  -7.961799e+04
