
 $NMID
 id='ANONYMOUS ', fmtdat='(2E16.6)'
 volume=1.0
 tramp=1.0
 $END
  -6.055463e+07  -1.222444e+06
  -3.504898e+07  -3.889754e+07
   9.592545e+06  -4.081186e+07
   2.999424e+07  -1.420504e+07
   1.689669e+07   8.640100e+06
  -4.161151e+06   9.735922e+06
  -1.018902e+07  -2.067181e+06
  -2.203165e+06  -1.044393e+07
   7.002567e+06  -9.208073e+06
   1.017038e+07  -1.501160e+06
   7.212416e+06   6.640576e+06
   7.628547e+05   8.942381e+06
  -4.215448e+06   2.936632e+06
  -2.683275e+06  -5.432505e+06
   4.073634e+06  -6.464969e+06
   8.202792e+06   1.785332e+06
   4.336130e+06   1.089466e+07
  -4.361093e+06   1.234038e+07
  -1.089272e+07   6.078892e+06
  -1.159422e+07  -2.309628e+06
  -7.162451e+06  -8.204037e+06
  -6.350609e+05  -9.589270e+06
   3.591500e+06  -6.622436e+06
   2.570344e+06  -2.527021e+06
  -9.467278e+05  -1.653327e+06
  -5.249716e+05  -4.028111e+06
   5.289313e+06  -4.705497e+06
   9.942786e+06  -7.649110e+05
   7.458435e+06   4.246018e+06
   5.285181e+05   5.444691e+06
  -3.664339e+06   3.004608e+06
  -2.725631e+06   3.839388e+05
   8.325959e+04  -8.188191e+05
   1.881219e+06  -7.607483e+05
   2.310282e+06   1.045198e+06
   1.066719e+06   3.912901e+06
  -1.821027e+06   4.195877e+06
  -3.730937e+06   3.538715e+04
  -2.060836e+06  -3.995638e+06
   9.518148e+05  -2.390078e+06
   6.429888e+05   2.301931e+06
  -2.449908e+06   2.263128e+06
  -2.411355e+06  -3.464034e+06
   2.964492e+06  -6.395165e+06
   7.704173e+06  -7.482498e+05
   5.344854e+06   7.671488e+06
  -2.377506e+06   9.104528e+06
  -7.979025e+06   2.420086e+06
  -7.076558e+06  -4.760594e+06
  -1.658107e+06  -6.194428e+06
   3.614926e+06  -2.598430e+06
   5.211739e+06   1.749355e+06
   2.236531e+06   3.632902e+06
  -2.671788e+06   2.151623e+06
  -4.701756e+06  -1.150110e+06
  -1.902891e+06  -2.939602e+06
   1.864319e+06  -1.391499e+06
   1.697375e+06   1.087882e+06
  -1.533951e+06   7.434548e+05
  -2.450814e+06  -2.189311e+06
   1.093879e+06  -3.740513e+06
   5.213549e+06  -1.759087e+06
   5.553672e+06   1.773610e+06
   2.254435e+06   4.330106e+06
  -1.889888e+06   5.497162e+06
  -5.078947e+06   5.069398e+06
  -6.415220e+06   1.896160e+06
  -4.881266e+06  -3.249340e+06
  -1.021810e+06  -6.396057e+06
   2.045518e+06  -4.804340e+06
   1.869436e+06  -9.847111e+05
  -5.221971e+04   4.756531e+05
  -3.991665e+05  -1.034519e+06
   1.394931e+06  -2.077921e+06
   2.861702e+06  -5.542075e+05
   2.227105e+06   1.725200e+06
   2.574462e+05   2.100677e+06
  -1.392126e+06   3.239989e+05
  -1.674134e+06  -1.913059e+06
  -1.003834e+05  -2.915876e+06
   2.775282e+06  -1.796356e+06
   4.679733e+06   1.113705e+06
   3.439819e+06   3.926136e+06
  -4.809148e+04   4.521503e+06
  -2.493868e+06   2.889417e+06
  -2.437085e+06   1.115482e+06
  -1.908794e+06   5.842640e+05
  -2.948547e+06   4.009052e+05
  -4.347644e+06  -8.111934e+05
  -3.475548e+06  -2.781756e+06
  -1.350906e+05  -4.109179e+06
   3.145963e+06  -3.917323e+06
   4.114838e+06  -2.230086e+06
   2.710168e+06   2.998798e+05
   4.218484e+05   2.228616e+06
  -1.009189e+06   2.018564e+06
  -5.876276e+05   4.578391e+03
   1.048232e+06  -1.344515e+06
   1.933271e+06  -4.155933e+05
   9.768825e+05   1.233899e+06
  -4.696995e+05   1.122936e+06
  -3.542162e+05  -3.770639e+05
   1.136468e+06  -5.536755e+05
   1.779062e+06   1.532658e+06
   3.799511e+05   3.577898e+06
  -1.839818e+06   3.197656e+06
  -3.142214e+06   7.948392e+05
  -3.104361e+06  -1.558666e+06
  -2.102681e+06  -2.643269e+06
  -4.364342e+05  -2.485194e+06
   1.186777e+06  -1.462833e+06
   1.552461e+06  -2.712405e+05
   4.907090e+05   4.224901e+04
  -3.567204e+05  -7.501393e+05
   4.453350e+05  -1.362255e+06
   1.960675e+06  -5.720398e+05
   2.044669e+06   9.402513e+05
   3.479930e+05   1.446773e+06
  -1.178043e+06   5.515317e+05
  -8.397079e+05  -4.451886e+05
   8.573373e+05  -4.340092e+05
   2.080802e+06   3.899076e+05
   1.620797e+06   1.314038e+06
  -2.798836e+05   1.865183e+06
  -2.262415e+06   1.594858e+06
  -2.743113e+06   2.669539e+05
  -1.216502e+06  -1.287517e+06
   9.455640e+05  -1.542533e+06
   1.613885e+06  -1.918183e+05
   2.263045e+05   1.115976e+06
  -1.525846e+06   7.492058e+05
  -1.704811e+06  -8.004906e+05
  -2.882907e+05  -1.640075e+06
   1.115811e+06  -9.129274e+05
   1.221905e+06   3.685936e+05
   1.928955e+05   7.881499e+05
  -8.243628e+05   3.824856e+04
  -7.515511e+05  -1.062546e+06
   5.577290e+05  -1.439392e+06
   2.003442e+06  -5.723844e+05
   2.051267e+06   1.032564e+06
   3.902710e+05   2.079908e+06
  -1.452842e+06   1.641272e+06
  -1.725867e+06   1.917127e+05
  -4.780973e+05  -8.718232e+05
   6.638567e+05  -7.859007e+05
   6.017982e+05  -8.938086e+04
  -1.289022e+05   2.980348e+05
  -4.298827e+05   1.641153e+05
  -3.648890e+04  -2.571689e+04
   4.725950e+05   1.656228e+05
   4.739331e+05   7.246527e+05
  -2.510209e+05   1.183265e+06
  -1.389496e+06   8.802040e+05
  -2.076122e+06  -4.145429e+05
  -1.471555e+06  -1.937235e+06
   2.007282e+05  -2.401825e+06
   1.583994e+06  -1.373722e+06
   1.631498e+06   1.400104e+05
   8.036983e+05   8.323556e+05
   3.242066e+05   5.455468e+05
   5.424713e+05   1.699888e+05
   6.804233e+05   3.479060e+05
   9.187982e+04   8.029712e+05
  -8.859126e+05   8.838892e+05
  -1.419412e+06   2.986123e+05
  -1.004673e+06  -6.913862e+05
   2.595105e+05  -1.393912e+06
   1.693725e+06  -1.038259e+06
   2.215270e+06   4.767719e+05
   1.103701e+06   2.087984e+06
  -1.044149e+06   2.350408e+06
  -2.553857e+06   9.931766e+05
  -2.304709e+06  -6.923719e+05
  -8.836045e+05  -1.311764e+06
   2.241731e+05  -8.697159e+05
   3.262423e+05  -4.639513e+05
  -3.849970e+03  -7.784887e+05
   6.971810e+04  -1.361492e+06
   6.841907e+05  -1.320045e+06
   1.314975e+06  -3.299917e+05
   1.351650e+06   1.065587e+06
   5.733021e+05   1.881146e+06
  -6.028478e+05   1.436326e+06
  -1.271551e+06  -4.090562e+03
  -7.946628e+05  -1.293395e+06
   4.215318e+05  -1.385372e+06
   1.188249e+06  -3.511622e+05
   7.976506e+05   7.629044e+05
  -1.770718e+05   1.098287e+06
  -5.903840e+05   7.561253e+05
  -1.013776e+05   3.822133e+05
   4.491761e+05   3.204258e+05
   7.155552e+04   3.773599e+05
  -1.162213e+06   2.017122e+05
  -2.083521e+06  -3.398644e+05
  -1.610904e+06  -1.044678e+06
   7.636610e+04  -1.448570e+06
   1.625431e+06  -1.146557e+06
   1.831091e+06  -2.537683e+05
   8.042948e+05   5.364506e+05
  -2.839932e+05   5.875848e+05
  -5.178829e+05   1.111989e+04
  -4.186562e+04  -4.555520e+05
   4.237980e+05  -2.751813e+05
   4.893062e+05   3.369959e+05
   3.025939e+05   7.162181e+05
   1.391132e+05   4.831674e+05
   1.241713e+05  -6.805668e+04
   2.351079e+05  -2.656739e+05
   2.667472e+05   2.319237e+05
  -1.084780e+05   9.739333e+05
  -8.903990e+05   1.076362e+06
  -1.410914e+06   2.023571e+05
  -9.069344e+05  -9.133555e+05
   4.125151e+05  -1.178305e+06
   1.288272e+06  -3.824175e+05
   7.463089e+05   5.510514e+05
  -7.026309e+05   6.395554e+05
  -1.555564e+06  -1.031407e+05
  -9.453578e+05  -8.488499e+05
   5.088931e+05  -9.400845e+05
   1.459786e+06  -4.269785e+05
   1.178760e+06   2.043110e+05
   1.163706e+05   4.938944e+05
  -6.442233e+05   2.496127e+05
  -3.966046e+05  -3.071760e+05
   5.598904e+05  -5.542469e+05
   1.191591e+06   3.191970e+04
   7.312442e+05   1.158797e+06
  -5.165491e+05   1.733687e+06
  -1.447176e+06   9.414885e+05
  -1.267275e+06  -7.175593e+05
  -2.361293e+05  -1.768670e+06
   7.117257e+05  -1.269729e+06
   9.051386e+05   1.931246e+05
   4.088151e+05   1.175544e+06
  -2.438321e+05   9.311592e+05
  -5.662039e+05   6.912661e+04
  -4.372384e+05  -3.545590e+05
  -1.309019e+05  -1.152354e+05
  -5.844017e+04   8.116908e+04
  -3.282551e+05  -3.253561e+05
  -5.365626e+05  -9.676388e+05
  -1.617795e+05  -1.050805e+06
   7.531334e+05  -3.829538e+05
   1.463965e+06   4.380580e+05
   1.240550e+06   8.041195e+05
   1.865151e+05   6.991331e+05
  -8.045408e+05   4.417007e+05
  -9.576739e+05   1.841569e+05
  -3.867505e+05  -7.672318e+04
   1.267761e+05  -2.338152e+05
   7.317270e+04  -1.722879e+05
  -2.213804e+05  -5.281341e+04
  -7.282096e+04  -1.323980e+05
   6.045507e+05  -2.776645e+05
   1.052212e+06  -2.414869e+04
   5.178936e+05   7.036246e+05
  -7.712663e+05   1.231748e+06
  -1.719217e+06   8.217915e+05
  -1.485241e+06  -3.816643e+05
  -3.281520e+05  -1.390537e+06
   7.506867e+05  -1.403372e+06
   1.042027e+06  -5.958724e+05
   6.570496e+05   1.859581e+05
   1.641087e+05   3.594682e+05
  -2.952820e+04   1.072115e+05
   9.068688e+04   1.989121e+04
   2.807533e+05   3.710688e+05
   2.441220e+05   7.967298e+05
  -1.537101e+05   6.952330e+05
  -6.788926e+05  -6.576137e+04
  -7.999532e+05  -9.007121e+05
  -2.001354e+05  -1.042633e+06
   7.220040e+05  -3.242844e+05
   1.078141e+06   6.462711e+05
   4.117095e+05   1.086860e+06
  -6.914636e+05   7.363976e+05
  -1.147239e+06  -3.310635e+04
  -5.709333e+05  -6.379010e+05
   2.799940e+05  -7.319441e+05
   4.137567e+05  -3.812395e+05
  -2.028473e+05   2.464718e+04
  -6.360006e+05   6.722288e+04
  -1.698500e+05  -3.156435e+05
   8.043306e+05  -6.932897e+05
   1.277104e+06  -5.297479e+05
   8.071615e+05   2.026345e+05
  -7.108693e+04   8.904893e+05
  -5.732620e+05   8.824612e+05
  -4.749068e+05   2.004095e+05
  -9.676846e+04  -4.611581e+05
   2.214888e+05  -4.698104e+05
   3.605788e+05   9.238454e+04
   2.780432e+05   5.684642e+05
  -3.488495e+04   4.706084e+05
  -3.970179e+05  -1.371885e+04
  -4.935545e+05  -2.996874e+05
  -2.407595e+05  -1.169430e+05
   5.532813e+04   1.875319e+05
   7.244547e+04   1.131308e+05
  -8.952870e+04  -3.343411e+05
  -4.699495e+04  -6.149615e+05
   2.971700e+05  -3.148381e+05
   5.383263e+05   3.208257e+05
   2.583210e+05   6.482571e+05
  -3.784653e+05   3.535495e+05
  -7.081386e+05  -2.326072e+05
  -2.985540e+05  -5.502278e+05
   5.101517e+05  -3.859773e+05
   9.149192e+05   3.074786e+04
   5.047812e+05   3.629254e+05
  -2.861537e+05   4.440463e+05
  -6.505051e+05   2.891827e+05
  -2.871463e+05   2.803532e+04
   2.988450e+05  -1.254031e+05
   3.977918e+05  -5.072437e+03
  -1.114573e+05   2.722672e+05
  -6.652339e+05   3.090886e+05
