
 $NMID
 id='ANONYMOUS ', fmtdat='(2E16.6)'
 volume=1.0
 tramp=1.0
 $END
   4.095879e+07   2.382597e+06
   2.376785e+07   2.479314e+07
  -5.426136e+06   2.664394e+07
  -1.968409e+07   1.144458e+07
  -1.232221e+07  -3.547426e+06
   1.729679e+06  -6.700810e+06
   7.279461e+06  -1.919375e+05
   2.932144e+06   6.883155e+06
  -3.901283e+06   7.853453e+06
  -7.169619e+06   2.215925e+06
  -5.366190e+06  -4.995309e+06
  -4.161696e+05  -7.034532e+06
   3.371812e+06  -1.816003e+06
   2.230366e+06   5.025157e+06
  -2.751826e+06   5.752668e+06
  -5.971850e+06  -6.935580e+05
  -3.438507e+06  -7.742101e+06
   2.889744e+06  -8.920666e+06
   7.738392e+06  -4.085173e+06
   7.864977e+06   2.220150e+06
   4.072936e+06   5.891732e+06
  -2.819829e+05   5.817976e+06
  -1.851138e+06   3.584550e+06
  -4.223627e+04   2.051320e+06
   1.828296e+06   2.852391e+06
  -2.168729e+05   4.365259e+06
  -5.480566e+06   3.406466e+06
  -8.442061e+06  -4.739032e+05
  -5.366782e+06  -3.973144e+06
   7.785540e+05  -4.073354e+06
   3.946907e+06  -1.456739e+06
   2.099443e+06   1.034776e+06
  -1.528393e+06   1.641966e+06
  -3.188412e+06   2.783402e+05
  -2.144527e+06  -2.243711e+06
   1.584564e+05  -3.994774e+06
   1.973098e+06  -2.745317e+06
   2.026320e+06   9.236307e+05
   4.184283e+05   2.913206e+06
  -8.284475e+05   5.771413e+05
   1.751678e+05  -2.874476e+06
   2.229435e+06  -2.174267e+06
   1.995567e+06   2.311844e+06
  -1.387989e+06   4.439043e+06
  -4.439194e+06   6.448250e+05
  -3.336234e+06  -4.988366e+06
   1.420407e+06  -6.020969e+06
   5.598315e+06  -1.553923e+06
   5.695528e+06   3.577946e+06
   1.860329e+06   4.969187e+06
  -2.779265e+06   2.540342e+06
  -4.655667e+06  -9.132846e+05
  -2.434930e+06  -2.698595e+06
   1.628851e+06  -1.814224e+06
   3.509178e+06   5.784682e+05
   1.626518e+06   1.979933e+06
  -1.286220e+06   1.035981e+06
  -1.609202e+06  -7.786164e+05
   5.724972e+05  -9.869184e+05
   1.847860e+06   6.473511e+05
   1.346055e+05   1.980718e+06
  -2.811665e+06   1.392640e+06
  -3.838009e+06  -6.375713e+05
  -1.846492e+06  -2.813116e+06
   1.744454e+06  -4.196870e+06
   4.695886e+06  -3.820663e+06
   5.348296e+06  -9.933011e+05
   3.419365e+06   3.034311e+06
   4.152859e+05   5.246160e+06
  -1.375949e+06   4.084361e+06
  -1.145619e+06   1.509845e+06
  -3.856636e+05   4.832143e+05
  -8.420296e+05   1.172746e+06
  -2.239952e+06   1.234574e+06
  -2.820695e+06  -5.202172e+05
  -1.654517e+06  -2.443832e+06
   4.341560e+05  -2.328447e+06
   1.915600e+06  -1.044657e+05
   1.733697e+06   2.275182e+06
  -1.934566e+05   2.860273e+06
  -2.689536e+06   1.203902e+06
  -3.746403e+06  -1.498638e+06
  -2.303333e+06  -3.341617e+06
   3.346404e+05  -3.243327e+06
   1.815613e+06  -1.894208e+06
   1.597739e+06  -8.751650e+05
   1.434018e+06  -7.602830e+05
   2.640750e+06  -5.962360e+05
   3.993589e+06   6.186808e+05
   3.241819e+06   2.550001e+06
   1.112627e+05   3.898586e+06
  -3.158859e+06   3.658046e+06
  -4.145755e+06   1.796154e+06
  -2.492719e+06  -7.122384e+05
   4.997360e+04  -2.254087e+06
   1.313158e+06  -1.722936e+06
   5.188092e+05   1.440366e+05
  -1.144450e+06   1.194037e+06
  -1.756274e+06   3.083316e+05
  -7.201763e+05  -1.129975e+06
   5.994433e+05  -1.075977e+06
   5.692858e+05   3.240842e+05
  -7.232912e+05   8.838493e+05
  -1.666663e+06  -6.347445e+05
  -1.052005e+06  -2.834239e+06
   7.978181e+05  -3.399506e+06
   2.651559e+06  -1.679622e+06
   3.411181e+06   9.520146e+05
   2.582590e+06   2.689637e+06
   5.613880e+05   2.699340e+06
  -1.285839e+06   1.427560e+06
  -1.582373e+06   1.447601e+05
  -4.740381e+05  -5.112201e+04
   3.412196e+05   7.186839e+05
  -3.558991e+05   1.203227e+06
  -1.706307e+06   5.072488e+05
  -1.862740e+06  -7.628949e+05
  -4.042179e+05  -1.261458e+06
   1.092167e+06  -5.697319e+05
   9.466125e+05   4.190696e+05
  -7.258938e+05   6.464502e+05
  -2.204742e+06  -1.065977e+05
  -1.917129e+06  -1.283006e+06
   1.064178e+05  -2.046816e+06
   2.246297e+06  -1.707067e+06
   2.694794e+06  -2.796027e+05
   1.135744e+06   1.171884e+06
  -8.679346e+05   1.330303e+06
  -1.390330e+06   1.253890e+05
  -1.114543e+05  -9.869041e+05
   1.445041e+06  -6.654797e+05
   1.646600e+06   7.132937e+05
   4.087520e+05   1.566118e+06
  -9.598182e+05   1.021801e+06
  -1.220476e+06  -1.805855e+05
  -3.177664e+05  -6.989078e+05
   7.015590e+05  -5.634092e+04
   6.669999e+05   1.006950e+06
  -6.004633e+05   1.347411e+06
  -1.952921e+06   4.618795e+05
  -1.928667e+06  -1.056207e+06
  -3.416783e+05  -1.983376e+06
   1.364416e+06  -1.557640e+06
   1.641358e+06  -2.223183e+05
   5.142590e+05   8.129917e+05
  -6.150812e+05   7.915421e+05
  -6.715355e+05   6.974694e+04
   5.244707e+04  -4.457305e+05
   5.459996e+05  -3.186348e+05
   2.952886e+05   6.939483e+04
  -3.206699e+05   5.942631e+04
  -5.275414e+05  -5.232411e+05
   1.265780e+05  -1.108127e+06
   1.304958e+06  -8.685111e+05
   1.998598e+06   4.036810e+05
   1.384649e+06   1.883005e+06
  -2.336847e+05   2.358655e+06
  -1.578006e+06   1.429612e+06
  -1.703690e+06  -6.576575e+04
  -9.519904e+05  -9.329525e+05
  -3.640018e+05  -8.118536e+05
  -3.785547e+05  -3.440519e+05
  -4.810172e+05  -2.823168e+05
  -5.287530e+04  -6.654534e+05
   8.147994e+05  -8.774377e+05
   1.416533e+06  -3.655447e+05
   1.096146e+06   7.174081e+05
  -1.862175e+05   1.497788e+06
  -1.676156e+06   1.092024e+06
  -2.206143e+06  -4.640902e+05
  -1.130157e+06  -2.014643e+06
   9.118196e+05  -2.258110e+06
   2.392346e+06  -1.026683e+06
   2.298319e+06   5.578540e+05
   1.045408e+06   1.280818e+06
  -1.195165e+05   1.017342e+06
  -4.479876e+05   6.071512e+05
  -2.337591e+05   7.352923e+05
  -1.998628e+05   1.181602e+06
  -6.465423e+05   1.166437e+06
  -1.210938e+06   2.649549e+05
  -1.261583e+06  -1.072761e+06
  -5.064941e+05  -1.847546e+06
   6.314340e+05  -1.386365e+06
   1.251408e+06  -4.287125e+03
   7.923173e+05   1.203271e+06
  -3.226382e+05   1.329382e+06
  -1.034815e+06   4.530520e+05
  -7.489519e+05  -5.546183e+05
   5.090442e+04  -9.538432e+05
   4.115677e+05  -7.507600e+05
   3.407603e+04  -4.412357e+05
  -3.980004e+05  -3.578663e+05
  -4.132444e+04  -3.840363e+05
   1.072163e+06  -2.000992e+05
   1.934108e+06   3.281504e+05
   1.547363e+06   9.817903e+05
   9.826717e+03   1.325414e+06
  -1.471660e+06   1.051353e+06
  -1.738808e+06   2.956577e+05
  -8.142388e+05  -3.906480e+05
   2.280029e+05  -4.991386e+05
   4.652477e+05  -6.155125e+04
  -1.131763e+04   3.565136e+05
  -4.641296e+05   2.327957e+05
  -4.516782e+05  -3.403774e+05
  -1.718851e+05  -7.326176e+05
  -2.441144e+04  -4.791435e+05
  -1.351440e+05   1.380899e+05
  -3.177437e+05   3.456319e+05
  -2.761150e+05  -2.186592e+05
   1.781981e+05  -9.821712e+05
   8.820320e+05  -1.009591e+06
   1.249579e+06  -9.824137e+04
   7.371543e+05   9.101998e+05
  -4.248284e+05   1.037051e+06
  -1.187569e+06   2.415711e+05
  -6.976219e+05  -5.873064e+05
   6.692894e+05  -6.318901e+05
   1.564136e+06   6.943753e+04
   1.052193e+06   8.186319e+05
  -4.081014e+05   1.000246e+06
  -1.464968e+06   5.439313e+05
  -1.248239e+06  -1.415972e+05
  -1.610707e+05  -5.117092e+05
   6.218139e+05  -2.846639e+05
   3.462986e+05   2.729130e+05
  -6.096057e+05   4.747137e+05
  -1.151079e+06  -1.407333e+05
  -5.858551e+05  -1.190503e+06
   6.653500e+05  -1.637339e+06
   1.495210e+06  -8.077074e+05
   1.216444e+06   7.783818e+05
   1.696969e+05   1.767773e+06
  -7.349800e+05   1.288884e+06
  -9.077857e+05  -1.432707e+05
  -4.470508e+05  -1.158673e+06
   1.707739e+05  -9.658806e+05
   5.320370e+05  -9.491188e+04
   4.896302e+05   3.773235e+05
   2.009710e+05   1.428735e+05
   3.111721e+04  -1.027898e+05
   2.079116e+05   2.736596e+05
   4.637742e+05   9.426884e+05
   2.243233e+05   1.058503e+06
  -6.467884e+05   3.780248e+05
  -1.446302e+06  -4.721415e+05
  -1.288392e+06  -8.259893e+05
  -1.769298e+05  -6.751581e+05
   8.795440e+05  -4.025361e+05
   9.773204e+05  -1.842632e+05
   3.159359e+05   3.864866e+04
  -1.608362e+05   2.176130e+05
   1.141622e+04   2.149396e+05
   3.100723e+05   1.130007e+05
   2.994128e+04   1.371499e+05
  -7.041384e+05   2.132924e+05
  -1.020552e+06  -4.081089e+04
  -3.442440e+05  -6.879241e+05
   8.888490e+05  -1.120660e+06
   1.648705e+06  -6.763594e+05
   1.322858e+06   4.784380e+05
   2.326639e+05   1.390848e+06
  -7.609329e+05   1.317456e+06
  -1.039378e+06   4.809705e+05
  -6.491155e+05  -2.601780e+05
  -1.065643e+05  -3.554832e+05
   1.128698e+05  -4.542929e+04
  -5.972690e+04   4.216236e+04
  -3.064363e+05  -3.469306e+05
  -2.476136e+05  -7.906460e+05
   1.956699e+05  -6.545317e+05
   6.788662e+05   1.547870e+05
   6.903922e+05   9.741389e+05
   5.240979e+04   1.015677e+06
  -7.727142e+05   1.981849e+05
  -9.969761e+05  -7.583000e+05
  -2.990728e+05  -1.074305e+06
   7.198824e+05  -6.250595e+05
   1.076354e+06   1.043925e+05
   4.833755e+05   5.847799e+05
  -2.952738e+05   6.233509e+05
  -3.462420e+05   3.393878e+05
   2.797033e+05   1.855554e+04
   6.465276e+05  -2.550103e+04
   1.255383e+05   2.992969e+05
  -8.163886e+05   6.572330e+05
  -1.204511e+06   5.302645e+05
  -7.028003e+05  -1.646630e+05
   1.127750e+05  -8.360860e+05
   5.253905e+05  -8.090920e+05
   3.899305e+05  -1.199982e+05
   3.073307e+04   4.877238e+05
  -2.507799e+05   4.055707e+05
  -3.510980e+05  -1.787941e+05
  -2.359278e+05  -5.708261e+05
   7.198734e+04  -3.915022e+05
   3.836564e+05   6.280336e+04
   4.461202e+05   2.626461e+05
   2.313771e+05   7.898106e+04
  -1.091110e+04  -1.271147e+05
  -6.887866e+04   5.337781e+03
  -3.079530e+04   3.749129e+05
  -1.233447e+05   5.180135e+05
  -3.466032e+05   1.588717e+05
  -4.114236e+05  -4.223597e+05
  -9.231442e+04  -6.529971e+05
   4.225977e+05  -2.908259e+05
   6.310615e+05   3.072819e+05
   2.279022e+05   5.804556e+05
  -4.940527e+05   3.441570e+05
  -8.484368e+05  -1.038061e+05
  -4.549741e+05  -3.792707e+05
   2.984105e+05  -3.655472e+05
   6.272232e+05  -1.852657e+05
   2.235259e+05  -4.305130e+03
  -3.775783e+05   4.600648e+04
  -4.184580e+05  -9.781503e+04
   1.902861e+05  -3.084333e+05
   7.747816e+05  -2.643248e+05
