
 $NMID
 id='ANONYMOUS ', fmtdat='(2E16.6)'
 volume=1.0
 tramp=1.0
 $END
  -4.057452e+07   3.015409e+06
  -2.756054e+07  -2.135391e+07
   1.363226e+06  -2.754840e+07
   1.863952e+07  -1.444915e+07
   1.364002e+07   1.956000e+06
  -7.519317e+05   7.297472e+06
  -7.816608e+06   1.194394e+06
  -4.054065e+06  -6.944506e+06
   3.309562e+06  -8.798371e+06
   7.288125e+06  -3.191607e+06
   5.891794e+06   4.468596e+06
   1.012178e+06   7.010809e+06
  -3.103842e+06   2.066607e+06
  -2.470243e+06  -4.979245e+06
   2.443715e+06  -6.236736e+06
   6.262021e+06  -1.892240e+04
   4.390623e+06   7.458499e+06
  -1.865999e+06   9.352172e+06
  -7.181489e+06   4.983422e+06
  -7.906379e+06  -1.219295e+06
  -4.659116e+06  -5.081357e+06
  -6.699966e+05  -5.519909e+06
   9.909250e+05  -3.935414e+06
  -2.803822e+05  -2.673444e+06
  -1.717098e+06  -3.175920e+06
   2.531904e+05  -4.336596e+06
   5.260311e+06  -3.492103e+06
   8.293022e+06   2.509284e+04
   5.529786e+06   3.450492e+06
  -4.709311e+05   3.804078e+06
  -3.675749e+06   1.416845e+06
  -1.804387e+06  -9.613825e+05
   1.822303e+06  -1.434161e+06
   3.241222e+06  -1.736908e+04
   1.959755e+06   2.296474e+06
  -1.730322e+05   3.823860e+06
  -1.633409e+06   2.733554e+06
  -1.764447e+06  -5.643401e+05
  -6.427475e+05  -2.525189e+06
   4.024696e+05  -5.217797e+05
  -3.042700e+05   2.801530e+06
  -2.206298e+06   2.329801e+06
  -2.346396e+06  -2.156849e+06
   7.618782e+05  -4.835230e+06
   4.307839e+06  -1.525214e+06
   4.040456e+06   4.400506e+06
  -5.343607e+05   6.241161e+06
  -5.356312e+06   2.226579e+06
  -6.119870e+06  -3.145021e+06
  -2.324705e+06  -5.030840e+06
   2.729973e+06  -2.865326e+06
   4.964210e+06   6.481174e+05
   2.795245e+06   2.703494e+06
  -1.484956e+06   2.124196e+06
  -3.674822e+06  -1.970258e+05
  -1.923525e+06  -1.869657e+06
   1.176524e+06  -1.206182e+06
   1.737803e+06   7.228637e+05
  -5.605435e+05   1.269487e+06
  -2.237121e+06  -3.804647e+05
  -6.782060e+05  -2.206396e+06
   2.613572e+06  -2.036234e+06
   4.112770e+06   8.996899e+04
   2.291044e+06   2.653070e+06
  -1.381933e+06   4.299742e+06
  -4.419056e+06   4.038752e+06
  -5.189387e+06   1.332691e+06
  -3.535696e+06  -2.681797e+06
  -7.755467e+05  -5.161881e+06
   1.108472e+06  -4.337569e+06
   1.219585e+06  -1.781857e+06
   6.402140e+05  -4.645552e+05
   9.526826e+05  -9.399557e+05
   2.129995e+06  -1.063938e+06
   2.653373e+06   5.320049e+05
   1.547447e+06   2.385668e+06
  -4.929728e+05   2.253651e+06
  -1.948196e+06   1.233193e+04
  -1.750529e+06  -2.336397e+06
   1.408774e+05  -2.869879e+06
   2.590782e+06  -1.278426e+06
   3.730430e+06   1.260829e+06
   2.504503e+06   3.075043e+06
   1.152498e+04   3.188134e+06
  -1.543643e+06   2.081397e+06
  -1.510121e+06   1.117087e+06
  -1.466599e+06   9.366995e+05
  -2.725507e+06   7.570759e+05
  -4.138838e+06  -4.500408e+05
  -3.426893e+06  -2.476819e+06
  -2.497032e+05  -3.983278e+06
   3.103013e+06  -3.808763e+06
   4.118571e+06  -1.902346e+06
   2.465316e+06   6.516581e+05
  -3.780954e+04   2.207231e+06
  -1.260708e+06   1.708362e+06
  -4.966742e+05  -1.298960e+05
   1.119844e+06  -1.219768e+06
   1.760531e+06  -3.907877e+05
   7.728557e+05   1.077418e+06
  -5.892167e+05   1.085148e+06
  -6.187335e+05  -3.674828e+05
   7.741006e+05  -1.043341e+06
   1.930916e+06   5.294182e+05
   1.363687e+06   2.997982e+06
  -7.228725e+05   3.769344e+06
  -2.863015e+06   1.958625e+06
  -3.688952e+06  -9.343044e+05
  -2.733910e+06  -2.821608e+06
  -5.948401e+05  -2.804085e+06
   1.287204e+06  -1.469690e+06
   1.594521e+06  -1.687837e+05
   4.849528e+05   3.856443e+04
  -3.730522e+05  -7.249895e+05
   2.953234e+05  -1.254792e+06
   1.709679e+06  -6.150813e+05
   1.960692e+06   6.875410e+05
   4.909068e+05   1.288062e+06
  -1.107975e+06   6.312374e+05
  -9.950852e+05  -4.328498e+05
   7.727488e+05  -7.253368e+05
   2.342371e+06   7.079434e+04
   2.025029e+06   1.343027e+06
  -9.497332e+04   2.157995e+06
  -2.294918e+06   1.815195e+06
  -2.762043e+06   3.597940e+05
  -1.215013e+06  -1.151893e+06
   8.067551e+05  -1.390520e+06
   1.395236e+06  -2.083094e+05
   1.595141e+05   9.758671e+05
  -1.444628e+06   7.296099e+05
  -1.724361e+06  -6.765019e+05
  -4.803229e+05  -1.623380e+06
   9.786724e+05  -1.115170e+06
   1.302172e+06   1.455572e+05
   3.713435e+05   7.345453e+05
  -7.157195e+05   1.037733e+05
  -7.153882e+05  -9.959532e+05
   5.677938e+05  -1.381605e+06
   1.966597e+06  -5.229281e+05
   1.991445e+06   1.014530e+06
   4.150118e+05   2.012175e+06
  -1.341339e+06   1.646155e+06
  -1.682952e+06   2.870651e+05
  -5.627631e+05  -8.284115e+05
   6.123351e+05  -8.388470e+05
   6.883006e+05  -6.894255e+04
  -7.371635e+04   4.868333e+05
  -5.978581e+05   3.223328e+05
  -3.115933e+05  -1.285836e+05
   3.712176e+05  -1.188296e+05
   6.047011e+05   5.251613e+05
  -7.933537e+04   1.165678e+06
  -1.312880e+06   9.406535e+05
  -2.059761e+06  -3.509625e+05
  -1.471765e+06  -1.879428e+06
   1.792493e+05  -2.417771e+06
   1.601948e+06  -1.509099e+06
   1.773989e+06   4.159631e+04
   9.848781e+05   9.787331e+05
   3.318953e+05   8.527455e+05
   3.447892e+05   3.177155e+05
   5.028886e+05   2.279097e+05
   9.910910e+04   6.642282e+05
  -8.112320e+05   9.360110e+05
  -1.462655e+06   4.123269e+05
  -1.142023e+06  -7.357457e+05
   1.774666e+05  -1.566994e+06
   1.709050e+06  -1.167080e+06
   2.279242e+06   4.243924e+05
   1.225208e+06   2.045859e+06
  -8.557406e+05   2.365444e+06
  -2.432095e+06   1.148620e+06
  -2.404973e+06  -5.113323e+05
  -1.120575e+06  -1.328589e+06
   1.279791e+05  -1.082207e+06
   4.884110e+05  -6.144446e+05
   2.290758e+05  -7.017366e+05
   1.449677e+05  -1.175884e+06
   5.994008e+05  -1.211617e+06
   1.215953e+06  -3.195911e+05
   1.312498e+06   1.053071e+06
   5.652530e+05   1.868762e+06
  -6.077515e+05   1.428393e+06
  -1.286192e+06   3.772346e+04
  -8.620351e+05  -1.211973e+06
   2.820041e+05  -1.392620e+06
   1.066950e+06  -5.314927e+05
   8.278010e+05   5.278658e+05
   1.141491e+04   1.001362e+06
  -3.930210e+05   8.223470e+05
  -3.464682e+04   4.738162e+05
   4.046977e+05   3.491159e+05
   4.749344e+04   3.869083e+05
  -1.090705e+06   2.507154e+05
  -1.987297e+06  -2.577923e+05
  -1.622327e+06  -9.548730e+05
  -7.448689e+04  -1.373702e+06
   1.455813e+06  -1.143092e+06
   1.783571e+06  -3.671900e+05
   8.803087e+05   3.758888e+05
  -1.985193e+05   5.253010e+05
  -4.850366e+05   8.937739e+04
  -1.623319e+04  -3.474617e+05
   4.642499e+05  -2.372438e+05
   4.683752e+05   3.309167e+05
   1.805376e+05   7.190276e+05
   2.922945e+04   4.643661e+05
   1.529891e+05  -1.468920e+05
   3.429753e+05  -3.479442e+05
   2.923035e+05   2.197827e+05
  -1.675900e+05   9.970926e+05
  -8.672297e+05   1.054541e+06
  -1.246390e+06   1.601557e+05
  -7.672971e+05  -8.783062e+05
   3.806980e+05  -1.062745e+06
   1.174785e+06  -2.892877e+05
   7.180916e+05   5.786354e+05
  -6.694480e+05   6.715116e+05
  -1.616968e+06  -3.613666e+04
  -1.113422e+06  -8.406876e+05
   4.044541e+05  -1.064456e+06
   1.520782e+06  -5.980444e+05
   1.304894e+06   1.298066e+05
   1.756580e+05   5.338118e+05
  -6.392476e+05   3.139568e+05
  -3.666675e+05  -2.585044e+05
   6.001371e+05  -4.843954e+05
   1.157369e+06   1.163871e+05
   6.115075e+05   1.177708e+06
  -6.339132e+05   1.655566e+06
  -1.489591e+06   8.431493e+05
  -1.249438e+06  -7.644293e+05
  -2.097606e+05  -1.796571e+06
   7.322688e+05  -1.336344e+06
   9.477517e+05   1.242200e+05
   4.917036e+05   1.188261e+06
  -1.572195e+05   1.015634e+06
  -5.483027e+05   1.191762e+05
  -5.095316e+05  -3.905353e+05
  -2.077411e+05  -1.606308e+05
  -3.297908e+04   1.141633e+05
  -2.240302e+05  -2.446956e+05
  -4.986721e+05  -9.392691e+05
  -2.564372e+05  -1.097692e+06
   6.478730e+05  -4.276144e+05
   1.487214e+06   4.507434e+05
   1.340086e+06   8.324577e+05
   2.019107e+05   6.858207e+05
  -8.902578e+05   4.129597e+05
  -1.001231e+06   2.065498e+05
  -3.297787e+05  -1.342250e+04
   1.587754e+05  -2.180620e+05
  -1.202102e+04  -2.433201e+05
  -3.126951e+05  -1.340257e+05
  -2.989961e+04  -1.304204e+05
   7.099555e+05  -2.071632e+05
   1.031964e+06   1.586842e+04
   3.613712e+05   6.570158e+05
  -8.695626e+05   1.136163e+06
  -1.639696e+06   7.388605e+05
  -1.336246e+06  -4.299319e+05
  -2.638230e+05  -1.401153e+06
   7.326394e+05  -1.362458e+06
   1.029737e+06  -5.104787e+05
   6.546528e+05   2.557540e+05
   1.146046e+05   3.489749e+05
  -1.058243e+05   2.547766e+04
   7.302936e+04  -5.602968e+04
   3.299640e+05   3.540334e+05
   2.737508e+05   8.071473e+05
  -1.795144e+05   6.642392e+05
  -6.798840e+05  -1.496546e+05
  -7.065621e+05  -9.642811e+05
  -7.324962e+04  -1.005645e+06
   7.629736e+05  -2.006611e+05
   1.009447e+06   7.449108e+05
   3.268726e+05   1.069577e+06
  -7.011605e+05   6.442538e+05
  -1.086646e+06  -7.109781e+04
  -5.164776e+05  -5.657980e+05
   2.647643e+05  -6.362758e+05
   3.338049e+05  -3.696097e+05
  -2.826103e+05  -3.377589e+04
  -6.544767e+05   3.545041e+04
  -1.366213e+05  -2.931390e+05
   8.162798e+05  -6.882675e+05
   1.220936e+06  -5.888931e+05
   7.278177e+05   1.263124e+05
  -8.703844e+04   8.480639e+05
  -5.011880e+05   8.494601e+05
  -3.733528e+05   1.467878e+05
  -3.188916e+04  -4.865286e+05
   2.353177e+05  -4.111460e+05
   3.436843e+05   1.792543e+05
   2.518365e+05   5.713675e+05
  -4.895598e+04   3.898721e+05
  -3.830919e+05  -5.599912e+04
  -4.698281e+05  -2.462166e+05
  -2.478148e+05  -7.125670e+04
   2.540056e+04   1.159001e+05
   9.836794e+04  -1.563910e+04
   4.071344e+04  -3.601179e+05
   1.034160e+05  -4.883771e+05
   3.189579e+05  -1.490757e+05
   3.998394e+05   4.014094e+05
   9.744686e+04   6.299170e+05
  -4.157337e+05   2.937072e+05
  -6.325142e+05  -2.882645e+05
  -2.353590e+05  -5.765328e+05
   4.889303e+05  -3.656828e+05
   8.523552e+05   7.675359e+04
   4.687796e+05   3.687737e+05
  -2.806651e+05   3.741802e+05
  -6.141741e+05   2.030489e+05
  -2.197668e+05   2.288336e+04
   3.733009e+05  -3.192680e+04
   4.091638e+05   1.027502e+05
  -2.022920e+05   3.048958e+05
  -7.866719e+05   2.601053e+05
