
 $NMID
 id='ANONYMOUS ', fmtdat='(2E16.6)'
 volume=1.0
 tramp=1.0
 $END
  -2.494015e+07   2.964991e+06
  -1.872147e+07  -1.042152e+07
  -1.803740e+06  -1.659944e+07
   1.051656e+07  -1.174900e+07
   9.685221e+06  -1.405417e+06
   8.473020e+05   4.839253e+06
  -5.362106e+06   2.490443e+06
  -4.180972e+06  -4.147019e+06
   1.071523e+06  -7.178334e+06
   4.773254e+06  -3.393196e+06
   4.276352e+06   2.940148e+06
   8.142917e+05   5.133883e+06
  -2.237200e+06   1.245349e+06
  -1.999539e+06  -4.174233e+06
   1.345781e+06  -5.210348e+06
   4.335563e+06  -7.604197e+05
   3.559151e+06   4.775565e+06
  -6.312637e+05   6.433796e+06
  -4.485321e+06   3.458843e+06
  -4.926357e+06  -8.501590e+05
  -2.503310e+06  -3.074955e+06
  -2.309630e+05  -2.736935e+06
  -2.262889e+05  -1.828164e+06
  -1.728601e+06  -2.164512e+06
  -2.037687e+06  -3.508448e+06
   6.061326e+05  -4.038184e+06
   4.724090e+06  -2.425516e+06
   6.503076e+06   6.027157e+05
   3.775119e+06   2.812661e+06
  -1.097517e+06   2.582581e+06
  -3.388507e+06   4.091286e+05
  -1.226987e+06  -1.632671e+06
   2.450965e+06  -1.728308e+06
   3.614211e+06   2.569739e+05
   1.639042e+06   2.694570e+06
  -8.142410e+05   3.411843e+06
  -1.470815e+06   1.616022e+06
  -5.774881e+05  -9.873165e+05
   3.102300e+05  -1.585040e+06
   2.371238e+05   5.572727e+05
  -7.196500e+05   2.801870e+06
  -1.809235e+06   2.053216e+06
  -1.901860e+06  -1.231818e+06
  -3.158332e+05  -3.245465e+06
   1.965102e+06  -1.429556e+06
   2.575929e+06   2.303227e+06
   2.156460e+05   3.841456e+06
  -3.372606e+06   1.612315e+06
  -4.732132e+06  -2.027144e+06
  -2.270752e+06  -3.763506e+06
   1.926346e+06  -2.566720e+06
   4.132211e+06   3.766039e+04
   2.647083e+06   1.851703e+06
  -7.073170e+05   1.737753e+06
  -2.612421e+06   2.124469e+05
  -1.592845e+06  -1.095641e+06
   7.033360e+05  -8.977750e+05
   1.510567e+06   4.505146e+05
   4.827385e+04   1.298837e+06
  -1.693920e+06   5.714475e+05
  -1.365751e+06  -9.942166e+05
   9.345528e+05  -1.695912e+06
   2.715962e+06  -6.529344e+05
   1.874940e+06   1.464185e+06
  -1.063322e+06   3.105748e+06
  -3.634156e+06   2.943230e+06
  -3.972596e+06   7.589370e+05
  -2.350845e+06  -2.187008e+06
  -4.297749e+05  -3.915292e+06
   5.423263e+05  -3.476924e+06
   6.659206e+05  -1.910663e+06
   8.316059e+05  -9.516418e+05
   1.541800e+06  -8.970305e+05
   2.343937e+06  -4.744444e+05
   2.320346e+06   1.052830e+06
   1.060076e+06   2.502881e+06
  -8.163727e+05   2.124453e+06
  -2.028637e+06  -1.084929e+05
  -1.607522e+06  -2.271521e+06
   2.624689e+05  -2.517939e+06
   2.230016e+06  -8.304120e+05
   2.793585e+06   1.277073e+06
   1.630861e+06   2.347278e+06
  -8.473113e+04   2.102262e+06
  -9.381032e+05   1.320626e+06
  -8.461399e+05   8.960198e+05
  -1.028600e+06   9.629689e+05
  -2.248144e+06   8.245649e+05
  -3.493516e+06  -2.342366e+05
  -2.951224e+06  -2.028031e+06
  -2.585384e+05  -3.423549e+06
   2.720197e+06  -3.278525e+06
   3.651512e+06  -1.491200e+06
   2.067627e+06   7.838515e+05
  -2.792785e+05   1.968776e+06
  -1.270754e+06   1.356691e+06
  -4.010507e+05  -1.963770e+05
   1.037002e+06  -1.010952e+06
   1.462299e+06  -3.079963e+05
   5.551984e+05   8.877003e+05
  -5.896715e+05   9.415024e+05
  -6.806004e+05  -2.994330e+05
   4.541578e+05  -1.138170e+06
   1.688123e+06  -6.298525e+04
   1.648884e+06   2.249661e+06
  -1.692923e+04   3.505319e+06
  -2.271753e+06   2.290310e+06
  -3.482347e+06  -4.540974e+05
  -2.734283e+06  -2.519940e+06
  -6.256538e+05  -2.614156e+06
   1.184063e+06  -1.299161e+06
   1.430262e+06  -9.396749e+04
   4.215433e+05   3.403018e+04
  -3.324357e+05  -6.244267e+05
   1.953581e+05  -1.034179e+06
   1.371534e+06  -5.358547e+05
   1.655619e+06   4.882891e+05
   4.859851e+05   1.041162e+06
  -9.353718e+05   5.876348e+05
  -9.553242e+05  -3.648717e+05
   6.106042e+05  -7.821493e+05
   2.165847e+06  -1.228330e+05
   1.988558e+06   1.163488e+06
   3.335593e+04   2.031142e+06
  -2.017455e+06   1.705827e+06
  -2.427890e+06   3.580412e+05
  -1.050141e+06  -9.456700e+05
   6.552381e+05  -1.128054e+06
   1.111940e+06  -1.669618e+05
   8.975789e+04   7.925876e+05
  -1.231933e+06   6.200401e+05
  -1.512504e+06  -5.339246e+05
  -5.143220e+05  -1.402723e+06
   7.759562e+05  -1.069267e+06
   1.166734e+06   1.088497e+04
   4.111498e+05   6.058107e+05
  -5.698607e+05   1.158690e+05
  -6.047532e+05  -8.455598e+05
   5.104034e+05  -1.185446e+06
   1.713853e+06  -4.280934e+05
   1.714840e+06   8.908970e+05
   3.665622e+05   1.731137e+06
  -1.124396e+06   1.434679e+06
  -1.447906e+06   2.916975e+05
  -5.304795e+05  -7.010770e+05
   5.109849e+05  -7.585139e+05
   6.530073e+05  -5.403248e+04
  -2.059675e+04   5.232687e+05
  -6.002825e+05   3.804341e+05
  -4.268268e+05  -1.429166e+05
   2.476486e+05  -2.439462e+05
   5.807313e+05   3.456614e+05
   1.700347e+04   9.987709e+05
  -1.108620e+06   8.487170e+05
  -1.793968e+06  -2.799582e+05
  -1.283808e+06  -1.622856e+06
   1.504408e+05  -2.128335e+06
   1.407966e+06  -1.392196e+06
   1.622126e+06  -2.198838e+04
   9.670807e+05   9.216801e+05
   3.180796e+05   9.070287e+05
   2.115691e+05   3.718809e+05
   3.391599e+05   1.525407e+05
   7.883937e+04   5.092022e+05
  -6.688678e+05   8.403216e+05
  -1.295773e+06   4.232874e+05
  -1.075888e+06  -6.571262e+05
   1.002101e+05  -1.457174e+06
   1.498339e+06  -1.090213e+06
   2.028831e+06   3.436510e+05
   1.131534e+06   1.766947e+06
  -6.572665e+05   2.067882e+06
  -2.062082e+06   1.073832e+06
  -2.147361e+06  -3.525432e+05
  -1.104802e+06  -1.158472e+06
   4.744112e+04  -1.052169e+06
   5.016531e+05  -6.297735e+05
   3.297837e+05  -5.948727e+05
   1.844809e+05  -9.416673e+05
   4.941013e+05  -9.988650e+05
   1.017777e+06  -2.642320e+05
   1.128649e+06   9.242485e+05
   4.868872e+05   1.636386e+06
  -5.402827e+05   1.249158e+06
  -1.134033e+06   5.304904e+04
  -7.828042e+05  -1.018424e+06
   1.776862e+05  -1.214537e+06
   8.604706e+05  -5.481742e+05
   7.224137e+05   3.405422e+05
   9.808264e+04   8.136090e+05
  -2.389946e+05   7.399367e+05
   1.018578e+04   4.581196e+05
   3.333494e+05   3.250603e+05
   2.942419e+04   3.458874e+05
  -9.161431e+05   2.378023e+05
  -1.687002e+06  -1.946220e+05
  -1.421133e+06  -7.938394e+05
  -1.352073e+05  -1.155768e+06
   1.192655e+06  -9.854457e+05
   1.533066e+06  -3.732765e+05
   7.988908e+05   2.427905e+05
  -1.357195e+05   4.214411e+05
  -4.024249e+05   1.156129e+05
   8.290466e+03  -2.499472e+05
   4.313837e+05  -1.898557e+05
   3.983179e+05   2.897659e+05
   9.337239e+04   6.418316e+05
  -3.416136e+04   4.062859e+05
   1.428557e+05  -1.718128e+05
   3.510384e+05  -3.566340e+05
   2.690110e+05   1.838839e+05
  -1.768270e+05   8.909564e+05
  -7.521140e+05   9.114457e+05
  -1.011977e+06   1.043355e+05
  -5.966410e+05  -7.646936e+05
   3.284414e+05  -8.694630e+05
   9.795131e+05  -1.942711e+05
   6.161717e+05   5.257077e+05
  -5.690644e+05   6.015961e+05
  -1.445206e+06   4.337484e+03
  -1.061866e+06  -7.224820e+05
   2.929696e+05  -9.894335e+05
   1.354033e+06  -6.152889e+05
   1.204737e+06   6.797822e+04
   1.869686e+05   4.850547e+05
  -5.544625e+05   3.073370e+05
  -3.022963e+05  -2.049199e+05
   5.541383e+05  -3.910427e+05
   1.004565e+06   1.510948e+05
   4.734167e+05   1.054092e+06
  -6.271068e+05   1.419862e+06
  -1.338632e+06   6.884950e+05
  -1.088794e+06  -6.993825e+05
  -1.684024e+05  -1.593355e+06
   6.510044e+05  -1.207250e+06
   8.483308e+05   7.179124e+04
   4.733075e+05   1.044119e+06
  -8.841696e+04   9.287035e+05
  -4.684396e+05   1.285127e+05
  -4.870282e+05  -3.569910e+05
  -2.256792e+05  -1.593665e+05
  -1.358573e+04   1.152623e+05
  -1.358097e+05  -1.812431e+05
  -4.136931e+05  -8.137157e+05
  -2.753117e+05  -9.813099e+05
   5.114425e+05  -3.890814e+05
   1.317178e+06   4.037758e+05
   1.228116e+06   7.406071e+05
   1.828106e+05   5.939972e+05
  -8.288062e+05   3.519177e+05
  -9.000098e+05   1.941152e+05
  -2.548233e+05   1.622706e+04
   1.578692e+05  -1.851128e+05
  -5.969314e+04  -2.438130e+05
  -3.281149e+05  -1.534254e+05
  -3.848032e+03  -1.168078e+05
   6.836558e+05  -1.518110e+05
   8.982968e+05   3.840192e+04
   2.307536e+05   5.650253e+05
  -8.241257e+05   9.528945e+05
  -1.405473e+06   5.955865e+05
  -1.097689e+06  -4.165742e+05
  -1.958452e+05  -1.240467e+06
   6.393346e+05  -1.171489e+06
   9.047551e+05  -4.007007e+05
   5.782730e+05   2.621599e+05
   7.355199e+04   3.048944e+05
  -1.388305e+05  -1.448565e+04
   4.920284e+04  -8.725263e+04
   3.133050e+05   2.987653e+05
   2.549113e+05   7.123553e+05
  -1.748926e+05   5.686814e+05
  -6.035511e+05  -1.764137e+05
  -5.742907e+05  -8.882236e+05
   6.934142e+03  -8.731922e+05
   7.008178e+05  -1.130569e+05
   8.558785e+05   7.125699e+05
   2.390118e+05   9.367057e+05
  -6.286486e+05   5.165985e+05
  -9.247877e+05  -8.896793e+04
  -4.184355e+05  -4.641472e+05
   2.328450e+05  -5.070383e+05
   2.530744e+05  -3.118270e+05
  -2.936610e+05  -5.472654e+04
  -5.863402e+05   1.466708e+04
  -1.002582e+05  -2.482309e+05
   7.244708e+05  -6.005025e+05
   1.039062e+06  -5.406828e+05
   5.912960e+05   7.871450e+04
  -8.983252e+04   7.231430e+05
  -4.066133e+05   7.216954e+05
  -2.790206e+05   9.243012e+04
   4.962976e+03  -4.450635e+05
   2.189359e+05  -3.307531e+05
   2.989031e+05   2.045363e+05
   2.063431e+05   5.054113e+05
  -5.721815e+04   3.010233e+05
  -3.320263e+05  -7.309406e+04
  -3.953679e+05  -1.910894e+05
  -2.174872e+05  -3.874227e+04
   1.083722e+03   6.675628e+04
   9.014296e+04  -8.253537e+04
   1.024307e+05  -3.392245e+05
   1.797670e+05  -3.737517e+05
   3.040884e+05  -4.535843e+04
   2.838999e+05   4.055801e+05
  -1.049018e+03   5.555479e+05
  -3.893448e+05   2.284846e+05
  -5.192388e+05  -2.889627e+05
  -1.744357e+05  -5.248786e+05
   4.202751e+05  -3.077248e+05
   7.187375e+05   9.784276e+04
   3.922914e+05   3.304283e+05
  -2.495999e+05   2.909561e+05
  -5.270512e+05   1.291445e+05
  -1.581067e+05   1.173483e+04
   3.736655e+05   1.591604e+04
   3.729394e+05   1.465108e+05
  -2.231506e+05   2.910388e+05
  -7.579666e+05   2.101462e+05
