
 $NMID
 id='ANONYMOUS ', fmtdat='(2E16.6)'
 volume=1.0
 tramp=1.0
 $END
  -4.532517e+03  -2.314840e+02
  -2.343469e+03  -2.710952e+03
   1.082957e+03  -2.763535e+03
   2.218377e+03  -7.583587e+02
   8.359230e+02   8.370398e+02
  -8.222909e+02   5.348265e+02
  -1.017658e+03  -5.220302e+02
   1.175322e+02  -1.215735e+03
   9.528738e+02  -7.315748e+02
   9.634260e+02   1.733979e+02
   3.924640e+02   8.794415e+02
  -3.867787e+02   9.312541e+02
  -7.357225e+02   5.169520e+01
  -3.301879e+02  -7.910629e+02
   3.613706e+02  -8.110327e+02
   6.700042e+02   7.254249e+01
   2.405965e+02   7.379450e+02
  -3.661222e+02   6.206457e+02
  -5.947915e+02   1.118403e+02
  -3.528852e+02  -3.812043e+02
   9.824131e+00  -4.170209e+02
   2.914416e+02  -2.504387e+02
   1.984072e+02   2.249211e+01
  -1.405734e+02   1.116300e+02
  -4.482381e+02  -1.259990e+02
  -1.693697e+02  -4.860526e+02
   5.131703e+02  -4.400421e+02
   9.293706e+02   1.166263e+02
   3.992850e+02   6.013493e+02
  -4.230361e+02   5.146900e+02
  -7.496978e+02  -3.520502e+01
  -3.747569e+02  -5.309528e+02
   3.233112e+02  -5.411315e+02
   5.923940e+02  -2.071252e+02
   4.419142e+02   2.612940e+02
   4.727058e+01   5.137480e+02
  -2.885377e+02   2.936178e+02
  -1.660314e+02  -2.950093e+02
   2.203411e+02  -4.510486e+02
   4.678044e+02   3.603607e+01
   2.378034e+02   7.398660e+02
  -3.849561e+02   7.376534e+02
  -6.382067e+02  -4.238753e+01
  -2.795662e+02  -6.298729e+02
   3.314903e+02  -3.381097e+02
   4.004162e+02   3.823410e+02
  -7.275858e+01   5.576842e+02
  -5.809788e+02   1.330443e+02
  -6.066583e+02  -4.462165e+02
  -1.569902e+02  -6.054260e+02
   3.832665e+02  -3.621235e+02
   6.705995e+02   1.286889e+02
   3.455839e+02   4.323134e+02
  -2.114614e+02   3.847553e+02
  -4.734579e+02   4.829243e+00
  -2.256314e+02  -2.154876e+02
   1.422650e+02  -1.055509e+02
   1.445975e+02   1.799194e+02
  -1.733918e+02   2.239664e+02
  -3.465217e+02  -7.331632e+01
  -1.129317e+02  -2.973983e+02
   2.061181e+02  -2.208044e+02
   3.499059e+02  -9.104618e+01
   2.010994e+02   9.014710e+01
  -7.946340e+00   2.511064e+02
  -1.934732e+02   3.449172e+02
  -3.666277e+02   2.378020e+02
  -3.180868e+02  -1.477998e+02
  -6.160324e+01  -4.405389e+02
   1.615778e+02  -3.613276e+02
   1.381429e+02  -7.803643e+01
   2.789412e+01   5.533026e+00
   3.359302e+01  -9.476927e+01
   1.895560e+02  -1.637417e+02
   2.874662e+02   4.194606e+01
   1.930010e+02   2.767813e+02
  -5.335866e+01   2.693283e+02
  -2.377688e+02   1.518773e+00
  -2.137398e+02  -2.543016e+02
   1.683276e+01  -3.068346e+02
   2.605775e+02  -1.639898e+02
   3.901332e+02   1.498331e+02
   2.139635e+02   3.564857e+02
  -1.330894e+02   3.239296e+02
  -2.339683e+02   1.139631e+02
  -1.657663e+02  -2.545574e+00
  -9.120737e+01   5.620673e+01
  -2.079747e+02   5.161367e+01
  -3.926997e+02  -7.166658e+01
  -3.124728e+02  -2.945600e+02
   1.989520e+01  -4.556496e+02
   3.552543e+02  -4.100602e+02
   4.938838e+02  -2.054983e+02
   3.592675e+02   1.372830e+02
   2.629070e+01   3.020291e+02
  -1.708381e+02   2.270982e+02
  -8.858013e+01   9.166966e+00
   1.136472e+02  -1.027019e+02
   2.307431e+02  -1.109973e+01
   3.796432e+01   2.020316e+02
  -1.660064e+02   1.955361e+02
  -1.853041e+02  -5.252218e+01
   3.582948e+01  -2.080319e+02
   1.998156e+02  -2.181022e+00
   1.676280e+02   2.587616e+02
  -3.055707e+01   3.483791e+02
  -2.296586e+02   1.887464e+02
  -3.284051e+02  -5.000960e+01
  -2.380257e+02  -2.388294e+02
  -1.009523e+02  -2.626123e+02
   1.058484e+02  -1.791376e+02
   1.716577e+02  -1.856135e+01
   5.779734e+01   4.155319e+01
  -7.263245e+01  -1.827119e+01
  -2.881475e+01  -1.263612e+02
   1.164185e+02  -1.039152e+02
   1.954666e+02  -2.027340e+01
   3.945466e+01   8.593854e+01
  -9.360616e+01   1.238108e+01
  -7.579788e+01  -6.584026e+01
   1.003739e+02  -9.436448e+01
   2.900799e+02  -2.414833e+01
   2.639526e+02   9.858859e+01
   6.249238e+01   2.706417e+02
  -1.909333e+02   2.766840e+02
  -3.102432e+02   1.135107e+02
  -1.877042e+02  -5.301264e+01
   1.528777e+01  -7.931734e+01
   8.519223e+01   2.695588e+01
  -5.204730e+01   8.013420e+01
  -2.010527e+02   7.332010e+01
  -2.192028e+02  -1.174745e+02
  -7.076850e+01  -2.037196e+02
   1.063497e+02  -1.486514e+02
   1.419577e+02  -3.549700e+01
   1.150500e+02   3.742016e+01
  -3.710969e+01   1.155405e+01
  -4.509693e+01  -8.289926e+01
   8.776931e+01  -1.304908e+02
   2.013763e+02  -4.639916e+01
   1.995221e+02   1.189767e+02
   3.135918e+01   1.944185e+02
  -1.819839e+02   1.714389e+02
  -1.970089e+02   2.528572e+01
  -5.300420e+01  -1.305935e+02
   6.286459e+01  -1.422443e+02
   8.582847e+01  -3.028093e+01
   2.544597e+01   3.835398e+01
  -9.957845e+00   3.386103e+01
  -1.639077e+01   6.903052e+00
   3.779364e+01  -2.087656e+00
   9.444396e+01   9.658664e+01
   1.489711e+01   1.390948e+02
  -1.518529e+02   1.509721e+02
  -2.128026e+02   3.589823e+01
  -1.987729e+02  -1.456464e+02
  -3.636107e+01  -2.329121e+02
   1.251067e+02  -1.849824e+02
   1.371746e+02  -2.712701e+01
   8.557615e+01   6.463265e+01
   5.282827e+01   4.139311e+01
   4.199778e+01  -3.918901e+01
   6.439639e+01  -2.849809e+01
   5.223895e+01   2.929336e+01
  -2.676801e+01   8.813108e+01
  -9.616046e+01   5.267699e+01
  -8.416111e+01  -1.423477e+01
   1.076701e+01  -9.805510e+01
   1.372078e+02  -8.840521e+01
   2.145671e+02   3.910572e+01
   1.112953e+02   1.940563e+02
  -9.075458e+01   2.101752e+02
  -2.845482e+02   1.251812e+02
  -2.663500e+02  -6.750558e+01
  -1.079571e+02  -1.778420e+02
   3.459092e+01  -1.587539e+02
   1.082222e+02  -1.181642e+02
   1.066676e+02  -7.337521e+01
   6.907443e+01  -6.032436e+01
   9.908143e+01  -6.710833e+01
   1.407686e+02   3.661651e+01
   1.179258e+02   1.470359e+02
   4.990844e+01   2.320673e+02
  -1.130222e+02   1.446081e+02
  -2.005560e+02   2.457895e+01
  -1.223524e+02  -1.084913e+02
  -2.500709e+00  -1.440963e+02
   7.194417e+01  -8.110019e+01
   9.172935e+01  -7.562220e+00
   2.775633e+01   5.302965e+01
  -4.909128e+00   4.808932e+01
   1.468498e+01   2.898190e+01
   6.392351e+01  -8.656928e+00
   5.804211e+01   7.614752e+01
  -6.603198e+01   5.435584e+01
  -1.359284e+02   2.427055e+01
  -1.173411e+02  -3.400435e+01
  -3.110977e+01  -1.178671e+02
   1.205527e+02  -7.131882e+01
   1.573950e+02  -1.003108e+01
   6.426327e+01   6.200783e+01
  -4.153207e+01   2.588682e+01
  -7.666473e+01  -3.074937e+01
  -1.883749e+01  -6.427936e+01
   2.623957e+01  -3.682096e+01
   4.605979e+01   3.103941e+01
   5.643025e+01   4.440229e+01
   4.721658e+01   5.668747e+01
   6.694367e+01  -1.220822e+01
   8.343694e+01   2.347178e+01
   2.975582e+01   4.844352e+01
  -2.799739e+01   1.320867e+02
  -1.214662e+02   1.351390e+02
  -1.528675e+02   1.775220e+01
  -9.113572e+01  -9.356280e+01
  -1.765151e+01  -1.387457e+02
   8.837222e+01  -5.541006e+01
   5.814747e+01   1.556914e+01
  -6.060142e+01   2.622075e+01
  -1.214088e+02  -2.652867e+01
  -6.016205e+01  -8.123870e+01
   9.336797e+01  -9.791728e+01
   1.725279e+02  -3.397832e+01
   1.715910e+02   5.420876e+01
   2.716584e+01   1.084849e+02
  -3.313520e+01   1.147346e+02
  -6.348964e+01   2.068485e+01
   3.169997e+01  -9.693721e+00
   7.958195e+01   3.348098e+01
   9.191798e+00   1.055173e+02
  -9.220179e+01   1.299406e+02
  -1.526051e+02   5.213462e+01
  -8.617880e+01  -9.817946e+01
  -2.590202e+00  -1.888572e+02
   6.162341e+01  -1.613366e+02
   1.252637e+02   3.805891e+01
   7.032148e+01   1.171672e+02
  -5.107893e+00   9.101886e+01
  -1.040175e+01   1.054963e+01
  -1.937629e+01  -2.938031e+01
  -3.768034e+01   1.867623e+01
  -1.549631e+01  -1.602222e+00
  -2.297759e+01  -1.868557e+01
  -5.495782e+01  -8.895032e+01
  -3.401491e+01  -1.306098e+02
   2.778240e+01  -4.388818e+01
   1.176355e+02   3.587701e+01
   1.113430e+02   7.571714e+01
   9.397408e+00   4.343578e+01
  -1.027575e+02   2.641769e+01
  -1.033894e+02   5.418277e+00
  -3.060221e+00  -5.842953e+00
   3.966615e+01   2.408591e-01
   1.873106e+01  -2.258154e+01
  -9.889194e+00  -7.250581e+00
   1.745611e+01   3.785876e+00
   8.245442e+01   1.848461e+01
   6.690641e+01  -3.437315e+01
  -6.409585e+00   7.190724e+01
  -1.154379e+02   8.876847e+01
  -1.605691e+02   5.792657e+01
  -1.287797e+02  -3.725069e+01
  -7.870540e+00  -1.672844e+02
   6.945375e+01  -1.419520e+02
   1.270952e+02  -4.981529e+01
   9.161780e+01   1.006268e+01
   2.880429e+01   6.895822e+01
  -8.742394e+00   3.505118e+01
  -1.431086e+01  -4.393421e-01
   3.065178e+01   3.320341e+01
   3.760524e+01   8.652476e+01
  -3.042469e+01   5.011888e+01
  -8.257454e+01  -4.794375e+00
  -8.438020e+01  -1.198141e+02
  -2.711856e-01  -1.164327e+02
   4.745040e+01  -2.440451e+01
   9.850393e+01   6.748142e+01
   4.444353e+01   1.162615e+02
  -7.819299e+01   7.657614e+01
  -9.050969e+01  -3.728370e+00
  -3.240349e+01  -3.251516e+01
   1.515534e+01  -6.424980e+01
   3.060855e+01  -3.437479e+01
  -4.854704e+01   3.640302e+00
  -5.771662e+01   2.165596e+01
  -6.890903e+00  -1.669743e+01
   7.501546e+01  -7.314565e+01
   1.354435e+02  -6.632864e+01
   6.248158e+01   2.095932e+01
  -1.510233e+00   7.877577e+01
  -3.622177e+01   7.101025e+01
  -4.083166e+01   1.399470e+01
  -1.052793e+01  -7.124079e+01
   2.617070e+01  -5.588137e+01
   5.839045e+01   3.202701e+01
   3.746178e+01   4.453562e+01
   7.035092e+00   5.266536e+00
  -3.094411e+01   7.635711e+00
  -3.093642e+01  -1.459208e+01
  -5.957334e+01   6.545251e+00
  -8.015450e-01   2.939920e+01
   1.578716e+01  -7.527723e+00
   1.288903e+01  -3.663478e+01
   1.858932e+01  -2.807809e+01
   3.656850e+01  -1.777745e+01
   5.595997e+00   5.231948e+01
  -2.218263e+00   7.893337e+01
  -5.039076e+01   1.598644e+01
  -5.027374e+01  -3.834980e+01
  -4.831378e+00  -9.146730e+01
   4.072310e+01  -2.876160e+01
   1.002535e+02   2.133446e+00
   4.553473e+01   6.452440e+01
  -3.232278e+01   3.370578e+01
  -9.379829e+01   2.022803e+01
  -5.297714e+01  -9.865723e+00
   9.731905e+00   2.037437e+01
   2.029909e+01   1.448069e+01
  -1.905379e+01   2.897862e+01
  -8.293459e+01   3.596198e+01
