
 $NMID
 id='ANONYMOUS ', fmtdat='(2E16.6)'
 volume=1.0
 tramp=1.0
 $END
  -3.374279e+03  -1.143235e+02
  -2.280986e+03  -1.833396e+03
   1.479900e+02  -2.147305e+03
   1.426046e+03  -1.205820e+03
   8.845959e+02   5.651397e+01
  -2.761178e+02   2.994160e+02
  -4.395841e+02  -2.058284e+02
  -6.066779e+01  -6.484949e+02
   5.350815e+02  -5.132018e+02
   6.612346e+02  -7.369281e+01
   3.379294e+02   5.518661e+02
  -6.825510e+01   6.718136e+02
  -3.793634e+02   1.393290e+02
  -2.879526e+02  -5.128488e+02
   1.407440e+02  -5.829705e+02
   4.509384e+02  -1.264705e+01
   2.925611e+02   5.329772e+02
  -1.927764e+02   5.830154e+02
  -5.014110e+02   1.245669e+02
  -3.507876e+02  -2.574645e+02
  -8.658152e+01  -3.581720e+02
   1.340366e+02  -1.871603e+02
   9.089190e+01  -7.823297e+01
  -1.584133e+02  -6.725808e+01
  -3.054100e+02  -2.193291e+02
  -3.292362e+01  -3.688746e+02
   4.392965e+02  -2.067945e+02
   6.314099e+02   1.219762e+02
   2.878996e+02   3.794707e+02
  -3.420183e+02   3.028202e+02
  -5.436689e+02  -9.211555e+01
  -2.453778e+02  -3.920572e+02
   2.631901e+02  -3.798795e+02
   4.803658e+02  -1.381992e+02
   3.306013e+02   1.870473e+02
   7.782283e+01   3.341692e+02
  -9.319140e+01   1.959773e+02
  -1.547191e+01  -9.241744e+01
   1.467636e+02  -2.062592e+02
   2.310057e+02   7.113997e+01
   5.426018e+01   5.316437e+02
  -2.375944e+02   5.068797e+02
  -4.036960e+02   1.939535e+01
  -1.325836e+02  -4.422039e+02
   1.727106e+02  -1.950831e+02
   2.271930e+02   2.656949e+02
  -1.116906e+02   4.185547e+02
  -4.913981e+02   1.153221e+02
  -4.983392e+02  -3.484555e+02
  -1.518810e+02  -5.072281e+02
   2.908358e+02  -2.751895e+02
   5.060588e+02   5.407691e+01
   3.227634e+02   2.666250e+02
  -1.218165e+02   2.460437e+02
  -2.827951e+02   2.776150e+01
  -2.045513e+02  -1.034236e+02
   3.043213e+01  -9.715284e+01
   9.511251e+01   7.221304e+01
  -1.189518e+02   8.436203e+01
  -2.691525e+02  -3.115115e+01
  -1.417016e+02  -2.118865e+02
   1.642657e+02  -2.606914e+02
   3.313866e+02  -1.252461e+02
   2.084212e+02   1.088462e+02
  -8.745983e+00   2.746033e+02
  -2.681175e+02   3.141444e+02
  -3.370586e+02   1.545373e+02
  -2.091483e+02  -1.719704e+02
  -4.916475e+01  -3.427995e+02
   6.512672e+01  -3.508487e+02
   8.365731e+01  -1.466284e+02
   1.141023e+01  -6.754776e+01
   1.175104e+02  -9.661094e+01
   1.997302e+02  -1.121335e+02
   2.352851e+02   4.844030e+01
   1.011345e+02   2.845861e+02
  -7.689221e+01   1.879487e+02
  -1.883602e+02  -7.365482e+00
  -1.475513e+02  -1.991422e+02
   7.268115e+00  -2.438090e+02
   2.437601e+02  -9.487694e+01
   2.817937e+02   1.456551e+02
   1.868241e+02   3.307027e+02
  -7.158471e+01   2.795300e+02
  -1.739741e+02   1.461274e+02
  -1.095818e+02   4.068523e+01
  -1.365596e+02   3.680506e+01
  -2.236212e+02   4.004624e+01
  -3.905020e+02  -1.178947e+02
  -2.732803e+02  -2.659535e+02
   2.950823e+01  -4.043167e+02
   3.710681e+02  -3.594240e+02
   4.587211e+02  -1.699794e+02
   2.946949e+02   1.033880e+02
   2.318165e+01   2.483607e+02
  -7.639577e+01   2.086778e+02
  -4.795277e+00   3.436748e+01
   9.371654e+01  -7.449997e+01
   1.450640e+02   4.402169e+01
   5.320548e+01   1.466303e+02
  -1.051477e+02   1.030885e+02
  -1.476683e+02  -5.169391e+01
   1.279600e+01  -1.388450e+02
   1.673175e+02  -3.404430e+01
   1.460163e+02   2.598448e+02
  -3.654153e+01   3.147826e+02
  -2.151061e+02   1.597759e+02
  -3.236809e+02  -5.953799e+01
  -2.521517e+02  -2.494623e+02
  -8.125963e+01  -2.377707e+02
   1.176522e+02  -1.438729e+02
   1.801663e+02  -3.294531e+00
   3.647366e+01   4.883660e+01
  -4.756251e+01  -5.416227e+01
  -3.397585e+00  -1.318743e+02
   1.451253e+02  -6.297368e+01
   1.528258e+02   4.292019e+01
   1.330135e+01   4.085701e+01
  -8.337288e+01  -1.520423e+01
  -3.658049e+01  -6.287306e+01
   1.619776e+02  -8.559180e+01
   2.890299e+02   6.998330e+01
   2.499685e+02   1.645192e+02
   3.038028e+01   2.306036e+02
  -1.988450e+02   2.324063e+02
  -2.246841e+02   1.099628e+02
  -1.273156e+02  -8.247509e+01
   4.022346e+01  -1.135474e+02
   8.070447e+01  -2.943144e+01
  -4.781705e+01   8.294917e+01
  -1.908047e+02   6.646463e+01
  -2.203222e+02  -9.597620e+01
  -2.974076e+01  -1.829553e+02
   8.763476e+01  -1.328937e+02
   1.261387e+02  -1.592803e+01
   7.734570e+01   3.987284e+01
  -3.512851e+01   1.196017e+00
  -7.361438e+00  -8.291218e+01
   7.452941e+01  -1.047942e+02
   1.646678e+02  -1.759370e+01
   1.573706e+02   1.456633e+02
   3.405294e+01   2.194962e+02
  -1.459133e+02   1.530715e+02
  -1.498933e+02  -4.750962e+01
  -7.449175e+01  -9.945660e+01
   5.689792e+01  -1.053990e+02
   7.948309e+01  -1.688900e+01
   3.469545e+01   3.902554e+01
  -9.641535e+00  -3.960988e+00
   1.250248e+01  -2.982388e+01
   6.177802e+01  -2.836187e+01
   8.268878e+01   8.819199e+01
   9.153483e+00   1.747559e+02
  -1.234648e+02   1.586289e+02
  -2.101193e+02   8.179894e+00
  -1.853339e+02  -1.523055e+02
  -2.390824e+01  -2.032456e+02
   1.132597e+02  -1.862054e+02
   1.374623e+02  -2.547107e+01
   6.896416e+01   2.492446e+01
   1.321758e+01   3.138218e+01
   6.114055e+01   1.699370e+01
   9.148460e+01  -1.955195e+01
   4.845414e+01   6.014805e+01
  -5.293648e+01   1.040496e+02
  -1.317636e+02   6.903472e+01
  -7.404415e+01  -2.589607e+01
   3.216749e+01  -1.050775e+02
   1.659624e+02  -6.770555e+01
   1.910002e+02   6.597506e+01
   8.055226e+01   2.200586e+02
  -1.128131e+02   2.139462e+02
  -2.756533e+02   7.524084e+01
  -2.259534e+02  -9.902719e+01
  -8.198196e+01  -1.368205e+02
   5.530489e+01  -1.199626e+02
   9.555624e+01  -1.081365e+02
   8.468635e+01  -4.040175e+01
   4.909810e+01  -6.983392e+01
   8.798010e+01  -6.850015e+01
   1.278209e+02   3.356939e+01
   1.304928e+02   1.560896e+02
   2.853767e+01   2.217472e+02
  -1.065845e+02   1.463619e+02
  -1.609409e+02   2.558490e+01
  -1.095513e+02  -1.113283e+02
  -2.546192e+01  -1.445615e+02
   6.333514e+01  -5.397175e+01
   6.412060e+01   2.615236e+01
  -1.699825e+01   5.639254e+01
  -2.842985e+01   4.859406e+01
   2.005700e+01   4.173483e+01
   6.829387e+01   4.418784e+01
   3.428787e+01   2.590587e+01
  -3.008956e+01   1.457468e+01
  -1.644322e+02   3.961204e+00
  -1.594380e+02  -5.224096e+01
   7.870790e+00  -7.916141e+01
   1.336474e+02  -7.389577e+01
   1.437982e+02  -1.976966e+01
   3.957328e+01   6.382536e+01
  -9.742191e+01   8.961063e+01
  -7.477194e+01  -4.108536e+00
  -5.087964e+00  -8.506913e+01
   6.616953e+01  -5.700382e+01
   4.598042e+01   1.158167e+01
   4.880710e+01   3.467640e+01
   5.781012e+01   4.351652e+01
   5.853789e+01  -1.524731e+00
   5.451187e+01  -8.472342e+00
   4.913822e+01   8.463373e+01
  -4.229688e+01   1.476524e+02
  -9.892100e+01   1.319731e+02
  -1.635963e+02  -5.745575e+00
  -1.134267e+02  -9.207328e+01
  -1.338241e+01  -1.305653e+02
   5.080603e+01  -6.394765e+01
   5.628553e+01   4.318702e+00
  -6.429205e+01   1.388299e+01
  -1.181373e+02  -3.040730e+01
  -6.800944e+01  -1.029985e+02
   8.402744e+01  -8.056116e+01
   1.955102e+02  -3.212470e+01
   1.786189e+02   6.202117e+01
   4.894982e+01   6.336921e+01
  -6.363146e+01   9.651516e+01
  -4.928009e+01   1.222237e+01
   2.678061e+01  -8.116276e-01
   8.363350e+01   3.694052e+00
   5.647230e+01   1.284743e+02
  -6.662684e+01   1.453863e+02
  -1.684246e+02   9.451546e+01
  -1.319031e+02  -1.025540e+02
   2.009248e+00  -1.918263e+02
   7.219138e+01  -1.630026e+02
   1.194559e+02  -1.266831e+00
   5.751249e+01   1.364437e+02
  -7.850036e+00   1.244835e+02
  -3.278527e+01   1.200419e+01
  -2.898107e+01  -3.201038e+01
  -2.407897e+01  -5.198270e+00
   1.634252e+00   3.189275e+01
  -4.562365e+01   3.550652e+00
  -1.675771e+01  -8.192872e+01
  -3.282980e+01  -8.407979e+01
   3.929942e+01  -3.772615e+01
   1.156445e+02   3.554208e+01
   9.872792e+01   7.250568e+01
   3.632063e+01   5.257933e+01
  -5.385457e+01   4.346915e+01
  -8.496343e+01   1.452276e+01
  -1.154705e+01  -5.212656e+01
   3.849392e+01  -4.479212e+01
   1.183022e+00  -1.469728e+01
  -1.941419e+01  -1.078076e-01
   2.798392e-01   8.575333e-01
   6.094413e+01  -8.672251e+00
   8.593357e+01   2.495194e+01
   1.415215e+01   8.513412e+01
  -1.030462e+02   1.330377e+02
  -1.778922e+02   7.165809e+01
  -1.496057e+02  -5.247861e+01
  -2.685903e+01  -1.477465e+02
   8.340271e+01  -1.526088e+02
   8.223561e+01  -6.064187e+01
   8.574681e+01  -6.852814e+00
   2.183310e+01   4.759235e+01
  -1.141152e+01   3.301071e+01
   2.690733e+01   2.771996e+01
   1.724979e+01   4.773208e+01
   2.912440e+01   1.161538e+02
  -1.466225e+01   8.631030e+01
  -6.878598e+01  -9.918700e-01
  -8.783041e+01  -8.050135e+01
  -1.369224e+01  -1.038517e+02
   3.916396e+01  -2.387014e+01
   7.161019e+01   4.195663e+01
   5.308119e+01   9.310106e+01
  -5.663905e+01   7.441691e+01
  -7.897670e+01  -5.575645e+00
  -4.787856e+01  -7.426474e+01
   4.255204e+01  -4.152258e+01
   3.486499e+01  -2.541408e+01
  -2.003691e+01  -5.907156e+00
  -7.261749e+01  -1.114390e+01
   4.720797e+00  -5.288748e+01
   9.399852e+01  -4.236036e+01
   9.012451e+01  -1.328766e+01
   7.322936e+01  -1.578461e+00
  -3.187035e+01   7.538360e+01
  -3.475815e+01   1.050534e+02
  -3.072740e+01   1.593446e+01
  -9.964237e+00  -4.014666e+01
   3.997444e+01  -3.630710e+01
   1.288586e+01   2.090199e+00
   2.567433e+01   1.714966e+01
  -8.904465e+00   3.627588e+01
  -2.406277e+01   1.568728e+01
  -4.305708e+01   1.712726e+01
  -3.396830e+01   1.748633e+01
  -1.801251e+01   6.957281e+00
   1.550577e+01  -2.923769e+00
   1.372199e+00  -7.209266e+00
   8.887216e+00  -5.086296e+01
   9.151860e+00  -2.935973e+01
   1.706700e+01   3.048901e+01
   1.487215e+01   5.966086e+01
  -3.280827e+01   3.472508e+00
  -3.476060e+01  -3.509622e+01
  -3.767431e+01  -4.560059e+01
   4.920293e+01  -2.337394e+01
   6.961220e+01   1.771643e-01
   7.040461e+01   4.054325e+01
  -8.024512e+00   3.990190e+01
  -5.741226e+01   3.348123e+01
  -4.508394e+01   1.506853e+00
   3.631236e+01  -2.403089e+01
   1.264623e+01   1.905688e+01
  -3.984812e+01   1.731487e+01
  -8.031248e+01  -1.566870e+01
