
 $NMID
 id='ANONYMOUS ', fmtdat='(2E16.6)'
 volume=1.0
 tramp=1.0
 $END
   4.206759e+03   3.825909e+02
   2.473052e+03   2.424940e+03
  -8.427034e+02   2.675383e+03
  -1.877890e+03   7.062177e+02
  -8.105739e+02  -6.329163e+02
   5.756029e+02  -5.401208e+02
   8.171169e+02   4.604874e+02
  -3.650793e+01   9.974463e+02
  -9.077979e+02   6.740895e+02
  -9.110956e+02  -1.465422e+02
  -3.892604e+02  -8.973115e+02
   2.452413e+02  -8.694150e+02
   6.449640e+02  -8.863993e+01
   3.610270e+02   7.265651e+02
  -2.983933e+02   7.169262e+02
  -5.850127e+02  -5.318510e+01
  -2.651825e+02  -6.485455e+02
   2.589630e+02  -6.112291e+02
   5.539011e+02  -1.231725e+02
   3.958005e+02   3.198085e+02
   3.838100e+01   4.064400e+02
  -2.437959e+02   2.631978e+02
  -2.020177e+02   9.821860e+00
   1.735485e+02  -8.981312e+01
   4.501472e+02   1.434626e+02
   1.399780e+02   4.887503e+02
  -5.128524e+02   4.192382e+02
  -8.090665e+02  -1.344977e+02
  -3.441370e+02  -5.447968e+02
   4.048333e+02  -4.523474e+02
   7.211146e+02   4.850303e+01
   3.031438e+02   4.697518e+02
  -3.373703e+02   5.131318e+02
  -5.653374e+02   1.794743e+02
  -4.242547e+02  -2.323155e+02
  -1.004002e+02  -4.912169e+02
   2.007945e+02  -2.705912e+02
   1.336515e+02   1.956419e+02
  -2.533603e+02   3.667784e+02
  -4.711892e+02  -7.543100e+01
  -1.450540e+02  -6.382425e+02
   3.724986e+02  -6.620533e+02
   5.148700e+02   6.911058e+01
   1.690028e+02   5.299650e+02
  -2.710324e+02   2.479867e+02
  -3.278698e+02  -3.359244e+02
   8.622665e+01  -4.978359e+02
   5.383651e+02  -1.316628e+02
   6.091620e+02   3.822357e+02
   1.658924e+02   5.473453e+02
  -3.676130e+02   3.176319e+02
  -5.862336e+02  -9.575739e+01
  -3.710068e+02  -3.723866e+02
   1.355622e+02  -3.335560e+02
   4.177679e+02  -2.170963e+01
   2.181553e+02   1.666125e+02
  -1.286148e+02   9.562529e+01
  -8.373816e+01  -1.429083e+02
   1.870676e+02  -1.606194e+02
   3.284406e+02   6.290210e+01
   1.320494e+02   2.892060e+02
  -1.617867e+02   2.415077e+02
  -2.902707e+02   1.344900e+02
  -1.935098e+02  -4.136520e+01
  -4.287638e+01  -2.260904e+02
   1.992893e+02  -3.847841e+02
   3.844979e+02  -2.292967e+02
   2.674961e+02   1.593839e+02
   6.853274e+01   3.970284e+02
  -1.192494e+02   3.490586e+02
  -9.368126e+01   9.654858e+01
  -2.713225e+00   6.788773e+00
  -5.471629e+01   1.139110e+02
  -1.877656e+02   1.305368e+02
  -2.538097e+02  -8.069045e+01
  -1.764272e+02  -2.556335e+02
   8.801988e+01  -2.684912e+02
   2.214228e+02  -2.610968e+01
   1.788205e+02   2.565520e+02
  -3.953616e+01   2.834834e+02
  -2.739792e+02   1.174187e+02
  -3.477411e+02  -1.678685e+02
  -1.863470e+02  -3.198691e+02
   8.893368e+01  -3.110138e+02
   2.247014e+02  -1.237101e+02
   1.366085e+02   4.363170e+00
   1.026158e+02  -5.703891e+01
   2.167961e+02  -7.661445e+01
   3.697542e+02   7.948133e+01
   2.684588e+02   2.765695e+02
  -3.080917e+01   3.870293e+02
  -3.630159e+02   3.958978e+02
  -4.739460e+02   1.792499e+02
  -3.069429e+02  -1.012753e+02
  -6.691243e+01  -3.052843e+02
   1.562833e+02  -2.262260e+02
   4.540249e+01  -1.206560e+01
  -1.088283e+02   9.248929e+01
  -2.026499e+02  -2.148748e+01
  -2.676827e+01  -1.813954e+02
   1.656879e+02  -1.119747e+02
   1.634634e+02   5.328380e+01
  -3.436237e+01   1.958184e+02
  -1.876769e+02   1.014218e+01
  -1.462111e+02  -2.529590e+02
   3.750450e+01  -3.398122e+02
   2.001633e+02  -1.618369e+02
   3.258780e+02   5.832390e+01
   2.736525e+02   2.248112e+02
   9.539041e+01   2.493530e+02
  -9.076364e+01   1.736685e+02
  -1.704642e+02  -6.104272e+00
  -4.088328e+01  -1.217665e+01
   5.957373e+01   3.915586e+01
   1.756642e+01   1.104463e+02
  -1.305897e+02   6.876176e+01
  -1.902757e+02  -4.393758e+01
  -5.224943e+01  -6.113741e+01
   7.817551e+01  -5.728772e+00
   4.893947e+01   6.154804e+01
  -1.245775e+02   9.634934e+01
  -2.959214e+02  -1.340586e+01
  -2.402045e+02  -1.331535e+02
  -5.762451e+01  -2.503571e+02
   1.885364e+02  -2.577603e+02
   2.649609e+02  -1.053659e+02
   1.581102e+02   3.147432e+01
  -1.824149e+01   1.006665e+02
  -9.877802e+01  -1.536611e+01
   5.235038e+01  -9.413669e+01
   2.014956e+02  -3.909565e+01
   2.045611e+02   1.087128e+02
   5.799152e+01   2.019594e+02
  -8.328867e+01   1.459119e+02
  -1.368158e+02   3.033655e+01
  -7.296241e+01  -6.063949e+01
   2.911272e+01  -5.345912e+00
   4.541873e+01   7.855373e+01
  -7.922628e+01   8.975999e+01
  -1.945521e+02   4.361256e+01
  -1.770559e+02  -1.270017e+02
  -4.942176e+01  -1.835694e+02
   1.582193e+02  -1.336227e+02
   2.041474e+02  -3.590893e+00
   6.342572e+01   1.237665e+02
  -1.045300e+02   1.144368e+02
  -8.457184e+01   1.791774e+01
  -1.557788e+01  -1.480810e+01
   2.512170e+01  -7.145859e+00
  -2.655848e+01   5.684162e+00
  -5.483719e+01  -9.200999e+00
  -6.863016e+01  -8.947244e+01
  -8.021404e+00  -1.392539e+02
   1.404350e+02  -1.499121e+02
   2.320039e+02  -1.735541e+01
   1.861338e+02   1.465342e+02
   5.742871e+01   2.504487e+02
  -1.067699e+02   1.538604e+02
  -1.324080e+02   2.986023e+01
  -8.012040e+01  -5.712920e+01
  -2.724957e+01  -3.298680e+01
  -1.973194e+01   4.946132e+00
  -7.869637e+01   3.851843e+01
  -3.310982e+01  -1.788689e+01
   2.844169e+01  -9.239046e+01
   6.993766e+01  -5.481113e+01
   9.497152e+01   5.473399e+00
   5.959183e+00   9.375487e+01
  -1.638216e+02   9.024207e+01
  -1.901676e+02  -3.889516e+01
  -1.126385e+02  -1.982301e+02
   1.236075e+02  -2.567935e+02
   2.810282e+02  -7.735495e+01
   2.362883e+02   7.364860e+01
   8.391912e+01   1.721423e+02
  -2.298839e+01   1.261805e+02
  -7.606772e+01   9.266159e+01
  -8.847082e+01   6.163065e+01
  -5.536289e+01   6.539726e+01
  -7.768535e+01   4.506788e+01
  -1.360978e+02  -2.537434e+01
  -1.125860e+02  -1.567862e+02
  -3.227297e+01  -2.244842e+02
   1.118539e+02  -1.538034e+02
   1.639863e+02  -1.937599e+01
   1.263681e+02   1.196151e+02
   4.169692e+01   1.377913e+02
  -8.227349e+01   7.331298e+01
  -7.444505e+01   2.272280e+01
  -8.775210e+00  -5.032491e+01
   1.555984e+01  -4.319869e+01
  -1.325007e+00  -1.536300e+01
  -7.363509e+01   1.203231e+01
  -5.063965e+01  -1.599965e+01
   5.653109e+01  -3.542402e+01
   1.475205e+02  -6.250548e+00
   1.406629e+02   2.448062e+01
   3.258004e+01   1.073302e+02
  -1.157992e+02   7.685057e+01
  -1.172993e+02   2.410074e+01
  -5.220958e+01  -5.052750e+01
   4.814236e+01  -2.594505e+01
   9.340715e+01   1.021406e+01
   2.200545e+01   7.341753e+01
  -3.063852e+01   5.134575e+01
  -7.291288e+01   9.370316e+00
  -6.379111e+01  -8.429175e+01
  -2.509011e+01  -5.518284e+01
  -5.262378e+01   9.140745e+00
  -7.328529e+01   1.184111e+01
  -3.797514e+01  -4.545878e+01
   2.462754e+01  -1.235574e+02
   1.180421e+02  -1.224929e+02
   1.654194e+02  -2.164973e+01
   1.141326e+02   1.129888e+02
   5.247061e+00   1.315163e+02
  -1.146558e+02   6.084471e+01
  -6.392940e+01   3.294613e+00
   3.761898e+01  -1.421052e+01
   1.368912e+02   4.073314e+01
   7.369100e+01   9.764497e+01
  -7.347748e+01   1.141481e+02
  -2.044591e+02   1.997358e+01
  -1.521852e+02  -5.661943e+01
  -1.699868e+01  -1.058197e+02
   5.328381e+01  -9.922880e+01
   3.690513e+01  -3.187768e+01
  -4.856201e+01   3.296395e+01
  -8.739888e+01  -4.211142e+01
  -4.051600e+01  -9.473991e+01
   8.856234e+01  -1.330038e+02
   1.419528e+02  -4.170867e+01
   1.266067e+02   7.805087e+01
   1.245129e+01   1.758057e+02
  -8.322969e+01   1.360173e+02
  -9.918674e+01  -3.005503e+01
  -7.116938e+01  -9.899397e+01
  -1.120920e+01  -9.197684e+01
   2.853787e+01  -2.914389e+00
   6.934175e+01   3.936944e+01
   2.631941e+01   2.164151e+00
   4.543224e+01   1.120754e+00
   3.803813e+01   4.041017e+01
   3.174843e+01   8.500268e+01
   3.013680e+01   1.060985e+02
  -6.247820e+01   5.089368e+01
  -1.179426e+02  -5.255795e+01
  -9.397600e+01  -6.720245e+01
  -6.634365e+00  -6.079726e+01
   7.031702e+01  -4.697234e+01
   8.155035e+01  -1.275025e+01
   5.228639e+01   1.296691e+01
  -3.976669e+01   1.467701e+01
  -4.337321e+01   3.216249e+01
  -1.028898e+01   1.839556e+01
  -7.734427e+00  -3.338943e+01
  -7.674457e+01  -9.395714e+00
  -1.014792e+02  -3.392078e+01
  -9.751057e+00  -8.315596e+01
   1.261079e+02  -8.243479e+01
   1.612213e+02  -3.978661e+01
   1.206043e+02   6.630569e+01
   1.026041e+01   1.410314e+02
  -7.697200e+01   1.336609e+02
  -1.089364e+02   4.290925e+01
  -8.187915e+01  -4.065742e+01
  -3.518138e+01  -5.183244e+01
   9.166102e+00   1.859696e+01
  -3.414091e+01   5.673302e+00
  -3.507897e+01  -3.968727e+01
  -2.330749e+01  -9.195620e+01
   1.560645e+01  -6.356366e+01
   7.708747e+01   3.872656e+01
   7.092230e+01   1.112980e+02
  -1.220422e+01   1.131707e+02
  -7.219605e+01   1.831147e+01
  -9.075524e+01  -6.662002e+01
  -1.065153e+01  -8.861734e+01
   4.859147e+01  -4.185341e+01
   8.413364e+01  -2.597618e+01
   3.834604e+01   3.160401e+01
  -2.255448e+01   3.307227e+01
  -1.885527e+00   4.654091e+01
  -1.000393e+00   1.631927e+01
   5.711474e+01  -1.307774e+01
   1.272944e+01   2.740184e+01
  -8.556925e+01   3.901577e+01
  -1.330305e+02   3.502306e+01
  -5.322173e+01  -2.193686e+01
   1.163091e+01  -7.283804e+01
   3.956851e+01  -5.860830e+01
   3.051289e+01  -3.117193e+01
   2.487346e+01   5.957022e+01
  -2.920639e+01   4.217019e+01
  -2.876812e+01  -3.218902e+01
  -5.691926e+00  -2.798917e+01
   1.993847e+01  -1.694408e+01
   3.432172e+01  -1.384468e+01
   2.929390e+01   2.798587e+01
   3.103898e+01  -4.904178e+00
   2.456977e-01  -3.745490e+01
  -5.907745e+00   4.236072e+00
  -1.612447e+00   5.570939e+01
  -1.053300e+01   4.084238e+01
  -4.731807e+01  -6.710996e+00
  -2.450449e+01  -5.241632e+01
   9.656887e+00  -5.217218e+01
   5.799112e+01  -3.314936e+01
   6.992268e+01   3.545746e+01
   1.240146e+01   6.875757e+01
  -6.748743e+01   4.325039e+01
  -1.014407e+02  -3.205984e+01
  -4.532047e+01  -4.130789e+01
   2.496476e+01  -2.772780e+01
   6.539628e+01  -1.409112e+01
   5.007369e+01  -1.562651e+01
  -1.512588e+01  -1.049873e+00
  -4.834489e+01  -1.656486e+01
   2.471063e+01  -2.718548e+01
   8.753057e+01  -1.968552e+00
