
 $NMID
 id='ANONYMOUS ', fmtdat='(2E16.6)'
 volume=1.0
 tramp=1.0
 $END
   3.053208e+03  -2.200188e+01
   2.069221e+03   1.647097e+03
  -3.347059e+01   1.803756e+03
  -1.152903e+03   1.030932e+03
  -8.689309e+02   2.656515e+02
  -1.260557e+02  -1.199538e+02
   3.191887e+02   7.438386e+01
   2.692074e+01   5.321193e+02
  -4.064592e+02   5.262029e+02
  -4.988805e+02   6.621865e+01
  -3.461304e+02  -4.146932e+02
  -5.617430e+01  -5.724481e+02
   2.699522e+02  -1.231256e+02
   2.131979e+02   3.980396e+02
  -9.152994e+01   4.710865e+02
  -3.184313e+02   8.549946e+01
  -3.005602e+02  -4.302639e+02
   7.455294e+01  -5.493444e+02
   4.278528e+02  -2.471839e+02
   3.762518e+02   1.177242e+02
   1.574476e+02   3.098975e+02
  -9.678160e+01   2.148621e+02
  -5.396864e+01   1.414903e+02
   1.828812e+02   1.151181e+02
   2.213952e+02   2.390183e+02
  -6.699986e+01   3.218789e+02
  -4.344663e+02   1.678475e+02
  -5.976255e+02  -1.767230e+02
  -2.187144e+02  -3.625056e+02
   3.474099e+02  -1.704085e+02
   4.606491e+02   1.465272e+02
   1.723177e+02   3.469923e+02
  -2.791822e+02   3.010336e+02
  -4.367475e+02   1.349633e+02
  -2.675639e+02  -1.506626e+02
  -6.544161e+01  -2.746972e+02
   2.584483e+01  -1.432927e+02
  -3.447219e+01   9.350780e+01
  -1.533666e+02   1.624568e+02
  -1.964223e+02  -1.299508e+02
  -3.441115e+01  -4.791414e+02
   2.260650e+02  -3.971314e+02
   2.835240e+02   5.034525e+01
   1.152834e+02   3.081648e+02
  -1.480641e+02   1.533266e+02
  -1.781122e+02  -2.475743e+02
   1.247778e+02  -3.573915e+02
   4.398907e+02  -2.775768e+01
   4.509565e+02   3.791964e+02
   1.239878e+02   4.471538e+02
  -2.794542e+02   2.391702e+02
  -5.002283e+02  -5.606214e+01
  -3.038207e+02  -2.486865e+02
   1.269678e+02  -2.210558e+02
   2.872497e+02  -5.703982e+01
   2.077670e+02   3.124774e+01
  -5.619784e+00   1.257147e+01
  -5.015162e+01  -8.619643e+01
   9.290565e+01  -2.077021e+01
   2.038823e+02   5.151349e+01
   9.248891e+01   1.971913e+02
  -1.386950e+02   2.170187e+02
  -2.829665e+02   1.038973e+02
  -2.328506e+02  -1.094252e+02
   2.608644e+01  -2.824674e+02
   2.625905e+02  -3.603575e+02
   3.542339e+02  -1.557268e+02
   2.210212e+02   1.370474e+02
   8.459810e+01   3.547904e+02
  -1.813949e+01   3.214134e+02
  -2.523075e+01   1.472084e+02
  -2.180576e+01   8.939133e+01
  -1.594647e+02   1.217324e+02
  -2.548010e+02   6.146335e+01
  -2.402756e+02  -9.984264e+01
  -7.919205e+01  -2.739161e+02
   1.007686e+02  -1.965018e+02
   2.043319e+02   5.464586e+01
   1.423039e+02   2.256936e+02
  -4.404141e+01   2.259706e+02
  -2.449547e+02   4.190825e+01
  -2.780265e+02  -1.798983e+02
  -1.463704e+02  -2.814245e+02
   3.545549e+01  -2.397275e+02
   1.566934e+02  -1.399556e+02
   1.356729e+02  -6.152163e+01
   1.370149e+02  -6.554885e+01
   2.821301e+02  -2.308350e+01
   3.783770e+02   1.151807e+02
   2.911654e+02   3.008382e+02
  -3.987797e+01   4.209787e+02
  -3.806894e+02   3.499451e+02
  -4.854338e+02   1.523336e+02
  -2.770133e+02  -1.117671e+02
  -5.876260e+01  -2.570984e+02
   6.647633e+01  -1.763529e+02
   1.739493e+01  -3.527449e+01
  -1.207784e+02   5.189418e+01
  -1.193069e+02  -7.765401e+01
  -1.353091e+01  -1.243058e+02
   1.490268e+02  -1.075548e+02
   1.161851e+02   9.028429e+01
  -4.445254e+01   1.177003e+02
  -1.723201e+02   1.059732e+01
  -1.440607e+02  -2.270766e+02
   4.049168e+01  -3.292249e+02
   2.243976e+02  -1.723620e+02
   3.315212e+02   4.404842e+01
   2.355679e+02   2.284907e+02
   6.498599e+01   2.702954e+02
  -1.253321e+02   1.519291e+02
  -1.326537e+02   2.652098e+01
  -4.729167e+01  -2.446699e+00
   6.610343e+01   3.453838e+01
  -2.898678e+00   9.225738e+01
  -1.193347e+02   6.645078e+01
  -1.226858e+02  -5.837704e+01
  -4.772260e+01  -6.004464e+01
   7.587276e+01   9.659572e+00
   3.639828e+01   8.177855e+01
  -1.518934e+02   9.724860e+01
  -3.007886e+02  -2.439810e+01
  -2.499387e+02  -1.437854e+02
  -4.271675e+01  -2.677299e+02
   2.035157e+02  -2.040279e+02
   2.547075e+02  -7.990378e+01
   1.302310e+02   6.713929e+01
  -1.814390e+01   8.254147e+01
  -6.177753e+01  -3.124551e+01
   4.625522e+01  -4.365551e+01
   1.786029e+02  -2.634921e+01
   1.826193e+02   1.012824e+02
   4.765629e+01   1.686792e+02
  -8.764350e+01   1.256075e+02
  -1.196193e+02   5.710329e+00
  -2.247051e+01  -2.888067e+01
   2.303158e+01  -3.967791e-01
   1.466472e+01   1.269869e+02
  -1.052676e+02   1.113188e+02
  -1.976227e+02  -6.657388e+00
  -1.502244e+02  -1.418585e+02
   6.719629e+00  -1.934085e+02
   1.539421e+02  -1.314478e+02
   1.653866e+02   2.616653e+01
   8.124505e+01   8.953924e+01
  -7.741485e+01   1.151898e+02
  -5.866450e+01   4.898965e+01
   8.263603e+00  -3.715572e+01
   4.215948e+01   2.192708e+00
   1.433334e+01   5.778949e+01
  -6.138864e+01  -2.130222e+01
  -7.245437e+01  -1.112251e+02
   1.724694e+01  -1.833793e+02
   1.182879e+02  -1.286042e+02
   2.228288e+02   8.528423e-01
   1.622799e+02   1.264837e+02
   3.969244e+01   2.015363e+02
  -1.172043e+02   1.535022e+02
  -1.132794e+02   2.078086e+01
  -6.082717e+01  -2.818167e+01
  -2.451492e+01  -2.338915e+01
  -5.929689e+01   2.253577e+01
  -1.053166e+02   1.167955e+00
  -4.212603e+01  -6.573009e+01
   4.435162e+01  -9.674657e+01
   1.315455e+02  -6.150577e+01
   9.588148e+01   2.331035e+01
  -2.689171e+01   1.196500e+02
  -1.326368e+02   6.483053e+01
  -2.046962e+02  -6.665402e+01
  -8.615882e+01  -2.057806e+02
   1.240280e+02  -2.352507e+02
   2.645396e+02  -6.985553e+01
   2.261305e+02   7.939501e+01
   9.720162e+01   1.696673e+02
  -5.046025e+01   1.343089e+02
  -8.608302e+01   6.696117e+01
  -3.800384e+01   6.571035e+01
  -2.901582e+01   8.032857e+01
  -1.125789e+02   9.239934e+01
  -1.569028e+02  -7.975306e+00
  -1.074793e+02  -1.494367e+02
  -3.868053e+01  -2.076970e+02
   1.087855e+02  -1.493143e+02
   1.637185e+02   6.571404e+00
   1.066433e+02   1.100483e+02
   3.029944e+01   1.604037e+02
  -6.605459e+01   7.338989e+01
  -6.403163e+01   2.104970e+00
   5.433444e+00  -4.251983e+01
   2.745064e+00  -4.290026e+01
  -2.867681e+01  -2.060537e+01
  -8.843669e+01  -4.901972e+01
  -1.522583e+01  -2.531805e+01
   6.504887e+01  -3.515993e+01
   1.486081e+02  -3.136218e+01
   1.391266e+02   6.884490e+01
   1.201118e+00   8.611760e+01
  -1.179328e+02   7.595448e+01
  -1.349084e+02   1.051801e+01
  -5.044920e+01  -8.220398e+01
   6.041427e+01  -5.675268e+01
   5.896690e+01   9.808038e+00
   2.679842e+01   7.427439e+01
  -3.981572e+01   5.329782e+01
  -7.465471e+01   1.489040e+01
  -2.935385e+01  -5.383180e+01
  -3.881864e+01  -4.695032e+01
  -5.689534e+01  -1.642813e+00
  -4.943520e+01  -1.406510e+01
  -3.700539e+01  -7.164918e+01
   2.222984e+01  -1.334464e+02
   1.050888e+02  -1.545960e+02
   1.601998e+02  -2.146575e+01
   1.694906e+02   1.031889e+02
   8.004302e+00   1.470498e+02
  -8.616926e+01   4.617675e+01
  -3.982583e+01  -1.386091e+01
   4.521613e+01  -1.511131e+01
   1.465349e+02   3.365246e+01
   7.861406e+01   1.062547e+02
  -1.089309e+02   9.681449e+01
  -1.906398e+02   2.863542e+01
  -1.650308e+02  -6.691244e+01
  -3.124396e+01  -6.922899e+01
   7.196568e+01  -8.128422e+01
   5.308835e+01   2.150297e+01
  -2.189119e+01   9.330055e+00
  -9.029620e+01  -1.909749e+01
  -3.051185e+01  -1.211138e+02
   9.313973e+01  -1.565800e+02
   1.124796e+02  -7.742041e+01
   1.492090e+02   1.220745e+02
  -1.137148e+01   1.820211e+02
  -8.302743e+01   1.582347e+02
  -9.737327e+01  -7.635207e+00
  -5.362926e+01  -1.358875e+02
  -1.147399e-01  -8.205826e+01
   4.855921e+01  -2.339370e+01
   4.978311e+01   1.612521e+01
   9.814670e+00  -2.407428e+00
   2.298932e+01  -2.116161e+01
   5.135620e+01   2.142360e+01
   5.286633e+01   9.143541e+01
   3.055130e+01   9.552753e+01
  -7.284301e+01   4.340477e+01
  -1.146401e+02  -7.945218e+01
  -1.177513e+02  -1.027876e+02
  -3.970498e+01  -5.731905e+01
   1.113316e+02  -2.641656e+01
   7.566778e+01   2.925923e+01
   1.400883e+01   1.806564e+01
  -3.165039e+01   1.259026e+01
  -2.244432e+01   1.096604e+01
   2.354896e+01  -1.157193e+01
   5.328454e+00   8.259930e+00
  -6.045164e+01  -1.564132e+01
  -7.579299e+01  -2.332484e+01
  -1.757337e+01  -1.017561e+02
   1.203035e+02  -1.340142e+02
   1.693025e+02  -6.326660e+01
   1.498932e+02   4.855435e+01
   3.715086e+01   1.481996e+02
  -7.529265e+01   1.677187e+02
  -9.057102e+01   6.237866e+01
  -6.675485e+01  -1.065989e+01
  -1.120414e+01  -3.721001e+01
   6.498893e+00   5.127607e+00
  -5.858156e+01  -1.438578e+01
  -3.236426e+01  -2.913368e+01
  -1.280697e+01  -1.059524e+02
   3.299156e+01  -6.013808e+01
   5.745512e+01   1.341201e+01
   6.929149e+01   9.382235e+01
   1.829504e+01   1.087652e+02
  -7.105894e+01   5.374214e+01
  -1.069151e+02  -6.997448e+01
  -9.454315e+00  -1.016189e+02
   9.553773e+01  -7.231024e+01
   1.149070e+02   2.125644e+01
   3.607509e+01   6.499544e+01
  -5.039244e+01   6.289406e+01
  -1.761076e+01   2.074838e+01
   2.126113e+01  -1.390560e+00
   3.800109e+01  -1.336957e+01
   4.393692e+00   2.721028e+01
  -6.925216e+01   7.500354e+01
  -1.145337e+02   1.926945e+01
  -4.961080e+01  -1.564034e+01
   4.462509e+01  -1.012273e+02
   4.602285e+01  -7.386424e+01
   1.922687e+01  -1.243708e+01
   5.143446e-01   4.026503e+01
  -8.408147e+00   3.941314e+01
  -3.246201e+01  -9.019514e+00
  -1.992722e+01  -5.234355e+01
  -1.977076e+01  -1.830093e+01
   5.230460e+01  -1.667472e+01
   5.739769e+01   1.696536e+01
   5.877586e+01  -2.741832e+01
   2.782538e+01  -2.258872e+01
  -1.570454e+01  -8.578237e-01
  -5.751732e+00   3.525808e+01
   4.243106e+00   6.695661e+01
  -9.671452e+00   1.885982e+01
  -1.523820e+01  -4.712062e+01
  -7.552266e+00  -4.718229e+01
   3.623662e+01  -8.481797e+00
   4.790958e+01   4.713467e+01
   2.030018e+01   8.036219e+01
  -6.211671e+01   5.093521e+01
  -7.565376e+01  -1.189713e+01
  -4.525130e+01  -4.223030e+01
   3.141892e+01  -6.375701e+01
   3.960569e+01  -3.653437e+01
   3.879514e+01  -2.863269e+01
  -6.740661e+00   2.629608e+01
  -2.950384e+01  -1.649039e+00
   1.871306e+01  -4.151135e+01
   9.644526e+01  -2.296924e+01
