
 $NMID
 id='ANONYMOUS ', fmtdat='(2E16.6)'
 volume=1.0
 tramp=1.0
 $END
   4.749513e+03  -1.859001e+02
   2.954306e+03   2.674751e+03
  -6.959467e+02   2.931256e+03
  -2.201714e+03   1.101423e+03
  -1.129333e+03  -7.563957e+02
   5.711701e+02  -8.550669e+02
   9.885783e+02   3.301984e+02
   1.000923e+02   1.090266e+03
  -7.856319e+02   9.203988e+02
  -1.031133e+03  -5.836641e+01
  -5.186912e+02  -9.129533e+02
   2.065781e+02  -9.995043e+02
   6.890590e+02  -1.894910e+02
   4.515805e+02   8.126252e+02
  -2.924685e+02   7.988622e+02
  -6.744401e+02   4.815768e+01
  -3.456916e+02  -7.489889e+02
   3.244211e+02  -6.649472e+02
   6.225972e+02  -1.139990e+02
   4.222965e+02   3.764536e+02
   4.419110e+01   4.756102e+02
  -2.518721e+02   3.121970e+02
  -2.374472e+02   5.360477e+01
   1.195199e+02  -1.311419e+02
   4.384599e+02   9.019865e+01
   2.467620e+02   4.318716e+02
  -4.555133e+02   4.290039e+02
  -8.963295e+02  -3.447159e+01
  -4.663417e+02  -5.595189e+02
   4.043532e+02  -5.232787e+02
   7.792610e+02   5.857849e+00
   3.896866e+02   4.945590e+02
  -2.875761e+02   5.548532e+02
  -5.986151e+02   2.074741e+02
  -4.620091e+02  -2.329329e+02
  -5.582049e+01  -5.037168e+02
   2.103929e+02  -2.735601e+02
   1.897267e+02   2.436914e+02
  -1.659516e+02   4.534452e+02
  -4.483006e+02   1.754268e+01
  -2.765907e+02  -6.983909e+02
   3.428955e+02  -7.758944e+02
   6.453147e+02  -2.704814e+01
   2.910068e+02   5.979494e+02
  -3.233982e+02   3.719317e+02
  -4.350472e+02  -3.117143e+02
   6.230411e+01  -5.776602e+02
   5.725352e+02  -1.476172e+02
   6.599951e+02   4.496136e+02
   1.666438e+02   5.863448e+02
  -4.106099e+02   3.536401e+02
  -6.573237e+02  -6.564436e+01
  -4.040894e+02  -3.980349e+02
   1.279400e+02  -3.796302e+02
   4.578659e+02  -8.398648e+01
   2.788778e+02   2.446239e+02
  -1.546935e+02   1.211460e+02
  -1.752144e+02  -1.750463e+02
   1.795506e+02  -1.764462e+02
   3.822667e+02   5.179474e+01
   1.869040e+02   2.864159e+02
  -2.211762e+02   2.899656e+02
  -3.909822e+02   7.742326e+01
  -2.113403e+02  -8.694542e+01
   4.384859e+01  -2.241175e+02
   2.346568e+02  -3.211216e+02
   3.154237e+02  -2.190109e+02
   3.113230e+02   1.476135e+02
   8.845135e+01   4.529896e+02
  -1.102238e+02   3.985580e+02
  -1.012621e+02   1.501141e+02
  -1.582035e+01  -3.492901e+01
  -4.003430e+01   7.640805e+01
  -2.088446e+02   1.110495e+02
  -2.737470e+02  -4.057575e+01
  -1.997787e+02  -2.678679e+02
   5.483202e+01  -2.821422e+02
   2.452461e+02  -1.526045e+01
   2.007467e+02   2.395528e+02
   2.938593e+01   3.306732e+02
  -2.863335e+02   1.729190e+02
  -4.047704e+02  -1.544018e+02
  -2.085100e+02  -3.532686e+02
   1.117870e+02  -3.133682e+02
   2.423523e+02  -1.324174e+02
   1.853510e+02   4.736308e+00
   8.243163e+01  -5.374681e+01
   2.455559e+02  -8.576538e+01
   4.134517e+02   4.909524e+01
   3.575866e+02   2.906859e+02
   2.504930e+01   4.637619e+02
  -3.353283e+02   4.327974e+02
  -5.045583e+02   2.216616e+02
  -3.305629e+02  -8.972137e+01
  -4.812955e+01  -3.020220e+02
   1.087268e+02  -2.645737e+02
   1.079456e+02  -4.656907e+01
  -9.147754e+01   1.235918e+02
  -2.224668e+02  -9.509326e+00
  -6.075457e+01  -1.739029e+02
   1.629561e+02  -1.879538e+02
   1.951840e+02   6.410072e+01
  -1.106229e+01   2.390403e+02
  -2.128084e+02   6.407013e+01
  -1.692615e+02  -2.442689e+02
   2.860731e+01  -3.582871e+02
   2.402165e+02  -2.258132e+02
   3.268011e+02   5.547924e+01
   2.839906e+02   2.230235e+02
   8.628733e+01   2.840242e+02
  -1.115586e+02   1.853858e+02
  -1.698681e+02   1.775501e+01
  -5.104316e+01  -5.036604e+01
   5.313029e+01   1.789351e+01
   6.361878e+01   1.390536e+02
  -1.326189e+02   9.498697e+01
  -2.002440e+02   7.876933e+00
  -6.671844e+01  -7.343982e+01
   6.986477e+01  -4.215424e+01
   5.668401e+01   5.399407e+01
  -1.315076e+02   7.716680e+01
  -2.692916e+02   7.548614e+00
  -2.594781e+02  -1.317105e+02
  -5.975322e+01  -2.571322e+02
   1.673960e+02  -2.738264e+02
   2.936550e+02  -1.569612e+02
   1.692761e+02   3.462367e+01
  -6.447933e+00   9.436069e+01
  -9.064948e+01   3.389390e+01
   3.700166e+01  -1.026685e+02
   2.187007e+02  -6.231690e+01
   2.202869e+02   1.165451e+02
   8.534506e+01   2.315135e+02
  -1.073495e+02   1.547354e+02
  -1.354913e+02   5.221611e+01
  -7.615064e+01  -2.880709e+01
   1.076918e+01   2.175936e+00
   1.861241e+01   5.099991e+01
  -6.173903e+01   1.113032e+02
  -1.940158e+02   2.649445e+01
  -2.009686e+02  -1.346130e+02
  -2.673855e+01  -2.306593e+02
   1.680980e+02  -1.742274e+02
   2.000361e+02  -9.176480e+00
   4.393531e+01   1.418023e+02
  -4.971529e+01   1.112370e+02
  -6.269840e+01   2.240569e+01
  -3.352758e+01  -2.709084e+01
  -1.297791e+01  -2.566881e+01
   1.022383e+01   9.562652e+00
  -6.507949e+01   1.363659e+01
  -9.412774e+01  -7.638923e+01
  -1.030606e+01  -1.559062e+02
   1.170203e+02  -1.546027e+02
   2.248405e+02  -5.100495e+01
   2.129188e+02   1.574257e+02
   6.762312e+01   2.435756e+02
  -1.018759e+02   1.871737e+02
  -1.653802e+02   4.465221e+01
  -7.399738e+01  -6.109587e+01
  -2.693116e+01  -2.191605e+01
  -6.024071e+01   2.533252e+01
  -7.446555e+01   1.924433e+01
  -5.192079e+01  -5.065642e+01
   5.929124e+01  -7.339669e+01
   9.787153e+01  -3.873639e+01
   7.267796e+01   3.949944e+01
  -3.785189e+01   1.023548e+02
  -1.473434e+02   8.368463e+01
  -1.833167e+02  -2.596522e+01
  -1.006702e+02  -2.078250e+02
   7.399372e+01  -2.182123e+02
   2.377295e+02  -8.293770e+01
   2.665510e+02   1.123548e+02
   6.899161e+01   1.733797e+02
  -3.490301e+01   1.502243e+02
  -7.252578e+01   1.082571e+02
  -6.666094e+01   6.036569e+01
  -7.540313e+01   1.020593e+02
  -1.070972e+02   1.005361e+02
  -1.350114e+02  -2.459035e+01
  -1.218199e+02  -1.454547e+02
  -5.534505e+01  -2.230670e+02
   8.050858e+01  -1.597846e+02
   1.493504e+02  -5.407369e+01
   1.588981e+02   1.306288e+02
   8.373385e+00   1.428401e+02
  -4.971893e+01   7.532372e+01
  -7.178962e+01  -2.194112e+00
  -1.660904e+01  -1.787534e+01
  -1.677798e+01  -3.494640e+01
  -3.474797e+01  -2.460600e+01
  -1.149457e+02  -2.198052e+01
  -4.039784e+01  -4.060329e+01
   5.918637e+01  -4.656822e+01
   1.481253e+02  -3.650727e+01
   1.399337e+02   4.998119e+01
   2.015150e+01   8.630497e+01
  -1.265514e+02   6.883723e+01
  -1.473779e+02   9.900835e+00
  -5.415119e+01  -2.270993e+01
   6.527565e+01  -4.129004e+01
   9.153503e+01   1.252286e+01
   1.764522e+00   6.632085e+01
  -3.872792e+01   3.603255e+01
  -8.233638e+01  -2.752727e+00
  -3.805013e+01  -1.761631e+01
  -5.289073e+01  -4.102515e+01
  -5.628174e+01  -8.369860e+00
  -5.994184e+01   5.432076e+00
  -4.122751e+01  -5.067437e+01
   3.508069e+01  -1.368629e+02
   9.966328e+01  -1.240026e+02
   1.434005e+02  -5.526184e+01
   1.203317e+02   9.395182e+01
   3.117232e+01   1.465724e+02
  -1.004735e+02   7.425576e+01
  -3.174451e+01  -1.089949e+01
   4.278790e+01  -4.333579e+01
   1.547888e+02   1.592396e+01
   6.664376e+01   1.187583e+02
  -8.840345e+01   1.030008e+02
  -1.820295e+02   6.423871e+01
  -1.520741e+02  -2.263659e+01
  -2.013798e+01  -1.074099e+02
   4.640626e+01  -8.550904e+01
   2.942629e+01   1.189951e+01
  -2.876770e+01   3.844031e+01
  -9.657361e+01  -1.179593e+01
  -4.283917e+01  -1.151973e+02
   1.088746e+02  -1.506307e+02
   1.754121e+02  -4.804610e+01
   1.180808e+02   8.977290e+01
   5.147654e+01   2.106251e+02
  -5.812019e+01   1.516820e+02
  -9.217484e+01  -8.776938e-01
  -7.121429e+01  -9.866605e+01
  -4.929385e-01  -1.181506e+02
   4.539524e+01  -2.880315e+01
   7.880160e+01   5.177029e+01
   1.846606e+01   7.262590e+00
   1.223192e+01  -1.709464e+01
   2.078690e+01   1.809424e+01
   6.806274e+01   6.997034e+01
   4.990495e+01   1.075504e+02
  -5.306500e+01   1.967010e+01
  -1.305116e+02  -4.314977e+01
  -1.220841e+02  -5.936366e+01
  -1.291351e+01  -5.229236e+01
   7.673384e+01  -1.589443e+01
   9.503235e+01  -2.116067e+01
   2.583155e+01   2.205044e+01
  -3.881627e+01   4.132887e+00
  -3.118801e+01   2.795125e+01
   1.870387e+01  -3.911235e+00
  -3.049055e+01  -1.272295e+01
  -5.179159e+01  -2.061532e+01
  -7.275095e+01  -2.149165e+01
  -2.923308e+00  -7.910753e+01
   8.569408e+01  -1.099095e+02
   1.856680e+02  -6.377739e+01
   1.495664e+02   6.194334e+01
   3.289763e+01   1.560783e+02
  -7.733896e+01   1.596969e+02
  -1.021580e+02   4.956652e+01
  -7.330371e+01  -2.279992e+01
  -8.480375e+00  -4.398030e+01
   1.227673e+01   1.967743e+01
  -8.377350e+00  -1.383762e+01
  -3.266414e+01  -6.821723e+01
  -1.530535e+01  -1.150141e+02
   3.509877e+01  -7.252455e+01
   1.116016e+02   4.072097e+01
   8.632615e+01   1.208145e+02
  -3.986800e+00   1.291713e+02
  -7.190036e+01   1.781011e+01
  -9.997195e+01  -6.672436e+01
  -4.525437e+01  -9.266729e+01
   5.890610e+01  -3.453333e+01
   8.636619e+01   3.906296e+01
   3.430490e+01   7.383526e+01
  -3.618232e+01   4.027306e+01
  -3.166399e+01   2.697907e+01
   4.118904e+01  -1.372843e+01
   5.957423e+01   2.805753e-01
   4.538471e+01   3.270694e+01
  -6.993744e+01   4.811891e+01
  -1.031460e+02   5.872046e+01
  -5.451267e+01  -2.299495e+01
   1.056533e+01  -6.180111e+01
   6.471902e+01  -6.853797e+01
   3.889755e+01   6.247313e+00
  -1.791762e+01   6.695864e+01
  -2.454356e+01   4.773686e+01
  -3.436997e+01  -3.401212e+01
  -1.670580e+01  -3.420111e+01
   1.827815e+01  -2.384865e+01
   3.544567e+01   3.659505e+01
   4.018464e+01   1.989107e+01
   1.308320e+01   1.722720e+01
   2.291077e+00  -2.406447e+01
  -1.331772e+01  -1.683676e+01
  -3.172874e+00   2.899947e+01
  -1.638149e+01   2.014092e+01
  -6.967668e+01   1.285608e+01
  -2.833927e+01  -4.822341e+01
   6.804725e+00  -8.017671e+01
   6.208254e+01  -3.129813e+01
   8.054648e+01   4.173675e+01
   4.329903e+00   6.583038e+01
  -6.888054e+01  -1.404828e+00
  -8.748541e+01  -2.658733e+01
  -4.464339e+01  -4.262230e+01
   2.474491e+01  -1.190148e+01
   5.520050e+01  -4.677152e+01
  -5.470389e+00   1.652785e+01
  -4.939942e+01  -6.013909e+00
  -3.641109e+01  -2.280489e+01
   4.780749e+01  -3.494232e+01
   9.425088e+01  -1.023165e+01
