
 $NMID
 id='ANONYMOUS ', fmtdat='(2E16.6)'
 volume=1.0
 tramp=1.0
 $END
  -3.732944e+03   1.126429e+02
  -2.057311e+03  -1.895455e+03
   6.095918e+01  -2.184216e+03
   1.393536e+03  -1.117184e+03
   8.638202e+02   3.271126e+01
  -1.759479e+02   3.168268e+02
  -4.216097e+02  -2.168908e+02
   1.175481e+01  -7.276794e+02
   6.147623e+02  -6.462956e+02
   7.784026e+02  -3.356903e+01
   4.036788e+02   5.507143e+02
  -9.042670e+01   7.366040e+02
  -4.097943e+02   1.698684e+02
  -2.636710e+02  -5.404613e+02
   1.626474e+02  -5.897076e+02
   4.783447e+02  -5.456040e+01
   3.055179e+02   5.341659e+02
  -1.735014e+02   6.271536e+02
  -4.970723e+02   2.167349e+02
  -4.087195e+02  -2.190957e+02
  -7.037977e+01  -3.513871e+02
   1.409619e+02  -2.336494e+02
   1.501600e+02  -1.160613e+01
  -1.211219e+02  -6.527967e+01
  -2.929692e+02  -2.381808e+02
  -7.971273e+00  -3.726823e+02
   4.254699e+02  -2.516061e+02
   6.528987e+02   1.255417e+02
   2.695389e+02   4.618460e+02
  -3.640251e+02   3.217231e+02
  -5.637107e+02  -1.247138e+02
  -2.734032e+02  -3.922934e+02
   2.540508e+02  -3.889342e+02
   4.872717e+02  -1.588458e+02
   3.645637e+02   1.489955e+02
   9.201298e+01   3.876284e+02
  -9.657325e+01   2.139423e+02
  -8.895461e+01  -1.302243e+02
   1.854688e+02  -2.252915e+02
   2.919067e+02   8.788301e+01
   8.835202e+01   5.245159e+02
  -2.566511e+02   5.169086e+02
  -4.023283e+02   1.069949e+01
  -2.380028e+02  -3.866670e+02
   1.989420e+02  -2.279979e+02
   2.650911e+02   3.283254e+02
  -1.267196e+02   4.674183e+02
  -4.857252e+02   1.090166e+02
  -5.394752e+02  -4.072926e+02
  -1.726459e+02  -5.245288e+02
   3.410793e+02  -2.736066e+02
   5.458680e+02   5.279577e+01
   3.537962e+02   2.873436e+02
  -1.098923e+02   2.817295e+02
  -3.584662e+02   8.653388e+01
  -2.363076e+02  -8.443721e+01
   4.768305e+01  -7.884493e+01
   1.168411e+02   7.544318e+01
  -1.107990e+02   8.453988e+01
  -2.570451e+02  -4.850600e+01
  -1.118143e+02  -2.175467e+02
   1.580499e+02  -2.370215e+02
   3.432086e+02  -1.412373e+02
   2.482298e+02   6.803957e+01
  -6.058245e+00   2.703897e+02
  -2.528376e+02   3.243529e+02
  -3.075752e+02   1.775084e+02
  -2.325777e+02  -1.744197e+02
  -3.395170e+01  -3.671563e+02
   4.245517e+01  -3.338939e+02
   7.792319e+01  -1.154948e+02
   4.575222e+01  -4.864012e+01
   9.310404e+01  -1.175279e+02
   2.427948e+02  -7.589549e+01
   2.411715e+02   9.834234e+01
   8.963738e+01   2.382589e+02
  -9.678263e+01   2.215547e+02
  -2.152401e+02  -3.861270e+01
  -1.600566e+02  -2.521898e+02
   3.817819e+01  -2.595337e+02
   2.551178e+02  -7.980721e+01
   3.470269e+02   1.648560e+02
   1.579224e+02   3.341976e+02
  -4.859548e+01   2.890859e+02
  -1.888648e+02   1.429432e+02
  -1.386660e+02   6.303070e+01
  -1.204459e+02   6.169311e+01
  -2.323945e+02   5.139788e+01
  -4.023179e+02  -7.725038e+01
  -3.335403e+02  -3.024931e+02
   2.503366e+01  -4.223324e+02
   3.708023e+02  -3.730015e+02
   4.472720e+02  -1.486114e+02
   3.021779e+02   8.150235e+01
   4.813153e+01   2.475888e+02
  -1.092131e+02   2.152705e+02
  -5.482950e+01   2.862267e+01
   8.896418e+01  -6.716238e+01
   1.491312e+02  -1.627883e+00
   6.501569e+01   1.685168e+02
  -1.281428e+02   1.313188e+02
  -1.333998e+02  -6.704246e+01
   2.634705e+01  -1.444170e+02
   1.721319e+02  -2.502627e+01
   1.248149e+02   2.379701e+02
  -2.963036e+01   3.375163e+02
  -2.070338e+02   2.044778e+02
  -3.611376e+02  -8.471542e+01
  -2.716407e+02  -2.891633e+02
  -6.468232e+01  -2.501667e+02
   1.227336e+02  -1.387421e+02
   1.617889e+02   2.234724e+01
   5.502069e+00   2.842262e+01
  -5.017849e+01  -4.589742e+01
  -2.946267e+01  -1.180208e+02
   1.396185e+02  -5.859112e+01
   1.496788e+02   3.323416e+01
   3.785085e+01   8.183681e+01
  -8.756347e+01  -2.888633e+01
  -4.177088e+01  -8.921382e+01
   1.264893e+02  -8.229588e+01
   3.137668e+02  -8.034666e+00
   2.668162e+02   1.645936e+02
   2.872860e+01   2.510568e+02
  -1.988307e+02   2.454718e+02
  -2.697369e+02   9.327616e+01
  -1.332168e+02  -2.917471e+01
   4.503639e+01  -8.588285e+01
   1.099675e+02   2.101232e+01
  -5.037491e+01   7.831338e+01
  -1.863376e+02   2.200737e+01
  -1.974607e+02  -1.210682e+02
  -4.401313e+01  -1.767934e+02
   9.040776e+01  -1.762608e+02
   1.475121e+02  -2.978891e+01
   6.213509e+01   3.327429e+01
  -5.220411e+01  -2.497135e+01
  -5.091676e+01  -7.771851e+01
   6.681123e+01  -1.299953e+02
   2.047609e+02  -4.762383e+01
   1.968941e+02   1.437606e+02
   7.517774e-01   2.251582e+02
  -1.625802e+02   1.548784e+02
  -1.569598e+02  -7.626072e+00
  -7.565538e+01  -7.489083e+01
   6.858715e+01  -7.655126e+01
   7.479962e+01  -3.861506e+01
   1.004913e+01   1.880199e+01
  -2.481773e+01   4.364924e+01
   8.865318e+00  -2.328387e+01
   7.524176e+01  -7.748932e-01
   8.647061e+01   7.046385e+01
   1.324813e+01   1.455251e+02
  -1.445308e+02   1.725644e+02
  -2.193315e+02  -3.691061e+00
  -1.830030e+02  -1.566192e+02
  -7.281517e+00  -2.224492e+02
   9.599858e+01  -1.362514e+02
   1.189727e+02  -2.483829e+01
   4.756802e+01   5.495160e+01
   3.774400e+01   3.374856e+01
   7.687463e+01  -1.627423e+00
   8.205613e+01   1.139906e+01
   3.126649e+01   5.317754e+01
  -3.849769e+01   1.204520e+02
  -1.044646e+02   5.130510e+01
  -8.665051e+01  -5.502190e+01
   7.619837e+00  -1.100311e+02
   1.793802e+02  -7.645766e+01
   1.798191e+02   1.067390e+02
   7.172538e+01   1.967031e+02
  -1.241377e+02   2.123846e+02
  -2.496323e+02   6.164600e+01
  -2.314447e+02  -8.228360e+01
  -9.672470e+01  -1.540641e+02
   3.286225e+01  -1.218611e+02
   8.986925e+01  -7.335790e+01
   7.800587e+01  -8.793573e+01
   6.216806e+01  -8.030089e+01
   1.116557e+02  -6.506376e+01
   1.082129e+02   4.639591e+01
   7.596278e+01   1.637464e+02
   4.668262e+00   1.999646e+02
  -9.480392e+01   1.456748e+02
  -1.766525e+02  -5.254357e+00
  -1.264303e+02  -1.256595e+02
  -3.287040e+00  -1.528590e+02
   8.757673e+01  -6.950635e+01
   6.231136e+01   2.600441e+01
   1.232290e+01   6.452607e+01
  -7.853486e+00   4.019401e+01
   3.214490e+01   5.429549e+00
   6.780152e+01   3.565984e+01
   3.226933e+01   4.270337e+01
  -7.271481e+01   3.483108e+01
  -1.764708e+02  -6.500280e-02
  -1.294599e+02  -4.139132e+01
  -2.663679e+01  -9.400213e+01
   1.247491e+02  -1.100594e+02
   1.266884e+02  -2.447303e+01
   3.351681e+01   5.363693e+01
  -3.637727e+01   6.082788e+01
  -7.689786e+01  -5.448636e+00
  -2.458057e+01  -8.151241e+01
   5.596935e+01  -5.918492e+01
   8.153634e+01   3.899267e+00
   7.400990e+01   5.434176e+01
   6.491620e+01   6.053938e+01
   5.779160e+01   3.478893e+00
   5.796747e+01   1.374704e+01
   1.735723e+01   6.008798e+01
  -2.484839e+01   1.196959e+02
  -1.082288e+02   1.161125e+02
  -1.437811e+02   4.355057e+01
  -1.210884e+02  -8.623588e+01
   1.503800e+01  -1.171078e+02
   8.963267e+01  -7.376522e+01
   6.709536e+01   3.110001e+01
  -5.859815e+01   2.605641e+01
  -1.189064e+02  -5.227781e+01
  -7.938411e+01  -1.202500e+02
   7.498962e+01  -1.069895e+02
   2.045153e+02  -4.842312e+00
   1.598977e+02   4.746489e+01
   1.694085e+01   7.461210e+01
  -7.476015e+01   9.520579e+01
  -5.291764e+01   2.219235e+01
   4.520176e+01  -1.667237e+01
   8.859355e+01   1.073391e+01
   4.179843e+01   1.178846e+02
  -9.322341e+01   1.436680e+02
  -1.514816e+02   4.269310e+01
  -1.322971e+02  -9.337781e+01
   9.043434e+00  -1.804523e+02
   1.097966e+02  -1.482299e+02
   8.019733e+01   1.434654e+01
   4.819461e+01   1.321386e+02
  -2.396442e+01   1.206296e+02
  -3.224279e+01   3.691363e+01
  -2.488851e+01  -2.223548e+01
  -1.336073e+01  -1.813264e+01
  -1.044359e+01   1.591187e+01
  -4.353444e+01  -2.238566e+01
  -5.927297e+01  -8.567755e+01
  -3.867417e+01  -8.081419e+01
   3.520965e+01  -6.282943e+01
   1.319960e+02   6.205217e+01
   1.196493e+02   6.949734e+01
  -6.447464e-01   3.373379e+01
  -7.246489e+01   2.155255e+01
  -1.173063e+02   3.324918e+01
  -2.103604e+01  -8.823390e+00
   1.692997e+01  -3.454150e+01
   3.333261e+01  -2.258006e+01
  -8.288368e+00   5.705972e+00
   4.975274e+00   8.140945e+00
   7.229710e+01  -2.038401e+01
   1.361128e+02   3.161938e+00
  -6.973400e+00   9.358636e+01
  -1.203998e+02   1.083663e+02
  -1.694726e+02   6.361588e+01
  -1.442045e+02  -5.446055e+01
  -1.496043e+01  -1.822478e+02
   7.100923e+01  -1.617242e+02
   1.213517e+02  -5.194042e+01
   1.007189e+02   3.641579e+01
  -5.833301e+00   2.765447e+01
  -5.228667e+00  -2.678085e+00
   3.115317e+01   3.746914e+00
   3.546350e+01   3.737595e+01
   1.994583e+00   7.683937e+01
  -4.147416e+01   5.884249e+01
  -5.931847e+01  -1.360621e+01
  -5.658474e+01  -8.973241e+01
  -2.556364e+01  -7.753796e+01
   9.241161e+01  -2.411574e+01
   1.049163e+02   6.147091e+01
   2.064598e+01   1.170145e+02
  -6.620163e+01   6.263756e+01
  -8.699972e+01   4.628508e+00
  -4.108733e+01  -3.616551e+01
   7.106699e+00  -2.550266e+01
   2.304378e+01  -3.802264e+01
  -4.555472e+01   3.630819e+01
  -8.580562e+01   3.623272e+01
   3.827178e-01  -3.003191e+01
   9.778062e+01  -6.166563e+01
   1.074275e+02  -6.573223e+01
   6.955015e+01   1.603006e+01
  -1.537375e+01   6.336384e+01
  -5.423986e+01   8.316838e+01
  -4.142107e+01   3.770821e+01
  -1.151715e+01  -4.084385e+01
   1.893121e+01  -4.682602e+01
   3.890268e+01   3.693882e+01
   1.242878e+01   7.365002e+01
  -4.897649e+00   5.779861e+01
  -3.165686e+01  -1.826223e+01
  -3.801602e+01   1.523324e+00
  -7.255527e+00  -2.049983e+01
   8.648711e-01  -8.654238e+00
  -1.823841e+01  -8.871357e+00
  -2.826128e+01  -3.640720e+00
  -4.185755e+00  -6.248636e+01
   3.640437e+01  -3.408094e+01
   2.761298e+01   4.685670e+01
   9.471035e+00   5.892133e+01
  -2.030225e+01   1.658956e+01
  -5.383201e+01  -5.468565e+01
  -1.326074e+01  -5.296739e+01
   3.236458e+01  -5.538540e+01
   9.229665e+01   1.618883e+01
   7.383803e+01   4.884808e+01
  -2.467117e+01   3.321438e+01
  -5.923569e+01   3.596603e+00
  -3.946870e+01  -2.315469e+01
   4.392607e+01  -2.185375e+01
   3.025226e+01   3.059973e+01
  -2.573611e+01   1.850891e+01
  -8.972000e+01   3.779757e+01
