
 $NMID
 id='ANONYMOUS ', fmtdat='(2E16.6)'
 volume=1.0
 tramp=1.0
 $END
   3.706642e+03   2.111609e+02
   2.095815e+03   1.960718e+03
  -1.948668e+02   2.320430e+03
  -1.572033e+03   9.204947e+02
  -9.537156e+02  -1.798940e+02
   3.053416e+02  -4.310587e+02
   4.817967e+02   2.863195e+02
   3.875549e+01   6.749736e+02
  -6.422307e+02   6.793254e+02
  -7.663792e+02  -2.864357e+01
  -4.350168e+02  -6.077780e+02
   8.058992e+01  -6.783230e+02
   4.333056e+02  -1.390810e+02
   3.034821e+02   6.010871e+02
  -1.764153e+02   6.346378e+02
  -4.724509e+02   2.543658e+01
  -2.767651e+02  -5.603432e+02
   1.837867e+02  -6.048180e+02
   4.913617e+02  -2.112740e+02
   3.605913e+02   2.298895e+02
   9.921839e+01   3.456207e+02
  -1.751618e+02   2.092519e+02
  -1.668165e+02   1.721474e+01
   1.422861e+02   5.704028e+01
   3.147712e+02   2.487600e+02
   3.050871e+01   3.755702e+02
  -4.567410e+02   2.370042e+02
  -6.289872e+02  -1.374192e+02
  -2.387032e+02  -4.637295e+02
   3.590631e+02  -3.344975e+02
   5.800757e+02   1.728848e+02
   2.257904e+02   4.033237e+02
  -2.723030e+02   4.151139e+02
  -5.068451e+02   1.570876e+02
  -3.544901e+02  -1.715814e+02
  -6.621509e+01  -4.411769e+02
   1.297522e+02  -2.095799e+02
   5.084178e+01   1.927201e+02
  -2.385235e+02   2.897146e+02
  -3.350782e+02  -1.206855e+02
  -4.447198e+01  -5.705304e+02
   3.324964e+02  -5.499601e+02
   4.500737e+02   5.769711e+01
   1.644274e+02   4.449434e+02
  -2.539268e+02   1.969998e+02
  -2.539723e+02  -3.617456e+02
   1.090072e+02  -4.535796e+02
   4.961266e+02  -5.712271e+01
   4.990372e+02   4.391806e+02
   1.498977e+02   5.622801e+02
  -3.610711e+02   2.771043e+02
  -5.338337e+02  -9.698671e+01
  -3.273241e+02  -3.396006e+02
   1.269960e+02  -2.819456e+02
   3.677951e+02  -5.201281e+01
   1.904615e+02   1.191688e+02
  -7.976234e+01   4.839230e+01
  -5.493769e+01  -1.066235e+02
   1.213866e+02  -1.079181e+02
   2.703614e+02   5.281988e+01
   1.114786e+02   2.307562e+02
  -2.020343e+02   2.304507e+02
  -3.316291e+02   1.219509e+02
  -1.981601e+02  -6.403563e+01
   3.782051e+01  -2.357411e+02
   2.457419e+02  -3.301203e+02
   3.207102e+02  -1.795428e+02
   2.442306e+02   1.572093e+02
   4.217174e+01   3.748020e+02
  -4.366417e+00   2.997482e+02
  -3.810397e+01   1.192021e+02
  -1.075757e+01   6.668685e+01
  -8.149989e+01   1.291277e+02
  -2.372173e+02   8.068969e+01
  -2.424921e+02  -9.543166e+01
  -1.080973e+02  -2.684194e+02
   1.139844e+02  -2.275839e+02
   1.965932e+02   3.892375e+01
   1.380198e+02   2.361747e+02
  -5.726314e+01   2.610876e+02
  -2.553657e+02   7.588383e+01
  -3.037104e+02  -1.749635e+02
  -1.495235e+02  -2.975636e+02
   7.507104e+01  -2.692228e+02
   2.083086e+02  -1.373685e+02
   1.442118e+02  -2.508800e+01
   1.297275e+02  -6.715300e+01
   2.628034e+02  -2.726861e+01
   3.884837e+02   1.016822e+02
   2.960042e+02   3.051725e+02
  -4.052979e+01   4.215103e+02
  -3.540768e+02   4.036908e+02
  -4.865729e+02   1.662803e+02
  -3.190876e+02  -8.328671e+01
  -1.636100e+01  -2.740040e+02
   9.606587e+01  -2.285024e+02
   5.250105e+01  -4.696358e+01
  -1.125172e+02   3.748614e+01
  -1.678007e+02  -2.494567e+01
  -3.500455e+01  -1.525108e+02
   1.183672e+02  -1.127029e+02
   1.375598e+02   5.788251e+01
  -4.468688e+01   1.760454e+02
  -1.649938e+02   1.881421e+01
  -1.388545e+02  -2.515693e+02
   4.957609e+01  -3.235131e+02
   2.351957e+02  -1.578821e+02
   3.463071e+02   4.024997e+01
   2.763912e+02   2.478954e+02
   3.850558e+01   2.770843e+02
  -1.332292e+02   1.216180e+02
  -1.427432e+02  -5.379892e+00
  -7.863482e+00  -5.943544e+00
   6.039281e+01   6.157678e+01
  -5.031222e+00   1.065435e+02
  -1.313548e+02   7.696025e+01
  -1.534037e+02  -2.950273e+01
  -4.620397e+01  -6.596077e+01
   7.936224e+01  -2.918503e+01
   4.714351e+01   1.067367e+02
  -1.348173e+02   7.601586e+01
  -2.786304e+02  -2.108194e+01
  -2.468863e+02  -1.591630e+02
  -2.692182e+01  -2.621868e+02
   1.903872e+02  -2.372191e+02
   2.816689e+02  -8.053270e+01
   1.656269e+02   5.582503e+01
  -4.602994e+01   1.120693e+02
  -7.566266e+01  -1.106032e+01
   5.591280e+01  -8.560192e+01
   1.917567e+02  -3.013182e+01
   2.002958e+02   1.137744e+02
   3.057177e+01   1.927493e+02
  -8.762674e+01   1.498649e+02
  -1.367357e+02   4.880897e+00
  -5.559838e+01  -4.848293e+01
   4.967201e+01   8.167101e+00
   3.712668e+01   7.568506e+01
  -5.272997e+01   1.212166e+02
  -2.178395e+02   1.680953e+01
  -1.776044e+02  -1.459642e+02
  -1.383577e+01  -2.066810e+02
   1.346673e+02  -1.495148e+02
   1.644762e+02  -6.720874e-01
   6.865449e+01   1.043266e+02
  -7.256596e+01   1.040896e+02
  -7.076808e+01   1.695895e+01
  -5.322571e+00  -4.223205e+01
   5.618641e+01   2.252954e+01
   7.404386e-01   5.090811e+01
  -6.773754e+01   8.186114e+00
  -8.084932e+01  -8.511210e+01
  -1.764240e+01  -1.507498e+02
   1.354095e+02  -1.537816e+02
   2.321108e+02  -7.825827e+00
   1.890589e+02   1.595891e+02
   2.158858e+00   2.296063e+02
  -1.139431e+02   1.780879e+02
  -1.152518e+02   4.013003e+00
  -4.100885e+01  -5.587596e+01
  -3.344935e+01  -3.038194e+01
  -5.090060e+01   3.415011e+01
  -8.768361e+01   1.669647e+01
  -4.699416e+01  -5.590910e+01
   2.731116e+01  -1.211359e+02
   8.814783e+01  -5.926163e+01
   9.785311e+01   2.887238e+01
  -1.377859e+01   1.075972e+02
  -1.932377e+02   7.790103e+01
  -1.938799e+02  -2.787289e+01
  -7.417268e+01  -1.935067e+02
   1.211306e+02  -1.989970e+02
   2.611279e+02  -6.480599e+01
   2.274818e+02   7.939173e+01
   9.369380e+01   1.836567e+02
  -2.314686e+01   1.376196e+02
  -6.970452e+01   7.779589e+01
  -8.514042e+01   9.357283e+01
  -7.549256e+01   7.072430e+01
  -1.244938e+02   6.763969e+01
  -1.170163e+02  -1.083363e+01
  -1.031408e+02  -1.518475e+02
  -2.936950e+01  -2.364291e+02
   1.138482e+02  -1.580117e+02
   1.582890e+02  -1.544474e+01
   1.239031e+02   1.160118e+02
   3.359447e+01   1.601262e+02
  -8.295181e+01   7.409102e+01
  -6.084923e+01   3.458048e+00
  -2.664504e+01  -5.233455e+01
   2.027363e+00  -5.074597e+01
  -1.612135e+01  -1.624215e+01
  -8.512064e+01  -3.191361e+01
  -2.551022e+01  -3.838265e+01
   3.396574e+01  -2.602656e+01
   1.743227e+02  -6.243457e+00
   1.323749e+02   6.677172e+01
  -2.995528e+00   7.808808e+01
  -1.536049e+02   5.631848e+01
  -1.474621e+02   1.563425e+01
  -5.451419e+01  -4.342785e+01
   7.994237e+01  -2.932919e+01
   7.454672e+01   1.241471e+01
   2.509258e+01   7.657966e+01
  -4.284126e+01   4.852570e+01
  -6.610729e+01   9.930887e+00
  -4.196773e+01  -3.258981e+01
  -5.777867e+01  -2.723685e+01
  -4.747222e+01  -2.419995e+00
  -5.870934e+01  -7.770435e+00
  -4.059324e+01  -5.584101e+01
   5.731816e+01  -1.473831e+02
   1.202903e+02  -1.227104e+02
   1.656426e+02  -5.400171e+01
   9.878618e+01   1.111531e+02
   3.856349e+00   1.406842e+02
  -7.063750e+01   6.079051e+01
  -6.194195e+01  -2.247245e+01
   4.476283e+01  -1.050776e+01
   1.419459e+02   3.932172e+01
   6.573125e+01   1.159313e+02
  -7.636477e+01   1.108663e+02
  -1.858412e+02   4.603199e+01
  -1.477450e+02  -7.336544e+01
  -3.000181e+01  -8.438070e+01
   4.992539e+01  -8.417916e+01
   3.917086e+01   1.307034e+01
  -4.599130e+01   3.126005e+01
  -1.019767e+02  -3.480709e+01
  -3.808500e+01  -9.198619e+01
   8.348504e+01  -1.370982e+02
   1.343462e+02  -2.985982e+01
   1.150735e+02   7.054839e+01
   1.979491e+01   1.707052e+02
  -9.502489e+01   1.308997e+02
  -9.732522e+01  -7.804037e+00
  -4.217599e+01  -1.245864e+02
  -6.481884e+00  -1.188888e+02
   5.435529e+01  -2.001553e+01
   1.523607e+01   2.817200e+01
   1.175469e+01  -1.793953e+00
   1.061014e+00  -1.029258e+01
   3.396077e+01   3.896929e+01
   5.913182e+01   7.477509e+01
   2.860881e+01   1.108239e+02
  -5.308247e+01   3.425663e+01
  -1.245704e+02  -1.570249e+01
  -1.247310e+02  -8.942211e+01
  -9.670197e+00  -5.281659e+01
   6.694028e+01  -3.982380e+01
   1.222516e+02  -1.424954e+01
   2.468387e+01   1.179407e+01
  -2.511372e+01   2.603270e+00
  -1.150932e+01  -1.238341e+01
   1.620538e+01  -1.396287e+01
  -4.850276e-01  -3.148624e+01
  -5.139842e+01  -3.211448e+00
  -8.675954e+01  -1.531635e+01
  -1.913550e+01  -7.426408e+01
   1.159332e+02  -9.921429e+01
   1.633349e+02  -7.319281e+01
   1.390964e+02   6.968737e+01
   4.290816e+01   1.640273e+02
  -7.186848e+01   1.581668e+02
  -1.298776e+02   5.878147e+01
  -7.675254e+01  -2.128152e+01
  -8.013525e+00  -1.563506e+01
  -2.102810e+01  -2.841001e+00
  -3.795972e+01  -1.411735e+01
  -4.677744e+01  -6.818985e+01
  -1.880064e+01  -7.717785e+01
   2.283678e+01  -5.628524e+01
   8.106551e+01   3.178423e+01
   8.930948e+01   8.638872e+01
   3.032622e+01   1.007856e+02
  -6.843307e+01   3.128339e+01
  -1.047957e+02  -5.958778e+01
  -3.427552e+01  -1.219993e+02
   4.069013e+01  -8.886480e+01
   9.050377e+01   5.306180e+00
   2.998173e+01   3.748663e+01
  -1.837562e+01   7.422413e+01
  -3.758471e+01   1.614304e+01
  -7.007050e+00  -9.329296e+00
   6.926155e+01  -2.355077e+01
   4.367426e+00   2.440119e+01
  -8.135181e+01   3.494158e+01
  -1.008035e+02   2.053306e+01
  -4.371531e+01  -9.847596e+00
   2.314951e+01  -8.220711e+01
   4.703297e+01  -7.405321e+01
   2.906175e+01  -1.735829e+01
  -1.224031e+01   4.104660e+01
  -3.848908e+01   5.146365e+01
  -2.746586e+01  -3.813605e+01
  -3.362332e+00  -3.713966e+01
   1.991587e+01  -2.687774e+01
   3.978226e+01   1.565195e+01
   3.291885e+01   2.047870e+01
   3.261501e+01   4.526112e+00
   5.398064e+00  -1.254543e+01
   2.021171e+01  -1.039801e+01
  -1.000741e+00   3.749885e+01
  -7.206991e+00   4.874155e+01
   5.175181e+00   2.690209e+00
  -1.905100e+00  -5.170037e+01
  -1.024134e+01  -4.762863e+01
   5.023215e+01  -2.841943e+01
   3.521309e+01   3.557125e+01
  -1.298370e+00   6.356617e+01
  -6.175987e+01   4.296277e+01
  -7.493353e+01  -3.372851e+01
  -5.942539e+01  -4.380583e+01
   1.696839e+01  -3.073065e+01
   4.065403e+01  -1.874024e+01
   4.995505e+01   6.524579e+00
  -7.953255e+00   6.217389e+00
  -9.798272e+00  -1.113845e+01
   4.626621e+01  -2.514379e+01
   8.306552e+01  -1.563114e+01
