
 $NMID
 id='ANONYMOUS ', fmtdat='(2E16.6)'
 volume=1.0
 tramp=1.0
 $END
   3.325592e+03   4.134256e+01
   2.127300e+03   1.713828e+03
  -1.798047e+02   2.125906e+03
  -1.438507e+03   1.163626e+03
  -9.820288e+02   9.315715e+01
   6.186299e+01  -4.037593e+02
   4.871116e+02   4.067707e+01
   9.377930e+01   5.650405e+02
  -5.168754e+02   6.160096e+02
  -7.228847e+02  -1.153132e+01
  -4.197720e+02  -5.661314e+02
   1.813941e+01  -6.759754e+02
   3.473057e+02  -2.310669e+02
   3.065194e+02   4.701828e+02
  -1.880755e+02   6.379404e+02
  -4.829075e+02   9.478838e+01
  -3.047720e+02  -5.335197e+02
   1.561305e+02  -6.548048e+02
   4.846796e+02  -2.043379e+02
   4.888064e+02   2.047813e+02
   9.645043e+01   4.027630e+02
  -1.696288e+02   2.423918e+02
  -9.841274e+01   4.345155e+01
   1.556569e+02   8.811414e+01
   2.507540e+02   2.920414e+02
   8.333813e+00   3.624652e+02
  -5.061135e+02   1.903332e+02
  -6.055153e+02  -1.641203e+02
  -2.310213e+02  -4.060041e+02
   3.257582e+02  -2.399760e+02
   5.624133e+02   1.533769e+02
   2.168171e+02   3.710585e+02
  -2.463606e+02   3.753601e+02
  -4.361306e+02   1.478443e+02
  -3.367469e+02  -1.708433e+02
  -6.059666e+01  -3.021630e+02
   5.627649e+01  -2.047965e+02
  -1.534973e+00   1.212430e+02
  -1.982906e+02   1.725892e+02
  -2.116349e+02  -1.368578e+02
  -6.516150e+01  -5.077397e+02
   2.995908e+02  -4.637514e+02
   3.618370e+02  -6.933909e+00
   1.380880e+02   3.243978e+02
  -1.516576e+02   1.820796e+02
  -2.124819e+02  -2.559046e+02
   1.074306e+02  -4.203476e+02
   4.644928e+02  -6.904139e+01
   4.818396e+02   3.682378e+02
   1.441911e+02   4.955541e+02
  -3.043111e+02   2.580785e+02
  -5.610390e+02  -7.745094e+01
  -3.671426e+02  -3.070632e+02
   5.530631e+01  -2.431290e+02
   2.839334e+02  -7.505011e+01
   2.298048e+02   9.260612e+01
  -1.339794e+01   5.762872e+01
  -5.481729e+01  -7.574121e+01
   8.671563e+01  -9.096342e+01
   2.757040e+02   2.999678e+01
   1.742685e+02   2.043597e+02
  -1.300007e+02   2.598572e+02
  -3.514410e+02   1.088114e+02
  -2.617274e+02  -1.128626e+02
   4.326728e+01  -3.055438e+02
   3.307664e+02  -3.523540e+02
   3.584774e+02  -1.550614e+02
   2.503196e+02   1.647280e+02
   6.601182e+01   3.788445e+02
  -3.205589e+01   3.344381e+02
  -7.545311e+00   1.612082e+02
  -4.349576e+01   1.205152e+02
  -1.314313e+02   1.163947e+02
  -2.039877e+02   4.987483e+01
  -1.953967e+02  -1.083821e+02
  -6.954165e+01  -2.555810e+02
   1.025473e+02  -2.134931e+02
   1.769934e+02   3.367274e+01
   1.418714e+02   2.310196e+02
  -4.650396e+01   2.216400e+02
  -2.344569e+02   7.971582e+01
  -3.231175e+02  -1.742481e+02
  -1.884943e+02  -3.103302e+02
   5.085753e+01  -3.008420e+02
   1.774926e+02  -1.441060e+02
   1.395256e+02  -2.950474e+01
   1.609171e+02  -4.803684e+01
   2.880791e+02  -1.654552e+01
   4.110438e+02   1.017376e+02
   3.137895e+02   3.033386e+02
  -3.146868e+01   4.565607e+02
  -3.912828e+02   3.912395e+02
  -4.771880e+02   1.625333e+02
  -2.698494e+02  -1.072624e+02
  -2.641673e+01  -2.715922e+02
   1.049074e+02  -1.872018e+02
   5.872513e+01  -6.505983e+01
  -1.147619e+02   5.860938e+01
  -1.297850e+02  -1.343426e+01
  -6.213510e+00  -1.386105e+02
   1.327529e+02  -1.241401e+02
   8.539677e+01   5.149413e+01
  -4.142281e+01   1.434077e+02
  -1.674971e+02  -1.118243e+01
  -1.449294e+02  -2.441389e+02
   2.539983e+01  -3.599498e+02
   2.763704e+02  -1.969594e+02
   3.415778e+02   7.774406e+01
   2.733977e+02   2.936910e+02
   6.669557e+01   2.537060e+02
  -1.330443e+02   1.356046e+02
  -1.671009e+02   3.632794e+00
  -7.678565e+01  -1.409364e+01
   4.498390e+01   2.396637e+01
   2.830539e+01   1.098498e+02
  -1.187058e+02   6.266695e+01
  -1.263995e+02  -2.487821e+01
  -3.575021e+01  -6.613220e+01
   8.703907e+01   1.045768e+01
   2.396066e+01   8.592269e+01
  -1.318587e+02   6.838751e+01
  -2.714908e+02  -9.495748e+00
  -2.373676e+02  -1.574480e+02
  -3.689435e+01  -2.298485e+02
   1.973147e+02  -2.333652e+02
   2.725348e+02  -1.079893e+02
   1.681007e+02   3.219756e+01
  -3.505261e+01   1.125021e+02
  -7.951522e+01  -7.136333e+00
   4.171206e+01  -1.088256e+02
   1.687012e+02  -1.892430e+01
   2.018201e+02   1.038306e+02
   3.476945e+01   1.741651e+02
  -1.004208e+02   1.423248e+02
  -1.402627e+02   1.612469e+01
  -4.949851e+01  -4.009787e+01
   3.439783e+01  -7.087346e-01
   3.219346e+01   9.669636e+01
  -8.034783e+01   1.200007e+02
  -1.991926e+02   2.133506e+01
  -1.717109e+02  -1.362167e+02
  -3.611570e+01  -1.900548e+02
   1.650408e+02  -1.382636e+02
   1.569727e+02   9.685814e-01
   7.302959e+01   9.341579e+01
  -5.761359e+01   7.681611e+01
  -8.530092e+01   3.470647e+01
  -1.148679e+01  -2.821859e+01
   5.581708e+01  -2.004208e+01
   2.928725e+01   1.593021e+01
  -9.741834e+01   8.025078e+00
  -1.163433e+02  -9.212055e+01
  -1.039830e+01  -1.653056e+02
   1.583163e+02  -1.237959e+02
   2.202131e+02   9.818846e+00
   1.855309e+02   1.786717e+02
   5.003705e+01   2.259984e+02
  -1.015159e+02   1.650302e+02
  -1.336936e+02   1.870884e+00
  -6.135578e+01  -4.284228e+01
  -2.413468e+01  -6.558298e+01
  -3.506294e+01  -2.175280e+00
  -8.324984e+01   1.003648e+01
  -5.181161e+01  -4.653440e+01
   4.818715e+01  -9.376571e+01
   1.286760e+02  -5.832104e+01
   1.408180e+02   4.047108e+01
  -4.795299e+00   1.123573e+02
  -1.662998e+02   7.234693e+01
  -2.196924e+02  -9.850536e+01
  -9.085167e+01  -2.248014e+02
   1.007897e+02  -2.241202e+02
   2.382352e+02  -7.238527e+01
   2.120500e+02   1.026173e+02
   6.871787e+01   1.427516e+02
  -4.850665e+01   1.535570e+02
  -1.152148e+02   8.198994e+01
  -7.849934e+01   5.409530e+01
  -6.060294e+01   7.130468e+01
  -7.381664e+01   6.970153e+01
  -1.253523e+02  -7.933285e+00
  -1.010755e+02  -1.641042e+02
  -2.499678e+00  -2.010948e+02
   8.745406e+01  -1.562084e+02
   1.578558e+02  -2.127388e+00
   1.284771e+02   1.408174e+02
   2.224968e+01   1.484597e+02
  -4.024429e+01   6.125929e+01
  -4.263390e+01  -1.424328e+01
   6.671735e+00  -2.196145e+01
   1.985272e+01  -6.086929e+01
  -2.738688e+01  -2.292202e+01
  -5.510750e+01  -2.509878e+01
  -5.525627e+01  -6.364343e+01
   7.721239e+01  -4.076439e+01
   1.686596e+02   7.524561e+00
   1.171362e+02   6.949014e+01
   1.689520e+01   7.490332e+01
  -1.323717e+02   7.628964e+01
  -1.466146e+02  -2.288429e+01
  -5.509885e+01  -5.625540e+01
   8.731434e+01  -3.806840e+01
   8.924417e+01   3.157713e+01
   3.469322e+00   7.537073e+01
  -4.821289e+01   5.640072e+01
  -6.034437e+01  -3.242625e+00
  -6.055305e+01  -7.228339e+01
  -3.381970e+01  -3.419271e+01
  -4.114576e+01  -8.503926e+00
  -7.924956e+01   2.454073e+00
  -4.916832e+01  -5.429316e+01
   7.075295e+00  -1.735025e+02
   1.288385e+02  -1.519229e+02
   1.953244e+02  -1.473733e+01
   1.404053e+02   1.147805e+02
  -8.329352e+00   1.197537e+02
  -1.074650e+02   6.254701e+01
  -5.075942e+01  -2.873726e+01
   6.730653e+01  -4.705297e+01
   1.160276e+02   4.656627e+01
   6.249757e+01   8.469768e+01
  -8.341171e+01   1.063601e+02
  -1.821064e+02   3.003322e+01
  -1.724466e+02  -4.048579e+01
  -2.954078e+01  -4.904117e+01
   7.047777e+01  -5.540731e+01
   6.775337e+01   9.752505e+00
  -2.332752e+01   1.539999e+01
  -9.234570e+01  -4.593533e+01
  -3.773112e+01  -1.124376e+02
   8.870728e+01  -1.532543e+02
   1.716707e+02  -6.751223e+01
   1.443194e+02   1.083053e+02
   2.202056e+01   1.973519e+02
  -1.041788e+02   1.610399e+02
  -1.038120e+02  -2.562023e+00
  -3.647702e+01  -1.389838e+02
   3.214242e+01  -9.880954e+01
   6.009340e+01  -9.620502e+00
   6.800986e+01   1.243025e+01
  -2.803959e+01  -1.527855e+00
   1.075973e+01  -2.307587e-01
   3.675772e+01   2.545514e+01
   4.940256e+01   8.133559e+01
   1.509590e+01   8.780688e+01
  -5.853623e+01   3.123936e+01
  -1.482173e+02  -2.268572e+01
  -1.339097e+02  -1.177509e+02
  -2.433952e+01  -5.444620e+01
   8.902699e+01  -2.785336e+01
   8.235609e+01  -9.351654e-01
   3.437037e+01  -1.715629e+01
  -1.550881e+01   3.290370e+01
  -2.378727e+01   1.703633e+01
   7.865894e+00  -1.941864e+01
   2.976082e+01   1.048794e+01
  -8.690340e+01   1.849274e+00
  -7.034471e+01  -1.841941e+01
  -3.085537e+01  -9.064664e+01
   6.507537e+01  -1.294761e+02
   1.928194e+02  -6.926552e+01
   1.365447e+02   6.475288e+01
   2.697488e+01   1.796435e+02
  -8.425438e+01   1.222079e+02
  -1.178189e+02   7.147494e+01
  -8.668536e+01  -4.001167e+01
  -1.608134e+01  -5.431093e+01
  -2.691772e+01  -1.456090e+01
  -2.499145e+01  -1.116848e+01
  -5.501765e+00  -5.111136e+01
   7.728688e+00  -9.371338e+01
   3.121453e+01  -7.805356e+01
   6.485551e+01   2.935789e+00
   7.922002e+01   8.246680e+01
   1.338600e+01   1.177930e+02
  -3.553127e+01   3.291347e+01
  -9.016983e+01  -3.578442e+01
  -4.977256e+01  -8.229621e+01
   5.867376e+01  -5.874820e+01
   9.834859e+01  -3.629093e+00
   6.297992e+01   4.756859e+01
   8.990583e+00   8.196450e+01
  -3.407944e+01   1.632226e+01
   1.793041e+01   1.609967e+01
   5.511431e+01   2.113612e+01
   8.525359e+00   4.023966e+01
  -7.426925e+01   7.269620e+01
  -1.241678e+02   2.985954e+01
  -7.772345e+01  -4.211180e+01
   2.717461e+01  -6.821379e+01
   2.444921e+01  -7.451819e+01
   3.767042e+01   1.219822e+00
   1.084270e+00   6.528857e+01
  -2.318880e+01   2.120342e+01
  -4.223263e+01  -2.968097e+01
  -2.402714e+01  -5.714430e+01
  -8.014030e-01  -4.122704e+01
   3.581898e+00  -1.257455e+01
   8.263816e+00   7.764626e+00
   1.964170e+01  -1.727367e+01
  -1.616646e+01  -1.341735e+01
   7.596183e-02   1.127172e+01
  -1.438004e+00   3.414209e+01
   1.642857e+01   5.577139e+01
  -5.365673e+01   2.407430e+01
  -3.958307e+01  -3.598110e+01
  -5.574202e+00  -8.031716e+01
   2.400341e+01  -2.556189e+01
   6.470221e+01   3.048646e+01
   1.191818e+01   5.884342e+01
  -4.665738e+01   2.523608e+01
  -8.654728e+01  -2.453181e+01
  -5.168964e+01  -2.816423e+01
   1.223633e+01  -3.627265e+01
   6.080729e+01  -4.528011e+01
   2.782963e+01  -2.411692e+00
  -3.470937e+01   7.740393e+00
  -5.110429e+01  -8.591050e+00
  -8.164552e-01  -5.329495e+01
   9.430311e+01  -1.359206e+01
