
 $NMID
 id='ANONYMOUS ', fmtdat='(2E16.6)'
 volume=1.0
 tramp=1.0
 $END
   3.604568e+03   2.525302e+00
   2.223665e+03   1.778495e+03
  -6.312069e+01   2.277407e+03
  -1.487785e+03   1.087660e+03
  -9.611093e+02   1.731499e+01
   2.960191e+01  -2.815049e+02
   4.294525e+02   2.206219e+02
   1.852737e+01   6.816515e+02
  -5.208837e+02   5.572631e+02
  -6.154441e+02   4.261109e+01
  -4.252561e+02  -5.105926e+02
   4.742394e+01  -7.012207e+02
   3.964818e+02  -2.071818e+02
   2.044204e+02   4.940582e+02
  -1.150909e+02   5.448316e+02
  -4.161126e+02   5.646091e+01
  -3.159885e+02  -5.224501e+02
   1.356988e+02  -5.636439e+02
   4.444003e+02  -2.417654e+02
   4.200512e+02   1.842683e+02
   1.246971e+02   3.268777e+02
  -1.282629e+02   2.197913e+02
  -1.661137e+02   6.923484e+01
   1.357965e+02   8.316954e+01
   2.637980e+02   2.114302e+02
   1.100434e+01   3.100853e+02
  -4.520851e+02   2.077178e+02
  -6.362853e+02  -1.571261e+02
  -2.950126e+02  -4.258959e+02
   3.661087e+02  -2.694584e+02
   5.317550e+02   9.138219e+01
   2.241818e+02   3.315856e+02
  -2.678345e+02   3.096814e+02
  -4.543819e+02   1.396958e+02
  -2.758069e+02  -1.322043e+02
  -7.113324e+01  -3.399693e+02
  -1.816908e+00  -1.855894e+02
   6.752353e+00   8.990341e+01
  -1.981221e+02   2.362939e+02
  -2.137111e+02  -1.020935e+02
  -1.023705e+02  -5.273176e+02
   2.554832e+02  -4.771962e+02
   3.758135e+02   5.040035e+01
   1.040134e+02   3.566759e+02
  -1.788171e+02   1.389351e+02
  -2.147836e+02  -2.683034e+02
   1.172988e+02  -4.157951e+02
   4.757172e+02  -8.758613e+01
   4.685091e+02   3.924733e+02
   7.360545e+01   5.133575e+02
  -2.989498e+02   2.652413e+02
  -5.389227e+02  -1.046259e+02
  -3.414824e+02  -2.518998e+02
   7.902108e+01  -2.632589e+02
   3.686612e+02  -6.101087e+01
   2.254541e+02   8.025238e+01
  -1.126318e+00   7.400627e+01
  -7.016009e+01  -7.582603e+01
   1.215613e+02  -8.009489e+01
   2.648493e+02   6.267374e+01
   1.246912e+02   2.040800e+02
  -1.447941e+02   2.563539e+02
  -3.146281e+02   1.078207e+02
  -2.415093e+02  -9.916250e+01
   7.564485e+00  -2.538749e+02
   2.448365e+02  -3.504200e+02
   3.610204e+02  -2.054497e+02
   2.756255e+02   1.405218e+02
   7.512282e+01   3.735976e+02
  -5.546950e+01   3.190325e+02
  -1.919565e+01   1.433175e+02
  -6.253902e+01   7.471357e+01
  -8.646994e+01   1.423814e+02
  -2.145761e+02   6.506856e+01
  -2.561298e+02  -9.659596e+01
  -9.231953e+01  -2.338330e+02
   1.036168e+02  -2.017490e+02
   1.720052e+02   5.463103e+01
   1.484453e+02   2.516044e+02
  -6.745115e+01   2.501681e+02
  -2.637579e+02   4.711706e+01
  -3.034786e+02  -1.368510e+02
  -1.527116e+02  -3.142065e+02
   2.792868e+01  -2.680931e+02
   1.806676e+02  -1.514940e+02
   1.426379e+02  -7.965656e+01
   1.670779e+02  -5.637174e+01
   2.759556e+02  -5.156256e+01
   4.117884e+02   1.046552e+02
   2.881284e+02   2.964001e+02
  -3.227455e+01   4.473536e+02
  -3.902572e+02   3.731583e+02
  -4.713986e+02   1.745392e+02
  -2.869965e+02  -1.071807e+02
  -3.683254e+01  -2.491200e+02
   1.003985e+02  -2.027083e+02
   3.761578e+01  -3.314703e+01
  -1.007983e+02   5.073271e+01
  -1.307189e+02  -3.745500e+01
  -2.413016e+00  -1.682209e+02
   1.239587e+02  -1.052345e+02
   1.354966e+02   6.668453e+01
  -2.870501e+01   1.320401e+02
  -1.494010e+02  -1.597967e+01
  -1.456796e+02  -2.615774e+02
   2.888689e+01  -3.512401e+02
   2.429339e+02  -2.030231e+02
   3.540885e+02   5.376057e+01
   2.815635e+02   2.414428e+02
   6.504152e+01   2.726423e+02
  -1.448357e+02   1.335720e+02
  -1.522544e+02  -6.379869e+00
  -6.064496e+00   7.821446e+00
   6.167474e+01   4.754174e+01
   3.305750e+00   1.464393e+02
  -1.093154e+02   8.303225e+01
  -1.555966e+02  -3.491396e+01
  -2.204832e+01  -7.697175e+01
   8.032518e+01   4.074208e+01
   5.517170e+01   9.096387e+01
  -1.579555e+02   8.441018e+01
  -3.189313e+02   3.183400e-02
  -2.523239e+02  -1.963791e+02
  -8.355146e+00  -2.810842e+02
   2.026936e+02  -2.053495e+02
   2.829887e+02  -7.557356e+01
   1.171261e+02   4.187194e+01
  -3.560191e+01   7.565185e+01
  -6.534545e+01  -4.935657e+01
   5.735153e+01  -1.062818e+02
   1.870110e+02  -4.449056e+01
   1.676843e+02   1.042629e+02
   5.148952e+01   1.874395e+02
  -9.844265e+01   1.303494e+02
  -1.191353e+02   2.518655e+01
  -5.832860e+01  -5.527670e+01
   3.983833e+01   3.986267e+01
   4.004029e+01   9.385871e+01
  -7.074671e+01   1.074648e+02
  -2.116310e+02   2.672170e+01
  -2.067806e+02  -1.333925e+02
  -7.117953e+00  -2.254151e+02
   1.712720e+02  -1.652721e+02
   1.940793e+02  -1.597658e+01
   4.798526e+01   6.685717e+01
  -9.105666e+01   8.533592e+01
  -9.614260e+01   3.772703e+01
  -1.964756e+01  -2.448885e+01
   2.717091e+01  -1.321445e+01
   6.358065e+00   4.635603e+01
  -7.494550e+01   6.091896e+00
  -1.004171e+02  -6.427047e+01
   3.306239e+00  -1.771573e+02
   1.288805e+02  -1.557478e+02
   2.283116e+02  -3.288318e+00
   1.917425e+02   1.759871e+02
   1.222762e+01   2.117389e+02
  -1.194115e+02   1.519263e+02
  -1.126440e+02   2.035779e+01
  -8.244206e+01  -4.862713e+01
  -9.424899e+00  -9.962103e+00
  -4.569799e+01  -5.264381e+00
  -8.309017e+01   1.338950e+01
  -4.436681e+00  -4.904144e+01
   1.749477e+01  -7.536432e+01
   1.178143e+02  -4.411943e+01
   1.059404e+02   4.079104e+01
  -2.832019e+01   1.302567e+02
  -1.343248e+02   9.328652e+01
  -1.689811e+02  -4.504001e+01
  -7.356297e+01  -1.867095e+02
   1.146632e+02  -1.997905e+02
   2.417935e+02  -5.166627e+01
   2.562368e+02   1.072960e+02
   8.241424e+01   1.660257e+02
  -2.556216e+01   1.266093e+02
  -8.724727e+01   7.140000e+01
  -7.058332e+01   8.673998e+01
  -4.944781e+01   9.755657e+01
  -1.008271e+02   8.204169e+01
  -1.248754e+02   1.235613e+01
  -1.063397e+02  -1.337436e+02
  -5.141422e+01  -2.361595e+02
   1.149882e+02  -1.653253e+02
   1.569558e+02   9.365258e+00
   1.355192e+02   1.336723e+02
  -1.399747e+01   1.516997e+02
  -7.382559e+01   8.287486e+01
  -5.903134e+01   3.293397e+00
  -2.450852e+01  -3.595915e+01
  -1.795110e+01  -3.446527e+01
  -2.499224e+01  -1.050259e+01
  -5.571442e+01  -1.687741e+01
  -3.474039e+01  -3.403182e+01
   6.464802e+01  -3.085652e+01
   1.981742e+02   1.349712e+01
   1.440231e+02   1.015607e+02
   8.477660e+00   1.052952e+02
  -1.315313e+02   7.689326e+01
  -1.633598e+02   1.684043e+00
  -5.115116e+01  -5.062181e+01
   4.857623e+01  -6.098206e+01
   6.275829e+01   8.558894e+00
   2.695615e+00   7.800559e+01
  -4.794934e+01   6.992010e+01
  -5.270089e+01   1.354760e+01
  -4.407008e+01  -2.778929e+01
  -1.717452e+01  -2.573344e+01
  -4.765006e+01  -1.098373e+01
  -6.123774e+01  -3.536867e+00
  -6.116489e+01  -5.288101e+01
   2.872719e+01  -1.307261e+02
   1.429788e+02  -1.331837e+02
   1.631617e+02  -1.814292e+01
   1.403926e+02   1.242840e+02
  -1.320709e+00   1.107422e+02
  -8.179624e+01   4.550783e+01
  -1.013898e+02  -4.141331e+01
   3.837368e+01  -2.487534e+01
   1.327641e+02   3.895917e+01
   8.031053e+01   1.050485e+02
  -6.824930e+01   1.106801e+02
  -1.911310e+02   1.215445e+01
  -1.868306e+02  -5.938266e+01
  -4.110432e+01  -8.314959e+01
   6.112873e+01  -6.980509e+01
   6.156690e+01   1.791775e+00
  -2.781372e+01   4.242597e+01
  -7.376255e+01  -4.209310e+00
  -5.830228e+01  -1.087467e+02
   7.509011e+01  -1.421866e+02
   1.295947e+02  -6.628794e+01
   1.279993e+02   5.932572e+01
   2.919356e+01   1.664510e+02
  -9.836153e+01   1.576937e+02
  -7.997011e+01   3.488510e+01
  -5.777431e+01  -1.063349e+02
  -2.819737e+00  -1.044048e+02
   4.125996e+01  -3.411193e+01
   4.121995e+01   7.925728e+00
   2.305288e+01   2.864663e+01
  -5.417103e+00   8.907686e+00
   2.223204e+01   1.472853e+01
   5.546973e+01   8.713196e+01
   3.466464e+01   8.430483e+01
  -4.746860e+01   5.184641e+01
  -1.144860e+02  -5.467146e+01
  -1.095001e+02  -6.621797e+01
  -3.039172e+01  -5.245503e+01
   6.468105e+01  -1.823992e+01
   7.977570e+01  -1.745095e+01
   1.898663e+01   1.431875e+01
  -1.456004e+01  -7.949432e+00
  -9.598234e+00   4.120643e+01
   1.734877e+00   2.525997e+01
   6.242295e-01  -2.370372e+01
  -8.686641e+01  -2.755267e+01
  -9.999360e+01  -5.577327e+00
  -4.473879e+01  -9.096149e+01
   1.101492e+02  -1.122171e+02
   2.052136e+02  -5.536548e+01
   1.398571e+02   2.717598e+01
   3.620915e+01   1.756868e+02
  -7.852645e+01   1.308345e+02
  -1.249430e+02   8.400564e+01
  -8.779060e+01   5.089653e-01
  -2.089334e+01  -3.255394e+01
   9.179446e+00  -1.168553e+01
  -3.339227e+01   5.054065e+00
  -3.446311e+01  -4.246374e+01
  -1.977627e+01  -8.957121e+01
   9.901466e+00  -6.147610e+01
   9.081054e+01   3.434835e+01
   8.166777e+01   9.080944e+01
   1.179039e+01   1.157679e+02
  -8.600141e+01   4.741515e+01
  -9.429076e+01  -7.627906e+01
  -2.728658e+01  -1.065468e+02
   5.975754e+01  -6.917125e+01
   8.170322e+01  -1.221390e+01
   4.768337e+01   4.941335e+01
  -3.898549e+01   5.430316e+01
  -4.147224e+01   2.447222e+01
   4.215035e+01  -1.024922e+01
   8.332070e+01  -1.076567e+01
   2.201780e+01   3.074824e+01
  -8.866845e+01   7.507592e+01
  -1.047943e+02   6.216535e+01
  -8.025026e+01  -9.753669e+00
   2.024975e+01  -7.848212e+01
   5.969238e+01  -9.355857e+01
   2.807532e+01  -4.529936e+01
   1.455113e+01   6.345527e+01
  -2.364339e+01   4.427372e+01
  -4.717996e+01  -2.614268e+01
  -1.410811e+01  -4.502552e+01
   5.273261e+00  -2.793448e+01
   5.600620e+01   4.357490e+01
   4.336739e+01   3.228511e+01
   1.681569e+01   2.448209e+01
   1.322001e+01  -6.636912e+00
  -4.185008e+00  -7.429633e+00
   1.145217e+01   2.266211e+01
   1.255194e+01   6.701375e+01
  -2.546637e+01   3.361832e+01
  -3.818658e+01  -5.907947e+01
  -4.459776e+01  -5.547199e+01
   4.484211e+01  -2.414068e+01
   9.152521e+01   9.148349e+00
   1.865117e+01   8.866412e+01
  -5.585050e+01   3.176362e+01
  -9.631637e+01  -2.102957e+01
  -6.170550e+01  -4.836263e+01
   3.733221e+01  -4.759430e+01
   6.063210e+01  -2.475848e+01
   3.990676e+01   4.984127e-01
  -1.349442e+01   2.023120e+01
  -3.969586e+01   2.063590e+01
   3.558024e+01  -1.283765e+01
   6.979727e+01  -3.806404e+01
