
 $NMID
 id='ANONYMOUS ', fmtdat='(2E16.6)'
 volume=1.0
 tramp=1.0
 $END
  -4.477851e+03  -1.129658e+02
  -2.693844e+03  -2.762838e+03
   8.555344e+02  -3.092938e+03
   2.272666e+03  -9.732532e+02
   1.184064e+03   9.112722e+02
  -7.430459e+02   6.991714e+02
  -1.018242e+03  -5.169960e+02
  -8.650154e+01  -1.240304e+03
   9.621823e+02  -8.814166e+02
   1.051037e+03   1.271183e+02
   4.171249e+02   9.349565e+02
  -2.979910e+02   9.806870e+02
  -7.227592e+02   7.194773e+01
  -4.195645e+02  -7.490612e+02
   3.288398e+02  -8.240356e+02
   6.634110e+02   2.502927e+01
   2.665595e+02   7.454350e+02
  -3.461524e+02   6.880291e+02
  -6.586794e+02   1.123203e+02
  -4.463615e+02  -4.631784e+02
   2.512764e+01  -4.589382e+02
   3.046586e+02  -2.547524e+02
   2.348748e+02   2.284282e+01
  -1.453121e+02   1.174001e+02
  -4.146492e+02  -1.402966e+02
  -2.343298e+02  -4.266761e+02
   4.908672e+02  -4.306286e+02
   8.788739e+02   1.019228e+02
   4.356474e+02   5.772359e+02
  -4.022185e+02   5.304286e+02
  -8.062473e+02  -2.523389e+01
  -3.888819e+02  -5.354654e+02
   3.257577e+02  -5.363212e+02
   6.753642e+02  -2.032926e+02
   4.734152e+02   3.003522e+02
   8.415184e+01   5.141752e+02
  -2.885438e+02   2.600791e+02
  -2.081696e+02  -2.519296e+02
   2.076174e+02  -4.619350e+02
   4.575369e+02   3.175334e+01
   2.889516e+02   7.335133e+02
  -3.686858e+02   7.795733e+02
  -6.480700e+02   1.362644e+01
  -2.532246e+02  -6.020216e+02
   3.064693e+02  -3.702175e+02
   3.784403e+02   3.109448e+02
  -7.192329e+01   6.157912e+02
  -5.985989e+02   1.522133e+02
  -6.005335e+02  -4.286384e+02
  -1.763854e+02  -6.256956e+02
   3.992387e+02  -4.011088e+02
   6.803661e+02   8.030625e+01
   3.674317e+02   4.344202e+02
  -1.869996e+02   4.145831e+02
  -4.733721e+02   6.927365e+01
  -2.229279e+02  -1.922060e+02
   1.746783e+02  -1.047957e+02
   1.760940e+02   1.620643e+02
  -1.595784e+02   2.022377e+02
  -3.594073e+02  -4.033454e+01
  -1.434176e+02  -2.924391e+02
   2.317198e+02  -3.056401e+02
   3.374465e+02  -5.957187e+01
   2.303197e+02   1.172085e+02
  -1.332596e+01   2.779958e+02
  -2.624512e+02   3.065369e+02
  -3.744542e+02   1.763583e+02
  -3.163791e+02  -1.764430e+02
  -1.148026e+02  -4.237424e+02
   1.393154e+02  -4.041756e+02
   1.294259e+02  -1.277410e+02
   5.792583e+01   1.521917e+01
   3.712639e+01  -6.286832e+01
   1.803142e+02  -1.407046e+02
   2.933312e+02   4.083807e+01
   1.641372e+02   2.442368e+02
  -7.931184e+01   2.568268e+02
  -2.574279e+02   1.990048e+01
  -2.193000e+02  -2.136704e+02
  -1.038490e+01  -3.180017e+02
   2.686012e+02  -1.051951e+02
   3.874530e+02   1.971381e+02
   1.915343e+02   3.689783e+02
  -1.136413e+02   3.410394e+02
  -2.188938e+02   1.216912e+02
  -1.560976e+02  -1.317368e+01
  -1.003480e+02   3.351122e+01
  -2.111857e+02   7.109157e+01
  -4.015279e+02  -6.035168e+01
  -3.488213e+02  -2.715599e+02
   1.415129e+01  -4.452653e+02
   3.448116e+02  -4.180249e+02
   4.949985e+02  -1.830427e+02
   3.626401e+02   9.324105e+01
   3.652942e+01   3.301168e+02
  -1.387260e+02   2.722680e+02
  -9.646659e+01   7.185393e+00
   1.060882e+02  -1.011016e+02
   2.096479e+02  -1.131613e+00
   4.384085e+01   1.519561e+02
  -1.659228e+02   1.773986e+02
  -1.776881e+02  -5.899436e+01
   8.235631e+00  -1.802324e+02
   1.738161e+02  -4.051627e+01
   1.421480e+02   2.601404e+02
  -3.776174e+01   3.438785e+02
  -2.140116e+02   2.185001e+02
  -3.361895e+02  -7.790187e+01
  -2.907187e+02  -2.786847e+02
  -8.122000e+01  -2.558325e+02
   1.190859e+02  -1.348570e+02
   1.806913e+02   1.870313e+01
   5.028041e+01   1.925400e+01
  -8.199782e+01  -1.290575e+01
  -4.179766e+01  -1.106087e+02
   1.530546e+02  -9.747302e+01
   1.907951e+02   7.377438e+00
   9.290720e+01   9.709667e+01
  -6.676589e+01   1.324359e+01
  -6.003109e+01  -9.076836e+01
   8.783705e+01  -1.089578e+02
   2.668014e+02  -2.131138e+01
   2.616135e+02   1.442358e+02
   5.362573e+01   2.623972e+02
  -1.735121e+02   2.560043e+02
  -3.049124e+02   1.398209e+02
  -1.929870e+02  -7.286617e+01
   1.053337e+01  -1.124286e+02
   8.232288e+01  -1.556697e+01
  -2.372472e+01   1.025341e+02
  -2.052692e+02   7.712524e+01
  -2.189221e+02  -8.462165e+01
  -7.711555e+01  -2.151722e+02
   9.342786e+01  -1.618792e+02
   1.521051e+02  -2.463694e+01
   7.814212e+01   3.009524e+01
  -2.095883e+01   4.797656e+00
  -6.085152e+01  -7.520663e+01
   5.560834e+01  -1.221973e+02
   2.024131e+02  -4.460057e+01
   1.966989e+02   1.209478e+02
   2.861080e-01   2.192031e+02
  -1.720948e+02   1.708626e+02
  -2.096013e+02   1.471081e+01
  -6.062119e+01  -8.437188e+01
   6.816791e+01  -1.410400e+02
   9.229352e+01  -3.489498e+01
   3.317401e+01   1.730785e+01
  -3.612715e+01   2.535758e+01
   1.138394e+01   7.441584e+00
   4.792402e+01   1.738914e+01
   7.996166e+01   7.542639e+01
   9.790053e+00   1.473880e+02
  -1.456097e+02   1.279688e+02
  -2.305816e+02   2.026724e+01
  -2.081492e+02  -1.529937e+02
  -5.933705e+01  -2.324588e+02
   9.946021e+01  -1.673416e+02
   1.489967e+02  -4.499557e+01
   6.841333e+01   5.423272e+01
   4.134999e+01   2.945939e+01
   2.420901e+01  -2.184408e+00
   7.502519e+01   2.004411e+00
   6.111712e+01   5.294096e+01
  -3.238339e+01   7.646231e+01
  -7.860762e+01   5.638576e+01
  -8.795532e+01  -3.978736e+01
   2.117460e+01  -1.272097e+02
   1.490193e+02  -8.898380e+01
   1.928049e+02   3.485069e+01
   1.008263e+02   1.939777e+02
  -7.587702e+01   2.112418e+02
  -2.809306e+02   8.070844e+01
  -2.525134e+02  -9.996308e+01
  -1.054461e+02  -1.998929e+02
   4.254878e+01  -1.506850e+02
   1.231227e+02  -8.525754e+01
   8.913929e+01  -5.263706e+01
   6.380560e+01  -7.525485e+01
   1.134796e+02  -6.826908e+01
   1.494345e+02  -1.459963e+00
   1.192681e+02   1.791765e+02
   3.254250e+01   2.143969e+02
  -1.061130e+02   1.665254e+02
  -1.809363e+02   7.979741e+00
  -1.405424e+02  -1.294379e+02
  -7.602732e+00  -1.443049e+02
   8.432181e+01  -1.082980e+02
   6.319161e+01  -5.337619e+00
   5.428808e+00   6.122981e+01
  -1.310076e+01   1.540729e+01
   8.676779e+00   3.644426e+01
   8.932844e+01   2.847906e+01
   4.524663e+01   5.841275e+01
  -4.885713e+01   3.026081e+01
  -1.575012e+02  -1.334017e+01
  -1.624907e+02  -4.456122e+01
  -9.672233e+00  -8.715079e+01
   1.014645e+02  -8.628770e+01
   1.274579e+02  -2.309335e+01
   4.384392e+01   4.067593e+01
  -6.621157e+01   4.220390e+01
  -8.278129e+01  -3.255283e+01
   5.895143e+00  -7.768977e+01
   3.025738e+01  -4.465276e+01
   3.940234e+01  -1.942129e+01
   6.065874e+01   3.249416e+01
   4.712435e+01   3.886657e+01
   7.634839e+01   1.195807e+01
   3.712660e+01  -5.773605e+00
   4.201291e+01   4.654075e+01
  -2.325117e+01   1.222860e+02
  -1.084946e+02   1.383216e+02
  -1.594057e+02   4.018197e+01
  -1.275504e+02  -1.256519e+02
  -3.074999e+01  -1.229146e+02
   8.967117e+01  -7.932578e+01
   6.239116e+01  -7.090192e+00
  -5.988042e+01   1.327113e+01
  -1.382606e+02  -5.218767e+01
  -4.760743e+01  -1.167768e+02
   6.798626e+01  -1.186162e+02
   1.825064e+02  -6.887073e+01
   1.720296e+02   3.533571e+01
   3.894964e+01   7.233433e+01
  -6.831940e+01   5.216194e+01
  -2.618566e+01   1.330987e+01
   5.941953e+01  -2.802076e+01
   7.269104e+01   2.086449e+01
   5.988581e+01   1.303613e+02
  -6.200400e+01   1.695042e+02
  -1.705760e+02   7.752957e+01
  -1.247770e+02  -7.895015e+01
  -9.668779e+00  -2.155794e+02
   8.342089e+01  -1.332366e+02
   1.110647e+02   1.052004e+01
   3.309188e+01   1.110098e+02
  -1.830586e+01   1.011560e+02
  -5.109648e+01   9.874754e+00
  -2.546227e+01  -2.625412e+01
  -2.662713e+01  -1.973723e+01
   8.762356e+00   4.646792e+01
   1.400355e+01  -2.649817e+01
  -4.849106e+01  -1.042625e+02
  -5.831737e+01  -1.258761e+02
   7.003974e+01  -5.699537e+01
   1.701409e+02   4.273509e+01
   1.177774e+02   8.401138e+01
   1.912888e+01   5.907169e+01
  -8.762537e+01   2.015902e+01
  -8.880187e+01   1.390340e+00
  -3.271323e+00  -5.810161e+00
   4.181264e+01  -1.713505e+01
   2.272002e+01   7.629070e+00
  -4.955016e+00  -6.866217e+00
  -8.121702e+00   8.819387e+00
   6.395021e+01   1.132461e+00
   8.114484e+01   6.380126e+00
   3.144891e+01   8.766110e+01
  -1.028655e+02   1.001604e+02
  -1.706203e+02   6.193760e+01
  -1.498759e+02  -7.085128e+01
  -3.977972e+01  -1.684652e+02
   7.360023e+01  -1.472818e+02
   1.046050e+02  -7.422139e+01
   8.226974e+01   2.870930e+01
  -2.519377e+00   4.711213e+01
  -2.395945e+01   1.935594e+01
   1.366884e+01   1.187025e+01
   5.321902e+01   3.540010e+01
   1.069867e+01   8.890396e+01
  -4.459005e+01   6.365657e+01
  -9.419053e+01  -1.608911e+01
  -7.268997e+01  -8.471950e+01
  -1.376255e+01  -1.039270e+02
   8.256061e+01  -4.719513e+01
   9.527096e+01   6.518434e+01
   4.518675e+01   9.556436e+01
  -4.198386e+01   6.797663e+01
  -1.068492e+02   1.350307e+01
  -4.566128e+01  -3.603543e+01
   7.361041e+00  -6.228660e+01
   9.297658e+00  -4.297594e+01
  -4.754302e+01   2.643009e+01
  -5.838773e+01   1.251464e+01
  -4.736218e+00  -1.065292e+01
   9.757747e+01  -5.706142e+01
   8.096467e+01  -7.051705e+01
   4.685794e+01   3.596405e+01
   3.681301e+00   5.942423e+01
  -5.365608e+01   8.329181e+01
  -3.024932e+01   2.490235e+01
  -4.077490e+00  -4.194323e+01
   1.995510e+01  -6.237547e+01
   6.152518e+01   8.650168e+00
   9.731119e+00   5.307435e+01
  -1.622860e+01   5.537387e+01
  -1.702131e+01  -1.129015e+01
  -2.897058e+01  -2.584732e+01
  -4.193749e+00   2.077612e+01
  -9.351703e+00   4.922074e+00
  -1.211397e+01  -1.024727e+01
   1.483817e+01  -3.497968e+01
  -3.499001e+00  -4.745522e+01
   1.612326e+01   3.073274e+00
   3.396994e+01   5.852793e+01
   1.117210e+01   3.751158e+01
  -4.608308e+01   2.235082e+01
  -6.737901e+01  -4.283200e+01
  -4.233841e+00  -6.895322e+01
   4.174962e+01  -1.890670e+01
   1.037066e+02   1.131778e+01
   6.485311e+01   7.073929e+01
  -4.103651e+01   7.402549e+01
  -5.228781e+01   2.003951e+01
  -4.732483e+01  -2.538307e+01
   3.667482e+01   1.579669e+01
   3.575276e+01   7.308992e+00
  -3.600825e+01   4.039864e+01
  -9.265683e+01   2.491486e+00
