
 $NMID
 id='ANONYMOUS ', fmtdat='(2E16.6)'
 volume=1.0
 tramp=1.0
 $END
  -4.159384e+03   8.639460e+01
  -2.527606e+03  -2.438335e+03
   4.064425e+02  -2.579523e+03
   1.953217e+03  -1.043370e+03
   9.675548e+02   5.044153e+02
  -5.318762e+02   4.337316e+02
  -7.898550e+02  -3.803202e+02
  -3.446629e+01  -1.022383e+03
   7.282787e+02  -7.067747e+02
   8.421141e+02   7.280288e+01
   4.901437e+02   7.777092e+02
  -1.838687e+02   8.671324e+02
  -5.278972e+02   1.050958e+02
  -3.287114e+02  -6.649710e+02
   2.544937e+02  -7.180013e+02
   6.079190e+02  -9.448411e+00
   3.004243e+02   6.276778e+02
  -2.940310e+02   6.820738e+02
  -5.722864e+02   1.421212e+02
  -4.252531e+02  -3.054184e+02
  -6.951456e+01  -4.231477e+02
   2.332212e+02  -2.666215e+02
   2.040499e+02  -4.331340e+01
  -1.230903e+02   7.595257e+01
  -3.898819e+02  -1.439025e+02
  -1.667170e+02  -4.502973e+02
   4.429960e+02  -3.588890e+02
   7.525087e+02   1.492957e+02
   3.830795e+02   4.985747e+02
  -3.680741e+02   3.939410e+02
  -6.981408e+02  -5.112557e+01
  -3.249056e+02  -4.562428e+02
   2.827427e+02  -5.199385e+02
   5.423235e+02  -1.904256e+02
   4.082193e+02   2.277235e+02
   9.878552e+01   4.202044e+02
  -1.706106e+02   2.942781e+02
  -1.397537e+02  -2.005527e+02
   2.244631e+02  -3.850730e+02
   3.816051e+02   2.246543e+01
   2.124610e+02   6.293327e+02
  -2.779137e+02   6.504574e+02
  -4.987336e+02  -1.374904e+01
  -2.467786e+02  -5.557976e+02
   2.832221e+02  -2.737187e+02
   3.899895e+02   3.169308e+02
  -8.432552e+01   5.303230e+02
  -5.136032e+02   1.624736e+02
  -5.770292e+02  -3.772092e+02
  -1.840069e+02  -5.761083e+02
   3.874419e+02  -3.504592e+02
   6.461117e+02   7.004008e+01
   4.129840e+02   3.734113e+02
  -1.313862e+02   3.221362e+02
  -3.992293e+02   7.257907e+01
  -2.316616e+02  -1.691211e+02
   1.033859e+02  -8.200066e+01
   1.403586e+02   1.024903e+02
  -1.324902e+02   1.384327e+02
  -3.448612e+02  -2.382092e+01
  -1.609826e+02  -2.381132e+02
   1.845970e+02  -2.745538e+02
   3.541182e+02  -1.067200e+02
   2.416387e+02   8.581485e+01
   5.865694e+00   2.759043e+02
  -2.290995e+02   3.749873e+02
  -3.803398e+02   1.630959e+02
  -2.937948e+02  -1.418960e+02
  -6.853828e+01  -4.403948e+02
   1.234096e+02  -3.985761e+02
   1.472551e+02  -1.018127e+02
   3.833272e+01  -9.601661e+00
   6.234440e+01  -9.783890e+01
   1.844704e+02  -1.109812e+02
   2.451689e+02   6.942447e+01
   1.417599e+02   2.747706e+02
  -7.917854e+01   2.574126e+02
  -2.361479e+02   2.167308e+01
  -1.911472e+02  -2.021149e+02
   2.294973e+01  -2.723331e+02
   2.758308e+02  -1.164203e+02
   3.562539e+02   1.516352e+02
   1.600541e+02   3.659627e+02
  -1.050651e+02   3.016045e+02
  -2.038458e+02   1.083055e+02
  -1.756851e+02   3.374423e+01
  -1.157272e+02   4.076379e+01
  -2.036356e+02   4.390906e+01
  -3.704766e+02  -7.295271e+01
  -3.278511e+02  -2.874760e+02
   2.822796e+01  -3.900623e+02
   3.534515e+02  -4.066143e+02
   5.004884e+02  -2.113685e+02
   3.127596e+02   6.013034e+01
   4.710948e+01   3.139840e+02
  -1.231797e+02   2.136928e+02
  -8.344938e+01   4.692856e+01
   1.363745e+02  -7.468778e+01
   1.553686e+02  -4.680722e+00
   4.112503e+01   1.834369e+02
  -1.298774e+02   1.696237e+02
  -1.673801e+02  -4.102394e+01
   6.639540e+00  -1.535344e+02
   1.701473e+02  -4.966434e+01
   1.728196e+02   2.211999e+02
  -7.102749e+00   3.219416e+02
  -2.165484e+02   2.078144e+02
  -3.227398e+02  -6.465205e+01
  -2.888549e+02  -2.237328e+02
  -5.544157e+01  -2.540206e+02
   1.133956e+02  -1.624375e+02
   1.666939e+02  -3.993150e+01
   7.366827e+01   4.501934e+01
  -6.817121e+01  -2.283842e+01
  -1.420729e+01  -1.243133e+02
   1.128883e+02  -1.204729e+02
   1.376167e+02   2.394873e+01
   5.493220e+01   7.432655e+01
  -5.052800e+01   2.014392e+01
  -5.990612e+01  -8.565424e+01
   1.028819e+02  -7.493854e+01
   2.670739e+02  -1.087799e+01
   2.628183e+02   1.281089e+02
   5.931559e+01   2.517571e+02
  -1.643438e+02   2.698320e+02
  -3.035812e+02   1.054366e+02
  -1.808681e+02  -5.552922e+01
  -9.015420e+00  -1.111789e+02
   7.838397e+01   1.163132e+01
  -5.896849e+01   1.107433e+02
  -1.848217e+02   5.123983e+01
  -2.162701e+02  -7.700112e+01
  -9.520112e+01  -1.780970e+02
   8.594263e+01  -1.720408e+02
   1.368428e+02  -2.709026e+01
   6.334302e+01   5.301001e+01
  -4.856591e+01   3.856848e+00
  -2.632013e+01  -1.029632e+02
   1.020077e+02  -1.074941e+02
   2.113570e+02  -1.826496e+01
   1.800416e+02   1.292018e+02
   7.488648e+00   2.217568e+02
  -1.374635e+02   1.578931e+02
  -1.773989e+02  -1.742913e+00
  -5.882509e+01  -1.363822e+02
   6.666729e+01  -1.059531e+02
   7.685653e+01  -4.144369e+01
   2.628575e+01   2.307645e+01
  -8.928862e+00   3.824817e+01
   3.282964e+01   1.193220e+01
   7.899731e+01   2.682351e+00
   7.219922e+01   6.658327e+01
  -8.730707e-01   1.636463e+02
  -1.235940e+02   1.385131e+02
  -2.432093e+02   1.018257e+01
  -1.919313e+02  -1.693439e+02
  -2.947271e+01  -2.185147e+02
   1.017730e+02  -1.829515e+02
   1.289468e+02  -5.592647e+01
   7.738353e+01   6.436942e+01
   2.610041e+01   3.249894e+01
   3.293829e+01  -1.539863e+01
   7.964899e+01   5.559378e+00
   5.568131e+01   6.688043e+01
  -5.989242e+01   1.053740e+02
  -1.207438e+02   6.931269e+01
  -1.100039e+02  -2.196576e+01
   2.449536e+01  -1.240170e+02
   1.343299e+02  -8.666268e+01
   1.981088e+02   3.441633e+01
   9.552528e+01   2.324452e+02
  -1.394285e+02   2.006014e+02
  -2.728167e+02   1.162647e+02
  -2.657123e+02  -7.475468e+01
  -1.046903e+02  -1.808849e+02
   1.943859e+01  -1.528048e+02
   9.363126e+01  -7.642381e+01
   5.959449e+01  -5.290852e+01
   5.870859e+01  -8.120913e+01
   6.663770e+01  -7.190535e+01
   1.352846e+02   1.120812e+01
   1.254932e+02   1.366245e+02
   4.701380e+01   2.387231e+02
  -1.179259e+02   1.702835e+02
  -1.679024e+02   2.809467e+01
  -1.453483e+02  -1.231410e+02
   4.392675e+00  -1.814879e+02
   8.830011e+01  -6.975251e+01
   9.399089e+01   2.619620e+00
  -2.940154e+00   6.573377e+01
  -2.584830e+01   5.973364e+01
   3.209445e+01  -3.919663e+00
   4.596965e+01  -1.668207e+00
   4.131525e+01   1.753193e+01
  -6.413789e+01   4.630988e+01
  -1.486535e+02  -1.053451e+01
  -1.113976e+02  -5.028271e+01
  -3.132409e+01  -7.355549e+01
   1.157881e+02  -6.931477e+01
   1.353958e+02  -4.275674e+01
   3.717039e+01   2.918781e+01
  -7.195443e+01   3.863361e+01
  -5.874243e+01  -1.460047e+00
   1.622578e+01  -6.261732e+01
   5.032067e+01  -5.599092e+01
   6.399087e+01   1.065952e+01
   3.493750e+01   4.766133e+01
   5.867142e+01   4.069478e+01
   3.587247e+01   3.187812e-01
   4.359131e+01  -6.170484e+00
   4.445571e+01   8.342069e+01
  -2.649968e+01   1.511116e+02
  -1.256522e+02   1.296216e+02
  -1.610067e+02   3.512523e+01
  -1.296041e+02  -7.701860e+01
  -8.788855e+00  -1.394776e+02
   9.069876e+01  -8.499323e+01
   3.962281e+01   6.359932e+00
  -6.459548e+01   2.372994e+01
  -1.109737e+02  -2.682291e+01
  -6.093992e+01  -9.671825e+01
   8.749976e+01  -1.072616e+02
   1.437566e+02  -3.331081e+01
   1.634289e+02   1.530549e+01
   3.841603e+01   5.794894e+01
  -7.797299e+01   8.840794e+01
  -3.825589e+01   1.558548e+01
   4.083714e+01  -1.611069e+01
   7.641732e+01   2.490584e+01
   3.463175e+01   1.359061e+02
  -8.710646e+01   1.508342e+02
  -1.610119e+02   9.776945e+01
  -1.230979e+02  -9.393055e+01
  -5.017155e+01  -2.174752e+02
   9.211990e+01  -1.304787e+02
   1.146210e+02   5.886161e+00
   5.994403e+01   1.378708e+02
  -2.263266e+01   8.813798e+01
  -1.843927e+01   2.346010e+01
  -4.726824e+01  -1.964210e+01
  -2.774548e+01  -6.882091e+00
  -9.000693e+00   1.965879e+01
  -3.793002e+01  -3.731980e+01
  -5.190944e+01  -8.179963e+01
  -2.972751e+01  -1.363337e+02
   5.072917e+01  -5.578627e+01
   1.373008e+02   2.961411e+01
   1.452080e+02   4.224335e+01
   1.869193e+01   4.391100e+01
  -8.046883e+01   1.498692e+01
  -7.183974e+01  -1.683707e+01
  -2.516661e+01  -1.629898e+01
   7.021745e+01  -2.572371e+01
   3.388738e+01  -5.123145e+00
  -1.698730e+01   1.624483e+01
   1.207005e+01   1.549201e+01
   6.227219e+01  -2.072605e+01
   9.318624e+01   1.834163e+01
   7.855819e-01   7.343635e+01
  -1.287738e+02   1.014258e+02
  -1.969898e+02   6.026395e+01
  -1.402216e+02  -7.537283e+01
  -1.854129e+01  -1.671239e+02
   7.539266e+01  -1.530032e+02
   1.033368e+02  -7.250275e+01
   7.756645e+01   9.635169e-01
   5.033478e+01   5.999010e+00
   2.345412e+01   1.938582e+01
   5.827401e+00  -3.238805e+00
   2.854104e+01   3.705002e+01
   1.989709e+01   7.619902e+01
  -2.462579e+01   7.261259e+01
  -6.316049e+01  -2.067425e+01
  -7.682254e+01  -1.038626e+02
  -9.095751e+00  -9.829775e+01
   7.654993e+01  -1.833994e+01
   8.019682e+01   4.192706e+01
   5.989593e+01   9.964790e+01
  -4.989854e+01   5.987963e+01
  -9.997082e+01  -2.339325e+01
  -4.573747e+01  -4.828778e+01
   2.722097e+01  -5.139805e+01
   2.103211e+01  -5.164580e+01
  -2.623842e+01  -1.019332e+01
  -6.917667e+01   2.449962e+01
  -3.726622e+00  -1.873172e+01
   5.594863e+01  -8.083661e+01
   1.343325e+02  -6.143935e+01
   8.826742e+01   3.682803e+01
  -1.912010e+01   8.402627e+01
  -4.262160e+01   7.993739e+01
  -2.511406e+01   1.692898e+01
  -1.891116e+01  -4.886635e+01
   3.030129e+01  -4.917367e+01
   3.825651e+01   6.001074e+00
   5.741087e+00   5.083730e+01
   9.071523e+00   2.942859e+01
  -2.643971e+01  -2.872239e+01
  -3.812733e+01  -2.883288e+01
  -1.855373e+01  -2.386175e+01
   1.260023e+01   1.464139e+01
  -4.774767e+00   1.148480e+01
   3.284428e+01  -4.459427e+01
   2.401546e+01  -4.656660e+01
   3.199704e+01  -6.442003e+00
   3.220394e+01   5.328838e+01
   6.113137e+00   5.286835e+01
  -4.619501e+01   2.843562e+01
  -7.266531e+01  -2.648108e+01
  -3.104696e+01  -6.158256e+01
   5.704053e+01  -5.094021e+01
   9.592858e+01   1.635669e+01
   5.423618e+01   5.749185e+01
  -2.707503e+01   5.067399e+01
  -5.276302e+01   1.950860e+01
  -2.372094e+01   4.228024e+00
   4.841580e+01   3.872437e-01
   4.237100e+01   3.108625e+01
  -3.870282e+01   2.093523e+01
  -8.121864e+01   2.375466e+01
