
 $NMID
 id='ANONYMOUS ', fmtdat='(2E16.6)'
 volume=1.0
 tramp=1.0
 $END
   3.417250e+03   1.684046e+01
   2.172868e+03   2.049172e+03
  -2.184793e+02   2.020866e+03
  -1.496446e+03   9.653738e+02
  -7.781234e+02  -1.160604e+02
   3.388904e+02  -1.493373e+02
   5.154540e+02   3.217026e+02
   2.997354e+01   6.969803e+02
  -5.637677e+02   5.610250e+02
  -6.664382e+02   7.028286e+00
  -4.272477e+02  -6.223636e+02
   1.399872e+02  -6.817754e+02
   4.048399e+02  -1.094644e+02
   3.228593e+02   4.522586e+02
  -1.723263e+02   5.799624e+02
  -4.332858e+02   2.878005e+01
  -2.438934e+02  -5.416804e+02
   1.900700e+02  -5.639580e+02
   4.207779e+02  -1.689385e+02
   3.726736e+02   1.553648e+02
   7.575623e+01   3.499139e+02
  -1.530608e+02   2.368885e+02
  -1.314148e+02   4.120568e+01
   1.349018e+02   1.070882e+01
   3.286939e+02   1.824733e+02
   8.552315e+01   3.912217e+02
  -4.372412e+02   2.411715e+02
  -6.734343e+02  -1.564301e+02
  -2.731618e+02  -4.371550e+02
   3.601721e+02  -3.373342e+02
   6.000118e+02   8.481444e+01
   2.446438e+02   4.045322e+02
  -2.436858e+02   4.085778e+02
  -4.510476e+02   1.966323e+02
  -3.360833e+02  -1.684365e+02
  -8.189855e+01  -3.599784e+02
   1.201183e+02  -1.849562e+02
   2.545415e+01   1.592588e+02
  -1.719098e+02   2.451106e+02
  -2.998231e+02  -8.827314e+01
  -8.859531e+01  -5.159594e+02
   2.578525e+02  -5.479568e+02
   4.105631e+02  -3.095788e+01
   1.747846e+02   3.695504e+02
  -1.931332e+02   1.707253e+02
  -2.262690e+02  -2.754129e+02
   1.001161e+02  -4.159643e+02
   4.490499e+02  -3.786500e+01
   4.868387e+02   3.637472e+02
   1.549251e+02   4.784940e+02
  -3.277456e+02   2.813576e+02
  -5.161226e+02  -6.140092e+01
  -3.379352e+02  -2.963536e+02
   8.663526e+01  -2.280497e+02
   3.310378e+02  -4.675024e+01
   1.899279e+02   8.555448e+01
  -4.360375e+01   3.945563e+01
  -5.046899e+01  -6.644386e+01
   8.665029e+01  -8.425773e+01
   2.301309e+02   5.545298e+01
   1.140652e+02   2.284803e+02
  -1.638293e+02   2.133162e+02
  -3.472718e+02   7.970608e+01
  -1.782463e+02  -6.632352e+01
   1.692741e+01  -2.474352e+02
   2.273980e+02  -3.259967e+02
   3.332604e+02  -1.778365e+02
   2.489346e+02   1.544814e+02
   4.942308e+01   3.502077e+02
  -9.023610e+01   3.204817e+02
  -6.462778e+01   1.469617e+02
  -1.445894e+01   7.229675e+01
  -7.966479e+01   1.098602e+02
  -2.080439e+02   9.992439e+01
  -2.534530e+02  -1.126548e+02
  -9.025791e+01  -2.224218e+02
   6.601639e+01  -2.487174e+02
   2.000742e+02  -7.050433e+00
   1.682991e+02   2.347482e+02
  -1.713419e+01   2.389685e+02
  -2.571424e+02   8.668686e+01
  -3.097520e+02  -1.520638e+02
  -1.787778e+02  -2.981727e+02
   9.483882e+01  -3.048939e+02
   1.589331e+02  -1.225014e+02
   1.440925e+02  -2.572612e+01
   9.391554e+01  -4.938328e+01
   2.565100e+02  -6.374943e+01
   3.740782e+02   7.908527e+01
   3.067933e+02   2.658217e+02
  -3.269387e+01   4.195378e+02
  -3.482892e+02   3.845848e+02
  -4.512699e+02   1.747731e+02
  -3.156567e+02  -1.013764e+02
  -3.555668e+01  -2.490368e+02
   1.090805e+02  -1.907311e+02
   5.250031e+01  -3.110477e+01
  -1.076343e+02   4.056771e+01
  -1.533892e+02  -5.693929e+01
  -2.313267e+00  -1.540686e+02
   1.347897e+02  -8.262601e+01
   1.277617e+02   6.495855e+01
  -2.877224e+01   1.446452e+02
  -1.722942e+02   3.595337e+00
  -1.371659e+02  -2.299972e+02
   5.015809e+01  -3.202351e+02
   2.394955e+02  -1.883346e+02
   3.083459e+02   4.742002e+01
   2.349190e+02   2.461751e+02
   6.682929e+01   2.523698e+02
  -9.523951e+01   1.468979e+02
  -1.289662e+02   5.868627e+00
  -6.416081e+01  -8.060814e+00
   1.632496e+01   5.280282e+01
   1.969148e+01   1.057449e+02
  -1.135151e+02   4.799374e+01
  -1.168572e+02  -2.210463e+01
  -3.238142e+01  -3.727208e+01
   4.976308e+01  -8.316902e+00
   4.975913e+01   8.491639e+01
  -1.388019e+02   9.174543e+01
  -2.745752e+02  -3.232854e+01
  -2.365965e+02  -1.083291e+02
  -3.607715e+01  -2.519188e+02
   1.779346e+02  -2.009845e+02
   2.598263e+02  -8.758309e+01
   1.412380e+02   4.813347e+01
  -4.531166e+01   8.082151e+01
  -6.176269e+01   2.039631e+01
   3.349106e+00  -9.441880e+01
   2.022592e+02  -4.464152e+01
   1.698481e+02   1.164996e+02
   2.395497e+01   1.963195e+02
  -1.032909e+02   1.422867e+02
  -1.316692e+02   9.938972e+00
  -3.670089e+01  -4.053116e+01
   3.347931e+01   2.977617e+00
   8.869938e+00   7.421246e+01
  -8.660782e+01   1.383228e+02
  -1.861172e+02   3.699497e+01
  -1.960209e+02  -9.989527e+01
  -2.059288e+01  -2.025803e+02
   1.519671e+02  -1.446161e+02
   1.883430e+02   1.003040e+01
   6.636079e+01   1.054139e+02
  -9.086748e+01   8.504634e+01
  -7.544392e+01  -3.152868e+00
  -9.431365e+00  -5.355227e+01
   2.850730e+01  -2.746045e+01
  -5.674080e+00   2.961740e+00
  -8.374469e+01  -2.192336e+01
  -8.877825e+01  -9.750382e+01
   1.519097e+00  -1.428526e+02
   1.336149e+02  -1.268931e+02
   2.286399e+02  -1.255065e+01
   2.003839e+02   1.486323e+02
   1.904766e+01   1.999187e+02
  -9.003894e+01   1.721444e+02
  -1.308886e+02   2.090810e+01
  -7.263518e+01  -1.703951e+01
  -4.153569e+01  -3.487598e+01
  -3.741801e+01   2.988864e+01
  -5.393333e+01   5.482324e+00
  -8.960012e+01  -4.581107e+01
   3.842470e+01  -8.250648e+01
   1.164274e+02  -5.429898e+01
   8.904409e+01   2.060714e+01
  -2.848234e+01   1.290217e+02
  -1.419636e+02   7.277982e+01
  -1.760179e+02  -6.607410e+01
  -8.591174e+01  -1.603093e+02
   1.119425e+02  -2.022615e+02
   2.109409e+02  -5.996753e+01
   2.096025e+02   6.973076e+01
   8.772992e+01   1.538762e+02
  -2.612562e+01   1.661573e+02
  -9.366031e+01   7.043118e+01
  -1.108753e+02   7.186383e+01
  -3.580560e+01   7.148344e+01
  -8.881302e+01   6.573398e+01
  -1.144673e+02  -3.327640e+01
  -8.936197e+01  -1.779634e+02
   2.575395e+00  -1.864495e+02
   1.133868e+02  -1.480034e+02
   1.724969e+02   1.396448e+01
   1.315018e+02   1.218854e+02
   1.917471e+01   1.533712e+02
  -6.974555e+01   1.017063e+02
  -6.647180e+01  -1.338233e+01
  -7.220293e+00  -6.151646e+01
   4.679261e+01  -4.381072e+01
  -2.640291e+01   8.179119e-01
  -7.446254e+01  -1.044348e+00
  -3.015481e+01  -1.564375e+01
   5.038121e+01  -3.150753e+01
   1.563054e+02   1.076917e+01
   1.674376e+02   4.355593e+01
   2.531256e+01   1.073676e+02
  -1.022050e+02   6.426789e+01
  -1.580146e+02   5.624023e+00
  -5.862736e+01  -4.853019e+01
   7.163946e+01  -7.283143e+01
   7.685726e+01   9.209144e+00
   1.462618e+01   7.918106e+01
  -4.633178e+01   7.195898e+01
  -2.767649e+01   1.656153e+00
  -6.465346e+01  -5.504703e+01
  -4.519046e+01  -3.816001e+01
  -5.531443e+01  -3.616900e+00
  -5.000834e+01  -1.738172e+01
  -2.737210e+01  -8.003102e+01
   3.513222e+01  -1.282299e+02
   8.786183e+01  -1.206816e+02
   1.875390e+02  -1.836044e+01
   1.016121e+02   5.600997e+01
   8.356162e+00   1.297376e+02
  -6.946603e+01   4.518687e+01
  -5.287060e+01  -2.713432e+01
   4.338921e+01  -2.106748e+01
   1.291864e+02   1.984047e+01
   6.994695e+01   8.919281e+01
  -8.521462e+01   1.022154e+02
  -1.753988e+02   5.089061e+01
  -1.753732e+02  -4.580771e+01
  -3.041128e+01  -6.749524e+01
   4.709346e+01  -5.071588e+01
   3.095456e+01  -1.037010e+01
  -4.637611e+01   1.417261e+01
  -1.229623e+02  -5.588446e+00
  -4.953165e+01  -1.085665e+02
   8.244774e+01  -1.476993e+02
   1.601813e+02  -4.615959e+01
   1.272074e+02   8.284241e+01
   2.080099e+01   1.464713e+02
  -6.580764e+01   1.178908e+02
  -9.349569e+01   5.631977e+00
  -6.700064e+01  -8.525149e+01
   1.105353e+01  -7.486117e+01
   3.052225e+01  -9.520909e+00
   3.757883e+01   3.910938e+01
   2.669804e+01   2.295301e+01
   3.269175e+01  -1.209276e+01
   4.518028e+01   4.523869e+00
   6.131722e+01   9.505118e+01
   1.623564e+01   1.040220e+02
  -7.327190e+01   3.852511e+01
  -1.371579e+02  -2.413398e+01
  -1.013060e+02  -1.074129e+02
  -1.788623e+01  -7.138244e+01
   7.961708e+01   1.553326e+01
   7.747924e+01  -1.134544e+00
  -4.498497e+00  -7.167394e+00
  -3.532528e+01   3.737621e+01
  -6.579989e+00   2.490270e+01
   2.409519e+01   7.929737e-01
  -1.582419e+01   6.470256e+00
  -3.879256e+01   8.244068e+00
  -7.856555e+01  -1.662085e+01
  -2.800873e+01  -9.794571e+01
   9.403051e+01  -1.254193e+02
   1.806557e+02  -7.247962e+01
   1.299133e+02   6.969071e+01
   2.564153e+01   1.458048e+02
  -7.051583e+01   1.253238e+02
  -1.001589e+02   9.253427e+01
  -8.335445e+01   1.132190e+00
  -1.213528e+01  -2.578475e+01
  -4.942819e+00  -9.440217e+00
   1.943452e+00   6.068980e+00
  -1.063822e+01  -4.233358e+01
  -1.015203e+01  -8.436237e+01
   2.477347e+01  -5.333384e+01
   7.711337e+01   3.209536e+00
   9.489305e+01   1.036500e+02
   1.648660e+01   1.028896e+02
  -6.419362e+01   4.576787e+01
  -8.013819e+01  -6.429836e+01
  -6.290608e+01  -1.034616e+02
   6.646888e+01  -6.819974e+01
   9.392821e+01   2.072748e+01
   6.473240e+01   6.456097e+01
  -5.235312e+00   5.479146e+01
  -3.417874e+01   1.669450e+01
   2.237059e+01  -8.953171e+00
   4.854437e+01   8.314174e+00
   1.775367e+01   2.193182e+01
  -7.368289e+01   6.312588e+01
  -1.044583e+02   4.139263e+01
  -7.094835e+01  -2.485677e+01
   2.603877e+01  -1.155824e+02
   5.807183e+01  -6.283664e+01
   6.462315e+01   1.479160e+01
   3.891671e+00   5.204869e+01
  -4.974901e+01   3.662122e+01
  -5.417916e+01   1.015804e-01
  -2.452802e+01  -6.905076e+01
  -1.514857e+01   3.459283e+00
   1.587215e+01   5.221860e+00
   1.442750e+01   8.881533e+00
   6.316257e+00  -1.175940e+01
   1.322010e+01  -1.815138e+01
   8.973794e+00  -7.103018e+00
   6.089041e+00   1.516187e+01
  -1.390637e+01   7.085393e+01
  -2.050287e+01   2.033828e+01
  -3.592384e+01  -5.116484e+01
  -1.740519e+01  -3.172917e+01
  -6.724665e+00  -7.954023e+00
   7.546217e+01   1.491746e+01
   4.023077e+01   4.432822e+01
  -3.261697e+01   2.139227e+01
  -1.099685e+02  -1.627859e+01
  -5.112962e+01  -6.064169e+01
   4.151442e+01  -6.922859e+01
   9.852033e+01  -2.709526e+01
   3.243601e+01   2.344195e+01
  -3.394938e+01  -4.660434e+00
  -3.574774e+01   4.237610e+00
   1.208943e+01  -2.438368e+01
   6.073607e+01  -8.472153e+00
