
 $NMID
 id='ANONYMOUS ', fmtdat='(2E16.6)'
 volume=1.0
 tramp=1.0
 $END
  -3.967005e+03   9.999248e+01
  -2.320209e+03  -2.312515e+03
   4.691145e+02  -2.568972e+03
   1.776110e+03  -1.027160e+03
   9.388911e+02   3.641956e+02
  -3.851586e+02   5.479879e+02
  -6.831241e+02  -2.564423e+02
  -6.267660e+00  -8.837206e+02
   6.798828e+02  -6.408447e+02
   8.662237e+02   5.724747e+01
   3.915162e+02   7.376674e+02
  -1.638253e+02   7.584407e+02
  -5.052936e+02   1.497995e+02
  -3.023411e+02  -6.139261e+02
   2.139286e+02  -6.408111e+02
   5.748500e+02  -2.166402e+01
   3.272297e+02   6.221466e+02
  -2.683257e+02   6.380195e+02
  -5.628428e+02   1.132005e+02
  -3.504634e+02  -3.041420e+02
  -4.288242e+01  -4.011785e+02
   1.419026e+02  -2.371229e+02
   1.300549e+02  -6.618323e+01
  -1.434435e+02  -3.515758e+01
  -3.084790e+02  -2.060243e+02
  -1.101010e+02  -4.263409e+02
   4.177322e+02  -3.074954e+02
   7.881812e+02   1.198807e+02
   3.750116e+02   4.097217e+02
  -3.296332e+02   3.619975e+02
  -6.309012e+02  -5.360348e+01
  -2.703932e+02  -4.513111e+02
   2.667735e+02  -4.575684e+02
   5.031859e+02  -1.755325e+02
   3.487162e+02   2.512780e+02
   6.340810e+01   3.925895e+02
  -1.635162e+02   2.478603e+02
  -1.104477e+02  -1.616776e+02
   1.426284e+02  -2.740088e+02
   2.706718e+02  -1.171595e+01
   1.386163e+02   5.767769e+02
  -2.095660e+02   5.634706e+02
  -4.883362e+02   3.886819e+00
  -2.019211e+02  -4.222532e+02
   2.203132e+02  -2.940664e+02
   3.658321e+02   2.654267e+02
  -8.316216e+01   4.802751e+02
  -5.072614e+02   1.017055e+02
  -5.333634e+02  -3.795827e+02
  -1.528455e+02  -5.703173e+02
   3.695797e+02  -3.405963e+02
   5.634660e+02   7.323070e+01
   3.271015e+02   3.143843e+02
  -1.217734e+02   3.085620e+02
  -3.862356e+02   5.830848e+01
  -2.251568e+02  -1.432685e+02
   8.250655e+01  -6.263311e+01
   1.237417e+02   1.423876e+02
  -1.425997e+02   1.415866e+02
  -2.885230e+02  -7.102661e+01
  -1.537063e+02  -2.821629e+02
   2.084213e+02  -2.369056e+02
   3.792816e+02  -6.991793e+01
   2.236325e+02   1.248513e+02
  -7.337185e+01   2.933711e+02
  -2.739035e+02   3.181179e+02
  -3.338997e+02   1.514892e+02
  -2.309796e+02  -1.459670e+02
  -7.209018e+01  -4.025226e+02
   8.503671e+01  -3.416100e+02
   8.466380e+01  -1.223232e+02
   3.184228e+01  -3.552117e+01
   8.497626e+01  -8.933464e+01
   2.234526e+02  -9.589936e+01
   2.344177e+02   7.496019e+01
   1.308382e+02   2.948725e+02
  -8.332027e+01   2.480498e+02
  -2.041691e+02  -2.480921e+01
  -1.757564e+02  -2.289689e+02
   1.115413e-01  -2.820449e+02
   2.877125e+02  -6.962737e+01
   3.353976e+02   1.895226e+02
   1.710096e+02   3.329108e+02
  -6.492783e+01   2.836323e+02
  -1.713975e+02   1.237569e+02
  -1.162986e+02   2.855963e+01
  -1.235566e+02   4.790244e+01
  -2.468948e+02   3.034695e+01
  -3.946490e+02  -8.206504e+01
  -3.022443e+02  -2.703724e+02
  -6.070120e+00  -4.701093e+02
   3.859332e+02  -4.325669e+02
   4.620754e+02  -2.104999e+02
   3.085744e+02   8.921047e+01
   2.330013e+01   2.573710e+02
  -1.148360e+02   2.352277e+02
  -3.521236e+01   6.788351e+00
   1.476654e+02  -5.937285e+01
   1.511341e+02   3.418022e+01
   5.378989e+01   1.994659e+02
  -1.427804e+02   1.487089e+02
  -1.632827e+02  -5.243140e+01
   1.304856e+01  -1.948110e+02
   1.860902e+02  -1.999928e+01
   1.596947e+02   2.341054e+02
  -4.826697e+01   3.624179e+02
  -2.390671e+02   1.873747e+02
  -3.588546e+02  -9.477929e+01
  -2.475380e+02  -2.624766e+02
  -6.225042e+01  -2.580151e+02
   8.550681e+01  -1.049961e+02
   1.469273e+02  -1.260114e+01
   6.453567e+01   2.472284e+01
  -2.879017e+01  -4.539485e+01
  -1.686777e+01  -1.156408e+02
   1.327009e+02  -5.766424e+01
   1.745896e+02   2.709994e+01
   5.975653e+01   9.384711e+01
  -9.962414e+01   2.157770e+01
  -4.688156e+01  -1.065032e+02
   1.234473e+02  -6.701948e+01
   2.791392e+02   4.502499e+01
   2.745719e+02   1.643416e+02
   4.105213e+01   2.693555e+02
  -1.840145e+02   2.341152e+02
  -2.712353e+02   1.037275e+02
  -1.380199e+02  -8.501631e+01
   2.803865e+01  -8.809985e+01
   7.249574e+01   1.748311e+01
  -6.116087e+01   9.943109e+01
  -1.900712e+02   1.935467e+01
  -1.962528e+02  -1.281584e+02
  -6.203465e+01  -2.039478e+02
   6.182069e+01  -1.327030e+02
   1.386619e+02  -2.663036e+01
   6.908722e+01   3.240714e+01
  -5.004634e+01  -1.660056e+01
  -3.611365e+01  -8.899515e+01
   8.736551e+01  -1.249316e+02
   2.341750e+02  -2.293552e+01
   1.815867e+02   1.294104e+02
  -5.783575e-01   2.121299e+02
  -1.746813e+02   1.512405e+02
  -1.879639e+02   1.456122e+01
  -3.960639e+01  -8.810482e+01
   5.000877e+01  -1.274886e+02
   5.230277e+01  -1.775695e+01
   1.950745e+01   4.577801e+01
  -2.642560e+01   1.576186e+01
  -1.088297e+01  -2.765207e+01
   9.320063e+01  -5.437646e+00
   1.316727e+02   6.716936e+01
   3.232887e+01   1.474827e+02
  -1.381841e+02   1.688167e+02
  -2.106810e+02   4.172745e+01
  -2.037919e+02  -1.537340e+02
  -7.186216e+01  -2.507649e+02
   1.166329e+02  -1.938874e+02
   1.644402e+02  -1.640380e+01
   7.122064e+01   6.095083e+01
   2.892145e+01   3.384217e+01
   1.500990e+01  -1.080585e+01
   8.397589e+01  -1.734069e+01
   7.509867e+01   5.239854e+01
  -2.834493e+01   7.604158e+01
  -1.061668e+02   6.044046e+01
  -1.033968e+02  -1.493539e+01
   1.401155e+01  -9.626931e+01
   1.321367e+02  -7.036318e+01
   1.772062e+02   5.219460e+01
   5.118775e+01   2.309839e+02
  -1.213681e+02   2.251265e+02
  -2.777352e+02   9.865265e+01
  -2.466555e+02  -9.217769e+01
  -1.304904e+02  -1.743752e+02
   5.016479e+01  -1.199972e+02
   7.938371e+01  -9.190887e+01
   7.255245e+01  -7.412401e+01
   9.174363e+01  -6.893609e+01
   9.509296e+01  -6.245315e+01
   1.327515e+02   2.341234e+01
   1.070893e+02   1.313650e+02
   5.427906e+01   2.673801e+02
  -9.503037e+01   1.555209e+02
  -1.719065e+02   2.807258e+01
  -1.057008e+02  -1.157906e+02
  -1.061894e+01  -1.494657e+02
   7.402395e+01  -7.542046e+01
   4.798663e+01   8.926741e+00
  -1.045001e+01   5.559733e+01
  -1.457101e+01   2.024016e+01
   2.441577e+01   3.654498e+01
   6.071654e+01   1.068450e+01
   2.693931e+01   2.794128e+01
  -6.471609e+01   3.293762e+01
  -1.541893e+02   1.001238e+01
  -1.495161e+02  -5.416984e+01
   6.486284e+00  -9.459868e+01
   1.239856e+02  -5.707533e+01
   1.414540e+02   3.329281e+00
   6.051474e+01   5.152615e+01
  -3.439745e+01   4.573185e+01
  -9.760592e+01   1.060687e+01
  -9.448063e+00  -7.250626e+01
   6.040380e+01  -3.801573e+01
   5.634551e+01   2.356346e+00
   4.179472e+01   4.740928e+01
   3.227840e+01   6.096295e+01
   3.463513e+01  -7.965348e+00
   4.802150e+01  -7.518230e+00
   3.302043e+01   6.309745e+01
  -2.434338e+01   1.582640e+02
  -1.202134e+02   1.504219e+02
  -1.693438e+02   3.934644e+01
  -1.154564e+02  -7.940582e+01
   3.547086e+00  -1.288677e+02
   7.772198e+01  -7.405226e+01
   6.601823e+01   3.677322e+00
  -4.965417e+01   2.264968e+01
  -1.114744e+02  -4.180663e+01
  -4.792928e+01  -1.256323e+02
   9.555575e+01  -1.108104e+02
   1.816433e+02  -6.029765e+01
   1.711905e+02   2.121733e+01
   3.121667e+01   1.012485e+02
  -5.614414e+01   5.593927e+01
  -5.144563e+01   1.458600e+01
   3.053267e+01  -2.347898e+01
   9.890501e+01   2.634626e+00
   2.860791e+01   1.130107e+02
  -8.304871e+01   1.589174e+02
  -1.602582e+02   6.646218e+01
  -1.224443e+02  -8.389508e+01
   3.232433e+00  -1.890893e+02
   8.587313e+01  -1.337840e+02
   1.135084e+02   1.904814e+01
   4.994157e+01   1.187497e+02
  -5.246188e+01   1.032946e+02
  -5.071845e+01   3.157127e+00
  -3.973275e+01  -1.921820e+01
  -5.474400e+00  -2.639832e+00
  -7.006101e+00   2.883537e+01
  -2.781214e+01  -2.165729e+01
  -3.829557e+01  -9.671369e+01
  -1.571240e+01  -1.163560e+02
   4.917592e+01  -3.414000e+01
   1.422622e+02   2.656260e+01
   1.163183e+02   6.500604e+01
   1.840398e+01   5.252378e+01
  -6.461258e+01   4.531439e+01
  -7.777564e+01   8.273545e-01
  -1.539796e+01  -2.605222e+01
   2.815849e+01  -4.368919e+01
  -7.831156e-02  -1.188091e+01
  -1.559292e+01   7.828204e+00
  -4.006072e+00   2.532911e+01
   8.723259e+01  -3.088241e+01
   8.830149e+01   1.886768e+01
  -5.310136e+00   6.721666e+01
  -7.383552e+01   8.228633e+01
  -1.846530e+02   7.276441e+01
  -1.330132e+02  -6.607699e+01
  -2.552591e+01  -1.698765e+02
   8.733465e+01  -1.548125e+02
   1.147932e+02  -4.925627e+01
   8.508977e+01   4.361232e+01
   3.305262e+01   7.479771e+01
   1.066335e+01   2.603375e+01
   3.599162e+00   6.390237e+00
   1.682998e+01   5.589771e+01
   2.232775e+01   1.011885e+02
  -3.626704e+01   7.516436e+01
  -7.508228e+01  -1.679518e+01
  -7.216250e+01  -9.827112e+01
  -2.491794e+01  -1.064198e+02
   7.082533e+01  -4.581581e+01
   1.003225e+02   8.096814e+01
   2.047915e+01   1.048529e+02
  -8.502303e+01   5.572333e+01
  -7.821650e+01  -2.996695e+01
  -3.763120e+01  -4.778917e+01
   2.095090e+01  -5.425326e+01
   1.564921e+01  -2.251278e+01
  -2.042936e+01   5.702331e+00
  -3.387917e+01  -1.331123e+00
  -1.959907e+01  -4.261807e+01
   7.109071e+01  -7.281976e+01
   8.356615e+01  -4.982790e+01
   5.888739e+01   1.090488e+01
   2.412027e-01   6.891657e+01
  -3.871974e+01   7.974039e+01
  -4.719304e+01   1.176188e+01
  -3.139502e+01  -4.089273e+01
   2.493714e+01  -4.563675e+01
   4.895331e+01   1.890810e+01
   2.569987e+01   4.131284e+01
  -1.676541e+00   3.854177e+01
  -4.661536e+01   1.885007e+01
  -4.237710e+01  -1.721202e+01
  -1.341353e+01   8.172493e+00
  -5.023695e-01   9.466608e-01
  -9.189352e+00   7.641975e+00
  -1.749387e+01  -2.898668e+01
   2.146941e+01  -3.444751e+01
   4.710694e+01   5.954064e+00
   2.261450e+01   5.134430e+01
  -4.840758e+01   3.916353e+01
  -4.921591e+01   7.025588e+00
  -7.745888e+01  -2.561327e+01
  -1.401800e+01  -8.572969e+01
   7.522633e+01  -3.762074e+01
   8.628010e+01   3.119979e+01
   4.229506e+01   3.261243e+01
  -4.688576e+01   2.461807e+01
  -6.960451e+01  -1.330743e+00
  -1.066529e+01   3.554343e+00
   3.514430e+01   1.521849e+01
   2.405340e+01   4.571916e-01
  -1.454084e+01   3.858126e+01
  -9.217944e+01   1.573186e+01
