
 $NMID
 id='ANONYMOUS ', fmtdat='(2E16.6)'
 volume=1.0
 tramp=1.0
 $END
   3.815309e+03  -6.056563e+01
   2.484120e+03   2.675646e+03
  -5.049938e+02   2.616784e+03
  -1.877223e+03   9.302684e+02
  -8.366316e+02  -4.236211e+02
   4.562905e+02  -5.830171e+02
   8.306941e+02   3.779155e+02
   1.749304e+01   1.054730e+03
  -7.245217e+02   7.422640e+02
  -9.030776e+02  -1.022243e+02
  -4.185158e+02  -8.245105e+02
   1.621274e+02  -8.742835e+02
   5.552329e+02  -1.337075e+02
   3.652928e+02   7.206347e+02
  -2.686708e+02   7.089704e+02
  -5.755109e+02   1.489137e+01
  -2.817307e+02  -6.568803e+02
   2.833936e+02  -6.688837e+02
   5.975989e+02  -1.834741e+02
   4.509971e+02   3.103114e+02
   5.407195e+01   4.210309e+02
  -1.913888e+02   2.751035e+02
  -1.669388e+02   2.977450e+01
   1.303734e+02  -6.334199e+01
   4.073340e+02   1.378513e+02
   1.665075e+02   4.490221e+02
  -4.564437e+02   3.659254e+02
  -7.741434e+02  -1.053563e+02
  -3.897783e+02  -4.717860e+02
   3.912157e+02  -3.774590e+02
   6.822160e+02   4.347132e+01
   2.945660e+02   4.858462e+02
  -2.670731e+02   5.180734e+02
  -5.213348e+02   2.036236e+02
  -4.322985e+02  -2.230020e+02
  -7.167398e+01  -4.838492e+02
   1.906277e+02  -3.060241e+02
   1.217086e+02   2.171812e+02
  -1.985845e+02   4.184677e+02
  -3.974267e+02  -4.876578e+01
  -2.177559e+02  -6.818770e+02
   2.703368e+02  -6.744895e+02
   5.246237e+02   7.574587e+00
   2.272657e+02   5.022384e+02
  -2.729799e+02   2.870894e+02
  -3.408331e+02  -2.993928e+02
   6.970474e+01  -5.280442e+02
   5.096033e+02  -1.504120e+02
   5.876291e+02   3.827230e+02
   1.872793e+02   5.691591e+02
  -3.715689e+02   3.506292e+02
  -6.361595e+02  -6.102927e+01
  -3.637187e+02  -3.819287e+02
   1.209584e+02  -3.389572e+02
   4.084789e+02  -7.393816e+01
   2.504213e+02   1.594662e+02
  -8.880656e+01   1.105076e+02
  -1.314914e+02  -1.284055e+02
   1.168835e+02  -1.578555e+02
   3.051908e+02   4.811191e+01
   1.654181e+02   2.529282e+02
  -1.733049e+02   2.533200e+02
  -3.421741e+02   8.917619e+01
  -2.401125e+02  -7.470346e+01
  -2.506463e+01  -2.908616e+02
   2.334705e+02  -3.416947e+02
   3.348328e+02  -1.892751e+02
   2.652071e+02   1.578125e+02
   6.032735e+01   4.461505e+02
  -1.282535e+02   3.986461e+02
  -1.108064e+02   6.374850e+01
  -3.268919e+01   1.546897e+01
  -6.765937e+01   8.498784e+01
  -1.978142e+02   1.001128e+02
  -2.622189e+02  -6.318602e+01
  -1.355448e+02  -2.808016e+02
   5.750036e+01  -2.508851e+02
   2.139473e+02  -2.645060e+01
   2.063645e+02   2.293714e+02
  -3.084236e+01   2.742440e+02
  -2.734370e+02   9.942899e+01
  -3.705715e+02  -1.578554e+02
  -1.952922e+02  -3.637709e+02
   9.466181e+01  -3.157706e+02
   2.179844e+02  -1.038878e+02
   1.828238e+02  -1.043285e+01
   9.229146e+01  -1.562440e+01
   2.044716e+02  -1.103866e+01
   3.922002e+02   6.433856e+01
   3.213876e+02   2.826548e+02
   2.574536e+00   4.281682e+02
  -3.460269e+02   4.143026e+02
  -4.958198e+02   1.892248e+02
  -3.465472e+02  -1.094565e+02
  -5.442425e+01  -3.144693e+02
   1.466542e+02  -2.293393e+02
   1.129613e+02   3.706281e+00
  -1.453763e+02   1.060397e+02
  -1.830694e+02  -4.226062e+00
  -6.288048e+01  -2.106813e+02
   1.610048e+02  -1.567733e+02
   1.652270e+02   3.907519e+01
  -1.730811e+01   1.717504e+02
  -1.800357e+02   5.034263e+01
  -1.711950e+02  -2.470895e+02
   2.937328e+01  -3.243465e+02
   2.423066e+02  -1.942715e+02
   3.574311e+02   4.655937e+01
   2.806926e+02   2.421514e+02
   7.244814e+01   2.529635e+02
  -1.239999e+02   1.698518e+02
  -1.570912e+02   3.787419e+01
  -4.942978e+01  -3.040685e+01
   5.051968e+01   5.355675e+01
   1.333238e+01   1.173943e+02
  -1.207775e+02   1.166297e+02
  -1.641404e+02  -2.223335e+01
  -4.778971e+01  -6.259149e+01
   8.459854e+01  -1.464461e+01
   6.392742e+01   5.757626e+01
  -1.242545e+02   6.372587e+01
  -2.661490e+02  -2.016093e+01
  -2.600047e+02  -1.513048e+02
  -7.852343e+01  -2.370131e+02
   1.684176e+02  -2.399097e+02
   2.555845e+02  -1.166218e+02
   1.727286e+02   2.147747e+01
   1.192742e+01   1.009987e+02
  -9.258035e+01  -2.664213e+00
   7.182419e+01  -9.677829e+01
   1.927870e+02  -4.199261e+01
   1.942047e+02   9.489226e+01
   1.063866e+02   2.062792e+02
  -1.105740e+02   1.609433e+02
  -1.653941e+02   2.864709e+01
  -4.833773e+01  -5.296924e+01
   4.106182e+01   2.410787e+00
   2.791467e+01   1.019546e+02
  -7.708251e+01   1.003043e+02
  -1.995875e+02   1.570969e+01
  -1.974267e+02  -1.329270e+02
   1.650844e+00  -2.345626e+02
   1.719709e+02  -1.707557e+02
   2.009323e+02  -1.665441e+01
   6.925504e+01   1.020730e+02
  -5.944097e+01   1.334696e+02
  -7.789910e+01   2.582074e+01
  -4.802977e+01  -2.674241e+01
   1.103662e+01  -3.551370e+01
  -2.397453e+01   3.330127e+00
  -7.847443e+01   1.776365e+01
  -5.655364e+01  -6.008989e+01
   6.769440e-01  -1.541851e+02
   1.333843e+02  -1.459514e+02
   2.580311e+02  -1.672752e+01
   1.934631e+02   1.518352e+02
   7.145133e+00   2.176376e+02
  -9.482966e+01   1.914151e+02
  -1.385121e+02   5.093283e+01
  -7.469508e+01  -2.673400e+01
  -5.044631e+01  -4.257360e+01
  -5.308215e+01  -6.667221e+00
  -9.756383e+01   2.834327e+01
  -2.406362e+01  -6.356787e+01
   3.112845e+01  -7.380009e+01
   1.203390e+02  -6.097525e+01
   6.854385e+01   1.447433e+01
   1.414591e+00   1.104909e+02
  -1.234836e+02   9.557728e+01
  -1.947813e+02  -2.680217e+01
  -9.899270e+01  -1.900744e+02
   9.762277e+01  -2.005235e+02
   2.230102e+02  -8.492343e+01
   2.323161e+02   7.185798e+01
   9.076060e+01   1.936163e+02
  -5.220109e+01   1.384058e+02
  -1.142727e+02   1.094858e+02
  -7.456735e+01   6.653066e+01
  -6.687337e+01   8.247654e+01
  -5.985742e+01   4.263567e+01
  -1.213640e+02  -3.482987e+01
  -1.114727e+02  -1.457346e+02
  -3.328273e+01  -2.400338e+02
   9.335918e+01  -1.753494e+02
   1.808987e+02  -1.522303e+01
   1.558628e+02   1.163920e+02
   2.635646e+01   1.732504e+02
  -9.301280e+01   7.086281e+01
  -7.817502e+01  -2.253444e+01
  -2.102343e+01  -7.069449e+01
   2.543117e+01  -4.520787e+01
   2.789947e+00  -1.328879e+01
  -7.606865e+01   1.381472e+01
  -4.020230e+01  -4.186561e+01
   6.856059e+01  -5.609878e+01
   1.587823e+02  -4.798742e+00
   1.125721e+02   5.085982e+01
   1.122812e+01   6.285415e+01
  -1.068448e+02   7.330899e+01
  -1.429832e+02  -6.809556e+00
  -1.217755e+01  -5.726428e+01
   6.604694e+01  -1.966476e+01
   6.677557e+01   1.332382e+01
  -6.660284e+00   9.833909e+01
  -6.290904e+01   7.003137e+01
  -3.874419e+01   2.314011e+00
  -3.315356e+01  -4.980235e+01
  -3.070008e+01  -3.669346e+01
  -5.148970e+01   2.036893e+00
  -6.181943e+01  -1.611891e+00
  -3.946516e+01  -8.095292e+01
   3.577495e+01  -1.456811e+02
   1.152008e+02  -1.403356e+02
   1.627356e+02  -2.838775e+01
   1.384499e+02   1.020094e+02
   1.009754e+01   1.392529e+02
  -9.418480e+01   6.972943e+01
  -6.209785e+01  -2.682860e+01
   4.898568e+01  -6.636494e+00
   1.279217e+02   3.837080e+01
   6.797546e+01   1.103703e+02
  -5.900891e+01   1.157927e+02
  -1.731962e+02   5.327357e+01
  -1.650692e+02  -2.454442e+01
  -4.981512e+01  -7.806875e+01
   5.672749e+01  -8.414812e+01
   4.884691e+01  -1.060017e+01
  -3.259934e+01   1.019129e+01
  -9.604396e+01   5.110263e-02
  -4.586122e+01  -1.147048e+02
   8.128285e+01  -1.637501e+02
   1.442638e+02  -7.415528e+01
   1.061298e+02   7.591226e+01
   2.741745e+01   1.884707e+02
  -7.473565e+01   1.504349e+02
  -1.084724e+02  -6.755895e+00
  -7.340842e+01  -1.299366e+02
   1.597671e+01  -9.066252e+01
   3.296045e+01  -1.849970e+01
   8.573808e+01   3.109249e+01
   3.544634e+01   1.968536e+01
  -1.147353e+01  -2.044873e+01
   5.614094e+01   1.809875e+01
   5.931877e+01   8.977415e+01
   3.964761e+01   1.027772e+02
  -4.586781e+01   2.932718e+01
  -1.246330e+02  -2.938134e+01
  -1.222724e+02  -6.010578e+01
  -1.386198e+01  -5.564385e+01
   7.652247e+01  -1.236532e+01
   7.865321e+01   2.269201e+01
   1.654302e+01   1.780008e+00
  -2.450727e+01   4.825494e+01
  -1.900410e+01   2.166322e+01
   3.043256e+01  -2.386346e+01
  -2.574766e+01  -2.432924e+01
  -3.317225e+01   2.222689e+00
  -7.156114e+01  -2.139727e+01
  -2.846140e+01  -7.372282e+01
   1.030500e+02  -1.025554e+02
   1.856002e+02  -6.760151e+01
   1.533406e+02   6.428081e+01
   3.060984e+01   1.422506e+02
  -8.236058e+01   1.665104e+02
  -1.065715e+02   4.196646e+01
  -9.188096e+01  -5.546899e+01
  -4.034383e+01  -2.182254e+01
   1.765504e+01  -2.350139e+01
   2.513285e+01  -1.759714e+01
  -7.232043e-01  -2.678351e+01
  -4.048003e+01  -5.648604e+01
   1.724240e+01  -5.059818e+01
   8.761081e+01  -5.883283e+00
   9.147074e+01   1.165973e+02
   1.400916e+01   1.243657e+02
  -1.084026e+02   1.408678e+01
  -1.004064e+02  -8.107840e+01
  -2.723147e+01  -9.956705e+01
   3.052518e+01  -6.880930e+01
   1.109840e+02   1.492402e+01
   5.629638e+01   3.086934e+01
  -4.628492e+01   3.203631e+01
  -4.777949e+01   2.878270e+01
   2.558660e+01   2.126031e+01
   5.359647e+01   4.315133e+00
   7.205106e+00   2.611870e+01
  -6.346258e+01   5.725815e+01
  -1.213018e+02   7.044337e+01
  -8.576726e+01  -1.784668e+01
   6.117864e-01  -9.765932e+01
   1.855428e+01  -9.155331e+01
   2.398001e+01  -1.958775e+01
   1.694202e+01   4.176059e+01
  -4.691436e+01   3.437969e+01
  -4.022190e+01  -4.097935e+01
  -3.848549e+01  -5.789010e+01
  -1.680869e+01  -3.367382e+01
   4.761620e+01  -2.063268e+00
   3.865044e+01   4.216036e+01
   2.116356e+01   2.083230e+01
  -2.100584e+00  -2.045024e+01
   6.966627e+00  -3.553746e+00
  -1.290508e+01   3.696922e+01
  -8.651680e+00   4.308107e+01
  -3.660060e+01   5.891801e+00
  -8.464026e+00  -3.371120e+01
  -2.920642e+01  -5.733778e+01
   3.024333e+01  -4.886457e+01
   4.863174e+01   1.453391e+00
   7.206670e+00   5.781503e+01
  -5.352297e+01   4.422966e+01
  -1.255077e+02  -9.493066e+00
  -5.102200e+01  -3.515811e+01
   2.746152e+01  -2.342989e+01
   5.791245e+01  -2.989956e+01
   1.497023e+01  -5.494378e+00
  -5.438129e+01  -1.119148e+00
  -3.674159e+01   1.157711e+01
   3.464570e+01  -4.566914e+01
   7.212839e+01  -2.870555e+01
