
 $NMID
 id='ANONYMOUS ', fmtdat='(2E16.6)'
 volume=1.0
 tramp=1.0
 $END
  -3.703163e+03  -3.396538e+01
  -2.126041e+03  -2.258383e+03
   4.056968e+02  -2.086115e+03
   1.474489e+03  -9.093523e+02
   7.721654e+02   2.154582e+02
  -3.911859e+02   2.491026e+02
  -5.552711e+02  -2.678029e+02
   8.667819e+01  -7.585981e+02
   6.431267e+02  -6.157809e+02
   7.382851e+02   3.296531e+01
   3.872499e+02   6.415163e+02
  -1.092416e+02   6.909444e+02
  -4.235671e+02   9.657505e+01
  -2.741179e+02  -5.645767e+02
   2.027148e+02  -5.813032e+02
   4.984966e+02  -7.307786e+00
   2.536737e+02   5.498573e+02
  -2.103668e+02   5.626969e+02
  -5.072257e+02   1.721191e+02
  -3.811188e+02  -1.997974e+02
  -6.973343e+01  -3.473882e+02
   1.816355e+02  -2.306631e+02
   1.550924e+02  -3.118622e+01
  -1.430428e+02  -1.806988e+01
  -3.358007e+02  -1.760516e+02
  -4.770579e+01  -4.027510e+02
   4.453716e+02  -2.665492e+02
   6.824530e+02   1.999811e+02
   2.965738e+02   4.836827e+02
  -3.595364e+02   3.270668e+02
  -6.250193e+02  -1.038609e+02
  -2.457561e+02  -4.231238e+02
   2.839866e+02  -4.296984e+02
   5.167044e+02  -1.546690e+02
   3.435121e+02   2.047150e+02
   3.158611e+01   3.349673e+02
  -1.289234e+02   1.135141e+02
  -8.849368e+01  -1.483895e+02
   1.877229e+02  -2.958964e+02
   3.337643e+02   9.564037e+01
   8.548055e+01   5.521524e+02
  -2.991660e+02   5.347358e+02
  -4.396443e+02  -6.668711e+01
  -2.191081e+02  -3.701759e+02
   2.281941e+02  -2.029347e+02
   2.476871e+02   3.102274e+02
  -1.325072e+02   4.239151e+02
  -4.669685e+02   7.989511e+01
  -4.941698e+02  -3.830439e+02
  -1.351452e+02  -4.883138e+02
   3.207237e+02  -2.787143e+02
   5.414695e+02   8.152961e+01
   3.588932e+02   2.910527e+02
  -9.411431e+01   2.744388e+02
  -3.139162e+02   1.655012e+01
  -2.040543e+02  -9.357678e+01
   4.266894e+01  -4.569196e+01
   5.996714e+01   1.133003e+02
  -1.216851e+02   9.943416e+01
  -2.641558e+02  -5.062357e+01
  -1.045201e+02  -2.213391e+02
   1.540336e+02  -2.001267e+02
   3.148246e+02  -8.791857e+01
   1.985402e+02   8.086105e+01
  -2.767620e+01   2.597449e+02
  -2.204848e+02   3.468128e+02
  -3.644159e+02   1.621229e+02
  -2.404744e+02  -1.478372e+02
  -6.241210e+01  -3.478870e+02
   9.351586e+01  -3.283735e+02
   8.345147e+01  -1.623125e+02
   1.017698e+01  -8.012930e+01
   7.482445e+01  -9.378702e+01
   1.893311e+02  -5.301459e+01
   2.599315e+02   6.499905e+01
   1.062684e+02   2.334227e+02
  -9.504967e+01   2.274247e+02
  -2.204787e+02  -4.379986e+01
  -1.485012e+02  -2.444658e+02
   2.653260e+01  -2.889516e+02
   2.541111e+02  -9.452682e+01
   3.193808e+02   1.659745e+02
   1.721618e+02   3.179797e+02
  -8.198076e+01   2.572336e+02
  -1.616460e+02   1.517797e+02
  -9.589165e+01   3.458869e+01
  -1.251482e+02   6.797598e+01
  -2.545699e+02   4.547559e+01
  -3.948582e+02  -9.993662e+01
  -2.736685e+02  -2.890998e+02
   1.080739e+01  -3.927425e+02
   3.725107e+02  -3.504873e+02
   4.969901e+02  -1.478237e+02
   2.951515e+02   1.051035e+02
   5.469551e+01   2.430647e+02
  -1.128873e+02   2.153650e+02
  -5.176696e+01   3.310221e+01
   9.670281e+01  -3.136206e+01
   1.371399e+02   4.847755e+01
   1.894687e+01   1.288362e+02
  -1.203844e+02   1.096159e+02
  -1.204269e+02  -7.640949e+01
   1.620020e+01  -1.302682e+02
   1.797232e+02  -5.382914e+00
   1.734654e+02   2.387068e+02
  -6.996156e+01   3.296618e+02
  -2.568302e+02   1.803033e+02
  -3.298634e+02  -6.644147e+01
  -2.500492e+02  -2.393634e+02
  -6.549576e+01  -2.546935e+02
   8.902139e+01  -1.494738e+02
   1.328813e+02  -2.393291e+01
   5.787756e+01   2.181181e+01
  -5.399488e+01  -3.237649e+01
  -1.103923e+01  -9.727121e+01
   1.193018e+02  -8.953662e+01
   1.584810e+02   3.649663e+01
   2.953665e+01   5.151374e+01
  -5.182592e+01   1.037698e+01
  -5.086433e+01  -5.593128e+01
   1.415890e+02  -8.192123e+01
   2.766541e+02  -1.154508e+01
   2.518533e+02   1.228460e+02
   4.465924e+01   2.745560e+02
  -1.831378e+02   2.407138e+02
  -2.571732e+02   7.266465e+01
  -1.227577e+02  -4.504915e+01
   5.394804e+01  -8.273830e+01
   5.630986e+01   5.365032e+00
  -5.575152e+01   9.452376e+01
  -1.786584e+02   5.349486e+01
  -1.891575e+02  -1.194102e+02
  -4.986504e+01  -2.051306e+02
   8.521745e+01  -1.447025e+02
   1.313470e+02  -7.240650e+00
   5.024286e+01   5.542903e+01
  -5.373766e+01  -1.652683e+01
  -4.766157e+01  -9.686731e+01
   7.160127e+01  -1.229606e+02
   1.849178e+02  -3.482571e+01
   1.619525e+02   1.256747e+02
   2.540056e+01   1.665623e+02
  -1.477115e+02   1.559781e+02
  -1.934832e+02   1.084216e+01
  -5.683173e+01  -1.049872e+02
   5.561462e+01  -7.497007e+01
   7.253378e+01  -1.447087e+01
   1.348511e+00   1.753944e+01
  -2.916344e+01   3.199903e+00
  -8.492390e+00  -1.867227e+01
   6.122004e+01  -1.341568e+01
   8.346718e+01   7.534832e+01
   1.150572e+01   1.513226e+02
  -1.191997e+02   1.218418e+02
  -2.237837e+02   2.013081e+01
  -2.152661e+02  -1.312515e+02
  -2.140657e+01  -2.026016e+02
   1.024680e+02  -1.538013e+02
   1.344823e+02  -2.716920e+01
   8.699413e+01   3.680798e+01
   2.237795e+01   3.699561e+01
   7.070254e+01  -1.372443e+01
   7.915356e+01   1.442748e+01
   7.005598e+01   8.962580e+01
  -3.649244e+01   9.966146e+01
  -1.062656e+02   6.128003e+01
  -8.472664e+01  -4.639647e+01
   3.232312e+01  -1.225190e+02
   1.473717e+02  -6.404187e+01
   1.766255e+02   5.569913e+01
   6.390527e+01   2.151760e+02
  -1.072236e+02   1.793437e+02
  -2.470820e+02   6.061534e+01
  -2.141097e+02  -4.665514e+01
  -8.280304e+01  -1.527278e+02
   4.310132e+01  -1.248338e+02
   6.587221e+01  -6.727254e+01
   7.961483e+01  -7.603232e+01
   3.365666e+01  -8.982445e+01
   8.376695e+01  -8.254116e+01
   1.142294e+02   3.105701e+01
   1.169469e+02   1.397924e+02
   9.295200e+00   2.099539e+02
  -9.579566e+01   1.668607e+02
  -1.688662e+02  -1.170620e+01
  -1.050326e+02  -1.010283e+02
  -9.450839e+00  -1.489193e+02
   7.310823e+01  -1.035420e+02
   5.813846e+01  -2.003705e+00
  -1.304624e+01   4.742685e+01
  -2.131946e+00   4.106593e+01
   3.445245e+01  -5.264327e+00
   8.439443e+01   1.879462e+01
   5.822051e+01   4.354655e+01
  -7.707664e+01   2.239954e+01
  -1.704097e+02   1.252226e+01
  -1.458354e+02  -4.826671e+01
   9.947409e+00  -9.062306e+01
   1.027340e+02  -4.090554e+01
   1.289740e+02  -3.199941e+00
   5.330965e+01   3.537295e+01
  -5.005154e+01   4.993678e+01
  -3.034207e+01  -2.841659e+01
   4.607756e+00  -7.072783e+01
   2.323960e+01  -6.017162e+01
   4.388821e+01   2.321223e+01
   5.562319e+01   5.680313e+01
   6.341001e+01   3.361066e+01
   4.607903e+01   1.349406e+01
   5.341815e+01   1.963893e+01
   3.304390e+01   8.841258e+01
  -4.915468e+01   1.476338e+02
  -1.421245e+02   1.201129e+02
  -1.615223e+02   2.819049e+01
  -1.248645e+02  -8.563148e+01
  -2.613906e+01  -1.407045e+02
   7.955538e+01  -6.009723e+01
   5.236765e+01   5.869822e+00
  -6.899136e+01   1.568476e+01
  -1.047456e+02  -2.923325e+01
  -6.667948e+01  -9.447006e+01
   6.097442e+01  -1.018516e+02
   1.791225e+02  -2.543212e+01
   1.548192e+02   3.585875e+01
   1.664146e+01   4.688300e+01
  -5.436782e+01   7.148627e+01
  -6.354391e+01   5.694359e-01
   4.532815e+01  -2.944369e+01
   8.826434e+01   2.020082e+01
   2.178795e+01   1.238814e+02
  -8.220874e+01   1.255378e+02
  -1.270704e+02   4.229154e+01
  -1.085542e+02  -8.908082e+01
  -1.793280e+01  -1.607843e+02
   6.581369e+01  -1.242325e+02
   1.131873e+02   1.913666e+01
   6.061136e+01   1.026985e+02
  -1.282144e+01   6.853086e+01
  -4.438764e+01   3.772272e+01
  -3.205956e+01  -4.663593e+01
  -2.380847e+01  -6.855961e+00
  -1.710522e+01   1.968822e+01
   5.815219e+00   1.856565e+01
  -6.591836e+01  -8.479726e+01
  -3.072930e+01  -9.006213e+01
   3.991318e+01  -4.042455e+01
   1.238488e+02   4.371998e+01
   1.261269e+02   5.525647e+01
   2.501686e+01   4.987256e+01
  -6.611931e+01   3.358101e+01
  -9.500335e+01  -1.649275e+00
  -1.641025e+01  -3.102210e+01
   4.223733e+01  -5.903458e+01
   3.294466e+01  -8.027254e+00
  -6.561585e+01  -6.143088e+00
   2.065847e+00  -6.979783e+00
   6.873863e+01  -7.806862e+00
   5.787294e+01   3.977836e+01
   2.639671e+01   7.148223e+01
  -9.893464e+01   1.063430e+02
  -1.605163e+02   4.949240e+01
  -1.600179e+02  -5.950238e+01
  -2.498164e+01  -1.366597e+02
   8.160670e+01  -1.451702e+02
   1.257061e+02  -5.626589e+01
   6.282585e+01   2.115244e+01
   9.678474e+00   6.425413e+01
  -2.169271e+01   7.915186e+00
   4.429555e+01   1.451265e+01
   4.138362e+01   5.271862e+01
   2.344501e+01   1.014548e+02
  -2.710019e+01   6.015945e+01
  -5.217728e+01  -1.771592e+00
  -6.076469e+01  -1.178741e+02
  -2.290578e+01  -1.204446e+02
   7.259766e+01  -3.578285e+01
   9.528240e+01   6.051377e+01
   3.277133e+01   1.016414e+02
  -8.543101e+01   4.412935e+01
  -8.855379e+01  -2.832392e+01
  -3.549009e+01  -4.510717e+01
   6.062109e+01  -5.621835e+01
   9.866986e+00   5.804734e+00
  -4.189435e+00   2.391119e+01
  -7.131398e+01  -2.720747e-01
   6.539859e+00   4.974626e+00
   8.489425e+01  -5.068442e+01
   1.103488e+02  -2.850298e+01
   3.163533e+01  -1.245985e+01
  -1.306034e+01   9.783028e+01
  -3.951533e+01   3.983678e+01
  -2.821762e+01   1.719800e+01
   9.171850e+00  -6.104911e+01
   3.846757e+01  -3.313747e+01
   1.313301e+01   1.687304e+01
   2.521674e+01   5.978752e+01
  -1.954583e+01   2.151402e+01
  -2.667584e+01   8.502230e-01
  -2.370381e+01  -3.092831e+01
  -3.001038e+01   1.977800e+01
   1.737258e+00   2.275561e+01
  -1.454792e+01   1.419345e+00
   1.356213e+01  -3.530865e+01
   6.841521e+00  -5.652653e+01
   1.749886e+01  -1.146659e+01
   3.895081e+01   4.529306e+01
   1.273093e+01   3.084668e+01
  -3.157875e+01   1.160541e+01
  -4.845111e+01  -2.809935e+01
  -2.751450e+01  -5.403918e+01
   6.653639e+01  -3.361185e+01
   8.632161e+01   8.731098e+00
   5.776408e+01   6.258359e+01
  -2.046608e+01   5.200855e+01
  -6.884947e+01   3.757654e+01
   9.692956e+00   1.877763e+01
   3.265491e+01  -2.251730e+01
   1.974577e+01  -1.209427e+00
  -3.472369e+01   7.666271e+00
  -4.744367e+01   9.049768e+00
