
 $NMID
 id='ANONYMOUS ', fmtdat='(2E16.6)'
 volume=1.0
 tramp=1.0
 $END
   3.467568e+03   7.614964e+01
   2.151716e+03   1.891674e+03
  -2.274945e+02   2.193650e+03
  -1.372923e+03   9.553613e+02
  -8.669708e+02   5.401223e+01
   3.199189e+01  -3.244504e+02
   4.696645e+02   7.992059e+01
   6.263500e+01   6.947296e+02
  -4.102915e+02   6.188889e+02
  -6.956789e+02   5.732503e+01
  -4.412000e+02  -5.485664e+02
  -2.169883e+00  -6.954938e+02
   3.514083e+02  -2.183811e+02
   3.239240e+02   4.217140e+02
  -1.299529e+02   5.804169e+02
  -4.330205e+02   9.051854e+01
  -3.077884e+02  -5.024503e+02
   1.533553e+02  -6.075526e+02
   4.831213e+02  -2.453258e+02
   4.864967e+02   1.612034e+02
   1.126235e+02   3.800941e+02
  -1.778947e+02   2.567828e+02
  -1.158679e+02   6.879949e+01
   1.131209e+02   4.221760e+01
   2.984293e+02   1.957068e+02
   1.892860e+01   3.906635e+02
  -4.252877e+02   2.209209e+02
  -6.509847e+02  -1.524198e+02
  -3.049443e+02  -4.175656e+02
   3.246883e+02  -2.968324e+02
   5.631444e+02   8.445414e+01
   2.448430e+02   4.033647e+02
  -2.318909e+02   3.897581e+02
  -4.385097e+02   1.645624e+02
  -3.376814e+02  -1.601021e+02
  -1.122642e+02  -3.386810e+02
   3.562655e+01  -2.143078e+02
   5.942825e+01   1.255169e+02
  -1.181038e+02   2.452670e+02
  -2.817324e+02  -8.683140e+01
  -7.659583e+01  -5.048214e+02
   2.636031e+02  -4.782525e+02
   4.055296e+02   9.871159e+00
   1.864848e+02   3.527609e+02
  -1.817335e+02   1.725507e+02
  -2.408117e+02  -2.604192e+02
   8.143231e+01  -3.875177e+02
   3.782499e+02  -1.433350e+02
   4.863136e+02   3.588917e+02
   1.765364e+02   4.908471e+02
  -3.383140e+02   3.058338e+02
  -5.262468e+02  -3.145105e+01
  -3.539717e+02  -2.669179e+02
   7.270390e+01  -2.832458e+02
   3.115058e+02  -5.310969e+01
   2.208957e+02   6.216867e+01
  -1.995275e+01   5.893197e+01
  -5.913139e+01  -6.602615e+01
   1.359231e+02  -1.185012e+02
   2.546126e+02   3.690752e+01
   1.364866e+02   2.027822e+02
  -1.415704e+02   2.114792e+02
  -3.257456e+02   1.041071e+02
  -2.599891e+02  -1.017058e+02
   2.375106e+01  -2.918130e+02
   2.495405e+02  -3.362014e+02
   3.329088e+02  -1.458488e+02
   2.452556e+02   1.188972e+02
   9.855642e+01   3.518572e+02
  -4.198492e+01   3.024188e+02
  -1.050929e+02   1.283988e+02
  -4.935708e+01   9.024247e+01
  -1.137400e+02   4.876029e+01
  -2.044043e+02   5.093097e+01
  -2.475580e+02  -5.688092e+01
  -9.275760e+01  -2.061267e+02
   7.865183e+01  -2.354440e+02
   1.719463e+02   1.387643e+01
   1.429110e+02   2.020615e+02
  -2.412517e+01   2.553843e+02
  -2.348473e+02   7.363253e+01
  -2.859721e+02  -1.553087e+02
  -1.607795e+02  -2.900184e+02
   4.319555e+01  -2.659756e+02
   1.851681e+02  -1.345542e+02
   1.200670e+02  -8.628604e+01
   1.324905e+02  -6.581584e+01
   2.524412e+02  -2.837398e+01
   3.751696e+02   8.896639e+01
   2.906633e+02   2.677564e+02
  -8.702949e+00   4.157105e+02
  -3.318456e+02   3.779403e+02
  -4.408870e+02   1.494976e+02
  -2.819354e+02  -8.819163e+01
  -5.091370e+01  -2.522326e+02
   1.052478e+02  -1.998785e+02
  -9.970833e+00  -7.282829e+01
  -7.293710e+01   5.865630e+01
  -1.214751e+02  -3.651737e+01
  -1.837641e+01  -1.376732e+02
   1.383033e+02  -1.011968e+02
   1.065638e+02   5.571534e+01
  -2.521874e+01   1.492429e+02
  -1.742916e+02  -7.278821e+00
  -1.492410e+02  -2.299580e+02
   4.847448e+01  -3.118034e+02
   2.245182e+02  -1.896609e+02
   3.134804e+02   5.262655e+01
   2.532723e+02   2.574567e+02
   5.579418e+01   2.673939e+02
  -8.741187e+01   1.527261e+02
  -1.307375e+02   3.869665e+00
  -6.473674e+01  -9.627168e+00
   3.450237e+01   4.654920e+01
   6.289531e+00   9.254241e+01
  -1.314233e+02   8.792513e+01
  -1.327217e+02  -1.601543e+01
  -5.422193e+01  -6.456134e+01
   6.279429e+01   2.729925e+00
   4.152261e+01   7.611241e+01
  -1.289333e+02   8.024182e+01
  -2.588438e+02  -1.295051e+01
  -2.412670e+02  -1.337755e+02
  -2.451016e+01  -2.236030e+02
   1.927736e+02  -2.307201e+02
   2.710572e+02  -9.241613e+01
   1.583482e+02   4.249019e+01
  -4.102056e+01   7.286135e+01
  -7.526699e+01  -1.936395e+01
   2.675142e+01  -1.245127e+02
   1.609320e+02  -4.238300e+01
   1.875551e+02   9.689953e+01
   6.415231e+01   1.875239e+02
  -8.208379e+01   1.416024e+02
  -1.163318e+02   1.161887e+01
  -3.965404e+01  -3.394261e+01
   4.997990e+01   2.042821e+00
   6.258823e+01   9.826127e+01
  -6.930923e+01   1.275422e+02
  -1.845678e+02   7.346919e+00
  -1.551738e+02  -1.209630e+02
  -1.319558e+01  -1.739822e+02
   1.236183e+02  -1.424427e+02
   1.784095e+02  -1.327740e+01
   6.918880e+01   1.112482e+02
  -9.360867e+01   8.432759e+01
  -6.866097e+01   3.132013e+01
   3.940090e+00  -3.231490e+01
   1.467008e+01  -3.093425e+01
  -1.456216e+01   3.177457e+01
  -8.112271e+01  -1.861730e+01
  -9.325628e+01  -8.356575e+01
  -2.375049e+00  -1.698361e+02
   1.401865e+02  -1.285923e+02
   2.294848e+02  -5.307428e+00
   1.881313e+02   1.430177e+02
   3.983314e+01   2.158547e+02
  -8.291999e+01   1.467829e+02
  -1.135875e+02   2.291765e+01
  -8.056920e+01  -5.270587e+01
  -3.927021e+01  -4.617927e+01
  -5.680412e+01  -1.372463e+01
  -9.370385e+01  -1.202996e+01
  -5.429524e+01  -4.013559e+01
   5.080827e+01  -7.961866e+01
   1.208793e+02  -3.964194e+01
   7.926427e+01   6.116414e+01
  -1.030252e+01   1.356987e+02
  -1.505610e+02   7.795367e+01
  -1.826367e+02  -6.408398e+01
  -7.536742e+01  -1.975431e+02
   9.034350e+01  -1.944756e+02
   2.482241e+02  -9.634322e+01
   2.121370e+02   8.120391e+01
   9.716458e+01   1.354482e+02
  -4.071030e+01   1.344860e+02
  -8.684660e+01   7.131340e+01
  -9.098261e+01   7.841660e+01
  -7.106880e+01   7.533228e+01
  -6.116812e+01   4.117234e+01
  -1.128299e+02  -4.055458e+01
  -1.029805e+02  -1.332358e+02
  -1.503685e+01  -1.981966e+02
   1.015608e+02  -1.611050e+02
   1.557887e+02  -2.100152e+01
   1.349073e+02   1.006029e+02
   3.723322e+01   1.325024e+02
  -7.476623e+01   1.220984e+02
  -8.362452e+01  -7.100857e+00
  -1.503331e+01  -4.070988e+01
   2.752814e+01  -3.078574e+01
   4.278520e+00  -2.699668e+01
  -8.710644e+01  -3.371818e+01
  -3.858865e+01  -2.674449e+01
   5.327502e+01  -1.772927e+01
   1.635841e+02  -4.602631e+00
   1.044377e+02   5.161972e+01
   1.200127e+01   9.374937e+01
  -1.130062e+02   6.116395e+01
  -1.224702e+02  -2.447683e+01
  -4.386710e+01  -6.602857e+01
   4.242896e+01  -2.878729e+01
   5.451886e+01   2.182086e+01
   2.653355e+01   7.832379e+01
  -1.916542e+01   6.840778e+01
  -6.449957e+01   4.930868e+00
  -6.726682e+01  -4.478292e+01
  -6.186335e+01  -5.966539e+01
  -4.698704e+01  -1.876967e+01
  -6.114345e+01   1.593640e+01
  -3.435769e+01  -5.525085e+01
   5.407510e+01  -1.437647e+02
   1.284762e+02  -1.317630e+02
   2.115364e+02  -5.087410e+01
   1.199621e+02   1.002636e+02
   6.145140e+00   1.393406e+02
  -1.152410e+02   3.748139e+01
  -5.383224e+01  -2.558012e+01
   5.116472e+01  -2.947217e+01
   1.216707e+02   2.489952e+01
   8.350059e+01   8.605152e+01
  -7.775984e+01   6.624270e+01
  -1.825249e+02   5.090350e+01
  -1.653613e+02  -4.938521e+01
  -1.820031e+01  -6.590057e+01
   4.612149e+01  -6.132385e+01
   4.263722e+01   1.799946e+00
  -3.231533e+01   5.488278e+01
  -1.098299e+02  -2.364302e+01
  -4.233597e+01  -1.158068e+02
   6.990919e+01  -1.574859e+02
   1.663520e+02  -5.358034e+01
   1.391799e+02   8.159939e+01
   4.162934e+01   1.715448e+02
  -8.823388e+01   1.387851e+02
  -1.024849e+02  -3.537069e+01
  -4.651873e+01  -1.169493e+02
   2.062545e+01  -9.246153e+01
   6.794262e+01   6.162909e+00
   3.713075e+01   2.338013e+01
   3.432975e+01   1.868111e+01
   4.576159e+00  -6.863850e+00
  -1.647178e+00  -1.377894e+01
   4.423196e+01   9.845025e+01
   2.868224e+01   9.446404e+01
  -6.610016e+01   4.391208e+01
  -1.252283e+02   2.894548e+00
  -1.285292e+02  -6.162855e+01
  -2.632151e+01  -3.893021e+01
   9.119908e+01  -3.108172e+01
   9.508036e+01  -1.343749e+01
   2.335721e+01   1.637744e+01
  -3.842008e+01   3.244872e+01
  -2.178488e+01   3.319640e+01
   2.696564e+01  -2.467670e+00
  -9.490834e+00  -1.655927e+01
  -6.625459e+01  -2.982422e+01
  -4.633577e+01  -1.676922e+01
  -5.421804e+00  -5.554369e+01
   8.863713e+01  -1.165527e+02
   1.939004e+02  -5.107535e+01
   1.291157e+02   8.001111e+01
   5.561307e+01   1.478891e+02
  -6.630934e+01   1.528111e+02
  -1.097575e+02   4.657453e+01
  -7.669624e+01  -6.736545e+00
   1.359809e+01  -4.847840e+01
  -2.725939e+00  -1.491507e+01
  -2.208565e+01   1.017275e+01
  -1.772750e+01  -2.423843e+01
  -7.580246e+00  -6.639861e+01
   2.961044e+01  -4.498425e+01
   8.021060e+01   4.581230e+01
   6.778944e+01   1.047232e+02
   1.426965e+01   1.011295e+02
  -5.307730e+01   2.856529e+01
  -8.768538e+01  -4.984591e+01
  -3.211283e+01  -7.789518e+01
   7.783856e+01  -5.675951e+01
   1.033269e+02   2.336478e+00
   5.636492e+01   3.640024e+01
  -8.769255e+00   4.674193e+01
  -3.379145e+00   1.013231e+01
   3.041225e+01   2.892497e+00
   6.502159e+01   1.935326e+00
   8.073470e-01   9.450125e+00
  -6.927459e+01   1.750340e+01
  -1.083379e+02   2.192807e+01
  -5.742226e+01   3.448273e+00
   1.912399e+01  -7.962269e+01
   2.843296e+01  -5.921485e+01
   3.892276e+01  -2.122632e+01
   4.517658e+00   5.128651e+01
  -3.189066e+01   3.457805e+01
  -3.239170e+01   2.640867e+00
  -4.349001e+01  -5.555514e+01
  -1.594642e+01  -2.556047e+01
   3.377042e+01  -3.218445e+00
   2.588291e+01   3.854791e+01
   3.035958e+01   4.341834e+00
   2.327320e+01  -4.039552e+01
   1.228224e+01  -3.068209e+00
  -6.673691e-01   1.364219e+01
  -1.121087e+00   4.156829e+01
  -3.830065e+01   1.434120e+01
  -5.628148e+01  -5.092994e+01
  -1.226260e+01  -5.363980e+01
   6.075315e+00  -1.131037e+01
   5.360460e+01   2.992677e+01
   3.217646e+01   6.151022e+01
  -4.996455e+01   3.099099e+01
  -1.083771e+02  -1.250716e+01
  -3.481062e+01  -4.681135e+01
   3.013649e+01  -4.801543e+01
   4.666130e+01  -4.078527e+01
   2.198019e+01   8.864439e+00
  -5.962804e+01  -9.673755e+00
  -1.380633e+01  -2.619800e+00
   2.826768e+01  -6.295991e+00
   4.564334e+01  -1.473584e+01
