
 $NMID
 id='ANONYMOUS ', fmtdat='(2E16.6)'
 volume=1.0
 tramp=1.0
 $END
  -3.848502e+03   5.790529e+01
  -2.415434e+03  -2.089480e+03
   1.470509e+02  -2.516221e+03
   1.763169e+03  -1.198292e+03
   9.370111e+02   2.225062e+02
  -3.687724e+02   3.862711e+02
  -6.236012e+02  -3.674752e+02
  -3.886450e+01  -8.146161e+02
   6.905824e+02  -6.610025e+02
   8.095463e+02   3.356124e+01
   4.859289e+02   7.221027e+02
  -1.431719e+02   7.270135e+02
  -4.507398e+02   1.989725e+02
  -3.243487e+02  -6.052755e+02
   1.837593e+02  -6.302842e+02
   5.344552e+02  -4.378851e+01
   3.371355e+02   5.710994e+02
  -2.017030e+02   6.853940e+02
  -5.507164e+02   1.964768e+02
  -4.184595e+02  -2.639528e+02
  -6.735094e+01  -3.998455e+02
   2.005555e+02  -2.223085e+02
   1.592437e+02  -3.238933e+01
  -1.729951e+02   6.076935e+01
  -3.451779e+02  -1.721242e+02
  -1.545324e+02  -3.529796e+02
   4.936395e+02  -3.318731e+02
   7.546479e+02   9.056711e+01
   3.309044e+02   4.581260e+02
  -3.543904e+02   3.145623e+02
  -6.176823e+02  -1.120051e+02
  -2.887768e+02  -4.332016e+02
   2.721079e+02  -4.420925e+02
   5.282777e+02  -1.583972e+02
   3.568767e+02   1.883795e+02
   1.086215e+02   3.982899e+02
  -9.075302e+01   2.198231e+02
  -7.816436e+01  -1.446878e+02
   1.682662e+02  -2.990321e+02
   3.644854e+02   9.238874e+01
   9.858614e+01   5.862213e+02
  -2.923662e+02   6.151476e+02
  -5.234777e+02   3.435850e+01
  -2.260799e+02  -4.720197e+02
   2.360223e+02  -2.438075e+02
   3.289016e+02   3.088947e+02
  -7.757047e+01   4.839726e+02
  -5.119058e+02   1.362734e+02
  -5.785091e+02  -3.799103e+02
  -1.729060e+02  -5.641411e+02
   3.603918e+02  -2.850987e+02
   5.689793e+02   3.691828e+01
   3.601647e+02   3.181101e+02
  -1.084337e+02   3.159770e+02
  -3.921892e+02   8.420756e+01
  -2.705114e+02  -1.032227e+02
   5.252987e+01  -1.192275e+02
   1.132557e+02   1.139535e+02
  -1.310805e+02   1.197190e+02
  -3.162550e+02  -3.436579e+01
  -1.617454e+02  -2.321643e+02
   1.795647e+02  -2.784388e+02
   3.544233e+02  -9.992815e+01
   2.547209e+02   1.201908e+02
  -1.542938e+00   3.107079e+02
  -2.600416e+02   3.545059e+02
  -3.680062e+02   1.570274e+02
  -2.694119e+02  -1.669966e+02
  -8.711922e+01  -3.630843e+02
   7.281924e+01  -3.311498e+02
   2.838834e+01  -1.173046e+02
   5.239326e+01  -3.146026e+01
   7.143219e+01  -1.290802e+02
   2.401205e+02  -9.158777e+01
   2.623599e+02   6.546288e+01
   1.604844e+02   2.969409e+02
  -7.029349e+01   2.515009e+02
  -2.149034e+02   1.097637e+01
  -2.028790e+02  -2.323869e+02
   5.564238e+01  -3.170334e+02
   2.705019e+02  -1.004733e+02
   3.427305e+02   1.640491e+02
   1.979804e+02   3.264421e+02
  -5.995392e+01   2.657090e+02
  -2.110241e+02   1.729279e+02
  -1.579459e+02   3.203399e+01
  -1.258326e+02   5.545046e+01
  -2.485931e+02   6.644602e+01
  -4.129729e+02  -4.601891e+01
  -3.305333e+02  -2.551962e+02
   1.938288e+01  -4.530916e+02
   3.877469e+02  -4.280607e+02
   4.654639e+02  -1.763999e+02
   3.130530e+02   8.421797e+01
   2.709082e+01   2.670110e+02
  -1.220926e+02   1.938427e+02
  -5.266253e+01   2.852497e+01
   1.208530e+02  -8.204067e+01
   1.525474e+02   1.611706e+01
   3.609106e+01   1.799122e+02
  -1.751901e+02   1.537357e+02
  -1.436984e+02  -2.973751e+01
  -9.669001e+00  -1.443782e+02
   1.779720e+02  -3.242983e+01
   1.638356e+02   2.543970e+02
  -1.218163e+01   3.729531e+02
  -2.347211e+02   1.911696e+02
  -3.661000e+02  -6.231804e+01
  -2.733334e+02  -2.345101e+02
  -1.140624e+02  -2.757447e+02
   1.248377e+02  -1.633410e+02
   1.703887e+02   1.984014e+00
   3.460430e+01   4.718671e+00
  -6.119471e+01  -6.537080e+01
  -4.226747e+01  -1.081185e+02
   1.231443e+02  -9.344424e+01
   1.379203e+02  -4.067160e+00
   5.824340e+01   6.533619e+01
  -8.087336e+01   7.682185e+00
  -7.716167e+01  -7.651929e+01
   1.088450e+02  -7.971466e+01
   3.061071e+02  -1.180936e+01
   2.593477e+02   1.611968e+02
   6.848781e+01   2.481727e+02
  -1.965722e+02   2.763357e+02
  -2.712700e+02   8.669465e+01
  -1.718980e+02  -7.555520e+01
   3.446098e+01  -1.039774e+02
   1.011425e+02   6.803229e+00
  -1.226237e+01   1.036914e+02
  -1.846867e+02   5.473000e+01
  -1.992065e+02  -8.869572e+01
  -8.251664e+01  -1.977599e+02
   8.018328e+01  -1.831256e+02
   1.432254e+02  -2.834380e+01
   5.229478e+01   6.097071e+01
  -5.604041e+01  -2.517062e+01
  -5.591608e+01  -1.222082e+02
   7.239568e+01  -1.388123e+02
   2.287226e+02  -2.236371e+01
   2.007104e+02   1.248360e+02
   1.260805e+01   2.494011e+02
  -1.691129e+02   1.628429e+02
  -1.962878e+02  -5.032605e+00
  -8.411931e+01  -1.145941e+02
   6.103554e+01  -1.198734e+02
   9.355618e+01  -4.263002e+01
   1.993808e+01   3.519594e+01
  -4.138816e+01   1.471298e+01
   1.332257e+01  -2.939225e+01
   8.880975e+01   1.621803e+01
   1.027175e+02   9.664216e+01
   1.724078e+01   1.928316e+02
  -1.138811e+02   1.681726e+02
  -2.453173e+02   1.930471e+01
  -1.911166e+02  -1.653117e+02
  -5.407659e+01  -2.568062e+02
   1.072125e+02  -1.613860e+02
   1.365868e+02  -1.121271e+01
   8.581936e+01   4.946390e+01
   5.583150e+01   5.569761e+01
   5.161815e+01   3.029750e+01
   6.905754e+01  -2.550387e+01
   2.675228e+01   6.541201e+01
  -5.584161e+01   8.924178e+01
  -9.183384e+01   7.119175e+01
  -6.216742e+01  -4.393609e+01
   3.006259e+01  -1.278412e+02
   1.523297e+02  -8.400774e+01
   1.908697e+02   7.333555e+01
   9.346334e+01   2.048076e+02
  -7.008965e+01   2.194215e+02
  -2.638796e+02   7.596045e+01
  -2.444924e+02  -9.860961e+01
  -1.027275e+02  -1.687398e+02
   3.696619e+01  -1.351662e+02
   9.956247e+01  -8.254518e+01
   9.273824e+01  -5.294626e+01
   7.390680e+01  -7.685033e+01
   9.261988e+01  -8.214832e+01
   1.124393e+02   6.874638e+00
   1.057721e+02   1.413793e+02
   5.910482e+00   2.166873e+02
  -5.702252e+01   1.559773e+02
  -1.398116e+02   1.955436e+01
  -1.030817e+02  -1.105685e+02
  -1.254788e+01  -1.734603e+02
   8.239089e+01  -8.095223e+01
   6.934835e+01   8.742639e+00
   4.833472e+00   4.661193e+01
  -1.587294e+01   4.157760e+01
   2.346399e+01   2.835325e+01
   7.704966e+01   1.477181e+01
   3.470543e+01   5.703997e+00
  -3.770408e+01   4.936543e+01
  -1.794869e+02  -2.566725e+01
  -1.608301e+02  -7.441925e+01
  -3.271934e+01  -1.090445e+02
   1.154522e+02  -7.267321e+01
   1.491311e+02   8.148534e+00
   4.827159e+01   3.355379e+01
  -4.566894e+01   4.583116e+01
  -8.476896e+01  -1.508241e+01
   7.358489e-01  -6.909641e+01
   6.202816e+01  -8.023548e+01
   6.192230e+01   3.426277e+01
   4.176791e+01   4.538276e+01
   2.402336e+01   1.121844e+00
   6.632311e+01  -1.580080e+01
   7.244344e+01  -9.753612e+00
   4.418961e+01   7.822096e+01
  -3.014019e+01   1.617235e+02
  -1.308704e+02   1.561383e+02
  -1.728765e+02   3.893315e+01
  -1.180028e+02  -7.633180e+01
  -1.438126e+01  -1.114727e+02
   9.030186e+01  -6.452198e+01
   8.084288e+01   2.502358e+01
  -7.245393e+01   2.596273e+01
  -1.357317e+02  -5.211403e+01
  -5.254110e+01  -1.160742e+02
   1.097618e+02  -1.072639e+02
   1.894391e+02  -3.608427e+01
   1.692678e+02   2.149086e+01
  -1.718216e+00   8.018075e+01
  -5.790540e+01   5.911015e+01
  -6.063171e+01  -1.440358e+01
   4.532864e+01  -2.793808e+01
   1.049419e+02   4.701877e+01
   4.516744e+01   1.340110e+02
  -1.015430e+02   1.231503e+02
  -1.504528e+02   7.272934e+01
  -1.334574e+02  -7.918615e+01
  -1.587132e+01  -1.935233e+02
   7.542287e+01  -1.242430e+02
   7.922613e+01   9.742825e+00
   5.971734e+01   9.151640e+01
  -2.233020e+01   9.788561e+01
  -4.946547e+01   6.991946e+00
  -6.877143e+01  -1.956743e+01
  -3.878856e+01   1.448671e+01
  -1.888306e+01   2.561536e+01
  -3.302391e+01  -5.767333e+00
  -5.095693e+01  -1.006612e+02
  -3.310357e+01  -1.116518e+02
   5.199412e+01  -5.610268e+01
   1.538196e+02   2.044420e+01
   1.398983e+02   7.607433e+01
   2.042392e+01   4.437794e+01
  -8.779831e+01   1.471144e+01
  -9.994159e+01   1.179288e+01
  -1.406455e+01   3.832781e+00
   3.987268e+01   4.078937e+00
   8.174545e+00  -1.926162e+01
  -1.745236e+01  -1.808344e+01
   9.370259e+00   5.051627e+00
   8.326323e+01  -1.016666e+01
   1.108100e+02   9.296137e+00
   2.060813e+00   9.216726e+01
  -1.061150e+02   1.171153e+02
  -1.934211e+02   9.065620e+01
  -1.606761e+02  -6.494676e+01
  -9.899523e+00  -1.614926e+02
   8.362954e+01  -1.581982e+02
   1.050136e+02  -7.053248e+01
   8.029123e+01   1.731603e+01
   2.783575e+01   2.005817e+01
   1.567294e+01  -5.675884e+00
   4.492541e+00  -2.400165e+01
   5.491886e+01   1.868001e+01
   3.184346e+01   8.107304e+01
  -4.122663e+01   7.312475e+01
  -6.914670e+01  -5.117862e+01
  -8.088181e+01  -9.699301e+01
  -8.688444e+00  -1.004016e+02
   8.136053e+01  -5.074744e+01
   1.166356e+02   8.033156e+01
   4.769423e+01   1.249512e+02
  -4.148987e+01   7.213050e+01
  -9.083921e+01  -1.243459e+01
  -6.727863e+01  -6.052361e+01
   4.125882e+01  -4.721924e+01
   4.882250e+01  -2.838327e+01
  -5.021196e+01   2.982843e+01
  -6.195090e+01   2.366438e+01
  -1.063569e+01  -2.678687e+01
   6.543407e+01  -9.811621e+01
   7.977442e+01  -5.496507e+01
   7.185251e+01  -1.457097e+00
  -2.659794e+01   6.780075e+01
  -3.469610e+01   8.406585e+01
  -4.664176e+01   2.288316e+01
  -3.501298e+01  -4.484936e+01
   1.111790e+01  -4.526246e+01
   4.274094e+01   1.924419e+01
   3.574002e+01   4.795360e+01
   2.907394e+00   5.947470e+01
  -2.683215e+01  -1.764738e+01
  -3.793866e+01  -2.333267e+01
  -4.223724e+01   1.531872e+01
  -2.729223e+00   2.166177e+01
   1.581170e+00  -1.208761e+01
   9.384930e+00  -3.151243e+01
   4.961308e+00  -7.586542e+01
   1.716447e+01  -4.501021e+00
   9.705777e+00   4.482716e+01
   1.797248e+01   4.486610e+01
  -3.727202e+01   5.158143e+01
  -6.619623e+01  -1.290376e+01
   2.973452e+00  -7.484922e+01
   3.634458e+01  -3.159287e+00
   7.244773e+01  -8.629599e+00
   6.493617e+01   5.361564e+01
  -1.840915e+01   3.007898e+01
  -6.290371e+01  -2.698263e+00
  -5.584451e+01   1.518191e+00
   2.806014e+01   2.195111e+01
   4.349964e+01   8.060873e+00
  -2.293549e+01   3.124724e+01
  -9.042995e+01   1.609015e+01
