
 $NMID
 id='ANONYMOUS ', fmtdat='(2E16.6)'
 volume=1.0
 tramp=1.0
 $END
  -3.970934e+03  -1.406529e+01
  -2.126421e+03  -2.494177e+03
   6.761736e+02  -2.437349e+03
   2.068270e+03  -7.917009e+02
   8.031475e+02   5.596248e+02
  -5.835281e+02   4.581233e+02
  -9.151436e+02  -4.175455e+02
   2.980873e+01  -1.027005e+03
   7.631295e+02  -7.458881e+02
   9.199776e+02   1.410632e+02
   3.607900e+02   8.428899e+02
  -2.994698e+02   8.623615e+02
  -6.163061e+02   7.158313e+01
  -2.999606e+02  -6.935003e+02
   2.621208e+02  -6.897000e+02
   6.020355e+02  -1.076132e+01
   2.948438e+02   6.685413e+02
  -3.561396e+02   6.885668e+02
  -5.806380e+02   1.236314e+02
  -3.976564e+02  -3.495735e+02
  -4.309013e+00  -3.868103e+02
   2.160574e+02  -2.006232e+02
   1.454056e+02   5.522940e+00
  -1.414517e+02   3.658024e+01
  -3.729175e+02  -1.578306e+02
  -1.143639e+02  -4.188206e+02
   4.472924e+02  -4.023492e+02
   8.321869e+02   1.056974e+02
   4.123679e+02   5.445057e+02
  -4.185958e+02   4.593311e+02
  -7.500938e+02  -8.346626e+01
  -3.172031e+02  -4.903661e+02
   2.661997e+02  -5.028404e+02
   5.633628e+02  -1.441158e+02
   3.780539e+02   2.661924e+02
   3.270568e+01   4.348280e+02
  -2.199780e+02   2.283367e+02
  -1.207261e+02  -1.921543e+02
   1.521646e+02  -3.806741e+02
   3.985625e+02   4.525252e+01
   1.639188e+02   6.674187e+02
  -3.057229e+02   6.723247e+02
  -5.557951e+02  -2.145663e+01
  -2.653688e+02  -4.916711e+02
   2.777984e+02  -3.095752e+02
   3.475854e+02   3.210089e+02
  -1.031287e+02   5.194826e+02
  -5.669104e+02   1.074288e+02
  -5.223947e+02  -4.258446e+02
  -1.502573e+02  -5.860514e+02
   3.843864e+02  -3.427775e+02
   5.852144e+02   1.002153e+02
   3.360911e+02   3.972429e+02
  -1.343477e+02   3.658790e+02
  -4.486953e+02   4.568762e+01
  -2.343869e+02  -1.534354e+02
   1.028594e+02  -8.847018e+01
   1.135136e+02   1.212848e+02
  -1.630572e+02   1.557183e+02
  -3.423453e+02  -7.624119e+01
  -1.564903e+02  -2.894163e+02
   2.004123e+02  -2.761219e+02
   3.467627e+02  -9.163064e+01
   2.050629e+02   1.339858e+02
  -4.081044e+01   2.589351e+02
  -2.412329e+02   3.121887e+02
  -3.665099e+02   2.113807e+02
  -2.597430e+02  -1.566608e+02
  -7.331515e+01  -3.933540e+02
   1.161911e+02  -3.210599e+02
   1.121847e+02  -1.254628e+02
   1.801904e+01  -2.373453e+01
   5.845530e+01  -1.243554e+02
   1.926434e+02  -1.424302e+02
   2.878115e+02   6.922263e+01
   1.290642e+02   2.809445e+02
  -7.620097e+01   2.377713e+02
  -2.155619e+02   3.164874e+01
  -1.920862e+02  -2.155420e+02
   1.549477e+01  -3.285007e+02
   2.658732e+02  -7.375119e+01
   3.627926e+02   1.685917e+02
   1.719981e+02   3.693249e+02
  -1.057169e+02   3.418442e+02
  -2.346168e+02   1.219679e+02
  -1.422853e+02   2.022050e+01
  -8.789227e+01   2.648486e+01
  -2.100443e+02   5.704020e+01
  -4.041651e+02  -5.138384e+01
  -3.480345e+02  -2.865011e+02
  -3.597192e+01  -4.491742e+02
   3.289237e+02  -4.121321e+02
   4.662536e+02  -2.150744e+02
   3.165705e+02   7.885094e+01
   3.738222e+01   2.894957e+02
  -1.289159e+02   2.502326e+02
  -1.061673e+02   5.850020e+01
   9.236813e+01  -9.899768e+01
   1.743726e+02  -1.278657e+00
   4.414919e+01   1.954339e+02
  -1.238186e+02   1.472195e+02
  -1.687802e+02  -3.674957e+01
   2.255437e+01  -1.746732e+02
   1.785185e+02  -4.826696e+01
   1.442310e+02   2.109866e+02
   8.217749e+00   3.647412e+02
  -2.444521e+02   2.013534e+02
  -3.271646e+02  -4.997272e+01
  -3.058807e+02  -2.549435e+02
  -1.117520e+02  -2.832988e+02
   1.097385e+02  -1.637614e+02
   1.882537e+02   2.861798e+01
   4.579872e+01   3.356044e+01
  -6.368313e+01  -1.840725e+01
   2.345108e+00  -1.315137e+02
   1.170304e+02  -1.291990e+02
   1.850267e+02  -2.085164e+01
   7.236029e+01   9.227350e+01
  -8.743671e+01   3.772054e+01
  -6.354777e+01  -8.986584e+01
   1.406666e+02  -8.626563e+01
   2.691711e+02   1.643958e+01
   2.707822e+02   1.281376e+02
   5.774902e+01   2.606584e+02
  -1.996643e+02   2.468233e+02
  -3.070194e+02   1.087144e+02
  -1.772917e+02  -7.217349e+01
   2.513686e+01  -1.248949e+02
   7.485295e+01  -1.963582e+01
  -1.612141e+01   9.720463e+01
  -2.037377e+02   2.894217e+01
  -2.199029e+02  -1.045101e+02
  -7.519768e+01  -2.279137e+02
   9.149250e+01  -1.601361e+02
   1.460698e+02  -3.343273e+01
   8.857273e+01   5.188069e+01
  -1.246937e+01   9.053655e+00
  -3.933260e+01  -8.688783e+01
   7.935270e+01  -1.188075e+02
   1.880784e+02  -4.682844e+01
   2.068862e+02   1.054414e+02
   1.068847e+01   2.445668e+02
  -1.644575e+02   1.740516e+02
  -1.994323e+02   3.651063e+00
  -5.518751e+01  -8.406089e+01
   9.716857e+01  -1.136927e+02
   7.801304e+01  -2.865619e+01
   9.825841e+00   3.992448e+01
  -1.774302e+01   3.558444e+01
   1.073952e+01  -6.118239e+00
   8.935695e+01   1.309430e+01
   1.005108e+02   7.928937e+01
   3.319674e+01   1.769917e+02
  -1.287388e+02   1.643112e+02
  -2.454106e+02   2.879030e+00
  -1.883813e+02  -1.686731e+02
  -5.015993e+01  -2.600230e+02
   1.254603e+02  -1.921589e+02
   1.650362e+02  -3.237524e+01
   5.337030e+01   5.734774e+01
   3.311482e+00   3.411244e+01
   5.930519e+01  -1.694809e+01
   5.749785e+01  -3.067990e+01
   5.825616e+01   3.773430e+01
  -2.977352e+01   9.278213e+01
  -8.539378e+01   2.305766e+01
  -1.292725e+02  -2.858932e+01
  -4.056060e+00  -1.020752e+02
   1.220596e+02  -8.796997e+01
   2.308571e+02   4.185871e+01
   1.163636e+02   1.934361e+02
  -1.086533e+02   2.080563e+02
  -2.580724e+02   8.131373e+01
  -2.542501e+02  -1.280996e+02
  -1.151018e+02  -1.902386e+02
   5.174711e+01  -1.566698e+02
   1.052376e+02  -1.068511e+02
   6.401966e+01  -8.515971e+01
   8.946351e+01  -8.494843e+01
   1.064165e+02  -6.716413e+01
   1.231086e+02   1.553394e+01
   1.235457e+02   1.493484e+02
   4.804288e+01   2.443465e+02
  -1.046283e+02   1.819646e+02
  -1.684710e+02   1.111355e+01
  -1.250351e+02  -1.422496e+02
  -7.285837e+00  -1.602370e+02
   9.628280e+01  -8.039842e+01
   5.746260e+01   8.977529e+00
   2.361566e+00   5.388340e+01
  -1.133097e+01   1.339947e+01
   2.370288e+01   4.374904e+01
   5.896189e+01   5.439688e+01
   6.132595e+01   5.778200e+01
  -5.683307e+01   2.583028e+01
  -1.500495e+02  -4.041675e-01
  -1.724424e+02  -4.322620e+01
  -4.382182e+00  -8.958606e+01
   1.231286e+02  -6.479280e+01
   1.323439e+02   6.622308e-02
   2.613811e+01   3.574693e+01
  -5.110455e+01   4.498059e+01
  -6.992860e+01  -4.227414e+01
  -1.468508e+01  -7.344106e+01
   3.496935e+01  -5.552683e+01
   3.811772e+01  -7.930141e+00
   3.056005e+01   3.549702e+01
   5.444080e+01   3.339865e+01
   5.949995e+01  -1.695863e+01
   5.770269e+01   3.569353e+00
   2.296298e+01   7.772007e+01
  -2.261076e+01   1.120379e+02
  -1.277099e+02   1.321429e+02
  -1.525475e+02   1.525476e+01
  -1.063892e+02  -8.288632e+01
  -1.504708e+01  -1.244935e+02
   6.745963e+01  -9.031123e+01
   8.040404e+01  -3.339989e+00
  -7.192371e+01   2.542119e+01
  -1.304012e+02  -2.195676e+01
  -4.848341e+01  -1.119269e+02
   6.833779e+01  -1.204208e+02
   1.691989e+02  -3.872145e+01
   1.734624e+02   4.762793e+01
   4.590933e+01   1.105595e+02
  -6.457689e+01   5.934996e+01
  -8.129049e+01   3.484538e+00
   4.761947e+01  -4.590323e+01
   7.854109e+01   2.703126e+01
   5.511649e+01   1.355818e+02
  -6.757649e+01   1.711936e+02
  -1.884733e+02   4.748152e+01
  -1.222841e+02  -8.295265e+01
  -5.101384e+00  -1.980653e+02
   1.061691e+02  -1.530359e+02
   1.081242e+02  -6.348634e+00
   8.082297e+01   1.180012e+02
  -1.984616e+01   1.009330e+02
  -5.765361e+01  -2.389921e+00
  -2.201668e+01  -7.415582e+00
  -1.139769e+01   2.627661e+00
   8.430511e+00   1.177635e+01
  -2.271899e+00  -1.834437e+00
  -4.449978e+01  -9.444845e+01
  -4.681427e+01  -9.936038e+01
   6.187099e+01  -5.063144e+01
   1.508493e+02   4.456856e+01
   1.338158e+02   5.890195e+01
   1.817041e+01   6.798603e+01
  -1.063390e+02   1.762889e+01
  -6.928632e+01   2.265094e+01
  -2.797643e+01  -4.192197e+00
   2.167062e+00  -3.762151e+01
   1.895016e+01  -1.462170e+01
  -3.002986e+01   1.413136e+01
   5.664054e+00   3.902774e+01
   6.982789e+01   6.292522e+00
   1.044525e+02   5.042213e+01
   1.666204e+01   1.097078e+02
  -9.076564e+01   8.196993e+01
  -1.940727e+02   4.154147e+01
  -1.324470e+02  -5.480494e+01
  -1.330747e+01  -1.578181e+02
   7.525866e+01  -1.412501e+02
   1.243783e+02  -7.320597e+01
   7.436868e+01   2.881880e+01
   2.276932e+01   3.938352e+01
   1.740992e+01   1.585579e+01
   2.118517e+01  -7.321001e+00
  -5.462621e+00   4.264121e+01
   4.187413e+00   1.031448e+02
  -4.073696e+01   6.397468e+01
  -5.662796e+01  -2.485692e+01
  -9.202568e+01  -7.695561e+01
  -3.811180e+01  -7.386016e+01
   5.465692e+01  -1.866017e+01
   8.484781e+01   8.443841e+01
   2.792277e+01   1.038705e+02
  -6.578334e+01   6.714836e+01
  -1.107402e+02   1.579882e+00
  -1.804984e+01  -4.015191e+01
   2.673430e+01  -4.600387e+01
   2.818638e+01  -3.651494e+01
  -1.770406e+01   2.203847e+01
  -9.820300e+01   1.531717e+01
  -1.711800e+00  -4.327397e+01
   6.019139e+01  -6.233417e+01
   1.164050e+02  -8.360021e+01
   3.379157e+01   1.496575e+01
   1.467842e+00   8.242034e+01
  -6.410919e+01   5.715925e+01
  -1.972948e+01  -1.194975e+01
  -1.349346e+01  -6.290591e+01
   2.193439e+01  -9.147025e+00
   2.060626e+01   2.767228e+01
   1.426947e+01   4.693699e+01
  -1.880878e+01   2.726610e+01
  -1.630518e+01  -1.192121e+00
  -6.307708e+01   1.038223e+00
  -5.479365e+01  -1.144682e+00
   2.093050e+01   9.998309e+00
   2.459197e+01   2.456253e+01
  -1.424264e+01  -3.626116e+01
  -1.662114e+01  -5.352168e+01
   3.346717e+01  -1.640710e+00
   3.825457e+01   1.956908e+01
  -2.509030e+01   4.708535e+01
  -3.254942e+01   8.657712e+00
  -5.596243e+01  -5.695716e+01
  -1.844336e+01  -5.106640e+01
   5.274585e+01  -3.147624e+01
   6.309909e+01   1.964451e+01
   4.515508e+01   5.209019e+01
  -2.048959e+01   5.908916e+01
  -5.341944e+01   2.285367e+01
  -3.286050e+01   1.076821e+01
   2.965010e+01  -1.574849e+01
   4.167685e+01   1.188117e+01
  -2.150942e+01   1.305074e+01
  -6.742711e+01  -1.490108e+01
