
 $NMID
 id='ANONYMOUS ', fmtdat='(2E16.6)'
 volume=1.0
 tramp=1.0
 $END
  -3.427414e+03   2.007955e+02
  -2.148049e+03  -1.763923e+03
   1.700922e+02  -2.206137e+03
   1.366638e+03  -1.207401e+03
   8.475062e+02   7.627430e+00
  -1.312881e+02   3.563274e+02
  -5.820212e+02  -1.230222e+02
  -8.637334e+01  -6.837454e+02
   6.191872e+02  -6.752612e+02
   7.665735e+02  -5.715224e+01
   4.843492e+02   5.952277e+02
  -6.100864e+01   7.653060e+02
  -4.219529e+02   1.703225e+02
  -3.400714e+02  -5.245641e+02
   1.754814e+02  -5.923339e+02
   4.953890e+02  -3.799530e+01
   3.000719e+02   5.657726e+02
  -1.713412e+02   5.993948e+02
  -5.389111e+02   2.301587e+02
  -4.351859e+02  -2.241654e+02
  -6.911700e+01  -4.067233e+02
   1.705226e+02  -2.469460e+02
   1.289066e+02  -1.484186e+01
  -1.515014e+02  -4.074668e+01
  -3.030665e+02  -2.409894e+02
  -9.628372e+01  -3.876831e+02
   4.107782e+02  -2.353491e+02
   6.729403e+02   1.206764e+02
   2.681651e+02   3.819564e+02
  -3.503100e+02   3.147648e+02
  -5.610530e+02  -9.355222e+01
  -2.458509e+02  -3.845705e+02
   2.582814e+02  -4.265459e+02
   4.752019e+02  -2.050664e+02
   3.860923e+02   2.023697e+02
   7.825489e+01   3.930464e+02
  -1.370204e+02   2.235787e+02
  -3.331144e+01  -1.365320e+02
   1.768327e+02  -2.646952e+02
   2.868311e+02   2.624534e+01
   1.025212e+02   4.772224e+02
  -2.153111e+02   5.305603e+02
  -3.709910e+02   4.011258e+01
  -1.920454e+02  -3.546421e+02
   1.519351e+02  -1.941436e+02
   2.697688e+02   2.436358e+02
  -4.146511e+01   3.963053e+02
  -4.508454e+02   7.976831e+01
  -5.251158e+02  -3.367785e+02
  -1.677077e+02  -5.282941e+02
   3.304890e+02  -3.001477e+02
   5.252619e+02   5.418324e+01
   3.905877e+02   3.001517e+02
  -5.139402e+01   2.653113e+02
  -3.656024e+02   7.477659e+01
  -2.354632e+02  -6.424487e+01
   2.356072e+01  -4.599578e+01
   6.671492e+01   7.019131e+01
  -1.190985e+02   8.633639e+01
  -2.382491e+02  -4.541253e+01
  -1.516186e+02  -1.987042e+02
   1.594170e+02  -2.257689e+02
   3.341911e+02  -1.300450e+02
   2.509235e+02   1.177573e+02
  -3.233640e+01   3.341802e+02
  -2.406319e+02   3.770720e+02
  -3.417641e+02   1.858256e+02
  -2.610776e+02  -1.782892e+02
  -4.020655e+01  -3.685516e+02
   7.527739e+01  -2.999683e+02
   5.040113e+01  -1.389057e+02
   2.221162e+01  -5.677918e+01
   1.009219e+02  -1.174850e+02
   2.292230e+02  -7.122663e+01
   2.551524e+02   6.442099e+01
   1.129959e+02   2.857003e+02
  -9.162161e+01   2.373146e+02
  -1.825332e+02  -4.210861e+00
  -1.555187e+02  -2.511939e+02
   5.295084e+01  -2.769157e+02
   2.416471e+02  -1.202618e+02
   3.165966e+02   1.637600e+02
   1.647040e+02   3.262847e+02
  -5.640248e+01   2.900058e+02
  -1.826765e+02   1.662367e+02
  -1.407157e+02   3.588374e+01
  -1.064215e+02   5.317540e+01
  -2.094236e+02   6.785158e+01
  -3.942907e+02  -5.483837e+01
  -3.110519e+02  -2.861643e+02
  -1.603096e+01  -4.176679e+02
   3.741267e+02  -3.975093e+02
   4.377841e+02  -1.546839e+02
   2.861369e+02   8.498850e+01
   5.422715e+01   2.499838e+02
  -6.516207e+01   1.884749e+02
  -3.911021e+01   1.525451e+01
   1.081845e+02  -6.525025e+01
   1.619736e+02   5.282145e+01
   3.635974e+01   1.471348e+02
  -1.069193e+02   1.019492e+02
  -1.229326e+02  -7.469932e+01
   1.015070e+01  -1.519374e+02
   1.354778e+02  -1.268236e+01
   1.384048e+02   2.534474e+02
  -4.238017e+01   2.895843e+02
  -2.435826e+02   1.935241e+02
  -2.996151e+02  -7.628717e+01
  -2.712327e+02  -2.560242e+02
  -6.081854e+01  -2.374436e+02
   1.366058e+02  -1.330670e+02
   1.813299e+02  -2.599763e+01
   4.751182e+01   1.348141e+01
  -4.271140e+01  -7.710005e+01
  -2.654981e+01  -1.062385e+02
   1.259012e+02  -6.515387e+01
   1.579464e+02   4.313029e+01
   3.278143e+01   6.345202e+01
  -8.506885e+01  -3.095269e+01
  -4.133730e+01  -8.503136e+01
   1.251575e+02  -9.893175e+01
   2.993378e+02  -8.660971e+00
   2.331805e+02   1.633225e+02
   3.448380e+01   2.447424e+02
  -1.925364e+02   2.244233e+02
  -2.446766e+02   1.102971e+02
  -1.820624e+02  -3.619948e+01
   5.756178e+01  -8.475649e+01
   6.289798e+01   6.749059e+00
  -6.174938e+01   7.685718e+01
  -1.896164e+02   6.942662e+01
  -1.768026e+02  -1.290643e+02
  -6.134589e+01  -1.917829e+02
   8.806188e+01  -1.364211e+02
   1.099791e+02   1.302818e+01
   6.932577e+01   3.704963e+01
  -4.318280e+01  -1.125919e+01
  -5.210648e+01  -7.764034e+01
   6.747203e+01  -1.481261e+02
   2.192653e+02  -1.488949e+01
   1.938571e+02   1.243871e+02
   1.749803e+01   1.674862e+02
  -1.729551e+02   1.707155e+02
  -1.693623e+02   1.841213e+01
  -3.835692e+01  -1.097866e+02
   6.050514e+01  -9.031738e+01
   6.216448e+01  -1.308627e+01
   5.836263e+00   3.886193e+01
  -3.848318e+01   2.077949e+01
   4.429693e+00  -2.169069e+01
   7.512012e+01  -1.258108e+01
   9.886212e+01   7.755428e+01
   2.232586e+01   1.632076e+02
  -1.434439e+02   1.629027e+02
  -2.322065e+02   4.130456e+01
  -1.917333e+02  -1.797652e+02
  -3.045391e+01  -2.143380e+02
   9.821962e+01  -1.619463e+02
   1.423559e+02  -2.728371e+01
   6.795276e+01   4.289926e+01
   1.965477e+01   5.432792e+01
   2.660364e+01   9.602239e+00
   6.551984e+01  -1.415961e+01
   6.642618e+01   4.747371e+01
  -3.243744e+01   9.420466e+01
  -1.123739e+02   5.697304e+01
  -1.126659e+02  -3.787042e+01
   2.878349e+01  -1.296669e+02
   1.346034e+02  -9.624121e+01
   1.873534e+02   6.295511e+01
   7.212640e+01   2.040735e+02
  -1.110386e+02   2.148042e+02
  -2.733335e+02   1.030399e+02
  -2.410517e+02  -8.272172e+01
  -8.161322e+01  -1.638887e+02
   3.399654e+01  -1.140538e+02
   7.331361e+01  -5.125466e+01
   7.559716e+01  -7.006418e+01
   4.356973e+01  -1.103995e+02
   9.721317e+01  -9.534309e+01
   1.337078e+02   3.788197e+01
   1.369325e+02   1.667543e+02
   2.805835e+01   2.165657e+02
  -1.031619e+02   1.656136e+02
  -2.009123e+02   2.592297e+01
  -1.154735e+02  -1.430823e+02
   1.502825e+01  -1.578222e+02
   4.022799e+01  -7.799454e+01
   5.710672e+01   1.491519e+01
   2.715530e+01   6.487351e+01
  -4.801996e+01   2.915669e+01
   2.943451e+01   6.834631e+00
   8.608210e+01   3.002733e+01
   4.866305e+01   4.420225e+01
  -7.426715e+01   4.146150e+01
  -1.681128e+02   1.536139e+01
  -1.375960e+02  -5.423855e+01
  -9.128239e+00  -1.204233e+02
   1.248144e+02  -5.663910e+01
   1.678068e+02   2.532159e+01
   5.874352e+01   3.386690e+01
  -3.990704e+01   5.919581e+01
  -6.729112e+01  -1.747153e+01
  -2.162957e+01  -7.192584e+01
   4.112153e+01  -7.274276e+01
   4.768608e+01   3.096142e+01
   3.286409e+01   4.905489e+01
   5.057427e+01   2.245665e+01
   4.760210e+01   3.167499e+01
   6.019120e+01  -8.039763e+00
   3.072108e+01   8.157368e+01
  -3.757808e+01   1.622249e+02
  -1.284857e+02   1.354423e+02
  -1.433739e+02   4.585308e+01
  -1.183472e+02  -6.080375e+01
  -4.499029e+00  -1.196729e+02
   1.071788e+02  -5.961977e+01
   6.788141e+01   2.584215e+01
  -3.272536e+01  -3.020879e-01
  -1.281612e+02  -3.205433e+01
  -8.885563e+01  -9.971832e+01
   8.896915e+01  -1.199162e+02
   1.800126e+02  -6.880542e+01
   1.649113e+02   2.773823e+01
   9.270178e+00   8.783064e+01
  -5.646590e+01   6.200444e+01
  -6.997244e+01  -1.287146e+01
   3.251951e+01  -1.711579e+01
   1.119013e+02   2.398469e+01
   5.465821e+01   1.090869e+02
  -7.021753e+01   1.616206e+02
  -1.846357e+02   8.339123e+01
  -1.220147e+02  -8.285455e+01
  -1.208464e+01  -1.943802e+02
   7.164550e+01  -1.099969e+02
   1.002104e+02  -4.834772e+00
   6.229422e+01   1.167088e+02
  -1.508275e+01   8.752086e+01
  -7.459268e+01  -3.257636e+00
  -4.485285e+01  -3.413764e+01
  -1.751992e+01  -2.482857e+01
  -2.895538e+01   1.901774e+00
  -2.418755e+01  -1.368898e+01
  -5.574238e+01  -9.886166e+01
  -1.853831e+01  -1.263233e+02
   4.984489e+01  -5.354504e+01
   1.399045e+02  -2.065960e+00
   1.113931e+02   7.746489e+01
   1.629624e+01   6.629134e+01
  -9.854558e+01   5.234490e+01
  -9.181061e+01   4.155246e+00
  -2.188283e+01  -2.316584e+01
   5.899891e+01   2.026256e+01
   1.642450e+01  -2.762646e+01
  -1.169856e+01   2.918596e+01
   2.611063e+01  -7.319984e+00
   4.510196e+01   8.708849e+00
   8.461721e+01   3.197620e+01
   2.117848e+01   7.935091e+01
  -1.012798e+02   1.098548e+02
  -1.688911e+02   7.161804e+01
  -1.366396e+02  -6.513204e+01
  -5.010611e+01  -1.512016e+02
   6.539784e+01  -1.720697e+02
   1.218456e+02  -4.803636e+01
   1.148255e+02   1.886623e+01
   4.596126e+01   3.395247e+01
   2.600331e+01  -9.159282e+00
   1.920496e+01  -1.150477e+01
   5.442702e+01   4.407030e+01
   2.963704e+01   1.054254e+02
  -2.151264e+01   1.060155e+02
  -6.984604e+01  -2.083197e+00
  -5.905770e+01  -9.216975e+01
  -1.471889e+01  -8.716763e+01
   6.428211e+01  -2.977890e+01
   7.601020e+01   4.257885e+01
   4.846118e+01   1.029451e+02
  -4.530376e+01   6.348775e+01
  -9.053775e+01  -1.768685e+01
  -4.354071e+01  -6.798941e+01
   2.471751e+01  -6.127656e+01
   3.361278e+01  -1.379444e+01
  -5.865097e+00   2.504739e+01
  -6.964734e+01  -2.247054e+01
   1.710301e+00  -3.840380e+01
   6.399412e+01  -6.853185e+01
   1.222043e+02  -2.853190e+01
   7.576313e+01   2.663939e+01
  -1.329190e+01   7.583747e+01
  -5.750070e+01   7.719347e+01
  -4.411635e+01   2.718960e+01
   7.631722e+00  -4.556186e+01
   2.210179e+01  -3.283533e+01
   1.742550e+01  -1.328502e+01
   2.815037e+01   2.820751e+01
  -9.574013e+00   4.129981e+01
  -6.961783e+01  -3.694453e+01
  -5.133787e+01   9.750821e-01
   1.115851e+01  -2.978397e+01
  -8.562030e+00   4.937671e+00
   2.062378e+01   1.692208e+01
  -2.247401e+01  -2.462100e+01
   1.491579e+01  -4.760293e+01
   2.106430e+01  -3.304278e+01
   5.738503e+01   2.518856e+01
  -2.219844e+00   5.852723e+01
  -3.360786e+01   1.773395e+01
  -4.554013e+01  -1.155825e+01
   1.041631e+01  -5.325454e+01
   6.345604e+01  -3.137233e+01
   8.485293e+01   7.656380e+00
   4.776651e+01   5.755800e+01
  -9.999371e+00   5.879777e+01
  -6.138500e+01   3.765377e+00
  -3.207841e+01  -1.577121e+01
   1.671662e+01   1.457323e+01
   4.316539e+00  -1.556175e+00
   8.681339e+00   2.057834e+01
  -6.317449e+01   2.921560e+01
