
 $NMID
 id='ANONYMOUS ', fmtdat='(2E16.6)'
 volume=1.0
 tramp=1.0
 $END
   3.602959e+03  -5.992502e+01
   2.193563e+03   2.063763e+03
  -2.159789e+02   2.344838e+03
  -1.696437e+03   1.051984e+03
  -7.833025e+02  -2.146835e+02
   4.008550e+02  -3.051030e+02
   5.580570e+02   2.669746e+02
   3.868275e+01   6.787045e+02
  -5.279750e+02   6.080976e+02
  -6.979775e+02   6.671743e+01
  -4.677663e+02  -6.183331e+02
   1.070419e+02  -6.866666e+02
   4.218179e+02  -1.161290e+02
   2.408068e+02   4.974932e+02
  -9.191642e+01   5.722282e+02
  -4.056097e+02   4.839838e+01
  -2.835124e+02  -4.919864e+02
   2.027403e+02  -6.436148e+02
   4.565830e+02  -2.180938e+02
   4.235125e+02   2.399289e+02
   8.567606e+01   3.192341e+02
  -1.472946e+02   2.257746e+02
  -1.177965e+02   7.018988e+01
   1.406766e+02   3.483333e+01
   2.628738e+02   2.059733e+02
   6.315173e+01   3.403357e+02
  -4.265109e+02   2.910348e+02
  -6.706576e+02  -1.667172e+02
  -2.916611e+02  -4.264366e+02
   3.687148e+02  -3.269333e+02
   5.183420e+02   5.062199e+01
   2.341767e+02   3.574809e+02
  -2.390697e+02   3.514070e+02
  -4.696483e+02   1.249035e+02
  -3.808462e+02  -1.644664e+02
  -8.103196e+01  -3.476563e+02
   4.084762e+01  -1.858431e+02
   9.452508e+00   8.878530e+01
  -1.612309e+02   2.228360e+02
  -2.872486e+02  -5.499505e+01
  -4.319799e+01  -5.447567e+02
   2.207329e+02  -4.818479e+02
   4.116667e+02  -1.581154e+01
   1.416406e+02   3.976481e+02
  -1.729917e+02   2.068100e+02
  -2.672137e+02  -2.831643e+02
   9.689337e+01  -3.967131e+02
   5.065322e+02  -1.366059e+02
   5.204085e+02   3.550780e+02
   1.414193e+02   5.300197e+02
  -3.696843e+02   2.977777e+02
  -5.384796e+02  -7.236860e+01
  -3.619523e+02  -2.506380e+02
   6.678848e+01  -2.860228e+02
   3.490306e+02  -1.015993e+02
   2.466936e+02   7.760005e+01
  -2.356534e+01   5.379720e+01
  -1.212113e+02  -7.878599e+01
   1.269762e+02  -1.195903e+02
   2.844714e+02   2.385726e+01
   1.243993e+02   2.089347e+02
  -1.722616e+02   2.279751e+02
  -3.571248e+02   9.541365e+01
  -2.455642e+02  -1.287819e+02
   1.278937e+01  -2.540104e+02
   2.830723e+02  -3.291653e+02
   3.486464e+02  -1.674497e+02
   2.432447e+02   1.638630e+02
   3.243247e+01   3.536776e+02
  -5.659880e+01   3.433844e+02
  -2.660943e+01   1.567480e+02
  -2.234426e+01   7.078529e+01
  -1.002157e+02   1.189786e+02
  -2.188859e+02   8.086548e+01
  -2.223048e+02  -6.841603e+01
  -9.213932e+01  -2.840076e+02
   8.727970e+01  -2.063987e+02
   2.090569e+02   4.122891e+00
   1.403158e+02   2.265859e+02
  -1.987791e+01   2.606022e+02
  -2.460050e+02   5.978616e+01
  -3.219165e+02  -1.362914e+02
  -1.659954e+02  -2.727906e+02
   5.570930e+01  -2.764376e+02
   1.778012e+02  -1.607552e+02
   1.281157e+02  -7.604811e+01
   1.503978e+02  -9.381893e+01
   2.680653e+02  -4.289600e+01
   3.838852e+02   7.659934e+01
   3.136791e+02   2.608413e+02
   3.040417e+00   4.386123e+02
  -3.562657e+02   3.713552e+02
  -4.400458e+02   1.651230e+02
  -2.904340e+02  -5.210579e+01
  -3.336105e+01  -2.445854e+02
   1.014415e+02  -2.208833e+02
   5.183272e+01  -7.181455e+01
  -1.160316e+02   9.761904e+01
  -1.343154e+02  -3.448130e+00
  -2.620492e+01  -1.227134e+02
   1.219479e+02  -1.356315e+02
   1.373886e+02   4.233321e+01
  -3.343549e+01   1.721622e+02
  -1.827461e+02   6.179905e+00
  -1.479407e+02  -2.386690e+02
   1.585498e+01  -3.277281e+02
   2.359760e+02  -2.125418e+02
   3.139397e+02   6.795849e+01
   2.538093e+02   2.510035e+02
   8.426552e+01   2.702898e+02
  -1.247285e+02   1.150149e+02
  -1.559594e+02   1.048365e+01
  -1.944196e+01  -5.872011e+00
   3.840200e+01   7.649651e+01
   1.003160e+01   1.207084e+02
  -1.142421e+02   7.488813e+01
  -1.416202e+02  -3.068641e+01
  -4.316391e+01  -7.141004e+01
   8.774341e+01   3.529582e+00
   3.842527e+01   7.591261e+01
  -1.356321e+02   6.954821e+01
  -3.233761e+02   1.389286e+01
  -2.575155e+02  -1.356980e+02
  -3.695059e+01  -2.470699e+02
   1.641732e+02  -2.056765e+02
   2.648721e+02  -1.194378e+02
   1.742671e+02   2.939264e+01
  -1.060999e+01   6.332335e+01
  -4.363091e+01   1.168191e+01
   4.846695e+01  -7.808197e+01
   1.616998e+02  -5.055705e+01
   1.810242e+02   9.827981e+01
   7.596137e+01   1.616831e+02
  -7.383011e+01   1.673069e+02
  -1.315353e+02   3.884338e+01
  -3.312175e+01  -3.652058e+01
   1.754229e+01   1.700368e+01
   4.500609e+01   1.038351e+02
  -8.512248e+01   1.176162e+02
  -2.041458e+02   2.395794e+01
  -2.054090e+02  -9.672614e+01
  -1.670603e+01  -1.933796e+02
   1.254196e+02  -1.592895e+02
   1.943454e+02  -1.034068e+01
   6.235661e+01   6.898715e+01
  -6.575752e+01   9.386115e+01
  -6.588827e+01   2.466873e+01
   7.358083e-01  -3.030663e+01
   5.543774e+01  -8.618363e+00
  -1.163437e+00   3.577161e+01
  -1.147372e+02  -1.022247e+01
  -8.772957e+01  -9.518196e+01
  -1.276727e+01  -1.683385e+02
   1.282676e+02  -1.459460e+02
   2.407590e+02  -1.817623e+01
   1.827290e+02   1.565975e+02
   8.543031e+01   2.480284e+02
  -1.097493e+02   1.603740e+02
  -1.401692e+02   1.759980e+01
  -8.400026e+01  -5.208514e+01
  -5.307791e+01  -4.349901e+01
  -3.882271e+01  -2.364193e+01
  -6.265911e+01  -8.481672e+00
  -6.110222e+01  -6.289486e+01
   2.800426e+01  -1.123820e+02
   1.149755e+02  -6.933149e+01
   8.728193e+01   4.916298e+01
  -7.873660e+00   9.173470e+01
  -1.697172e+02   9.914689e+01
  -1.835161e+02  -3.851921e+01
  -8.305820e+01  -2.121301e+02
   1.333523e+02  -2.066443e+02
   2.218668e+02  -9.006676e+01
   2.374042e+02   7.535021e+01
   9.786747e+01   1.415950e+02
  -2.007141e+01   1.142685e+02
  -7.525574e+01   8.329970e+01
  -8.505660e+01   5.088276e+01
  -7.467329e+01   8.589145e+01
  -1.102019e+02   9.497848e+01
  -1.249243e+02  -1.022686e+01
  -1.074555e+02  -1.290619e+02
  -4.156981e+01  -1.914381e+02
   9.739182e+01  -1.735710e+02
   1.635125e+02  -1.055811e+01
   1.471236e+02   1.074603e+02
   1.832539e+01   1.253510e+02
  -6.330936e+01   7.513385e+01
  -8.102616e+01  -9.273233e+00
  -9.435666e+00  -3.639298e+01
   9.416295e+00  -6.050989e+01
  -3.312088e+01   1.522205e+01
  -5.325290e+01  -1.035081e+01
  -4.241465e+01  -3.209201e+01
   4.532331e+01  -3.688534e+01
   1.902441e+02  -1.046239e+00
   1.456844e+02   7.306194e+01
  -9.650420e+00   8.198578e+01
  -9.895808e+01   4.378995e+01
  -1.302781e+02  -4.266558e+00
  -2.802339e+01  -6.968994e+01
   4.643755e+01  -2.860214e+01
   6.901154e+01   1.378807e+01
   2.436837e+01   5.460357e+01
  -7.656369e+01   6.335582e+01
  -4.111966e+01  -2.796611e+01
  -3.100557e+01  -6.073542e+01
  -3.260504e+01  -3.643849e+01
  -6.436325e+01   3.029593e+01
  -5.070345e+01  -7.362789e+00
  -2.842506e+01  -8.238525e+01
   2.636587e+01  -1.451200e+02
   1.261251e+02  -1.382997e+02
   1.544775e+02  -3.169385e+01
   1.137000e+02   7.064634e+01
   1.292722e+01   1.317901e+02
  -7.193149e+01   5.962532e+01
  -5.987687e+01  -1.201953e+01
   7.660803e+01   3.773211e+00
   1.439579e+02   4.656445e+01
   8.927355e+01   7.812816e+01
  -4.916413e+01   1.104953e+02
  -1.741122e+02   2.718864e+01
  -1.545078e+02  -2.442838e+01
  -4.364779e+01  -6.279849e+01
   4.555088e+01  -8.310082e+01
   6.677252e+01   2.358210e+01
  -3.625723e+01   2.567157e+01
  -9.487953e+01  -1.513449e+01
  -5.847671e+01  -9.883262e+01
   8.440823e+01  -1.367331e+02
   1.494212e+02  -4.629943e+01
   1.258380e+02   8.815287e+01
   2.579497e+01   1.958815e+02
  -6.399362e+01   1.586946e+02
  -8.059378e+01  -3.026456e+01
  -4.900770e+01  -9.979337e+01
   2.615034e+01  -9.060953e+01
   6.107604e+01  -4.839065e+00
   3.465037e+01   9.756184e+00
   2.348993e+00   6.677847e+00
   1.142009e+01  -4.954066e+01
   3.528793e+01   1.316516e+01
   3.711306e+01   9.458321e+01
   3.342708e+01   1.049347e+02
  -3.971221e+01   3.442053e+01
  -1.476543e+02  -3.764539e+01
  -1.205082e+02  -6.571982e+01
  -2.603145e+01  -5.084838e+01
   8.086198e+01  -4.490511e+01
   9.996750e+01  -1.479021e+00
   1.914275e+01   1.929330e+01
  -4.294005e+01   1.964832e+01
  -5.360878e+00   1.181618e+01
   6.168975e+00   1.417267e+01
  -1.665599e+01  -1.121680e+01
  -7.998515e+01   2.532907e+01
  -8.567371e+01  -2.660170e+01
  -1.342708e+01  -8.142614e+01
   1.049760e+02  -1.335167e+02
   2.213738e+02  -7.164371e+01
   1.590254e+02   8.886644e+01
   3.988546e+01   1.606912e+02
  -6.516638e+01   1.722567e+02
  -1.024171e+02   9.502020e+01
  -9.311241e+01  -3.095805e+01
   2.176165e+01  -6.416135e+01
  -7.314241e+00   2.470867e+01
  -1.829454e+01   2.245548e+01
  -1.935081e+01  -3.776563e+01
  -4.703359e+01  -9.684292e+01
   4.759317e+01  -6.087198e+01
   9.334214e+01   4.007704e+01
   5.755376e+01   8.060702e+01
   1.557188e+01   1.032615e+02
  -8.506848e+01   2.671877e+01
  -9.722468e+01  -8.473258e+01
  -2.847948e+01  -9.353544e+01
   9.974845e+00  -6.737586e+01
   9.252991e+01   3.952749e+01
   5.979432e+01   4.775621e+01
  -7.943253e-01   4.118132e+01
  -2.934010e+01   3.753269e+01
   4.410925e+01  -3.195985e+01
   5.835089e+01  -7.549429e+00
   2.660703e+01   2.570129e+01
  -6.332256e+01   4.998610e+01
  -1.109613e+02   3.862501e+01
  -9.109826e+01  -1.702212e+01
   2.890667e+01  -7.780178e+01
   6.329128e+01  -6.517134e+01
   4.453153e+01  -1.407524e+01
   1.457276e+01   4.657898e+01
  -9.609998e+00   2.938229e+01
  -1.272622e+01  -2.288187e+01
  -2.437662e+01  -5.183248e+01
  -1.392058e+01  -4.202113e+01
   3.804193e+01   1.857660e+01
   4.210882e+01   2.549134e+01
   8.098029e+00  -1.074363e+01
   6.922482e+00  -3.106898e+00
  -9.260395e+00  -2.765736e+00
   6.601924e+00   2.146581e+01
   1.548711e+01   5.379213e+01
  -4.898972e+01  -1.895494e+00
  -2.900685e+01  -5.127407e+01
  -2.242621e+01  -4.730266e+01
   2.018628e+01  -1.360345e+01
   6.244917e+01   4.018932e+01
  -6.135060e+00   5.860205e+01
  -5.890006e+01   2.751957e+01
  -6.274756e+01   4.303618e+00
  -3.127778e+01  -3.235666e+01
   3.976877e+01  -3.972480e+01
   6.873275e+01   9.018694e+00
   3.143004e+01  -4.123422e+00
  -2.000770e+01   4.771834e+00
  -2.960300e+01   1.073515e+01
   1.591278e+01  -3.199570e+01
   1.024364e+02  -2.514199e+01
