
 $NMID
 id='ANONYMOUS ', fmtdat='(2E16.6)'
 volume=1.0
 tramp=1.0
 $END
  -3.757972e+03   1.452893e+02
  -2.369488e+03  -2.133017e+03
   4.269018e+02  -2.522029e+03
   1.658605e+03  -9.039757e+02
   8.865482e+02   2.646821e+02
  -2.894486e+02   3.723749e+02
  -5.826659e+02  -2.090336e+02
  -2.842038e+01  -7.054856e+02
   5.340333e+02  -6.661778e+02
   7.145429e+02  -8.718272e+01
   5.076092e+02   6.266752e+02
  -5.688406e+01   7.273313e+02
  -4.736178e+02   1.948755e+02
  -3.645703e+02  -4.866764e+02
   6.616693e+01  -6.565587e+02
   5.051233e+02  -6.458417e+01
   3.359118e+02   5.234021e+02
  -1.549930e+02   6.428297e+02
  -5.197748e+02   1.962081e+02
  -4.212506e+02  -2.818504e+02
  -9.595750e+01  -3.912665e+02
   1.658783e+02  -2.443196e+02
   1.659409e+02  -5.770128e+01
  -1.467706e+02   5.958893e+00
  -3.105547e+02  -1.741139e+02
  -9.719459e+01  -3.674118e+02
   3.980359e+02  -2.719828e+02
   6.633399e+02   1.164192e+02
   3.305542e+02   4.389039e+02
  -3.280446e+02   3.673588e+02
  -5.876134e+02  -4.412917e+01
  -3.532389e+02  -3.639053e+02
   2.205611e+02  -3.710963e+02
   4.773612e+02  -2.061414e+02
   3.998179e+02   1.430580e+02
   1.256882e+02   3.877985e+02
  -6.429137e+01   2.778937e+02
  -1.066295e+02  -1.063201e+02
   7.787602e+01  -2.768739e+02
   2.916223e+02   3.236027e+01
   1.420609e+02   5.616818e+02
  -2.583537e+02   5.201619e+02
  -4.336958e+02   7.391347e+01
  -2.417471e+02  -3.435009e+02
   1.562693e+02  -2.044417e+02
   2.464057e+02   2.345256e+02
  -6.058677e+01   4.078784e+02
  -4.970261e+02   1.368064e+02
  -5.283244e+02  -2.903601e+02
  -1.641956e+02  -5.120739e+02
   3.115068e+02  -3.009630e+02
   5.889049e+02   1.709038e+01
   4.194815e+02   2.721454e+02
  -8.305301e+01   2.910386e+02
  -3.712454e+02   1.244274e+02
  -2.415570e+02  -9.431426e+01
   4.123210e+01  -7.401486e+01
   1.087484e+02   5.752512e+01
  -1.274381e+02   1.596326e+02
  -3.048415e+02  -4.225413e+01
  -1.156696e+02  -1.990554e+02
   1.380322e+02  -2.487096e+02
   3.414474e+02  -1.020069e+02
   2.217867e+02   1.214189e+02
  -9.250384e-01   2.977024e+02
  -2.498126e+02   3.386352e+02
  -3.177053e+02   1.781324e+02
  -2.819270e+02  -1.451686e+02
  -8.780719e+01  -3.704548e+02
   5.415460e+01  -3.275567e+02
   8.600080e+01  -1.848134e+02
   5.439524e+01  -6.009258e+01
   9.984243e+01  -9.288321e+01
   2.130234e+02  -9.884426e+01
   2.078778e+02   9.341212e+01
   7.641015e+01   2.296223e+02
  -8.008874e+01   2.325621e+02
  -1.919913e+02  -2.779996e+01
  -1.704694e+02  -2.231935e+02
   2.815483e+01  -2.309566e+02
   2.521373e+02  -7.292486e+01
   3.042624e+02   1.729208e+02
   1.789101e+02   3.045325e+02
  -2.056890e+01   2.920665e+02
  -1.759013e+02   1.810920e+02
  -1.481798e+02   7.232049e+01
  -1.305587e+02   4.095893e+01
  -2.293047e+02   4.441061e+01
  -3.778552e+02  -9.106738e+01
  -3.261560e+02  -2.569153e+02
   7.568809e+00  -4.241408e+02
   3.383210e+02  -4.096859e+02
   4.742065e+02  -1.816913e+02
   3.002769e+02   7.039421e+01
   3.291264e+01   2.418032e+02
  -7.767542e+01   2.336743e+02
  -3.395167e+01   5.853945e+01
   1.194321e+02  -4.316619e+01
   1.608076e+02  -8.296993e+00
   2.433605e+01   1.523638e+02
  -1.419343e+02   1.461147e+02
  -1.490557e+02  -3.929926e+01
  -4.402244e-01  -1.745661e+02
   1.678290e+02   3.192769e+00
   1.533122e+02   2.571516e+02
  -5.207435e+01   3.311038e+02
  -2.201634e+02   1.680425e+02
  -3.424198e+02  -6.038181e+01
  -2.493898e+02  -2.532428e+02
  -6.878904e+01  -2.447149e+02
   1.319532e+02  -1.251693e+02
   1.208845e+02   2.303575e+00
   4.026965e+01  -1.620767e+00
  -5.641530e+01  -3.219093e+01
  -1.706128e+00  -8.583955e+01
   1.392648e+02  -8.159011e+01
   1.404002e+02   1.823900e+01
   4.307825e+01   7.251169e+01
  -9.583775e+01  -5.927623e+00
  -6.027230e+01  -8.811087e+01
   1.381787e+02  -8.654272e+01
   2.764296e+02   2.037484e+00
   2.655624e+02   1.560414e+02
   4.523394e+01   2.250141e+02
  -1.855318e+02   2.499549e+02
  -2.682055e+02   8.721326e+01
  -1.278432e+02  -2.536398e+01
   1.435049e+01  -8.215009e+01
   5.919588e+01   1.289928e+00
  -4.309116e+01   1.015783e+02
  -1.734791e+02   5.170056e+01
  -1.856750e+02  -1.226414e+02
  -6.051188e+01  -1.900885e+02
   7.779750e+01  -1.513044e+02
   1.055886e+02  -2.677512e+01
   6.029831e+01   3.341709e+01
  -2.282365e+01  -3.909366e+01
  -4.401870e+01  -8.824874e+01
   6.802274e+01  -1.142838e+02
   1.689981e+02  -2.352756e+01
   1.797218e+02   1.023576e+02
   4.900618e+01   1.951604e+02
  -1.461988e+02   1.584080e+02
  -2.022743e+02   3.304413e+01
  -8.581382e+01  -8.675461e+01
   6.001102e+01  -8.561345e+01
   7.349200e+01  -2.101116e+01
   2.221876e+01   1.052760e+01
  -6.675729e+01   1.980290e+01
   3.139348e-01  -3.712122e+01
   7.317215e+01   2.165760e+01
   9.842634e+01   1.148740e+02
   1.002006e+01   1.675743e+02
  -1.591637e+02   1.452975e+02
  -2.170515e+02   3.820885e+00
  -1.959108e+02  -1.695761e+02
  -2.670899e+01  -2.114800e+02
   9.944724e+01  -1.508035e+02
   9.034162e+01  -1.762764e+01
   5.417341e+01   7.547105e+01
   3.980603e+01   2.034943e+01
   3.940005e+01  -3.957904e+01
   9.138354e+01  -2.095968e+00
   6.541668e+01   8.378524e+01
  -3.823074e+01   1.051795e+02
  -1.027376e+02   4.415822e+01
  -9.092385e+01  -5.431515e+01
   1.882176e+01  -1.197714e+02
   1.529992e+02  -8.486641e+01
   1.981946e+02   9.049416e+01
   1.000883e+02   1.956393e+02
  -1.094072e+02   2.324971e+02
  -2.543489e+02   6.377026e+01
  -2.443970e+02  -9.252573e+01
  -9.945957e+01  -1.612886e+02
   5.112161e+01  -1.424038e+02
   9.709015e+01  -8.502907e+01
   7.221819e+01  -5.049825e+01
   7.411572e+01  -6.556008e+01
   8.067124e+01  -8.757666e+01
   1.461272e+02   2.668111e+01
   1.160691e+02   1.631378e+02
   3.761562e+01   2.224712e+02
  -9.291707e+01   1.639803e+02
  -1.501420e+02   2.900623e+01
  -1.315576e+02  -1.264146e+02
  -1.978341e+01  -1.358536e+02
   1.156229e+02  -9.380610e+01
   7.615200e+01   7.041308e+00
  -3.691469e+01   3.567259e+01
  -1.009832e+00   2.028950e+01
   3.757955e+01  -1.129578e+01
   8.675279e+01   3.396529e+01
   3.690221e+01   3.701144e+01
  -3.906700e+01   3.444536e+01
  -1.592060e+02  -2.874351e-01
  -1.631656e+02  -6.276213e+01
  -5.123927e+00  -9.425257e+01
   1.109174e+02  -7.544593e+01
   1.354204e+02  -1.383279e+01
   3.640161e+01   4.483634e+01
  -1.005753e+01   1.133220e+01
  -7.789210e+01   4.123511e+00
  -3.344130e+01  -7.229213e+01
   4.195936e+01  -6.132010e+01
   7.867348e+01   8.613620e+00
   3.617966e+01   3.512298e+01
   9.435650e+00   4.187389e+01
   5.777991e+01  -3.067064e+01
   3.919542e+01   1.225345e+01
   5.200117e+01   9.387747e+01
  -3.041972e+01   1.316515e+02
  -1.121518e+02   1.095848e+02
  -1.613172e+02   4.574720e+01
  -1.113974e+02  -6.796655e+01
  -6.166970e+00  -1.389444e+02
   7.089501e+01  -9.397534e+01
   5.745518e+01   1.427455e+01
  -9.404225e+01   3.963244e+01
  -1.281692e+02  -3.846987e+01
  -6.746308e+01  -8.988214e+01
   4.359513e+01  -1.362795e+02
   1.942381e+02  -5.465342e+01
   1.360274e+02   3.967896e+01
   5.240108e+01   7.638441e+01
  -6.069462e+01   5.521103e+01
  -5.360782e+01  -8.063369e+00
   3.731740e+01  -4.697116e+01
   6.608253e+01   2.472279e+01
   1.611564e+01   1.270274e+02
  -8.304314e+01   1.469012e+02
  -1.372474e+02   5.606992e+01
  -1.397822e+02  -8.020729e+01
  -6.141926e+01  -2.118836e+02
   1.045031e+02  -1.602866e+02
   8.499847e+01  -1.489720e+01
   7.180239e+01   1.072959e+02
  -2.600892e+00   9.734158e+01
  -3.704082e+01   4.173977e+01
  -3.447295e+01  -3.372628e+01
  -2.241070e+01   2.319412e+01
  -7.972471e+00   2.880786e+01
  -1.247778e+01  -1.109927e+01
  -5.982203e+01  -1.080793e+02
  -2.707570e+01  -7.187637e+01
   3.450452e+01  -5.563003e+01
   1.372885e+02   1.907587e+01
   1.393035e+02   5.894612e+01
   2.057215e+01   8.302609e+01
  -7.807215e+01   4.596757e+01
  -9.651393e+01   2.258470e+01
  -1.759384e+01  -2.197592e+01
   2.663724e+01  -3.050224e+01
  -3.326892e+00  -4.650325e+00
  -3.873936e+01  -1.318410e+01
   1.101542e+01  -1.142134e+01
   7.609301e+01   6.981264e+00
   6.812969e+01  -4.548430e+00
   1.067125e+01   7.240751e+01
  -1.031535e+02   1.103920e+02
  -1.792218e+02   5.603783e+01
  -1.470026e+02  -6.647855e+01
  -1.585111e+01  -1.502529e+02
   5.010339e+01  -1.592466e+02
   1.124806e+02  -4.555817e+01
   1.061436e+02   1.236458e+01
   3.657368e+01   2.595748e+01
   2.570458e+01  -3.727744e+00
   1.175252e+01   3.544373e+00
   3.184940e+01   3.435864e+01
   2.572106e+01   1.130979e+02
  -1.485882e+01   7.402758e+01
  -8.431843e+01  -3.295513e+01
  -8.498625e+01  -9.867458e+01
  -3.358146e+01  -1.213759e+02
   7.265287e+01  -4.097915e+01
   1.077084e+02   7.566488e+01
   3.766890e+01   9.502992e+01
  -3.740200e+01   5.074061e+01
  -9.712840e+01  -9.065057e+00
  -5.873692e+01  -6.168408e+01
   2.692371e+01  -8.467727e+01
   4.288316e+01  -9.799238e+00
  -2.374475e+01   3.299206e+01
  -7.471435e+01   1.139591e+01
  -1.437485e+01  -4.107308e+01
   5.579732e+01  -6.751461e+01
   9.718814e+01  -5.880120e+01
   8.167434e+01   1.487537e+01
  -1.180709e+01   7.086322e+01
  -4.784121e+01   7.108878e+01
  -4.154839e+01   4.771997e+00
   1.403419e+01  -5.166715e+01
   2.532971e+01  -4.652978e+01
   3.115206e+01   1.687806e+01
   2.969218e+01   5.122641e+01
  -3.702815e+00   3.907070e+01
  -2.324689e+01  -2.080421e+01
  -4.111174e+01  -3.346463e+00
  -3.375614e+00  -3.765422e+00
   2.007974e+01   3.864677e+00
  -2.473957e+01  -2.429816e+01
  -1.076612e+01  -2.703869e+01
  -4.217626e+00  -7.134040e+01
   2.163865e+01  -5.424731e+00
   4.716281e+01   3.009115e+01
   1.069132e+01   6.482424e+01
  -2.330288e+01   1.097906e+01
  -7.580587e+01  -3.777781e+01
  -2.474371e+01  -7.342730e+01
   4.076235e+01  -3.053326e+01
   8.833180e+01   1.878589e+01
   5.838910e+01   2.603892e+01
  -2.856117e+01   4.939696e+01
  -8.327506e+01   1.193810e+01
  -3.047105e+01  -6.231451e+00
   2.979979e+01   6.896741e+00
   5.197001e+01   1.701773e+01
  -1.671425e+01   2.142036e+01
  -8.539867e+01   1.088602e+01
