
 $NMID
 id='ANONYMOUS ', fmtdat='(2E16.6)'
 volume=1.0
 tramp=1.0
 $END
  -4.248942e+03  -2.193805e+02
  -2.545376e+03  -2.500002e+03
   6.907347e+02  -2.695886e+03
   1.978413e+03  -1.002672e+03
   1.063014e+03   3.548259e+02
  -3.565092e+02   3.967162e+02
  -6.913110e+02  -3.922071e+02
   1.705317e+01  -8.855144e+02
   6.915393e+02  -6.589528e+02
   8.089492e+02   4.752036e+01
   3.365470e+02   7.557726e+02
  -2.520059e+02   7.747726e+02
  -5.324071e+02   5.933543e+01
  -2.597335e+02  -5.780382e+02
   2.104482e+02  -6.575513e+02
   5.262132e+02   2.928053e+01
   2.304150e+02   6.231861e+02
  -2.642601e+02   5.818536e+02
  -5.068877e+02   8.370370e+01
  -3.999529e+02  -2.838963e+02
  -3.430167e+01  -3.850971e+02
   1.619807e+02  -2.537173e+02
   1.421163e+02  -5.754746e+01
  -1.272066e+02  -6.410734e+00
  -3.148769e+02  -1.897428e+02
  -9.948084e+01  -4.283071e+02
   5.015810e+02  -3.121091e+02
   7.189383e+02   1.354196e+02
   3.781563e+02   5.600630e+02
  -3.999793e+02   3.978551e+02
  -6.435684e+02  -1.078636e+02
  -2.690720e+02  -4.606900e+02
   2.904217e+02  -4.129359e+02
   5.282611e+02  -1.789115e+02
   3.361751e+02   2.349585e+02
   5.418891e+01   4.172479e+02
  -1.169469e+02   2.328600e+02
  -9.544731e+01  -1.776606e+02
   2.078978e+02  -3.693367e+02
   3.890582e+02   1.254285e+02
   1.466839e+02   6.222464e+02
  -3.533044e+02   5.802581e+02
  -5.127628e+02  -7.883640e+00
  -2.083290e+02  -5.452381e+02
   2.995451e+02  -2.320927e+02
   3.221272e+02   3.112835e+02
  -1.292362e+02   4.966318e+02
  -4.917167e+02   3.679677e+01
  -5.346488e+02  -3.692096e+02
  -1.922526e+02  -5.563034e+02
   3.659485e+02  -3.297809e+02
   5.785666e+02   2.153737e+01
   3.061446e+02   3.353016e+02
  -1.373075e+02   3.001823e+02
  -4.207142e+02   4.078943e+01
  -2.130959e+02  -9.604089e+01
   6.613573e+01  -8.649851e+01
   9.525274e+01   1.239631e+02
  -1.654471e+02   1.682727e+02
  -2.807060e+02  -7.183846e+01
  -9.396714e+01  -2.692892e+02
   2.020310e+02  -2.524948e+02
   2.944300e+02  -9.719925e+01
   2.255372e+02   6.196738e+01
  -3.715462e+01   2.507515e+02
  -2.987778e+02   3.342914e+02
  -3.570917e+02   2.119709e+02
  -2.602950e+02  -1.905413e+02
  -8.285490e+01  -4.475978e+02
   9.858528e+01  -3.616936e+02
   6.262520e+01  -1.611136e+02
   5.389616e+01  -4.273204e+01
   1.077888e+02  -8.680061e+01
   2.489972e+02  -1.048010e+02
   2.555983e+02   8.142869e+01
   1.037983e+02   2.804361e+02
  -9.106573e+01   2.327213e+02
  -1.779684e+02  -3.955471e+01
  -1.635837e+02  -2.466729e+02
   2.417177e+01  -2.709805e+02
   2.776837e+02  -8.360981e+01
   3.554401e+02   1.952117e+02
   1.612679e+02   3.481835e+02
  -1.438020e+02   2.704847e+02
  -1.960947e+02   1.132550e+02
  -1.418492e+02  -6.691907e+00
  -1.264733e+02   5.393028e+01
  -2.622326e+02   4.097642e+01
  -3.964340e+02  -9.395882e+01
  -3.327017e+02  -3.216470e+02
   4.603631e+01  -4.655429e+02
   3.843508e+02  -4.011730e+02
   4.954571e+02  -1.547203e+02
   2.909677e+02   1.418466e+02
   1.722088e+01   3.008655e+02
  -1.407718e+02   2.242216e+02
  -3.972843e+01   2.367208e+01
   1.144515e+02  -9.357583e+01
   1.950786e+02   2.035655e+01
   4.980081e+01   2.173990e+02
  -1.296055e+02   1.331035e+02
  -1.461902e+02  -7.471789e+01
   5.112855e+01  -1.807602e+02
   2.419100e+02   1.090735e+01
   1.490798e+02   2.624283e+02
  -5.055095e+01   3.577647e+02
  -2.407704e+02   1.832796e+02
  -3.321840e+02  -6.650193e+01
  -2.424457e+02  -2.753249e+02
  -6.582704e+01  -2.441840e+02
   1.044583e+02  -1.423359e+02
   1.826161e+02   2.337766e+01
   4.974768e+01   1.860429e+01
  -3.114432e+01  -3.178989e+01
  -6.460889e+00  -1.420656e+02
   1.160184e+02  -8.611043e+01
   1.511856e+02   3.816775e+01
   5.163801e+01   9.075755e+01
  -7.833418e+01  -1.285417e+01
  -5.698666e+01  -1.094200e+02
   1.470069e+02  -1.003012e+02
   3.247130e+02   2.199450e+01
   2.678922e+02   1.181713e+02
   9.186988e+00   2.624647e+02
  -2.008901e+02   2.414389e+02
  -2.615650e+02   9.747073e+01
  -1.424370e+02  -4.417860e+01
   1.163313e+01  -9.809979e+01
   7.384895e+01  -1.153947e+01
  -5.095058e+01   9.962652e+01
  -1.678886e+02   3.608146e+01
  -1.473197e+02  -1.171190e+02
  -7.890941e+01  -2.066209e+02
   1.037151e+02  -1.312055e+02
   1.130440e+02  -4.502725e+01
   6.858407e+01   3.715208e+01
  -1.374865e+01  -1.255575e+01
  -2.410594e+01  -1.130230e+02
   9.298531e+01  -1.163839e+02
   2.042547e+02   6.674811e+00
   1.629637e+02   1.517227e+02
  -2.270659e+01   2.003375e+02
  -1.745027e+02   1.253665e+02
  -1.671442e+02   1.213596e+01
  -5.695587e+01  -8.171758e+01
   5.861911e+01  -1.063105e+02
   6.484304e+01  -1.363051e+01
  -1.450845e+01   3.557143e+01
  -5.988664e+01   5.346966e+01
  -1.268319e+01  -4.572241e+01
   8.708275e+01   1.995156e+00
   1.421678e+02   8.160178e+01
   1.501943e+01   1.616049e+02
  -1.644526e+02   1.553349e+02
  -2.463965e+02   1.214757e+01
  -1.970099e+02  -1.691158e+02
  -3.296326e+01  -2.301168e+02
   1.032518e+02  -1.533413e+02
   1.385734e+02  -1.204442e+01
   6.926150e+01   7.043640e+01
  -8.282610e+00   2.568683e+00
   5.057597e+01   8.337384e+00
   8.975362e+01  -2.771147e+01
   3.862499e+01   6.535050e+01
  -4.391973e+01   8.865880e+01
  -1.231641e+02   3.225580e+01
  -1.010340e+02  -3.742319e+01
   2.777164e+01  -1.398506e+02
   1.276438e+02  -6.893908e+01
   2.084987e+02   7.381417e+01
   7.049263e+01   2.257532e+02
  -1.441636e+02   2.378815e+02
  -2.929118e+02   5.255047e+01
  -2.590248e+02  -8.949651e+01
  -9.009071e+01  -1.533164e+02
   7.822818e+01  -1.253537e+02
   1.158361e+02  -8.234856e+01
   6.466145e+01  -6.324586e+01
   7.567088e+01  -1.023180e+02
   1.077268e+02  -8.595080e+01
   1.074440e+02   5.275857e+01
   1.120224e+02   1.433031e+02
   4.466292e+01   2.497160e+02
  -1.068178e+02   1.679774e+02
  -1.613295e+02  -2.763185e+00
  -1.078301e+02  -1.368637e+02
  -1.513307e+01  -1.425268e+02
   6.270590e+01  -6.505920e+01
   3.721534e+01   2.361059e+01
  -6.211894e+00   5.247809e+01
  -2.711699e+01   2.461185e+01
   2.305068e+01   3.751867e+01
   8.968038e+01   3.666625e+01
   6.360997e+01   6.277656e+01
  -5.677145e+01   3.886341e+01
  -1.549446e+02  -1.516668e+01
  -1.573051e+02  -8.734014e+01
   1.872323e+01  -9.962376e+01
   1.347964e+02  -4.801342e+01
   1.361098e+02   1.718217e+01
   5.197481e+01   3.502057e+01
  -4.341150e+01   3.445142e+01
  -7.466732e+01  -3.028562e+01
  -6.721338e+00  -6.952630e+01
   5.140465e+01  -7.177761e+01
   6.982679e+01   6.995468e+00
   3.975398e+01   3.558270e+01
   2.145858e+01   1.796987e+01
   5.140734e+01  -1.756560e+00
   6.635156e+01   1.669011e+01
   5.731656e+01   7.908467e+01
  -9.851078e+00   1.301265e+02
  -9.615600e+01   1.600289e+02
  -1.689264e+02   1.168508e+01
  -1.223020e+02  -9.337798e+01
  -6.261277e+00  -1.342413e+02
   7.295102e+01  -3.935354e+01
   7.150111e+01   1.125729e+01
  -3.698644e+01   2.548273e+01
  -1.593182e+02  -5.117205e+01
  -6.326668e+01  -1.246337e+02
   8.391813e+01  -1.120844e+02
   1.926276e+02  -3.328029e+01
   1.686767e+02   4.823152e+01
   2.307277e+01   8.863162e+01
  -1.144219e+02   7.441043e+01
  -5.965422e+01   6.387559e+00
   2.869624e+01  -4.242223e+01
   8.109355e+01  -9.487922e-01
   2.915287e+01   1.190064e+02
  -7.748395e+01   1.699320e+02
  -1.727784e+02   6.959585e+01
  -1.129040e+02  -9.785875e+01
   2.713470e+00  -1.855249e+02
   5.814403e+01  -9.823761e+01
   7.631344e+01  -3.274644e+00
   5.988047e+01   1.162380e+02
  -2.105982e+01   1.021681e+02
  -5.695130e+01   3.798946e+01
  -3.036953e+01  -2.082462e+01
  -3.835326e+01   2.292802e+00
  -1.922782e+00   1.932505e+01
  -4.552035e+01   2.264294e+00
  -8.575003e+01  -7.913238e+01
  -3.943345e+01  -1.149504e+02
   6.371044e+01  -6.894132e+01
   1.384008e+02   4.664337e+01
   1.328574e+02   8.111548e+01
  -7.948132e+00   6.399156e+01
  -1.013026e+02   4.252430e+01
  -9.176233e+01  -6.504741e+00
  -1.551178e+01   1.924079e+01
   1.028131e+01  -3.592325e+01
   1.969912e+01  -4.200222e+01
  -5.549442e+00  -1.504788e+01
   5.025338e+00   1.401993e+01
   7.383253e+01  -8.293047e+00
   8.046136e+01   3.958818e+01
   4.589137e+00   9.680735e+01
  -9.430929e+01   1.099280e+02
  -1.772673e+02   6.335149e+01
  -1.310546e+02  -6.290783e+01
  -2.632376e+01  -1.661271e+02
   5.851065e+01  -1.370740e+02
   9.462256e+01  -8.341615e+01
   7.234248e+01   4.552071e+01
   1.397923e+01   4.800755e+01
  -1.364132e+01  -9.373562e+00
   2.138480e+01  -5.699486e+00
   1.729133e+01   4.186307e+01
   1.066086e+00   9.578064e+01
  -4.523919e+01   9.807115e+01
  -7.438343e+01  -1.261870e+01
  -9.608370e+01  -9.311420e+01
   2.416944e+00  -1.026993e+02
   7.325360e+01  -2.170136e+01
   9.065723e+01   9.552716e+01
   4.608052e+01   8.543696e+01
  -7.845451e+01   6.679830e+01
  -8.634129e+01  -2.698436e+01
  -3.727409e+01  -6.030423e+01
   3.554430e+01  -2.619337e+01
   5.531308e+00  -2.816167e+01
  -3.467213e+01   8.559451e+00
  -6.328336e+01  -1.325967e+00
  -1.489023e+01  -5.834679e+01
   7.363666e+01  -7.512444e+01
   1.026402e+02  -3.382961e+01
   5.147296e+01   4.121708e+01
   6.722097e+00   8.157053e+01
  -5.851401e+01   9.710987e+01
  -6.286211e+01  -1.117356e+01
   4.007151e+00  -5.681171e+01
   4.417607e+01  -3.834552e+01
   4.051291e+01   4.871040e+01
   3.916344e+01   5.790158e+01
  -7.132381e+00   3.036257e+01
  -1.890904e+01   1.013466e+01
  -4.701169e+01   9.688883e+00
  -2.244675e+01   1.352574e+01
  -1.003784e+00   1.077354e+01
  -1.973545e+01  -8.955226e+00
  -1.360640e+01  -3.999551e+01
   4.128011e+00  -3.437245e+01
   1.509292e+01  -1.976501e+01
   4.309529e+01   2.884362e+01
   4.355424e-01   5.520655e+01
  -4.399104e+01   3.932101e+01
  -4.566523e+01  -5.709508e+01
   3.772721e+00  -6.199140e+01
   7.524041e+01  -7.229143e-01
   7.863721e+01   1.144035e+01
   6.146959e+01   3.856410e+01
  -1.355130e+01   4.032668e+01
  -6.329347e+01   3.298254e+01
  -4.625317e+01   3.878047e+01
   4.308555e+01  -1.199188e+00
   3.784922e+01  -3.668633e+00
  -1.282706e+01   1.213009e+01
  -6.614879e+01   2.624539e+01
