
 $NMID
 id='ANONYMOUS ', fmtdat='(2E16.6)'
 volume=1.0
 tramp=1.0
 $END
   2.697499e+03  -1.114737e+02
   1.810658e+03   1.406756e+03
   3.928958e+01   1.863088e+03
  -1.057144e+03   1.241024e+03
  -8.351340e+02   1.468310e+02
   5.204623e+01  -1.866644e+02
   3.988211e+02   6.930586e+01
   9.179789e+01   3.997138e+02
  -3.373322e+02   4.591068e+02
  -4.961098e+02   9.005103e+01
  -3.326264e+02  -3.569278e+02
  -3.946956e+01  -5.179679e+02
   2.273172e+02  -2.271906e+02
   2.382669e+02   2.487719e+02
   3.565658e+01   4.866906e+02
  -2.699035e+02   1.379937e+02
  -2.423198e+02  -3.645684e+02
   1.043348e+02  -5.096851e+02
   3.198384e+02  -2.238281e+02
   3.292952e+02   5.131870e+01
   1.252327e+02   2.525903e+02
  -6.563099e+01   2.320699e+02
  -1.014420e+02   1.549340e+02
   1.105675e+02   8.785099e+01
   1.967738e+02   1.776827e+02
  -1.483575e+01   1.990370e+02
  -3.736675e+02   1.029984e+02
  -4.926439e+02  -1.377958e+02
  -2.095351e+02  -1.987814e+02
   1.369561e+02  -1.848046e+02
   3.487124e+02   6.367436e+01
   1.603093e+02   2.752428e+02
  -1.181712e+02   2.904944e+02
  -3.246307e+02   1.674190e+02
  -2.503693e+02  -7.635490e+01
  -1.225434e+02  -2.507070e+02
  -4.902784e+01  -1.906579e+02
  -7.668743e+00   1.004776e+01
  -9.411980e+01   1.214010e+02
  -1.482228e+02  -8.250391e+01
  -3.032726e+01  -3.237303e+02
   1.242097e+02  -3.329650e+02
   2.501265e+02  -7.227303e+01
   1.647262e+02   2.247797e+02
  -1.190992e+02   1.350471e+02
  -1.518607e+02  -1.701005e+02
   7.595506e+01  -2.780487e+02
   3.090308e+02  -7.107354e+01
   3.906200e+02   2.870657e+02
   1.220951e+02   3.651200e+02
  -2.081843e+02   2.241603e+02
  -3.884786e+02  -3.372431e+01
  -2.823482e+02  -1.670996e+02
   4.629038e+00  -1.983729e+02
   2.144968e+02  -9.561763e+01
   2.366567e+02  -1.225006e+01
   7.491590e+00   1.409166e+01
  -4.600096e+01  -2.453687e+01
   8.328415e+01  -2.991822e+01
   2.005893e+02  -9.206358e-01
   9.248362e+01   1.641792e+02
  -1.101417e+02   1.791375e+02
  -2.647313e+02   9.102314e+01
  -1.982424e+02  -8.256596e+01
   2.543441e+01  -2.275136e+02
   2.117794e+02  -2.806037e+02
   2.659386e+02  -1.175493e+02
   1.607884e+02   1.091179e+02
   6.645223e+01   2.577257e+02
  -2.506940e+01   2.944804e+02
  -1.543544e+01   1.735441e+02
  -4.331160e+01   9.104445e+01
  -1.033448e+02   6.902454e+01
  -2.122977e+02   4.378669e+01
  -1.386398e+02  -5.898316e+01
  -6.982220e+01  -1.982400e+02
   8.083244e+01  -1.526556e+02
   1.072858e+02   5.376812e+01
   1.184594e+02   1.585872e+02
  -2.416131e+01   1.983236e+02
  -1.786108e+02   4.924700e+01
  -2.134125e+02  -1.043102e+02
  -1.628456e+02  -1.910703e+02
   2.261095e+01  -2.010615e+02
   1.399939e+02  -1.575961e+02
   1.128621e+02  -1.164926e+02
   1.279960e+02  -4.459528e+01
   2.243812e+02  -4.557081e+00
   3.130869e+02   9.393760e+01
   2.253046e+02   2.448270e+02
  -9.939738e+00   3.434423e+02
  -2.942526e+02   2.925272e+02
  -3.672912e+02   1.401353e+02
  -2.156205e+02  -4.568775e+01
  -2.682174e+01  -1.565998e+02
   6.904864e+01  -1.653443e+02
   2.067139e+01  -5.341129e+01
  -6.759325e+01   1.638547e+01
  -1.021518e+02  -1.152386e+01
  -1.081910e+01  -7.562615e+01
   9.519930e+01  -8.093301e+01
   9.706076e+01   3.777650e+01
  -2.247089e+01   6.149847e+01
  -1.503556e+02  -4.164846e-01
  -1.145971e+02  -1.890640e+02
   2.605167e+00  -2.640020e+02
   2.095118e+02  -1.875890e+02
   2.800768e+02   5.010833e+01
   2.156969e+02   2.040328e+02
   5.104385e+01   1.939829e+02
  -7.334526e+01   1.065899e+02
  -1.111703e+02   1.559874e+01
  -4.755514e+01  -1.307047e+00
   2.685367e+01   2.995925e+01
  -1.412987e+01   4.652786e+01
  -8.220755e+01   4.263704e+01
  -1.027694e+02   4.684642e+00
  -3.568284e+00  -2.805132e+01
   4.641368e+01   8.173613e+00
   3.583614e+01   5.625704e+01
  -1.023650e+02   7.144885e+01
  -2.293144e+02  -3.377550e+01
  -2.101628e+02  -1.185275e+02
  -2.353115e+01  -1.778554e+02
   1.695445e+02  -1.701841e+02
   2.183777e+02  -8.517811e+01
   1.135201e+02   2.576179e+01
  -1.525161e+01   7.334933e+01
  -4.524107e+01   6.630907e+00
   3.185819e+01  -4.242283e+01
   1.665544e+02  -3.775200e+01
   1.548436e+02   8.061220e+01
   7.238604e+01   1.238140e+02
  -4.939481e+01   7.191168e+01
  -1.031071e+02   7.003562e+01
  -5.588234e+01  -1.312060e+01
   1.910496e+01  -2.226346e+00
   7.254054e-01   5.852040e+01
  -3.207590e+01   9.609409e+01
  -1.584946e+02   1.323692e+01
  -1.455713e+02  -1.122467e+02
   5.987335e-01  -1.416037e+02
   7.854607e+01  -1.272374e+02
   1.367627e+02  -3.800953e+01
   6.157697e+01   9.217883e+01
  -4.128273e+01   5.518196e+01
  -6.675035e+01   3.019000e+01
   3.461610e+01  -4.527279e+01
   2.813884e+01   1.080322e+01
  -2.277241e+01   2.704859e+01
  -7.552929e+01  -6.765891e+00
  -9.285728e+01  -8.471799e+01
   1.657497e+01  -1.282057e+02
   1.297150e+02  -1.157447e+02
   2.007733e+02   3.313291e+00
   1.833583e+02   1.108684e+02
   3.011636e+01   1.808570e+02
  -5.560657e+01   1.214066e+02
  -8.794869e+01   1.139125e+01
  -7.018089e+01  -3.392829e+01
  -4.528608e+01  -2.095367e+01
  -2.946252e+01   2.216184e+01
  -7.846762e+01  -8.246385e+00
  -8.142077e+01  -4.696041e+01
   4.476621e+01  -9.338775e+01
   1.065601e+02  -4.374250e+01
   6.458319e+01   3.706822e+01
  -2.508139e+01   1.114768e+02
  -1.199050e+02   8.326856e+01
  -1.768094e+02  -4.842857e+01
  -6.740751e+01  -1.803827e+02
   1.075277e+02  -1.675734e+02
   2.345259e+02  -6.942773e+01
   2.092813e+02   5.206208e+01
   1.011207e+02   1.182249e+02
  -2.033217e+01   9.165659e+01
  -6.083150e+01   5.918721e+01
  -5.827957e+01   6.185205e+01
  -2.867837e+01   7.727553e+01
  -7.418908e+01   4.600723e+01
  -7.450601e+01  -6.373987e+00
  -1.007748e+02  -1.244056e+02
  -1.424916e+01  -2.004969e+02
   7.953743e+01  -1.493842e+02
   1.670383e+02   1.639385e-01
   1.207685e+02   9.687449e+01
   8.753984e+00   1.117599e+02
  -5.727442e+01   6.397580e+01
  -4.518122e+01  -2.593116e+01
   1.747567e+01  -8.128097e+01
   2.226986e+01  -3.380108e+01
  -2.838264e+01  -1.608008e+01
  -5.969262e+01  -1.238803e+01
  -1.945028e+01  -2.289105e+01
   7.613882e+01  -4.158359e+01
   1.511921e+02   8.346314e+00
   1.111015e+02   5.810547e+01
  -2.087602e+00   7.579380e+01
  -7.900855e+01   7.576128e+01
  -1.248530e+02   9.291373e+00
  -4.802688e+01  -3.639143e+01
   6.763838e+01  -2.749181e+01
   4.645078e+01   3.593286e+01
   2.583807e+01   3.924568e+01
  -2.520932e+01   3.324351e+01
  -4.126563e+01   1.017477e+01
  -4.111688e+01  -1.666850e+01
  -5.213554e+01  -3.133176e+01
  -6.399277e+01   6.050050e+00
  -4.530575e+01   2.958455e-01
  -2.155892e+01  -6.279585e+01
   9.787291e+00  -1.031778e+02
   9.693308e+01  -1.080406e+02
   1.607811e+02  -3.686527e+01
   1.191955e+02   8.542111e+01
   2.187817e+00   1.089924e+02
  -7.206446e+01   7.854868e+01
  -6.542766e+01   2.051100e+01
   5.681840e+01  -1.832869e+01
   8.955298e+01   2.597986e+01
   5.039421e+01   9.166731e+01
  -7.252699e+01   7.565316e+01
  -1.601729e+02   3.080702e+01
  -1.334431e+02  -4.836191e+01
  -3.262090e+01  -4.825906e+01
   4.996750e+01  -5.487945e+01
   4.205424e+01  -3.169750e+00
  -3.021662e+01   7.540794e+00
  -1.018744e+02  -1.580314e+01
  -2.535804e+01  -1.032730e+02
   7.252645e+01  -1.163804e+02
   1.447898e+02  -4.717390e+01
   9.554259e+01   7.147432e+01
   9.152402e+00   1.730048e+02
  -4.082276e+01   1.063209e+02
  -8.684354e+01  -1.359206e+01
  -6.587472e+01  -8.131925e+01
   1.067565e+01  -8.950617e+01
   3.624401e+01   3.232226e+00
  -1.533092e+01   3.413496e+01
   1.156889e+01   8.892312e+00
   6.354892e+00  -2.219718e+01
   1.405817e+01   2.485021e+00
   6.622460e+01   6.899208e+01
   1.679244e+01   1.093825e+02
  -3.535093e+01   2.025387e+01
  -1.115867e+02  -2.889660e+00
  -1.163336e+02  -5.483608e+01
   4.569530e-01  -5.505229e+01
   1.095414e+02  -3.704512e+01
   6.243431e+01   1.133613e+01
  -1.160970e+00   2.922714e+01
  -3.871716e+01   2.415052e+01
  -1.221440e+01   2.376268e+01
   3.454100e+01  -2.562557e+01
   1.466225e+01  -3.247557e+01
  -3.334739e+01   1.228248e+00
  -5.834189e+01  -1.710310e+01
  -3.264094e+00  -8.081125e+01
   7.462747e+01  -1.044633e+02
   1.503676e+02  -4.324122e+01
   1.455866e+02   5.546760e+01
   2.952122e+01   1.054984e+02
  -6.491698e+01   1.403267e+02
  -1.105537e+02   6.217694e+01
  -5.721049e+01  -2.474400e+01
  -1.288896e+01  -3.016329e+01
  -1.151900e+01  -3.022452e+00
  -4.948934e+00  -1.903581e+01
  -2.368973e+01  -5.796160e+01
  -1.362574e+01  -8.683144e+01
   3.583705e+01  -6.410123e+01
   7.213166e+01   2.240383e+01
   7.182123e+01   8.615368e+01
   2.262015e+01   1.166953e+02
  -5.206454e+01   3.477154e+01
  -1.027322e+02  -2.098958e+01
  -2.482661e+01  -9.630202e+01
   5.566105e+01  -3.907866e+01
   6.593002e+01  -5.501358e+00
   3.392001e+01   6.270503e+01
  -2.551708e+01   2.886333e+01
  -4.794570e+01   9.624157e+00
   5.664212e+00  -1.457640e+01
   3.615937e+01  -2.048521e+01
   9.549285e+00   6.611798e+00
  -5.543584e+01   4.862094e+01
  -8.703999e+01   4.480146e+01
  -4.150482e+01  -1.018848e+01
  -9.445670e+00  -5.742084e+01
   3.617026e+01  -5.593656e+01
   5.744636e+01  -2.088259e+00
   6.958574e+00   4.240989e+01
  -6.754555e+01   8.230902e+00
  -2.945628e+01  -2.611023e+01
  -3.343745e+01  -5.311852e+01
   2.292174e+00  -2.316040e+01
   4.906934e+01  -6.657213e+00
   2.732900e+01   2.959024e+01
   2.973422e+01  -9.884816e+00
  -2.088931e+01  -9.916426e+00
   8.477498e+00   2.857987e+00
  -6.665221e+00   1.671500e+01
  -3.341446e+00   6.260777e+01
  -3.002663e+01   3.985209e+00
  -2.744962e+01  -3.308167e+01
   2.869833e+01  -4.045601e+01
   1.891944e+01  -1.052140e+01
   6.090123e+01   3.847705e+01
   7.723465e-01   2.946127e+01
  -3.846857e+01   4.597436e+01
  -7.150158e+01   1.614078e+01
  -5.650727e+01  -2.907766e+01
   2.640842e+01  -4.128682e+01
   5.320018e+01  -3.551427e+01
   3.092202e+01  -8.936825e+00
  -2.784594e+01   9.166138e+00
  -3.488274e+01   7.626855e+00
   9.094383e+00  -2.273827e+01
   5.980500e+01  -2.488885e+01
