
 $NMID
 id='ANONYMOUS ', fmtdat='(2E16.6)'
 volume=1.0
 tramp=1.0
 $END
   3.387523e+03  -2.671764e+02
   2.379812e+03   1.922607e+03
  -2.141043e+02   2.240309e+03
  -1.382547e+03   1.068541e+03
  -9.439528e+02  -9.757405e+01
   2.265534e+02  -3.729357e+02
   4.976558e+02   1.756892e+02
   9.659244e+01   7.342071e+02
  -5.503209e+02   6.868755e+02
  -7.849574e+02   8.723249e+00
  -4.464615e+02  -6.921122e+02
   9.597641e+01  -7.128887e+02
   4.628324e+02  -1.082689e+02
   2.282749e+02   5.618668e+02
  -2.180831e+02   6.041105e+02
  -4.672144e+02  -1.830519e+01
  -2.280789e+02  -5.940835e+02
   1.558122e+02  -6.021212e+02
   5.187400e+02  -1.432451e+02
   3.970216e+02   2.222082e+02
   5.977600e+01   3.728805e+02
  -1.901093e+02   2.245758e+02
  -1.185709e+02  -6.053696e+00
   1.729820e+02   9.173145e+00
   3.171707e+02   2.260541e+02
   9.049702e+01   3.729280e+02
  -4.345089e+02   2.708468e+02
  -6.541502e+02  -1.243829e+02
  -3.165447e+02  -4.523814e+02
   3.215231e+02  -2.847550e+02
   5.641352e+02   7.711944e+01
   2.572447e+02   3.933335e+02
  -2.898787e+02   4.318628e+02
  -4.864828e+02   1.526930e+02
  -3.486945e+02  -1.979588e+02
  -7.711359e+01  -3.483741e+02
   8.968362e+01  -1.680586e+02
   5.232134e+00   1.480915e+02
  -1.485389e+02   3.046793e+02
  -2.773695e+02  -7.661750e+01
  -1.601458e+02  -4.880474e+02
   2.055615e+02  -4.907495e+02
   4.099979e+02   2.044648e+01
   2.245365e+02   3.559690e+02
  -1.944321e+02   2.051829e+02
  -2.251686e+02  -2.665015e+02
   4.480159e+01  -4.161416e+02
   4.921311e+02  -7.379842e+01
   5.102190e+02   3.292009e+02
   1.507138e+02   5.171594e+02
  -2.860206e+02   3.100421e+02
  -5.367905e+02  -5.687711e+01
  -3.637198e+02  -2.716148e+02
   6.950491e+01  -2.890520e+02
   3.054068e+02  -8.958338e+01
   2.079135e+02   8.512828e+01
  -5.110014e+01   4.173162e+01
  -9.735069e+01  -8.687672e+01
   9.626212e+01  -8.055292e+01
   2.857587e+02   5.301062e+01
   1.666433e+02   2.009741e+02
  -1.590738e+02   2.245780e+02
  -3.065663e+02   9.869153e+01
  -2.321102e+02  -1.459480e+02
   2.116378e+01  -2.856227e+02
   2.460942e+02  -3.863096e+02
   3.152505e+02  -1.729422e+02
   2.571034e+02   1.524986e+02
   7.045608e+01   3.440672e+02
  -7.992160e+01   2.964915e+02
  -4.274744e+01   9.435219e+01
  -1.058659e+01   5.179014e+01
  -9.166532e+01   1.109837e+02
  -2.062889e+02   1.025607e+02
  -2.363302e+02  -8.388255e+01
  -1.145879e+02  -2.358607e+02
   7.876530e+01  -2.012744e+02
   2.000182e+02   2.531315e+01
   1.422485e+02   2.409973e+02
  -4.693967e+01   2.296321e+02
  -2.253813e+02   8.932231e+01
  -3.115803e+02  -1.524085e+02
  -1.688480e+02  -2.859493e+02
   8.087312e+01  -2.695079e+02
   1.910433e+02  -1.477478e+02
   1.083240e+02  -1.555556e+01
   9.238234e+01  -7.532925e+01
   2.228350e+02  -5.907974e+01
   3.593130e+02   6.853102e+01
   3.000788e+02   2.814218e+02
   7.042400e+00   4.149033e+02
  -3.647356e+02   3.811493e+02
  -4.378045e+02   1.318046e+02
  -3.108738e+02  -9.928064e+01
  -5.441370e+01  -2.120843e+02
   8.837136e+01  -2.254481e+02
   6.786270e+00  -3.370341e+01
  -1.063628e+02   7.630711e+01
  -1.652567e+02  -4.133769e+01
  -2.114441e+01  -1.606555e+02
   1.453331e+02  -1.189545e+02
   1.356264e+02   5.440876e+01
  -1.647294e+00   1.580002e+02
  -1.678096e+02   1.612037e-02
  -1.509112e+02  -2.154030e+02
   4.327037e+01  -3.162915e+02
   2.106245e+02  -2.248491e+02
   3.320379e+02   6.873227e+01
   2.726952e+02   2.336067e+02
   4.403275e+01   2.341530e+02
  -1.244627e+02   1.241657e+02
  -1.472353e+02   1.059886e+01
  -1.471299e+00  -2.991221e+01
   4.911253e+01   9.315369e+01
   1.985791e+01   1.173007e+02
  -1.291934e+02   7.842082e+01
  -1.518540e+02  -4.380076e+01
  -8.504865e+00  -6.812539e+01
   7.320707e+01   8.213725e+00
   5.793690e+01   8.285397e+01
  -1.407345e+02   9.472670e+01
  -2.839455e+02  -3.442223e+01
  -2.338860e+02  -1.521703e+02
  -4.736907e+01  -2.665245e+02
   1.893918e+02  -2.273213e+02
   2.390099e+02  -1.036585e+02
   1.306159e+02   2.987625e+01
  -1.739890e+01   7.221827e+01
  -8.476774e+01  -3.767769e+00
   7.747638e+01  -8.740109e+01
   1.966155e+02  -1.859682e+01
   2.298587e+02   1.374869e+02
   3.679002e+01   2.153406e+02
  -1.014219e+02   1.228471e+02
  -1.267850e+02   1.085918e+01
  -3.434007e+01  -4.676596e+01
   3.006406e+01   2.231637e+01
   1.230966e+01   7.514787e+01
  -8.001430e+01   1.121094e+02
  -1.893061e+02   2.287367e+01
  -1.913983e+02  -1.169522e+02
   2.556954e+00  -1.965160e+02
   1.561996e+02  -1.292245e+02
   1.637198e+02  -1.149994e+01
   4.857157e+01   9.635400e+01
  -7.252741e+01   8.257798e+01
  -5.961195e+01   3.931288e+01
  -5.739348e+00  -5.437392e+01
   1.788389e+01  -2.455086e+01
  -5.664288e+00   2.180908e+01
  -9.891853e+01   1.658255e+01
  -1.035649e+02  -7.995521e+01
  -2.075981e+01  -1.572044e+02
   1.510120e+02  -1.355571e+02
   2.453952e+02  -3.423048e+01
   1.943994e+02   1.527403e+02
   3.114453e+00   1.923765e+02
  -1.003591e+02   1.147540e+02
  -1.345793e+02   3.071578e+01
  -4.948880e+01  -3.762442e+01
  -5.491772e+01  -4.310777e+01
  -6.534200e+01   1.172787e+01
  -7.123816e+01  -5.492320e+00
  -5.558180e+01  -6.213031e+01
   3.009493e+01  -1.146214e+02
   1.110888e+02  -6.338875e+01
   1.113579e+02   2.625264e+01
  -6.252633e+00   1.380618e+02
  -1.286467e+02   8.437183e+01
  -1.876521e+02  -5.004778e+01
  -9.036161e+01  -2.069123e+02
   1.224776e+02  -2.223121e+02
   2.673757e+02  -9.390613e+01
   2.407052e+02   8.169101e+01
   7.947409e+01   1.609482e+02
  -6.145692e+01   1.200114e+02
  -8.688442e+01   3.589009e+01
  -4.984854e+01   5.082968e+01
  -5.778871e+01   7.790364e+01
  -5.749036e+01   1.101228e+02
  -1.206992e+02   6.144807e+00
  -9.740920e+01  -1.487425e+02
  -3.261599e+01  -2.004137e+02
   9.187513e+01  -1.335693e+02
   1.653382e+02  -3.685633e+00
   9.343534e+01   1.366554e+02
  -1.064347e+01   1.429207e+02
  -6.259226e+01   5.083689e+01
  -5.252391e+01  -1.627341e+01
  -6.224598e+00  -2.473199e+01
   5.118585e+01  -5.131693e+01
  -5.407939e+01  -1.914507e+01
  -7.278601e+01  -3.578568e+01
  -5.424358e+01  -1.701320e+01
   6.864996e+01  -4.261745e+01
   1.732376e+02   6.451213e+00
   1.339195e+02   3.980865e+01
   3.272772e+01   8.555432e+01
  -9.680023e+01   8.245402e+01
  -1.415259e+02   1.388506e+01
  -4.228946e+01  -3.274609e+01
   4.533647e+01  -4.811067e+01
   3.986239e+01   2.311661e+01
   2.643454e+01   5.921849e+01
  -2.348273e+01   6.910154e+01
  -5.233048e+01  -1.266189e+00
  -5.108012e+01  -2.430096e+01
  -3.983415e+01  -4.303534e+01
  -4.058583e+01  -8.478527e+00
  -4.292160e+01   3.049139e+01
  -4.767811e+01  -6.299781e+01
   1.051159e+01  -1.269801e+02
   1.112194e+02  -1.551969e+02
   1.610197e+02  -3.573232e+01
   1.404453e+02   7.187665e+01
  -8.932814e-02   1.301290e+02
  -7.238880e+01   5.346244e+01
  -6.450147e+01  -2.201918e+01
   5.634812e+01  -3.645512e+01
   1.428869e+02   5.231530e+01
   6.367290e+01   1.060378e+02
  -5.874605e+01   9.518512e+01
  -1.850791e+02   5.324217e+01
  -1.591168e+02  -4.090733e+01
   1.042080e+01  -7.885199e+01
   7.315195e+01  -7.021186e+01
   4.941891e+01  -2.703785e+01
  -3.544735e+01   5.873868e+00
  -1.026569e+02  -1.240731e+01
  -1.201564e+01  -8.136527e+01
   7.886357e+01  -1.466890e+02
   1.635573e+02  -6.437232e+01
   1.043159e+02   9.872002e+01
  -9.137641e+00   1.713852e+02
  -8.630677e+01   1.002549e+02
  -1.099032e+02  -1.136776e+01
  -5.877549e+01  -1.020269e+02
   3.894066e+00  -6.950928e+01
   6.538493e+01  -1.574750e+01
   4.202729e+01   1.835088e+01
   3.099117e+01  -1.636281e+01
   2.709712e+00   1.053306e+01
   2.649766e+01   2.374852e+01
   4.635587e+01   8.174485e+01
   2.223016e+01   1.167667e+02
  -3.591284e+01   4.506596e+01
  -1.442352e+02   4.210444e-01
  -9.087852e+01  -6.656618e+01
   1.337015e+00  -4.347722e+01
   8.863916e+01  -2.285036e+01
   6.351336e+01  -2.173202e+01
   8.995540e+00   1.149005e+01
  -4.521141e+01   1.201241e+01
  -1.462571e+01  -2.439561e+00
   2.084781e+01   3.245688e-01
   5.361616e+00  -4.319418e+00
  -6.488577e+01  -1.820343e+01
  -8.814339e+01   8.855849e+00
  -2.093750e+01  -5.448887e+01
   6.569156e+01  -1.507342e+02
   1.809302e+02  -6.145619e+01
   1.319124e+02   8.227467e+01
   2.097098e+01   1.228783e+02
  -7.459951e+01   1.796181e+02
  -8.598311e+01   6.802632e+01
  -8.335332e+01  -1.326935e+01
  -5.548407e+01  -3.477151e+01
  -5.198889e+00  -1.293552e+01
   3.758220e+00   1.093707e+01
  -2.960748e+01  -4.693948e+01
  -3.483120e+01  -1.032531e+02
   2.360881e+01  -7.054493e+01
   9.210424e+01   1.823588e+01
   9.311501e+01   8.433503e+01
   8.474116e+00   1.147573e+02
  -6.386713e+01   1.707544e+01
  -1.061876e+02  -3.709066e+01
  -4.195870e+01  -8.295017e+01
   5.585200e+01  -6.040719e+01
   8.925493e+01   3.342641e+01
   5.715596e+01   6.078044e+01
  -2.060296e+01   3.995587e+01
  -4.329460e+01   1.758932e+01
   1.455197e+01  -3.790467e+01
   6.302459e+01  -3.127149e+01
   2.208484e+01   5.233626e+01
  -6.053606e+01   4.532915e+01
  -1.432419e+02   6.138849e+01
  -2.324525e+01  -1.091846e+01
   2.402969e+01  -7.185948e+01
   5.814083e+01  -5.370742e+01
   4.339789e+01  -3.614073e+00
  -8.183919e+00   5.694343e+01
  -4.514524e+01   1.882068e+01
  -1.661923e+01   9.851866e+00
  -5.070575e+01  -4.694281e+01
   5.380694e+00  -4.757403e+01
   6.129372e+01   1.554886e+01
   3.659640e+01   4.467686e+01
   1.255840e+01  -5.785870e+00
  -3.740157e+00  -2.410252e+01
  -4.441530e+00  -2.112282e+01
  -5.656972e+00   2.798153e+01
  -5.595624e+00   7.721542e+01
  -3.227532e+00   1.367886e+01
  -3.479044e+01  -3.180305e+01
  -1.471025e+01  -6.123048e+01
   1.355563e+01   2.760069e-02
   4.169413e+01   2.938730e+01
   4.283329e+00   6.515407e+01
  -8.525035e+01   2.607500e+01
  -8.249046e+01  -1.500638e+01
  -4.665653e+01  -5.760235e+01
   2.428531e+01  -6.023064e+01
   4.648916e+01  -1.326882e+00
   1.136912e+01   1.532956e+01
  -5.368655e+01   1.639199e+01
  -2.893298e+01   2.261658e+00
   1.998747e+01  -3.791052e+01
   6.455124e+01  -1.370568e+01
