
 $NMID
 id='ANONYMOUS ', fmtdat='(2E16.6)'
 volume=1.0
 tramp=1.0
 $END
  -4.291033e+03  -1.448329e+01
  -2.340627e+03  -2.428025e+03
   6.286725e+02  -2.535482e+03
   1.992137e+03  -8.657912e+02
   8.175113e+02   5.356471e+02
  -6.029802e+02   5.706354e+02
  -8.353114e+02  -3.200950e+02
  -4.507379e+01  -1.026104e+03
   6.875307e+02  -7.763687e+02
   9.039141e+02   1.016014e+02
   3.655992e+02   7.936439e+02
  -2.136522e+02   8.616700e+02
  -6.366970e+02   1.382859e+02
  -4.374316e+02  -6.044529e+02
   2.669925e+02  -7.616826e+02
   5.984606e+02   2.666878e+00
   3.054541e+02   6.960595e+02
  -3.044746e+02   6.046991e+02
  -5.870306e+02   1.526381e+02
  -3.875700e+02  -3.309212e+02
  -1.704754e+01  -4.311994e+02
   2.792916e+02  -2.583257e+02
   1.960900e+02  -1.011054e+01
  -1.316969e+02   1.038010e+02
  -4.043402e+02  -1.203908e+02
  -1.741655e+02  -3.974594e+02
   4.694741e+02  -4.044924e+02
   8.349033e+02   1.543585e+01
   4.302198e+02   5.232499e+02
  -3.408291e+02   5.074266e+02
  -7.205437e+02  -4.989960e+01
  -3.152046e+02  -4.892810e+02
   2.971568e+02  -5.194640e+02
   5.609729e+02  -1.936016e+02
   4.161230e+02   2.429659e+02
   6.511124e+01   4.452927e+02
  -1.746440e+02   2.580917e+02
  -1.630600e+02  -2.408010e+02
   2.019935e+02  -4.006555e+02
   4.445045e+02   5.999999e+01
   1.858406e+02   6.379572e+02
  -3.045291e+02   6.453750e+02
  -5.650268e+02   2.644954e+01
  -2.653763e+02  -4.917040e+02
   2.201605e+02  -2.923020e+02
   3.911408e+02   3.158281e+02
  -6.930940e+01   4.868363e+02
  -5.409891e+02   1.235549e+02
  -5.584369e+02  -4.034718e+02
  -1.460026e+02  -5.547317e+02
   3.619428e+02  -3.408982e+02
   6.242233e+02   9.718916e+01
   3.544747e+02   3.760795e+02
  -1.324750e+02   3.186770e+02
  -4.130906e+02   7.236000e+01
  -2.414453e+02  -1.865937e+02
   7.967871e+01  -1.160409e+02
   1.383546e+02   1.450423e+02
  -1.363624e+02   1.948496e+02
  -3.346408e+02  -8.475333e+01
  -1.141968e+02  -2.763197e+02
   1.787770e+02  -2.724314e+02
   3.270596e+02  -8.956943e+01
   2.264265e+02   1.171622e+02
  -7.390362e+00   2.420835e+02
  -2.234407e+02   3.341667e+02
  -3.359934e+02   2.193716e+02
  -2.799183e+02  -1.443330e+02
  -7.205807e+01  -3.745131e+02
   1.025299e+02  -4.083160e+02
   1.437246e+02  -9.123822e+01
   2.718250e+01   1.054049e+01
   3.463331e+01  -1.065015e+02
   1.935570e+02  -1.348573e+02
   2.360846e+02   4.629850e+01
   1.769119e+02   2.447299e+02
  -8.949985e+01   2.503383e+02
  -2.292758e+02  -9.244138e+00
  -1.919043e+02  -2.331438e+02
   4.033986e+00  -2.900804e+02
   2.718557e+02  -1.060542e+02
   3.371433e+02   1.751887e+02
   2.060292e+02   3.402159e+02
  -1.101921e+02   2.989982e+02
  -2.406309e+02   1.291477e+02
  -1.470123e+02  -7.650806e-01
  -1.103030e+02   6.279404e+01
  -2.240901e+02   6.248286e+01
  -3.732430e+02  -4.310452e+01
  -3.245892e+02  -2.524921e+02
  -2.281998e+01  -4.150627e+02
   3.181664e+02  -3.830881e+02
   4.909201e+02  -2.097170e+02
   3.105318e+02   1.001817e+02
   6.579765e+01   2.784820e+02
  -9.652944e+01   2.756627e+02
  -5.531920e+01   5.671525e+00
   1.173423e+02  -9.986901e+01
   2.055820e+02   2.909740e+01
   4.905454e+01   1.712475e+02
  -1.722463e+02   1.540917e+02
  -1.774837e+02  -6.211931e+01
  -5.979149e+00  -1.685940e+02
   1.874829e+02  -5.070845e+01
   1.548020e+02   2.065766e+02
   1.405835e+01   3.694234e+02
  -2.287904e+02   1.992188e+02
  -3.248620e+02  -2.040677e+01
  -2.689902e+02  -2.474212e+02
  -1.089670e+02  -2.763089e+02
   1.100614e+02  -1.475340e+02
   2.026524e+02  -1.182653e+01
   8.105263e+01   3.925116e+01
  -9.290608e+01   8.917234e+00
  -6.437132e+01  -1.299653e+02
   1.370235e+02  -1.239270e+02
   1.900558e+02  -1.122169e+01
   5.804422e+01   9.488696e+01
  -9.847490e+01   4.531386e+01
  -5.975036e+01  -7.371769e+01
   1.196476e+02  -7.842474e+01
   2.750904e+02  -7.935691e+00
   2.814543e+02   1.294954e+02
   4.675107e+01   2.328887e+02
  -1.728392e+02   2.507164e+02
  -3.052582e+02   1.449308e+02
  -2.017732e+02  -8.253213e+01
   3.154709e+01  -1.202169e+02
   9.408984e+01  -6.279173e+00
  -2.089521e+01   9.744390e+01
  -1.747762e+02   6.925265e+01
  -2.093610e+02  -8.662820e+01
  -7.369112e+01  -2.062164e+02
   4.918753e+01  -1.686337e+02
   1.310035e+02  -3.811652e+01
   4.780994e+01   2.844639e+01
  -9.519338e+00  -1.307165e-01
  -4.253765e+01  -8.588878e+01
   5.800149e+01  -1.368301e+02
   1.869866e+02  -1.366934e+01
   2.270674e+02   1.124739e+02
   1.529061e+01   1.991743e+02
  -1.577414e+02   1.883057e+02
  -2.048729e+02  -1.119374e+00
  -5.923076e+01  -1.200976e+02
   6.021527e+01  -1.084711e+02
   1.019157e+02  -2.303717e+01
   3.227989e+01   1.926916e+01
  -1.909648e+01   4.232814e+01
  -9.553373e+00   3.196649e+00
   7.039393e+01  -2.885564e+00
   9.006938e+01   7.884246e+01
   2.265174e+01   1.387594e+02
  -1.186293e+02   1.510179e+02
  -2.159054e+02   4.262266e+00
  -2.209645e+02  -1.399302e+02
  -7.651182e+01  -2.584551e+02
   9.543674e+01  -1.733235e+02
   1.538693e+02  -4.616732e+01
   8.243826e+01   5.921392e+01
   2.239818e+01   2.854748e+01
   7.096224e+01  -1.153849e+01
   7.819325e+01  -1.069511e+01
   4.291556e+01   3.276761e+01
  -5.304008e+01   7.368445e+01
  -7.368368e+01   6.904805e+01
  -1.313310e+02  -3.976906e+01
  -1.571926e+01  -1.127441e+02
   1.245690e+02  -8.424306e+01
   1.986906e+02   7.501064e+01
   1.163678e+02   2.037105e+02
  -8.720903e+01   2.337332e+02
  -2.566563e+02   5.755254e+01
  -2.603999e+02  -7.732292e+01
  -1.215769e+02  -1.726084e+02
   4.805468e+01  -1.328144e+02
   9.905653e+01  -8.752024e+01
   8.511579e+01  -6.287707e+01
   6.763990e+01  -9.417591e+01
   9.120716e+01  -4.431830e+01
   1.189198e+02   9.631042e+00
   1.314641e+02   1.236949e+02
   2.833376e+01   2.253700e+02
  -9.179749e+01   1.912338e+02
  -1.548322e+02   1.309554e+01
  -1.163874e+02  -1.036698e+02
  -1.094034e+01  -1.402711e+02
   6.429891e+01  -1.015486e+02
   5.011585e+01   9.258182e+00
  -1.800775e+01   3.460282e+00
  -4.694099e+00   3.570911e+01
   4.097304e+01   1.283173e+01
   6.368424e+01   5.165537e+00
   3.863380e+01   5.208254e+01
  -5.900898e+01   2.460138e+01
  -1.485641e+02  -4.663116e+00
  -1.562886e+02  -4.778465e+01
   1.536208e+00  -9.665194e+01
   1.287364e+02  -6.240378e+01
   1.574659e+02  -1.893495e+01
   3.739752e+01   7.053433e+01
  -6.882585e+01   4.638631e+01
  -6.888415e+01  -3.219690e+01
  -2.322891e+01  -6.778661e+01
   4.996911e+01  -8.332537e+01
   4.777058e+01  -4.261705e+00
   4.498716e+01   3.030990e+01
   5.845564e+01   3.623696e+01
   5.351438e+01  -1.511019e+01
   6.613367e+01   2.162277e+01
   2.399508e+01   5.933140e+01
  -1.744533e+01   1.103128e+02
  -1.236365e+02   1.364271e+02
  -1.694718e+02   3.661842e+01
  -8.429407e+01  -6.624645e+01
  -2.737082e+01  -1.145796e+02
   7.542375e+01  -7.570436e+01
   7.505056e+01  -7.926668e+00
  -7.015866e+01   5.016954e+01
  -1.396919e+02  -3.565423e+01
  -7.236616e+01  -1.265455e+02
   8.895635e+01  -9.724732e+01
   1.486993e+02  -4.052612e+01
   1.441293e+02   3.853007e+01
   3.676355e+01   9.906873e+01
  -5.777266e+01   7.482598e+01
  -5.333462e+01   8.801609e+00
   2.519975e+01  -3.500463e+01
   9.300682e+01   3.783138e+01
   3.960534e+01   1.136599e+02
  -1.122520e+02   1.512370e+02
  -1.388793e+02   3.745388e+01
  -9.661033e+01  -9.463738e+01
   5.268003e+00  -1.866218e+02
   8.028065e+01  -1.335084e+02
   1.013596e+02  -4.177400e+00
   6.341298e+01   1.083273e+02
   7.971619e+00   1.116787e+02
  -3.692961e+01   9.484772e+00
  -4.679104e+01  -1.150369e+01
  -2.713267e+01  -7.983546e+00
  -1.759496e+01   2.536109e+01
   2.897812e+00  -9.692617e-01
  -6.108591e+01  -8.333397e+01
  -3.219289e+01  -6.836096e+01
   4.998550e+01  -4.842497e+01
   1.169889e+02   5.483683e+01
   1.237267e+02   8.023994e+01
   2.457914e+01   7.749972e+01
  -5.970456e+01  -2.082788e+00
  -7.895209e+01  -9.290419e+00
  -1.703957e+00   2.200382e-02
   2.301944e+01  -3.645707e+01
   4.988989e+00   8.706380e+00
  -6.416633e+00   1.328325e+01
   4.368146e+00   4.160967e+00
   8.106369e+01   2.415989e+00
   5.800488e+01   2.772949e+01
  -5.875334e+00   7.616158e+01
  -8.983249e+01   1.215505e+02
  -2.008164e+02   7.526050e+01
  -1.402753e+02  -5.693269e+01
  -3.493475e+01  -1.757909e+02
   7.829629e+01  -1.504211e+02
   1.232601e+02  -3.733321e+01
   7.932436e+01   6.305111e+01
   1.352914e+01   1.250506e+01
  -4.259756e+00   4.683862e+00
   2.865769e+01  -3.157073e+01
   3.389026e+01   4.072389e+01
   4.190089e+01   1.047856e+02
  -3.114067e+01   8.572215e+01
  -6.033181e+01  -1.846886e+01
  -1.051505e+02  -8.452997e+01
  -2.513090e+01  -1.220990e+02
   7.038280e+01  -3.710240e+01
   1.232991e+02   9.127090e+01
   4.178117e+01   1.106188e+02
  -8.990468e+01   6.080018e+01
  -8.064722e+01  -2.065059e+01
  -3.053020e+01  -7.507502e+01
   5.367791e+01  -5.216983e+01
   1.843869e+01  -1.914860e+01
  -2.346068e+01   1.874496e+01
  -5.306287e+01  -2.857884e+01
  -1.265525e+01  -2.893680e+01
   9.017439e+01  -5.068606e+01
   1.210129e+02  -6.956769e+01
   7.885325e+01   2.765236e+01
  -2.325931e+01   9.030727e+01
  -4.423348e+01   7.744688e+01
  -4.003817e+01  -1.099301e+01
  -4.174677e+00  -5.324603e+01
   3.055035e+01  -4.902683e+01
   4.382397e+01  -1.304376e+01
   7.539615e+00   6.043458e+01
   9.490754e+00   5.282382e+01
  -2.183224e+01  -8.564800e+00
  -4.154134e+01  -2.215341e+01
  -1.897963e+01   4.205749e+00
   1.943584e+01   3.925362e+01
  -1.079360e+01  -2.773194e+01
  -1.485363e-01  -3.031945e+01
  -2.149717e+00  -5.904391e+01
   3.953526e+01  -1.209253e+01
   5.551109e+01   3.934772e+01
   7.271789e+00   5.089760e+01
  -5.856673e+01   2.916934e+01
  -5.081158e+01  -3.468694e+01
  -2.057956e+01  -6.616711e+01
   4.804836e+01  -5.189115e+01
   9.369239e+01   3.504851e+01
   3.121353e+01   7.315578e+01
  -3.482439e+01   3.042706e+01
  -5.934814e+01  -2.296537e+00
  -2.220532e+01   2.849611e-01
   1.470763e+01   8.498576e+00
   5.445022e+01   2.771310e+01
  -6.153148e+00   3.364454e+01
  -8.780855e+01   1.332966e+01
