
 $NMID
 id='ANONYMOUS ', fmtdat='(2E16.6)'
 volume=1.0
 tramp=1.0
 $END
   3.888852e+03  -4.262315e+02
   2.573972e+03   2.299883e+03
  -3.123616e+02   2.629325e+03
  -1.900686e+03   1.168934e+03
  -9.858142e+02  -4.231654e+02
   4.616214e+02  -3.904231e+02
   7.735042e+02   3.036245e+02
   3.890311e+01   9.813079e+02
  -6.942548e+02   7.314297e+02
  -8.705887e+02   4.415540e+01
  -5.639758e+02  -7.934951e+02
   8.232501e+01  -8.531153e+02
   5.073296e+02  -1.918261e+02
   3.463206e+02   6.076562e+02
  -1.520297e+02   7.401850e+02
  -5.309416e+02   4.456774e+01
  -3.182304e+02  -6.127852e+02
   2.353118e+02  -6.144681e+02
   5.452640e+02  -1.637201e+02
   4.436439e+02   2.572023e+02
   8.332164e+01   4.102464e+02
  -1.954304e+02   2.658787e+02
  -1.762020e+02   4.238724e+01
   9.518222e+01  -5.552088e+01
   3.515264e+02   1.440771e+02
   1.684726e+02   3.843455e+02
  -3.647517e+02   3.818563e+02
  -7.253687e+02  -5.594612e+01
  -3.706010e+02  -4.422347e+02
   3.344882e+02  -3.843434e+02
   6.706170e+02   2.199160e+01
   2.757026e+02   4.277839e+02
  -2.550860e+02   4.882844e+02
  -5.469237e+02   2.370059e+02
  -4.543747e+02  -1.995037e+02
  -8.430431e+01  -4.082321e+02
   1.557139e+02  -2.850815e+02
   8.983241e+01   1.577191e+02
  -1.491505e+02   3.706533e+02
  -3.414773e+02  -2.053582e+01
  -2.031738e+02  -6.390315e+02
   2.632387e+02  -6.481699e+02
   5.426569e+02  -2.626631e+01
   2.738428e+02   4.290813e+02
  -2.611960e+02   3.315170e+02
  -3.350032e+02  -2.644157e+02
   4.969549e+01  -5.040530e+02
   5.254285e+02  -1.508036e+02
   5.965557e+02   3.616029e+02
   1.903795e+02   5.485874e+02
  -3.732830e+02   3.359683e+02
  -6.121753e+02  -2.814321e+01
  -3.990702e+02  -3.462811e+02
   6.811572e+01  -3.454085e+02
   4.093970e+02  -7.916993e+01
   2.380179e+02   1.539853e+02
  -4.543295e+01   1.013863e+02
  -1.199426e+02  -1.246508e+02
   1.543112e+02  -1.743463e+02
   3.230990e+02   5.546881e+01
   1.288363e+02   2.478410e+02
  -1.616248e+02   2.175231e+02
  -3.757972e+02   1.060152e+02
  -2.295147e+02  -1.149451e+02
   1.912878e+00  -2.498670e+02
   2.131700e+02  -3.604217e+02
   3.239849e+02  -2.007915e+02
   2.795046e+02   1.327268e+02
   5.787631e+01   4.058547e+02
  -5.422055e+01   3.524917e+02
  -1.111671e+02   1.378339e+02
  -1.019562e+01   1.956461e+01
  -6.725378e+01   1.003856e+02
  -1.854023e+02   1.411621e+02
  -2.718625e+02  -5.742232e+01
  -1.598910e+02  -2.685821e+02
   5.843407e+01  -2.340764e+02
   2.320864e+02  -9.363465e+00
   1.871656e+02   2.355956e+02
  -1.271928e+01   2.711868e+02
  -2.362595e+02   9.457034e+01
  -3.539166e+02  -1.028598e+02
  -2.225880e+02  -3.791717e+02
   6.219131e+01  -3.235371e+02
   2.343722e+02  -1.264307e+02
   1.743745e+02  -1.253858e+01
   1.119265e+02  -2.445179e+01
   2.394386e+02  -5.919999e+01
   3.819277e+02   1.877033e+01
   3.522210e+02   2.659831e+02
   1.557105e+01   4.588995e+02
  -3.455541e+02   4.172700e+02
  -4.819165e+02   2.138415e+02
  -3.514592e+02  -6.966101e+01
  -4.467383e+01  -2.688526e+02
   9.224502e+01  -2.114033e+02
   4.752738e+01  -2.964614e+01
  -1.263629e+02   9.448423e+01
  -1.761351e+02  -1.962168e+00
  -4.861100e+01  -2.090758e+02
   1.243827e+02  -1.477934e+02
   1.377817e+02   4.579855e+01
  -1.349636e+01   1.753659e+02
  -1.694499e+02   5.062308e+00
  -1.906896e+02  -2.715127e+02
   2.277324e+01  -3.437594e+02
   2.100500e+02  -1.997257e+02
   3.688433e+02   4.644768e+01
   2.816302e+02   2.112642e+02
   1.193938e+02   2.562937e+02
  -8.899263e+01   1.808525e+02
  -1.803839e+02   1.688990e+01
  -7.006314e+01  -2.336677e+01
   7.600577e+01   6.534970e+01
   1.184306e+01   1.138768e+02
  -9.384142e+01   1.113311e+02
  -1.862366e+02  -1.810623e+01
  -9.019900e+01  -5.716052e+01
   7.481204e+01  -2.797758e+01
   4.332430e+01   7.074582e+01
  -1.144956e+02   8.272334e+01
  -2.578827e+02   4.772009e+00
  -2.427157e+02  -1.346041e+02
  -5.268448e+01  -2.556454e+02
   1.786435e+02  -2.810611e+02
   2.771411e+02  -1.398017e+02
   1.579897e+02   5.857216e+01
  -9.238458e+00   1.235925e+02
  -8.703590e+01   2.457586e+01
   4.508509e+01  -9.201188e+01
   1.808248e+02  -7.860348e+01
   1.948449e+02   1.227045e+02
   8.536672e+01   1.916095e+02
  -8.675648e+01   1.455236e+02
  -1.356446e+02   4.716261e+01
  -6.240887e+01  -4.389889e+01
   5.800651e+01   8.012740e+00
   4.648163e+01   1.098963e+02
  -8.903272e+01   1.093436e+02
  -1.719068e+02   1.923275e+01
  -2.064086e+02  -1.072918e+02
  -3.452449e+01  -1.980355e+02
   1.406203e+02  -1.537158e+02
   1.663794e+02  -1.884473e+01
   4.892295e+01   8.203768e+01
  -6.898630e+01   1.216944e+02
  -7.390312e+01   2.706524e+01
  -6.529063e+00  -2.154578e+01
   2.105800e+01  -3.840863e+01
  -3.266162e+01   2.912718e+00
  -7.968717e+01   1.489293e+01
  -1.202507e+02  -8.882562e+01
  -1.094078e+01  -1.702909e+02
   1.307922e+02  -1.663839e+02
   2.409847e+02  -5.123403e+01
   2.227283e+02   1.636635e+02
   5.542266e+01   2.362124e+02
  -1.285439e+02   1.524652e+02
  -1.291667e+02   3.369975e+01
  -7.824165e+01  -5.001079e+01
  -3.220677e+01  -4.015950e+01
  -3.567402e+01   2.390848e+01
  -7.164133e+01   1.775566e+01
  -4.392122e+01  -3.738647e+01
   4.300544e+01  -1.074496e+02
   9.625983e+01  -7.090022e+01
   8.267966e+01   2.381375e+01
  -6.420856e+00   9.491795e+01
  -1.429311e+02   7.904625e+01
  -1.819248e+02  -5.056995e+01
  -8.729432e+01  -1.889886e+02
   9.081846e+01  -2.290763e+02
   2.764520e+02  -1.111680e+02
   2.602964e+02   6.855750e+01
   1.381113e+02   1.720928e+02
  -1.929647e+01   1.458228e+02
  -9.197773e+01   8.878026e+01
  -6.897601e+01   6.550399e+01
  -5.539349e+01   8.613956e+01
  -7.846922e+01   7.166055e+01
  -1.532124e+02  -2.562605e+01
  -1.419990e+02  -1.444648e+02
  -3.562787e+01  -2.316218e+02
   9.639295e+01  -1.875803e+02
   1.682024e+02  -5.655108e+01
   1.099410e+02   1.326273e+02
   1.187284e+01   1.894836e+02
  -4.624474e+01   1.119781e+02
  -6.234829e+01   1.174457e+01
   5.848924e+00  -4.399950e+01
   2.335682e+01  -2.802430e+01
  -1.485482e+01  -2.225520e+01
  -8.021114e+01  -3.130509e-01
  -5.170918e+01  -3.761695e+01
   6.759016e+01  -5.390961e+01
   1.666924e+02  -4.269841e+01
   1.426693e+02   5.648703e+01
   1.709755e+01   7.622926e+01
  -1.366657e+02   8.729695e+01
  -1.194668e+02   3.071554e+01
  -3.485913e+01  -5.915003e+01
   3.896130e+01  -4.009704e+01
   7.452294e+01   3.107077e+01
   2.943050e+01   6.180623e+01
  -4.149134e+01   5.819219e+01
  -3.149774e+01  -1.374784e+01
  -2.977890e+01  -6.088457e+01
  -4.634894e+01  -4.420848e+01
  -7.807868e+01   1.030311e+01
  -3.996321e+01   1.618899e+01
  -5.228937e+01  -9.554896e+01
   3.291712e+01  -1.426427e+02
   9.940342e+01  -1.444687e+02
   1.607357e+02  -1.869778e+01
   1.110188e+02   9.110818e+01
  -5.613346e+00   1.542437e+02
  -9.026434e+01   8.433153e+01
  -8.674866e+01   8.537034e+00
   6.017337e+01  -4.051352e+01
   9.860455e+01   3.109086e+01
   8.399582e+01   9.321294e+01
  -8.928456e+01   1.115530e+02
  -1.795013e+02   8.056560e+01
  -1.615108e+02  -2.668179e+01
  -6.137001e+01  -1.011697e+02
   4.766958e+01  -7.901291e+01
   2.946475e+01  -2.375383e+01
  -2.947299e+01   2.345689e+01
  -1.026507e+02  -3.154418e+01
  -2.939574e+01  -1.203303e+02
   8.729930e+01  -1.540656e+02
   1.998248e+02  -5.156090e+01
   1.304660e+02   9.038783e+01
   1.743216e+01   1.900414e+02
  -1.013876e+02   1.198967e+02
  -1.047998e+02  -2.660758e+01
  -5.178916e+01  -1.121604e+02
   1.428818e+01  -1.070374e+02
   6.785815e+01   2.061303e+00
   3.030079e+01   3.010925e+01
   3.243032e+01   1.754815e+01
   1.447131e+01   9.988747e+00
   4.763177e+01   2.809340e+00
   5.224400e+01   9.646011e+01
   1.688684e+01   1.305821e+02
  -4.135454e+01   5.249050e+01
  -1.225941e+02  -3.209337e+01
  -1.244437e+02  -4.845538e+01
  -2.242818e+01  -5.233964e+01
   6.153383e+01  -1.671785e+01
   7.384282e+01  -1.510838e+00
   9.001050e+00  -9.229964e+00
  -3.195157e+01   3.196896e+01
  -1.833825e+00   1.858318e+01
   2.184138e+00   2.126267e+01
   3.412521e+00  -4.655746e+01
  -5.804685e+01  -3.458945e+00
  -7.827404e+01  -5.059141e+01
  -1.073672e+01  -1.094167e+02
   1.341370e+02  -1.167175e+02
   1.794016e+02  -8.148173e+01
   1.776229e+02   4.912642e+01
   5.753340e+01   1.296353e+02
  -4.287816e+01   1.380421e+02
  -1.133871e+02   7.047142e+01
  -8.392016e+01  -6.441314e+00
  -1.097463e+01  -2.059786e+01
   7.730893e-01  -1.686766e+01
  -5.085239e+00   6.415316e+00
  -1.508251e+01  -4.618639e+01
  -8.506817e+00  -7.810593e+01
   3.449606e+01  -7.201109e+01
   9.024414e+01   3.810268e-02
   8.421423e+01   9.889086e+01
  -9.847794e+00   1.119354e+02
  -8.336370e+01   2.481312e+01
  -1.082250e+02  -7.828683e+01
  -4.689056e+01  -1.162751e+02
   6.184179e+01  -9.396664e+01
   1.044972e+02   1.460358e+01
   4.262948e+01   3.395662e+01
  -2.452631e+01   5.179420e+01
  -6.909125e+00   4.269202e+01
   4.765819e+01   2.018996e+01
   6.663736e+01   2.774570e+00
   2.568082e+01   2.203743e+01
  -8.381786e+01   4.423652e+01
  -1.067440e+02   3.926769e+01
  -7.793439e+01  -1.714430e+01
  -1.125953e+01  -6.951934e+01
   6.583983e+01  -7.582991e+01
   4.655786e+01  -1.641065e+01
   2.915431e+01   4.485519e+01
  -9.821098e+00   2.213003e+01
  -4.836998e+01  -1.653742e+01
  -5.373976e+01  -4.538370e+01
  -5.930949e+00  -4.517047e+01
   2.653983e+01   6.926118e+00
   2.100118e+01  -2.336740e+00
   1.040028e+01   3.188840e+01
  -1.564339e+01  -1.184358e+01
  -1.175298e+01  -7.425423e+00
  -2.311811e+01   4.303057e+01
  -1.050659e+00   5.309041e+01
  -3.767367e+01   1.582983e+01
  -2.815997e+01  -6.149670e+01
  -2.024075e+01  -6.930904e+01
   6.288470e+01  -4.234005e+01
   6.752508e+01   5.071794e+01
   1.982964e+01   6.369485e+01
  -4.936572e+01   5.470734e+01
  -9.417976e+01  -1.153463e+01
  -4.740580e+01  -1.907102e+01
   1.431194e+01  -3.684144e+01
   5.526044e+01  -2.965133e+00
   1.747354e+01  -4.649657e+00
  -4.648438e+01  -4.781577e+00
  -4.414877e+01  -1.506142e+01
   5.388647e+01  -3.668236e+01
   8.352049e+01  -4.460434e+00
