
 $NMID
 id='ANONYMOUS ', fmtdat='(2E16.6)'
 volume=1.0
 tramp=1.0
 $END
   3.922007e+03   6.270227e+01
   2.158286e+03   1.991623e+03
  -4.196166e+02   2.217886e+03
  -1.563259e+03   9.455114e+02
  -8.962273e+02  -1.826389e+02
   3.407121e+02  -3.450136e+02
   5.906426e+02   2.520790e+02
  -8.910680e+00   7.241576e+02
  -6.821148e+02   6.059796e+02
  -7.372978e+02  -1.634002e+01
  -3.479865e+02  -6.727571e+02
   1.286280e+02  -7.942536e+02
   5.268025e+02  -1.199864e+02
   2.788517e+02   5.878599e+02
  -2.280050e+02   5.771659e+02
  -4.851661e+02   3.288025e+01
  -2.263276e+02  -5.751201e+02
   2.133372e+02  -5.788871e+02
   5.202737e+02  -1.405080e+02
   3.852748e+02   2.907729e+02
   6.618804e+01   3.998764e+02
  -1.786292e+02   1.998006e+02
  -1.348343e+02   2.422293e+01
   1.393707e+02  -7.931147e+00
   3.191400e+02   2.113078e+02
   7.526422e+01   4.236059e+02
  -5.158417e+02   2.216090e+02
  -6.776524e+02  -1.982186e+02
  -3.421754e+02  -4.481334e+02
   3.659472e+02  -3.448940e+02
   6.082726e+02   9.830171e+01
   2.245279e+02   4.462212e+02
  -2.631850e+02   4.376361e+02
  -4.876481e+02   1.453216e+02
  -3.747996e+02  -2.177997e+02
  -6.507359e+01  -4.063341e+02
   1.344618e+02  -1.883598e+02
   5.030692e+01   1.875550e+02
  -2.093757e+02   2.979468e+02
  -3.288703e+02  -8.071140e+01
  -1.087034e+02  -5.912438e+02
   3.698602e+02  -5.859777e+02
   4.677283e+02   6.146131e+00
   1.580384e+02   4.049405e+02
  -2.292781e+02   2.279533e+02
  -2.582225e+02  -2.857561e+02
   9.761383e+01  -4.517920e+02
   4.772350e+02  -6.486012e+01
   4.945797e+02   4.114207e+02
   1.334486e+02   5.234507e+02
  -3.469530e+02   2.464218e+02
  -5.111991e+02  -8.764862e+01
  -2.869242e+02  -3.171996e+02
   9.891024e+01  -2.472954e+02
   3.501154e+02  -3.919572e+01
   1.598471e+02   1.020934e+02
  -8.275494e+01   4.008742e+01
  -4.408336e+01  -1.011953e+02
   1.509328e+02  -1.080109e+02
   2.565897e+02   7.824890e+01
   1.223260e+02   2.363797e+02
  -1.719033e+02   2.477161e+02
  -2.557378e+02   7.886667e+01
  -1.929884e+02  -7.308325e+01
  -4.662547e+00  -2.525814e+02
   2.686037e+02  -3.151091e+02
   3.525593e+02  -1.792258e+02
   2.545711e+02   1.464379e+02
   5.415086e+01   3.535178e+02
  -9.852700e+01   3.129019e+02
  -5.577424e+01   1.453897e+02
  -2.499658e+00   7.809989e+01
  -8.465352e+01   1.176097e+02
  -2.086078e+02   9.543449e+01
  -1.964099e+02  -7.214801e+01
  -9.641887e+01  -2.363253e+02
   8.686833e+01  -1.882430e+02
   2.134513e+02   3.401107e+01
   1.686068e+02   2.494411e+02
  -3.499300e+01   2.710833e+02
  -2.743206e+02   8.819357e+01
  -3.443345e+02  -1.679483e+02
  -1.498812e+02  -3.297745e+02
   9.899281e+01  -2.575221e+02
   1.823065e+02  -1.090172e+02
   1.215262e+02  -1.836248e+01
   9.023204e+01  -8.282731e+01
   2.536463e+02  -5.115737e+01
   3.976035e+02   8.918477e+01
   3.274736e+02   2.946056e+02
  -1.550926e+01   4.290173e+02
  -3.367613e+02   3.796144e+02
  -4.908040e+02   1.586823e+02
  -2.828584e+02  -1.023471e+02
  -4.715635e+01  -2.642628e+02
   1.206102e+02  -2.244764e+02
   6.050055e+01  -2.491734e+01
  -1.029303e+02   6.290834e+01
  -1.229604e+02  -3.799873e+01
  -2.228042e+01  -1.750607e+02
   1.537791e+02  -1.339774e+02
   1.472169e+02   6.366832e+01
  -3.144053e+01   1.514702e+02
  -1.409853e+02   2.908170e+01
  -1.334716e+02  -2.437701e+02
   4.831120e+01  -3.464194e+02
   2.314982e+02  -1.900740e+02
   3.250528e+02   6.689331e+01
   2.716731e+02   2.641883e+02
   9.005600e+01   2.825724e+02
  -1.425445e+02   1.412249e+02
  -1.562796e+02  -1.117150e+00
  -3.979240e+01  -1.115305e+00
   6.758139e+01   3.184780e+01
  -8.043713e+00   1.174147e+02
  -1.260887e+02   5.688302e+01
  -1.397062e+02  -2.689565e+01
  -2.066335e+01  -5.682705e+01
   6.982934e+01  -1.093530e+01
   4.492621e+01   8.129170e+01
  -1.213449e+02   8.111506e+01
  -2.746150e+02  -2.019217e+01
  -2.303642e+02  -1.367736e+02
  -4.822188e+01  -2.172419e+02
   1.932981e+02  -2.300868e+02
   2.518942e+02  -9.879325e+01
   1.514723e+02   7.947507e+01
  -1.981877e+01   8.001453e+01
  -7.086888e+01  -1.193857e+00
   3.314392e+01  -5.461935e+01
   1.792919e+02  -4.289622e+01
   1.808256e+02   1.171617e+02
   5.313218e+01   1.798993e+02
  -1.049947e+02   1.246297e+02
  -1.373890e+02   2.322359e+01
  -6.822498e+01  -3.366566e+01
   3.944976e+01   4.321988e+00
   5.499478e+01   8.905845e+01
  -5.416824e+01   1.047951e+02
  -1.809074e+02   8.171958e+00
  -1.781438e+02  -1.017706e+02
  -2.817623e+01  -2.132344e+02
   1.619950e+02  -1.609586e+02
   1.851870e+02  -9.030472e+00
   6.197720e+01   9.335849e+01
  -7.085851e+01   1.015319e+02
  -7.875976e+01   1.437523e+01
  -6.646068e+00  -2.677293e+01
   1.213075e+01  -1.653851e+01
  -1.711411e+01   4.302789e+01
  -5.777749e+01  -8.845744e+00
  -9.744928e+01  -7.688051e+01
   1.789796e+00  -1.768840e+02
   1.235752e+02  -1.573845e+02
   2.093065e+02   5.344687e+00
   1.593634e+02   1.537375e+02
   5.071901e+01   2.019113e+02
  -1.138118e+02   1.491222e+02
  -1.307393e+02   1.679809e+01
  -5.581934e+01  -5.125466e+01
  -4.397880e+01  -1.596146e+01
  -3.125893e+01   2.178395e+01
  -8.235992e+01   3.466338e+01
  -6.299601e+01  -3.387816e+01
   4.883964e+01  -1.022114e+02
   1.269371e+02  -6.106871e+01
   1.015836e+02   3.253224e+01
  -1.126567e+01   9.471145e+01
  -1.475999e+02   8.989680e+01
  -1.721997e+02  -7.798948e+01
  -9.371862e+01  -1.924165e+02
   9.843222e+01  -1.827336e+02
   2.670615e+02  -6.257172e+01
   2.403951e+02   5.995229e+01
   8.189368e+01   1.400702e+02
  -2.655448e+01   1.192017e+02
  -8.693847e+01   8.073704e+01
  -7.009850e+01   9.459762e+01
  -6.930705e+01   7.030203e+01
  -6.151378e+01   6.897804e+01
  -1.229332e+02  -1.944190e+01
  -9.005768e+01  -1.772241e+02
   7.901661e+00  -2.290211e+02
   1.013199e+02  -1.310424e+02
   2.011391e+02   1.485003e+01
   1.299226e+02   1.035986e+02
   6.548733e+00   1.587563e+02
  -9.001654e+01   7.528747e+01
  -6.042620e+01  -5.002583e+00
  -7.710763e-01  -3.698922e+01
   3.671507e+01  -6.379778e+01
  -2.307466e+01  -1.136603e+01
  -8.233904e+01  -1.746795e+01
  -1.069229e+01  -2.665091e+01
   8.029236e+01  -3.032330e+01
   1.488019e+02  -5.449502e+00
   1.198345e+02   6.800048e+01
   5.024019e+00   9.113796e+01
  -1.143972e+02   7.614529e+01
  -1.292853e+02  -1.752310e+01
  -4.881113e+01  -3.958566e+01
   5.274825e+01  -2.657977e+01
   8.788737e+01   4.585318e+01
   1.144546e+00   7.828455e+01
  -4.744587e+01   5.000597e+01
  -8.090780e+01   4.605015e+00
  -1.860856e+01  -4.224993e+01
  -3.135177e+01  -3.995308e+01
  -6.230212e+01  -1.587264e+00
  -4.321181e+01   1.303282e-01
  -4.709482e+01  -6.710012e+01
   2.440955e+01  -1.337004e+02
   1.176517e+02  -1.607978e+02
   1.496630e+02  -9.458665e+00
   1.135831e+02   8.701134e+01
  -7.741498e+00   1.489013e+02
  -7.998572e+01   8.043258e+01
  -5.518786e+01  -4.523971e+00
   7.725524e+01  -2.473602e+01
   1.312797e+02   5.152091e+01
   6.607132e+01   9.086566e+01
  -6.840898e+01   1.249064e+02
  -1.826439e+02   2.656999e+01
  -1.468280e+02  -3.005350e+01
  -5.024249e+01  -6.291921e+01
   3.975459e+01  -6.685874e+01
   4.050550e+01  -3.993245e+00
  -5.606646e+01   4.053386e+01
  -8.129258e+01  -1.092117e+01
  -6.532182e+00  -8.921819e+01
   8.232908e+01  -1.413038e+02
   1.541608e+02  -5.299145e+01
   1.358737e+02   6.397338e+01
  -1.312009e+01   1.586717e+02
  -8.018726e+01   1.322929e+02
  -9.460444e+01  -5.596256e-01
  -2.987591e+01  -1.315163e+02
   5.239773e+00  -1.078474e+02
   4.167750e+01  -2.876390e+01
   5.832273e+01   3.726458e+01
   3.169153e+01   1.731519e+01
   3.201103e+01  -7.097143e+00
   3.063333e+01   2.515248e+01
   7.494674e+01   5.983651e+01
   3.432678e+01   1.076268e+02
  -5.055991e+01   4.022124e+01
  -1.335026e+02  -2.827950e+01
  -1.352245e+02  -5.003176e+01
  -1.027465e+01  -5.073212e+01
   9.701220e+01  -3.052144e+01
   1.026409e+02   6.709716e+00
  -1.200264e+00   1.872493e+01
  -4.684661e+01   2.319940e+01
  -1.041825e+01  -5.841261e+00
   4.037766e+00   2.074547e+01
  -1.272139e+01   6.618689e+00
  -5.681543e+01  -4.629905e+00
  -8.281192e+01  -3.108385e+01
  -1.078479e+01  -5.820715e+01
   1.199544e+02  -9.667484e+01
   1.622981e+02  -4.028660e+01
   1.712245e+02   6.706523e+01
   5.519127e+01   1.308611e+02
  -6.310099e+01   1.431931e+02
  -1.009149e+02   6.067938e+01
  -8.442578e+01  -2.353312e+01
  -1.534951e+01  -4.119625e+01
   2.510459e+01  -8.642717e-01
  -9.806339e-01  -7.656841e+00
  -2.845874e+01  -1.046262e+01
  -1.450472e+01  -1.088366e+02
   2.349457e+01  -9.128376e+01
   6.624143e+01   2.358875e+01
   5.375790e+01   9.024331e+01
   9.092459e+00   1.078259e+02
  -7.662385e+01   3.202310e+01
  -8.199032e+01  -8.382655e+01
  -5.183565e+01  -9.647160e+01
   5.185663e+01  -3.481585e+01
   8.614275e+01  -1.677748e+00
   3.990169e+01   6.925035e+01
  -3.144199e+01   4.633434e+01
  -2.634051e+01   1.914812e+01
   2.262649e+01   1.139890e+00
   6.951825e+01   2.775795e-01
   3.871819e+01   1.142573e+01
  -7.871481e+01   5.983519e+01
  -1.185698e+02   3.549364e+01
  -8.878260e+01   1.332802e+01
  -1.654325e+01  -8.369190e+01
   7.629373e+01  -7.264418e+01
   2.066774e+01  -2.328370e+01
   8.016226e-01   5.515575e+01
  -1.864544e-01   2.298762e+01
  -2.953109e+01  -6.334442e+00
  -2.641876e+01  -7.440818e+01
   3.489949e+00  -1.668933e+01
   2.969141e+01   1.457708e+01
   1.886802e+01   3.869515e+01
   1.301076e+01  -1.527492e+01
   3.933909e+00  -1.938964e+01
   4.489283e-01  -1.194874e+01
   2.136168e+01   4.303062e+01
   1.015318e+01   4.212066e+01
  -4.275697e+01   8.173131e+00
  -4.522745e+01  -3.399405e+01
   1.620307e+01  -5.397470e+01
   4.643574e+01  -3.480658e+01
   3.680973e+01   2.102522e+01
   3.156424e+01   6.448363e+01
  -4.758045e+01   4.002204e+01
  -7.926984e+01   1.196821e+01
  -3.557800e+01  -1.815008e+01
   5.250603e+01  -3.277566e+01
   5.354240e+01  -4.577084e+01
   2.745399e+01   9.332097e+00
  -2.691892e+01   5.540291e+00
  -5.633522e+00  -2.400663e+01
   3.985613e+01  -1.718184e+01
   7.126756e+01  -2.241524e+01
