
 $NMID
 id='ANONYMOUS ', fmtdat='(2E16.6)'
 volume=1.0
 tramp=1.0
 $END
   3.191664e+03   1.706853e+01
   1.907531e+03   1.794628e+03
  -2.781996e+02   1.888541e+03
  -1.467715e+03   9.858725e+02
  -7.497272e+02  -3.083946e+02
   4.528376e+02  -3.703439e+02
   5.575327e+02   2.578760e+02
  -5.642169e+01   8.542726e+02
  -5.812298e+02   5.865627e+02
  -6.877277e+02  -8.523062e+01
  -3.090197e+02  -6.058956e+02
   1.329854e+02  -6.517195e+02
   4.134226e+02  -7.386095e+01
   2.051940e+02   5.695194e+02
  -1.589137e+02   5.376105e+02
  -4.375800e+02   7.120938e+00
  -1.568637e+02  -5.200506e+02
   1.882208e+02  -5.440355e+02
   4.454611e+02  -1.387354e+02
   3.215540e+02   2.674805e+02
   4.245722e+01   3.543781e+02
  -1.468530e+02   2.062064e+02
  -1.312665e+02   5.446758e+01
   1.449407e+02  -3.386539e+01
   3.286529e+02   1.704433e+02
   5.161944e+01   3.502405e+02
  -4.854131e+02   2.701050e+02
  -6.594373e+02  -9.571028e+01
  -2.947775e+02  -4.352338e+02
   2.854242e+02  -3.322547e+02
   5.983221e+02   5.164965e+01
   2.636928e+02   4.103770e+02
  -2.269064e+02   3.856950e+02
  -4.677665e+02   1.443044e+02
  -3.176195e+02  -1.821396e+02
  -5.817224e+01  -3.787808e+02
   1.325899e+02  -1.758640e+02
   2.908487e+01   1.912743e+02
  -1.743352e+02   2.671899e+02
  -3.344134e+02  -8.373085e+01
  -1.579141e+02  -5.668926e+02
   2.866031e+02  -5.696501e+02
   4.529227e+02  -1.799398e+01
   1.813081e+02   3.471340e+02
  -2.083815e+02   2.181649e+02
  -2.667073e+02  -2.652536e+02
   8.923456e+01  -4.240491e+02
   4.386546e+02  -9.298110e+01
   4.770765e+02   3.298810e+02
   1.080568e+02   4.757488e+02
  -3.201659e+02   2.829217e+02
  -4.886374e+02  -7.748042e+01
  -2.901928e+02  -2.649453e+02
   1.075673e+02  -2.730303e+02
   3.281157e+02  -4.876401e+01
   2.195935e+02   8.386946e+01
  -5.461586e+01   3.635828e+01
  -1.082056e+02  -1.330202e+02
   1.382545e+02  -1.240394e+02
   2.463121e+02   9.071417e+01
   1.150607e+02   2.495313e+02
  -1.989700e+02   2.155277e+02
  -3.134523e+02   1.025447e+02
  -1.877830e+02  -6.772452e+01
   2.214573e+01  -2.192041e+02
   2.040934e+02  -3.117216e+02
   3.012865e+02  -1.382605e+02
   2.374835e+02   1.169197e+02
   5.847937e+01   3.346370e+02
  -6.282088e+01   2.625552e+02
  -9.866153e+01   1.025051e+02
  -1.777708e+01   4.378373e+01
  -1.044581e+02   9.064315e+01
  -1.764475e+02   9.079263e+01
  -2.269627e+02  -7.951831e+01
  -1.523398e+02  -2.148656e+02
   9.620226e+01  -1.734646e+02
   1.903917e+02  -2.470956e+01
   1.663149e+02   1.869137e+02
  -5.713562e-01   2.470373e+02
  -2.138121e+02   8.145492e+01
  -2.729897e+02  -1.175732e+02
  -1.633055e+02  -2.543702e+02
   8.344700e+01  -2.121774e+02
   1.742404e+02  -1.306445e+02
   1.253332e+02  -2.347219e+01
   1.034314e+02  -5.220347e+01
   1.976965e+02  -4.762950e+01
   3.522134e+02   4.978666e+01
   2.948528e+02   2.586116e+02
   6.874041e+00   3.575840e+02
  -3.015570e+02   3.218542e+02
  -4.175246e+02   1.641149e+02
  -2.520072e+02  -8.532126e+01
  -4.127964e+01  -2.331286e+02
   1.062617e+02  -2.153197e+02
   1.230884e+01  -3.039576e+01
  -1.003600e+02   7.486614e+01
  -1.799653e+02  -2.115473e+01
  -3.464282e+01  -1.497428e+02
   1.175234e+02  -1.031899e+02
   1.474158e+02   9.031065e+01
  -3.139442e+01   1.586109e+02
  -1.621063e+02   1.337324e+00
  -1.230453e+02  -2.087949e+02
   3.748644e+01  -3.157300e+02
   2.167048e+02  -1.612677e+02
   2.809875e+02   5.106913e+01
   2.456591e+02   2.089357e+02
   4.815569e+01   2.421560e+02
  -1.069444e+02   1.468453e+02
  -1.272481e+02   2.496210e+01
  -4.273140e+01  -8.793794e+00
   3.595447e+01   6.220510e+01
   2.691093e+01   9.086344e+01
  -1.247136e+02   5.024869e+01
  -1.338605e+02  -3.295131e+01
  -4.901255e+01  -6.099274e+01
   8.642562e+01   1.869885e+01
   2.225572e+01   6.776512e+01
  -1.119004e+02   6.950283e+01
  -2.657212e+02  -6.782655e+00
  -2.291270e+02  -1.289775e+02
  -4.536838e+01  -2.190323e+02
   1.935284e+02  -1.943699e+02
   2.598081e+02  -9.879709e+01
   1.278966e+02   5.858304e+01
  -5.067996e+01   1.008424e+02
  -8.084075e+01  -2.711379e+01
   4.968971e+01  -8.652877e+01
   1.971921e+02  -3.153943e+01
   1.847048e+02   9.997793e+01
   4.905617e+01   1.877593e+02
  -7.972440e+01   1.355440e+02
  -1.121102e+02   2.579826e+01
  -3.686474e+01  -4.801405e+01
   5.440713e+00  -3.882050e+00
   3.655081e+01   8.133066e+01
  -7.244402e+01   1.083599e+02
  -1.959648e+02   9.859813e+00
  -1.891992e+02  -1.129182e+02
  -7.286172e+00  -1.869760e+02
   1.369449e+02  -1.110620e+02
   1.667082e+02  -1.248087e+01
   2.266730e+01   8.824602e+01
  -5.129452e+01   7.703646e+01
  -3.175977e+01   2.424362e+01
   7.236950e+00  -2.699661e+01
   2.791789e+01  -1.612454e+01
  -5.910637e+00   2.370078e+01
  -7.880294e+01   1.154316e+01
  -7.957077e+01  -3.088770e+01
  -2.947223e+00  -1.453447e+02
   1.278622e+02  -1.190688e+02
   2.221947e+02  -3.642474e+01
   1.493168e+02   1.215666e+02
   3.940703e+01   2.074919e+02
  -8.287107e+01   1.393578e+02
  -9.958721e+01   3.437687e+01
  -4.018961e+01  -4.075417e+01
  -2.258666e+01  -2.445520e+01
  -2.322579e+01  -2.424965e+01
  -6.860579e+01  -1.690362e+01
  -5.128605e+01  -3.363955e+01
   2.617607e+01  -8.733396e+01
   9.258256e+01  -3.404107e+01
   7.199533e+01   1.680994e+01
   6.770454e+00   1.069181e+02
  -1.348004e+02   9.659572e+01
  -1.641005e+02  -3.058338e+01
  -6.652542e+01  -1.587259e+02
   9.156660e+01  -1.862310e+02
   1.921325e+02  -5.120085e+01
   2.050530e+02   8.107918e+01
   8.888732e+01   1.385111e+02
  -8.236232e+00   8.036241e+01
  -6.579644e+01   5.933778e+01
  -8.490630e+01   6.398860e+01
  -5.829475e+01   9.890812e+01
  -1.123112e+02   5.642824e+01
  -1.116338e+02  -2.019424e+01
  -7.920146e+01  -1.325120e+02
  -1.058758e+01  -2.083928e+02
   7.774034e+01  -1.404017e+02
   1.338829e+02  -2.836142e+01
   1.120673e+02   1.060247e+02
   2.118190e+01   1.443280e+02
  -5.789649e+01   5.931864e+01
  -5.308250e+01  -4.195825e-01
  -6.342324e+00  -3.425189e+01
   2.395674e+01  -3.477302e+01
  -1.958515e+01   1.972542e+01
  -6.891320e+01  -2.521364e+01
  -5.777630e+01  -1.084530e+01
   7.879342e+01  -3.374103e+01
   1.387445e+02   9.209408e+00
   1.348279e+02   3.529682e+01
   2.775445e+01   9.446411e+01
  -7.833859e+01   7.443549e+01
  -1.150792e+02   1.118947e+00
  -2.514940e+01  -6.735284e+01
   6.374449e+01  -3.604331e+01
   6.697238e+01   4.058425e+01
   2.103241e+01   6.589931e+01
  -2.988210e+01   5.993171e+01
  -3.180673e+01   9.978679e-01
  -3.912512e+01  -4.534226e+01
  -4.819554e+01  -1.284433e+01
  -3.727419e+01   2.445315e+01
  -4.683821e+01  -1.130146e+01
  -4.617367e+01  -5.777597e+01
   3.543945e+01  -1.058266e+02
   1.198739e+02  -1.401846e+02
   1.522882e+02  -2.721149e+01
   1.000572e+02   5.109026e+01
   1.022335e+01   1.193653e+02
  -6.254295e+01   4.036282e+01
  -7.269390e+01  -2.071050e+01
   3.521116e+01  -2.355294e+01
   1.110501e+02   2.385468e+01
   5.233346e+01   7.897740e+01
  -7.987200e+01   8.784144e+01
  -1.595520e+02   6.313397e+01
  -1.299561e+02  -1.198579e+01
  -1.821344e+01  -3.626234e+01
   6.111911e+01  -5.273990e+01
   5.682267e+01   1.048525e+01
   1.818481e+00   1.868821e+01
  -9.313673e+01  -3.657985e+00
  -1.252110e+01  -1.039892e+02
   4.883814e+01  -1.344674e+02
   1.299763e+02  -5.516840e+01
   8.486535e+01   8.071108e+01
   8.680240e+00   1.834618e+02
  -4.833319e+01   1.783177e+02
  -7.062048e+01  -5.553743e+00
  -5.743976e+01  -1.008480e+02
  -2.126587e+01  -1.018658e+02
   2.358685e+01  -2.901924e+01
   4.687307e+01   1.201217e+01
   1.755777e+01  -1.085367e+01
   2.913176e+00  -7.518062e+00
   1.944687e+01   1.381889e+01
   5.323501e+01   6.386243e+01
   2.803422e+01   1.149258e+02
  -3.151571e+01   2.900042e+01
  -1.417428e+02  -9.812844e+00
  -1.054047e+02  -7.360296e+01
  -1.956654e+01  -5.894361e+01
   5.751919e+01  -1.866091e+01
   1.010487e+02   3.023477e+00
  -9.451057e+00   9.358786e-01
  -4.064466e+01   3.522876e+01
  -2.591335e+01   2.692434e+01
   1.317438e+01  -1.480575e+01
   6.547352e-01  -1.221437e+01
  -8.789336e+01  -2.690574e+01
  -8.638770e+01   9.887557e+00
  -1.392147e+01  -5.288232e+01
   9.023824e+01  -9.082014e+01
   1.625758e+02  -3.173480e+01
   1.437941e+02   5.234162e+01
   2.534912e+01   1.200639e+02
  -5.959731e+01   1.524604e+02
  -1.066092e+02   6.640444e+01
  -5.314396e+01  -4.120481e+01
  -2.595459e+01  -3.247397e+01
  -1.561429e+01  -3.261130e+00
  -1.920970e+01   1.143003e+00
  -3.650311e+01  -3.606215e+01
  -4.504802e+01  -1.068586e+02
   7.971565e-01  -4.978840e+01
   6.818987e+01   3.853185e+01
   5.525281e+01   1.005988e+02
   1.312641e+01   1.113044e+02
  -7.644020e+01   7.450898e+00
  -7.969159e+01  -4.779731e+01
  -3.190778e+01  -8.953504e+01
   7.288470e+01  -4.398326e+01
   7.580112e+01   4.047994e+00
   4.810653e+01   3.475968e+01
  -3.597657e+00   4.285284e+01
  -2.920384e+01   3.214671e+01
   2.903636e+01  -3.145721e+01
   4.810251e+01  -6.862910e+00
   1.344661e+01   2.573722e+01
  -5.767289e+01   3.403397e+01
  -1.046289e+02   2.331895e+01
  -2.904637e+01  -2.106859e+01
   1.010283e+01  -6.487220e+01
   2.283222e+01  -4.877241e+01
   3.205593e+01  -2.954291e+00
   1.304477e+01   3.053489e+01
  -3.027387e+01   1.566321e+01
  -4.103867e+01  -3.118329e+01
  -1.486050e+01  -3.889211e+01
   4.930511e+00  -3.130545e+01
   2.035742e+01   3.156346e+01
   8.227660e+00   1.746093e+01
   5.306462e+01   1.166942e+01
  -4.546353e+00  -1.655099e+01
  -3.096232e+00  -1.697373e+01
  -6.625529e+00   4.068490e+01
  -1.079853e+01   5.523482e+01
  -2.999807e+01  -1.897887e+01
  -1.689635e+01  -2.935196e+01
  -5.429343e+00  -2.028485e+01
   4.210234e+01   1.035149e+01
   4.918567e+01   2.844867e+00
   5.748685e+00   6.578326e+01
  -3.658234e+01   3.987955e+01
  -8.234710e+01  -4.674171e+01
  -4.650284e+01  -3.307697e+01
   3.422195e+01  -3.968171e+01
   5.660125e+01   1.678151e+01
   9.915226e+00   1.864417e+01
  -4.281065e+01   1.397100e+00
  -3.467817e+01   4.531155e+00
   3.034462e+01  -1.149542e+01
   7.751710e+01  -1.959527e+01
