
 $NMID
 id='ANONYMOUS ', fmtdat='(2E16.6)'
 volume=1.0
 tramp=1.0
 $END
   4.260711e+03   2.003793e+01
   2.439905e+03   2.531534e+03
  -7.868511e+02   2.487380e+03
  -1.906537e+03   8.631332e+02
  -8.271184e+02  -4.844283e+02
   7.014118e+02  -5.859624e+02
   7.714078e+02   3.468292e+02
   1.787205e-01   1.012932e+03
  -7.386595e+02   8.035157e+02
  -9.445468e+02  -6.301880e+01
  -4.679344e+02  -8.038698e+02
   2.203705e+02  -8.891876e+02
   6.452054e+02  -1.148383e+02
   3.986903e+02   7.254976e+02
  -3.039572e+02   7.838287e+02
  -6.489042e+02   1.235911e+01
  -3.034986e+02  -6.837245e+02
   3.067092e+02  -6.251083e+02
   5.755782e+02  -1.213707e+02
   4.215379e+02   3.574518e+02
   3.107695e+01   4.484020e+02
  -2.567229e+02   2.594733e+02
  -1.816522e+02  -5.760437e+00
   1.116759e+02  -1.172671e+02
   4.161987e+02   1.304509e+02
   1.944540e+02   4.311055e+02
  -4.212484e+02   4.091288e+02
  -8.294165e+02  -6.021535e+01
  -4.250555e+02  -5.493691e+02
   3.893851e+02  -5.163788e+02
   7.234822e+02   4.033111e+01
   3.772888e+02   5.090446e+02
  -2.833211e+02   5.425694e+02
  -5.802648e+02   2.147032e+02
  -4.484117e+02  -2.637673e+02
  -7.946763e+01  -4.803929e+02
   2.512295e+02  -3.077550e+02
   1.739104e+02   2.305492e+02
  -2.198199e+02   4.372190e+02
  -4.935998e+02  -2.156178e-01
  -2.356778e+02  -6.860460e+02
   2.935301e+02  -7.143821e+02
   6.476372e+02  -8.596851e+00
   2.132474e+02   5.669654e+02
  -2.793696e+02   3.283915e+02
  -4.051333e+02  -3.287059e+02
   3.484933e+01  -5.425759e+02
   5.525319e+02  -1.427581e+02
   5.994826e+02   4.382186e+02
   1.699851e+02   5.864202e+02
  -3.852799e+02   3.620222e+02
  -6.232689e+02  -1.015777e+02
  -3.429446e+02  -4.037897e+02
   1.160085e+02  -3.545144e+02
   4.366586e+02  -6.245107e+01
   2.465484e+02   1.937789e+02
  -1.068862e+02   1.171666e+02
  -1.510463e+02  -1.207446e+02
   1.243847e+02  -1.663888e+02
   3.362568e+02   6.387883e+01
   1.440289e+02   2.618794e+02
  -1.740325e+02   2.615245e+02
  -3.549434e+02   7.849033e+01
  -1.903528e+02  -8.871521e+01
   2.907036e+01  -2.636752e+02
   2.341303e+02  -3.589256e+02
   3.465902e+02  -2.116247e+02
   2.656437e+02   1.320930e+02
   5.781380e+01   4.446570e+02
  -1.508185e+02   3.546845e+02
  -1.419836e+02   5.008764e+01
  -2.672252e+01  -3.802854e+01
  -3.541477e+01   8.287173e+01
  -1.879727e+02   1.265497e+02
  -2.627518e+02  -2.378131e+01
  -1.670346e+02  -2.696009e+02
   8.778942e+01  -2.708053e+02
   2.230645e+02  -3.364639e+01
   1.747316e+02   2.046335e+02
  -1.213261e+01   3.123196e+02
  -2.666863e+02   1.237098e+02
  -3.581260e+02  -1.926414e+02
  -1.789776e+02  -3.418017e+02
   1.115651e+02  -3.297998e+02
   2.099527e+02  -8.960414e+01
   1.478481e+02   3.837560e+00
   9.641860e+01  -3.384693e+01
   2.191176e+02  -5.306512e+01
   3.551842e+02   6.748516e+01
   3.467644e+02   2.676579e+02
   2.918390e+00   4.277726e+02
  -3.259745e+02   3.989822e+02
  -4.696472e+02   2.112134e+02
  -3.259520e+02  -9.062826e+01
  -6.803918e+01  -2.752027e+02
   1.273318e+02  -2.495069e+02
   6.266568e+01  -4.121809e+01
  -1.216516e+02   1.329916e+02
  -1.966535e+02  -1.457611e+00
  -1.978783e+01  -2.195213e+02
   1.761266e+02  -1.770006e+02
   1.866762e+02   4.399743e+01
  -2.376722e+00   1.587689e+02
  -2.196568e+02   2.981837e+01
  -1.635118e+02  -2.152261e+02
   1.208179e+01  -3.316045e+02
   2.525158e+02  -2.194585e+02
   3.364341e+02   3.861712e+01
   2.414196e+02   2.213116e+02
   1.030968e+02   2.745887e+02
  -8.768122e+01   1.649746e+02
  -1.791247e+02  -1.932343e+01
  -6.554177e+01  -2.588567e+01
   7.280749e+01   1.469317e+01
   2.565069e+01   1.267948e+02
  -9.577835e+01   9.356872e+01
  -1.999668e+02   4.613748e+00
  -5.607237e+01  -7.435178e+01
   7.252531e+01  -2.884381e+01
   2.997746e+01   5.570703e+01
  -9.638132e+01   8.163922e+01
  -2.408375e+02   4.793786e+01
  -2.576052e+02  -1.099742e+02
  -6.207277e+01  -2.189194e+02
   1.745495e+02  -2.826314e+02
   2.647488e+02  -1.244740e+02
   1.935867e+02   4.515203e+01
  -3.027449e+01   1.310329e+02
  -5.689198e+01   4.086688e+01
   1.300378e+01  -9.848720e+01
   1.863317e+02  -4.788753e+01
   2.177462e+02   1.023675e+02
   7.674037e+01   1.894111e+02
  -7.838939e+01   1.632455e+02
  -1.473722e+02   3.643564e+01
  -6.810088e+01  -4.887238e+01
  -1.046746e+01   9.935233e+00
   6.211785e+01   6.698437e+01
  -5.125273e+01   1.094455e+02
  -1.521650e+02   4.250848e+01
  -1.957646e+02  -9.467665e+01
  -6.012306e+01  -1.850492e+02
   1.918565e+02  -1.778722e+02
   1.860830e+02  -1.530215e+01
   6.127283e+01   1.023114e+02
  -7.339307e+01   1.093789e+02
  -5.034770e+01   1.900664e+01
   2.636503e+00  -1.542307e+01
   3.107452e+01  -1.253223e+01
  -6.958318e+00  -1.191494e+01
  -6.731719e+01  -2.648389e+00
  -6.272754e+01  -7.768670e+01
  -3.097917e+01  -1.206784e+02
   1.057134e+02  -1.596252e+02
   2.493732e+02  -4.657838e+01
   1.903424e+02   1.031724e+02
   6.885866e+01   2.423653e+02
  -8.738977e+01   1.581698e+02
  -1.441264e+02   5.162131e+01
  -5.714935e+01  -7.194209e+01
  -3.758161e+01  -3.454432e+01
  -5.937503e+01  -2.270301e+01
  -5.110494e+01   2.169124e-01
  -4.993605e+01  -6.641829e+01
   5.318927e+01  -8.780029e+01
   9.583654e+01  -5.126360e+01
   1.009389e+02   6.179515e+01
  -1.673336e+01   8.441563e+01
  -1.368814e+02   8.645166e+01
  -1.881615e+02  -6.258130e+01
  -9.802525e+01  -2.131026e+02
   1.034213e+02  -2.143653e+02
   2.837974e+02  -7.332320e+01
   2.511243e+02   6.951258e+01
   1.007160e+02   1.550008e+02
  -4.336774e+01   1.338399e+02
  -8.212609e+01   1.135097e+02
  -7.359996e+01   6.775545e+01
  -4.648114e+01   9.524163e+01
  -9.072066e+01   5.212975e+01
  -1.002438e+02  -1.712205e+01
  -9.713506e+01  -1.287881e+02
  -4.776155e+01  -2.236192e+02
   7.183417e+01  -1.643876e+02
   1.622020e+02  -2.532062e+01
   1.341417e+02   9.593946e+01
   1.720761e+01   1.568498e+02
  -6.816910e+01   1.053476e+02
  -1.059844e+02  -1.514766e-01
  -1.831118e+01  -3.826738e+01
  -1.057549e+01  -4.028173e+01
  -2.696747e+01  -2.514812e+00
  -9.708695e+01  -2.543818e+01
  -3.869157e+01  -4.154681e+01
   5.097044e+01  -5.624229e+01
   1.604174e+02  -2.740525e+01
   1.555676e+02   4.780540e+01
   1.984806e+01   8.789057e+01
  -1.034309e+02   7.572782e+01
  -1.366883e+02   1.485233e+01
  -5.792063e+01  -3.844638e+01
   6.738537e+01  -4.209830e+01
   5.487879e+01   2.587083e+00
   4.752784e+00   5.888846e+01
  -1.533890e+01   6.027086e+01
  -2.997746e+01  -1.692541e+01
  -5.446321e+01  -3.991145e+01
  -1.475288e+01  -3.002283e+01
  -5.691902e+01   9.197385e+00
  -5.316160e+01   2.320247e+00
  -6.854705e+01  -7.864245e+01
   2.549247e+01  -1.257483e+02
   9.852825e+01  -1.271097e+02
   1.549074e+02  -1.788407e+01
   8.952638e+01   7.428521e+01
   2.861054e+01   1.093665e+02
  -6.509048e+01   6.953820e+01
  -5.017310e+01  -1.152515e+01
   7.195725e+01  -1.162945e+01
   1.464305e+02   3.758242e+01
   9.802535e+01   1.222614e+02
  -8.404915e+01   9.576083e+01
  -2.046758e+02   3.507589e+01
  -1.369134e+02  -3.521996e+01
  -3.961876e+01  -8.689103e+01
   7.193422e+01  -7.307567e+01
   3.330674e+01  -2.260264e+01
  -3.269844e+01   2.814038e+01
  -9.872987e+01  -2.537639e+01
  -3.166588e+01  -1.274119e+02
   8.269501e+01  -1.439463e+02
   1.760305e+02  -6.503097e+01
   1.181315e+02   8.699183e+01
   1.572718e+01   2.234070e+02
  -7.331744e+01   1.486256e+02
  -9.895146e+01  -2.200156e+01
  -6.505290e+01  -1.174332e+02
   2.386203e+01  -9.035466e+01
   5.322017e+01  -2.273416e+01
   1.965379e+01   4.099647e+01
   1.438782e+01   4.030270e+01
  -2.369795e+01  -1.086603e+01
   3.647024e+01   1.756469e+01
   3.652997e+01   1.078143e+02
   4.088214e+01   9.823262e+01
  -4.218826e+01   9.045159e+01
  -1.381776e+02  -7.101294e+01
  -1.084409e+02  -6.291128e+01
  -2.596977e+01  -5.706310e+01
   9.632751e+01  -1.968431e+01
   9.155397e+01   2.566004e+01
   2.308840e+01  -7.299977e+00
  -4.434928e+01   5.418789e+01
  -3.464505e+01   1.514447e+01
   8.639896e+00  -1.066591e+01
   1.061158e+01  -2.639748e+01
  -4.588923e+01   3.591386e+00
  -8.683803e+01  -1.497060e+01
   1.388191e+01  -9.436091e+01
   1.137492e+02  -9.947690e+01
   1.815033e+02  -7.391990e+01
   1.486841e+02   7.461895e+01
   3.762023e+01   1.655028e+02
  -5.055169e+01   1.587131e+02
  -1.053188e+02   3.182921e+01
  -8.472977e+01  -3.698514e+01
  -7.412436e+00  -4.028291e+01
   3.401920e+01   1.677953e+01
  -1.559508e+01  -2.509127e+00
  -3.316689e+01  -5.054783e+01
  -3.582183e+01  -9.755406e+01
   2.301332e+01  -5.491838e+01
   7.506855e+01   2.516032e+01
   6.116665e+01   1.186821e+02
  -6.104373e+00   8.305332e+01
  -7.406547e+01   2.401579e+01
  -1.093412e+02  -6.357110e+01
  -4.449671e+01  -7.182018e+01
   8.571892e+01  -8.218055e+01
   8.331312e+01   2.239548e+01
   5.794720e+01   2.785290e+01
  -2.440043e+01   3.833308e+01
  -3.933454e+01   3.989368e+01
   2.311610e+01  -1.948725e+01
   8.398512e+01  -1.074994e+01
   4.377925e+00   2.754612e+01
  -8.197369e+01   5.754564e+01
  -1.143707e+02   7.820668e+01
  -5.258839e+01  -1.995809e+01
   5.071133e+00  -8.531762e+01
   5.510345e+01  -7.183306e+01
   4.501417e+01   1.590573e+01
   5.403562e+00   6.682042e+01
  -5.894500e+01   5.741063e+01
  -1.851931e+01  -1.681363e+01
  -3.366141e+01  -3.522741e+01
   1.715975e+01  -3.163790e+01
   2.211229e+01   2.335756e+01
   5.205877e+01   1.634721e+01
   1.512961e+01   7.795431e-01
  -5.844567e+00  -1.782071e+01
   7.960704e+00   1.659775e+01
  -9.270057e+00   4.360137e+01
  -6.297592e+00   6.245872e+01
  -2.642897e+01  -1.073057e+01
  -1.737849e+01  -4.489089e+01
   1.761680e+01  -5.861262e+01
   6.218984e+01  -1.147169e+00
   5.526180e+01   4.499110e+01
   5.563615e+01   3.820941e+01
  -6.304037e+01   2.170450e+01
  -8.692325e+01  -2.882687e+01
  -2.746144e+01  -7.650026e+01
   5.916077e+01  -2.643939e+01
   4.220155e+01   6.125106e+00
   2.898491e+01  -5.383124e+00
  -4.036086e+01  -1.286604e+01
  -5.554264e+01  -3.608968e+01
   3.472711e+01  -2.835670e+01
   9.564538e+01  -5.224921e+00
