
 $NMID
 id='ANONYMOUS ', fmtdat='(2E16.6)'
 volume=1.0
 tramp=1.0
 $END
  -4.740448e+03  -2.578142e+02
  -2.735982e+03  -2.727542e+03
   8.438429e+02  -2.860499e+03
   2.360157e+03  -8.907253e+02
   8.925169e+02   7.949081e+02
  -8.644877e+02   7.524392e+02
  -1.047301e+03  -5.029600e+02
   3.296736e+01  -1.158094e+03
   9.357889e+02  -7.846091e+02
   1.037796e+03   8.751769e+01
   4.762933e+02   9.781841e+02
  -3.368991e+02   9.685430e+02
  -7.269333e+02   1.235694e+02
  -4.628043e+02  -7.811775e+02
   2.850970e+02  -7.919117e+02
   7.112342e+02   3.155343e+01
   2.757151e+02   7.211235e+02
  -4.013246e+02   6.574680e+02
  -6.102658e+02   7.621871e+01
  -3.626476e+02  -3.990729e+02
  -2.348549e+01  -4.876941e+02
   2.704771e+02  -2.576429e+02
   2.416532e+02   3.103709e+01
  -1.454617e+02   1.321997e+02
  -4.934076e+02  -1.256229e+02
  -2.136737e+02  -4.614118e+02
   5.151206e+02  -4.958193e+02
   9.828030e+02   5.582054e+01
   4.148204e+02   6.527606e+02
  -4.450562e+02   5.467724e+02
  -8.106420e+02  -7.848349e+01
  -3.714939e+02  -5.421842e+02
   2.982411e+02  -5.896589e+02
   6.300530e+02  -2.349188e+02
   4.589267e+02   2.776447e+02
   6.042053e+01   5.705204e+02
  -2.861624e+02   2.812358e+02
  -2.402834e+02  -2.536410e+02
   1.814408e+02  -4.888862e+02
   4.967962e+02   6.057541e+01
   2.606646e+02   7.654940e+02
  -3.925836e+02   7.085774e+02
  -6.324432e+02  -4.745968e+01
  -2.635487e+02  -6.278463e+02
   2.938361e+02  -3.623129e+02
   3.782795e+02   3.762854e+02
  -5.400020e+01   5.606079e+02
  -5.721493e+02   1.389242e+02
  -6.573376e+02  -4.153947e+02
  -2.078389e+02  -6.471249e+02
   3.916484e+02  -3.669229e+02
   6.986703e+02   1.201521e+02
   4.196363e+02   4.178258e+02
  -1.903714e+02   4.214237e+02
  -4.767966e+02   9.449660e+00
  -2.722098e+02  -2.174727e+02
   1.326557e+02  -9.819668e+01
   1.616371e+02   2.009602e+02
  -1.921616e+02   2.268902e+02
  -3.843601e+02  -3.924118e+01
  -1.642791e+02  -3.531555e+02
   1.754613e+02  -2.756902e+02
   3.862096e+02  -7.055918e+01
   2.232553e+02   8.496449e+01
  -4.382206e+01   2.460223e+02
  -2.457751e+02   3.367847e+02
  -3.575326e+02   2.497761e+02
  -3.039843e+02  -1.747822e+02
  -6.744952e+01  -4.731897e+02
   1.205753e+02  -3.858834e+02
   1.446252e+02  -1.136393e+02
   1.791719e+01   3.462610e+01
   5.988957e+01  -1.091987e+02
   2.133108e+02  -1.457105e+02
   3.023883e+02   3.398430e+01
   1.670613e+02   2.693359e+02
  -6.699838e+01   2.882171e+02
  -2.583610e+02   1.937400e+01
  -2.024727e+02  -2.433763e+02
  -2.103672e+01  -3.186170e+02
   3.008353e+02  -1.547862e+02
   3.795246e+02   1.771154e+02
   1.812009e+02   3.680314e+02
  -9.875720e+01   3.157488e+02
  -2.432193e+02   1.129263e+02
  -1.659438e+02  -3.203256e+01
  -9.622253e+01   2.488631e+01
  -2.453751e+02   5.321376e+01
  -4.166411e+02  -4.902369e+01
  -3.241548e+02  -3.429600e+02
  -4.044869e+01  -4.646896e+02
   3.411718e+02  -4.247599e+02
   5.029486e+02  -2.357125e+02
   3.431790e+02   1.026879e+02
   7.966191e+01   3.146324e+02
  -1.398389e+02   2.685095e+02
  -9.384732e+01   2.005939e+01
   1.047047e+02  -1.255407e+02
   2.022630e+02  -5.457767e+00
   4.701065e+01   2.135479e+02
  -2.134034e+02   1.921818e+02
  -1.838539e+02  -5.968098e+01
  -1.974341e+01  -1.908107e+02
   1.830087e+02  -2.654775e+01
   1.589997e+02   2.364392e+02
  -4.141539e+01   3.441331e+02
  -2.443854e+02   1.768959e+02
  -3.509224e+02  -3.521594e+01
  -2.960000e+02  -2.576431e+02
  -1.199209e+02  -3.061745e+02
   1.222077e+02  -1.668780e+02
   1.656152e+02  -2.081763e+01
   1.070141e+02  -1.183266e+01
  -7.174859e+01  -2.979387e+01
  -8.369895e-01  -1.265869e+02
   9.479116e+01  -1.358911e+02
   2.076952e+02   6.960543e+00
   6.058654e+01   5.260895e+01
  -7.458336e+01   1.777641e+01
  -8.115960e+01  -7.876575e+01
   1.199947e+02  -8.494791e+01
   2.857928e+02   1.486962e+01
   2.572464e+02   1.543265e+02
   6.620012e+01   2.710748e+02
  -1.603138e+02   2.907515e+02
  -3.013998e+02   1.360472e+02
  -1.956695e+02  -6.227755e+01
   3.676666e+01  -1.086734e+02
   8.152378e+01  -6.754070e+00
  -5.633680e+01   7.603924e+01
  -1.914958e+02   5.281478e+01
  -2.015635e+02  -9.623996e+01
  -8.443814e+01  -2.207475e+02
   9.621766e+01  -1.717436e+02
   1.747485e+02  -2.860570e+01
   9.930831e+01   3.478476e+01
  -1.627301e+01   2.952179e+01
  -5.858978e+01  -9.963690e+01
   5.529840e+01  -1.458380e+02
   2.167211e+02  -2.618247e+01
   1.953170e+02   1.079861e+02
   3.777274e+01   2.316521e+02
  -1.725346e+02   1.845752e+02
  -2.215448e+02   2.041504e+01
  -8.082020e+01  -1.210303e+02
   6.320960e+01  -1.028799e+02
   8.052189e+01  -3.398968e+01
   1.542312e+01   4.132382e+01
  -2.071818e+01   3.978924e+01
  -1.788896e+01  -4.707241e+00
   7.279909e+01  -6.273818e+00
   1.187998e+02   8.750336e+01
   2.759953e+01   1.586645e+02
  -1.473996e+02   1.576126e+02
  -2.628888e+02   4.299147e+01
  -2.032188e+02  -1.453658e+02
  -3.699061e+01  -2.344779e+02
   1.131907e+02  -1.762772e+02
   1.602069e+02  -2.666564e+01
   7.554524e+01   6.050602e+01
   3.792204e+01   4.476754e+01
   6.767156e+01  -1.546341e+01
   6.816231e+01   6.610794e+00
   3.718999e+01   4.770346e+01
  -4.727227e+01   7.634395e+01
  -1.031098e+02   6.761601e+01
  -9.291412e+01  -3.837007e+01
   9.604264e+00  -1.091826e+02
   1.274306e+02  -1.027606e+02
   2.145815e+02   4.634396e+01
   1.181253e+02   2.057672e+02
  -1.076526e+02   2.848145e+02
  -2.998349e+02   1.197184e+02
  -2.673765e+02  -1.131299e+02
  -1.087857e+02  -1.622293e+02
   5.861432e+01  -1.454811e+02
   8.109604e+01  -5.677368e+01
   7.720034e+01  -6.303102e+01
   9.517037e+01  -7.748614e+01
   8.731409e+01  -7.724391e+01
   1.448956e+02   1.199190e+01
   1.081868e+02   1.317003e+02
   3.425247e+01   2.355472e+02
  -9.054316e+01   1.649588e+02
  -2.279050e+02   8.675537e+00
  -1.380327e+02  -1.596942e+02
   1.428492e+01  -1.778513e+02
   6.500186e+01  -1.164466e+02
   7.155454e+01  -1.599941e+01
   1.616562e+01   5.621255e+01
  -2.005423e+00   3.945223e+01
   6.845602e+01   4.110806e+01
   7.432536e+01   3.104829e+01
   6.053472e+01   5.246810e+01
  -7.249511e+01   4.551933e+01
  -1.802893e+02  -2.375937e+01
  -1.730681e+02  -7.901456e+01
  -2.259780e+01  -1.236581e+02
   1.303273e+02  -8.150550e+01
   1.689673e+02  -1.938162e+01
   5.103399e+01   7.572112e+01
  -6.744827e+01   5.142959e+01
  -8.523541e+01  -3.062602e+01
  -6.390741e+00  -6.818963e+01
   5.397233e+01  -8.252910e+01
   6.083997e+01  -6.621940e+00
   4.352772e+01   5.452271e+01
   4.202382e+01   4.552418e+01
   4.646996e+01  -7.053990e+00
   5.133133e+01   1.050421e+01
   6.193386e+01   5.022648e+01
  -9.702152e+00   1.346603e+02
  -1.026044e+02   1.515051e+02
  -1.746533e+02   2.159227e+01
  -1.222127e+02  -1.074196e+02
  -1.868407e-01  -1.165497e+02
   7.259513e+01  -5.185711e+01
   4.137387e+01   1.395115e+01
  -6.928643e+01   1.112769e+01
  -1.272587e+02  -4.567414e+01
  -8.344781e+01  -1.066507e+02
   9.615122e+01  -8.545514e+01
   1.718670e+02  -5.902712e+01
   1.608697e+02   4.972819e+01
   3.412018e+01   1.122892e+02
  -4.944264e+01   1.022028e+02
  -4.940906e+01   1.503685e+01
   4.052424e+01  -3.707396e+01
   1.035518e+02   2.049774e+01
   1.159747e+01   1.228708e+02
  -8.846245e+01   1.716701e+02
  -1.615467e+02   7.998590e+01
  -1.551967e+02  -1.241821e+02
  -2.435413e+01  -2.052564e+02
   8.716449e+01  -1.330904e+02
   9.375374e+01  -5.438404e+00
   8.356144e+01   1.119228e+02
  -1.471018e+00   1.008641e+02
  -6.233948e+01   4.085484e+01
  -4.302261e+01  -2.123150e+01
  -2.226236e+01  -1.358083e+01
  -5.214151e+00   2.207509e+01
  -2.475212e+01  -2.977369e+01
  -6.504011e+01  -1.030349e+02
  -4.491573e+01  -1.576563e+02
   4.654028e+01  -5.701199e+01
   1.155148e+02   8.426665e+01
   1.347323e+02   1.003008e+02
   1.077605e+01   7.070789e+01
  -9.814459e+01   5.561449e+01
  -1.230485e+02  -6.370157e+00
  -3.346326e+01   1.793435e+01
   3.934748e+01  -1.349748e+01
  -1.468178e+01  -1.258081e+01
  -1.094753e+01   7.263058e+00
   4.183420e+00  -1.262455e+01
   5.520812e+01   2.000198e+00
   6.326979e+01   4.561259e+01
  -3.498480e+00   9.422253e+01
  -1.343025e+02   1.295078e+02
  -1.821565e+02   5.040181e+01
  -1.346750e+02  -6.406763e+01
  -3.271444e+01  -1.506119e+02
   6.668686e+01  -1.159770e+02
   1.206303e+02  -7.246557e+01
   1.086436e+02  -7.268143e-01
   2.108728e+01   5.255129e+01
   1.721606e+01   7.883960e+00
   1.918206e+01  -1.008633e+01
   2.115062e+01   4.322441e+01
   1.486104e+01   7.748429e+01
  -2.424742e+01   7.756306e+01
  -1.021795e+02   4.826518e+00
  -8.937405e+01  -1.171736e+02
  -1.235026e+00  -1.252738e+02
   5.780776e+01  -2.151784e+01
   1.186382e+02   6.459492e+01
   6.320646e+00   1.135201e+02
  -6.169947e+01   6.687775e+01
  -7.612467e+01  -3.692809e+01
  -3.230373e+01  -4.811789e+01
   3.199152e+01  -3.450619e+01
   1.433827e+01  -8.968414e+00
  -1.380876e+01   5.473149e+00
  -6.125208e+01   5.611792e+00
  -1.769812e+00  -1.074291e+01
   8.352049e+01  -7.438437e+01
   1.081577e+02  -6.271938e+01
   6.657726e+01   1.778154e+01
  -1.689721e+01   7.868440e+01
  -6.540852e+01   8.272151e+01
  -2.389733e+00   1.452394e+01
  -2.519839e+01  -7.735214e+01
   4.497535e+01  -3.657640e+01
   3.766895e+01   4.673023e+00
   8.756966e+00   2.916785e+01
   4.088189e+00   2.033524e+01
  -1.770378e+01  -9.231146e+00
  -5.707911e+01  -2.040916e+01
  -1.454092e+01   2.628915e+00
  -7.657043e+00   1.533435e+00
  -1.308596e+01  -1.344783e-02
  -2.289847e+01  -3.881127e+01
   4.061766e+01  -6.706564e+01
   2.611061e+01   2.605467e-01
   1.580386e+01   3.763656e+01
  -6.700442e+00   7.973332e+01
  -3.502444e+01   3.424729e+01
  -3.757733e+01  -3.898422e+01
  -3.815762e+00  -6.338405e+01
   7.243852e+01  -2.626853e+01
   1.084827e+02   4.562383e+01
   6.982779e+01   4.958867e+01
  -5.285407e+01   2.437973e+01
  -7.775335e+01   1.776805e+01
  -2.688604e+01  -1.310852e+00
   3.310621e+01   1.785948e+01
   3.645461e+01   4.196026e+01
  -3.204542e+01   2.555380e+01
  -5.284782e+01  -1.089245e+01
