
 $NMID
 id='ANONYMOUS ', fmtdat='(2E16.6)'
 volume=1.0
 tramp=1.0
 $END
  -4.164058e+03   1.638500e+02
  -2.383755e+03  -2.249221e+03
   5.163204e+02  -2.858023e+03
   1.894949e+03  -1.088158e+03
   1.041664e+03   4.536149e+02
  -4.047921e+02   4.019373e+02
  -8.235876e+02  -3.719884e+02
  -5.569977e+01  -9.598446e+02
   7.178941e+02  -8.135162e+02
   8.390202e+02  -3.991071e+01
   4.926139e+02   8.171475e+02
  -1.825514e+02   8.948827e+02
  -5.703393e+02   1.946402e+02
  -4.020452e+02  -6.485786e+02
   1.896441e+02  -6.757193e+02
   5.356993e+02  -6.433882e+01
   3.273006e+02   6.359404e+02
  -2.579570e+02   6.548843e+02
  -5.418478e+02   1.567528e+02
  -4.273199e+02  -3.070698e+02
  -5.524361e+01  -4.227062e+02
   2.177468e+02  -2.835569e+02
   1.599123e+02  -5.707372e+01
  -1.426354e+02   5.823763e+01
  -3.640944e+02  -1.319593e+02
  -1.933734e+02  -3.919035e+02
   4.830118e+02  -3.377627e+02
   7.607954e+02   6.544196e+01
   3.606322e+02   4.865989e+02
  -3.640924e+02   3.909382e+02
  -6.802673e+02  -2.658002e+01
  -3.247536e+02  -4.255540e+02
   2.293226e+02  -4.933731e+02
   5.232229e+02  -1.899024e+02
   4.206192e+02   2.033181e+02
   1.056295e+02   4.124836e+02
  -1.629236e+02   2.495213e+02
  -1.483273e+02  -1.423417e+02
   2.189438e+02  -3.667969e+02
   3.925857e+02   3.233381e+01
   2.337682e+02   5.892110e+02
  -2.395024e+02   6.548238e+02
  -5.490934e+02   6.738341e+01
  -2.532840e+02  -5.209186e+02
   2.397615e+02  -3.357873e+02
   3.739351e+02   2.836414e+02
  -3.701116e+01   4.777340e+02
  -5.420074e+02   1.683798e+02
  -5.876442e+02  -4.054428e+02
  -1.966432e+02  -5.584465e+02
   3.465427e+02  -3.505353e+02
   6.194942e+02   3.240467e+01
   3.669597e+02   3.383543e+02
  -9.008164e+01   3.562217e+02
  -3.909306e+02   1.029951e+02
  -2.723297e+02  -1.802392e+02
   7.982624e+01  -9.211001e+01
   1.150384e+02   1.273515e+02
  -1.489773e+02   1.587065e+02
  -2.969387e+02  -3.963882e+01
  -1.649125e+02  -2.649353e+02
   1.378886e+02  -2.748830e+02
   3.334701e+02  -1.379387e+02
   2.501216e+02   9.042127e+01
  -5.455693e+00   2.343773e+02
  -2.339504e+02   3.258080e+02
  -3.515187e+02   2.304201e+02
  -3.566284e+02  -1.255435e+02
  -8.472277e+01  -4.352719e+02
   6.740608e+01  -3.980517e+02
   1.582863e+02  -1.280742e+02
   2.157730e+01  -1.836014e+01
   2.860211e+01  -1.062835e+02
   1.654946e+02  -1.385411e+02
   2.555650e+02   6.497583e+01
   2.060936e+02   2.684530e+02
  -4.739975e+01   2.704305e+02
  -2.293615e+02   1.704939e+01
  -1.801406e+02  -2.157120e+02
  -2.159014e+00  -2.850554e+02
   2.480086e+02  -1.125246e+02
   3.514879e+02   1.150497e+02
   2.035152e+02   3.202115e+02
  -5.620621e+01   3.418844e+02
  -2.274825e+02   1.515255e+02
  -1.752458e+02   3.592979e+01
  -1.103099e+02   6.200116e+01
  -2.179086e+02   8.509004e+01
  -3.724949e+02  -4.600385e+01
  -3.587047e+02  -2.726297e+02
  -2.158444e+01  -4.371880e+02
   3.236221e+02  -3.891144e+02
   4.927196e+02  -2.144853e+02
   3.065593e+02   8.527683e+01
   4.955068e+01   2.369360e+02
  -1.255076e+02   2.331090e+02
  -5.164448e+01   5.432698e+01
   1.012966e+02  -8.663309e+01
   1.887732e+02   7.576324e-01
   6.538427e+01   2.187605e+02
  -1.402456e+02   1.665231e+02
  -1.194679e+02  -7.134795e+01
  -1.270486e+01  -1.681875e+02
   1.428843e+02  -3.219929e+01
   1.440358e+02   2.301329e+02
  -3.093947e+01   3.292349e+02
  -2.207770e+02   2.215809e+02
  -3.341489e+02  -4.414049e+01
  -2.928186e+02  -2.195397e+02
  -1.448872e+02  -2.768660e+02
   1.214002e+02  -1.720403e+02
   1.570743e+02  -1.237568e+01
   5.991062e+01   4.510489e+01
  -7.194459e+01  -5.756967e+00
  -3.387941e+01  -1.241303e+02
   1.271150e+02  -1.155543e+02
   1.772135e+02   2.965101e+01
   3.232413e+01   5.793114e+01
  -9.357537e+01   3.254165e+01
  -3.991056e+01  -8.166313e+01
   1.293226e+02  -7.678528e+01
   2.897373e+02  -2.556326e+01
   2.476190e+02   1.482564e+02
   7.180285e+01   2.401801e+02
  -1.568061e+02   2.454699e+02
  -2.685567e+02   1.261346e+02
  -1.692847e+02  -3.911837e+01
   3.858449e+01  -1.308079e+02
   7.862112e+01  -2.185051e+01
  -3.123126e+01   1.133203e+02
  -1.800044e+02   5.192518e+01
  -2.117797e+02  -7.537069e+01
  -5.273933e+01  -2.020918e+02
   9.019126e+01  -1.477943e+02
   1.545879e+02  -2.800850e+01
   6.668228e+01   4.723393e+01
  -2.092268e+01   7.384117e+00
  -6.501064e+01  -9.612107e+01
   6.985991e+01  -6.587247e+01
   1.546733e+02  -1.572608e+01
   1.973640e+02   1.016482e+02
   3.070336e+01   1.904678e+02
  -1.295710e+02   1.636275e+02
  -1.672912e+02   1.432266e+01
  -8.176890e+01  -1.033829e+02
   2.166556e+01  -1.045844e+02
   8.174411e+01  -1.159786e+01
  -6.179208e-01   1.829202e+01
  -8.688945e+00   2.848394e+01
   2.649294e+01  -3.387778e+01
   6.020860e+01   5.333428e+00
   9.019134e+01   8.550489e+01
   4.971181e+00   1.753985e+02
  -1.195517e+02   1.777126e+02
  -2.471158e+02   2.961430e+01
  -2.198735e+02  -1.621920e+02
  -5.178460e+01  -2.492351e+02
   1.090546e+02  -1.599852e+02
   1.373460e+02  -5.853947e+01
   7.672648e+01   3.996862e+01
   2.485852e+01   3.285868e+01
   4.233315e+01  -2.134012e+01
   8.298341e+01  -5.377760e+00
   4.063658e+01   5.837415e+01
  -4.022328e+01   1.012971e+02
  -1.109329e+02   6.233077e+01
  -9.785251e+01  -4.937375e+00
   1.509237e+01  -1.072497e+02
   1.341890e+02  -1.041433e+02
   1.978688e+02   5.600516e+01
   1.019187e+02   1.753696e+02
  -8.798216e+01   2.467577e+02
  -2.608208e+02   9.363006e+01
  -2.652104e+02  -7.309415e+01
  -1.005338e+02  -1.616019e+02
   5.982137e+01  -1.631938e+02
   9.052355e+01  -8.410581e+01
   6.478000e+01  -6.526651e+01
   7.273780e+01  -1.093184e+02
   9.511408e+01  -8.687153e+01
   1.391678e+02   1.946348e+01
   1.525757e+02   1.544615e+02
   1.546326e+00   2.296427e+02
  -1.223837e+02   1.681307e+02
  -1.782805e+02   1.152221e+01
  -1.347190e+02  -1.390949e+02
  -8.460797e+00  -1.394050e+02
   5.047504e+01  -8.128143e+01
   5.758583e+01   1.729033e+01
  -1.680500e+01   4.733846e+01
  -3.376267e+01   2.958999e+01
   5.432693e+01   1.474161e+01
   9.017063e+01   2.647782e+01
   6.514737e+01   4.258400e+01
  -8.689418e+01   4.021402e+01
  -1.739947e+02   1.864944e+01
  -1.345857e+02  -3.108642e+01
  -5.279380e+00  -9.572665e+01
   1.138821e+02  -1.035516e+02
   1.647346e+02  -2.416484e+01
   5.082695e+01   1.471673e+01
  -4.096856e+01   4.282800e+01
  -9.477664e+01  -2.266401e+00
  -1.293680e+01  -4.717744e+01
   4.696211e+01  -5.724831e+01
   7.423691e+01  -1.283613e+01
   5.162221e+01   4.143845e+01
   1.075267e+01   4.101421e+01
   7.202973e+01   3.921937e+00
   6.894719e+01  -1.109202e+01
   3.894107e+01   6.855255e+01
  -2.031398e+01   1.517208e+02
  -1.114080e+02   1.384939e+02
  -1.738442e+02   6.528067e+01
  -1.209131e+02  -8.454751e+01
  -3.637368e+01  -1.631798e+02
   6.344189e+01  -8.946637e+01
   5.614192e+01  -1.217319e+01
  -6.351800e+01   4.369854e+01
  -1.413233e+02  -4.166376e+01
  -9.180748e+01  -9.268222e+01
   8.116739e+01  -1.125604e+02
   1.914064e+02  -7.338032e+01
   1.622043e+02   1.207981e+01
   4.647505e+01   8.047106e+01
  -5.723339e+01   7.932653e+01
  -4.997516e+01   4.387845e+01
   4.566514e+01  -1.051007e+01
   1.121102e+02   1.968054e+01
   4.150763e+01   1.285974e+02
  -6.471238e+01   1.521525e+02
  -1.566882e+02   7.957768e+01
  -1.461080e+02  -9.162318e+01
  -1.220939e+01  -2.194415e+02
   7.502348e+01  -1.401347e+02
   1.086395e+02   2.968731e+01
   7.279396e+01   1.092035e+02
  -1.459033e+01   9.980898e+01
  -6.807596e+01   2.380799e+01
  -5.667105e+01  -3.454225e+01
  -2.340508e+01   3.287467e+00
  -1.452463e+01   9.930634e+00
  -3.734281e+01  -8.676558e+00
  -4.958786e+01  -9.047998e+01
  -2.611304e+01  -1.084794e+02
   5.956574e+01  -5.212779e+01
   1.149933e+02   3.344631e+01
   1.590895e+02   7.853959e+01
  -7.124124e+00   4.021132e+01
  -6.432254e+01   3.784035e+01
  -8.212391e+01   2.716360e+01
  -6.906336e+00   3.103690e+00
   4.621448e+01  -4.581449e+01
  -1.912251e+00  -1.372160e+01
  -2.845364e+01   1.343666e+01
   8.090652e+00   2.302244e+01
   7.271830e+01   1.524853e+01
   9.766978e+01  -5.076763e+00
   3.499205e+01   7.010255e+01
  -1.251458e+02   1.139758e+02
  -1.665862e+02   6.901162e+01
  -1.571343e+02  -4.321787e+01
  -1.219363e+01  -1.563328e+02
   7.146639e+01  -1.432238e+02
   1.103146e+02  -5.433589e+01
   1.054922e+02  -2.261267e+00
   1.761872e+01   1.286603e+01
  -3.616241e+00   1.231181e+01
   3.567224e+00   2.113861e+01
   4.276722e+01   5.910853e+01
  -2.400315e+00   7.910272e+01
  -3.271927e+01   6.082719e+01
  -6.536640e+01  -2.631604e+00
  -8.323349e+01  -9.800319e+01
  -1.821245e+01  -1.068756e+02
   8.209043e+01  -2.179927e+01
   1.021191e+02   5.918419e+01
   3.135719e+01   9.667462e+01
  -5.591908e+01   5.364972e+01
  -1.308217e+02  -7.604257e+00
  -4.392032e+01  -3.861205e+01
   3.807366e+01  -4.451114e+01
   3.306173e+01  -3.812601e+01
  -4.042069e+01   2.736763e+00
  -7.897210e+01  -9.825947e+00
  -5.776702e+00  -3.327249e+01
   5.374495e+01  -6.962236e+01
   8.878701e+01  -4.877233e+01
   4.423096e+01  -3.476085e+00
   8.601967e+00   5.362810e+01
  -5.292661e+01   6.960998e+01
  -3.475366e+01   5.934865e+00
  -7.679391e+00  -6.021045e+01
   3.005479e+01  -4.032622e+01
   3.504410e+01   1.674170e+01
   3.774374e+01   5.879814e+01
   6.391645e+00   3.233387e+01
  -2.663920e-01  -2.592549e+00
  -3.271532e+01  -4.300405e+01
  -1.043419e+01   3.174805e-01
  -2.718361e+01   7.247962e+00
   1.686796e+01   1.145348e+01
   1.284821e+01  -6.344445e+00
   5.619542e+00  -6.308902e+01
   4.062340e+01  -3.162999e+00
   4.374016e+01   3.815283e+01
   1.435186e+01   8.042923e+01
  -3.253689e+01   1.667790e+01
  -6.719947e+01  -2.683979e+01
  -2.966916e+01  -6.326641e+01
   2.221667e+01  -4.647299e+01
   6.623244e+01  -5.907947e-01
   4.440264e+01   3.799527e+01
  -2.879601e+01   3.832032e+01
  -7.519894e+01   1.597478e+01
  -2.827435e+01  -1.961971e+01
   2.331555e+01   1.346916e+01
   3.817814e+01   1.050356e+01
  -5.976161e+01   5.378030e+01
  -8.776072e+01  -3.678824e+00
