
 $NMID
 id='ANONYMOUS ', fmtdat='(2E16.6)'
 volume=1.0
 tramp=1.0
 $END
   3.388155e+03  -6.486321e+01
   2.060961e+03   2.165635e+03
  -4.769212e+02   2.169138e+03
  -1.671092e+03   4.964099e+02
  -6.756489e+02  -4.927355e+02
   4.621714e+02  -3.849152e+02
   7.376798e+02   3.431700e+02
  -9.941978e+01   7.604640e+02
  -6.228788e+02   4.838585e+02
  -6.407649e+02  -1.111070e+02
  -3.087038e+02  -6.518614e+02
   1.571244e+02  -5.971917e+02
   4.921011e+02  -8.923972e+01
   2.161026e+02   5.016661e+02
  -1.955268e+02   4.873105e+02
  -4.539052e+02  -4.196981e+01
  -1.543264e+02  -4.782923e+02
   2.369035e+02  -4.151095e+02
   4.225035e+02  -4.240249e+00
   2.787250e+02   2.524947e+02
   3.341851e+01   3.390845e+02
  -1.710878e+02   1.908298e+02
  -1.421354e+02   3.281755e+01
   5.611346e+01  -4.241205e+01
   2.594642e+02   1.127831e+02
   8.809148e+01   2.997214e+02
  -3.230052e+02   2.846831e+02
  -6.465709e+02  -8.841591e+01
  -3.124272e+02  -4.297319e+02
   3.582161e+02  -3.682991e+02
   5.610893e+02   7.932845e+01
   2.536703e+02   3.403819e+02
  -2.352755e+02   3.540747e+02
  -4.195694e+02   1.255772e+02
  -2.828732e+02  -1.740912e+02
  -4.028044e+01  -3.560609e+02
   1.301340e+02  -2.111383e+02
   9.368410e+01   1.040616e+02
  -1.345085e+02   3.158656e+02
  -3.043589e+02  -2.751604e+01
  -2.114786e+02  -5.325845e+02
   2.806167e+02  -5.200565e+02
   4.682527e+02   7.263369e+00
   1.724364e+02   4.119350e+02
  -2.179558e+02   2.169104e+02
  -2.472053e+02  -2.529137e+02
   4.620653e+01  -3.891044e+02
   4.331347e+02  -6.241143e+01
   4.121350e+02   3.077501e+02
   1.018261e+02   4.104398e+02
  -2.712118e+02   2.315023e+02
  -4.655217e+02  -6.389502e+01
  -2.468722e+02  -2.686017e+02
   9.487473e+01  -2.413794e+02
   3.098498e+02  -5.001371e+01
   1.915448e+02   1.344441e+02
  -4.270605e+01   5.631252e+01
  -8.316912e+01  -1.155454e+02
   1.113249e+02  -1.144315e+02
   2.432261e+02   7.396085e+01
   8.238199e+01   2.066582e+02
  -1.466597e+02   1.599917e+02
  -2.056766e+02   4.451496e+01
  -1.407665e+02  -8.894353e+01
   2.950573e+01  -1.773542e+02
   1.711951e+02  -2.702560e+02
   2.771406e+02  -1.730860e+02
   2.516395e+02   1.121381e+02
   7.136566e+01   3.395502e+02
  -4.176611e+01   2.980297e+02
  -1.005133e+02   9.714807e+01
  -4.892417e+01   1.893737e+00
  -2.882339e+01   6.265270e+01
  -1.640412e+02   7.254998e+01
  -2.058540e+02  -8.092017e+01
  -1.094110e+02  -2.192229e+02
   5.468776e+01  -1.774906e+02
   1.447428e+02   6.161909e+00
   1.215570e+02   1.825112e+02
  -3.386659e+01   2.298463e+02
  -2.148577e+02   4.953974e+01
  -2.769113e+02  -1.556865e+02
  -1.526039e+02  -2.840696e+02
   8.354922e+01  -2.407866e+02
   1.607029e+02  -1.075311e+02
   1.022229e+02  -4.245230e+01
   7.538196e+01  -3.627859e+01
   2.049005e+02  -2.520085e+01
   3.267136e+02   7.134531e+01
   2.269497e+02   2.435089e+02
  -2.387542e+01   3.407110e+02
  -2.905702e+02   2.979397e+02
  -3.657230e+02   1.328547e+02
  -2.455470e+02  -9.112070e+01
  -4.701100e+01  -2.025738e+02
   9.258305e+01  -1.797095e+02
   6.115971e+01  -1.849632e+01
  -8.584361e+01   9.765445e+01
  -1.661526e+02  -1.513250e+00
  -3.360269e+01  -1.524403e+02
   1.608735e+02  -1.221610e+02
   1.403677e+02   4.009833e+01
   2.678290e+00   1.392973e+02
  -1.724756e+02   2.185551e+01
  -1.246644e+02  -2.020626e+02
   2.809214e+01  -2.723473e+02
   1.868040e+02  -1.369526e+02
   2.483332e+02   6.355360e+01
   1.991373e+02   1.647236e+02
   4.304157e+01   2.184585e+02
  -8.197564e+01   1.421666e+02
  -1.373215e+02   2.008498e+01
  -4.013629e+01  -2.152237e+01
   3.175825e+01   2.811077e+01
   2.096308e+01   8.926675e+01
  -1.127119e+02   3.916792e+01
  -1.423080e+02  -2.222829e+01
  -4.863532e+01  -4.991547e+01
   7.082845e+01  -2.578197e+01
   3.392882e+01   6.481074e+01
  -9.449012e+01   6.567337e+01
  -1.992037e+02   2.034521e+01
  -1.804084e+02  -1.164833e+02
  -2.362484e+01  -1.984493e+02
   1.368747e+02  -1.759385e+02
   2.098340e+02  -9.140144e+01
   1.538180e+02   3.366242e+01
  -7.773074e+00   9.165188e+01
  -5.883497e+01  -3.876911e+00
   4.598524e+01  -6.753561e+01
   1.573989e+02  -3.278262e+01
   1.656979e+02   8.483467e+01
   2.476407e+01   1.723965e+02
  -6.195222e+01   1.089331e+02
  -1.235134e+02   1.761150e+01
  -3.876701e+01  -1.778602e+01
   5.295782e+00  -1.167860e+00
   2.102191e+01   3.074512e+01
  -6.685045e+01   7.297749e+01
  -1.384200e+02   2.748581e+01
  -1.285082e+02  -9.357220e+01
  -2.422246e+01  -1.406110e+02
   1.149359e+02  -1.055176e+02
   1.274807e+02  -1.792162e+01
   3.114000e+01   8.670154e+01
  -7.036873e+01   6.193858e+01
  -5.866851e+01   4.691284e+01
  -1.452335e+01   1.512847e+01
   2.652323e+01  -9.471173e+00
  -2.151465e+01   6.429036e+00
  -5.564875e+01  -2.042872e+01
  -7.072475e+01  -4.877597e+01
   1.825267e+01  -1.234207e+02
   6.212971e+01  -1.035824e+02
   1.556731e+02  -1.689566e+01
   1.366865e+02   9.561401e+01
   3.927896e+01   1.859181e+02
  -8.531178e+01   1.478916e+02
  -9.360154e+01   3.581336e+01
  -6.797690e+01  -2.802631e+01
  -5.755429e+01  -3.406833e+01
  -3.650653e+01  -5.812728e+00
  -6.788326e+01  -5.659137e+00
  -2.613039e+01  -6.006160e+01
   3.098213e+01  -7.207633e+01
   6.118391e+01  -4.359152e+01
   5.643878e+01   3.764642e+01
  -2.467061e+01   6.250790e+01
  -1.149939e+02   6.329164e+01
  -1.620817e+02  -5.664067e+01
  -6.767615e+01  -1.488806e+02
   5.788008e+01  -1.429994e+02
   1.578885e+02  -6.474243e+01
   1.854606e+02   4.830015e+01
   5.380605e+01   1.089771e+02
  -3.158457e+01   1.193306e+02
  -7.847590e+01   5.502514e+01
  -5.034657e+01   5.327016e+01
  -6.085739e+01   1.126113e+02
  -9.047189e+01   3.656290e+01
  -9.312400e+01  -2.976222e+01
  -6.941854e+01  -1.298956e+02
  -6.466443e+00  -1.733761e+02
   8.823220e+01  -1.335597e+02
   1.351655e+02  -2.064455e+01
   8.690722e+01   9.506288e+01
   1.166060e+01   1.153875e+02
  -5.202391e+01   4.651645e+01
  -3.175833e+01  -1.313186e+01
  -2.822781e+01  -2.760716e+01
   3.114440e+01  -3.723987e+01
  -3.247133e+01  -1.912127e+01
  -6.265036e+01  -2.576928e+01
   3.575560e+00  -2.499429e+01
   4.685427e+01  -2.212075e+01
   1.239817e+02  -1.141196e+01
   1.077727e+02   4.704429e+01
   8.163197e+00   9.859862e+01
  -9.683362e+01   5.193609e+01
  -1.017356e+02   1.735888e+01
  -4.640180e+01  -2.289570e+01
   5.633453e+01  -2.339279e+01
   6.855501e+01   3.248154e+01
   9.022869e+00   7.150249e+01
  -3.314504e+01   5.359135e+01
  -4.267578e+01  -9.596487e+00
  -4.028083e+01  -3.297537e+01
  -7.819217e+00  -3.528065e+01
  -3.670939e+01   4.208501e+00
  -5.316385e+01   8.524758e-01
  -1.465408e+01  -7.783520e+01
   4.293043e+01  -9.959994e+01
   1.131513e+02  -7.988216e+01
   1.264188e+02  -3.376978e+00
   1.137999e+02   3.579407e+01
   9.535679e+00   8.529636e+01
  -6.809227e+01   1.128574e+01
  -6.266253e+01  -7.953323e+00
   4.006975e+01  -1.241583e+01
   1.031117e+02   4.052190e+01
   2.765610e+01   8.044090e+01
  -6.245319e+01   6.608499e+01
  -1.395475e+02   1.781306e+01
  -1.215798e+02  -2.293039e+01
  -3.251460e+01  -3.937162e+01
   5.165261e+01  -7.202654e+01
   3.710693e+01  -2.377691e+01
  -2.301221e+01   1.203827e+01
  -7.543732e+01  -3.819422e+01
  -1.485049e+01  -6.586120e+01
   8.099974e+01  -1.136109e+02
   1.084883e+02  -4.688163e+01
   7.752009e+01   7.925768e+01
  -4.584983e+00   1.385603e+02
  -4.634067e+01   9.605090e+01
  -7.749936e+01   7.465602e+00
  -4.909951e+01  -8.512524e+01
  -1.826537e+01  -8.165961e+01
   3.759985e+01  -1.364204e+01
   5.834106e+01   1.707373e+01
   3.915560e+01  -2.391452e+00
  -8.157104e+00  -2.138632e+01
   2.862955e+01   1.529878e+01
   2.857784e+01   8.285888e+01
   3.726485e+01   8.784536e+01
  -4.015697e+01   2.308981e+01
  -1.139184e+02  -1.633571e+01
  -9.822092e+01  -4.220164e+01
  -1.764674e+01  -2.423821e+01
   2.822032e+01  -2.076504e+00
   5.714839e+01  -5.449376e+00
   9.086469e+00  -7.247719e+00
  -1.958624e+01   2.661087e+01
  -2.312246e+01  -1.576737e+01
   2.045380e+01   1.533731e+01
   3.274775e+00  -1.725759e+01
  -3.894387e+01  -4.928942e+00
  -8.567563e+01  -3.677831e+01
   3.338771e+01  -5.061772e+01
   9.505260e+01  -6.125577e+01
   1.242995e+02  -5.243774e+01
   9.672567e+01   4.694369e+01
   1.765281e+01   1.327283e+02
  -2.306972e+01   1.235947e+02
  -7.959941e+01   4.704275e+01
  -7.553990e+01  -2.312986e+01
  -3.269578e+01  -3.803509e+01
  -1.147868e+01  -2.239451e+01
  -1.279847e+01  -8.310612e-01
  -3.013194e+01  -1.962686e+01
  -2.246938e+01  -5.879156e+01
   1.278898e+01  -3.448788e+01
   5.611201e+01   3.730535e+01
   4.507642e+01   7.294168e+01
  -4.178985e-01   7.925614e+01
  -4.640246e+01   1.542398e+01
  -7.608631e+01  -4.845669e+01
  -3.269192e+01  -7.960214e+01
   5.732481e+01  -4.799343e+01
   6.588131e+01  -4.122738e+00
   2.897312e+01   5.813051e+01
  -7.635351e-01   1.979318e+01
  -5.249788e+01   2.461519e+01
   2.165724e+01   4.500423e+00
   3.154321e+01   1.115307e+01
   1.157710e+01   1.133746e+01
  -5.708258e+01   3.344476e+01
  -8.994561e+01   3.940166e+01
  -2.916428e+01  -7.072929e+00
   1.360330e+01  -5.812218e+01
   2.734387e+01  -6.671561e+01
   3.778159e+01  -5.482358e+00
  -2.989988e+01   1.149327e+01
  -7.460400e+00   4.114815e+01
  -1.454116e+01  -1.432901e+01
  -1.713482e+01  -5.708346e+01
   6.828185e-01  -1.045832e+01
   9.486628e-01   1.290708e+01
   3.152674e+01  -3.759601e+00
   1.062106e+01  -9.126232e+00
   6.901311e+00   4.874097e+00
  -2.879005e+01   2.489705e+01
  -2.735830e+01   2.962034e+01
  -2.377843e+01   3.856489e+01
  -1.657851e+01   2.242747e+01
  -1.077471e+01  -5.593007e+01
   6.460393e+00  -2.457261e+01
   3.883319e+01   1.700053e+01
   3.881847e+01   6.944432e+00
   4.120669e+01   2.994895e+01
  -1.223919e+01   1.638122e+01
  -7.311948e+01  -3.039874e+01
  -4.432987e+01  -2.385498e+01
   9.660811e+00  -4.045393e+01
   4.419972e+01   9.398210e+00
   7.634003e+00  -4.606517e+00
  -1.874185e+01  -1.088515e+01
  -3.260981e+01   1.125609e+01
   1.129846e+01  -3.106510e+01
   6.629303e+01  -8.377540e+00
