
 $NMID
 id='ANONYMOUS ', fmtdat='(2E16.6)'
 volume=1.0
 tramp=1.0
 $END
  -3.880991e+03   3.376589e+02
  -2.244196e+03  -2.474302e+03
   7.529236e+02  -2.821244e+03
   2.120177e+03  -7.075031e+02
   8.167420e+02   6.196962e+02
  -6.600667e+02   4.477410e+02
  -8.412680e+02  -3.348922e+02
   2.037936e+01  -9.968931e+02
   7.622372e+02  -7.270226e+02
   8.730907e+02   1.009505e+02
   3.685188e+02   8.067758e+02
  -1.987545e+02   8.201643e+02
  -6.083611e+02   1.460214e+02
  -3.564213e+02  -5.862401e+02
   2.250670e+02  -6.868311e+02
   5.632397e+02  -6.627902e+01
   2.657797e+02   6.099161e+02
  -2.753250e+02   6.056909e+02
  -4.987440e+02   9.849230e+01
  -3.554957e+02  -3.172365e+02
  -2.777158e+01  -3.855458e+02
   2.331240e+02  -2.281304e+02
   2.171369e+02  -2.331303e+01
  -6.852715e+01   7.965052e+01
  -3.650079e+02  -1.221052e+02
  -1.913871e+02  -3.791284e+02
   3.842417e+02  -3.641238e+02
   7.750067e+02   4.754130e+01
   4.334108e+02   4.915525e+02
  -2.936043e+02   4.754130e+02
  -6.583337e+02  -1.642086e+01
  -3.246612e+02  -4.228497e+02
   2.277894e+02  -4.842324e+02
   5.336354e+02  -2.072876e+02
   3.506223e+02   2.151110e+02
   3.957703e+01   4.277690e+02
  -1.849743e+02   2.680836e+02
  -1.622876e+02  -1.999546e+02
   1.443017e+02  -3.895041e+02
   3.753358e+02  -1.428794e+01
   1.920091e+02   5.586948e+02
  -2.457459e+02   5.971407e+02
  -5.414420e+02   3.159407e+01
  -2.532594e+02  -4.353541e+02
   2.491280e+02  -2.787462e+02
   3.100238e+02   2.527436e+02
  -9.347125e+00   4.485750e+02
  -4.606133e+02   1.790712e+02
  -5.466332e+02  -3.415129e+02
  -1.546248e+02  -4.911835e+02
   3.315301e+02  -2.709968e+02
   5.539155e+02   6.668910e+01
   3.634502e+02   3.476522e+02
  -1.176580e+02   3.437286e+02
  -4.194077e+02   6.324547e+01
  -2.160491e+02  -1.717512e+02
   8.864934e+01  -9.119894e+01
   1.217814e+02   1.590883e+02
  -1.281107e+02   1.865607e+02
  -2.921315e+02  -3.916669e+01
  -1.245748e+02  -2.534365e+02
   1.490110e+02  -2.128651e+02
   2.703463e+02  -1.608992e+01
   1.856971e+02   7.318296e+01
  -2.987810e+01   2.113251e+02
  -2.107027e+02   3.008173e+02
  -3.290921e+02   2.188651e+02
  -2.826469e+02  -1.257878e+02
  -7.635250e+01  -4.238484e+02
   1.199504e+02  -3.742843e+02
   1.456628e+02  -8.085553e+01
   5.259857e+01   1.626511e+01
   3.759677e+01  -4.356907e+01
   1.620830e+02  -1.048748e+02
   1.905928e+02   5.779126e+01
   1.588452e+02   2.093619e+02
  -3.709725e+01   2.353646e+02
  -1.592074e+02   7.168643e+00
  -1.897329e+02  -2.011997e+02
   1.843708e+01  -2.398123e+02
   2.498650e+02  -1.030711e+02
   3.191475e+02   1.238056e+02
   1.683884e+02   2.849070e+02
  -1.009240e+02   2.981782e+02
  -1.878711e+02   9.827515e+01
  -1.379747e+02   8.653939e+00
  -8.194051e+01   1.916936e+01
  -1.865385e+02   2.517855e+01
  -3.461833e+02  -6.909235e+01
  -2.694309e+02  -2.340579e+02
   3.784659e+01  -3.994200e+02
   3.101277e+02  -3.522439e+02
   4.203831e+02  -1.519189e+02
   2.963855e+02   9.692961e+01
   2.060526e+01   2.696903e+02
  -1.127329e+02   2.253081e+02
  -9.587873e+01   3.881298e+00
   1.029294e+02  -1.011666e+02
   1.712392e+02   1.678181e+01
   4.964061e+01   1.719915e+02
  -1.740142e+02   1.680709e+02
  -1.409678e+02  -7.231223e+01
  -4.912205e+00  -2.081042e+02
   1.735322e+02  -1.794601e+01
   1.445452e+02   2.293955e+02
  -8.747571e+00   3.077760e+02
  -2.192542e+02   1.751542e+02
  -3.001012e+02  -7.045201e+01
  -2.470663e+02  -2.106595e+02
  -8.398673e+01  -2.166625e+02
   1.097709e+02  -1.581524e+02
   1.538416e+02  -2.339458e+01
   5.744100e+01   1.310535e+01
  -4.133522e+01  -5.321980e+01
  -3.145320e+01  -9.289471e+01
   1.001243e+02  -9.634067e+01
   1.407491e+02   7.701787e-01
   2.787659e+01   5.189449e+01
  -5.883977e+01   3.501416e+01
  -5.354180e+01  -4.876420e+01
   8.392926e+01  -7.508302e+01
   2.085594e+02  -1.436053e+01
   2.244830e+02   9.768530e+01
   3.250520e+01   1.943075e+02
  -1.560905e+02   2.100376e+02
  -2.437316e+02   1.090809e+02
  -1.897291e+02  -1.951414e+01
   9.865468e-01  -1.186076e+02
   7.469134e+01   1.416512e+01
  -1.693599e+01   9.153780e+01
  -1.721309e+02   7.881462e+01
  -1.756271e+02  -9.436873e+01
  -6.108349e+01  -2.071044e+02
   9.476795e+01  -1.239632e+02
   1.593846e+02  -4.562483e+01
   7.586720e+01   4.385509e+01
   1.813603e+00   1.244587e+00
  -3.701879e+01  -7.524436e+01
   5.475799e+01  -1.059894e+02
   1.788100e+02  -3.541099e+01
   1.495203e+02   9.692419e+01
   2.743732e+01   1.694474e+02
  -1.262565e+02   1.445568e+02
  -1.510341e+02   3.400215e+01
  -5.805988e+01  -8.724669e+01
   4.300214e+01  -9.209764e+01
   8.134043e+01  -5.211006e+01
   1.078774e+01   5.675369e+00
  -1.990052e+01   1.400352e+01
   3.021053e+01  -1.239926e+01
   3.740398e+01   2.483299e+01
   7.678191e+01   7.022980e+01
   3.091831e+01   1.197528e+02
  -6.215512e+01   1.247104e+02
  -1.748716e+02   1.838525e+01
  -1.572478e+02  -9.752286e+01
  -5.897660e+01  -1.972291e+02
   9.677144e+01  -1.365646e+02
   1.175528e+02  -2.281652e+01
   5.396254e+01   4.878943e+01
   4.357405e+01   2.263507e+01
   3.472301e+01  -2.114574e+01
   6.474888e+01   6.011617e-01
   4.316796e+01   7.743256e+01
  -5.540064e+01   8.878421e+01
  -6.592600e+01   4.184437e+01
  -9.321060e+01  -3.919530e+01
   7.071832e+00  -7.011336e+01
   1.243868e+02  -5.637855e+01
   1.570438e+02   7.020844e+01
   7.934768e+01   1.745954e+02
  -7.388386e+01   1.760467e+02
  -2.182055e+02   8.965653e+01
  -2.240218e+02  -7.429037e+01
  -8.094546e+01  -1.308286e+02
   2.318561e+01  -1.335213e+02
   6.335728e+01  -8.133936e+01
   4.387309e+01  -6.091094e+01
   6.366303e+01  -8.380220e+01
   6.756980e+01  -8.453622e+01
   7.721998e+01  -2.451478e+00
   9.619591e+01   1.291193e+02
   3.708264e+00   1.930633e+02
  -9.028300e+01   1.467690e+02
  -1.454416e+02   6.103391e+00
  -1.144892e+02  -1.121433e+02
  -2.905063e+01  -1.447580e+02
   8.983552e+01  -7.584425e+01
   5.642810e+01   1.840920e+01
  -9.855490e+00   2.931278e+01
  -1.245004e+01   4.476641e+01
   3.194176e+01   7.809315e+00
   7.198172e+01   3.519070e+01
   3.954535e+01   5.193827e+01
  -6.158791e+01   4.643961e+01
  -1.320882e+02   1.952750e+00
  -1.236713e+02  -3.583666e+01
  -2.192788e+01  -7.599288e+01
   1.036486e+02  -6.073983e+01
   1.093487e+02  -2.619550e+01
   4.402750e+01   3.668964e+01
  -3.414028e+01   3.396527e+01
  -7.254048e+01  -2.183744e+01
   8.980450e+00  -8.704065e+01
   9.866773e+00  -3.817876e+01
   4.032063e+01   2.217760e+01
   1.780627e+01   4.300947e+01
   2.381556e+01   3.918968e+01
   6.227750e+01  -1.378507e+01
   5.773421e+01  -2.881354e+01
   2.574401e+01   8.251699e+01
  -3.049798e+01   1.339993e+02
  -1.158218e+02   1.208384e+02
  -1.373432e+02   1.912518e+00
  -8.593449e+01  -6.526640e+01
   5.839497e+00  -8.224532e+01
   7.399705e+01  -5.722504e+01
   4.451099e+01   2.063184e+01
  -5.670047e+01   3.087216e+01
  -1.236189e+02  -4.106312e+01
  -5.995303e+01  -1.005265e+02
   6.109981e+01  -6.776097e+01
   1.634253e+02  -2.584849e+01
   1.244474e+02   3.784595e+01
   2.452424e+00   9.011487e+01
  -7.365586e+01   6.016372e+01
  -5.718051e+01  -1.010430e+00
   3.565900e+01  -3.699930e+01
   8.262565e+01   4.760088e+01
   1.778565e+01   1.106814e+02
  -9.130657e+01   1.399631e+02
  -1.504383e+02   5.207521e+01
  -9.280501e+01  -7.952304e+01
  -1.347171e+01  -1.686654e+02
   6.979748e+01  -1.234733e+02
   1.020362e+02   1.310403e+01
   3.475573e+01   6.923025e+01
   4.524540e+00   7.143264e+01
  -5.313630e+01   4.189479e+01
  -2.644971e+01   3.260174e-01
  -3.404178e+01  -3.793140e+00
  -2.564030e+01   3.698510e+01
   2.339133e+00  -4.521231e+00
  -1.442988e+01  -9.701916e+01
  -1.912912e+01  -1.083551e+02
   5.287483e+01  -3.728697e+01
   1.222185e+02   1.941764e+01
   1.080725e+02   8.747055e+01
   4.509278e+01   6.414323e+01
  -6.732028e+01   3.308159e+01
  -5.331365e+01  -4.531871e-01
  -3.239334e+01  -1.414247e+01
   1.941308e+01  -1.287688e+01
   1.776185e+01  -1.005554e+01
  -2.200001e+01   4.094988e+00
   9.895678e+00  -2.479996e+01
   6.395430e+01   7.712525e-01
   7.543585e+01   4.265755e+01
   1.082221e+01   5.339903e+01
  -7.064773e+01   1.128389e+02
  -1.474700e+02   6.414134e+01
  -1.220320e+02  -5.838501e+01
  -6.531213e+01  -1.417140e+02
   4.179109e+01  -1.202241e+02
   1.134679e+02  -5.496966e+01
   8.382517e+01   2.024895e+01
   4.004802e+01   4.005485e+01
  -1.831237e+01  -1.428371e+00
   1.105988e+01  -6.734672e+00
   4.619187e+00   1.701055e+01
   4.251355e+01   6.898723e+01
  -2.311828e+01   8.083775e+01
  -6.700564e+01  -7.664869e+00
  -6.597909e+01  -9.361553e+01
  -4.116091e+00  -9.398768e+01
   4.652529e+01  -3.417148e+01
   1.006838e+02   4.945050e+01
   4.550019e+01   1.052784e+02
  -5.063771e+01   5.816365e+01
  -8.304997e+01  -2.789567e+01
  -3.897827e+01  -5.932883e+01
   1.874719e+01  -7.478951e+01
   5.339971e+01  -3.112118e+01
  -1.176672e+01   1.851208e+00
  -6.404576e+01   3.327047e+01
  -1.088703e+01   5.462067e+00
   6.856189e+01  -3.751716e+01
   1.015393e+02  -4.657758e+01
   3.912026e+01   1.041428e+01
  -1.211147e+00   6.635541e+01
  -4.810461e+01   6.710100e+01
  -3.258802e+01   1.656429e+01
   1.153121e+01  -3.927085e+01
  -8.081796e+00  -6.624667e+01
   3.630334e+01   2.219808e+01
   1.901119e+01   4.290226e+01
   4.260358e+00   2.966591e+01
  -2.239809e+01  -2.467142e+01
  -4.111905e+01  -1.880629e+01
  -2.126375e+01  -9.711352e+00
   1.121447e+01   5.138701e+00
   9.040387e+00  -2.738452e+01
   7.655320e-01  -4.004842e+01
   1.109113e+01  -4.694732e+01
   3.586202e+01  -1.697164e+01
   3.228626e+01   5.237415e+00
   7.069631e-01   3.593008e+01
  -2.966440e+00   4.011844e+01
  -4.880563e+01  -1.215701e+01
  -5.769759e+01  -4.190476e+01
   2.754401e+01  -8.533566e-01
   6.009855e+01   1.335848e+01
   5.160252e+01   4.255473e+01
  -4.738074e+01   3.573049e+01
  -5.497706e+01   2.622684e+00
  -2.853949e+01   2.270067e+00
   2.911710e+01   3.105462e+01
   3.819999e+01  -1.845343e-01
  -2.937237e+01   3.717850e+01
  -8.284332e+01   2.656938e+01
