
 $NMID
 id='ANONYMOUS ', fmtdat='(2E16.6)'
 volume=1.0
 tramp=1.0
 $END
   4.222203e+03  -1.651724e+01
   2.434415e+03   2.545312e+03
  -7.689790e+02   2.740599e+03
  -2.062070e+03   9.269708e+02
  -1.013016e+03  -6.006526e+02
   6.204601e+02  -5.673455e+02
   9.772760e+02   5.346894e+02
  -1.310784e+01   1.027795e+03
  -8.242978e+02   7.483761e+02
  -9.209308e+02  -2.829178e+01
  -4.397656e+02  -8.285177e+02
   2.556199e+02  -9.372706e+02
   6.393521e+02  -7.579079e+01
   3.909493e+02   7.036159e+02
  -2.781155e+02   7.389215e+02
  -6.276958e+02  -1.112340e+01
  -2.931147e+02  -6.288826e+02
   3.487649e+02  -6.468007e+02
   5.648246e+02  -9.007063e+01
   3.742646e+02   3.387829e+02
   2.087022e+01   4.476708e+02
  -2.676050e+02   2.516969e+02
  -2.397187e+02  -6.833853e+00
   1.416350e+02  -1.086060e+02
   4.003794e+02   8.668131e+01
   1.845113e+02   4.384931e+02
  -4.495087e+02   4.122460e+02
  -8.413828e+02  -5.704802e+01
  -4.642052e+02  -5.565972e+02
   3.770494e+02  -5.118426e+02
   7.363484e+02   1.647066e+01
   3.770961e+02   5.139903e+02
  -2.436219e+02   5.613818e+02
  -5.500987e+02   2.047096e+02
  -4.088960e+02  -2.223025e+02
  -1.579464e+01  -5.070297e+02
   2.483547e+02  -2.716881e+02
   2.015268e+02   2.279624e+02
  -1.540293e+02   4.703113e+02
  -4.587785e+02   2.485036e+01
  -2.315921e+02  -6.552359e+02
   3.482738e+02  -6.929244e+02
   6.138234e+02  -3.695049e+01
   2.509837e+02   5.818456e+02
  -3.049812e+02   3.499095e+02
  -3.903705e+02  -3.031964e+02
   4.945607e+01  -5.531184e+02
   5.595280e+02  -2.134960e+02
   6.014937e+02   3.494862e+02
   2.020741e+02   5.582598e+02
  -3.520408e+02   3.649963e+02
  -6.198346e+02  -5.310291e+01
  -4.023430e+02  -4.474397e+02
   1.178864e+02  -4.088810e+02
   4.469312e+02  -9.113513e+01
   2.155295e+02   1.956001e+02
  -1.455486e+02   1.188626e+02
  -1.707566e+02  -1.670026e+02
   1.137159e+02  -2.284443e+02
   3.245335e+02   2.300566e+01
   1.302944e+02   2.860254e+02
  -1.765739e+02   2.477396e+02
  -3.391305e+02   6.801697e+01
  -2.092977e+02  -7.831125e+01
   7.112806e-01  -2.167622e+02
   1.904250e+02  -3.220509e+02
   3.321725e+02  -2.072846e+02
   2.391755e+02   1.147207e+02
   7.161221e+01   4.079236e+02
  -1.089136e+02   3.697808e+02
  -1.291273e+02   8.501035e+01
   2.784150e+01  -6.277090e+01
  -3.675551e+01   6.714019e+01
  -1.810374e+02   1.390228e+02
  -2.796514e+02  -3.678342e+01
  -1.882313e+02  -2.501812e+02
   2.828159e+01  -2.764509e+02
   1.959089e+02  -4.288675e+01
   1.887178e+02   2.354220e+02
   2.173525e+00   3.000109e+02
  -2.663207e+02   1.503925e+02
  -3.631851e+02  -1.789832e+02
  -1.796430e+02  -3.742293e+02
   9.825073e+01  -2.983372e+02
   2.393834e+02  -1.156218e+02
   1.593082e+02   3.637282e+01
   9.080368e+01  -2.634567e+01
   2.368585e+02  -6.749128e+01
   3.509034e+02   5.760791e+01
   3.589758e+02   2.445246e+02
   4.303972e+01   4.006231e+02
  -3.146818e+02   4.025108e+02
  -4.644734e+02   1.776022e+02
  -3.059130e+02  -1.088586e+02
  -5.496029e+01  -2.883673e+02
   1.016616e+02  -2.590947e+02
   1.106726e+02  -3.104182e+01
  -8.609662e+01   1.051713e+02
  -2.062124e+02  -1.626396e+00
  -8.314632e+01  -1.847376e+02
   1.727590e+02  -2.002773e+02
   2.120266e+02   3.067378e+01
  -1.348956e+01   1.849474e+02
  -2.175244e+02   4.083495e+01
  -1.907541e+02  -2.317105e+02
   1.313207e+01  -3.557645e+02
   2.140815e+02  -1.951086e+02
   3.009178e+02   5.402125e+01
   2.468256e+02   1.918683e+02
   8.674215e+01   2.547931e+02
  -1.171804e+02   1.530575e+02
  -1.599929e+02   1.210599e+01
  -6.784141e+01  -5.617148e+01
   7.728938e+01   3.841576e+01
   2.685763e+01   1.350110e+02
  -1.135017e+02   1.211448e+02
  -1.946050e+02  -1.498573e+01
  -3.003704e+01  -7.763913e+01
   7.782729e+01  -3.876056e+01
   5.085458e+01   6.411853e+01
  -9.422110e+01   1.086807e+02
  -2.684560e+02   6.331120e+00
  -2.466081e+02  -1.308894e+02
  -6.108906e+01  -2.553488e+02
   1.676806e+02  -2.564836e+02
   2.538037e+02  -9.112983e+01
   1.681553e+02   4.665840e+01
   9.673776e+00   1.104723e+02
  -6.688149e+01  -6.851391e+00
   5.092398e+00  -7.448566e+01
   1.921796e+02  -7.418045e+01
   2.194450e+02   7.790655e+01
   6.110043e+01   1.963516e+02
  -1.078847e+02   1.659088e+02
  -1.376645e+02   3.153261e+01
  -6.799003e+01  -6.423704e+01
   1.048340e+01  -4.215036e+01
   4.198839e+01   5.549032e+01
  -7.559119e+01   1.223660e+02
  -1.896447e+02   5.032513e+01
  -1.690805e+02  -1.024266e+02
  -2.944963e+01  -1.958798e+02
   1.553822e+02  -1.616172e+02
   1.946301e+02  -8.524267e+00
   3.750170e+01   1.089002e+02
  -6.358511e+01   1.041741e+02
  -6.545081e+01   3.170411e+01
  -3.378440e+01  -2.022455e+01
   1.724934e+01  -1.049415e+00
  -2.881638e+01  -5.172519e+00
  -7.043253e+01  -3.097684e+01
  -8.386499e+01  -7.094633e+01
  -9.159671e+00  -1.349680e+02
   1.037080e+02  -1.506057e+02
   2.098322e+02  -2.026819e+01
   1.824720e+02   1.277750e+02
   5.332990e+01   2.359744e+02
  -1.177988e+02   1.792453e+02
  -1.308021e+02   3.411350e+01
  -7.440856e+01  -5.887698e+01
  -2.896980e+01  -3.582055e+01
  -5.886878e+01   1.025814e+01
  -6.781562e+01   2.058461e+01
  -5.606830e+01  -6.404430e+01
   3.850999e+01  -8.973533e+01
   7.500228e+01  -3.042413e+01
   8.657775e+01   1.702282e+01
  -1.080579e+01   1.058609e+02
  -1.398521e+02   6.828083e+01
  -1.927480e+02  -1.936577e+01
  -1.177788e+02  -1.722480e+02
   6.450176e+01  -2.236516e+02
   2.682902e+02  -1.061310e+02
   2.590393e+02   5.875964e+01
   1.066260e+02   1.425368e+02
  -3.492240e+01   1.328859e+02
  -1.072501e+02   8.034727e+01
  -8.889500e+01   5.284425e+01
  -8.399612e+01   7.411199e+01
  -7.737024e+01   6.548592e+01
  -8.313264e+01   1.264088e+01
  -1.307361e+02  -1.165372e+02
  -3.195518e+01  -2.197828e+02
   1.137609e+02  -1.691400e+02
   1.702217e+02  -1.128252e+01
   1.363629e+02   1.027831e+02
   1.273746e+01   1.526060e+02
  -7.101702e+01   1.028531e+02
  -5.656686e+01   6.343606e+00
  -1.324300e+01  -3.734893e+01
   1.170581e+01  -2.239626e+01
  -3.596671e+01  -1.580255e+01
  -8.743790e+01  -1.996318e+01
  -6.383093e+01  -3.553891e+01
   3.428878e+01  -6.267864e+01
   1.355020e+02   1.001770e+01
   1.445138e+02   3.968209e+01
   1.339751e+01   9.332259e+01
  -8.820557e+01   5.139423e+01
  -1.268752e+02   1.823628e+01
  -5.485277e+01  -3.670296e+01
   5.809899e+01  -5.080536e+01
   8.569097e+01   4.086152e+01
   2.164831e+01   7.638872e+01
  -3.729907e+01   7.699514e+01
  -5.857302e+01   2.364716e+01
  -4.513386e+01  -4.639371e+01
  -3.010309e+01  -1.901788e+01
  -4.405688e+01  -7.107236e+00
  -6.722209e+01  -2.028628e+01
  -3.437786e+01  -7.558654e+01
   2.566300e+01  -1.373790e+02
   9.214922e+01  -1.241985e+02
   1.703005e+02  -1.125071e+01
   1.252047e+02   8.905051e+01
   5.177622e+00   1.041169e+02
  -7.757166e+01   6.390840e+01
  -5.581854e+01  -1.137066e+01
   5.275084e+01  -3.619101e+01
   1.255326e+02   2.910140e+01
   7.237888e+01   1.121860e+02
  -6.985525e+01   8.566508e+01
  -1.963783e+02   6.632210e+01
  -1.418667e+02  -2.358713e+01
  -4.403077e+01  -9.025278e+01
   6.821953e+01  -7.801978e+01
   7.084150e+01  -6.415794e+00
  -2.544350e+01   3.440690e+01
  -8.324722e+01  -3.597506e+01
  -2.317217e+01  -1.198978e+02
   6.808744e+01  -1.526343e+02
   1.361757e+02  -4.990850e+01
   1.378892e+02   9.004712e+01
   6.827920e+00   1.961004e+02
  -6.821259e+01   1.241351e+02
  -1.038617e+02   5.459037e+00
  -5.653671e+01  -8.579960e+01
  -7.011553e+00  -1.120108e+02
   7.394225e+01  -2.062719e+01
   2.758696e+01   2.165892e+01
   3.391876e+01  -1.321617e+01
  -9.884355e+00  -1.162824e+01
   3.509956e+01   3.321933e+00
   4.152873e+01   7.652457e+01
   1.121220e+01   1.049878e+02
  -2.933913e+01   5.846879e+01
  -1.410987e+02  -4.284286e+01
  -1.338108e+02  -8.189614e+01
  -2.447535e+01  -6.008303e+01
   6.138749e+01  -2.399567e+01
   7.708247e+01  -1.540499e+00
   6.544164e+00   6.265576e+00
  -3.029217e+01  -5.503430e+00
  -2.157117e+01   3.211573e+01
   2.971215e+01   1.668288e+01
   3.824961e-01  -3.111801e+01
  -5.685389e+01   2.050154e+01
  -1.032943e+02  -1.292188e+01
   3.850593e+00  -7.130974e+01
   9.257122e+01  -1.299449e+02
   1.915257e+02  -4.632392e+01
   1.247573e+02   6.133587e+01
   2.934079e+01   1.585669e+02
  -7.118746e+01   1.614814e+02
  -1.096694e+02   5.481037e+01
  -9.161577e+01  -5.611007e+01
  -5.770661e+00  -5.364743e+01
   1.712452e+01   1.253991e+01
  -1.589564e+01  -2.413995e+01
  -1.261650e+01  -6.962610e+01
  -2.111765e+01  -7.558178e+01
   2.875229e+01  -8.144498e+01
   6.693444e+01   1.811910e+01
   7.239172e+01   8.435576e+01
   1.567496e+01   8.574158e+01
  -7.267603e+01   3.686493e+01
  -9.485076e+01  -4.387254e+01
  -4.627119e+01  -8.512930e+01
   4.902509e+01  -4.213622e+01
   9.998033e+01   2.569572e+01
   2.870464e+01   6.216717e+01
  -1.850926e+01   3.971261e+01
  -1.788096e+01   3.504354e+01
   1.613897e+01  -3.126721e+01
   2.238213e+01  -2.684774e+01
   6.726944e+00  -1.092024e+01
  -5.855631e+01   5.657790e+01
  -1.059034e+02   6.935455e+01
  -7.094933e+01  -2.948143e+01
   1.245267e+01  -8.183048e+01
   3.401936e+01  -7.326508e+01
   6.613475e+01  -7.855121e+00
  -1.587698e+01   5.731177e+01
  -8.114734e+00   5.670262e+01
  -4.654074e+01   8.452401e+00
  -3.396072e+01  -6.317220e+01
  -1.301973e+01  -2.761769e+01
  -5.598778e+00  -1.223264e+01
   3.671104e+01   1.756529e+01
   3.028656e+01  -1.217658e+00
   6.952333e+00  -1.838832e+01
  -1.969796e+00   1.455993e+01
  -1.237329e+01   4.337052e+01
  -8.843911e+00   4.619915e+01
  -5.107777e+01  -4.146712e+00
  -3.013735e+01  -4.421344e+01
   1.046463e+01  -5.110724e+01
   5.460297e+01  -3.090069e+01
   3.260109e+01   3.243406e+01
  -7.732229e+00   4.568640e+01
  -8.039609e+01   3.758158e+01
  -7.868683e+01  -2.942936e+01
  -4.544389e+01  -4.379961e+01
   5.162094e+01  -3.112032e+01
   4.339721e+01  -6.301470e+00
   2.259432e+01  -1.539032e+01
  -5.492239e+01  -7.684659e+00
  -3.178752e+01  -1.460546e+00
   1.978255e+01  -3.262988e+01
   9.916655e+01  -1.547339e+01
