
 $NMID
 id='ANONYMOUS ', fmtdat='(2E16.6)'
 volume=1.0
 tramp=1.0
 $END
   4.722731e+03  -1.819421e+00
   2.794361e+03   2.720617e+03
  -7.295654e+02   2.894914e+03
  -2.468896e+03   8.509234e+02
  -1.000810e+03  -8.045570e+02
   8.471650e+02  -6.204136e+02
   1.069600e+03   6.405628e+02
  -3.103056e+01   1.217215e+03
  -9.014876e+02   8.599980e+02
  -1.037723e+03  -1.491216e+02
  -4.653275e+02  -9.205972e+02
   2.742832e+02  -9.765336e+02
   7.223978e+02  -1.133426e+02
   4.225888e+02   8.067226e+02
  -2.575645e+02   8.023207e+02
  -6.590834e+02  -7.257857e+00
  -2.551866e+02  -7.417650e+02
   3.804880e+02  -6.735414e+02
   6.167943e+02  -9.238864e+01
   4.090423e+02   4.063432e+02
   2.134793e+01   4.962988e+02
  -2.874335e+02   2.695049e+02
  -2.696600e+02  -2.157636e+01
   1.605607e+02  -1.136217e+02
   4.770689e+02   1.229327e+02
   2.061506e+02   4.423328e+02
  -4.946529e+02   5.240086e+02
  -9.735894e+02  -4.396941e+01
  -4.955407e+02  -6.038428e+02
   4.312718e+02  -5.360747e+02
   8.145172e+02   2.915386e+01
   3.888430e+02   5.218029e+02
  -3.060524e+02   5.616990e+02
  -6.205815e+02   2.341609e+02
  -4.378357e+02  -2.969546e+02
  -7.684160e+01  -5.524307e+02
   2.078143e+02  -3.041151e+02
   2.217859e+02   2.818408e+02
  -1.915233e+02   5.293854e+02
  -5.028595e+02  -6.291323e+01
  -2.924832e+02  -7.382425e+02
   3.607085e+02  -7.622774e+02
   6.557916e+02  -1.757225e+01
   2.740263e+02   6.165596e+02
  -3.341710e+02   3.742259e+02
  -4.389952e+02  -3.761238e+02
   8.966169e+01  -5.795672e+02
   5.672964e+02  -1.527978e+02
   6.541106e+02   4.662525e+02
   1.849750e+02   6.271958e+02
  -4.149225e+02   3.709724e+02
  -7.027971e+02  -8.347165e+01
  -3.948454e+02  -4.552488e+02
   1.888865e+02  -4.131975e+02
   4.910707e+02  -7.828270e+01
   2.218194e+02   2.399943e+02
  -1.583525e+02   1.414936e+02
  -1.850890e+02  -1.322771e+02
   1.792160e+02  -2.146212e+02
   3.665725e+02   7.087301e+01
   1.245869e+02   3.383966e+02
  -2.302949e+02   2.848763e+02
  -3.799091e+02   8.121363e+01
  -2.133196e+02  -1.058917e+02
   5.396925e+01  -2.242939e+02
   2.367636e+02  -3.419601e+02
   3.538503e+02  -2.166606e+02
   3.352163e+02   1.575578e+02
   8.633728e+01   5.028443e+02
  -1.266467e+02   3.944845e+02
  -1.641836e+02   8.936767e+01
  -2.924970e+01  -2.257389e+01
  -2.834894e+01   8.620989e+01
  -1.926010e+02   1.276522e+02
  -3.115505e+02  -2.624822e+01
  -1.592775e+02  -2.738922e+02
   9.412820e+01  -2.763827e+02
   2.204453e+02  -2.512110e+01
   2.444024e+02   2.729723e+02
   1.816280e+01   3.242062e+02
  -2.709059e+02   1.486858e+02
  -3.685854e+02  -1.351634e+02
  -1.917938e+02  -3.584381e+02
   1.212676e+02  -2.937967e+02
   2.456920e+02  -1.226767e+02
   1.683445e+02   1.028350e+01
   7.218554e+01  -2.598458e+01
   2.281881e+02  -8.319183e+01
   4.163775e+02   5.437796e+01
   3.689007e+02   3.045489e+02
   1.068824e+01   4.676822e+02
  -3.732113e+02   4.088510e+02
  -5.216912e+02   2.241269e+02
  -3.444985e+02  -9.237607e+01
  -5.055643e+01  -3.328089e+02
   1.248350e+02  -2.502265e+02
   7.799850e+01  -3.237152e+01
  -9.248029e+01   1.326340e+02
  -2.143053e+02  -2.886993e+00
  -4.997023e+01  -2.136159e+02
   1.831419e+02  -1.958784e+02
   1.858914e+02   5.241157e+01
  -6.358841e+00   2.069932e+02
  -2.101930e+02   1.011181e+01
  -1.599326e+02  -2.595548e+02
   5.626288e+01  -3.463609e+02
   2.462454e+02  -2.146127e+02
   3.411370e+02   6.333037e+01
   2.798370e+02   2.623069e+02
   1.058233e+02   2.810303e+02
  -8.840224e+01   1.264880e+02
  -1.489630e+02   2.756625e+00
  -8.842627e+01  -2.422887e+01
   7.718016e+01   4.605419e+01
   3.859796e+01   1.469688e+02
  -1.071831e+02   1.233987e+02
  -1.786041e+02  -9.631772e+00
  -6.322318e+01  -8.194523e+01
   6.557268e+01  -2.440273e+01
   5.844221e+01   6.049313e+01
  -1.251325e+02   7.311385e+01
  -3.138543e+02   8.347536e+00
  -2.477641e+02  -1.273444e+02
  -7.666169e+01  -2.603894e+02
   1.961400e+02  -2.727300e+02
   2.860939e+02  -1.241920e+02
   1.703664e+02   6.739690e+01
  -1.965333e+01   1.426365e+02
  -1.099446e+02   1.661166e+01
   3.564263e+00  -7.805854e+01
   2.089939e+02  -6.994397e+01
   2.203100e+02   9.741064e+01
   1.006419e+02   2.101829e+02
  -9.483804e+01   1.687582e+02
  -1.601367e+02   3.832410e+01
  -9.638671e+01  -5.300548e+01
  -3.170823e+00   1.575977e+01
   5.741771e+01   6.218225e+01
  -5.609517e+01   1.186367e+02
  -2.177552e+02   5.559090e+01
  -2.188561e+02  -1.147528e+02
  -4.506407e+01  -2.355466e+02
   1.618201e+02  -1.687604e+02
   2.263260e+02   4.869611e+00
   1.033023e+02   1.398017e+02
  -6.660733e+01   1.008496e+02
  -1.205151e+02   5.320430e+01
  -3.145756e+01  -4.425050e+01
   2.949829e+01  -3.961294e+01
  -6.195066e+00   4.589509e+00
  -6.420904e+01  -2.493058e+01
  -7.312654e+01  -9.721775e+01
  -1.444934e+01  -1.404825e+02
   1.022126e+02  -1.599278e+02
   2.485761e+02  -3.075744e+01
   1.997604e+02   1.467821e+02
   3.827189e+01   2.571671e+02
  -1.068910e+02   1.516355e+02
  -1.378087e+02   2.615964e+01
  -7.439297e+01  -7.847482e+01
  -3.580157e+01  -3.419643e+01
  -6.679893e+01   1.926746e+01
  -6.742832e+01   7.252366e+00
  -3.953053e+01  -5.125109e+01
   3.634577e+01  -8.418273e+01
   9.224030e+01  -4.381514e+01
   1.001892e+02   5.076574e+01
   3.157410e+00   1.216689e+02
  -1.417673e+02   7.304782e+01
  -2.262216e+02  -6.551537e+01
  -1.101303e+02  -1.981808e+02
   1.387572e+02  -2.430091e+02
   3.005127e+02  -1.262366e+02
   2.620777e+02   8.748891e+01
   9.758151e+01   1.850248e+02
  -5.703053e+01   1.192723e+02
  -1.038385e+02   8.880211e+01
  -8.378280e+01   7.319661e+01
  -6.053751e+01   1.372171e+02
  -8.208647e+01   5.013469e+01
  -1.409200e+02  -1.668928e+01
  -1.182721e+02  -1.675057e+02
  -1.286923e+01  -2.333163e+02
   9.201688e+01  -1.838497e+02
   2.122537e+02  -3.745454e+01
   1.446172e+02   1.429644e+02
  -1.690287e+01   1.763451e+02
  -6.776244e+01   1.215317e+02
  -6.247004e+01   1.850057e+00
  -3.088877e+01  -3.956909e+01
   4.002248e+01  -3.117309e+01
  -4.710069e+01  -2.515440e+01
  -7.201334e+01  -3.451869e+01
  -6.495192e+01  -4.211993e+01
   7.833453e+01  -3.182426e+01
   1.629883e+02  -9.047061e+00
   1.451120e+02   4.630444e+01
   4.708097e+01   1.053722e+02
  -1.398699e+02   9.814155e+01
  -1.555128e+02  -2.938439e+00
  -3.431030e+01  -5.437592e+01
   7.383143e+01  -5.011370e+01
   8.292012e+01   2.379236e+01
   2.956874e+01   6.357881e+01
  -4.982955e+01   4.731403e+01
  -8.499460e+01  -8.513529e+00
  -4.416488e+01  -5.492055e+01
  -2.920474e+01  -2.418463e+01
  -4.888794e+01  -1.891965e+00
  -5.974166e+01   4.739280e+00
  -4.406252e+01  -7.527294e+01
   3.116787e+01  -1.245502e+02
   1.237927e+02  -1.507572e+02
   1.762958e+02  -1.732458e+01
   1.406088e+02   9.284970e+01
   2.273904e+01   1.315769e+02
  -1.036122e+02   3.528044e+01
  -8.046287e+01  -2.628826e+01
   7.165709e+01  -1.433911e+01
   1.195862e+02   4.453564e+01
   8.005167e+01   1.188323e+02
  -1.152690e+02   1.046996e+02
  -2.093844e+02   6.156893e+01
  -1.439296e+02  -9.008767e+00
  -5.678389e+01  -8.368839e+01
   6.824667e+01  -8.675074e+01
   4.309476e+01  -8.119080e+00
  -5.036432e+01   2.079277e+01
  -1.044578e+02  -2.716320e+01
  -3.814546e+01  -1.165663e+02
   1.117820e+02  -1.691534e+02
   1.701792e+02  -4.999410e+01
   1.311040e+02   1.261143e+02
   3.945025e+01   1.978156e+02
  -8.045116e+01   1.475583e+02
  -9.661047e+01  -1.752415e+01
  -7.007121e+01  -1.286801e+02
  -2.401831e+01  -1.165746e+02
   2.590133e+01  -9.991478e+00
   1.171811e+01   5.816513e+01
   2.834472e+01   6.578133e+00
   3.732347e+00  -1.840247e+01
   2.682323e+01   1.296032e+01
   4.388726e+01   8.875590e+01
   4.264949e+01   1.115413e+02
  -4.474000e+01   5.833351e+01
  -1.325297e+02  -4.593300e+01
  -1.360975e+02  -1.017658e+02
  -3.217523e+01  -2.054812e+01
   7.211788e+01  -5.640852e+01
   8.473864e+01   5.244300e-02
   3.620983e+01  -2.350003e+01
  -8.008144e+01   4.087245e+01
  -2.890376e+01   1.209744e+01
   2.463735e+01  -1.768960e+01
   2.829051e+01  -4.701852e+01
  -6.980105e+01  -3.326445e-02
  -1.103374e+02  -1.616373e+01
  -3.889890e+01  -7.766513e+01
   1.403913e+02  -1.260180e+02
   2.013005e+02  -4.061385e+01
   1.344985e+02   8.074300e+01
   6.129353e+01   1.512492e+02
  -6.857777e+01   1.510039e+02
  -1.145157e+02   4.761113e+01
  -8.700572e+01  -1.414014e+01
  -2.987777e+01  -4.036212e+01
  -4.584332e+00  -1.401964e+01
  -1.040598e+01  -1.233951e+01
  -2.295935e+01  -2.744909e+01
   7.161571e+00  -6.304102e+01
   3.955868e+01  -9.009977e+01
   9.757359e+01  -1.788017e+01
   9.934406e+01   1.187528e+02
  -7.418338e+00   1.159573e+02
  -6.420711e+01   2.567196e+01
  -1.107833e+02  -5.091838e+01
  -4.800227e+01  -1.138737e+02
   6.504753e+01  -3.830691e+01
   9.007823e+01   2.224922e+01
   6.521391e+01   9.060737e+01
  -2.771698e+01   4.240368e+01
  -3.942236e+01   1.962666e+01
   4.571073e+01  -1.418737e+01
   8.469691e+01  -7.079955e+00
   6.183162e+00   2.255603e+01
  -9.297750e+01   5.667501e+01
  -9.562787e+01   1.006060e+02
  -5.474329e+01   2.007029e+00
   1.950617e+01  -8.882905e+01
   7.071646e+01  -8.689356e+01
   2.697203e+01  -1.095253e+01
  -1.510046e+00   7.330111e+01
  -3.636231e+01   4.401148e+01
  -4.523060e+01  -1.265283e+01
  -4.276178e+01  -5.473556e+01
   4.784961e+00  -6.906319e+00
   2.429737e+01  -3.514999e+00
   5.878214e+01   3.685374e+01
   1.467559e+01  -1.760023e+01
   1.587590e+01   6.395630e+00
  -4.623009e+00   1.530918e+01
   2.347654e+01   3.264612e+01
  -4.195159e+01   4.901475e+01
  -2.978316e+01   1.106640e+01
  -2.327289e+01  -4.013902e+01
  -1.405672e+01  -5.520874e+01
   2.775573e+01  -4.167459e+01
   5.807061e+01   5.315422e+01
   1.214083e+01   2.528034e+01
  -5.486396e+01   3.897107e+01
  -1.055194e+02  -1.712557e+01
  -6.523195e+01  -3.802150e+01
   4.582178e+01  -3.789171e+01
   6.611171e+01  -3.468574e+01
   2.732972e+01  -2.872019e+00
  -2.750216e+01  -1.700981e+01
  -4.283849e+01  -1.210495e+01
   3.032144e+01  -3.169746e+01
   9.746190e+01  -8.523405e+00
