
 $NMID
 id='ANONYMOUS ', fmtdat='(2E16.6)'
 volume=1.0
 tramp=1.0
 $END
   3.528631e+03   4.579585e+01
   2.233594e+03   1.950545e+03
  -4.224612e+02   2.271642e+03
  -1.472093e+03   1.113378e+03
  -9.551040e+02  -1.374673e+02
   2.739130e+02  -3.965120e+02
   5.618582e+02   2.309737e+02
   3.166253e+01   7.907759e+02
  -6.106665e+02   6.519190e+02
  -7.867236e+02   5.962199e+01
  -4.503730e+02  -6.092589e+02
   8.376556e+01  -6.973145e+02
   3.992764e+02  -1.684648e+02
   2.757287e+02   5.064702e+02
  -1.705911e+02   5.919265e+02
  -4.400902e+02   4.159101e+01
  -3.005875e+02  -5.583550e+02
   2.696128e+02  -6.092807e+02
   5.348441e+02  -1.896635e+02
   4.070634e+02   2.597994e+02
   9.680175e+01   3.665700e+02
  -1.659408e+02   2.404913e+02
  -1.072790e+02   6.136352e+01
   1.822990e+02  -8.312943e+00
   3.005376e+02   2.209864e+02
   5.989559e+00   3.773973e+02
  -4.766761e+02   2.625580e+02
  -6.509954e+02  -1.782573e+02
  -3.058223e+02  -4.712627e+02
   3.610085e+02  -3.056420e+02
   5.740702e+02   1.075039e+02
   2.604624e+02   3.989826e+02
  -2.778262e+02   4.273077e+02
  -4.794741e+02   1.332017e+02
  -3.556493e+02  -2.021230e+02
  -8.707250e+01  -3.604747e+02
   1.165659e+02  -2.255977e+02
   2.127286e+01   1.436719e+02
  -1.827684e+02   2.519000e+02
  -2.854940e+02  -1.229174e+02
  -8.984297e+01  -5.427822e+02
   2.977905e+02  -5.804074e+02
   4.304500e+02   1.059195e+01
   1.546598e+02   4.260832e+02
  -2.492984e+02   2.160121e+02
  -2.525321e+02  -3.129524e+02
   9.992357e+01  -4.501468e+02
   4.853217e+02  -5.883450e+01
   5.119958e+02   3.865697e+02
   1.277902e+02   5.070326e+02
  -3.188494e+02   2.526643e+02
  -5.519440e+02  -4.306879e+01
  -3.382646e+02  -3.127595e+02
   8.556607e+01  -2.695991e+02
   3.300429e+02  -6.300815e+01
   2.083046e+02   1.074325e+02
  -1.936019e+01   4.703498e+01
  -9.638436e+01  -1.315247e+02
   1.438992e+02  -1.157903e+02
   3.016968e+02   4.160884e+01
   1.417974e+02   2.493711e+02
  -1.986431e+02   2.529926e+02
  -3.395732e+02   1.134009e+02
  -2.229012e+02  -1.187147e+02
   3.041140e+01  -2.812223e+02
   3.026778e+02  -3.499470e+02
   3.660244e+02  -1.544354e+02
   2.208656e+02   1.759321e+02
   2.812824e+01   3.994532e+02
  -6.773125e+01   3.175605e+02
  -2.359491e+01   1.441131e+02
  -4.196540e+01   8.734226e+01
  -9.497875e+01   8.613638e+01
  -2.260979e+02   8.184548e+01
  -2.481108e+02  -1.175539e+02
  -1.329416e+02  -2.875617e+02
   1.016570e+02  -2.378283e+02
   2.192156e+02   5.388575e+01
   1.807615e+02   2.772401e+02
  -4.193931e+01   2.567349e+02
  -2.435564e+02   4.325993e+01
  -3.294598e+02  -1.611767e+02
  -1.467698e+02  -3.280507e+02
   9.951819e+01  -2.992734e+02
   1.968340e+02  -1.190136e+02
   1.266027e+02  -3.965984e+01
   1.009337e+02  -6.599123e+01
   2.451801e+02  -7.480603e+01
   3.955743e+02   5.261989e+01
   3.212934e+02   3.065280e+02
  -1.406743e+01   4.398498e+02
  -3.698011e+02   4.106376e+02
  -4.719570e+02   1.668251e+02
  -2.940536e+02  -1.027790e+02
  -2.760039e+01  -2.748431e+02
   1.182327e+02  -1.888523e+02
   4.266847e+01  -2.324621e+01
  -1.174404e+02   5.484326e+01
  -1.601135e+02  -2.248072e+01
  -2.910458e+01  -1.832132e+02
   1.455365e+02  -1.354180e+02
   1.413716e+02   5.430913e+01
  -3.814980e+01   1.495966e+02
  -1.866794e+02   1.829711e+01
  -1.612612e+02  -2.540607e+02
   1.564168e+01  -3.830890e+02
   2.195784e+02  -2.280355e+02
   3.459707e+02   7.741557e+01
   2.861992e+02   2.600112e+02
   5.314501e+01   2.734740e+02
  -1.274353e+02   1.276901e+02
  -1.359902e+02  -2.543422e-02
  -1.497721e+01  -4.205633e+01
   6.312620e+01   6.056381e+01
   1.798189e+01   1.011986e+02
  -1.145769e+02   8.668728e+01
  -1.548998e+02  -5.218397e+01
  -2.191803e+01  -5.744950e+01
   6.876088e+01  -6.033596e-01
   3.471902e+01   8.576660e+01
  -1.427964e+02   8.493941e+01
  -2.588522e+02  -1.495630e+01
  -2.436928e+02  -1.500348e+02
  -2.324401e+01  -2.477147e+02
   1.852493e+02  -2.401086e+02
   2.596669e+02  -8.321781e+01
   1.446599e+02   5.459316e+01
  -1.883090e+01   8.975763e+01
  -7.582887e+01  -1.692362e+01
   4.583690e+01  -6.966313e+01
   1.791071e+02  -5.526397e+01
   1.992492e+02   1.349245e+02
   6.621653e+01   1.822335e+02
  -9.022156e+01   1.420361e+02
  -1.062689e+02   3.137360e+01
  -4.628274e+01  -3.336568e+01
   4.083551e+01   3.047435e+00
   3.128459e+01   9.320112e+01
  -7.654601e+01   9.326205e+01
  -2.056416e+02   1.835765e+01
  -1.962293e+02  -1.366808e+02
  -3.234136e+01  -2.046213e+02
   1.474833e+02  -1.520128e+02
   1.624452e+02  -2.130691e+01
   5.260445e+01   1.002690e+02
  -6.356381e+01   9.264700e+01
  -8.678994e+01   3.751170e+01
  -9.528299e+00  -3.497401e+00
   1.402663e+01   9.436944e+00
  -1.596801e+01   5.353115e+00
  -9.672277e+01  -3.204003e+01
  -8.031873e+01  -1.126997e+02
  -1.944574e+01  -1.749003e+02
   1.802176e+02  -1.569457e+02
   2.275519e+02   1.835112e+01
   1.781714e+02   1.420419e+02
   5.289499e+00   2.125569e+02
  -1.007448e+02   1.465210e+02
  -1.206845e+02   5.109718e+00
  -6.721202e+01  -5.923765e+01
   4.143050e+00  -3.093243e+01
  -3.919353e+01   1.947012e+01
  -7.205302e+01   1.914530e+01
  -6.538375e+01  -3.858426e+01
   3.987585e+01  -9.373681e+01
   1.149886e+02  -8.504378e+01
   1.167608e+02   2.287450e+01
  -1.192373e+01   1.212820e+02
  -1.616108e+02   9.709657e+01
  -2.056131e+02  -7.407673e+01
  -8.675760e+01  -1.848435e+02
   8.599722e+01  -2.202640e+02
   2.954760e+02  -1.181658e+02
   2.619884e+02   1.125479e+02
   9.821367e+01   1.890426e+02
  -3.902313e+01   1.483447e+02
  -9.700075e+01   6.915498e+01
  -7.711004e+01   6.268672e+01
  -6.354048e+01   9.330206e+01
  -1.052170e+02   9.198980e+01
  -1.535677e+02  -1.027208e+01
  -1.285421e+02  -1.684970e+02
  -2.571000e+01  -2.433668e+02
   1.024791e+02  -1.746593e+02
   1.525427e+02  -2.286947e+01
   1.209842e+02   1.431380e+02
   2.039879e+01   1.677495e+02
  -6.275248e+01   1.150380e+02
  -6.083323e+01  -5.269910e+00
   1.479463e+01  -4.284529e+01
   1.487735e+00  -3.376588e+01
  -1.908101e+01  -3.035251e+01
  -9.664170e+01  -4.400235e+01
  -6.778725e+01  -3.751229e+01
   7.131017e+01  -4.733618e+01
   1.781582e+02   4.012573e+00
   1.448967e+02   9.024870e+01
  -4.339849e+00   1.210137e+02
  -1.249654e+02   6.870487e+01
  -1.552142e+02   3.319836e+00
  -3.611244e+01  -5.801857e+01
   4.509675e+01  -1.967591e+01
   7.949121e+01   2.973911e+01
   1.188668e+01   8.633269e+01
  -5.381306e+01   4.937258e+01
  -8.022735e+01  -1.074668e+01
  -4.492693e+01  -5.799254e+01
  -3.775953e+01  -7.121166e+01
  -6.427888e+01   1.132817e+01
  -6.118701e+01  -1.636755e+01
  -4.172380e+01  -6.958085e+01
   1.034501e+01  -1.737111e+02
   1.076371e+02  -1.666145e+02
   1.855302e+02  -1.185639e+01
   1.296031e+02   9.224209e+01
  -9.082777e+00   1.331635e+02
  -1.385362e+02   6.903693e+01
  -6.432639e+01  -2.922660e+01
   6.764430e+01  -1.645712e+01
   1.489196e+02   4.370634e+01
   1.039574e+02   8.879156e+01
  -1.055082e+02   1.097780e+02
  -1.914355e+02   3.495837e+01
  -1.405400e+02  -3.980302e+01
  -1.158674e+01  -9.427604e+01
   7.053860e+01  -6.025043e+01
   4.934570e+01  -4.345713e+00
  -3.327695e+01   2.322098e+01
  -7.484690e+01   3.713225e+00
  -3.966173e+01  -1.139106e+02
   8.678009e+01  -1.566931e+02
   1.641514e+02  -4.309566e+01
   1.159231e+02   8.727025e+01
   1.456504e+01   2.042354e+02
  -5.623450e+01   1.288457e+02
  -9.583877e+01  -2.628425e+01
  -3.701687e+01  -1.181100e+02
   1.510633e+01  -8.889540e+01
   5.830440e+01  -6.418425e+00
   5.950566e+01   6.820474e+01
   8.747939e-02   3.359580e+01
   1.023252e+01  -5.294070e+01
   3.358901e+01   1.328253e+00
   6.129022e+01   7.144353e+01
   3.480602e+01   1.051087e+02
  -4.917338e+01   3.715037e+01
  -1.010993e+02  -3.808617e+01
  -1.322221e+02  -5.905801e+01
  -2.575509e+01  -4.297922e+01
   5.682291e+01  -2.959023e+01
   9.315098e+01  -9.266822e+00
   1.575254e+01   5.582884e+00
  -2.730095e+01   5.209727e+01
  -3.182968e+01   1.687887e+01
   1.668979e+01   2.220720e+01
  -3.029304e+01  -1.445519e+01
  -6.536911e+01  -1.590402e+01
  -9.247223e+01  -1.459536e+01
  -2.444077e+01  -8.941823e+01
   1.148729e+02  -1.071044e+02
   1.900086e+02  -5.046751e+01
   1.489991e+02   3.467152e+01
   3.537811e+01   1.606543e+02
  -1.056862e+02   1.387698e+02
  -9.357254e+01   4.830779e+01
  -3.063456e+01  -1.174005e+01
  -9.865956e+00  -4.952343e+01
   6.197967e+00  -2.153357e+01
  -4.454977e+01  -1.349833e+01
  -1.989254e+01  -6.724060e+01
  -7.093002e+00  -1.097975e+02
   3.536268e+01  -5.355516e+01
   7.077591e+01   1.689745e+01
   7.265282e+01   1.080730e+02
  -1.075564e+00   1.052611e+02
  -7.399966e+01   3.219331e+01
  -1.226963e+02  -5.533450e+01
  -3.520365e+01  -9.646010e+01
   6.695533e+01  -7.116712e+01
   9.713820e+01   7.758171e+00
   4.488494e+01   7.125518e+01
  -4.115580e+01   7.091751e+01
  -6.214471e+01   8.302227e+00
   7.133691e+00  -1.167777e+01
   8.720443e+01   1.182859e+01
   7.561717e+00   1.291557e+01
  -8.490491e+01   6.337126e+01
  -1.188897e+02   6.315498e+01
  -6.095536e+01  -4.819534e+01
   2.918494e+01  -7.461157e+01
   7.598166e+01  -9.982074e+01
   3.807872e+01  -7.091475e+00
   9.768791e+00   6.130554e+01
  -1.139328e+01   2.790833e+01
  -2.325651e+01  -4.834322e+00
  -3.240380e+01  -5.264461e+01
   7.721819e+00  -2.990987e+01
   4.642638e+01   1.248150e+01
   6.428863e+01   2.704754e+01
   4.311218e+01   8.359042e+00
   1.021989e+01  -2.463849e+01
   1.480551e+01   5.008190e+00
  -2.976793e+00   3.299366e+01
  -6.401684e+00   4.615852e+01
  -4.742656e+01   7.602687e+00
  -2.991737e+01  -2.873458e+01
  -6.110501e+00  -7.344118e+01
   1.028933e+01  -3.251561e+01
   6.687004e+01   3.220402e+01
   2.632702e+01   8.302804e+01
  -7.135906e+01   3.295741e+01
  -8.151372e+01  -1.195652e+00
  -3.825250e+01  -4.206749e+01
   3.891861e+01  -3.943011e+01
   4.748935e+01  -1.708395e+01
   5.866667e+01   1.300260e+01
  -4.490859e+01  -1.558850e+01
  -1.341234e+01   1.118308e+01
   3.542003e+01  -4.595516e+01
   8.326909e+01  -4.326862e+01
