
 $NMID
 id='ANONYMOUS ', fmtdat='(2E16.6)'
 volume=1.0
 tramp=1.0
 $END
  -3.580152e+03  -8.677863e+01
  -2.079673e+03  -1.864334e+03
   1.931221e+02  -2.159993e+03
   1.566943e+03  -1.055330e+03
   9.556575e+02   1.476209e+02
  -3.177323e+02   3.375890e+02
  -5.672171e+02  -1.496924e+02
  -9.300153e+01  -6.729787e+02
   4.890587e+02  -6.603990e+02
   7.098063e+02  -1.847602e+01
   4.278954e+02   6.619788e+02
  -1.058529e+02   6.716832e+02
  -4.440509e+02   1.660347e+02
  -3.129989e+02  -5.118212e+02
   1.166478e+02  -6.465803e+02
   4.524303e+02  -7.411539e+01
   2.824804e+02   5.226795e+02
  -1.982639e+02   5.824405e+02
  -4.778316e+02   1.984991e+02
  -4.010682e+02  -2.371960e+02
  -9.728488e+01  -3.813490e+02
   2.011929e+02  -2.276626e+02
   1.292352e+02  -6.615066e+01
  -1.855417e+02  -4.518952e+01
  -3.178417e+02  -2.028317e+02
  -8.333577e+01  -3.583171e+02
   4.444629e+02  -2.709777e+02
   7.033849e+02   8.737659e+01
   2.525353e+02   4.176112e+02
  -3.884127e+02   2.840180e+02
  -5.955758e+02  -1.149961e+02
  -2.063300e+02  -3.536191e+02
   2.499972e+02  -4.142022e+02
   4.758454e+02  -1.728248e+02
   3.470785e+02   2.244753e+02
   6.793424e+01   3.467466e+02
  -9.204664e+01   1.960529e+02
   2.849059e+00  -1.363851e+02
   1.762804e+02  -1.892002e+02
   2.610802e+02   9.318570e+01
   1.481751e+02   5.291230e+02
  -2.312656e+02   4.971133e+02
  -3.842619e+02  -1.660311e+01
  -1.702669e+02  -3.872936e+02
   2.022196e+02  -2.075407e+02
   2.295655e+02   2.600849e+02
  -5.425814e+01   4.221716e+02
  -4.278867e+02   8.614114e+01
  -4.830911e+02  -3.151058e+02
  -1.432062e+02  -4.776766e+02
   3.002451e+02  -2.759738e+02
   5.381839e+02   7.016662e+01
   3.209257e+02   2.529923e+02
  -5.664314e+01   2.286937e+02
  -3.075128e+02   1.106819e+02
  -2.239529e+02  -8.741793e+01
  -3.749133e+00  -9.137725e+00
   6.370797e+01   9.880453e+01
  -1.206922e+02   1.184462e+02
  -2.710934e+02  -5.832246e+01
  -1.161588e+02  -2.129899e+02
   1.819942e+02  -2.463481e+02
   3.073824e+02  -1.149543e+02
   2.210898e+02   7.155662e+01
  -5.229089e+01   2.681007e+02
  -2.365255e+02   3.183675e+02
  -3.482081e+02   1.233742e+02
  -2.313137e+02  -1.598606e+02
  -7.211770e+01  -3.553361e+02
   1.101917e+02  -3.318481e+02
   6.671768e+01  -1.305244e+02
   3.223575e+01  -3.206465e+01
   7.335207e+01  -1.083284e+02
   2.274096e+02  -5.926140e+01
   1.961491e+02   7.414618e+01
   1.320531e+02   2.493054e+02
  -4.884822e+01   2.101505e+02
  -1.791920e+02  -2.318343e+01
  -1.469424e+02  -2.245516e+02
   1.644702e+01  -2.841416e+02
   2.141463e+02  -7.038374e+01
   2.919397e+02   1.260051e+02
   1.654429e+02   2.808167e+02
  -4.786921e+01   2.629689e+02
  -1.866874e+02   1.060023e+02
  -1.390199e+02   2.543867e+01
  -1.187704e+02   3.271487e+01
  -2.588031e+02   4.905150e+01
  -3.990133e+02  -1.092614e+02
  -2.879621e+02  -2.891790e+02
  -1.071960e+01  -4.021501e+02
   3.183072e+02  -3.472135e+02
   4.475111e+02  -1.860809e+02
   3.002862e+02   7.075762e+01
   2.764116e+01   2.704227e+02
  -8.217818e+01   1.938107e+02
  -5.731078e+01   3.350878e+01
   9.142647e+01  -5.528365e+01
   1.260072e+02   2.124763e+01
   2.937155e+01   1.380353e+02
  -1.409547e+02   1.135277e+02
  -9.922136e+01  -6.481107e+01
   1.862014e+01  -1.614558e+02
   1.568564e+02  -9.781445e+00
   1.317675e+02   2.059842e+02
  -1.451011e+01   3.248454e+02
  -2.267077e+02   1.906395e+02
  -2.917922e+02  -8.071073e+01
  -2.510190e+02  -2.452416e+02
  -6.534010e+01  -2.525436e+02
   1.033534e+02  -1.332756e+02
   1.677233e+02  -2.194582e+01
   5.733168e+01   3.402163e+01
  -3.550467e+01  -2.923254e+01
  -3.765388e+01  -1.024616e+02
   1.146574e+02  -7.444994e+01
   1.295391e+02   1.334976e+01
   3.342028e+01   8.419543e+01
  -8.059997e+01  -9.886945e+00
  -3.906436e+01  -8.728923e+01
   1.713555e+02  -9.612497e+01
   2.460328e+02  -2.518886e+00
   2.433618e+02   1.373819e+02
   4.866661e+01   2.562543e+02
  -2.145752e+02   2.553560e+02
  -2.498967e+02   1.018067e+02
  -1.766126e+02  -4.740833e+01
   2.370688e+01  -9.489361e+01
   5.989767e+01  -1.996959e+01
  -5.650638e+01   9.133447e+01
  -1.707140e+02   5.054705e+01
  -1.869216e+02  -9.375306e+01
  -6.233310e+01  -1.869373e+02
   8.423093e+01  -1.321790e+02
   1.259169e+02  -7.644534e+00
   4.135434e+01   4.798775e+01
  -3.532638e+01  -1.366404e+01
  -3.049947e+01  -7.813243e+01
   6.438171e+01  -1.116263e+02
   2.100257e+02  -3.233928e+01
   1.742444e+02   1.267056e+02
   1.895282e+01   1.903448e+02
  -1.427592e+02   1.388275e+02
  -1.756558e+02   9.724114e+00
  -7.224959e+01  -1.076884e+02
   5.815869e+01  -1.154686e+02
   1.075373e+02  -4.693995e+01
   2.177545e+01   1.656344e+01
  -3.352147e+01  -1.353370e+01
   2.074008e+01  -1.148505e+01
   6.462008e+01   6.313898e+00
   1.028362e+02   8.425138e+01
   1.556471e+01   1.603084e+02
  -1.295055e+02   1.358010e+02
  -2.262339e+02   4.279405e+00
  -1.740543e+02  -1.591805e+02
  -2.040203e+01  -2.431731e+02
   8.826184e+01  -1.630959e+02
   1.296256e+02  -2.381529e+01
   4.732942e+01   5.908209e+01
   4.144372e+01   2.666250e+01
   8.255487e+01   1.685632e+00
   6.917494e+01  -2.353394e+01
   5.306752e+01   7.300574e+01
  -2.151216e+01   9.184794e+01
  -9.663492e+01   6.207948e+01
  -1.065080e+02  -2.937540e+01
  -3.438330e+00  -1.358775e+02
   1.478132e+02  -6.359007e+01
   2.052905e+02   6.712508e+01
   6.677192e+01   1.942692e+02
  -1.184060e+02   2.075406e+02
  -2.590946e+02   1.158674e+02
  -2.238002e+02  -9.639431e+01
  -6.817623e+01  -1.675213e+02
   2.997800e+01  -1.153711e+02
   7.240324e+01  -8.947431e+01
   7.954358e+01  -7.077473e+01
   5.793123e+01  -6.979916e+01
   8.042518e+01  -3.728012e+01
   1.197375e+02   6.568047e+00
   1.308803e+02   1.274272e+02
   1.009554e+01   2.137656e+02
  -8.270879e+01   1.593486e+02
  -1.451646e+02   1.103488e+01
  -9.794866e+01  -1.342474e+02
  -5.405768e-01  -1.521972e+02
   5.368811e+01  -8.962757e+01
   2.623349e+01   1.401580e+00
  -1.451915e+01   7.595022e+01
   1.363179e+00   3.664438e+01
   4.105813e+01   3.065282e+00
   6.356330e+01  -1.513779e+01
   5.158274e+01   3.354423e+01
  -5.630660e+01   8.015894e+00
  -1.305168e+02  -8.681510e+00
  -1.212018e+02  -6.789328e+01
  -9.072446e+00  -1.013077e+02
   1.111737e+02  -5.678256e+01
   1.321287e+02  -2.096656e+01
   4.810405e+01   6.385471e+01
  -5.112387e+01   2.149780e+01
  -5.548150e+01  -2.397947e+01
  -1.269630e+01  -6.159469e+01
   4.246483e+01  -8.827850e+01
   4.773494e+01  -1.205580e+00
   4.515476e+01   5.989762e+01
   4.982773e+01   4.861161e+01
   2.458571e+01   2.156962e+01
   6.609191e+01   9.587642e+00
   2.737322e+01   6.673241e+01
  -1.029086e+01   1.428108e+02
  -1.220732e+02   1.239936e+02
  -1.603890e+02   2.205047e+01
  -1.336853e+02  -8.300591e+01
   1.497327e+01  -1.095169e+02
   9.566942e+01  -6.452520e+01
   5.317558e+01   3.703819e+01
  -5.288517e+01   4.063888e+01
  -1.335701e+02  -3.598685e+01
  -7.209302e+01  -1.198268e+02
   7.144631e+01  -9.794621e+01
   1.794562e+02  -5.081861e+01
   1.689510e+02   3.316914e+01
   4.521915e+01   8.347595e+01
  -6.306322e+01   7.144494e+01
  -6.925876e+01  -2.228208e-01
   2.244396e+01  -2.603272e+01
   6.691409e+01  -2.895536e+01
   5.899021e+01   1.042689e+02
  -8.041658e+01   1.511029e+02
  -1.426811e+02   5.280007e+01
  -1.165512e+02  -8.979771e+01
  -3.522089e+01  -1.968881e+02
   6.470898e+01  -1.436103e+02
   9.979627e+01  -7.690833e+00
   5.948892e+01   1.251671e+02
  -1.986463e+00   8.758859e+01
  -4.160201e+01  -4.077567e-01
  -3.166656e+01  -3.222023e+01
  -1.847768e+01  -3.726697e+01
  -3.127872e+00   2.558582e+01
  -1.503700e+01   1.551911e+00
  -4.603847e+01  -8.866171e+01
  -4.766443e+01  -9.613471e+01
   6.119263e+01  -3.337658e+01
   1.575403e+02   2.823577e+01
   1.061201e+02   6.241288e+01
   1.011751e+01   3.677405e+01
  -8.109707e+01   3.199408e+01
  -1.045255e+02  -5.487392e-01
  -2.043993e+01  -1.664026e+01
   4.803258e+01  -3.688004e+01
   1.586313e-01  -1.274863e+01
   2.240929e+00   1.105108e+01
   8.740943e+00   1.191816e+01
   4.503899e+01   1.721985e+01
   8.519520e+01   3.320534e+01
   1.219479e+01   9.493376e+01
  -1.298010e+02   1.030358e+02
  -1.729877e+02   4.837673e+01
  -1.407726e+02  -4.756190e+01
  -3.392860e+01  -1.501166e+02
   8.688093e+01  -1.338208e+02
   8.293323e+01  -4.803984e+01
   7.015794e+01   3.081301e+01
   7.693272e+00   9.283255e+00
  -1.097219e+01   7.723739e+00
   2.229082e+01  -7.156602e+00
   3.688446e+01   7.055324e+01
   8.504138e+00   5.378551e+01
  -1.196149e+01   6.209121e+01
  -7.326782e+01  -3.716627e+01
  -7.137705e+01  -1.039631e+02
  -1.665903e+00  -9.725461e+01
   8.470107e+01  -5.660172e+01
   9.149849e+01   4.237792e+01
   1.252223e+01   8.363689e+01
  -5.155883e+01   6.029922e+01
  -7.716330e+01   2.635554e-01
  -5.091143e+01  -6.846731e+01
   8.188765e+00  -7.648589e+01
   2.503863e+01  -3.824789e+01
  -2.011709e+01   2.467135e+00
  -4.223914e+01   3.638103e+00
  -1.701078e+01  -5.006136e+01
   7.454993e+01  -6.603345e+01
   1.304759e+02  -6.235472e+01
   8.167092e+01   2.452918e+00
  -2.892397e+01   7.624100e+01
  -6.705595e+01   9.308566e+01
  -2.407986e+01   6.058061e+00
  -2.312917e+01  -4.761810e+01
   4.189602e+01  -4.915495e+01
   3.687478e+01   2.680039e+01
   1.758742e+01   6.320147e+01
  -2.175631e+01   5.562461e+01
  -3.672563e+01  -5.573810e-02
  -3.465097e+01  -2.091603e+01
  -1.127965e+01  -5.094236e+00
  -2.185320e+01  -9.471966e-01
   4.457329e+00  -6.608397e-01
  -2.052018e+01  -1.896603e+01
  -1.081961e+01  -1.107801e+01
   5.473535e+00  -8.688209e+00
   3.677004e+01   3.821763e+01
   6.921221e+00   4.988457e+01
  -1.626552e+01   1.332098e+01
  -5.981066e+01  -2.228869e+01
  -4.351788e+01  -5.765144e+01
   6.444898e+01  -4.862036e+01
   5.835832e+01   1.515260e+01
   4.027017e+01   3.088191e+01
  -2.333841e+01   4.655037e+01
  -4.589729e+01   3.344291e+01
  -2.829950e+01  -4.605481e+00
   3.090632e+01   7.224159e+00
   3.262007e+01   2.206363e+00
  -1.026357e+01   2.602629e+01
  -7.195871e+01   1.630560e+01
