
 $NMID
 id='ANONYMOUS ', fmtdat='(2E16.6)'
 volume=1.0
 tramp=1.0
 $END
   3.707734e+03  -6.223086e+01
   2.024790e+03   2.058821e+03
  -6.080045e+02   2.377951e+03
  -1.779372e+03   8.945838e+02
  -8.358100e+02  -4.609726e+02
   4.559183e+02  -3.540220e+02
   7.324776e+02   2.774247e+02
   2.849095e+01   8.315052e+02
  -6.757832e+02   7.145082e+02
  -7.855697e+02  -2.980981e+01
  -3.522349e+02  -7.340408e+02
   2.057943e+02  -7.636824e+02
   4.651783e+02  -8.104857e+01
   3.185623e+02   5.774246e+02
  -2.026883e+02   6.307621e+02
  -5.290405e+02   1.726758e+01
  -2.952667e+02  -5.801120e+02
   2.472914e+02  -6.178703e+02
   4.789545e+02  -2.114054e+02
   4.133627e+02   2.859948e+02
   6.594140e+01   4.315274e+02
  -2.165724e+02   2.449560e+02
  -1.459631e+02   2.593215e+01
   1.199738e+02  -2.839488e+01
   3.459982e+02   1.866511e+02
   1.360479e+02   3.591070e+02
  -4.183636e+02   3.602214e+02
  -7.117474e+02  -1.051883e+02
  -3.324824e+02  -4.701973e+02
   3.283298e+02  -3.404930e+02
   6.344558e+02   1.331383e+02
   2.989532e+02   3.939199e+02
  -2.349538e+02   4.126191e+02
  -4.745804e+02   1.808344e+02
  -3.519953e+02  -2.143131e+02
   1.200011e+01  -4.053565e+02
   1.243521e+02  -1.959151e+02
   2.479199e+01   1.968194e+02
  -1.780114e+02   2.901906e+02
  -3.227973e+02  -1.345993e+02
  -1.250304e+02  -5.653361e+02
   2.817908e+02  -5.570328e+02
   4.546023e+02  -2.118120e+01
   2.075424e+02   3.614272e+02
  -2.571489e+02   2.392640e+02
  -2.904332e+02  -2.596719e+02
   4.541141e+01  -4.957200e+02
   4.715808e+02  -8.843832e+01
   5.195404e+02   3.348865e+02
   1.275210e+02   5.114560e+02
  -3.006094e+02   2.806685e+02
  -5.843965e+02  -9.305261e+01
  -3.267913e+02  -3.170703e+02
   9.588816e+01  -2.651014e+02
   3.342865e+02  -2.156622e+01
   2.232951e+02   1.381225e+02
  -6.326171e+01   8.721946e+01
  -1.025681e+02  -8.345768e+01
   1.575053e+02  -1.431573e+02
   2.833918e+02   3.028548e+01
   1.332891e+02   2.416572e+02
  -1.580130e+02   2.741454e+02
  -3.077578e+02   8.371662e+01
  -2.315645e+02  -8.703020e+01
  -5.660722e+00  -2.981765e+02
   2.290277e+02  -3.138393e+02
   3.466912e+02  -1.167951e+02
   2.074116e+02   1.683154e+02
   4.197957e+01   3.646675e+02
  -9.262579e+01   3.021175e+02
  -5.281397e+01   9.670410e+01
  -6.953635e+00   3.153038e+01
  -7.042330e+01   8.495634e+01
  -2.058678e+02   1.302051e+02
  -2.437873e+02  -5.746002e+01
  -1.582740e+02  -2.478505e+02
   6.451962e+01  -2.138609e+02
   2.169510e+02   6.302939e+00
   1.790782e+02   2.321477e+02
  -5.348689e+01   2.667964e+02
  -2.668091e+02   9.361502e+01
  -3.133791e+02  -1.641059e+02
  -1.597750e+02  -3.130212e+02
   7.950662e+01  -2.679375e+02
   1.940267e+02  -1.296902e+02
   1.585048e+02  -1.372091e+01
   9.737838e+01  -2.518026e+01
   2.208682e+02  -7.613552e+01
   3.816357e+02   6.617832e+01
   3.188780e+02   2.785481e+02
  -3.347418e+00   4.261222e+02
  -3.082281e+02   3.867384e+02
  -4.560969e+02   1.829703e+02
  -3.124424e+02  -8.445512e+01
  -4.490325e+01  -2.315931e+02
   1.068337e+02  -2.086555e+02
   7.221264e+01  -2.606122e+01
  -9.737548e+01   7.354281e+01
  -1.670588e+02  -4.975703e+01
  -2.633771e+01  -1.643230e+02
   1.323943e+02  -1.561842e+02
   1.217275e+02   4.973080e+01
  -7.537784e+00   1.487935e+02
  -1.341070e+02   2.989902e+01
  -1.290109e+02  -1.845021e+02
   8.961472e+00  -3.199961e+02
   1.998342e+02  -1.852395e+02
   2.713227e+02   6.839173e+01
   2.575636e+02   2.351716e+02
   6.959756e+01   2.223016e+02
  -1.207775e+02   1.394473e+02
  -1.841958e+02   1.759852e+01
  -6.594169e+01  -3.471758e+01
   8.407739e+01   3.334854e+01
   4.275936e+01   1.295863e+02
  -1.202717e+02   7.499654e+01
  -1.892067e+02  -2.672017e+01
  -4.653817e+01  -7.883362e+01
   7.346499e+01  -2.016898e+01
   4.107243e+01   8.411942e+01
  -1.446769e+02   8.728685e+01
  -2.436850e+02  -1.151721e+00
  -2.360775e+02  -1.157577e+02
  -6.775866e+01  -2.405518e+02
   1.806159e+02  -2.210333e+02
   2.555230e+02  -1.004044e+02
   1.718681e+02   5.274745e+01
   1.375715e+01   9.722550e+01
  -7.790926e+01  -2.835056e+01
   5.684396e+01  -9.423313e+01
   1.601787e+02  -5.984122e+01
   1.867285e+02   8.942274e+01
   6.783257e+01   1.897217e+02
  -8.248085e+01   1.460869e+02
  -1.266230e+02   1.563511e+01
  -3.823660e+01  -2.501820e+01
   2.335634e+01   8.653932e+00
   3.263858e+01   8.111812e+01
  -5.847921e+01   9.246610e+01
  -2.094634e+02   4.328793e+01
  -2.021942e+02  -1.111173e+02
  -1.363914e+01  -1.942165e+02
   1.323117e+02  -1.339254e+02
   1.594601e+02  -1.846361e+01
   1.005176e+02   8.730200e+01
  -4.716433e+01   1.011739e+02
  -7.477227e+01   3.608779e+01
  -4.311586e+01  -1.767562e+01
   1.667570e+01  -3.058762e+01
   1.323557e+01  -7.234661e+00
  -5.476722e+01  -2.734144e+00
  -9.613106e+01  -8.075621e+01
  -1.151915e+01  -1.661932e+02
   1.133174e+02  -1.308762e+02
   2.224838e+02  -2.695132e+01
   1.583498e+02   1.588352e+02
   4.550913e+01   2.200934e+02
  -1.040342e+02   1.648772e+02
  -1.343231e+02   1.422269e+01
  -7.178635e+01  -3.861158e+01
  -4.954884e+01  -4.199175e+01
  -5.616383e+01  -2.992230e-01
  -7.079124e+01  -1.199462e+01
  -4.075357e+01  -5.091955e+01
   3.469988e+01  -8.238643e+01
   1.048618e+02  -6.701302e+01
   9.482139e+01   2.107578e+00
  -5.058837e-01   1.002472e+02
  -1.324404e+02   7.290309e+01
  -2.108402e+02  -5.448598e+01
  -9.428102e+01  -1.969413e+02
   1.105841e+02  -2.124756e+02
   2.476257e+02  -1.017301e+02
   2.120824e+02   8.460592e+01
   1.226917e+02   1.528603e+02
  -3.358460e+01   1.478706e+02
  -8.812530e+01   6.332204e+01
  -5.054260e+01   7.266912e+01
  -3.924052e+01   7.112136e+01
  -9.612460e+01   6.879133e+01
  -1.218625e+02  -1.104938e+01
  -1.185893e+02  -1.309060e+02
  -2.347389e+01  -2.023871e+02
   9.481028e+01  -1.574123e+02
   1.371211e+02  -3.090418e+01
   1.183218e+02   1.240909e+02
   2.380152e+01   1.175253e+02
  -5.767536e+01   5.198733e+01
  -2.345626e+01  -1.088516e+01
  -6.474654e+00  -4.505390e+01
   2.061358e+01  -1.779339e+01
  -1.850378e+01  -3.208020e+01
  -5.227164e+01  -2.632455e+01
  -3.142618e+01  -2.564689e+01
   7.527049e+01  -3.250364e+01
   1.590086e+02   2.302314e-02
   1.378403e+02   4.083607e+01
   8.545549e-01   1.042350e+02
  -1.022727e+02   6.307022e+01
  -1.216939e+02   2.754980e+01
  -6.770235e+01  -5.017164e+01
   5.538452e+01  -2.399679e+01
   6.617748e+01   2.071315e+01
   1.405812e+00   6.526357e+01
  -1.829945e+01   6.180570e+01
  -6.051508e+01   2.095716e+01
  -5.715248e+01  -6.155876e+01
  -5.844044e+01  -4.669196e+01
  -3.525804e+01   2.146539e+00
  -7.816735e+01   7.896668e+00
  -3.125444e+01  -7.217023e+01
   2.035058e+01  -1.386084e+02
   1.097524e+02  -1.178976e+02
   1.544442e+02  -4.744394e+01
   1.233398e+02   6.255866e+01
   3.396368e+00   1.070989e+02
  -1.037190e+02   5.330321e+01
  -6.295782e+01  -1.000717e+01
   4.710345e+01  -2.277359e+01
   1.146609e+02   2.495255e+01
   8.135252e+01   8.970855e+01
  -6.154422e+01   1.065580e+02
  -1.852081e+02   6.664391e+01
  -1.872851e+02  -3.739491e+01
  -2.225895e+01  -7.621921e+01
   5.039488e+01  -6.716738e+01
   4.698838e+01   3.410980e+01
  -3.361696e+01   1.424973e+01
  -9.606631e+01  -2.023505e+00
  -2.546364e+01  -7.876832e+01
   6.856128e+01  -1.610823e+02
   1.492501e+02  -2.572103e+01
   9.213054e+01   1.014208e+02
   1.617901e+00   2.093741e+02
  -8.653154e+01   1.116664e+02
  -7.387894e+01  -1.570937e+01
  -4.523880e+01  -9.100104e+01
  -3.133471e+00  -7.827384e+01
   4.719196e+01   8.923507e+00
   2.994194e+01   2.070427e+01
   2.930934e+01   1.503653e+00
  -3.821518e+00  -3.518905e+01
  -4.015191e+00   5.554468e+00
   5.414402e+01   9.373595e+01
   3.688391e+01   1.271243e+02
  -5.768306e+01   6.545813e+01
  -1.309309e+02   1.805544e+00
  -8.329943e+01  -7.463153e+01
  -5.760431e+00  -4.332531e+01
   9.372838e+01  -3.124903e+01
   9.162801e+01  -7.421406e+00
   2.939651e+01   1.162431e+01
  -4.470228e+01   1.230011e+01
  -1.372733e+01   7.849618e+00
   4.064915e+01  -1.114225e+01
  -2.198546e+00   6.542215e+00
  -4.350750e+01   8.473771e+00
  -1.068689e+02  -2.942190e+01
  -1.531537e+01  -8.656311e+01
   1.378788e+02  -1.242940e+02
   1.825513e+02  -5.862561e+01
   1.320947e+02   6.505093e+01
   1.093129e+01   1.372853e+02
  -8.041459e+01   1.471707e+02
  -1.140069e+02   6.408246e+01
  -9.867045e+01  -2.948207e+01
  -2.647022e+01  -1.538906e+01
  -3.412905e+00   7.344831e+00
  -3.281682e+01   6.094744e+00
  -4.085602e+01  -3.110858e+01
  -4.541154e+01  -1.082248e+02
   2.418196e+01  -5.518881e+01
   9.147992e+01   3.499655e+01
   9.373913e+01   9.810250e+01
   6.404234e+00   1.128233e+02
  -8.004679e+01   2.846463e+01
  -8.304354e+01  -6.730322e+01
  -2.512779e+01  -1.000252e+02
   6.079144e+01  -5.527725e+01
   8.100385e+01   2.640067e+00
   2.482087e+01   5.892045e+01
  -3.302905e+01   6.153933e+01
  -4.777444e+01   1.475926e+01
   1.268530e+01  -3.306858e+00
   5.169321e+01  -4.377254e+01
   1.581770e+01   3.985149e+01
  -6.872845e+01   6.295850e+01
  -9.605003e+01   3.324468e+01
  -8.540558e+01  -1.225924e+01
   1.465493e+01  -9.316119e+01
   3.840056e+01  -7.870522e+01
   3.051685e+01  -2.938076e+00
  -1.035476e+01   4.004547e+01
  -3.668320e+01   5.129414e+01
  -1.831889e+01  -1.617961e+01
  -9.298948e+00  -4.691669e+01
   3.245490e+01  -2.137686e+01
   4.819096e+01  -1.580269e+01
   4.452166e+01   2.739392e+01
   2.840854e+00  -5.796803e+00
  -7.867698e+00   6.489264e+00
  -9.929917e+00  -1.860950e-01
  -8.215373e+00   4.299660e+01
  -2.630087e+01   2.863846e+01
  -3.074487e+01   2.682489e+01
  -2.723862e+01  -3.486180e+01
  -1.927442e+01  -5.154959e+01
   2.396451e+01  -3.072776e+01
   5.875621e+01   2.408775e+01
   2.210890e+01   4.770197e+01
  -4.984689e+01   4.337420e+01
  -1.078060e+02  -1.563541e+01
  -6.844201e+01  -1.426408e+01
   2.161445e+01  -5.952958e+01
   3.592488e+01  -1.344477e+01
   2.910704e+01   1.678130e+01
  -1.397681e+01   1.509545e+01
  -5.001028e+01  -2.797915e+01
   1.435170e+01  -3.644369e+01
   6.910910e+01  -2.893719e+00
