
 $NMID
 id='ANONYMOUS ', fmtdat='(2E16.6)'
 volume=1.0
 tramp=1.0
 $END
  -3.243222e+03  -1.941467e+02
  -2.149994e+03  -1.968685e+03
   4.184201e+02  -2.289104e+03
   1.630705e+03  -9.735750e+02
   7.692095e+02   3.432094e+02
  -3.981934e+02   3.437842e+02
  -5.287382e+02  -3.612114e+02
   5.947617e+01  -7.906133e+02
   6.212442e+02  -5.817430e+02
   7.272766e+02   1.231038e+02
   2.992745e+02   6.458367e+02
  -1.806329e+02   6.797085e+02
  -4.202596e+02   1.079283e+02
  -3.058663e+02  -5.384861e+02
   1.909619e+02  -5.743717e+02
   4.594917e+02   1.350705e+01
   2.108510e+02   5.480178e+02
  -1.819513e+02   5.564906e+02
  -4.763033e+02   1.950681e+02
  -3.716562e+02  -2.734164e+02
  -7.557343e+01  -3.597910e+02
   1.502648e+02  -2.268294e+02
   1.074096e+02  -2.124070e+01
  -1.548329e+02   8.776703e+00
  -2.914087e+02  -1.988750e+02
  -1.219005e+02  -3.375493e+02
   4.495507e+02  -2.614052e+02
   6.430322e+02   6.789495e+01
   2.818000e+02   4.395140e+02
  -2.658398e+02   3.166228e+02
  -5.492722e+02  -3.391007e+01
  -2.650869e+02  -3.669825e+02
   2.391973e+02  -4.113335e+02
   4.316943e+02  -1.754964e+02
   3.141332e+02   1.686325e+02
   1.074049e+02   3.941045e+02
  -1.008857e+02   2.299516e+02
  -5.883240e+01  -1.415005e+02
   1.333618e+02  -3.343881e+02
   3.205949e+02   6.854580e+01
   1.306911e+02   5.810124e+02
  -2.603248e+02   5.138369e+02
  -4.124199e+02   5.357073e+01
  -1.694577e+02  -3.621078e+02
   2.401561e+02  -2.045221e+02
   2.785522e+02   2.917151e+02
  -5.354700e+01   4.704466e+02
  -4.717217e+02   9.865566e+01
  -4.881512e+02  -3.072664e+02
  -1.191059e+02  -5.044915e+02
   3.321382e+02  -3.154462e+02
   5.252968e+02   4.748794e+01
   3.016216e+02   3.095218e+02
  -7.419022e+01   2.722196e+02
  -3.567418e+02   9.082641e+01
  -2.140166e+02  -1.089184e+02
   6.832098e+01  -8.355389e+01
   7.921214e+01   9.389235e+01
  -9.745622e+01   1.592530e+02
  -2.970022e+02  -4.487663e+01
  -1.453303e+02  -2.655961e+02
   1.617405e+02  -2.654419e+02
   3.005362e+02  -7.996034e+01
   1.729339e+02   7.459643e+01
  -5.591169e+01   2.596998e+02
  -2.109959e+02   3.221736e+02
  -2.969082e+02   1.492257e+02
  -2.317157e+02  -1.403335e+02
  -4.805785e+01  -3.524772e+02
   8.296308e+01  -3.014322e+02
   7.385447e+01  -1.176324e+02
   1.421133e+01  -3.273511e+01
   8.878312e+01  -1.203691e+02
   2.116981e+02  -1.009897e+02
   2.526001e+02   8.959356e+01
   1.259772e+02   2.346392e+02
  -6.618807e+01   2.221919e+02
  -2.036871e+02  -7.228662e+00
  -1.501534e+02  -2.429256e+02
   1.251400e+01  -2.111745e+02
   2.078404e+02  -9.781376e+01
   3.016159e+02   1.662895e+02
   1.742756e+02   2.932059e+02
  -6.376011e+01   2.779776e+02
  -1.932623e+02   1.263276e+02
  -1.417218e+02   2.462779e+01
  -9.043832e+01   2.024024e+01
  -2.256935e+02   4.669730e+01
  -3.557752e+02  -1.855631e+01
  -3.309984e+02  -2.520003e+02
   2.234244e+01  -4.122378e+02
   3.375674e+02  -3.966402e+02
   4.392618e+02  -1.527079e+02
   2.902702e+02   1.126985e+02
   2.163383e+01   2.569705e+02
  -1.001292e+02   1.946607e+02
  -7.191024e+01   1.394140e+01
   9.391008e+01  -4.449561e+01
   1.619798e+02   1.930803e+01
   3.517688e+01   1.643454e+02
  -9.766712e+01   1.284463e+02
  -1.314571e+02  -5.071182e+01
   2.884812e+01  -1.534829e+02
   1.623319e+02   1.641503e+01
   1.203417e+02   2.017819e+02
  -2.161970e+01   3.076396e+02
  -2.182115e+02   1.954530e+02
  -2.917157e+02  -7.411658e+01
  -2.607699e+02  -2.307235e+02
  -9.019058e+01  -2.225197e+02
   1.061153e+02  -1.546212e+02
   1.451880e+02  -1.022136e+01
   5.029606e+01   3.269355e+01
  -5.593452e+01  -5.015682e+01
  -1.381667e+01  -1.148155e+02
   8.487575e+01  -5.301393e+01
   1.550431e+02   1.966291e+01
   6.161241e+01   9.558847e+01
  -8.307094e+01  -1.411713e+01
  -5.605335e+01  -4.411167e+01
   1.122315e+02  -8.940396e+01
   2.536003e+02  -9.669443e+00
   2.542512e+02   1.465568e+02
   4.585759e+01   2.457253e+02
  -1.807515e+02   2.131401e+02
  -2.432288e+02   1.063541e+02
  -1.440855e+02  -2.582517e+01
   1.781522e+01  -9.153372e+01
   5.964644e+01   2.398037e+00
  -2.595227e+01   1.066194e+02
  -1.634308e+02   3.344440e+01
  -1.821871e+02  -1.096612e+02
  -5.420032e+01  -1.928656e+02
   8.818669e+01  -1.296390e+02
   1.216616e+02  -1.762740e+01
   2.810449e+01   4.503405e+01
  -3.474672e+01  -1.012212e+01
  -2.014355e+01  -9.238937e+01
   9.154305e+01  -9.452643e+01
   2.013958e+02  -2.409541e+01
   1.719688e+02   1.247199e+02
   3.270393e+01   2.099340e+02
  -1.518020e+02   1.420760e+02
  -1.624277e+02   1.125729e+01
  -7.304695e+01  -1.188754e+02
   5.680594e+01  -7.749824e+01
   6.239574e+01  -2.503210e+01
  -5.909843e+00   2.369995e+01
  -1.053271e+00  -1.186179e+01
   2.965299e+01  -1.715675e+01
   6.972789e+01  -1.648362e+01
   9.370229e+01   6.238266e+01
   1.127589e+01   1.640959e+02
  -9.576882e+01   1.104328e+02
  -1.917428e+02   4.584138e+01
  -1.642869e+02  -1.363649e+02
  -4.077617e+01  -2.189591e+02
   1.099799e+02  -1.389216e+02
   1.119153e+02  -3.126467e+01
   7.017035e+01   3.431085e+01
   2.434297e+01   1.375263e+01
   3.605963e+01  -2.437515e+01
   7.145107e+01  -6.605420e+00
   3.190657e+01   3.775662e+01
  -4.989333e+01   9.336090e+01
  -9.042016e+01   4.152639e+01
  -1.006076e+02  -5.071230e+01
   1.973231e+01  -9.070572e+01
   1.573786e+02  -6.198285e+01
   1.762640e+02   4.652730e+01
   8.057929e+01   1.708279e+02
  -9.839625e+01   2.018290e+02
  -2.071253e+02   9.011087e+01
  -2.145424e+02  -7.709756e+01
  -1.301817e+02  -1.700319e+02
   1.865149e+01  -1.224868e+02
   7.623320e+01  -6.530471e+01
   6.798134e+01  -5.345874e+01
   5.030248e+01  -6.904360e+01
   8.606197e+01  -5.132446e+01
   1.115510e+02   3.950864e+01
   1.185507e+02   1.214238e+02
   1.562524e+01   1.971559e+02
  -1.043499e+02   1.298606e+02
  -1.458355e+02   2.668591e+01
  -1.001141e+02  -9.689084e+01
  -2.303898e+01  -1.556930e+02
   7.864035e+01  -7.317534e+01
   5.355528e+01  -1.577573e+01
   1.274568e+01   5.119860e+01
  -3.119818e+01   2.958926e+01
  -3.245680e-01  -8.678338e+00
   4.262080e+01   1.697196e+01
   3.885832e+01   1.818344e+01
  -7.053703e+01   3.934056e+01
  -1.464035e+02   2.489257e+00
  -1.277065e+02  -2.742128e+01
  -1.402080e+00  -7.847091e+01
   1.066663e+02  -4.838948e+01
   1.476349e+02  -9.101932e+00
   2.563746e+01   4.429731e+01
  -4.499974e+01   3.652964e+01
  -6.737426e+01   7.564317e-01
   3.086209e+00  -5.243047e+01
   4.742899e+01  -8.414971e+01
   4.754670e+01   1.299896e+00
   4.041530e+01   4.603563e+01
   4.479536e+01   1.448975e+01
   4.694734e+01  -6.171838e+00
   7.438899e+01   2.451875e+01
   3.299530e+01   8.581618e+01
  -2.216320e+01   1.272081e+02
  -1.311503e+02   1.003182e+02
  -1.212174e+02   1.805965e+01
  -1.096510e+02  -9.045404e+01
   7.222369e+00  -1.080240e+02
   9.295069e+01  -7.981945e+01
   5.086420e+01   7.028338e+00
  -2.775286e+01   2.580658e+01
  -1.164995e+02  -4.129460e+01
  -8.159244e+01  -1.189033e+02
   7.103332e+01  -1.037544e+02
   2.005633e+02  -4.280393e+01
   1.462294e+02   1.138536e+01
   3.073166e+01   7.122586e+01
  -4.557155e+01   5.672567e+01
  -3.691994e+01  -2.083658e+01
   6.825218e+01  -2.700858e+01
   1.074820e+02   2.121115e+01
   4.465115e+01   9.475578e+01
  -8.346052e+01   1.509730e+02
  -1.498194e+02   4.309623e+01
  -1.041885e+02  -7.917789e+01
   2.316814e+00  -1.421382e+02
   9.683401e+01  -1.035449e+02
   7.822300e+01   1.397918e+01
   6.516867e+01   9.331682e+01
   1.069064e+01   6.200691e+01
  -4.321564e+01  -7.012544e+00
  -4.107614e+01  -2.760063e+01
  -4.195630e+01   9.313289e+00
  -7.484304e+00   4.775139e+01
  -9.537887e+00  -3.972302e+01
  -4.252709e+01  -9.226732e+01
  -2.918338e+01  -1.094622e+02
   6.083505e+01  -4.224595e+01
   1.322885e+02   1.427488e+01
   1.089939e+02   5.848955e+01
   6.778077e+00   2.879717e+01
  -7.610102e+01   3.677905e+01
  -1.059046e+02   7.074716e+00
  -9.073829e+00  -1.866451e+01
   3.051125e+01  -1.480110e+01
   5.669751e+00   1.044034e+01
  -1.557189e+01   6.550336e+00
   5.963391e+00  -2.829831e-01
   5.940395e+01   4.260326e+00
   9.108441e+01   2.986403e+01
   2.223034e+01   8.874531e+01
  -1.168989e+02   1.042060e+02
  -1.908937e+02   6.239372e+01
  -1.512570e+02  -5.991645e+01
  -1.991751e+01  -1.512967e+02
   5.758549e+01  -1.613033e+02
   1.184405e+02  -8.965893e+01
   8.321760e+01   3.538031e+01
   1.050712e+01   2.342586e+01
  -1.564044e+01  -1.468401e+01
   1.939540e+01  -1.058542e+01
   4.044531e+01   4.254857e+01
   2.131794e+01   9.209109e+01
  -3.584026e+01   7.827272e+01
  -8.072731e+01   6.347850e+00
  -8.062411e+01  -9.187166e+01
   3.666512e+00  -1.028470e+02
   8.190762e+01  -1.608830e+01
   6.151835e+01   5.969275e+01
   3.506774e+01   7.590462e+01
  -6.287848e+01   3.488272e+01
  -8.357446e+01  -1.302978e+01
  -4.481340e+01  -4.495813e+01
   2.893721e+01  -4.804885e+01
   4.024254e+01  -2.235171e+01
  -4.502206e+01  -1.353029e+01
  -5.074918e+01   1.806092e+01
  -1.851221e+00  -5.581278e+01
   7.041287e+01  -6.107681e+01
   9.528127e+01  -2.485148e+01
   3.025504e+01   1.680064e+01
  -5.213378e-01   5.784149e+01
  -5.122220e+01   6.230666e+01
  -4.235400e+01   3.529972e+00
   7.259883e+00  -5.551753e+01
   5.438114e+01  -4.772169e+01
   3.362402e+01  -3.377920e+01
  -1.668962e+01   4.460703e+01
  -6.355890e+00   3.086664e+01
  -3.964206e+01   9.496476e+00
  -7.142299e+00  -2.101938e+00
   9.172889e+00   6.929902e+00
  -4.994852e+00  -4.809232e+00
   6.808963e+00  -8.785648e+00
   4.746380e+00  -2.584044e+01
  -1.921632e+01  -5.018180e+01
   4.356486e+01  -7.403534e+00
   4.920823e+01   4.027599e+01
  -5.056688e-01   5.510428e+01
  -4.630118e+01   4.708836e+01
  -8.664602e+01  -2.435048e+01
  -2.384475e+01  -7.417255e+01
   4.800142e+01  -3.506596e+01
   8.396973e+01   2.169065e+01
   4.251102e+01   3.017966e+01
  -1.746584e+01   4.537293e+01
  -4.859300e+01   9.406407e+00
   6.739287e+00  -2.193150e+00
   5.561474e+01   6.372267e+00
   2.285421e+01   2.813215e+01
  -1.194487e+01   4.680565e+01
  -6.512676e+01   8.453757e+00
