
 $NMID
 id='ANONYMOUS ', fmtdat='(2E16.6)'
 volume=1.0
 tramp=1.0
 $END
   4.104588e+03  -1.229608e+02
   2.299724e+03   2.520901e+03
  -1.078333e+03   2.730757e+03
  -2.130714e+03   7.550135e+02
  -7.363252e+02  -8.035695e+02
   8.220302e+02  -5.120315e+02
   8.491577e+02   5.138796e+02
  -5.911129e+01   1.045164e+03
  -8.035526e+02   8.123016e+02
  -8.988813e+02  -1.603312e+02
  -4.032386e+02  -9.074306e+02
   2.542356e+02  -8.613208e+02
   6.840991e+02  -4.944596e+01
   3.346840e+02   7.635788e+02
  -2.960744e+02   7.605790e+02
  -5.776856e+02  -3.527253e+00
  -2.427332e+02  -6.570603e+02
   2.977410e+02  -6.287161e+02
   5.863806e+02  -6.841755e+01
   3.781544e+02   3.768559e+02
   1.777240e+01   4.492375e+02
  -2.623870e+02   2.489052e+02
  -2.243761e+02  -2.120171e+01
   9.003257e+01  -7.708490e+01
   4.232899e+02   1.417307e+02
   1.995746e+02   4.260054e+02
  -4.639683e+02   3.815115e+02
  -8.455326e+02  -9.838675e+01
  -4.326647e+02  -5.608877e+02
   3.614830e+02  -5.120346e+02
   7.564573e+02   3.451235e+01
   4.116221e+02   4.862791e+02
  -2.728125e+02   5.375075e+02
  -5.528572e+02   2.069636e+02
  -3.979238e+02  -2.746872e+02
  -7.736108e+00  -4.865036e+02
   2.604150e+02  -2.502952e+02
   1.419036e+02   2.679938e+02
  -2.032110e+02   4.459983e+02
  -4.773507e+02   3.617283e+00
  -2.116409e+02  -6.701713e+02
   3.515477e+02  -6.474510e+02
   6.121234e+02   1.648626e+00
   2.563394e+02   5.223093e+02
  -3.437551e+02   3.478033e+02
  -3.756589e+02  -3.455077e+02
   7.002292e+01  -5.308100e+02
   5.213752e+02  -1.692364e+02
   5.670553e+02   3.654199e+02
   1.497015e+02   5.807575e+02
  -3.612576e+02   3.000187e+02
  -6.182046e+02  -6.037515e+01
  -3.404296e+02  -3.798030e+02
   1.793635e+02  -3.599712e+02
   4.490002e+02  -6.324216e+01
   1.878703e+02   2.029203e+02
  -1.661726e+02   8.986279e+01
  -1.149134e+02  -1.661420e+02
   1.565165e+02  -1.989083e+02
   3.093962e+02   3.316937e+01
   1.352728e+02   2.678020e+02
  -1.625679e+02   2.222608e+02
  -2.855957e+02   3.930822e+01
  -1.905377e+02  -7.782088e+01
   3.141474e+01  -2.247267e+02
   2.034692e+02  -3.390615e+02
   3.387301e+02  -1.726256e+02
   2.810726e+02   1.469745e+02
   5.078382e+01   4.284453e+02
  -1.317319e+02   3.908382e+02
  -1.338082e+02   7.557398e+01
  -1.397413e+01  -5.315384e+01
  -3.534763e+01   6.904713e+01
  -1.625575e+02   1.233768e+02
  -2.394364e+02  -3.245561e+01
  -2.113828e+02  -1.965174e+02
   4.595713e+01  -2.493628e+02
   2.007481e+02  -4.108795e+01
   2.090636e+02   2.383802e+02
  -1.686341e+01   2.617500e+02
  -2.688997e+02   1.472198e+02
  -3.533816e+02  -1.472157e+02
  -2.071908e+02  -3.406940e+02
   9.173011e+01  -3.241761e+02
   2.327482e+02  -1.020162e+02
   1.394139e+02   2.662220e+01
   8.205588e+01  -8.015575e+00
   1.588084e+02  -8.333627e+00
   3.274183e+02   3.806189e+01
   3.111545e+02   2.481054e+02
  -1.409101e+01   3.850033e+02
  -3.265871e+02   3.679157e+02
  -4.307512e+02   1.656099e+02
  -3.185104e+02  -9.325527e+01
  -6.555766e+01  -2.654278e+02
   1.068835e+02  -2.477020e+02
   8.970505e+01  -3.334326e+01
  -6.606335e+01   1.015090e+02
  -1.877393e+02   1.769758e+01
  -6.817219e+01  -1.774642e+02
   1.645255e+02  -1.638870e+02
   1.694542e+02   4.389910e+01
   8.982180e-01   1.877104e+02
  -1.627526e+02   7.834918e+01
  -1.669220e+02  -2.254820e+02
   4.296728e+01  -3.163650e+02
   2.094483e+02  -1.654018e+02
   3.160131e+02   7.422123e+01
   2.318194e+02   1.979066e+02
   8.608539e+01   2.244517e+02
  -1.186969e+02   1.427110e+02
  -2.087337e+02   3.179456e+01
  -6.012217e+01  -2.567350e+01
   5.649813e+01   5.378171e+01
   1.319196e+01   1.165324e+02
  -1.173457e+02   8.655615e+01
  -1.688950e+02  -8.706545e+00
  -3.563860e+01  -5.464044e+01
   7.359560e+01  -2.984790e+01
   4.442340e+01   7.355137e+01
  -9.627498e+01   7.883334e+01
  -2.338818e+02   1.565429e+01
  -2.290661e+02  -1.176570e+02
  -3.564060e+01  -2.449590e+02
   1.786490e+02  -2.276443e+02
   2.651179e+02  -1.032896e+02
   1.603532e+02   5.444414e+01
   7.568371e+00   9.349581e+01
  -7.779918e+01  -2.609680e+01
   1.008853e+01  -1.063392e+02
   1.881503e+02  -2.899576e+01
   1.840763e+02   9.521766e+01
   6.130431e+01   1.858697e+02
  -8.366635e+01   1.526441e+02
  -1.454906e+02   4.021647e+01
  -5.460534e+01  -3.830373e+01
   1.222660e+00  -2.153427e+01
   3.120283e+01   7.863205e+01
  -5.381894e+01   1.082628e+02
  -1.834993e+02   6.005730e+00
  -1.926373e+02  -1.261743e+02
   3.045702e+00  -2.042952e+02
   1.645983e+02  -1.729233e+02
   1.835754e+02   6.894462e+00
   4.629855e+01   1.068204e+02
  -8.385137e+01   1.132571e+02
  -7.917987e+01   2.394582e+01
  -1.576837e+01  -3.417058e+01
   1.656226e+01  -1.136519e+01
  -2.618066e+01   1.838499e+01
  -6.647178e+01   1.689369e+00
  -8.367876e+01  -6.354619e+01
  -2.394804e+01  -1.643127e+02
   1.176042e+02  -1.338998e+02
   2.172890e+02  -1.724386e+01
   1.810432e+02   1.252860e+02
   3.604999e+01   2.057360e+02
  -1.048154e+02   1.478290e+02
  -1.292551e+02   4.469776e+01
  -6.438602e+01  -4.121681e+01
  -2.825840e+01  -4.443470e+01
  -4.637058e+01   2.844389e+01
  -8.380768e+01   2.229307e+01
  -2.270556e+01  -5.688075e+01
   2.559330e+01  -8.658590e+01
   1.003665e+02  -5.007539e+01
   9.480808e+01   2.068542e+01
  -9.910714e+00   9.684812e+01
  -9.204603e+01   6.937741e+01
  -1.662985e+02  -4.290171e+01
  -8.724159e+01  -1.457693e+02
   9.750707e+01  -2.348640e+02
   2.027760e+02  -8.894938e+01
   2.447455e+02   7.123641e+01
   9.802800e+01   1.610458e+02
  -2.870981e+01   1.528242e+02
  -1.109313e+02   6.154921e+01
  -6.211746e+01   2.625566e+01
  -4.421770e+01   8.062420e+01
  -7.328951e+01   7.563990e+01
  -1.262538e+02   2.011209e+00
  -9.945302e+01  -1.200091e+02
  -2.586042e+01  -2.187089e+02
   1.009921e+02  -1.361205e+02
   1.600941e+02   1.049961e+01
   1.126221e+02   1.156663e+02
   1.617125e+00   1.267946e+02
  -7.196678e+01   8.066688e+01
  -3.678848e+01   6.070984e+00
  -8.642254e+00  -2.688887e+01
  -1.048628e+01  -2.641227e+01
  -5.330018e+01  -1.944274e+01
  -6.644185e+01  -3.140722e+01
  -2.082463e+01  -3.824879e+01
   4.735017e+01  -1.776599e+01
   1.325014e+02  -1.656970e+01
   1.137302e+02   4.198671e+01
   2.233180e+01   8.184757e+01
  -1.094331e+02   8.302053e+01
  -1.263897e+02   3.292417e+00
  -3.034351e+01  -4.115248e+01
   4.486647e+01  -1.867162e+01
   5.938753e+01   2.377799e+01
   2.099933e+01   5.703258e+01
  -6.073751e+01   4.108260e+01
  -5.887872e+01   7.137544e+00
  -2.632505e+01  -3.934766e+01
  -2.048350e+01  -2.763328e+01
  -5.102660e+01   1.063942e+01
  -5.098992e+01  -1.119461e+01
  -3.974877e+01  -8.698737e+01
   1.916937e+01  -1.392370e+02
   1.001271e+02  -1.348263e+02
   1.363357e+02  -3.122977e+01
   1.203261e+02   9.099238e+01
  -2.297508e+00   1.256399e+02
  -7.132367e+01   5.458982e+01
  -5.337687e+01  -9.025229e+00
   3.407953e+01  -7.802022e+00
   1.365704e+02   5.291851e+01
   5.166426e+01   8.610588e+01
  -3.241347e+01   8.235596e+01
  -1.554133e+02   1.796313e+01
  -1.344575e+02  -3.383267e+01
  -1.890061e+01  -6.838205e+01
   6.577631e+01  -5.841837e+01
   4.468215e+01  -1.952262e+01
  -8.464568e+00   1.125091e+01
  -5.889762e+01  -1.385337e+01
  -2.585415e+01  -9.096892e+01
   6.185484e+01  -1.399819e+02
   1.499730e+02  -4.362138e+01
   7.441018e+01   9.277796e+01
   1.620138e+01   1.946353e+02
  -6.256640e+01   1.229008e+02
  -8.910199e+01   1.755230e+01
  -4.868567e+01  -9.093766e+01
   1.404139e+01  -6.702837e+01
   4.542365e+01  -4.522345e+01
   3.953257e+01   1.061716e+00
   2.297784e+01   2.517991e+01
  -1.781646e+01  -2.192447e+01
   1.157946e+01   3.747492e+01
   5.196756e+01   7.322006e+01
   2.297924e+01   9.602140e+01
  -7.101179e+01   3.433361e+01
  -1.294282e+02  -3.678321e+01
  -1.009670e+02  -7.973144e+01
  -1.740543e+01  -4.644854e+01
   5.985240e+01  -1.966984e+01
   6.761507e+01  -3.791118e+01
   5.070506e+01   2.417213e+00
  -2.329766e+01   2.436025e+01
  -3.578271e+01   1.922885e+01
   5.058358e-01  -1.180702e+01
   1.296362e+01  -1.049792e+01
  -5.793184e+01  -9.887731e+00
  -8.936462e+01  -4.620067e+01
  -2.992711e+01  -9.848095e+01
   1.156455e+02  -1.117583e+02
   1.648426e+02  -5.444245e+01
   1.095039e+02   7.251688e+01
   2.514625e+01   1.589133e+02
  -7.466049e+01   1.433109e+02
  -9.694480e+01   4.632596e+01
  -7.340840e+01  -6.056578e+00
  -7.835506e+00  -3.372425e+01
   1.355211e+01  -2.759306e+00
  -1.060587e+01  -1.067695e+01
  -1.129217e+01  -3.120931e+01
  -5.089281e+01  -7.673916e+01
   2.892244e+01  -6.998838e+01
   7.168739e+01   2.349224e+01
   9.187067e+01   9.651831e+01
  -4.276202e+00   9.483874e+01
  -6.799480e+01   1.780695e+01
  -1.047461e+02  -6.826856e+01
  -4.470398e+01  -9.202251e+01
   3.971643e+01  -5.251600e+01
   1.150532e+02   1.634300e+01
   2.762463e+01   5.193470e+01
  -1.506903e+01   2.753816e+01
  -4.436625e+01   2.188606e+01
   3.302064e+01  -3.795267e+00
   6.970328e+01  -1.237986e+01
  -6.691603e+00   1.117816e+01
  -7.126857e+01   5.144556e+01
  -1.059020e+02   6.611223e+01
  -5.631943e+01  -1.290599e+01
  -4.184017e+00  -5.800343e+01
   3.714850e+01  -4.309939e+01
   4.623281e+01  -9.446290e+00
  -1.224801e+01   5.494599e+01
  -2.774821e+01   2.926973e+01
  -3.731015e+01  -2.559737e+01
  -5.827862e+00  -3.073410e+01
  -3.420895e+00  -1.469285e+01
   1.280602e+01   3.298997e+01
   2.346498e+01   1.416715e+01
   2.762050e+01  -1.311163e+01
  -1.362739e+01   7.979664e+00
  -2.411506e+01   9.081167e+00
  -1.666956e+01   3.288885e+01
   6.176885e+00   2.019237e+01
  -2.794330e+01  -1.696415e-01
  -2.165802e+01  -3.710437e+01
   4.257954e+01  -6.688455e+01
   4.573170e+01  -2.550818e+01
   4.964552e+01   1.777252e+01
   2.138415e+01   4.395080e+01
  -5.600356e+01   2.188347e+01
  -8.411077e+01  -2.237908e+01
  -3.886357e+01  -2.802919e+01
   2.264315e+01  -3.451934e+01
   7.418880e+01   8.057158e+00
   9.792449e+00   3.413194e+00
  -2.444879e+01  -3.104907e+00
  -4.979092e+01  -7.944959e+00
   1.626807e+01  -3.174625e+01
   9.215292e+01  -3.758203e-01
