
 $NMID
 id='ANONYMOUS ', fmtdat='(2E16.6)'
 volume=1.0
 tramp=1.0
 $END
   4.878484e+03   3.224476e+02
   2.644268e+03   2.924515e+03
  -9.632897e+02   2.804189e+03
  -2.141872e+03   7.611121e+02
  -8.838078e+02  -8.075634e+02
   5.935372e+02  -5.876563e+02
   8.735091e+02   5.506463e+02
  -1.030883e+02   1.127259e+03
  -8.445285e+02   7.259556e+02
  -9.541339e+02  -8.434943e+01
  -4.048617e+02  -9.538900e+02
   3.641283e+02  -9.265716e+02
   6.883813e+02  -6.043707e+01
   3.698906e+02   7.440901e+02
  -3.156382e+02   7.242414e+02
  -5.922905e+02  -5.262379e+01
  -2.461559e+02  -7.275233e+02
   3.300462e+02  -6.225101e+02
   6.067011e+02  -3.370976e+01
   3.186312e+02   4.321564e+02
  -3.105324e+01   4.325896e+02
  -2.283251e+02   2.758259e+02
  -2.569892e+02  -1.871952e+01
   1.160370e+02  -9.351132e+01
   4.139817e+02   1.056193e+02
   1.905786e+02   4.652826e+02
  -4.342662e+02   4.400024e+02
  -8.214123e+02  -3.251730e+01
  -4.440789e+02  -5.733676e+02
   4.746563e+02  -5.026407e+02
   7.687341e+02   6.367115e+01
   3.371406e+02   4.648011e+02
  -3.275776e+02   4.877447e+02
  -5.741052e+02   2.053391e+02
  -4.029440e+02  -2.537353e+02
  -4.266264e+01  -4.774907e+02
   1.920559e+02  -2.848067e+02
   1.753320e+02   2.403316e+02
  -2.050024e+02   4.140292e+02
  -4.409156e+02  -3.925572e+01
  -3.009260e+02  -7.055741e+02
   3.270420e+02  -7.356315e+02
   6.560807e+02   4.672035e+01
   2.628850e+02   6.112566e+02
  -3.251466e+02   3.126974e+02
  -4.226040e+02  -3.582281e+02
   1.363743e+02  -5.712613e+02
   5.732949e+02  -1.215574e+02
   6.026379e+02   4.515448e+02
   1.210725e+02   5.924766e+02
  -4.082460e+02   3.489573e+02
  -6.306703e+02  -6.683843e+01
  -3.122322e+02  -3.794091e+02
   1.849624e+02  -3.622905e+02
   4.841556e+02  -4.930497e+01
   2.447020e+02   2.007931e+02
  -1.833399e+02   7.500223e+01
  -1.614715e+02  -1.704716e+02
   1.830642e+02  -2.784006e+02
   3.663834e+02   1.029198e+02
   1.441279e+02   3.441259e+02
  -2.216884e+02   2.615683e+02
  -3.315657e+02   5.578761e+01
  -1.639621e+02  -1.108323e+02
   3.988234e+01  -1.944997e+02
   1.889478e+02  -3.098978e+02
   3.234080e+02  -2.297095e+02
   2.846615e+02   1.345733e+02
   7.495631e+01   4.354488e+02
  -9.938691e+01   3.779795e+02
  -1.380890e+02   7.869493e+01
  -7.590642e+00  -3.591521e+01
  -4.356683e+01   1.072236e+02
  -1.987239e+02   1.387756e+02
  -2.959278e+02  -5.849194e+01
  -1.888588e+02  -2.857159e+02
   9.481852e+01  -2.544226e+02
   2.034756e+02  -1.289927e+01
   1.734739e+02   2.565489e+02
  -2.178923e+01   3.074569e+02
  -2.886462e+02   1.313142e+02
  -3.400584e+02  -1.830801e+02
  -1.816796e+02  -3.626488e+02
   1.014977e+02  -3.010719e+02
   2.506260e+02  -1.265582e+02
   1.427063e+02   1.304467e+01
   5.868858e+01   7.169099e+00
   2.337417e+02  -3.548277e+01
   3.716972e+02   8.270350e+01
   3.481465e+02   2.764032e+02
  -1.997906e+01   4.349040e+02
  -3.769706e+02   3.756678e+02
  -4.793401e+02   1.545984e+02
  -3.306639e+02  -1.070896e+02
  -5.600697e+01  -2.863401e+02
   1.577563e+02  -2.418087e+02
   5.848640e+01  -1.800007e+01
  -9.584716e+01   1.301216e+02
  -1.895864e+02  -1.821352e+01
  -5.885543e+01  -1.729943e+02
   1.706521e+02  -1.606912e+02
   1.884258e+02   4.905475e+01
  -1.840100e+01   2.267269e+02
  -2.292075e+02   2.373765e+01
  -1.954024e+02  -2.657165e+02
   5.596965e+01  -3.426725e+02
   2.561097e+02  -2.175103e+02
   3.148717e+02   6.146049e+01
   2.787819e+02   2.375583e+02
   1.029196e+02   2.797826e+02
  -1.158451e+02   1.713304e+02
  -1.784759e+02   1.421252e+01
  -6.156251e+01  -4.928923e+01
   7.866028e+01   3.653192e+01
   1.989668e+01   1.438422e+02
  -1.135163e+02   1.143606e+02
  -1.843566e+02  -2.271943e+01
  -5.350773e+01  -1.037935e+02
   5.802865e+01  -2.867535e+01
   5.280306e+01   7.739212e+01
  -8.988997e+01   9.559783e+01
  -2.579365e+02   1.730015e+01
  -2.459295e+02  -1.466091e+02
  -6.856586e+01  -2.416604e+02
   1.538834e+02  -2.578469e+02
   2.751726e+02  -1.284659e+02
   1.718198e+02   7.780119e+01
  -2.881570e+01   1.071951e+02
  -9.503265e+01  -2.846153e+00
   1.258520e+01  -9.373416e+01
   2.017923e+02  -4.935349e+01
   2.294442e+02   9.952142e+01
   9.061627e+01   2.062030e+02
  -1.024944e+02   1.558248e+02
  -1.557314e+02   4.401910e+01
  -9.840185e+01  -5.098786e+01
  -1.364326e+01  -2.138964e+01
   5.086667e+01   7.419105e+01
  -6.225259e+01   1.232965e+02
  -1.994657e+02   4.272876e+01
  -1.920304e+02  -1.330466e+02
  -3.828542e+01  -2.309917e+02
   1.484554e+02  -1.568593e+02
   1.893100e+02   1.631664e+00
   3.619477e+01   1.038526e+02
  -6.531115e+01   1.144268e+02
  -8.772561e+01   1.423398e+01
  -1.877017e+01  -2.569355e+01
   2.787155e+01  -1.442538e+01
  -2.842375e-02  -1.447564e+01
  -5.965467e+01  -1.521833e+00
  -7.463669e+01  -8.602718e+01
   1.456289e+01  -1.181532e+02
   1.357792e+02  -1.428591e+02
   2.330736e+02  -2.366083e+01
   2.057942e+02   1.533288e+02
   1.822007e+00   2.492257e+02
  -9.414413e+01   1.496649e+02
  -1.276185e+02   3.874604e+01
  -6.371534e+01  -5.335094e+01
  -4.149087e+01  -3.458059e+01
  -4.622767e+01   5.497550e+00
  -5.174373e+01   1.656518e+00
  -3.847254e+01  -5.734096e+01
   6.077095e+01  -9.521015e+01
   1.009546e+02  -5.080323e+01
   8.451086e+01   2.649115e+01
  -3.682237e+01   1.080319e+02
  -1.382427e+02   6.349678e+01
  -1.957297e+02  -8.438678e+01
  -1.042472e+02  -1.890891e+02
   1.243015e+02  -2.237568e+02
   2.492913e+02  -6.273041e+01
   2.588856e+02   7.761815e+01
   9.763986e+01   1.427081e+02
  -5.808120e+01   1.651549e+02
  -9.619139e+01   1.054199e+02
  -6.393441e+01   4.952164e+01
  -7.360640e+01   8.904553e+01
  -6.879153e+01   4.732919e+01
  -1.348042e+02   5.399270e+00
  -1.181973e+02  -1.584529e+02
  -3.768225e+01  -2.511502e+02
   1.047407e+02  -1.795385e+02
   1.950145e+02  -1.668485e+01
   1.497153e+02   1.034980e+02
   3.171860e+01   1.507293e+02
  -7.629009e+01   7.916233e+01
  -4.797460e+01   2.364967e+01
  -8.910324e+00  -5.897476e+01
   5.242096e+00  -1.900557e+01
  -5.203474e+01  -2.677883e+01
  -8.972401e+01  -5.697455e+00
  -4.318596e+01  -4.803056e+01
   3.972495e+01  -4.720334e+01
   1.421148e+02  -1.146741e+01
   1.495637e+02   6.057358e+01
   3.830055e+01   7.267474e+01
  -1.123647e+02   9.447721e+01
  -1.800176e+02   2.452220e+01
  -6.027829e+01  -6.179330e+01
   7.503336e+01  -5.198978e+01
   5.693894e+01  -2.066840e+00
   4.217295e+01   8.844144e+01
  -4.020579e+01   3.662481e+01
  -5.464937e+01   1.080743e+01
  -3.844639e+01  -5.493750e+01
  -2.861498e+01  -5.168692e+01
  -6.016474e+01  -1.079605e+01
  -5.921902e+01   3.238009e+00
  -5.744946e+01  -6.829022e+01
   5.551650e+01  -1.483840e+02
   1.079383e+02  -1.375116e+02
   1.434788e+02  -2.364249e+01
   9.374854e+01   8.044509e+01
   3.272771e+01   1.150167e+02
  -5.370050e+01   3.583962e+01
  -4.405526e+01   1.286487e+01
   6.491648e+01   7.610242e+00
   1.490514e+02   3.169115e+01
   5.319286e+01   1.036289e+02
  -6.546015e+01   1.204188e+02
  -1.797969e+02   5.213964e+01
  -1.272077e+02  -3.342412e+01
  -5.419764e+01  -8.779176e+01
   4.794672e+01  -8.041844e+01
   5.142182e+01   5.174292e+00
  -9.695848e+00   1.509527e+01
  -8.229910e+01  -5.457710e+01
  -2.330505e+01  -1.109183e+02
   8.359898e+01  -1.517592e+02
   1.650151e+02  -8.347655e+01
   1.369912e+02   1.045250e+02
   4.320010e+01   1.926528e+02
  -7.127845e+01   1.288901e+02
  -9.095608e+01  -5.573924e+00
  -4.893373e+01  -9.480995e+01
   1.498039e+01  -1.125171e+02
   9.749367e+00   5.559149e+00
   1.353277e+01   4.186801e+01
   2.830042e+01   1.940160e+01
  -1.286940e+01  -3.124061e+01
   3.401814e+01  -6.570101e+00
   8.522756e+01   6.836386e+01
   3.574788e+01   1.428207e+02
  -4.283311e+01   4.700544e+01
  -1.580124e+02  -4.174993e+01
  -9.923854e+01  -1.027531e+02
  -6.045180e+00  -5.293985e+01
   8.105827e+01  -2.934993e+01
   9.259009e+01  -2.883927e+00
  -5.962015e+00   1.443254e+01
  -6.220835e+01   2.504056e+01
  -4.056454e+00   3.291452e+01
   3.306969e+01  -3.129463e+00
  -2.019907e+00   4.403168e+00
  -7.921194e+01   8.571429e-01
  -1.024204e+02  -2.226650e+01
  -3.772394e+00  -5.254346e+01
   1.490150e+02  -1.356896e+02
   1.962648e+02  -8.612157e+01
   1.204634e+02   6.864034e+01
   3.871367e+01   1.649872e+02
  -6.905588e+01   1.399823e+02
  -1.269196e+02   4.029501e+01
  -9.042526e+01  -2.314293e+01
  -2.709696e+01  -1.574067e+01
  -8.784214e+00   3.261282e+00
  -1.511861e+01   1.306682e+01
  -3.146798e+01  -3.416711e+01
  -2.273700e+01  -7.890391e+01
   1.425417e+01  -7.656383e+01
   9.439115e+01   3.918647e+01
   7.365134e+01   1.154075e+02
   2.728047e+00   9.715073e+01
  -8.596137e+01   1.406996e+01
  -1.191449e+02  -8.682012e+01
  -2.729575e+01  -8.901803e+01
   7.264156e+01  -6.165274e+01
   1.026036e+02  -5.491204e+00
   4.407421e+01   6.973320e+01
  -1.752989e+01   5.457195e+01
  -9.524791e+00   1.960233e+01
   3.109865e+01   1.558915e+00
   7.408070e+01  -1.432030e+01
  -3.457648e-01   3.187264e+01
  -6.804199e+01   5.822959e+01
  -9.474213e+01   6.578327e+01
  -4.808495e+01  -1.145109e+01
   1.626039e+01  -7.315465e+01
   6.414151e+01  -7.200788e+01
   2.658852e+01  -2.173911e+01
  -8.320853e+00   7.962994e+01
  -4.037690e+01   1.304623e+01
  -3.016432e+01  -2.464602e+01
  -1.029804e+01  -6.466722e+01
   3.271030e+00  -9.105534e-01
   1.649920e+01   2.160634e+01
   8.472009e+00   3.949954e+01
   4.695064e+00   3.283584e+00
  -9.500543e+00  -1.933369e+01
   5.247378e+00   1.452312e+01
   2.075216e+01   3.308543e+01
  -3.684499e+01   3.794231e+01
  -4.191051e+01  -2.595435e-01
  -3.328672e+01  -5.788323e+01
   1.515628e+01  -8.640099e+01
   5.916821e+01  -2.404990e+01
   6.569278e+01   4.535931e+01
   1.721655e+01   5.973290e+01
  -6.261123e+01   3.682794e+01
  -7.996601e+01  -2.714402e+01
  -3.482115e+01  -4.716214e+01
   4.924378e+01  -2.498149e+01
   5.571259e+01  -3.353336e+01
   2.063615e+01  -1.668366e+01
  -2.670439e+01   8.588070e+00
  -3.810142e+01  -3.891880e+01
   3.210956e+01  -6.631060e+00
   1.051516e+02  -5.545019e+00
