
 $NMID
 id='ANONYMOUS ', fmtdat='(2E16.6)'
 volume=1.0
 tramp=1.0
 $END
  -3.245563e+03  -8.027227e+01
  -2.389137e+03  -1.751215e+03
  -4.006853e+01  -2.043575e+03
   1.401700e+03  -1.209366e+03
   1.011499e+03  -1.259792e+02
   1.224590e+01   3.310812e+02
  -4.555203e+02  -7.511657e+01
  -1.084670e+02  -6.197808e+02
   4.627403e+02  -6.115014e+02
   6.609090e+02  -1.055919e+02
   5.083453e+02   5.563520e+02
   2.182660e+01   6.960864e+02
  -3.449536e+02   1.962047e+02
  -2.815196e+02  -4.150769e+02
   1.152590e+02  -5.560777e+02
   4.340907e+02  -6.494121e+01
   3.133907e+02   4.894276e+02
  -1.927014e+02   5.877042e+02
  -4.300856e+02   2.681647e+02
  -4.099324e+02  -1.789444e+02
  -1.574825e+02  -3.516521e+02
   1.049706e+02  -2.561986e+02
   7.468537e+01  -7.955317e+01
  -1.765453e+02  -7.737423e+01
  -2.722595e+02  -2.246320e+02
  -7.881844e+00  -3.490209e+02
   4.426100e+02  -1.513835e+02
   5.858200e+02   1.485888e+02
   2.449116e+02   3.825239e+02
  -3.496710e+02   1.946669e+02
  -5.448081e+02  -1.216997e+02
  -1.870662e+02  -3.455299e+02
   2.362915e+02  -3.929874e+02
   4.474150e+02  -1.559245e+02
   3.561310e+02   1.583848e+02
   1.399584e+02   3.362279e+02
  -7.996104e+01   1.813207e+02
   4.042470e+01  -1.102145e+02
   2.114234e+02  -1.556266e+02
   2.742714e+02   1.012922e+02
   7.099369e+01   5.332397e+02
  -2.554820e+02   4.973153e+02
  -3.717500e+02  -2.180569e+01
  -9.385544e+01  -3.345165e+02
   1.767542e+02  -1.666374e+02
   1.813796e+02   2.745399e+02
  -1.016450e+02   3.709250e+02
  -4.396667e+02   7.726075e+01
  -4.615937e+02  -3.656888e+02
  -1.467949e+02  -4.817352e+02
   3.061813e+02  -2.839733e+02
   4.940874e+02   6.724128e+01
   3.164205e+02   2.494662e+02
  -6.076278e+01   2.369138e+02
  -3.148051e+02   7.671833e+01
  -2.170864e+02  -7.205600e+01
  -2.628389e+00  -4.685086e+01
   6.344695e+01   8.471784e+01
  -9.730013e+01   6.683548e+01
  -2.562744e+02  -5.348550e+01
  -1.109640e+02  -2.071349e+02
   1.631946e+02  -2.228425e+02
   3.222619e+02  -1.306526e+02
   2.253920e+02   5.819365e+01
  -1.329284e+01   3.080543e+02
  -2.474201e+02   3.255364e+02
  -3.451401e+02   1.535696e+02
  -2.198420e+02  -1.564134e+02
  -8.436131e+01  -3.648350e+02
   8.208824e+01  -3.073968e+02
   2.872407e+01  -1.364249e+02
   5.037518e+01  -8.883713e+01
   8.895439e+01  -1.496772e+02
   2.404434e+02  -7.026143e+01
   2.458335e+02   1.459538e+02
   1.102608e+02   2.641065e+02
  -1.094744e+02   1.553537e+02
  -2.224884e+02  -3.176343e+01
  -1.064563e+02  -2.202957e+02
   3.676878e+01  -2.585056e+02
   2.357615e+02  -6.992607e+01
   2.841495e+02   1.668099e+02
   1.592418e+02   3.047975e+02
  -5.862029e+01   2.653314e+02
  -1.674929e+02   1.402860e+02
  -1.679107e+02   7.017886e+01
  -1.675833e+02   4.782006e+01
  -2.640080e+02   3.907129e+01
  -3.943647e+02  -1.067817e+02
  -3.102910e+02  -2.738974e+02
   4.609544e+01  -4.151054e+02
   3.637810e+02  -3.795126e+02
   4.523559e+02  -1.518650e+02
   2.739004e+02   8.111990e+01
   7.652792e+00   2.515750e+02
  -9.564931e+01   1.989734e+02
  -2.884251e+01   2.598898e+01
   8.997224e+01  -5.506234e+01
   1.306622e+02   1.381036e+01
   1.381472e+00   1.608613e+02
  -1.204099e+02   1.123987e+02
  -1.216365e+02  -3.447772e+01
   1.816886e+01  -1.354795e+02
   1.336075e+02  -1.624326e+01
   1.308447e+02   1.776772e+02
  -5.076893e+00   3.182172e+02
  -2.204419e+02   2.115303e+02
  -3.375336e+02  -6.474990e+01
  -2.501365e+02  -2.430455e+02
  -6.539284e+01  -2.531268e+02
   1.278871e+02  -1.191365e+02
   1.504776e+02  -1.419351e+01
   1.944448e+01   1.557576e+01
  -7.429914e+01  -4.254831e+01
  -4.739486e+00  -1.045268e+02
   1.106985e+02  -8.120760e+01
   1.463337e+02   4.214985e+01
   2.429745e+01   7.409077e+01
  -4.722145e+01  -1.419900e+01
  -2.092527e+01  -1.158435e+02
   1.309515e+02  -7.180875e+01
   2.966778e+02   3.126718e+01
   2.536894e+02   1.528618e+02
   3.471825e+01   2.671829e+02
  -1.912941e+02   2.311066e+02
  -2.520832e+02   6.439139e+01
  -1.210495e+02  -7.260479e+01
   3.582253e+01  -6.735378e+01
   9.457954e+01  -2.454655e-01
  -5.786804e+01   5.218333e+01
  -1.532846e+02   7.486592e+01
  -1.661799e+02  -1.117333e+02
  -4.116455e+01  -1.726946e+02
   9.449153e+01  -1.326523e+02
   1.160740e+02  -2.071653e+01
   5.329256e+01   2.834205e+01
  -4.521723e+01  -2.110540e+00
  -3.023950e+01  -8.646936e+01
   8.720370e+01  -1.063547e+02
   1.909297e+02  -7.553767e+00
   1.806640e+02   1.370357e+02
   3.447584e+01   2.044596e+02
  -1.606278e+02   1.080184e+02
  -1.608215e+02   1.457385e+01
  -6.087995e+01  -8.379980e+01
   3.893169e+01  -9.915590e+01
   6.380887e+01  -4.952022e+01
   1.508635e+01   1.250016e+01
  -3.219351e+01   8.981850e+00
   1.299606e+01   1.671180e+00
   6.458704e+01  -2.376849e+00
   8.179751e+01   7.417017e+01
   2.638688e+01   1.609001e+02
  -1.492248e+02   1.591407e+02
  -2.274363e+02   2.052510e+01
  -1.634936e+02  -1.563839e+02
  -5.201780e+01  -2.181163e+02
   8.295598e+01  -2.038184e+02
   1.064100e+02  -4.268576e+01
   9.029176e+01   5.020266e+01
   5.257911e+01   4.303528e+01
   6.079910e+01  -1.863219e+01
   7.964302e+01  -1.429449e+01
   4.408616e+01   2.746562e+01
  -2.622612e+01   1.110737e+02
  -7.390437e+01   7.558110e+01
  -8.569061e+01  -1.274941e+01
   3.267288e+00  -1.394172e+02
   1.640264e+02  -1.057474e+02
   2.010894e+02   6.648552e+01
   6.077742e+01   2.100249e+02
  -1.598712e+02   2.226946e+02
  -2.228676e+02   9.437850e+01
  -2.456249e+02  -1.150639e+02
  -9.435809e+01  -1.673982e+02
   3.453299e+01  -1.351028e+02
   7.247979e+01  -9.370448e+01
   9.203857e+01  -5.097501e+01
   7.893406e+01  -5.170978e+01
   6.462196e+01  -5.939733e+01
   1.341144e+02   2.125158e+01
   1.225156e+02   1.073118e+02
   1.374097e+01   2.047432e+02
  -8.610776e+01   1.636033e+02
  -1.573707e+02   1.688137e+01
  -1.325725e+02  -1.485743e+02
   5.991750e+00  -1.619960e+02
   6.755654e+01  -9.128410e+01
   7.151418e+01   1.860548e+01
  -4.415914e+00   7.398715e+01
  -2.453392e+01   3.374613e+01
   4.142100e+01  -1.431596e+01
   7.519830e+01  -1.684906e+00
   6.101027e+01   3.852205e+01
  -7.785254e+01   5.149977e+01
  -1.966281e+02  -1.812568e+00
  -1.328552e+02  -4.377080e+01
   8.314161e+00  -1.085013e+02
   1.252015e+02  -7.507824e+01
   1.366667e+02  -1.146252e+01
   5.691019e+01   5.219154e+01
  -5.365511e+01   5.566810e+01
  -8.345850e+01  -2.264893e+01
  -2.855194e+01  -6.465567e+01
   4.047157e+01  -4.789021e+01
   7.768768e+01  -1.272619e+01
   6.342272e+01   6.140014e+01
   4.650371e+01   5.318878e+01
   2.372061e+01   8.960946e+00
   3.828228e+01   5.206638e+00
   4.653627e+01   5.890149e+01
  -1.999020e+01   1.086437e+02
  -1.137681e+02   1.305792e+02
  -1.490244e+02   3.432212e+01
  -1.189945e+02  -8.658229e+01
   2.209264e+01  -1.199778e+02
   8.470041e+01  -4.174545e+01
   6.385309e+01   3.715550e+01
  -3.881231e+01   4.046196e+01
  -1.529514e+02  -4.243377e+01
  -5.978932e+01  -1.012388e+02
   8.356494e+01  -1.202750e+02
   1.971415e+02  -5.756751e+01
   1.684105e+02   4.201488e+01
   3.372493e+01   7.082078e+01
  -5.021710e+01   5.499688e+01
  -2.004094e+01   2.513182e+00
   1.544072e+01  -1.983680e+01
   8.072217e+01   1.610532e+01
   3.092865e+01   9.404433e+01
  -6.376946e+01   1.440087e+02
  -1.694474e+02   6.835453e+01
  -1.218658e+02  -1.049340e+02
  -4.032390e+01  -2.146732e+02
   7.093705e+01  -1.361357e+02
   8.093520e+01   1.998510e+01
   3.575439e+01   1.104269e+02
  -2.254967e+01   6.926847e+01
  -2.933082e+01   1.767992e+01
  -5.330498e+01  -7.952533e+01
  -1.746352e+01  -8.590803e+00
   1.648868e+01   1.968654e+01
  -2.179765e+01  -9.673473e+00
  -6.079565e+01  -1.088390e+02
  -1.438237e+00  -1.204726e+02
   5.098450e+01  -4.558307e+01
   1.295401e+02   7.828859e+00
   1.064117e+02   6.307307e+01
   8.476596e+00   5.134008e+01
  -9.429055e+01  -5.090394e+00
  -8.549639e+01   1.032773e-01
  -2.327544e+01  -9.929802e+00
   2.644517e+01  -2.190248e+01
   1.940071e+01  -1.243418e+01
   6.996387e+00  -1.256931e+00
   2.689845e+01   1.208967e+01
   3.876193e+01   1.392585e+01
   9.267373e+01   3.740496e+01
   4.846821e+00   7.312204e+01
  -1.098507e+02   8.489792e+01
  -1.847539e+02   7.706149e+01
  -1.467196e+02  -3.137245e+01
  -3.415431e+01  -1.585212e+02
   6.718423e+01  -1.341971e+02
   9.514462e+01  -7.364467e+01
   8.886032e+01   2.575737e+01
   3.092086e+01   6.147158e+01
   1.363460e+01   6.531711e+00
   2.783423e+01  -1.246260e+01
   2.346282e+01   6.053307e+01
   7.758430e+00   6.287973e+01
  -5.497407e+01   6.721378e+01
  -5.954639e+01   1.027066e+00
  -6.428845e+01  -9.471289e+01
  -9.237027e+00  -1.021611e+02
   8.861320e+01  -4.982496e+01
   1.020465e+02   6.324277e+01
   4.775829e+01   1.121861e+02
  -5.197289e+01   7.774868e+01
  -9.354408e+01   7.718648e+00
  -7.486857e+01  -5.807869e+01
   2.665077e+01  -6.551397e+01
   2.256848e+01  -2.901783e+01
  -2.731477e+01   6.666554e+00
  -9.346872e+01  -6.735852e+00
   1.148213e+00  -3.073868e+01
   8.394056e+01  -7.959054e+01
   1.225331e+02  -2.304039e+01
   6.699736e+01   2.953011e+01
  -4.774000e+01   1.006166e+02
  -5.493197e+01   7.747131e+01
  -4.669228e+01   1.655759e+00
  -2.628988e+00  -5.832935e+01
   6.994288e+00  -1.217378e+01
   2.709339e+01   1.523740e+01
   2.783484e+01   5.268175e+01
   1.561550e+01   2.961539e+01
  -1.835438e+01   4.888980e+00
  -2.625362e+01  -4.282846e+01
  -2.641514e+01   6.591077e+00
   1.501531e+01   6.782837e+00
   3.180254e+00  -1.559142e+01
  -4.729236e-01  -3.826028e+01
   2.655702e+01  -4.243472e+01
   4.390244e+01  -1.186916e+01
   4.011487e+01   3.630531e+01
   3.620128e+00   3.938112e+01
  -4.247268e+01   2.387995e+01
  -6.408186e+01  -3.579592e+01
  -1.666023e-01  -5.668564e+01
   6.691136e+01  -3.594720e+01
   8.377260e+01   1.884528e+01
   4.605051e+01   4.305712e+01
  -5.066398e+01   3.128558e+01
  -2.430171e+01   2.323230e+01
  -1.722282e+01   6.564238e+00
   1.911810e+01  -5.059628e+00
   3.983607e+01   3.325362e+01
  -3.879813e+01   2.189571e+01
  -5.642830e+01   2.078593e+00
