
 $NMID
 id='ANONYMOUS ', fmtdat='(2E16.6)'
 volume=1.0
 tramp=1.0
 $END
   4.652759e+03  -2.100811e+02
   2.619373e+03   2.986071e+03
  -6.385532e+02   3.074245e+03
  -2.041477e+03   7.921659e+02
  -8.768036e+02  -7.117127e+02
   7.093315e+02  -5.748784e+02
   8.545769e+02   5.136831e+02
  -2.073221e+01   1.133009e+03
  -9.283333e+02   8.206121e+02
  -9.690110e+02  -1.281796e+02
  -4.592695e+02  -9.060186e+02
   2.902160e+02  -9.301871e+02
   7.089440e+02  -1.412982e+02
   4.020184e+02   7.402954e+02
  -2.866882e+02   8.182495e+02
  -6.425096e+02  -3.822029e+01
  -2.791061e+02  -6.967556e+02
   3.443476e+02  -6.718295e+02
   6.027000e+02  -7.777200e+01
   3.779387e+02   3.393277e+02
   1.190715e+01   4.704456e+02
  -2.639296e+02   2.611100e+02
  -2.078096e+02  -6.003933e-01
   1.242478e+02  -1.348692e+02
   4.015391e+02   1.268245e+02
   2.361660e+02   4.388812e+02
  -4.576431e+02   4.600499e+02
  -8.731573e+02  -3.696623e+01
  -4.591659e+02  -5.835471e+02
   3.955869e+02  -5.417813e+02
   7.449534e+02   2.524132e+01
   3.536690e+02   5.248149e+02
  -2.918089e+02   5.484944e+02
  -6.213869e+02   1.644122e+02
  -4.101703e+02  -2.593846e+02
  -1.743722e+01  -5.114119e+02
   2.194998e+02  -2.608896e+02
   1.656617e+02   2.136835e+02
  -1.741236e+02   4.308544e+02
  -4.927333e+02  -3.189725e+01
  -2.805377e+02  -7.015668e+02
   3.439597e+02  -7.198607e+02
   6.237934e+02   1.703542e+01
   2.667319e+02   5.926614e+02
  -3.012608e+02   3.176589e+02
  -3.975162e+02  -3.348055e+02
   8.945883e+01  -5.772281e+02
   5.830128e+02  -1.541777e+02
   5.993269e+02   4.208002e+02
   1.521391e+02   5.766053e+02
  -4.272602e+02   3.437041e+02
  -6.311844e+02  -8.232369e+01
  -3.390531e+02  -3.775162e+02
   1.487653e+02  -3.718508e+02
   4.607112e+02  -7.934763e+01
   2.758816e+02   1.940037e+02
  -1.322001e+02   9.466850e+01
  -1.271043e+02  -1.681067e+02
   1.424475e+02  -2.050476e+02
   3.716980e+02   6.117889e+01
   1.474572e+02   3.270618e+02
  -1.787749e+02   2.906484e+02
  -3.649573e+02   9.553857e+01
  -1.895986e+02  -9.615518e+01
   9.659082e+00  -2.244160e+02
   2.129520e+02  -3.257671e+02
   3.352105e+02  -2.343710e+02
   2.791289e+02   1.319830e+02
   9.658901e+01   4.318550e+02
  -8.970853e+01   4.078102e+02
  -1.271678e+02   1.011278e+02
  -4.715993e+01  -6.550930e+00
  -4.409059e+01   9.174656e+01
  -1.987405e+02   1.745495e+02
  -2.957982e+02  -3.894558e+01
  -1.843768e+02  -2.480316e+02
   5.255676e+01  -2.697666e+02
   2.553265e+02  -4.927867e+01
   2.094988e+02   2.261905e+02
   7.715239e-01   3.024745e+02
  -2.718480e+02   1.203598e+02
  -3.803270e+02  -1.828648e+02
  -2.031614e+02  -3.600807e+02
   7.060676e+01  -3.138552e+02
   2.345244e+02  -1.718292e+02
   1.568657e+02   6.934041e+00
   5.522502e+01  -4.631583e+01
   2.189759e+02  -1.093717e+02
   3.917033e+02   3.273224e+01
   3.573778e+02   2.528158e+02
   5.606438e+01   4.533970e+02
  -3.530176e+02   4.271830e+02
  -4.832838e+02   2.077757e+02
  -3.740572e+02  -5.349043e+01
  -5.611003e+01  -3.004355e+02
   1.226034e+02  -2.458189e+02
   7.861250e+01  -2.869901e+01
  -1.205611e+02   1.366191e+02
  -2.523659e+02   3.512985e+01
  -8.742556e+01  -1.759068e+02
   1.621398e+02  -1.929157e+02
   2.023704e+02   6.739197e+01
   1.236944e+00   2.178123e+02
  -1.896158e+02   2.344795e+01
  -1.676987e+02  -2.612999e+02
   1.606191e+01  -3.673693e+02
   1.938468e+02  -2.283734e+02
   3.567977e+02   6.729147e+01
   2.305905e+02   2.457018e+02
   7.972375e+01   2.605815e+02
  -9.171421e+01   1.694614e+02
  -1.740467e+02   7.033008e+01
  -6.520379e+01  -2.158496e+01
   7.758504e+01   2.638291e+01
   6.231962e+01   1.037030e+02
  -1.221601e+02   8.296908e+01
  -1.893551e+02  -8.606328e+00
  -7.578001e+01  -6.901741e+01
   9.223595e+01  -2.199975e+01
   5.561884e+01   6.215691e+01
  -1.087844e+02   1.051864e+02
  -2.822427e+02   4.799676e+01
  -2.627344e+02  -1.516708e+02
  -8.524479e+01  -2.512274e+02
   1.554245e+02  -2.661232e+02
   3.176844e+02  -1.184409e+02
   1.572036e+02   7.930919e+01
  -3.090744e+01   1.057369e+02
  -1.091780e+02  -5.230249e+00
   2.693981e+01  -1.261801e+02
   2.092603e+02  -6.134421e+01
   2.519019e+02   1.005272e+02
   7.195541e+01   2.038566e+02
  -9.885461e+01   1.616589e+02
  -1.509081e+02   2.697497e+01
  -5.227604e+01  -4.095018e+01
   3.771115e+01   1.033294e+01
   3.317585e+01   9.989302e+01
  -9.314925e+01   9.627047e+01
  -1.750728e+02   2.322375e+01
  -2.089892e+02  -1.155429e+02
  -6.008946e+01  -2.085708e+02
   1.722582e+02  -1.986150e+02
   1.909879e+02   3.621093e+00
   7.043653e+01   1.215204e+02
  -1.008187e+02   1.057068e+02
  -9.937274e+01   3.075825e+01
  -1.761297e+01  -7.251035e+00
   1.112873e+01  -1.108422e+01
  -2.036547e+01   2.290073e+00
  -7.374996e+01   7.410237e-01
  -8.328635e+01  -1.147134e+02
  -7.567358e-01  -1.500223e+02
   1.298333e+02  -1.597515e+02
   2.167517e+02  -3.334430e+01
   2.160223e+02   1.584012e+02
   5.326958e+01   2.087923e+02
  -1.084069e+02   1.709938e+02
  -1.551065e+02   2.511055e+01
  -8.164824e+01  -6.488620e+01
  -3.035202e+00  -1.314232e+01
  -5.984122e+01   2.307187e+01
  -7.197954e+01  -1.639706e+00
  -4.050081e+01  -3.419264e+01
   3.594614e+01  -8.403381e+01
   8.430647e+01  -5.401749e+01
   9.939954e+01   1.720835e+01
   4.287886e+00   1.077811e+02
  -1.375229e+02   1.054182e+02
  -1.766223e+02  -4.999250e+01
  -1.039733e+02  -1.846616e+02
   6.288123e+01  -2.805436e+02
   2.709839e+02  -1.264344e+02
   2.670209e+02   7.732842e+01
   1.166834e+02   1.603198e+02
  -4.023702e+01   1.601409e+02
  -8.045623e+01   7.627862e+01
  -7.244496e+01   5.184742e+01
  -6.154752e+01   1.009287e+02
  -7.766159e+01   7.522046e+01
  -1.319724e+02  -8.681226e+00
  -1.318775e+02  -1.444672e+02
  -2.944257e+01  -2.035120e+02
   7.696318e+01  -1.677555e+02
   2.000465e+02  -4.141778e+01
   1.576897e+02   1.102708e+02
   1.428814e+01   1.496656e+02
  -5.566733e+01   8.691531e+01
  -5.829485e+01   1.276629e+01
   5.195615e+00  -2.150501e+01
   1.858456e+01  -2.194421e+01
  -2.895474e+01  -8.490666e+00
  -7.125243e+01  -7.245159e+00
  -4.763168e+01   7.283400e+00
   6.202000e+01  -2.898706e+01
   1.731063e+02  -3.547478e+01
   1.464467e+02   2.596065e+01
   9.866672e+00   8.975892e+01
  -1.090455e+02   8.482160e+01
  -1.324262e+02   3.176635e+01
  -4.670509e+01  -5.093892e+01
   7.425907e+01  -2.407877e+01
   6.885396e+01   1.731508e+01
  -2.366874e+00   4.978778e+01
  -4.410427e+01   4.234040e+01
  -9.482077e+01   2.686478e+00
  -3.989567e+01  -5.708177e+01
  -3.379141e+01  -3.268261e+01
  -5.425209e+01  -6.073756e+00
  -6.768197e+01   5.111743e+00
  -3.539967e+01  -5.071891e+01
  -4.223318e+00  -1.512411e+02
   1.147046e+02  -1.536122e+02
   1.563202e+02  -3.661054e+01
   1.634895e+02   8.289031e+01
   4.356966e+01   1.170237e+02
  -9.367524e+01   6.658617e+01
  -6.294944e+01  -2.013129e+01
   6.763203e+01  -3.765419e+00
   1.419888e+02   4.943652e+01
   6.829343e+01   9.819873e+01
  -1.145536e+02   1.037558e+02
  -1.755537e+02   7.237862e+01
  -1.477559e+02  -6.588646e-01
  -2.503239e+01  -7.554359e+01
   5.440566e+01  -6.256437e+01
   3.660629e+01  -8.800370e+00
  -5.499050e+01   2.640626e+01
  -9.072448e+01  -3.394609e+01
  -2.997226e+01  -1.129397e+02
   1.036346e+02  -1.607526e+02
   1.569695e+02  -6.119693e+01
   1.511085e+02   1.080074e+02
   2.052427e+01   2.163835e+02
  -1.102648e+02   1.504441e+02
  -1.039111e+02  -4.414304e+01
  -4.836185e+01  -1.138359e+02
   2.079086e+01  -1.093896e+02
   3.585114e+01  -2.361479e+01
   4.419150e+01   4.121813e+01
   1.863512e+01   7.370779e+00
  -3.188851e+00  -3.458164e+01
  -1.197668e+01   4.947788e+00
   6.858971e+01   5.887469e+01
   3.717353e+01   1.030826e+02
  -1.451438e+01   1.860648e+01
  -1.482569e+02  -4.686196e+01
  -1.298205e+02  -7.897880e+01
  -1.401308e+01  -4.945749e+01
   1.054024e+02  -4.504346e+01
   9.552945e+01  -3.596193e+01
   3.269640e+01   4.715840e+00
  -5.332969e+01   5.043767e+01
  -1.621016e+01   1.004406e+01
   2.361698e+00  -2.277921e+01
   1.501092e+00  -1.645097e+01
  -6.665537e+01  -1.572403e+00
  -9.146808e+01  -3.035040e+01
  -1.276094e+01  -6.634675e+01
   1.322629e+02  -1.331041e+02
   1.637438e+02  -6.780933e+01
   1.296951e+02   6.881225e+01
   4.927984e+01   1.427526e+02
  -5.741208e+01   1.348057e+02
  -1.388178e+02   7.003476e+01
  -7.539169e+01  -1.052892e+01
  -3.201946e+01  -6.747568e+01
   1.314280e+01  -1.608469e+01
   2.051825e-01   1.311519e+01
  -4.211228e+01  -4.498505e+01
  -4.782116e+00  -7.755106e+01
   3.479245e+00  -9.199017e+01
   7.888692e+01   1.302670e+01
   8.451271e+01   1.150483e+02
   1.157449e+01   9.629316e+01
  -7.561175e+01   2.113616e+01
  -1.173932e+02  -1.060394e+02
  -1.352653e+01  -9.583033e+01
   6.816026e+01  -2.043456e+01
   9.692063e+01   2.659763e+00
   1.923213e+01   5.685726e+01
  -4.331821e+01   4.060543e+01
  -3.352063e+01   1.352221e+01
   4.338015e+01   1.552265e+00
   5.105990e+01   9.573898e+00
   3.928603e+01   4.162756e+01
  -9.015342e+01   7.494994e+01
  -1.204515e+02   4.741968e+01
  -8.583902e+01  -1.831392e+01
   2.326555e+01  -7.884917e+01
   5.810562e+01  -8.536468e+01
   2.514424e+01  -9.283657e+00
  -1.662188e+01   6.405873e+01
  -3.659333e+01   3.500263e+01
  -3.224970e+01  -1.479700e+01
  -2.826361e+01  -2.572248e+01
  -4.035472e+00  -1.796600e+01
   1.015428e+01   2.733689e+01
   2.291617e+01   3.902687e+01
   1.872723e+01   6.246383e+00
   8.433163e+00  -3.679018e+01
   2.642081e+00  -1.823905e+01
   1.410833e+01   4.137539e+01
  -3.056474e+01   5.767668e+01
  -3.921579e+01   9.434917e+00
  -4.600906e+01  -3.815232e+01
   7.981508e+00  -4.907509e+01
   5.633829e+01  -3.975160e+01
   6.933943e+01   3.989855e+01
   2.639357e+01   9.320261e+01
  -6.201248e+01   2.725369e+01
  -6.558020e+01  -1.228987e+00
  -5.416905e+01  -4.591209e+01
   2.560397e+01  -5.307201e+01
   7.573345e+01  -3.322852e+01
   3.983759e+01   5.292454e+00
  -4.126913e+01   1.434861e+00
  -5.471228e+01  -1.645973e+01
   3.083962e+01  -4.182300e+01
   1.002932e+02  -3.749770e+01
