
 $NMID
 id='ANONYMOUS ', fmtdat='(2E16.6)'
 volume=1.0
 tramp=1.0
 $END
  -3.623955e+03   1.117956e+02
  -1.996037e+03  -2.193626e+03
   4.638537e+02  -1.991307e+03
   1.555659e+03  -7.193981e+02
   7.110287e+02   1.408051e+02
  -3.703838e+02   4.128072e+02
  -5.507432e+02  -2.686637e+02
  -1.565388e+01  -7.138386e+02
   5.707619e+02  -6.426821e+02
   7.307257e+02   2.277406e+01
   3.752503e+02   5.976308e+02
  -9.698387e+01   7.530137e+02
  -4.736023e+02   1.833041e+02
  -2.371754e+02  -5.495241e+02
   1.561187e+02  -6.468333e+02
   4.883590e+02  -6.023128e+01
   2.371919e+02   5.713305e+02
  -2.370246e+02   5.831917e+02
  -4.840253e+02   1.132580e+02
  -3.725055e+02  -2.816814e+02
  -2.306363e+01  -3.652714e+02
   1.913152e+02  -2.515466e+02
   1.484808e+02  -2.774730e+01
  -1.066880e+02  -2.963500e+00
  -3.026568e+02  -1.489103e+02
  -7.917987e+01  -3.935213e+02
   4.345683e+02  -2.971876e+02
   7.090198e+02   1.408886e+02
   2.945827e+02   4.849734e+02
  -3.414863e+02   3.779465e+02
  -5.720010e+02  -7.206416e+01
  -2.561424e+02  -3.371802e+02
   2.199503e+02  -4.254855e+02
   4.342113e+02  -1.650232e+02
   3.416369e+02   1.753505e+02
   7.441856e+01   3.682295e+02
  -1.210495e+02   1.936977e+02
  -1.193972e+02  -1.182987e+02
   1.608969e+02  -2.777142e+02
   2.841621e+02   5.044877e+01
   1.160802e+02   5.571242e+02
  -2.695200e+02   4.778064e+02
  -4.936468e+02  -1.364010e+01
  -1.773172e+02  -4.071213e+02
   2.267167e+02  -2.571029e+02
   2.719032e+02   2.542393e+02
  -7.714445e+01   4.481204e+02
  -4.293256e+02   1.326414e+02
  -5.064278e+02  -3.712430e+02
  -1.382329e+02  -4.895022e+02
   3.207576e+02  -3.026626e+02
   5.072489e+02   6.804190e+01
   3.307422e+02   2.874379e+02
  -7.485713e+01   2.898691e+02
  -3.152223e+02   6.577217e+01
  -2.003989e+02  -1.328116e+02
   8.943989e+01  -5.425648e+01
   1.072354e+02   1.314900e+02
  -1.413018e+02   1.341513e+02
  -2.951878e+02  -4.916905e+01
  -1.282373e+02  -2.533982e+02
   1.535324e+02  -2.381919e+02
   2.789063e+02  -8.568635e+01
   2.118198e+02   7.107780e+01
  -1.020590e+01   2.358822e+02
  -2.121451e+02   2.819930e+02
  -3.018729e+02   1.848406e+02
  -2.711746e+02  -1.170568e+02
  -8.734366e+01  -3.677575e+02
   1.036140e+02  -2.889950e+02
   7.849721e+01  -1.093053e+02
   2.060186e+01  -5.552227e+01
   5.366683e+01  -9.853852e+01
   1.690675e+02  -9.738151e+01
   2.441952e+02   6.448589e+01
   1.213290e+02   2.158537e+02
  -8.791131e+01   2.068595e+02
  -1.586766e+02  -2.788136e+01
  -1.297499e+02  -2.142896e+02
  -4.677230e+00  -2.289295e+02
   2.219271e+02  -7.804673e+01
   2.863864e+02   1.492484e+02
   1.270975e+02   3.042854e+02
  -6.692957e+01   2.578722e+02
  -1.875889e+02   1.212240e+02
  -1.372967e+02   3.780019e+01
  -1.170232e+02   3.192325e+01
  -2.495385e+02   4.473161e+01
  -3.676866e+02  -6.948667e+01
  -2.740668e+02  -2.658209e+02
   4.400854e+00  -3.506042e+02
   3.507739e+02  -3.291393e+02
   4.505670e+02  -1.562559e+02
   2.459298e+02   1.081849e+02
   1.392628e+01   2.167054e+02
  -9.185182e+01   1.713335e+02
  -4.021915e+01   2.404454e+01
   1.057552e+02  -7.436719e+01
   1.294551e+02   3.264117e+01
   4.047813e+01   1.870531e+02
  -1.291819e+02   1.370056e+02
  -1.348427e+02  -6.308172e+01
   2.401359e+01  -1.716105e+02
   1.666265e+02  -2.804700e-02
   1.486764e+02   2.019405e+02
  -5.660626e+01   2.984175e+02
  -2.144202e+02   1.569647e+02
  -2.985470e+02  -7.952946e+01
  -2.199211e+02  -2.390172e+02
  -6.614266e+01  -2.288733e+02
   1.117726e+02  -1.343090e+02
   1.556255e+02   9.698981e+00
   3.912649e+01   4.547990e+01
  -1.620395e+01  -4.579042e+01
  -3.594614e+01  -1.083061e+02
   1.019716e+02  -9.414335e+01
   1.521634e+02   1.200794e+01
   4.988144e+01   7.561550e+01
  -8.717052e+01   2.724337e+01
  -4.910378e+01  -5.775094e+01
   1.042986e+02  -7.801309e+01
   2.756421e+02   8.180680e+00
   2.380597e+02   1.187327e+02
   4.276139e+01   2.139966e+02
  -1.882386e+02   2.214915e+02
  -2.760296e+02   1.326833e+02
  -1.565651e+02  -3.738783e+01
   1.004177e+01  -8.480405e+01
   9.990579e+01  -7.818534e+00
  -2.815974e+01   7.891239e+01
  -1.741095e+02   4.338055e+01
  -1.926820e+02  -1.108771e+02
  -5.763179e+01  -1.819508e+02
   8.501274e+01  -1.151826e+02
   1.251211e+02  -3.380189e+01
   4.266901e+01   3.396988e+01
  -3.481691e+01   1.574162e+00
  -3.465614e+01  -8.049343e+01
   7.281313e+01  -9.103429e+01
   1.775195e+02  -9.931975e+00
   1.527995e+02   1.430576e+02
   4.857303e+00   2.222008e+02
  -1.284285e+02   1.526296e+02
  -1.427461e+02  -7.259302e+00
  -2.172538e+01  -1.138947e+02
   3.068107e+01  -1.091640e+02
   5.607117e+01  -2.562390e+01
   2.228000e+01   2.513328e+01
  -1.689890e+01  -3.177584e+00
   2.126556e+01  -3.413958e+01
   6.411041e+01   3.545136e-01
   8.877964e+01   8.228361e+01
   3.963930e+00   1.440045e+02
  -1.219433e+02   1.130938e+02
  -2.009375e+02   3.630958e+01
  -1.334346e+02  -1.467412e+02
  -2.274310e+01  -1.971407e+02
   9.958918e+01  -1.579344e+02
   1.073905e+02  -2.472761e+01
   7.858262e+01   6.554419e+01
   4.916467e+01   2.711121e+01
   4.181103e+01  -5.393705e+01
   8.463115e+01   4.200294e+00
   4.471917e+01   4.847896e+01
  -5.856317e+01   7.615646e+01
  -9.950591e+01   1.428243e+01
  -8.256217e+01  -9.668405e+00
   2.932942e+01  -1.068036e+02
   1.309399e+02  -7.273937e+01
   1.671414e+02   4.236831e+01
   8.207932e+01   1.792269e+02
  -8.864950e+01   2.249733e+02
  -2.286109e+02   6.349018e+01
  -2.424540e+02  -5.277530e+01
  -4.422336e+01  -1.341020e+02
   3.339969e+01  -1.384462e+02
   9.231639e+01  -9.671876e+01
   7.266232e+01  -4.664894e+01
   8.172135e+01  -7.655223e+01
   8.604932e+01  -7.932126e+01
   1.172200e+02  -1.712073e+00
   1.034949e+02   9.745334e+01
   3.070057e+01   2.187210e+02
  -7.059020e+01   1.269372e+02
  -1.455425e+02   1.370508e+01
  -1.423898e+02  -1.022651e+02
  -1.865225e+01  -1.477727e+02
   5.512901e+01  -6.221252e+01
   5.090724e+01   6.347057e+00
  -2.932515e+00   2.708835e+01
   9.066291e+00   3.002800e+01
   2.471603e+01  -4.796647e+00
   5.435289e+01   5.310341e+01
   2.044572e+01   3.455829e+01
  -6.617327e+01   3.489181e+01
  -1.160116e+02   6.545336e+00
  -1.008379e+02  -4.272271e+01
  -3.373576e+00  -7.474319e+01
   1.329458e+02  -5.637533e+01
   1.412854e+02   1.575502e-01
   1.687100e+01   6.388579e+01
  -8.014914e+01   2.082395e+01
  -7.544084e+01  -1.835614e+01
   8.597685e+00  -3.698452e+01
   3.341290e+01  -8.945462e+01
   7.005634e+01  -2.349397e+01
   7.639839e+01   3.720097e+01
   3.115783e+01   3.164462e+01
   5.250303e+01   1.204750e+01
   5.327313e+01  -3.012671e+01
   3.630119e+01   7.668122e+01
  -4.045847e+01   1.358133e+02
  -1.090384e+02   1.242909e+02
  -1.615973e+02   1.522527e+01
  -1.138917e+02  -7.783625e+01
  -1.396905e+01  -7.950708e+01
   7.417475e+01  -5.657289e+01
   2.982059e+01   1.204643e+01
  -4.492566e+01   1.087115e+01
  -1.344483e+02  -4.094886e+01
  -6.278345e+01  -1.117332e+02
   5.815675e+01  -1.326008e+02
   1.505578e+02  -2.790628e+01
   1.396299e+02   3.165893e+01
   1.992280e+00   9.603930e+01
  -5.924445e+01   5.744698e+01
  -5.085631e+01  -1.946786e+00
   2.800346e+01  -3.380073e+01
   8.250293e+01   1.226872e+01
   1.751032e+01   1.022826e+02
  -7.874041e+01   1.465116e+02
  -1.599114e+02   6.178968e+01
  -1.125875e+02  -1.105282e+02
   6.759745e+00  -1.740066e+02
   8.264730e+01  -1.038466e+02
   9.367539e+01   2.098500e+01
   5.492269e+01   1.454142e+02
  -5.514130e+00   9.979816e+01
  -2.425849e+01   2.244669e+01
  -5.572476e+01  -3.692359e+01
  -1.054738e+01   1.126753e+01
  -2.774985e+01  -7.905074e+00
  -1.265261e+01  -2.495526e+01
  -5.452410e+01  -7.280579e+01
  -2.639785e+01  -8.307213e+01
   6.939401e+01  -3.867670e+01
   1.287447e+02   4.435190e+01
   1.099135e+02   6.139383e+01
   2.532839e+00   4.957282e+01
  -7.857940e+01   1.529809e+01
  -9.773038e+01   2.001421e+01
  -1.622450e+01  -1.937009e+01
   4.266116e+01  -2.059903e+01
   4.162470e+01  -1.212549e+01
  -3.065012e+00  -1.524361e+00
   3.001709e+01  -6.351698e-01
   5.315082e+01   1.484086e+01
   9.101959e+01   2.819759e+01
   2.048127e+01   5.356306e+01
  -1.086629e+02   1.220336e+02
  -1.454688e+02   4.891456e+01
  -1.350989e+02  -3.471796e+01
  -2.685307e+01  -1.602862e+02
   1.003445e+02  -1.367025e+02
   8.813820e+01  -4.424723e+01
   8.530722e+01   2.525883e+01
   3.267587e+01   4.576697e+01
   2.579446e+01  -2.041841e+00
   9.238389e-01   6.610443e+00
   3.497656e+01   4.428241e+01
   2.407262e+01   9.776824e+01
  -3.619632e+01   7.139524e+01
  -5.821008e+01  -2.473415e+01
  -6.712616e+01  -7.592626e+01
  -1.383391e+01  -1.143420e+02
   8.717053e+01  -3.798221e+01
   9.483105e+01   4.467998e+01
   5.864277e+01   1.061226e+02
  -7.686370e+01   3.954587e+01
  -7.218943e+01   4.331305e+00
  -4.927075e+01  -5.120731e+01
   1.945392e+01  -5.168608e+01
   1.956766e+01  -3.281972e+01
  -3.656114e+01  -1.407992e+01
  -7.911840e+01   1.033704e+01
  -6.430269e+00  -3.093805e+01
   7.266482e+01  -7.649988e+01
   9.490608e+01  -5.231307e+01
   6.290378e+01   3.909233e+00
  -3.788823e+00   6.546579e+01
  -3.836882e+01   6.918362e+01
  -2.864298e+01  -8.868174e+00
   3.478475e+00  -4.282144e+01
   3.043209e+01  -6.194238e+01
   3.105734e+01   5.627496e-01
   1.701431e+01   3.774094e+01
  -1.735376e+01   3.336709e+01
  -2.351953e+01  -3.822686e+00
  -9.304138e+00  -7.762888e+00
  -1.437712e+01  -2.327314e+01
   1.777650e+01   2.760872e+01
  -2.001766e+01  -2.169685e+01
  -3.956105e+00  -3.349426e+01
   7.858347e+00  -2.081461e+01
   1.615246e+01  -2.862130e+01
   2.242353e+01   4.137235e+01
  -2.083391e+01   5.682570e+01
  -4.718938e+01   1.907813e+01
  -6.187306e+01  -6.718632e+00
  -8.807816e+00  -5.164244e+01
   3.946975e+01  -3.144571e+01
   7.667665e+01   9.638761e+00
   5.135862e+01   3.110242e+01
  -8.666298e+00   4.427451e+01
  -4.893765e+01   3.756574e+01
  -9.148407e+00   1.336548e+01
   7.381226e+00  -1.013950e+01
   5.287207e+01  -2.179209e+00
  -1.610129e+01   2.703047e+01
  -5.573156e+01   2.051410e+01
