
 $NMID
 id='ANONYMOUS ', fmtdat='(2E16.6)'
 volume=1.0
 tramp=1.0
 $END
   3.513260e+03  -2.206263e+02
   2.267340e+03   1.838813e+03
  -2.659048e+02   2.274024e+03
  -1.590216e+03   1.151129e+03
  -1.038571e+03  -9.111603e+01
   1.626331e+02  -3.602142e+02
   4.491651e+02   2.218714e+02
   2.417620e+00   6.637638e+02
  -4.810330e+02   5.961468e+02
  -6.572681e+02   1.680200e+01
  -4.802585e+02  -5.649239e+02
   5.205417e+01  -7.191720e+02
   4.129224e+02  -1.514292e+02
   3.308466e+02   4.866844e+02
  -1.543775e+02   5.716300e+02
  -4.529480e+02   6.896957e+01
  -2.879789e+02  -5.380046e+02
   1.741878e+02  -5.607096e+02
   5.010047e+02  -2.018449e+02
   4.026881e+02   2.148653e+02
   1.087911e+02   3.774994e+02
  -1.517570e+02   2.430500e+02
  -9.057121e+01   7.215170e+01
   1.115148e+02   6.873841e+01
   2.553903e+02   2.262864e+02
  -4.337410e+00   3.393342e+02
  -4.419890e+02   2.358638e+02
  -6.658638e+02  -1.547406e+02
  -3.018040e+02  -4.420782e+02
   3.692909e+02  -3.274295e+02
   6.124809e+02   9.085223e+01
   2.868966e+02   4.100743e+02
  -2.403462e+02   3.883815e+02
  -4.582780e+02   9.899020e+01
  -3.375782e+02  -1.966828e+02
  -6.408154e+01  -3.783142e+02
   8.576107e+01  -2.294054e+02
   5.210649e+01   1.626707e+02
  -1.732748e+02   2.483501e+02
  -2.866729e+02  -8.974708e+01
  -1.081490e+02  -5.490649e+02
   2.391210e+02  -5.263212e+02
   4.430277e+02  -3.182263e+01
   1.762413e+02   3.856268e+02
  -1.635748e+02   2.254264e+02
  -2.966592e+02  -2.527364e+02
   1.197444e+02  -4.557150e+02
   4.599811e+02  -1.197871e+02
   4.842453e+02   3.720823e+02
   1.582917e+02   4.809077e+02
  -3.630095e+02   2.973695e+02
  -5.740612e+02  -3.760232e+01
  -3.518774e+02  -3.118066e+02
   8.754397e+01  -2.924784e+02
   3.764651e+02  -7.909341e+01
   2.200197e+02   1.090210e+02
  -2.613636e+01   5.083889e+01
  -1.123546e+02  -7.656486e+01
   1.290635e+02  -1.199661e+02
   2.366354e+02   4.162742e+01
   1.250197e+02   2.368691e+02
  -1.826832e+02   2.275964e+02
  -3.348241e+02   9.854133e+01
  -2.166354e+02  -6.673864e+01
   2.523480e+01  -2.827198e+02
   2.707638e+02  -2.969255e+02
   3.494779e+02  -1.924316e+02
   2.621180e+02   1.414721e+02
   6.089593e+01   4.137570e+02
  -3.622097e+01   3.361368e+02
  -7.994608e+01   1.222951e+02
  -2.525537e+01   3.023386e+01
  -9.026006e+01   6.924231e+01
  -2.038808e+02   6.178445e+01
  -2.589074e+02  -1.148775e+02
  -1.105168e+02  -2.636549e+02
   6.611442e+01  -2.103034e+02
   2.039170e+02   5.063002e+00
   1.645170e+02   2.318193e+02
  -2.312368e+01   2.675923e+02
  -2.396102e+02   7.267391e+01
  -3.472953e+02  -1.693784e+02
  -1.969693e+02  -3.153787e+02
   8.369219e+01  -2.786011e+02
   2.029782e+02  -1.607141e+02
   1.800703e+02  -2.894818e+01
   1.483216e+02  -5.706789e+01
   2.319379e+02  -4.936588e+01
   3.563725e+02   8.162457e+01
   3.147898e+02   2.792374e+02
  -2.775053e+01   4.374016e+02
  -3.783101e+02   3.789650e+02
  -4.523664e+02   1.646106e+02
  -2.629143e+02  -7.717692e+01
  -6.575970e+01  -2.646554e+02
   1.141308e+02  -1.931519e+02
   3.350547e+01  -3.378797e+01
  -9.051309e+01   8.872008e+01
  -1.533727e+02  -3.266785e+01
  -4.047884e+01  -1.794409e+02
   1.157283e+02  -1.572013e+02
   1.571587e+02   5.430236e+01
  -2.245804e+01   1.613085e+02
  -1.518538e+02   1.800662e+01
  -1.590850e+02  -2.097743e+02
   3.575244e+01  -3.458348e+02
   2.412203e+02  -1.983049e+02
   3.177700e+02   8.381626e+01
   2.368551e+02   2.683949e+02
   5.260324e+01   2.804191e+02
  -1.423674e+02   1.400142e+02
  -1.782979e+02   2.382543e+01
  -2.340222e+01  -3.142073e+01
   5.219089e+01   4.941221e+01
   9.702130e+00   1.046151e+02
  -1.267372e+02   6.260857e+01
  -1.918263e+02  -2.846146e+01
  -3.764294e+01  -5.943599e+01
   7.573027e+01  -4.599021e+00
   5.032627e+01   9.171433e+01
  -1.198128e+02   8.190825e+01
  -2.928183e+02  -3.144972e+01
  -2.710438e+02  -1.563053e+02
  -1.812746e+01  -2.773108e+02
   2.333195e+02  -2.328664e+02
   2.713013e+02  -8.038130e+01
   1.234875e+02   4.077763e+01
  -1.369174e+01   8.276575e+01
  -5.404785e+01   4.463679e+00
   3.662770e+01  -1.003870e+02
   1.925126e+02  -6.141473e+01
   1.981215e+02   1.016961e+02
   4.619473e+01   1.841319e+02
  -7.986118e+01   1.711931e+02
  -1.113303e+02   2.795504e+01
  -5.845263e+01  -2.501333e+01
   2.749882e+01   2.400442e+01
   3.197737e+01   9.534023e+01
  -1.056731e+02   1.208601e+02
  -2.029201e+02   1.653509e+01
  -1.861742e+02  -1.217212e+02
  -3.626233e+00  -1.950150e+02
   1.668500e+02  -1.671588e+02
   1.848579e+02   3.094090e+01
   6.045354e+01   1.226271e+02
  -5.119580e+01   9.422204e+01
  -7.312995e+01   2.237432e+01
   9.712839e+00  -3.803295e+01
   4.773142e+01  -1.748159e+01
  -8.939580e+00   1.949658e+01
  -8.386976e+01  -1.829791e+01
  -9.589657e+01  -1.063510e+02
  -1.892255e+01  -1.855446e+02
   1.546612e+02  -1.706761e+02
   2.443315e+02   1.571649e+01
   1.661363e+02   1.732354e+02
   1.467670e+01   2.523136e+02
  -1.026995e+02   1.779307e+02
  -1.391081e+02   4.709156e+01
  -8.203449e+01  -5.862605e+01
  -3.337302e+01  -1.707143e+01
  -5.699889e+01   3.316367e+01
  -7.495538e+01   4.306278e-01
  -6.363668e+01  -6.844188e+01
   4.239115e+01  -9.389749e+01
   1.248290e+02  -6.080414e+01
   7.540407e+01   4.666928e+01
   7.398992e-01   1.429355e+02
  -1.399714e+02   6.246821e+01
  -2.031469e+02  -6.471327e+01
  -7.930065e+01  -2.074831e+02
   1.124958e+02  -1.942223e+02
   2.630205e+02  -1.003677e+02
   2.615943e+02   9.862318e+01
   9.433780e+01   1.718707e+02
  -4.373444e+01   1.378976e+02
  -9.551420e+01   5.670708e+01
  -4.856176e+01   4.810138e+01
  -7.982940e+01   8.862979e+01
  -1.068372e+02   6.499667e+01
  -1.375315e+02  -1.931968e+01
  -1.176585e+02  -1.487904e+02
  -1.941897e+01  -2.112996e+02
   1.009119e+02  -1.498413e+02
   1.783631e+02  -1.361751e+01
   1.206128e+02   1.132487e+02
  -1.793507e-02   1.436690e+02
  -9.530379e+01   9.672999e+01
  -6.858058e+01  -2.388674e+01
   5.670734e+00  -3.399753e+01
   2.436449e+01  -6.785357e+01
  -1.845204e+01  -1.384674e+01
  -1.116996e+02  -1.754154e+01
  -5.107433e+01  -5.570533e+01
   8.308404e+01  -3.743889e+01
   1.679909e+02   5.281964e+00
   1.437543e+02   4.362446e+01
  -6.484664e+00   7.536112e+01
  -1.112623e+02   9.310365e+01
  -1.273291e+02   2.372810e+01
  -4.993600e+01  -7.025057e+01
   1.358658e+01  -3.310043e+01
   4.762323e+01   2.527202e+01
   3.573437e+01   4.461430e+01
  -4.391801e+01   5.005547e+01
  -5.388973e+01   1.663441e+01
  -3.377093e+01  -4.379189e+01
  -5.348909e+01  -7.059718e+01
  -5.401088e+01  -5.471304e+00
  -6.153242e+01  -1.441898e+01
  -1.049545e+01  -7.930435e+01
   1.764049e+01  -1.448180e+02
   8.838409e+01  -1.592847e+02
   1.755820e+02  -4.520702e+01
   1.185851e+02   9.133307e+01
  -1.423094e+01   1.239179e+02
  -1.048173e+02   7.724956e+01
  -4.795668e+01  -2.990035e+01
   6.313717e+01  -2.915536e+01
   1.394056e+02   3.138637e+01
   7.122075e+01   8.105286e+01
  -9.418861e+01   1.118180e+02
  -1.784604e+02   5.400440e+01
  -1.475906e+02  -4.013604e+01
  -2.422624e+01  -9.100598e+01
   6.523000e+01  -4.835956e+01
   4.060792e+01   6.201841e+00
  -3.621278e+01   2.135276e+01
  -6.651284e+01  -2.888311e+01
  -3.634875e+01  -1.010518e+02
   8.680989e+01  -1.613576e+02
   1.448866e+02  -5.875577e+01
   1.267087e+02   8.691876e+01
   1.996338e+01   1.913564e+02
  -8.819918e+01   1.460189e+02
  -1.090652e+02   5.231328e+00
  -8.206993e+01  -1.140211e+02
   2.135473e+01  -1.073409e+02
   5.078063e+01  -4.625184e+01
   3.527712e+01   5.211635e+01
   3.396056e+01   2.596543e+01
  -2.472901e+00  -2.109561e+01
   9.349320e+00   2.496072e+01
   6.330325e+01   8.716712e+01
   3.293475e+01   9.969863e+01
  -5.116996e+01   4.222703e+01
  -1.447571e+02  -5.699860e+01
  -1.363435e+02  -5.567527e+01
  -2.905149e+01  -5.915743e+01
   9.282124e+01  -3.006720e+00
   7.997004e+01  -1.376510e+01
  -5.893094e-01  -1.758448e+01
  -4.501833e+01   1.886608e+01
  -1.591371e+01   1.171209e+01
  -7.061189e+00  -4.664361e-01
   7.705876e+00  -3.046124e+01
  -6.266525e+01  -7.349695e+00
  -8.375928e+01  -2.477474e+01
  -5.652966e+00  -6.750344e+01
   1.208150e+02  -1.258440e+02
   1.839771e+02  -9.443392e+01
   1.598982e+02   5.651963e+01
   2.814517e+01   1.501843e+02
  -8.808245e+01   1.762057e+02
  -1.187369e+02   3.290344e+01
  -6.434675e+01  -2.957494e+01
  -3.301268e+01  -1.817888e+01
   1.523043e-01  -2.142190e+01
  -7.883454e+00   6.879401e+00
  -3.469099e+01  -6.079712e+01
  -1.076849e+01  -7.405004e+01
   3.188046e+01  -5.782276e+01
   7.800479e+01   2.477202e+01
   8.142997e+01   8.696773e+01
   1.789296e+01   1.076014e+02
  -8.527479e+01   4.299893e+01
  -1.197752e+02  -3.589884e+01
  -5.555189e+01  -1.064379e+02
   7.472878e+01  -6.202431e+01
   9.245726e+01   2.607777e+01
   4.267957e+01   7.562589e+01
  -3.586179e+01   8.061342e+01
  -3.923431e+01   3.559749e+01
   1.012600e+01   1.152974e+00
   5.686783e+01  -4.364912e+00
   2.139327e+01   2.991988e+01
  -9.941146e+01   6.054444e+01
  -1.277409e+02   4.635955e+01
  -7.832453e+01  -8.531972e+00
   2.008921e+01  -7.782153e+01
   4.907776e+01  -8.704861e+01
   6.262017e+01  -2.358870e+01
  -1.162313e+00   5.821951e+01
   1.411074e+00   3.074763e+01
   3.588726e+00  -2.660622e+01
  -4.001503e+01  -6.253940e+01
   6.034800e+00  -3.406245e+01
   1.730916e+01   1.249020e+01
   4.417114e+01   3.327673e+01
   1.264991e+01   5.502007e+00
  -7.697348e+00  -3.203853e+01
   1.969738e+01  -2.797715e+01
   2.852779e+01   3.652071e+01
  -3.178967e+01   4.551131e+01
  -3.282359e+01   2.512719e+01
  -4.330067e+01  -3.583598e+01
   4.913105e+00  -6.420818e+01
   5.131950e+01  -3.137374e+01
   5.977077e+01   2.403873e+01
   2.087953e+01   6.696868e+01
  -6.805750e+01   5.272231e+01
  -9.469519e+01  -2.702589e+01
  -3.882267e+01  -4.250287e+01
   3.754824e+01  -1.802378e+01
   6.275074e+01  -1.595534e+01
   3.068167e+01   1.957057e+01
  -1.426715e+01  -2.471415e+00
  -3.831000e+01  -3.193042e+00
   2.162938e+01  -1.482224e+01
   7.194895e+01  -3.264822e+01
