
 $NMID
 id='ANONYMOUS ', fmtdat='(2E16.6)'
 volume=1.0
 tramp=1.0
 $END
  -3.596334e+03   2.975029e+02
  -2.441575e+03  -2.141094e+03
   2.860282e+02  -2.483700e+03
   1.712984e+03  -1.205836e+03
   1.046024e+03   4.888226e+01
  -3.262193e+02   4.434796e+02
  -5.670555e+02  -1.650815e+02
  -5.913298e+01  -7.384936e+02
   6.262690e+02  -6.762072e+02
   7.500661e+02  -1.940646e+01
   5.313896e+02   7.054148e+02
  -1.003868e+02   7.813166e+02
  -4.502155e+02   1.918910e+02
  -3.528234e+02  -5.779093e+02
   1.758175e+02  -6.519622e+02
   5.442354e+02  -3.735515e+01
   3.028014e+02   5.663812e+02
  -1.653165e+02   6.590855e+02
  -5.296851e+02   2.046822e+02
  -4.543367e+02  -2.568700e+02
  -9.875876e+01  -3.886841e+02
   2.109327e+02  -2.606239e+02
   1.266924e+02  -5.989010e+01
  -1.162076e+02  -2.491119e+01
  -3.427112e+02  -1.522552e+02
  -9.731816e+01  -3.759620e+02
   5.056837e+02  -2.352646e+02
   7.571158e+02   1.519435e+02
   3.010489e+02   4.979703e+02
  -3.804930e+02   3.400838e+02
  -6.576057e+02  -9.657729e+01
  -2.848932e+02  -4.226984e+02
   2.052265e+02  -4.287779e+02
   5.336569e+02  -1.221471e+02
   3.677886e+02   1.848803e+02
   9.320217e+01   4.186429e+02
  -1.113118e+02   2.044583e+02
  -6.517519e+01  -1.524361e+02
   2.036967e+02  -2.415089e+02
   3.217016e+02   8.767426e+01
   1.152935e+02   5.535789e+02
  -2.594333e+02   5.155432e+02
  -4.661510e+02   2.103780e+01
  -2.432576e+02  -4.016344e+02
   1.665756e+02  -2.515298e+02
   2.781526e+02   3.013619e+02
  -8.301046e+01   4.865692e+02
  -5.290694e+02   5.627115e+01
  -5.249943e+02  -3.695330e+02
  -1.414897e+02  -5.250949e+02
   3.457403e+02  -3.044601e+02
   5.717220e+02   4.137678e+01
   3.843597e+02   3.440510e+02
  -1.031125e+02   3.106819e+02
  -3.640263e+02   3.987860e+01
  -2.494681e+02  -1.152775e+02
   2.230182e+01  -6.413640e+01
   1.260185e+02   8.168754e+01
  -1.073567e+02   1.283608e+02
  -2.857326e+02  -5.798516e+01
  -1.258227e+02  -2.568907e+02
   1.594955e+02  -2.374067e+02
   3.803510e+02  -1.223310e+02
   2.371420e+02   8.388503e+01
  -5.781437e+00   3.275750e+02
  -2.754427e+02   3.446531e+02
  -3.487085e+02   1.724814e+02
  -2.424653e+02  -1.691764e+02
  -3.588256e+01  -3.885510e+02
   5.404891e+01  -3.284427e+02
   8.022572e+01  -1.300508e+02
   4.827804e+01  -6.254342e+01
   7.710817e+01  -9.946638e+01
   2.203013e+02  -9.954309e+01
   2.753233e+02   1.098072e+02
   1.317338e+02   2.759687e+02
  -8.830913e+01   1.986459e+02
  -2.152237e+02  -2.298022e+01
  -1.556451e+02  -2.287161e+02
   4.007666e+01  -2.792682e+02
   2.596594e+02  -9.473069e+01
   3.187413e+02   1.670104e+02
   1.934034e+02   3.207787e+02
  -9.259126e+01   2.689551e+02
  -2.068558e+02   1.520941e+02
  -1.927120e+02   3.884566e+01
  -1.288778e+02   2.526315e+01
  -2.162956e+02   5.968895e+01
  -3.829497e+02  -9.149191e+01
  -3.161239e+02  -2.721515e+02
  -2.721731e+00  -4.352436e+02
   3.545400e+02  -4.088099e+02
   4.890791e+02  -1.897114e+02
   3.074073e+02   8.150050e+01
   3.314260e+01   2.782188e+02
  -1.080705e+02   2.094034e+02
  -4.993787e+01   4.362149e+01
   1.094798e+02  -5.748764e+01
   1.703892e+02   4.978181e+00
   4.963004e+01   1.660443e+02
  -1.328505e+02   1.466127e+02
  -1.306981e+02  -4.521514e+01
   1.750259e+01  -1.437540e+02
   1.486159e+02  -1.688129e+01
   1.606826e+02   1.837375e+02
  -2.667977e+01   3.512903e+02
  -2.260196e+02   1.786706e+02
  -3.301377e+02  -6.892735e+01
  -2.614363e+02  -2.623487e+02
  -3.709673e+01  -2.738514e+02
   1.421665e+02  -1.592750e+02
   1.598573e+02  -1.748076e+01
   4.057153e+01   4.142921e+01
  -5.880838e+01  -4.114177e+01
  -3.375861e+01  -1.241441e+02
   1.394607e+02  -7.253895e+01
   1.665390e+02   1.207069e+01
   2.484951e+01   9.515897e+01
  -8.089158e+01  -1.532533e+01
  -4.768378e+01  -8.695560e+01
   1.371899e+02  -8.338220e+01
   3.021249e+02   5.837583e+00
   2.265456e+02   1.396464e+02
   4.921360e+01   3.039268e+02
  -2.168407e+02   2.639733e+02
  -2.682287e+02   9.780325e+01
  -1.650558e+02  -5.363288e+01
   7.197017e+00  -1.015010e+02
   8.161562e+01  -9.623577e+00
  -3.139025e+01   1.117498e+02
  -2.048371e+02   9.129088e+01
  -1.871971e+02  -1.120802e+02
  -5.277407e+01  -1.760170e+02
   7.325471e+01  -1.593836e+02
   1.203248e+02  -2.087994e+01
   4.377009e+01   3.860316e+01
  -2.106406e+01  -2.962902e+01
  -3.103853e+01  -1.254537e+02
   9.092723e+01  -1.211641e+02
   2.266325e+02   2.627384e+00
   2.016549e+02   9.752091e+01
   3.771340e+00   1.772540e+02
  -1.749242e+02   1.435066e+02
  -1.819217e+02   2.976401e+01
  -5.415318e+01  -1.396589e+02
   6.645676e+01  -1.279974e+02
   6.746662e+01  -2.496593e+01
  -9.033499e+00   2.879560e+01
  -2.889232e+01   1.606180e+01
  -1.268555e+01  -1.961822e+01
   7.397859e+01  -1.514625e+01
   1.054561e+02   8.554607e+01
   1.762503e+01   1.937481e+02
  -1.446303e+02   1.752230e+02
  -2.174739e+02   1.649889e+01
  -1.913049e+02  -1.506957e+02
  -3.781837e+01  -2.405411e+02
   9.724592e+01  -1.586784e+02
   1.268257e+02  -2.621569e+01
   6.262739e+01   8.285366e+01
   4.559307e+01   5.436711e+01
   5.344533e+01  -1.520735e+01
   8.508013e+01  -2.142736e+01
   6.506848e+01   4.063405e+01
  -4.110423e+01   9.684917e+01
  -1.256792e+02   7.926649e+01
  -9.076226e+01  -5.324264e+01
   2.161117e+01  -1.231587e+02
   1.359255e+02  -7.384997e+01
   1.815287e+02   5.631153e+01
   6.312770e+01   2.160771e+02
  -1.122128e+02   2.076438e+02
  -2.840102e+02   8.954330e+01
  -2.437361e+02  -1.113996e+02
  -1.218934e+02  -1.707562e+02
   3.883628e+01  -1.315100e+02
   7.372142e+01  -7.266267e+01
   5.567370e+01  -5.917071e+01
   7.466209e+01  -8.133182e+01
   6.593223e+01  -7.565199e+01
   1.315247e+02   2.956146e+01
   1.272797e+02   1.597109e+02
   4.683324e+01   2.127676e+02
  -8.845164e+01   1.761766e+02
  -1.847487e+02   1.777433e+00
  -1.291324e+02  -1.499191e+02
  -9.884411e-01  -1.383518e+02
   5.758888e+01  -8.966691e+01
   6.673754e+01   7.740983e+00
   9.048415e+00   5.874109e+01
  -1.533359e+01   6.536742e+01
   2.532935e+01   7.761910e+00
   8.128587e+01   2.332189e+01
   5.769824e+01   3.245584e+01
  -7.249087e+01   3.350947e+01
  -1.624083e+02  -5.202627e+00
  -1.525533e+02  -4.541900e+01
   2.467853e+01  -1.223171e+02
   1.231154e+02  -7.908006e+01
   1.442916e+02  -1.330554e+01
   6.122856e+01   6.235323e+01
  -5.364626e+01   2.338994e+01
  -5.994897e+01  -1.863457e+01
   5.397416e+00  -6.444053e+01
   4.621299e+01  -5.547503e+01
   7.294353e+01  -2.660466e+01
   4.280667e+01   5.518281e+01
   3.470328e+01   5.137678e+01
   4.483450e+01   5.505404e+00
   6.887825e+01  -1.342241e+01
   3.716239e+01   6.375974e+01
  -3.051476e+01   1.474703e+02
  -1.014692e+02   1.574500e+02
  -1.921795e+02   4.031379e+01
  -1.263941e+02  -1.142863e+02
   2.043057e+01  -1.243870e+02
   8.603991e+01  -5.035723e+01
   4.797178e+01   4.088464e+01
  -5.689432e+01   2.205827e+01
  -1.316702e+02  -3.681343e+01
  -8.284329e+01  -1.102526e+02
   8.711517e+01  -1.246816e+02
   1.653977e+02  -5.585397e+01
   1.515307e+02   3.067156e+01
   4.091076e+01   1.090672e+02
  -6.984271e+01   5.912012e+01
  -6.389824e+01   3.884745e+01
   4.183999e+01  -3.495754e+01
   8.324154e+01   6.057947e+01
   1.754758e+01   1.063072e+02
  -4.761125e+01   1.628356e+02
  -1.821881e+02   8.179091e+01
  -1.514964e+02  -1.086997e+02
  -4.877162e+01  -1.844422e+02
   9.261476e+01  -1.347613e+02
   1.013838e+02   3.428264e+01
   5.770610e+01   1.037056e+02
  -9.508049e+00   7.144244e+01
  -5.593675e+01   3.701009e+01
  -9.528624e+01  -1.971599e+01
   1.102750e+00  -1.486322e+01
   1.168394e+01   4.465297e+00
  -5.039705e+01  -1.991402e+01
  -2.761558e+01  -8.195150e+01
  -4.921721e+01  -1.226072e+02
   3.674464e+01  -4.884788e+01
   1.334500e+02   2.672484e+01
   1.395080e+02   7.399359e+01
   1.068849e+01   5.016259e+01
  -8.617632e+01  -1.293266e+00
  -8.031378e+01   2.494040e+01
  -8.332299e+00  -5.193768e+00
   9.767955e+00  -5.211737e+01
   1.665758e+01  -2.189663e+01
  -1.603880e+00  -2.258107e+01
  -2.396407e+00  -4.277424e+00
   7.779018e+01  -2.085340e+01
   7.967093e+01   3.733138e+01
   1.457749e+01   9.301728e+01
  -1.395016e+02   1.207516e+02
  -2.257282e+02   7.056028e+01
  -1.475020e+02  -6.837427e+01
  -1.318050e-01  -1.672456e+02
   7.800677e+01  -1.462479e+02
   1.020715e+02  -5.340037e+01
   7.876955e+01   1.298603e+01
   1.918541e+01   5.007775e+01
   3.043282e+00   7.253004e+00
   3.994224e+01   2.541115e+01
   4.297681e+01   5.286422e+01
   9.185637e+00   7.147446e+01
  -1.152219e+01   8.150493e+01
  -7.201937e+01  -1.631689e+01
  -7.421262e+01  -9.973691e+01
   2.623660e+00  -1.240923e+02
   1.073545e+02  -3.846334e+01
   8.957114e+01   5.059038e+01
   6.644612e+01   9.235610e+01
  -6.601324e+01   9.392128e+01
  -9.668589e+01  -2.263678e+01
  -5.761348e+01  -5.326354e+01
   3.067612e+01  -5.727020e+01
   4.695335e+01  -2.362267e+01
  -7.803821e-01  -1.181393e+00
  -3.961448e+01   1.598775e+01
  -3.363835e+01  -2.789185e+01
   8.719229e+01  -8.045602e+01
   1.365231e+02  -5.163675e+01
   8.750296e+01  -9.947606e+00
  -1.322971e+01   9.346126e+01
  -9.761181e+01   8.427955e+01
  -5.774527e+01   3.086887e+01
   1.020210e+01  -8.324384e+01
   2.122122e+01  -3.566478e+01
   3.890307e+01  -2.522048e+00
   3.617764e+01   6.104574e+01
   4.188598e+00   4.403681e+01
  -3.237434e+01  -1.273717e+01
  -4.553953e+01  -5.463069e+01
  -5.090055e+00   7.241422e+00
  -3.309659e-01   6.253801e+00
  -7.013553e+00  -1.303861e+00
   7.750519e+00  -1.903961e+01
   7.161200e+00  -2.897698e+01
   3.038527e+01  -3.511222e+01
   5.652373e+01   2.787569e+01
   1.466443e+01   5.422113e+01
  -4.005095e+01   1.061235e+01
  -5.716810e+01  -3.532557e+01
  -3.136242e+01  -7.002153e+01
   3.132540e+01  -5.083092e+01
   9.891202e+01   3.562748e+01
   3.833599e+01   4.130448e+01
  -1.666236e+01   3.232385e+01
  -5.945187e+01  -3.034533e+00
  -2.854084e+01   3.977148e-03
   1.847348e+01  -2.339193e+00
   4.019792e+01   1.483252e+01
  -5.258172e+01   2.468850e+01
  -9.953997e+01   3.684267e+01
