
 $NMID
 id='ANONYMOUS ', fmtdat='(2E16.6)'
 volume=1.0
 tramp=1.0
 $END
  -3.604482e+03  -1.230470e+01
  -2.232196e+03  -2.109583e+03
   1.784757e+02  -2.237042e+03
   1.550921e+03  -9.959394e+02
   1.033452e+03   2.213509e+02
  -2.803660e+02   4.989263e+02
  -6.631996e+02  -2.948377e+02
  -6.568751e+01  -7.854343e+02
   7.061587e+02  -7.687514e+02
   8.047271e+02   2.271954e+00
   4.460067e+02   6.293544e+02
  -1.779328e+02   7.962315e+02
  -4.374314e+02   1.913712e+02
  -3.183981e+02  -6.029776e+02
   1.885723e+02  -6.457445e+02
   4.880376e+02  -5.718556e+01
   3.082449e+02   6.194350e+02
  -2.592418e+02   6.374604e+02
  -5.376282e+02   1.830290e+02
  -4.185143e+02  -2.501649e+02
  -9.198422e+01  -3.766750e+02
   1.839902e+02  -2.584728e+02
   1.197989e+02  -4.105381e+01
  -8.955973e+01  -5.521458e+01
  -2.980424e+02  -1.729830e+02
  -7.182781e+01  -4.241372e+02
   4.618701e+02  -2.131538e+02
   7.411685e+02   9.811316e+01
   3.301999e+02   4.451490e+02
  -2.793971e+02   2.931355e+02
  -5.905451e+02  -3.033948e+01
  -2.485093e+02  -3.623283e+02
   2.263194e+02  -3.891709e+02
   4.765782e+02  -1.569658e+02
   3.448666e+02   1.842114e+02
   8.565093e+01   3.675116e+02
  -9.863835e+01   2.468843e+02
  -1.025368e+02  -9.300907e+01
   1.580038e+02  -2.726937e+02
   2.895147e+02   5.941833e+01
   1.274596e+02   5.545560e+02
  -1.857904e+02   5.099820e+02
  -4.247455e+02   4.744906e+01
  -2.122091e+02  -3.586229e+02
   1.977252e+02  -2.593183e+02
   2.475386e+02   2.600609e+02
  -8.451807e+01   4.280014e+02
  -4.792032e+02   9.536835e+01
  -5.256222e+02  -3.812320e+02
  -1.273268e+02  -5.537872e+02
   3.360598e+02  -3.098302e+02
   5.520221e+02   7.199382e+01
   3.552988e+02   2.937333e+02
  -9.168948e+01   2.794791e+02
  -3.401091e+02   9.329807e+01
  -2.021899e+02  -1.174674e+02
   5.317863e+01  -6.587779e+01
   1.040606e+02   8.404909e+01
  -1.265896e+02   1.344124e+02
  -2.366495e+02  -7.087712e+01
  -1.690291e+02  -2.256386e+02
   1.661049e+02  -2.578373e+02
   3.193328e+02  -1.238146e+02
   2.417317e+02   6.424578e+01
  -5.066822e+00   2.676710e+02
  -2.487581e+02   3.152795e+02
  -3.392746e+02   1.765112e+02
  -2.536596e+02  -1.108183e+02
  -9.696460e+01  -3.910631e+02
   8.814065e+01  -3.196708e+02
   3.518843e+01  -1.637172e+02
   2.839157e+01  -7.331454e+01
   8.707703e+01  -7.740800e+01
   2.250999e+02  -7.036117e+01
   2.665924e+02   1.086887e+02
   1.107202e+02   2.403698e+02
  -8.823114e+01   1.929410e+02
  -1.949995e+02  -1.260988e+01
  -1.329879e+02  -2.325448e+02
   9.936186e+00  -2.571138e+02
   2.480662e+02  -1.027533e+02
   3.331163e+02   1.856668e+02
   1.590546e+02   2.955473e+02
  -8.340234e+01   2.736853e+02
  -1.951094e+02   1.276432e+02
  -1.518096e+02   7.358190e+01
  -1.400920e+02   4.234901e+01
  -2.550156e+02   2.053781e+01
  -3.714536e+02  -9.013634e+01
  -3.123325e+02  -2.840641e+02
   7.213798e+00  -4.175181e+02
   3.581642e+02  -3.703378e+02
   4.627506e+02  -1.834594e+02
   2.785707e+02   1.143821e+02
   2.261618e+01   2.473373e+02
  -1.209215e+02   1.921691e+02
  -4.639717e+01   3.732406e+01
   1.120673e+02  -4.900304e+01
   1.247752e+02   5.826835e+00
   1.260103e+01   1.774801e+02
  -1.498398e+02   1.114820e+02
  -1.392092e+02  -6.090643e+01
   1.462624e+01  -1.431791e+02
   1.644893e+02   1.058010e+01
   1.490984e+02   2.413288e+02
  -4.667890e+01   3.383486e+02
  -2.221765e+02   2.169399e+02
  -3.454594e+02  -6.203068e+01
  -2.687987e+02  -2.710600e+02
  -7.149904e+01  -2.655971e+02
   9.866733e+01  -1.326218e+02
   1.652334e+02   2.388033e+01
   2.290130e+01   6.246830e+01
  -6.229145e+01  -3.753728e+01
  -1.991757e+01  -1.194852e+02
   9.295532e+01  -4.516307e+01
   1.386076e+02   3.683313e+01
   6.526947e+01   3.626430e+01
  -6.884657e+01   4.375521e+00
  -4.754254e+01  -7.397757e+01
   1.518044e+02  -1.070577e+02
   2.820601e+02  -1.230882e+00
   2.720504e+02   1.639658e+02
   5.475742e+01   2.552631e+02
  -1.954690e+02   2.332793e+02
  -2.652358e+02   1.278298e+02
  -1.548101e+02  -2.496664e+01
   1.449614e+01  -6.794401e+01
   6.931661e+01   1.338246e+01
  -5.014100e+01   9.842620e+01
  -1.660523e+02   1.652743e+01
  -1.875680e+02  -1.108820e+02
  -4.514784e+01  -2.035971e+02
   9.432692e+01  -1.518486e+02
   1.233523e+02  -3.045904e+01
   6.109264e+01   4.118287e+01
  -4.370807e+01  -4.400736e-01
  -1.698233e+01  -9.783717e+01
   1.173487e+02  -9.800897e+01
   1.921662e+02  -4.854432e+01
   1.762399e+02   1.283336e+02
   4.623077e+01   2.082016e+02
  -1.749585e+02   1.397963e+02
  -1.788430e+02   9.401994e+00
  -6.089441e+01  -9.416256e+01
   6.677853e+01  -9.447758e+01
   7.403653e+01   8.867801e+00
  -1.417293e+01   3.533645e+01
  -4.783753e+01  -8.621121e+00
   1.578224e+00  -2.098571e+01
   7.344781e+01  -1.530026e+00
   1.088764e+02   8.097925e+01
   3.651295e+01   1.653199e+02
  -1.052467e+02   1.686358e+02
  -2.279181e+02   3.353341e+01
  -1.825287e+02  -1.624827e+02
  -5.232072e+01  -2.379130e+02
   1.261479e+02  -1.523297e+02
   1.175487e+02  -4.495142e+00
   6.573347e+01   6.970509e+01
   1.612639e+01   5.176938e+01
   6.465895e+01  -3.182892e+01
   8.696435e+01   3.646215e+00
   4.403414e+01   6.868595e+01
  -2.068199e+01   9.329485e+01
  -1.088986e+02   6.868536e+01
  -9.060955e+01  -4.048091e+01
  -1.322791e+01  -1.230486e+02
   1.585496e+02  -1.016256e+02
   2.086131e+02   6.990981e+01
   5.430484e+01   1.840485e+02
  -1.295559e+02   2.281563e+02
  -2.523403e+02   6.946230e+01
  -2.517789e+02  -9.138958e+01
  -8.614299e+01  -1.879516e+02
   2.560183e+01  -1.276926e+02
   7.089646e+01  -6.828650e+01
   6.476627e+01  -8.409652e+01
   5.701251e+01  -9.953627e+01
   9.262293e+01  -7.439355e+01
   1.253931e+02   3.188846e+01
   1.172840e+02   1.459317e+02
   4.134236e+01   2.053945e+02
  -7.436110e+01   1.728117e+02
  -1.677732e+02   3.613044e+01
  -1.356375e+02  -1.120671e+02
  -1.575276e+01  -1.390926e+02
   5.203340e+01  -7.544320e+01
   3.956745e+01   1.848217e+00
   1.382936e-01   2.641535e+01
   6.128041e+00   1.768944e+01
   2.846594e+01   2.893561e+00
   8.083627e+01   4.221386e+01
   5.726509e+01   3.731565e+01
  -6.401671e+01   5.220589e+01
  -1.679809e+02  -1.514722e+00
  -1.066838e+02  -5.486787e+01
   1.556205e+01  -8.175460e+01
   1.205691e+02  -7.845471e+01
   1.549507e+02  -2.337000e+01
   5.493346e+01   4.767979e+01
  -8.728780e+01   5.061654e+01
  -8.453749e+01  -2.653559e+01
   2.064772e+00  -6.317654e+01
   5.284760e+01  -7.365078e+01
   5.329465e+01  -9.995537e+00
   5.202238e+01   4.439471e+01
   4.259653e+01   3.146827e+01
   5.749196e+01  -1.304193e+01
   6.294578e+01   9.232310e+00
   1.566147e+01   6.701643e+01
  -2.360552e+01   1.519153e+02
  -1.360861e+02   1.420943e+02
  -1.553012e+02   4.463979e+00
  -1.466859e+02  -8.607418e+01
   4.180315e-01  -1.121066e+02
   9.553579e+01  -5.016182e+01
   4.510727e+01   5.050852e+00
  -7.803106e+01   4.129116e+01
  -1.412490e+02  -5.317109e+01
  -8.846017e+01  -1.100907e+02
   6.379315e+01  -1.221313e+02
   1.804763e+02  -4.076677e+01
   1.445583e+02   4.170799e+01
   3.303533e+01   9.867603e+01
  -6.064652e+01   7.472554e+01
  -5.506500e+01  -2.204807e+01
   3.515967e+01  -4.582043e+01
   9.093544e+01   4.160083e+00
   3.805428e+01   1.288633e+02
  -8.857182e+01   1.703965e+02
  -1.703961e+02   6.014223e+01
  -1.533807e+02  -9.069961e+01
  -1.481743e+01  -1.769192e+02
   6.607908e+01  -1.533994e+02
   1.003605e+02   6.622116e+00
   3.540600e+01   1.064456e+02
  -2.291486e+00   1.055499e+02
  -6.161123e+01   4.291523e+00
  -3.171302e+01  -2.125781e+01
  -5.141885e+01  -1.882705e+01
   4.971387e-01   2.211997e+01
   3.259184e+00  -1.767559e+01
  -4.597797e+01  -8.456266e+01
  -1.702890e+01  -1.146481e+02
   8.270512e+01  -5.573027e+01
   1.333868e+02   4.346297e+01
   1.106410e+02   7.753667e+01
  -3.268130e+00   2.908625e+01
  -7.256420e+01   1.684303e+01
  -8.307584e+01   3.252814e+00
  -2.350938e+01  -1.168265e+01
  -5.004422e+00  -5.744783e+00
   2.365941e+01  -6.275495e+00
  -2.661119e+01   7.907652e+00
   5.666605e+00  -1.069599e+01
   1.158968e+02   2.861093e-01
   1.122254e+02   5.740071e+01
   2.216815e+01   6.719660e+01
  -1.234024e+02   8.830045e+01
  -1.418059e+02   7.066468e+01
  -1.356982e+02  -4.733385e+01
  -2.118604e+01  -1.390604e+02
   7.836677e+01  -1.446683e+02
   1.080389e+02  -5.063839e+01
   8.358807e+01   6.499282e+00
   4.287560e+01   3.059374e+01
   2.256200e+01   1.409642e+01
   1.545943e+01  -7.749929e+00
   4.060327e+01   2.774552e+01
   6.376074e+00   1.077162e+02
  -3.504818e+01   4.452865e+01
  -6.855307e+01  -1.544009e+01
  -8.969284e+01  -9.313602e+01
  -6.898398e+00  -1.078565e+02
   8.764697e+01  -4.824810e+01
   8.469721e+01   6.288080e+01
   3.116190e+01   7.656906e+01
  -6.913714e+01   4.934840e+01
  -8.961245e+01  -1.637592e+01
  -1.360893e+01  -5.326994e+01
   2.786603e+01  -5.725270e+01
   2.280545e+01  -3.479435e+01
  -3.536858e+01   2.384444e+00
  -6.705622e+01  -2.427989e+00
  -3.262885e+01  -3.616537e+01
   5.384292e+01  -4.151927e+01
   1.169216e+02  -4.602521e+01
   7.481740e+01  -8.135706e+00
  -1.237862e+01   5.840083e+01
  -7.854442e+01   6.630811e+01
  -2.470893e+01  -1.516968e+01
  -1.415700e+01  -3.097938e+01
   5.142865e+00  -4.523151e+01
   5.230503e+01  -1.204556e+01
   4.945711e+01   4.576565e+01
  -9.936036e+00   1.090748e+01
  -2.920663e+01   2.819311e+01
  -4.983783e+01  -3.186073e+01
  -9.867318e+00  -1.695203e+01
  -1.934173e+01   1.407192e+01
   9.643633e+00  -7.210953e+00
  -5.328462e+00  -3.264007e+01
   2.004457e+01  -5.740346e+01
   6.097992e+01  -4.257625e+01
   4.772418e+01   3.610977e+01
   1.399886e+01   5.537135e+01
  -6.148879e+01   3.492480e+01
  -4.657679e+01  -2.899312e+01
  -1.126052e+01  -3.871119e+01
   7.198139e+01  -1.360155e+01
   7.198437e+01  -9.707280e+00
   4.264302e+01   6.896177e+01
  -2.433932e+01   5.381029e+01
  -6.967556e+01   2.359392e+01
  -1.414056e+01   4.942602e+00
   2.825041e+01   4.298486e+00
   5.783244e+01  -9.840250e+00
  -6.044389e+01   4.012794e+01
  -5.482807e+01  -3.932770e+00
