
 $NMID
 id='ANONYMOUS ', fmtdat='(2E16.6)'
 volume=1.0
 tramp=1.0
 $END
  -4.080203e+03   1.060710e+02
  -2.384882e+03  -2.112441e+03
   7.230265e+02  -2.742136e+03
   1.930204e+03  -9.187512e+02
   9.979308e+02   7.225965e+02
  -4.773563e+02   4.566633e+02
  -8.452962e+02  -4.346909e+02
   1.291692e+01  -9.254549e+02
   7.983610e+02  -7.469477e+02
   8.799325e+02   5.389357e+01
   5.392147e+02   7.623952e+02
  -2.274917e+02   8.299933e+02
  -6.083290e+02   1.310420e+02
  -4.082450e+02  -6.329774e+02
   2.484433e+02  -6.749674e+02
   6.047319e+02  -4.631301e+00
   2.912374e+02   6.251691e+02
  -3.083094e+02   6.376920e+02
  -5.713783e+02   1.076677e+02
  -3.993828e+02  -4.024269e+02
  -4.042704e+01  -4.731156e+02
   2.037939e+02  -2.470451e+02
   2.033753e+02  -2.483598e+01
  -1.080814e+02   1.183079e+02
  -3.947122e+02  -1.089955e+02
  -1.610091e+02  -3.912594e+02
   4.574497e+02  -4.255926e+02
   8.259207e+02   8.807482e+01
   4.231610e+02   5.204400e+02
  -3.672065e+02   5.479431e+02
  -7.386314e+02  -4.425031e+01
  -3.200892e+02  -4.738718e+02
   2.688364e+02  -5.250540e+02
   6.040358e+02  -2.191562e+02
   4.349624e+02   2.380412e+02
   4.829124e+01   4.526879e+02
  -2.286143e+02   2.582524e+02
  -1.623792e+02  -2.644439e+02
   2.224848e+02  -4.292053e+02
   4.468083e+02   3.452013e+01
   1.948049e+02   6.461731e+02
  -2.961381e+02   6.488069e+02
  -5.468939e+02  -1.293011e+01
  -2.146830e+02  -4.973897e+02
   2.932471e+02  -2.844740e+02
   3.624610e+02   3.406387e+02
  -7.984636e+01   5.471719e+02
  -5.418985e+02   1.299819e+02
  -5.713203e+02  -3.535970e+02
  -1.413938e+02  -5.711384e+02
   3.445872e+02  -3.198748e+02
   6.213609e+02   5.891555e+01
   3.663341e+02   4.119511e+02
  -1.828331e+02   3.534852e+02
  -4.311081e+02   5.278317e+01
  -2.686984e+02  -2.088860e+02
   1.298992e+02  -1.272780e+02
   1.541267e+02   8.646479e+01
  -1.601717e+02   2.093650e+02
  -3.102538e+02  -5.887679e+01
  -1.406700e+02  -3.001930e+02
   2.009057e+02  -2.683668e+02
   2.836158e+02  -5.714704e+01
   1.901579e+02   9.005705e+01
  -4.288381e+01   2.196160e+02
  -2.125781e+02   3.197390e+02
  -3.634593e+02   2.149904e+02
  -2.982089e+02  -1.394934e+02
  -3.599388e+01  -3.984645e+02
   6.993529e+01  -3.729103e+02
   1.219531e+02  -1.151024e+02
   3.881631e+01   1.039781e+01
   1.855346e+01  -1.043366e+02
   1.564384e+02  -1.325511e+02
   2.702204e+02   4.870972e+01
   1.494753e+02   2.575760e+02
  -5.716632e+01   2.760113e+02
  -2.465262e+02  -1.237628e+01
  -1.991663e+02  -2.354206e+02
   8.206566e+00  -3.146542e+02
   2.839375e+02  -1.303838e+02
   3.617135e+02   1.569915e+02
   1.730374e+02   3.476326e+02
  -8.897384e+01   2.938434e+02
  -2.298012e+02   1.063080e+02
  -1.348353e+02  -1.497641e+01
  -1.010419e+02   1.634303e+01
  -2.382001e+02   8.757498e+01
  -3.836656e+02  -5.794192e+01
  -3.407110e+02  -2.793787e+02
  -2.626408e+01  -4.248007e+02
   3.341913e+02  -3.875924e+02
   4.895601e+02  -1.767588e+02
   3.016049e+02   1.118226e+02
   5.754385e+01   2.769466e+02
  -1.313065e+02   2.631033e+02
  -8.200349e+01   6.905892e+00
   1.060062e+02  -6.364815e+01
   1.647124e+02   5.376308e+00
   1.877714e+01   1.788251e+02
  -1.475978e+02   1.217851e+02
  -2.129801e+02  -6.419857e+01
  -2.534475e+00  -1.935831e+02
   1.856822e+02  -4.839616e+01
   1.685014e+02   2.306060e+02
  -2.032342e+01   3.537253e+02
  -2.341824e+02   1.965429e+02
  -3.350922e+02  -6.970014e+01
  -2.587086e+02  -2.288270e+02
  -8.588027e+01  -2.725029e+02
   1.300899e+02  -1.470533e+02
   1.739449e+02  -1.704654e+01
   5.890066e+01   3.678712e+01
  -3.355437e+01   5.531960e+00
  -2.835032e+01  -1.088400e+02
   9.507432e+01  -9.568702e+01
   1.809079e+02   2.424022e+01
   4.665414e+01   7.743218e+01
  -9.205225e+01   2.642979e+00
  -6.128641e+01  -4.150745e+01
   1.282458e+02  -9.951946e+01
   2.687383e+02   1.237498e+01
   2.617614e+02   1.301981e+02
   6.670684e+01   2.486230e+02
  -1.691144e+02   2.512055e+02
  -2.468206e+02   1.343143e+02
  -1.616819e+02  -5.620662e+01
  -2.895807e-01  -9.106523e+01
   6.516458e+01   1.725606e+00
   6.701642e+00   1.063636e+02
  -1.784917e+02   7.844337e+01
  -1.983563e+02  -8.944496e+01
  -7.074978e+01  -1.906367e+02
   1.031254e+02  -1.596065e+02
   1.374027e+02  -5.124870e+01
   4.876516e+01   6.560256e+01
  -1.874980e+01   1.839729e+01
  -3.187701e+01  -8.238398e+01
   6.646091e+01  -9.123807e+01
   2.036791e+02  -6.348644e+01
   1.928743e+02   1.232154e+02
   4.290168e+01   2.170199e+02
  -1.448874e+02   1.993161e+02
  -2.004942e+02   3.979097e+00
  -5.850978e+01  -1.260958e+02
   6.227746e+01  -1.246430e+02
   1.180391e+02  -2.704183e+01
   3.567107e+01   2.585342e+01
  -2.241480e+01   2.911807e+01
   3.078089e+01  -1.181862e+01
   6.707138e+01   1.127443e+01
   1.169442e+02   6.990343e+01
   2.432545e+01   1.719117e+02
  -1.039214e+02   1.405866e+02
  -2.328901e+02   2.263657e+01
  -1.924951e+02  -1.355904e+02
  -4.303952e+01  -2.175621e+02
   1.248260e+02  -1.630754e+02
   1.560235e+02  -5.035068e+01
   6.650227e+01   6.329686e+01
   1.021197e+01   3.259372e+01
   5.845535e+01  -3.046130e+01
   8.142186e+01  -3.155059e+01
   4.413543e+01   3.865770e+01
  -4.872369e+01   1.029522e+02
  -1.170268e+02   5.093390e+01
  -6.685914e+01  -1.354566e+01
   9.409262e+00  -9.622974e+01
   1.483102e+02  -7.591505e+01
   1.789777e+02   5.034748e+01
   9.957498e+01   2.079967e+02
  -1.196024e+02   2.111513e+02
  -2.618698e+02   6.599506e+01
  -2.358490e+02  -8.617716e+01
  -1.051586e+02  -1.941001e+02
   3.836642e+01  -1.279755e+02
   1.005307e+02  -8.242873e+01
   8.778535e+01  -6.184338e+01
   7.227108e+01  -9.062569e+01
   1.265193e+02  -6.552489e+01
   1.105566e+02   3.479207e+01
   1.061028e+02   1.096459e+02
   3.686261e+01   1.965129e+02
  -7.780333e+01   1.568995e+02
  -1.872149e+02  -7.755641e+00
  -1.233290e+02  -1.278466e+02
   5.428889e+00  -1.447104e+02
   6.982097e+01  -6.549834e+01
   5.261413e+01   1.169134e+01
   1.911828e+01   6.289549e+01
  -1.087097e+01   4.752729e+01
   1.060942e+01   4.199659e+01
   6.554827e+01   2.933416e+01
   3.490296e+01   2.015883e+01
  -6.470142e+01   3.791241e+01
  -1.528111e+02   5.420413e+00
  -1.361634e+02  -3.952992e+01
  -1.809150e+01  -6.490049e+01
   1.065351e+02  -8.054979e+01
   1.505138e+02   1.231591e+01
   5.072315e+01   6.663967e+01
  -7.062678e+01   5.423684e+01
  -8.491991e+01  -1.896255e+01
  -4.062601e+00  -5.687630e+01
   4.234130e+01  -7.085783e+01
   5.493930e+01   1.775703e+01
   4.610766e+01   4.368112e+01
   5.529807e+01   9.110674e+00
   9.073216e+01   1.719183e+01
   5.344409e+01   3.296563e+00
  -1.095828e+01   7.713115e+01
  -3.273646e+01   1.437254e+02
  -9.997435e+01   1.092932e+02
  -1.502335e+02   2.494717e+01
  -1.379533e+02  -8.312540e+01
  -2.409037e+00  -1.068939e+02
   1.099304e+02  -5.416321e+01
   5.459160e+01  -2.294620e+01
  -2.764835e+01   2.044808e+01
  -1.437410e+02  -3.117529e+01
  -8.484067e+01  -1.267155e+02
   8.516492e+01  -1.211833e+02
   1.958835e+02  -6.868959e+01
   1.402919e+02   2.778794e+01
   2.657800e+01   9.577833e+01
  -4.402978e+01   5.188129e+01
  -5.521964e+01  -1.655322e+01
   5.317973e+01  -2.816344e+01
   7.650823e+01   1.384374e+01
   5.680673e+01   1.052247e+02
  -1.191526e+02   1.471875e+02
  -1.593769e+02   5.938549e+01
  -1.337040e+02  -8.532593e+01
  -1.020270e+01  -1.954220e+02
   8.604098e+01  -1.446004e+02
   1.071619e+02   4.814779e+00
   5.998456e+01   1.202959e+02
   1.501621e+00   8.477772e+01
  -3.912405e+01   4.652257e+01
  -2.940996e+01  -1.959984e+01
  -1.163514e+01  -1.970961e+01
  -5.859986e+00   2.547426e+01
  -2.540784e+00   6.216372e+00
  -3.883916e+01  -8.315160e+01
  -4.149900e+01  -7.501054e+01
   6.617767e+01  -3.961037e+01
   1.243335e+02   6.415615e+01
   1.261835e+02   9.112559e+01
   4.390713e+01   6.232174e+01
  -1.031809e+02   2.829895e+01
  -7.646392e+01  -1.975829e+00
  -1.517430e+01   6.038842e+00
   4.144765e+01  -6.424857e+00
   2.824587e+01  -1.216516e+01
  -9.944740e+00  -5.568967e+00
  -4.945406e-01  -1.251817e+01
   7.240104e+01   7.176114e+00
   8.360268e+01   3.475542e+01
   1.843480e+01   7.130347e+01
  -1.079015e+02   1.227564e+02
  -1.909782e+02   6.696261e+01
  -1.648792e+02  -2.480981e+01
  -3.816318e+01  -1.499127e+02
   8.934971e+01  -1.612776e+02
   9.262578e+01  -5.967805e+01
   5.019166e+01   4.768274e+01
   4.589165e-01   2.565674e+01
   1.366247e+01   7.632939e+00
  -1.246513e+01  -8.267362e+00
   3.134303e+01   5.241144e+01
   7.605841e+00   1.070357e+02
  -4.605069e+01   7.088737e+01
  -8.873812e+01  -9.518870e+00
  -6.731652e+01  -9.687373e+01
  -1.952548e+00  -9.275435e+01
   8.206884e+01  -5.239747e+01
   1.031145e+02   7.664984e+01
   2.044116e+01   1.161508e+02
  -4.345095e+01   2.450224e+01
  -7.237686e+01  -1.184093e+01
  -2.950687e+01  -5.155895e+01
   2.885762e+01  -5.981450e+01
   3.827914e+01  -7.355105e+00
  -4.840347e+01  -2.394797e+01
  -9.721792e+01   4.668976e+01
  -1.779835e+01  -3.951023e+00
   7.891830e+01  -5.108551e+01
   1.094952e+02  -4.450193e+01
   1.028535e+02  -1.398761e+01
  -9.064990e+00   8.217780e+01
  -5.106772e+01   6.875632e+01
  -2.865402e+01  -2.989551e+01
  -6.750316e+00  -3.849729e+01
   5.479871e+01  -4.480919e+01
   5.330124e+01   2.676607e+01
   2.791969e+01   3.467614e+01
  -3.072742e+00   4.231311e+01
  -3.366853e+01   2.250556e+01
  -2.629523e+01  -2.005034e+00
  -2.493648e+01  -4.066589e+00
   7.590670e+00   3.090860e+01
   6.046106e+00  -5.606433e+00
  -6.951341e+00  -5.649907e+01
   2.164842e+01  -5.568782e+01
   2.706547e+00  -1.182459e+01
   2.624980e+01   2.885043e+01
   2.544628e+00   7.914463e+01
  -3.904409e+01   3.850012e+01
  -5.536825e+01   2.358527e+00
  -2.508479e+01  -3.657043e+01
   6.507951e+01  -3.902995e+01
   6.287418e+01   5.456840e+00
   6.182316e+01   2.868141e+01
  -1.587096e+01   3.468755e+01
  -4.701667e+01   1.305550e+01
  -2.164904e+00   3.393954e+00
   3.567340e+01  -1.298934e+01
   3.005919e+01   9.174428e+00
  -2.603080e+01   2.522171e+01
  -8.044542e+01   3.901846e+01
