
 $NMID
 id='ANONYMOUS ', fmtdat='(2E16.6)'
 volume=1.0
 tramp=1.0
 $END
  -4.599134e+03  -4.733993e+01
  -2.459129e+03  -2.607093e+03
   6.803715e+02  -2.929848e+03
   2.271525e+03  -9.453830e+02
   1.077597e+03   4.392925e+02
  -5.490796e+02   6.442659e+02
  -9.061575e+02  -3.964508e+02
   2.525035e+01  -1.087486e+03
   8.351520e+02  -7.842710e+02
   9.738746e+02   8.762675e+01
   4.079399e+02   8.608966e+02
  -2.950484e+02   8.632926e+02
  -6.523306e+02   1.396877e+02
  -2.489034e+02  -6.692477e+02
   2.789303e+02  -7.317350e+02
   5.583541e+02   2.250381e+01
   2.355233e+02   7.007079e+02
  -3.525084e+02   6.048829e+02
  -5.560988e+02   4.890426e+01
  -3.577870e+02  -3.768023e+02
  -1.538569e+01  -3.865793e+02
   2.234033e+02  -2.372289e+02
   2.003992e+02  -2.566192e+00
  -1.664545e+02   6.202245e+01
  -3.567702e+02  -1.661535e+02
  -8.937526e+01  -4.243980e+02
   4.744995e+02  -3.431380e+02
   8.560748e+02   7.904812e+01
   3.686516e+02   5.613926e+02
  -3.753637e+02   4.636325e+02
  -7.054851e+02  -5.671009e+01
  -2.549739e+02  -4.394754e+02
   2.998396e+02  -4.722956e+02
   5.595690e+02  -1.771141e+02
   3.682615e+02   2.479344e+02
   6.554041e+01   4.446506e+02
  -1.958905e+02   2.523112e+02
  -1.388060e+02  -2.313319e+02
   1.794611e+02  -3.962570e+02
   4.325505e+02   5.149466e+01
   2.469517e+02   6.740878e+02
  -3.508216e+02   6.607742e+02
  -5.975680e+02  -2.426361e+01
  -2.730027e+02  -5.182471e+02
   2.392046e+02  -2.907250e+02
   3.571704e+02   3.019891e+02
  -6.703481e+01   4.860019e+02
  -5.261553e+02   1.319954e+02
  -5.166199e+02  -3.824560e+02
  -1.426301e+02  -5.876938e+02
   3.665818e+02  -3.329330e+02
   6.206160e+02   7.621291e+01
   3.279171e+02   3.866631e+02
  -1.331043e+02   3.612781e+02
  -3.922118e+02   6.138006e+01
  -2.177324e+02  -1.743965e+02
   1.002626e+02  -8.616562e+01
   1.573639e+02   1.750786e+02
  -2.094449e+02   1.950122e+02
  -3.429410e+02  -6.752514e+01
  -1.722290e+02  -3.061586e+02
   2.041041e+02  -2.625910e+02
   3.190623e+02  -2.622298e+01
   1.795648e+02   1.028454e+02
  -3.522806e+01   2.110903e+02
  -2.415728e+02   3.152639e+02
  -3.421479e+02   2.000081e+02
  -2.865787e+02  -9.511228e+01
  -8.891576e+01  -4.330160e+02
   9.265496e+01  -3.502487e+02
   1.432321e+02  -7.685530e+01
   3.004106e+01   2.917896e+01
   6.636906e+01  -6.792496e+01
   1.976340e+02  -1.311481e+02
   2.827584e+02   6.387026e+01
   1.356280e+02   2.588015e+02
  -7.650020e+01   2.367793e+02
  -2.497636e+02  -4.739588e+00
  -1.978831e+02  -2.213719e+02
   2.679788e+01  -3.167848e+02
   2.572850e+02  -9.412565e+01
   3.445761e+02   1.890448e+02
   1.981342e+02   3.596141e+02
  -1.197640e+02   3.015761e+02
  -2.272582e+02   9.453061e+01
  -1.674605e+02  -1.615474e+00
  -8.587454e+01   3.649251e+01
  -2.195200e+02   3.441307e+01
  -4.089283e+02  -5.695883e+01
  -3.472745e+02  -2.978745e+02
   4.635342e+01  -4.274107e+02
   3.928103e+02  -4.228760e+02
   4.981196e+02  -1.786882e+02
   3.093400e+02   1.181865e+02
   1.888781e+01   2.942401e+02
  -1.324172e+02   2.269495e+02
  -7.569614e+01   5.160420e+00
   1.085191e+02  -9.990756e+01
   1.944343e+02  -8.118609e-01
   6.349405e+01   1.798116e+02
  -1.815517e+02   1.935757e+02
  -1.635323e+02  -5.137758e+01
   2.573044e+01  -2.197693e+02
   2.158924e+02  -4.101530e+01
   1.884853e+02   2.419467e+02
  -5.077807e+01   3.560653e+02
  -2.674343e+02   2.229591e+02
  -3.254249e+02  -6.717378e+01
  -2.656916e+02  -2.451855e+02
  -8.476316e+01  -2.660619e+02
   1.152658e+02  -1.672533e+02
   1.937081e+02   3.136006e+00
   3.981949e+01   3.519384e+01
  -7.064498e+01  -6.133038e+01
  -1.203175e+01  -1.663612e+02
   1.123660e+02  -8.822715e+01
   1.802887e+02   7.884668e+00
   3.754147e+01   8.608815e+01
  -6.026020e+01   2.394192e+01
  -4.459595e+01  -6.613217e+01
   1.134772e+02  -1.123971e+02
   2.992708e+02  -7.316252e+00
   2.653151e+02   1.325777e+02
   5.180587e+01   3.093508e+02
  -1.852644e+02   2.553241e+02
  -2.593528e+02   7.478585e+01
  -1.636852e+02  -8.884099e+01
   5.221001e+01  -9.346328e+01
   9.451552e+01   1.501659e+01
  -3.966393e+01   1.201755e+02
  -2.368378e+02   4.941187e+01
  -2.130795e+02  -8.676640e+01
  -7.963396e+01  -2.098778e+02
   1.058826e+02  -1.566531e+02
   1.293603e+02  -5.970277e+01
   7.680006e+01   4.194922e+01
  -3.849973e+01  -4.294642e+00
  -2.534449e+01  -9.168594e+01
   7.230954e+01  -1.032601e+02
   2.013581e+02  -3.053720e+01
   1.756833e+02   1.383907e+02
   9.782726e+00   2.441140e+02
  -1.340895e+02   1.639275e+02
  -1.873308e+02  -3.323131e+01
  -5.423950e+01  -1.138135e+02
   8.455984e+01  -9.564502e+01
   7.051160e+01  -1.822655e+01
   1.989538e+01   3.541416e+01
  -9.468840e+00  -5.824307e+00
   1.212782e+01  -8.873411e+00
   6.203793e+01   4.168762e+00
   8.352136e+01   7.874993e+01
  -1.125412e+00   1.620619e+02
  -1.476783e+02   1.332672e+02
  -2.108832e+02  -3.063289e+00
  -1.848948e+02  -1.341479e+02
  -2.850655e+01  -2.198226e+02
   1.328174e+02  -1.508949e+02
   1.300011e+02  -1.721069e+01
   5.531140e+01   7.686433e+01
   4.503833e+01   4.250538e+01
   4.672533e+01  -5.748944e+00
   6.844775e+01  -6.248184e+00
   2.078628e+01   5.461102e+01
  -3.460947e+01   9.389622e+01
  -9.370839e+01   5.117799e+01
  -8.524741e+01  -5.926383e+01
   2.255449e+01  -8.796207e+01
   1.238860e+02  -7.828436e+01
   1.914727e+02   7.352160e+01
   8.406322e+01   1.920724e+02
  -1.286086e+02   2.116748e+02
  -2.637287e+02   9.455944e+01
  -2.407057e+02  -5.829484e+01
  -9.618524e+01  -1.912010e+02
   4.172665e+01  -1.521290e+02
   1.050477e+02  -8.438249e+01
   6.252745e+01  -5.483999e+01
   6.927466e+01  -9.925735e+01
   9.396452e+01  -5.342936e+01
   1.284406e+02  -1.683171e+00
   1.031093e+02   1.460472e+02
   2.253599e+01   1.876173e+02
  -1.014717e+02   1.993380e+02
  -1.606863e+02   3.204803e+01
  -1.383141e+02  -1.373417e+02
  -1.220076e+01  -1.697161e+02
   5.734115e+01  -8.825560e+01
   7.529905e+01   1.022759e+01
   9.099023e+00   4.440046e+01
  -1.656729e+01  -1.164006e+00
   3.324271e+01   1.561519e+01
   7.504084e+01   1.283496e+01
   4.876799e+01   4.979475e+01
  -5.526420e+01   5.549609e+01
  -1.668636e+02   9.121918e+00
  -1.534678e+02  -4.175191e+01
   2.493383e+01  -6.341390e+01
   1.222998e+02  -7.404598e+01
   1.564279e+02  -7.896113e-01
   4.412460e+01   4.344334e+01
  -5.879172e+01   8.165110e+01
  -9.114788e+01  -1.856426e+01
   5.648418e+00  -4.622744e+01
   5.382385e+01  -4.263773e+01
   5.013170e+01   2.335945e+01
   1.272885e+01   4.004258e+01
   2.874196e+01   1.692322e+01
   5.812399e+01   1.938251e+01
   6.738628e+01   1.620066e+00
   3.068255e+01   1.054341e+02
  -5.104628e+01   1.568164e+02
  -1.148592e+02   1.325354e+02
  -1.609654e+02   1.711068e+01
  -1.405598e+02  -8.872795e+01
  -6.817631e+00  -1.060091e+02
   8.518375e+01  -3.394044e+01
   6.511260e+01   3.478027e+01
  -4.303278e+01   1.350068e+01
  -1.433954e+02  -2.547260e+01
  -5.315541e+01  -1.012204e+02
   8.434289e+01  -1.202208e+02
   2.029454e+02  -4.054096e+01
   1.449493e+02   4.292734e+01
   2.335140e+01   8.663806e+01
  -6.927434e+01   4.343799e+01
  -4.499046e+01   1.186135e+01
   5.560604e+01  -3.576232e+01
   8.503722e+01   4.078827e+01
   3.321270e+01   1.264743e+02
  -7.975926e+01   1.562033e+02
  -1.605173e+02   7.140591e+01
  -1.260283e+02  -9.597982e+01
  -5.591655e+00  -2.330603e+02
   8.468190e+01  -1.507420e+02
   1.226394e+02   2.063298e+00
   6.226918e+01   1.064451e+02
   1.185752e+01   1.044744e+02
  -5.606077e+00   1.469506e+01
  -5.359622e+01  -1.701699e+01
  -2.556761e+01  -6.595032e+00
  -4.154905e+00   1.665766e+01
  -4.293713e+01  -1.485426e+01
  -5.326606e+01  -1.036863e+02
  -5.010291e+01  -7.150316e+01
   5.410454e+01  -4.150806e+01
   1.463656e+02   3.093335e+01
   1.423915e+02   9.867059e+01
   1.076007e+01   6.466136e+01
  -9.885353e+01   2.509995e+01
  -4.683248e+01  -1.116764e+01
  -5.823641e+00  -8.685141e-01
   4.315847e+01  -2.309670e+01
   3.340280e+01  -2.814659e+01
   6.130407e+00  -5.513897e+00
  -2.738639e+01  -1.509879e+01
   5.881250e+01   1.902535e+01
   6.955394e+01   3.414130e+01
   3.295561e-01   9.089363e+01
  -1.127814e+02   1.347979e+02
  -1.763326e+02   6.386772e+01
  -1.407940e+02  -4.393387e+01
  -2.895832e+01  -1.464243e+02
   7.619832e+01  -1.627089e+02
   1.009513e+02  -5.084632e+01
   7.843541e+01   1.915808e+01
   1.958114e+01   4.346651e+01
   6.686463e+00  -6.267937e+00
   6.621159e+00   3.726697e+00
   4.588510e+01   5.661983e+01
   2.281163e+01   9.412928e+01
  -5.331455e+01   6.729013e+01
  -6.904841e+01  -3.543104e+01
  -7.784846e+01  -9.044697e+01
   2.455663e+01  -1.059799e+02
   8.385793e+01  -1.831787e+01
   8.479562e+01   6.719600e+01
   3.119371e+01   7.052012e+01
  -6.592768e+01   4.452894e+01
  -1.051392e+02  -2.454712e+01
  -4.058205e+01  -3.663170e+01
   5.313409e+01  -5.450420e+01
   5.282983e+01  -2.107696e+01
  -5.160075e+01  -1.086400e+01
  -5.529334e+01   2.048764e+01
  -1.408931e+01  -1.513184e+01
   9.051391e+01  -7.032100e+01
   9.912269e+01  -5.256959e+01
   7.218135e+01   3.056224e+01
   4.139249e+00   8.189176e+01
  -5.593233e+01   7.222631e+01
  -2.006626e+01   3.478093e+00
  -1.287763e+01  -4.555867e+01
   3.306713e+01  -4.895013e+01
   3.268755e+01   2.631716e+00
   2.926724e+01   3.087923e+01
  -3.218483e+01   3.223241e+01
  -4.489951e+01  -2.503506e+01
  -3.215454e+01  -5.360358e+01
  -1.619764e+01  -3.864030e+00
   3.391691e+00   3.123897e+01
   5.675828e+00   1.673838e+01
   1.739988e+00  -6.297372e+01
   2.114780e+01  -2.262893e+01
   2.115506e+01   8.264599e+00
   5.067887e+01   2.880367e+01
  -7.781368e+00   7.397891e+01
  -5.043495e+01   3.152901e+01
  -5.495679e+01  -3.782820e+01
   6.555806e+00  -4.819684e+01
   7.413784e+01  -2.825126e+01
   6.949531e+01   1.411643e+01
   8.336178e+01   5.570314e+01
  -2.859939e+01   3.672510e+01
  -6.934983e+01   2.917009e+00
  -2.555001e+01  -1.693920e+01
   4.521470e+01  -1.424837e+01
   6.076655e+01   1.231397e+01
  -5.139243e+01   6.021189e+01
  -1.069767e+02   1.260745e+00
