
 $NMID
 id='ANONYMOUS ', fmtdat='(2E16.6)'
 volume=1.0
 tramp=1.0
 $END
  -3.995785e+03   3.474156e+02
  -2.653058e+03  -2.439607e+03
   3.687810e+02  -2.556330e+03
   1.929880e+03  -1.152346e+03
   1.113884e+03   4.130065e+02
  -3.305709e+02   5.375617e+02
  -6.924882e+02  -2.885525e+02
  -3.058696e+01  -9.295301e+02
   6.709977e+02  -7.719650e+02
   8.154010e+02   8.995587e+01
   4.966384e+02   7.657293e+02
  -1.548290e+02   8.231792e+02
  -5.448907e+02   1.762837e+02
  -4.104454e+02  -6.128067e+02
   2.336644e+02  -6.745560e+02
   5.562029e+02  -3.492066e+01
   3.231340e+02   6.298712e+02
  -2.562453e+02   6.749982e+02
  -5.462748e+02   2.033547e+02
  -4.069246e+02  -2.582024e+02
  -8.904694e+01  -3.965001e+02
   1.931509e+02  -2.830682e+02
   1.141402e+02  -5.520146e+01
  -8.332571e+01  -1.377243e+01
  -3.672229e+02  -1.662397e+02
  -1.290906e+02  -3.570526e+02
   4.452038e+02  -3.341753e+02
   7.462260e+02   9.672348e+01
   4.098234e+02   4.908469e+02
  -3.141666e+02   3.492561e+02
  -6.604009e+02  -8.748385e+01
  -3.344690e+02  -4.172548e+02
   2.615833e+02  -4.704132e+02
   5.056194e+02  -1.871497e+02
   4.170675e+02   1.964330e+02
   8.421948e+01   4.540617e+02
  -1.649270e+02   2.623154e+02
  -1.024605e+02  -1.370457e+02
   1.698182e+02  -3.204023e+02
   3.584377e+02   6.682009e+00
   1.760723e+02   5.863206e+02
  -2.491091e+02   6.309050e+02
  -5.354966e+02   1.725048e+01
  -2.769954e+02  -4.813116e+02
   2.460788e+02  -3.075659e+02
   3.106050e+02   2.614755e+02
  -7.390832e+01   5.137114e+02
  -4.924778e+02   1.538454e+02
  -5.469479e+02  -3.402776e+02
  -1.734475e+02  -5.690679e+02
   3.468366e+02  -3.554635e+02
   5.759553e+02   5.798032e+01
   3.546527e+02   3.254128e+02
  -1.085599e+02   3.551813e+02
  -4.303068e+02   1.004403e+02
  -2.869547e+02  -1.046495e+02
   6.469113e+01  -9.803835e+01
   1.245248e+02   1.026640e+02
  -1.680429e+02   1.459110e+02
  -2.968979e+02  -3.327825e+01
  -1.654594e+02  -2.736856e+02
   2.097403e+02  -2.580811e+02
   3.376693e+02  -7.563651e+01
   2.098225e+02   1.122059e+02
  -7.929621e+00   2.663456e+02
  -2.620701e+02   3.078007e+02
  -3.443856e+02   1.859976e+02
  -2.687778e+02  -1.147294e+02
  -1.088594e+02  -4.153429e+02
   6.370034e+01  -3.704071e+02
   9.584829e+01  -1.071516e+02
   6.081505e+01  -4.302758e+01
   7.381120e+01  -8.736807e+01
   2.031109e+02  -1.010575e+02
   2.899839e+02   7.251382e+01
   1.395966e+02   2.539425e+02
  -2.886458e+01   2.068791e+02
  -2.356811e+02   7.835815e+00
  -1.823868e+02  -2.573943e+02
  -6.690076e-03  -2.843618e+02
   2.383955e+02  -9.584445e+01
   3.491178e+02   1.568315e+02
   1.776233e+02   3.643140e+02
  -8.755507e+01   3.010543e+02
  -2.218528e+02   1.582593e+02
  -1.495674e+02   1.691713e+01
  -1.285938e+02   5.080996e+01
  -2.183647e+02   4.646255e+01
  -3.803486e+02  -8.327176e+01
  -3.398428e+02  -2.842136e+02
   5.996697e-01  -4.227521e+02
   3.817737e+02  -4.206875e+02
   5.070920e+02  -1.951559e+02
   3.236381e+02   7.956388e+01
   4.798926e+01   2.803714e+02
  -1.034210e+02   2.610921e+02
  -6.156882e+01   4.541682e+01
   9.711510e+01  -7.649507e+01
   1.979150e+02   2.173201e+01
   4.950651e+01   1.747721e+02
  -1.448450e+02   1.568705e+02
  -1.803651e+02  -4.250282e+01
   1.588845e+01  -1.799761e+02
   1.784675e+02  -6.355961e+01
   1.502955e+02   2.425128e+02
  -3.166687e+01   3.900848e+02
  -2.485210e+02   2.111818e+02
  -3.303229e+02  -6.545737e+01
  -2.829144e+02  -2.742806e+02
  -7.536955e+01  -2.811702e+02
   1.424617e+02  -1.416693e+02
   1.505511e+02  -2.840621e+01
   5.238299e+01   2.222581e+01
  -8.056107e+01  -5.657772e+01
  -5.915838e+00  -9.238481e+01
   1.250332e+02  -6.820838e+01
   1.750544e+02   2.017961e+01
   4.522450e+01   7.806693e+01
  -7.767776e+01   5.342528e+00
  -3.743037e+01  -8.147949e+01
   1.292842e+02  -5.395591e+01
   2.500152e+02   3.996408e-01
   2.518251e+02   1.357879e+02
   2.842192e+01   2.470167e+02
  -1.949880e+02   2.279498e+02
  -2.594686e+02   1.172048e+02
  -1.651305e+02  -1.945179e+01
   2.626659e+01  -8.797014e+01
   9.759002e+01  -1.548837e+01
  -1.231457e+01   9.255162e+01
  -2.031182e+02   5.143474e+01
  -1.731776e+02  -7.384229e+01
  -5.714143e+01  -1.809451e+02
   8.553066e+01  -1.449417e+02
   1.102403e+02  -3.753071e+01
   5.541029e+01   1.320731e+01
   4.378390e+00  -4.712849e+00
  -5.347903e+01  -8.619320e+01
   6.898386e+01  -1.271764e+02
   1.907300e+02  -5.098382e+01
   1.996491e+02   1.303369e+02
   4.428617e+01   1.917877e+02
  -1.475710e+02   1.732099e+02
  -1.720906e+02   1.068955e+01
  -6.877012e+01  -1.314127e+02
   5.568865e+01  -1.053269e+02
   7.352098e+01  -1.529894e+01
   1.052915e+01   1.510444e+01
  -2.012613e+01  -8.797428e+00
   2.527592e+01  -1.976750e+01
   8.412820e+01   2.519904e+01
   9.663688e+01   8.890127e+01
   3.864392e+01   1.740473e+02
  -1.299729e+02   1.278856e+02
  -2.265845e+02   2.124649e+01
  -1.809214e+02  -1.328891e+02
  -4.940446e+01  -2.530406e+02
   9.266508e+01  -1.692181e+02
   1.613648e+02  -1.743885e+01
   6.651315e+01   4.480196e+01
   8.937388e+00   5.012005e+01
   6.078186e+01  -4.380003e+01
   8.825684e+01  -4.653588e+00
   3.432144e+01   7.902858e+01
  -3.090448e+01   9.530639e+01
  -1.254204e+02   7.208294e+01
  -6.435351e+01  -5.099672e+01
   2.355207e+01  -1.388967e+02
   1.321333e+02  -8.591510e+01
   1.768492e+02   5.902528e+01
   8.686707e+01   2.068116e+02
  -9.918026e+01   2.134204e+02
  -2.877682e+02   7.374262e+01
  -2.772155e+02  -9.339503e+01
  -1.035817e+02  -1.432336e+02
   5.985939e+01  -1.608018e+02
   6.623705e+01  -6.347018e+01
   6.356942e+01  -5.878082e+01
   5.677985e+01  -1.013319e+02
   7.944383e+01  -7.836344e+01
   1.030445e+02   3.233016e+01
   1.185399e+02   1.367342e+02
   3.377697e+01   2.135782e+02
  -1.038356e+02   1.763677e+02
  -1.742436e+02   2.694344e+00
  -1.224315e+02  -1.123832e+02
  -5.594810e+00  -1.494808e+02
   5.844613e+01  -1.080821e+02
   9.688184e+01   2.823951e+01
   5.787404e+00   8.242093e+01
  -1.047634e+01   3.719209e+01
   6.276236e+01  -1.032471e+01
   8.411438e+01   3.367972e+01
   5.678677e+01   3.621171e+01
  -8.264624e+01   3.125382e+01
  -1.628527e+02  -1.985254e+01
  -1.319156e+02  -6.725872e+01
   2.272879e+01  -8.606346e+01
   1.193767e+02  -5.821558e+01
   1.153461e+02  -1.092007e+01
   3.494923e+01   5.143749e+01
  -8.124451e+01   4.229864e+01
  -6.899553e+01  -1.961809e+01
   1.022227e+01  -5.580764e+01
   7.358403e+01  -8.317763e+01
   7.459320e+01   2.008088e+01
   7.631096e+01   5.719556e+01
   4.819085e+01   4.576525e+01
   3.912668e+01   4.582926e+00
   6.372276e+01  -3.491779e+00
   2.334438e+01   4.687192e+01
  -8.602500e+00   1.668302e+02
  -1.202818e+02   1.210668e+02
  -1.844874e+02   4.500088e+01
  -1.149962e+02  -8.363126e+01
  -4.034547e+00  -1.085665e+02
   6.468504e+01  -5.690846e+01
   7.762839e+01   2.666105e+01
  -2.823998e+01   2.825677e+01
  -1.334004e+02  -2.216387e+01
  -6.118744e+01  -7.018167e+01
   7.402438e+01  -1.094715e+02
   1.957763e+02  -4.568585e+01
   1.538339e+02   1.232629e+01
   3.722355e+01   7.262929e+01
  -7.243731e+01   5.456799e+01
  -1.514153e+01   2.731093e+01
   3.853124e+01  -1.540792e+01
   1.042429e+02   3.508900e+01
   4.132511e+01   1.060013e+02
  -9.852824e+01   1.408433e+02
  -1.591286e+02   8.734978e+01
  -1.086011e+02  -1.039032e+02
  -1.215897e+01  -1.691454e+02
   1.055879e+02  -1.212824e+02
   1.357400e+02  -4.336445e+00
   6.174561e+01   1.195228e+02
  -2.866908e+01   8.626533e+01
  -4.275587e+01   2.701170e+01
  -3.451145e+01  -2.782999e+01
  -2.653794e+01  -2.577567e+01
   1.809419e+01  -9.554880e+00
  -4.524945e+01  -3.115920e+00
  -5.307653e+01  -9.688120e+01
  -4.280272e+01  -1.130099e+02
   4.979113e+01  -3.926421e+01
   1.247775e+02   2.623823e+01
   1.292322e+02   6.503660e+01
   7.093920e+00   7.463928e+01
  -9.497252e+01   5.284147e+01
  -8.716751e+01  -1.728565e+01
  -2.210456e+01  -4.591609e+00
   5.725479e+01  -4.701347e+01
   2.437550e+01  -1.058478e+01
   1.199602e+01   1.478298e+01
  -1.253804e+01   1.778586e+01
   5.855353e+01   1.167988e+00
   7.976615e+01   3.019874e+01
   1.734329e+01   6.468119e+01
  -1.118575e+02   1.094935e+02
  -1.972128e+02   8.082654e+01
  -1.631824e+02  -6.090951e+01
  -2.094058e+01  -1.518321e+02
   6.654755e+01  -1.665085e+02
   9.952245e+01  -7.171763e+01
   1.092328e+02   3.621303e+01
   2.422457e+01   5.453587e+01
   1.375645e+00   1.000011e+01
  -8.175031e+00   3.197591e+01
   6.328534e+01   3.917044e+01
   9.917355e+00   7.833861e+01
  -4.654344e+01   5.645011e+01
  -7.269548e+01  -2.918442e+00
  -9.500541e+01  -1.000595e+02
  -2.312185e+01  -1.365982e+02
   9.061869e+01  -3.401783e+01
   1.090371e+02   5.251018e+01
   4.283020e+01   8.178319e+01
  -5.606685e+01   5.130378e+01
  -9.656964e+01   1.200810e+01
  -3.810251e+01  -3.917539e+01
   2.483220e+01  -8.225216e+01
   3.197806e+01  -4.431457e+01
  -2.255523e+01   2.405990e+01
  -6.197999e+01   5.645232e+00
  -2.251319e+01  -2.689112e+01
   9.536821e+01  -5.973728e+01
   1.003275e+02  -4.589856e+01
   4.574000e+01   2.831835e+01
  -1.731514e+00   1.015745e+02
  -6.725249e+01   9.033099e+01
  -5.718090e+01   1.468623e+01
  -8.989017e+00  -6.026334e+01
   1.359025e+01  -4.705495e+01
   3.656782e+01   2.068669e+01
   2.890958e+01   4.648759e+01
  -9.329577e+00   1.698602e+01
  -2.540293e+01   1.545382e+00
  -2.223964e+01  -1.150903e+01
  -1.479439e+01   8.647629e+00
   2.926285e+01   2.084129e+01
  -2.742027e+01   4.040767e+01
  -1.286972e+01  -4.698220e+01
   2.015245e+01  -5.077685e+01
   1.790518e+01   7.456613e-01
   4.759052e+01   2.168850e+01
   1.842735e+01   4.684838e+01
  -3.066781e+01   1.769162e+01
  -6.577303e+01  -1.061207e+01
  -3.077794e+01  -5.132933e+01
   4.027499e+01  -4.441281e+01
   6.599422e+01   5.069716e+00
   3.735306e+01   3.428163e+01
  -5.490870e+01   5.165836e+01
  -6.827763e+01   1.427687e+01
  -3.222343e+01   3.798835e+01
   3.959410e+01  -2.239666e+01
   5.059159e+01   1.130369e+01
  -2.026497e+01   2.542231e+01
  -8.778975e+01   3.611849e+01
