
 $NMID
 id='ANONYMOUS ', fmtdat='(2E16.6)'
 volume=1.0
 tramp=1.0
 $END
  -4.058282e+03   2.352152e+02
  -2.432052e+03  -2.118606e+03
   1.716342e+02  -2.842361e+03
   1.824758e+03  -1.169784e+03
   1.160342e+03   4.280688e+02
  -3.916788e+02   5.781265e+02
  -7.588215e+02  -2.466517e+02
  -1.676017e+02  -8.441114e+02
   6.434555e+02  -7.592733e+02
   9.226600e+02  -4.969334e+01
   5.426705e+02   7.557990e+02
  -1.471598e+02   8.835448e+02
  -5.711861e+02   2.310502e+02
  -4.950220e+02  -6.565745e+02
   1.689284e+02  -7.432744e+02
   5.831985e+02  -9.994356e+01
   3.170711e+02   6.453497e+02
  -2.524582e+02   7.087203e+02
  -5.686728e+02   1.372496e+02
  -5.110775e+02  -3.330564e+02
  -7.286955e+01  -4.459980e+02
   1.915195e+02  -2.811376e+02
   1.974239e+02  -7.630627e+01
  -8.620900e+01   7.919214e+01
  -3.592863e+02  -8.066710e+01
  -1.965754e+02  -3.652308e+02
   3.736104e+02  -3.690131e+02
   7.295428e+02   5.406137e+01
   4.328446e+02   4.659446e+02
  -2.824573e+02   4.977775e+02
  -6.836766e+02   1.119474e+01
  -3.627363e+02  -4.195536e+02
   2.203147e+02  -5.290732e+02
   5.584649e+02  -2.183132e+02
   4.085099e+02   2.061984e+02
   1.031984e+02   4.725142e+02
  -1.780907e+02   3.121636e+02
  -1.796191e+02  -1.654271e+02
   1.198853e+02  -3.855048e+02
   4.296952e+02  -2.902408e+01
   2.116328e+02   5.970952e+02
  -3.012024e+02   7.184612e+02
  -5.379404e+02   6.021510e+01
  -2.461462e+02  -5.234095e+02
   2.371209e+02  -3.312067e+02
   3.335997e+02   2.318332e+02
  -2.186330e+01   5.271615e+02
  -4.891268e+02   1.602943e+02
  -5.798526e+02  -3.709641e+02
  -1.836470e+02  -5.739555e+02
   3.322543e+02  -3.323319e+02
   5.959053e+02   3.238002e+01
   4.250153e+02   3.139249e+02
  -7.257132e+01   3.763326e+02
  -4.323464e+02   8.340778e+01
  -2.688662e+02  -1.625238e+02
   8.070512e+01  -1.192327e+02
   1.514913e+02   9.513633e+01
  -1.017243e+02   1.906549e+02
  -3.221614e+02   7.589969e+00
  -1.483676e+02  -2.479588e+02
   1.554511e+02  -2.757725e+02
   3.324504e+02  -7.651664e+01
   2.013486e+02   8.987107e+01
   2.174254e+01   2.303004e+02
  -2.427029e+02   3.280015e+02
  -3.583611e+02   2.170530e+02
  -3.124344e+02  -1.338986e+02
  -9.762210e+01  -3.808052e+02
   1.099544e+02  -3.404919e+02
   8.656364e+01  -1.435373e+02
   4.507473e+01  -2.647438e+00
   6.273606e+01  -9.407634e+01
   1.804008e+02  -1.054748e+02
   2.602583e+02   7.712607e+01
   1.690699e+02   2.471187e+02
  -3.174623e+01   2.369104e+02
  -2.158412e+02   4.533486e+01
  -2.237314e+02  -2.133443e+02
   4.908545e+00  -2.963615e+02
   2.596721e+02  -1.551112e+02
   3.370635e+02   1.639455e+02
   2.074588e+02   3.087986e+02
  -7.997760e+01   3.138604e+02
  -2.197425e+02   1.216845e+02
  -1.662751e+02   3.315161e+01
  -9.906226e+01   2.176115e+01
  -2.385818e+02   7.669491e+01
  -3.834197e+02  -4.695670e+01
  -3.325000e+02  -2.756076e+02
   2.058790e+01  -4.126940e+02
   3.201362e+02  -3.959015e+02
   4.554242e+02  -1.873209e+02
   3.154036e+02   7.574395e+01
   8.365844e+01   2.477242e+02
  -1.005077e+02   2.350217e+02
  -6.586289e+01   3.763116e+01
   8.357162e+01  -7.348239e+01
   1.378620e+02   2.426463e+01
   2.048803e+01   1.766700e+02
  -1.131119e+02   1.248869e+02
  -1.961004e+02  -4.597414e+01
   3.534059e+00  -1.639822e+02
   1.965206e+02  -4.008204e+01
   1.706664e+02   2.294434e+02
  -3.280701e+01   3.288012e+02
  -2.227731e+02   2.145050e+02
  -3.283487e+02  -3.293025e+01
  -2.752613e+02  -2.466960e+02
  -9.783522e+01  -2.768062e+02
   1.043516e+02  -1.605186e+02
   1.767427e+02  -1.731838e+01
   3.171031e+01   3.469459e+01
  -7.292114e+01  -2.244554e+01
  -7.161224e+00  -1.620019e+02
   8.354236e+01  -1.084378e+02
   1.471901e+02   3.984106e+01
   5.741076e+01   5.445461e+01
  -7.099017e+01   7.143191e+00
  -6.615997e+01  -5.993851e+01
   1.288040e+02  -9.468382e+01
   2.726819e+02   2.241591e+01
   2.413150e+02   1.454581e+02
   7.534940e+01   2.435964e+02
  -1.763281e+02   2.547047e+02
  -2.582882e+02   1.304678e+02
  -1.791121e+02  -5.520240e+01
   2.177290e+01  -1.052015e+02
   1.027636e+02   1.920274e+01
  -1.766941e+01   1.223816e+02
  -1.708916e+02   4.166799e+01
  -1.962144e+02  -7.894721e+01
  -7.623383e+01  -1.939651e+02
   5.032955e+01  -1.725174e+02
   1.022689e+02  -6.578058e+01
   4.385720e+01   4.063553e+01
  -4.998890e+01  -2.482426e+01
  -1.733729e+01  -7.293363e+01
   8.320476e+01  -1.091958e+02
   1.865492e+02  -2.923372e+01
   1.718972e+02   1.517742e+02
   1.173868e+01   2.036740e+02
  -1.482226e+02   1.652906e+02
  -2.116743e+02   2.339746e+01
  -7.990972e+01  -1.076962e+02
   6.786153e+01  -1.132821e+02
   1.125163e+02  -3.768712e+01
   2.695865e+01   3.132759e+01
  -3.145813e+01   1.179480e+01
   3.829878e+01  -1.552347e+01
   7.242225e+01   3.478661e+01
   8.195069e+01   1.009556e+02
   1.253633e+01   1.868156e+02
  -1.120709e+02   1.388730e+02
  -2.120723e+02   5.769921e+00
  -1.920131e+02  -1.552074e+02
  -2.431136e+01  -2.387952e+02
   1.203274e+02  -1.687470e+02
   1.396165e+02  -1.113113e+01
   9.613493e+01   5.083041e+01
   3.791271e+01   4.416725e+00
   7.395956e+01  -1.643080e+01
   1.028836e+02  -2.862300e-01
   4.603077e+01   5.318003e+01
  -4.045430e+01   8.181211e+01
  -1.109439e+02   6.111498e+01
  -1.092029e+02  -2.787022e+01
   2.202226e+01  -1.194312e+02
   1.656472e+02  -1.027220e+02
   2.012643e+02   3.048396e+01
   1.118634e+02   1.888348e+02
  -8.501965e+01   2.203109e+02
  -2.307774e+02   8.604092e+01
  -2.540279e+02  -6.185736e+01
  -1.032422e+02  -1.753351e+02
   4.433275e+00  -1.437587e+02
   1.126356e+02  -7.934153e+01
   6.172647e+01  -8.850241e+01
   6.174885e+01  -7.960892e+01
   9.220522e+01  -5.495104e+01
   1.264093e+02  -1.273263e-01
   1.205676e+02   1.383111e+02
   2.176082e+01   2.223868e+02
  -9.234056e+01   1.597909e+02
  -1.605527e+02   6.382505e+01
  -1.340599e+02  -8.355226e+01
  -1.681077e+01  -1.435190e+02
   6.133581e+01  -8.780425e+01
   5.349226e+01   9.556726e+00
  -9.203704e+00   5.986446e+01
   7.060308e+00   4.012487e+01
   4.978081e+01   2.114791e+01
   5.967600e+01   2.220515e+01
   5.241414e+01   5.605530e+01
  -6.503013e+01   5.217546e+01
  -1.455907e+02   2.249375e+01
  -9.784679e+01  -5.808712e+01
  -2.750315e+01  -8.974123e+01
   1.068480e+02  -8.089344e+01
   1.630923e+02   1.278843e+00
   6.184978e+01   3.666024e+01
  -8.387545e+01   4.171958e+01
  -8.357401e+01  -1.053839e+00
  -2.474358e+01  -7.751481e+01
   4.544874e+01  -4.622214e+01
   5.664045e+01  -7.068638e+00
   4.235928e+01   1.549848e+01
   2.819457e+01   1.771838e+01
   7.860681e+01   1.206146e+01
   8.716406e+01  -1.638476e-02
   3.304980e+01   9.192567e+01
  -2.027473e+01   1.586212e+02
  -1.313404e+02   1.420148e+02
  -1.667852e+02   8.727554e+00
  -1.385481e+02  -7.446406e+01
   3.981375e+00  -1.162421e+02
   6.643558e+01  -8.971847e+01
   4.913305e+01   1.456110e+01
  -4.659271e+01   1.613069e+01
  -1.284252e+02  -2.487351e+01
  -8.079856e+01  -1.044147e+02
   6.876162e+01  -1.256088e+02
   2.034804e+02  -4.496783e+01
   1.349020e+02   2.282080e+01
   3.810813e+01   8.084417e+01
  -4.152123e+01   2.636222e+01
  -3.073683e+01   9.786828e+00
   3.154242e+01  -3.632560e+01
   8.154346e+01   2.543697e+01
   2.139113e+01   1.113472e+02
  -1.170226e+02   1.495029e+02
  -1.683324e+02   6.494895e+01
  -9.667960e+01  -8.493973e+01
  -1.319077e+01  -1.936317e+02
   6.484495e+01  -1.386276e+02
   9.231315e+01  -2.450627e-01
   5.329985e+01   1.184412e+02
   3.763010e+00   9.549979e+01
  -3.705389e+01   1.135456e+01
  -6.717700e+01  -3.332859e+01
  -2.391068e+01   1.616705e+01
  -1.328125e+01  -1.196751e+00
  -3.380968e+01  -8.514469e+00
  -4.090894e+01  -7.044595e+01
  -3.116071e+01  -9.902304e+01
   7.661527e+01  -3.833065e+01
   1.176542e+02   3.400527e+01
   1.145131e+02   7.343009e+01
   5.516756e+00   6.343884e+01
  -1.039592e+02   3.759676e+01
  -7.012037e+01  -3.222065e+00
  -2.652076e+01  -1.318328e+01
   3.106760e+01  -2.368211e+01
   1.307850e+01  -1.667973e+01
  -3.631541e+01  -5.736518e+00
   6.850188e+00  -2.679985e+01
   7.908770e+01   1.035798e+01
   1.061906e+02   1.075741e+01
   4.179748e+01   9.889754e+01
  -1.133050e+02   1.555068e+02
  -1.814425e+02   4.927549e+01
  -1.303617e+02  -5.609490e+01
  -1.499782e+01  -1.617759e+02
   8.903443e+01  -1.740506e+02
   1.305730e+02  -4.817004e+01
   4.739197e+01   6.392946e+00
   2.733604e+01   2.554885e+01
  -6.062883e-01   1.282330e+01
   2.130025e+00  -1.037935e+01
   2.057574e+01   7.209371e+01
   3.241116e+01   1.139626e+02
  -4.540274e+01   7.344028e+01
  -1.035429e+02  -1.638670e+01
  -7.770226e+01  -1.008564e+02
   1.027700e+01  -1.028077e+02
   9.602681e+01  -2.914705e+01
   1.000585e+02   1.121918e+02
   2.698849e+01   1.127289e+02
  -8.712139e+01   5.737935e+01
  -8.336164e+01  -1.604520e+01
  -2.743217e+01  -4.936554e+01
   2.626656e+01  -3.086071e+01
   3.354887e+01  -7.830092e+00
  -4.218693e+01   2.148059e+01
  -4.967309e+01  -1.393619e+00
   3.078783e+00  -2.333350e+01
   7.029342e+01  -8.610662e+01
   1.064065e+02  -7.552731e+01
   8.506384e+01   1.648626e+01
  -1.511658e+01   7.770217e+01
  -4.779641e+01   8.864128e+01
  -6.176018e+01  -1.171925e+00
  -1.474162e+01  -5.386997e+01
   1.794205e+01  -4.657039e+01
   4.751377e+01   1.086690e+01
   6.222026e+01   6.464264e+01
  -1.354190e-01   3.123877e+01
  -2.486647e+01  -1.486701e+01
  -3.739905e+00  -3.025192e+01
  -1.915272e+01  -2.018194e+01
  -1.428484e+01   1.450416e+01
  -2.738922e+00  -5.716511e+00
  -1.066520e+01  -4.897165e+01
   2.695933e+01  -6.560997e+01
   1.596446e+01  -3.163098e+01
   3.827139e+01   6.329616e+01
   1.355958e+01   6.349696e+01
  -7.084116e+01   3.954035e+01
  -5.524421e+01  -4.771582e+01
  -8.025461e+00  -4.204611e+01
   4.921680e+01  -3.065741e+01
   8.198207e+01   3.919054e+00
   5.283068e+01   4.318170e+01
  -4.133706e+01   5.584790e+01
  -3.495646e+01   2.477754e+01
  -1.095171e+01  -1.393929e+01
   4.497782e+01   2.246763e+00
   3.909916e+01   8.909994e+00
  -3.792470e+01   9.139081e+00
  -7.764815e+01   2.636093e+01
