
 $NMID
 id='ANONYMOUS ', fmtdat='(2E16.6)'
 volume=1.0
 tramp=1.0
 $END
  -4.222465e+03   1.160479e+02
  -2.582384e+03  -2.483057e+03
   6.577374e+02  -2.692659e+03
   2.120613e+03  -1.057088e+03
   9.236065e+02   5.756239e+02
  -5.584769e+02   6.896504e+02
  -8.219677e+02  -3.867732e+02
  -2.129960e+01  -1.039832e+03
   8.222057e+02  -7.654066e+02
   9.428493e+02   5.386782e+01
   4.662944e+02   9.373545e+02
  -2.358009e+02   8.926544e+02
  -6.717843e+02   1.198187e+02
  -3.621142e+02  -7.831511e+02
   3.128835e+02  -7.344386e+02
   5.865690e+02   6.738536e+01
   2.584963e+02   7.058564e+02
  -3.504933e+02   6.037374e+02
  -6.036324e+02   9.364692e+01
  -3.685047e+02  -3.620580e+02
   1.172270e+01  -4.392593e+02
   2.419384e+02  -2.314639e+02
   1.846264e+02  -8.046654e+00
  -1.187268e+02   8.133866e+01
  -3.868564e+02  -1.476618e+02
  -1.920910e+02  -4.010441e+02
   4.086162e+02  -3.268956e+02
   8.204600e+02   4.614917e+01
   4.037417e+02   5.350876e+02
  -3.714020e+02   4.417048e+02
  -7.331089e+02  -3.083999e+01
  -3.114045e+02  -5.005965e+02
   3.104485e+02  -5.173932e+02
   5.630290e+02  -1.692220e+02
   4.121710e+02   2.734937e+02
   7.583885e+01   4.334491e+02
  -2.376460e+02   2.695551e+02
  -1.554290e+02  -2.377205e+02
   1.881964e+02  -3.943924e+02
   4.372220e+02   4.333703e+01
   1.960552e+02   6.238355e+02
  -2.551912e+02   6.379471e+02
  -6.096067e+02   1.889852e+01
  -2.531044e+02  -5.136267e+02
   3.043958e+02  -3.156277e+02
   3.415323e+02   3.313709e+02
  -7.936801e+01   5.093589e+02
  -5.439832e+02   1.067157e+02
  -6.190847e+02  -4.076320e+02
  -1.433362e+02  -6.300194e+02
   3.805525e+02  -3.285217e+02
   6.011886e+02   9.654444e+01
   3.359817e+02   4.177844e+02
  -1.322711e+02   3.485001e+02
  -4.000230e+02   7.093071e+01
  -2.622276e+02  -2.185481e+02
   1.290289e+02  -1.172149e+02
   1.777594e+02   1.502973e+02
  -1.586204e+02   2.137481e+02
  -3.454389e+02  -4.954372e+01
  -1.725110e+02  -3.119508e+02
   2.230043e+02  -2.793202e+02
   3.661088e+02  -6.384237e+01
   2.321437e+02   1.184937e+02
  -7.684261e+01   2.694497e+02
  -2.075824e+02   3.354354e+02
  -3.548256e+02   1.852081e+02
  -2.762263e+02  -1.673745e+02
  -5.656626e+01  -4.364573e+02
   1.140167e+02  -3.464638e+02
   1.059242e+02  -9.298412e+01
   2.362044e+01   1.456653e+00
   4.338973e+01  -6.831030e+01
   1.706668e+02  -1.524684e+02
   2.746975e+02   3.861623e+01
   1.548607e+02   2.783496e+02
  -5.068595e+01   2.535611e+02
  -2.527089e+02  -5.471150e+00
  -2.234171e+02  -2.265953e+02
   2.915992e+01  -3.219437e+02
   2.692958e+02  -1.227227e+02
   3.586292e+02   1.669735e+02
   1.975102e+02   3.292117e+02
  -1.098117e+02   3.042271e+02
  -2.400939e+02   1.002860e+02
  -1.563833e+02   2.343898e+01
  -1.116636e+02   2.410340e+01
  -2.387533e+02   6.033649e+01
  -3.743014e+02  -7.086792e+01
  -3.445565e+02  -2.727921e+02
   1.795035e+01  -4.306036e+02
   3.545620e+02  -4.092173e+02
   4.841732e+02  -1.489311e+02
   3.172532e+02   1.324609e+02
  -7.176291e+00   3.055492e+02
  -1.526465e+02   2.279143e+02
  -8.799806e+01   1.380961e+01
   1.122619e+02  -8.750819e+01
   1.645730e+02   2.814015e+01
   5.837969e+01   1.937868e+02
  -1.451094e+02   1.482399e+02
  -1.867884e+02  -5.434712e+01
  -2.119392e+01  -1.943006e+02
   2.066959e+02  -2.681850e+01
   1.515485e+02   2.495200e+02
  -5.214777e+01   3.419322e+02
  -2.461662e+02   2.160479e+02
  -3.395463e+02  -8.022887e+01
  -2.612453e+02  -2.555887e+02
  -8.331843e+01  -2.443760e+02
   9.821073e+01  -1.446837e+02
   1.714738e+02   8.401026e-01
   4.760960e+01   6.054835e+01
  -3.861376e+01  -1.109352e+01
  -3.245629e+01  -1.194224e+02
   1.226894e+02  -1.094717e+02
   2.020513e+02   1.657643e+01
   5.255831e+01   9.128406e+01
  -8.167478e+01   1.655021e+01
  -5.953487e+01  -6.736127e+01
   1.321864e+02  -1.128092e+02
   3.048831e+02   4.026923e+01
   2.608789e+02   1.528280e+02
   4.548590e+01   2.671010e+02
  -1.779687e+02   2.426147e+02
  -2.761717e+02   1.356884e+02
  -1.637065e+02  -4.434293e+01
   3.623395e+00  -7.093103e+01
   7.875399e+01   1.132619e+01
  -1.582811e+01   9.229300e+01
  -1.458266e+02   4.630521e+01
  -2.137931e+02  -1.192890e+02
  -9.489449e+01  -2.113161e+02
   9.429291e+01  -1.785970e+02
   1.318764e+02  -3.591838e+01
   6.342928e+01   2.959859e+01
  -1.861258e+01  -1.026762e+01
  -2.481792e+01  -8.299573e+01
   8.382771e+01  -1.293313e+02
   2.248034e+02  -3.863706e+01
   1.968597e+02   1.391369e+02
   2.370889e+01   1.989342e+02
  -1.560508e+02   1.487393e+02
  -2.166887e+02  -3.040609e+01
  -6.282269e+01  -1.144700e+02
   5.622776e+01  -8.881715e+01
   7.534594e+01  -1.479936e+01
  -1.044916e+01   2.494555e+01
  -1.455974e+01   1.241562e+01
   6.295440e+00  -2.886440e+01
   7.249130e+01   2.422063e+01
   8.356254e+01   9.956983e+01
   1.658320e+01   1.568869e+02
  -1.224446e+02   1.327581e+02
  -2.246744e+02   1.648045e+01
  -1.893725e+02  -1.632265e+02
  -4.949293e+01  -2.468994e+02
   1.346676e+02  -1.569613e+02
   1.471197e+02   1.571771e+00
   1.013825e+02   6.567126e+01
   3.000903e+01   4.878128e+01
   3.827287e+01   1.360995e+01
   8.006909e+01  -1.744528e+01
   7.541255e+00   5.874550e+01
  -5.550248e+01   9.229715e+01
  -9.286383e+01   7.467013e+01
  -1.000917e+02  -5.290144e+01
   3.931896e+01  -1.173194e+02
   1.654233e+02  -8.636845e+01
   1.852536e+02   6.336992e+01
   9.880108e+01   2.052039e+02
  -1.056925e+02   2.265509e+02
  -2.656550e+02   8.793721e+01
  -2.629781e+02  -7.361625e+01
  -8.726316e+01  -1.986128e+02
   4.484297e+01  -1.348743e+02
   1.219222e+02  -8.305975e+01
   8.683585e+01  -5.249305e+01
   6.382835e+01  -9.193072e+01
   7.333481e+01  -7.725335e+01
   1.004600e+02   1.433492e+01
   1.261039e+02   1.455070e+02
   2.439260e+01   2.161866e+02
  -9.740067e+01   1.596044e+02
  -1.726456e+02   2.762579e+01
  -1.423191e+02  -1.086388e+02
  -4.336535e+01  -1.472866e+02
   4.162000e+01  -9.202481e+01
   5.399857e+01   9.357933e+00
   5.968326e+00   3.759429e+01
  -1.890033e-01   4.823970e+01
   3.199713e+01   2.003684e+01
   9.633676e+01  -8.123687e+00
   5.136247e+01   3.299782e+01
  -4.262505e+01   3.332686e+01
  -1.636935e+02   2.486845e+01
  -1.438997e+02  -6.698664e+01
  -3.483561e+01  -7.402958e+01
   1.297774e+02  -1.045035e+02
   1.286139e+02   1.324837e+01
   3.836200e+01   4.857710e+01
  -5.889989e+01   4.363555e+01
  -7.695723e+01  -1.709871e+00
  -3.572397e+00  -6.300493e+01
   8.140936e+01  -4.977736e+01
   6.128670e+01  -2.216087e+00
   9.162373e+00   3.569594e+01
   4.991574e+01   1.509359e+01
   5.947587e+01   2.345259e+00
   6.857113e+01  -9.662828e+00
   3.369764e+01   6.086432e+01
  -1.685056e+01   1.524720e+02
  -1.265745e+02   1.245618e+02
  -1.597219e+02   2.070036e+01
  -1.192010e+02  -7.639903e+01
   2.320258e+01  -9.785252e+01
   9.448035e+01  -3.593484e+01
   5.877267e+01   2.711049e+01
  -5.679380e+01  -3.123687e+00
  -1.200914e+02  -2.949423e+01
  -7.657407e+01  -9.580019e+01
   7.680797e+01  -1.170285e+02
   2.039330e+02  -3.113161e+01
   1.457000e+02   4.039433e+01
   6.038157e+01   1.125389e+02
  -5.106589e+01   6.702683e+01
  -2.539350e+01  -1.039811e+01
   3.288817e+01  -2.980817e+01
   1.091081e+02   1.497122e+01
   3.734097e+01   1.247430e+02
  -1.013809e+02   1.585162e+02
  -1.780301e+02   5.813466e+01
  -1.220948e+02  -9.375119e+01
  -1.456415e+01  -2.023072e+02
   7.804457e+01  -1.225197e+02
   1.010869e+02  -1.434126e+01
   4.012501e+01   1.351593e+02
   2.224290e+01   1.256125e+02
  -1.639465e+01   2.597513e+01
  -6.111960e+01  -3.816658e+01
  -1.016349e+01   1.618552e+01
  -3.952685e+01   2.049512e+01
  -2.155704e+01  -1.525964e+01
  -3.788873e+01  -7.088706e+01
  -5.736611e+01  -1.274883e+02
   4.863169e+01  -2.649804e+01
   1.411679e+02   3.200201e+01
   1.400234e+02   7.035288e+01
   3.488557e+00   3.321757e+01
  -9.990866e+01   7.835249e+00
  -1.013712e+02  -1.465043e+01
  -2.295910e+01  -2.592874e+01
   3.054025e+01  -1.380997e+01
   3.749676e+01  -3.321025e+01
   2.705964e+00  -9.166841e+00
   2.946521e+00  -5.332423e+00
   6.730347e+01   1.238592e+00
   7.584701e+01   2.766019e+01
   1.801287e+01   5.483965e+01
  -1.114615e+02   1.092626e+02
  -1.995845e+02   6.130317e+01
  -1.310128e+02  -7.097944e+01
   1.445391e+01  -1.732602e+02
   7.401364e+01  -1.300425e+02
   8.798933e+01  -5.859324e+01
   8.916449e+01   1.802566e+01
   2.268786e+01   5.191166e+01
  -1.660084e+01  -2.524287e+01
   2.075587e+01   4.056004e+00
   2.223649e+01   7.146709e+01
   1.663751e+01   8.737079e+01
  -4.178443e+01   8.898476e+01
  -6.522924e+01  -1.872890e+01
  -9.838286e+01  -9.090405e+01
  -1.666650e+00  -9.497744e+01
   7.736586e+01  -2.662565e+01
   8.365023e+01   6.637090e+01
   3.019148e+01   9.743087e+01
  -4.776863e+01   6.178153e+01
  -8.406579e+01  -3.642274e+01
  -3.231842e+01  -4.933159e+01
   2.723021e+01  -6.698294e+01
   2.533332e+01  -1.597306e+01
  -3.301595e+01  -1.058724e+01
  -4.635935e+01   1.862242e+01
  -1.559336e+01  -2.203726e+01
   6.471491e+01  -5.955745e+01
   9.004935e+01  -4.370132e+01
   5.680180e+01   1.340433e+01
  -3.618344e+01   5.464352e+01
  -4.534868e+01   7.543781e+01
  -2.847228e+01  -1.501060e+01
  -4.871846e+00  -5.481281e+01
   3.470049e+01  -2.889420e+01
   4.307254e+01   1.867437e+01
   4.927649e+01   5.995906e+01
  -8.127857e+00   2.699646e+01
  -5.052775e+01  -3.137727e+00
  -4.661690e+01  -2.754873e+01
   2.779955e-01   1.720029e+00
   1.961371e-01   2.075915e+01
   2.119831e+01   5.124620e+00
   1.254634e+01  -4.617321e+01
   2.766998e+01  -4.886868e+01
   2.809324e+01  -1.339587e+01
   5.460528e+01   4.877798e+01
  -1.075272e+01   3.650047e+01
  -3.067887e+01   4.515087e+01
  -6.315259e+01  -1.313556e+01
  -2.281608e+01  -4.477524e+01
   5.226443e+01  -2.603180e+01
   5.581873e+01   9.966766e+00
   3.044823e+01   2.754814e+01
  -3.073555e+01   1.749550e+01
  -6.509644e+01   5.098994e+01
  -1.341046e+01  -3.793021e+00
   5.613296e+01  -1.884564e+01
   4.169324e+01   7.390580e+00
  -2.091814e+01   1.701322e+01
  -9.208617e+01   6.706239e+00
